<?xml version="1.0" encoding="UTF-8" ?>
<OPUSDataFile><AB><Ydata ylabel="Absorbance Units"><values byteorder="INTEL" format="FLOAT32" numvalues="3497"> -0.07346337 -0.07346068 -0.0734702 -0.07349307 -0.07351231 -0.07352702 -0.07352107 -0.07349533 -0.07345571 -0.07340531
 -0.07336632 -0.07333819 -0.07333249 -0.07334288 -0.07336002 -0.07337967 -0.07338873 -0.07339177 -0.07338783 -0.07338503
 -0.07339043 -0.07340569 -0.07343537 -0.07347213 -0.07351501 -0.07355522 -0.07358991 -0.07361683 -0.07363421 -0.07364964
 -0.07366324 -0.07368769 -0.07372372 -0.07377728 -0.0738474 -0.07392325 -0.07400224 -0.07406282 -0.07410529 -0.074117
 -0.0741047 -0.07407648 -0.07404157 -0.0740198 -0.07401317 -0.07403429 -0.07407368 -0.07412917 -0.07418875 -0.07424439
 -0.07429283 -0.07433072 -0.07435954 -0.07437974 -0.07438894 -0.07438657 -0.07437233 -0.07434544 -0.07431617 -0.07428504
 -0.07426634 -0.07426027 -0.07427289 -0.07430325 -0.07434896 -0.0744089 -0.07447834 -0.07455539 -0.07463361 -0.07471067
 -0.0747786 -0.07484004 -0.07489374 -0.07494606 -0.07500418 -0.07506378 -0.07512869 -0.07517825 -0.07520524 -0.07519699
 -0.07514431 -0.07506781 -0.0749664 -0.07488147 -0.07481685 -0.07480357 -0.07484365 -0.07494131 -0.07509459 -0.07527914
 -0.07548947 -0.07568026 -0.07584751 -0.07594917 -0.07599264 -0.07597135 -0.07590204 -0.07580971 -0.07570574 -0.07561427
 -0.07553618 -0.0754813 -0.07544272 -0.07541973 -0.07540443 -0.07539158 -0.07538587 -0.07538547 -0.0754069 -0.07545353
 -0.07553015 -0.07563937 -0.07575749 -0.07588337 -0.07598407 -0.07605961 -0.07610299 -0.07611818 -0.07612687 -0.07613137
 -0.0761536 -0.07618901 -0.07623892 -0.07629479 -0.07634109 -0.07637732 -0.07639404 -0.07640168 -0.07640737 -0.07641324
 -0.07642541 -0.07643206 -0.07642782 -0.07641354 -0.07638355 -0.0763677 -0.07636873 -0.07642045 -0.07652909 -0.0766863
 -0.07689264 -0.07704916 -0.07715123 -0.07710125 -0.07691725 -0.07666802 -0.07637212 -0.0761406 -0.07596637 -0.07588909
 -0.07589096 -0.07596396 -0.0760816 -0.07621278 -0.07632963 -0.07639495 -0.07640846 -0.07635111 -0.076263 -0.07615376
 -0.07606025 -0.07599837 -0.07596359 -0.07595903 -0.07596453 -0.07597741 -0.07599539 -0.07601812 -0.07605501 -0.07610569
 -0.07616692 -0.07623617 -0.07629468 -0.07634182 -0.07636411 -0.07636511 -0.07634766 -0.07631286 -0.07626397 -0.07620085
 -0.07612137 -0.07603519 -0.07594663 -0.07587264 -0.07582409 -0.07581109 -0.07584283 -0.0759114 -0.07602019 -0.07614119
 -0.07627191 -0.07637905 -0.07645871 -0.07649092 -0.07647411 -0.07640695 -0.07629035 -0.07613865 -0.07595396 -0.07575686
 -0.07554955 -0.07535006 -0.07516202 -0.07500283 -0.07487653 -0.07480015 -0.07476955 -0.07479175 -0.07484566 -0.07491923
 -0.07498626 -0.07502481 -0.07503333 -0.07500066 -0.07495517 -0.07490116 -0.07486645 -0.07485835 -0.07487988 -0.07493319
 -0.07500494 -0.07509458 -0.07518419 -0.07527248 -0.0753368 -0.07537636 -0.07537258 -0.07532943 -0.07525008 -0.07514367
 -0.07503419 -0.07492997 -0.07485719 -0.07481788 -0.07482757 -0.07487694 -0.07496469 -0.07507803 -0.07520644 -0.07535243
 -0.07551388 -0.07569829 -0.07591303 -0.0761323 -0.07635716 -0.07653397 -0.07665615 -0.07669897 -0.07666031 -0.07653656
 -0.07632785 -0.07603107 -0.07565352 -0.07524044 -0.07480583 -0.0744311 -0.07412033 -0.07392972 -0.07384541 -0.07387758
 -0.07398697 -0.07413215 -0.07427519 -0.07436064 -0.07439876 -0.07437544 -0.0743242 -0.07425739 -0.07418997 -0.07413159
 -0.07407127 -0.07400952 -0.07392825 -0.07382432 -0.07369948 -0.07355323 -0.0734098 -0.07327072 -0.07316463 -0.0730915
 -0.07306854 -0.07308776 -0.07313209 -0.07318182 -0.07317207 -0.07310093 -0.07292295 -0.07267713 -0.07239524 -0.07210576
 -0.07185297 -0.07162186 -0.07142088 -0.07121423 -0.07098666 -0.07072459 -0.07041572 -0.07008539 -0.06973432 -0.06939764
 -0.06908043 -0.06879406 -0.06854019 -0.06829592 -0.06805936 -0.06779149 -0.06749431 -0.06716174 -0.0668016 -0.06644452
 -0.06609203 -0.06576449 -0.06545806 -0.06517605 -0.06491176 -0.06466229 -0.06440975 -0.06414071 -0.06383262 -0.06346437
 -0.06303748 -0.06254583 -0.06200293 -0.06141511 -0.0607717 -0.06007055 -0.0593104 -0.05848816 -0.05763621 -0.05675643
 -0.05587421 -0.05499029 -0.05411389 -0.05324721 -0.05241146 -0.05160888 -0.05086438 -0.05016967 -0.04951803 -0.04889433
 -0.04826773 -0.04762833 -0.04695532 -0.04623145 -0.04543747 -0.04455308 -0.04354661 -0.04245966 -0.04129212 -0.04012196
 -0.03897969 -0.0378702 -0.03680397 -0.03574016 -0.03467432 -0.03358583 -0.03247228 -0.03134816 -0.03021517 -0.02910998
 -0.02803288 -0.02700948 -0.02602647 -0.02504854 -0.02404807 -0.0229204 -0.02167583 -0.02026315 -0.01876007 -0.01725501
 -0.01578152 -0.01441831 -0.01311609 -0.01186982 -0.01062443 -0.00934968 -0.008035893 -0.006668519 -0.005279765 -0.003873396
 -0.002475617 -0.001092751 0.000290359 0.001673584 0.003099278 0.004568287 0.006093506 0.007668647 0.009249253 0.01083204
 0.01237626 0.01389038 0.01537888 0.01684574 0.01830237 0.01974478 0.02116859 0.02258137 0.02398622 0.02539669
 0.02682529 0.02826845 0.02972543 0.03120035 0.0326881 0.03422507 0.03582001 0.03748243 0.03922106 0.04096496
 0.04271026 0.04438492 0.04598815 0.04752456 0.04899933 0.05045474 0.05189373 0.05335207 0.05482734 0.05633443
 0.05786177 0.05939427 0.06092288 0.06242236 0.06390956 0.06538459 0.06688371 0.06843401 0.07004384 0.07173308
 0.07345974 0.07521771 0.07696306 0.07868448 0.08036734 0.08200701 0.08361313 0.08518544 0.08675272 0.08831622
 0.08989877 0.09149832 0.09310762 0.09472521 0.09633838 0.09795297 0.09958012 0.101223 0.1028972 0.1045924
 0.1063035 0.1080154 0.1097119 0.1113848 0.113022 0.1146283 0.1161982 0.1177562 0.1193063 0.1208782
 0.1224807 0.1241158 0.1257871 0.1274696 0.129162 0.1308432 0.1325126 0.13416 0.135786 0.1373886
 0.138972 0.1405534 0.1421363 0.1437431 0.1453659 0.1470011 0.1486385 0.1502592 0.1518666 0.1534567
 0.1550358 0.1566092 0.1581719 0.1597228 0.1612577 0.1627738 0.1642743 0.1657594 0.1672292 0.1686825
 0.1701294 0.1715697 0.1730312 0.1745146 0.1760258 0.1775609 0.1790874 0.180604 0.1820868 0.1835421
 0.1849777 0.1863952 0.1878031 0.1891961 0.190569 0.1919211 0.1932497 0.1945574 0.1958445 0.1971158
 0.1983701 0.199626 0.2008878 0.2021743 0.2034933 0.2048339 0.2061972 0.2075576 0.2089132 0.2102536
 0.2115782 0.2128774 0.21415 0.2153769 0.2165619 0.2177093 0.2188293 0.219956 0.2210916 0.2222597
 0.2234505 0.2246604 0.2258786 0.2270935 0.2282973 0.2294812 0.2306425 0.2317759 0.2328897 0.2339855
 0.2350705 0.2361482 0.2372105 0.2382564 0.2392822 0.2402868 0.2412874 0.2422848 0.2432941 0.2443144
 0.2453434 0.2463803 0.2474216 0.2484651 0.2495043 0.2505331 0.2515331 0.2525074 0.2534479 0.2543726
 0.2552977 0.2562318 0.2571906 0.258158 0.2591321 0.2600933 0.261034 0.261947 0.2628288 0.2636814
 0.2645032 0.2653126 0.2661101 0.2669251 0.2677583 0.2686146 0.2694912 0.2703638 0.2712325 0.2720844
 0.2729236 0.2737578 0.2745844 0.275403 0.2762078 0.2769876 0.2777475 0.2784865 0.2792158 0.2799444
 0.2806726 0.2814055 0.2821297 0.2828426 0.2835311 0.2841899 0.2848245 0.285433 0.2860421 0.2866543
 0.2872786 0.2879145 0.2885214 0.2890966 0.2895921 0.2900157 0.2903769 0.2906922 0.2910174 0.2913606
 0.2917673 0.2922321 0.2927694 0.293363 0.2940068 0.2946732 0.2953415 0.2959947 0.2966118 0.2972184
 0.2978142 0.2984417 0.2991163 0.2998245 0.3005734 0.3012819 0.3019446 0.3024914 0.3029203 0.3032448
 0.3034726 0.303684 0.3038822 0.3041299 0.3044165 0.3047397 0.3050941 0.30546 0.3058554 0.3063001
 0.3068028 0.3073947 0.3080297 0.3086937 0.309322 0.3098699 0.3103394 0.3107096 0.3110531 0.3113815
 0.3117523 0.3121797 0.3126519 0.3131713 0.3136839 0.3141871 0.3146331 0.3150228 0.315345 0.3156084
 0.3158479 0.316077 0.316356 0.3166908 0.3171278 0.3176534 0.3182746 0.3189562 0.3196684 0.320374
 0.3210318 0.3216415 0.3221825 0.3227034 0.3232127 0.3237614 0.3243654 0.325033 0.3257687 0.3265596
 0.3274041 0.3283096 0.3292764 0.3303162 0.3314244 0.3325647 0.3337211 0.3347946 0.3357707 0.3365421
 0.3371259 0.3374893 0.3376975 0.3378239 0.3379444 0.3381758 0.3385252 0.3390572 0.3396761 0.3403661
 0.3409945 0.3415114 0.3418452 0.3419614 0.3418887 0.3416196 0.3412462 0.3407744 0.3402891 0.3397941
 0.339323 0.3388742 0.3384443 0.3380321 0.3376305 0.3372393 0.3368554 0.3364738 0.336086 0.3356772
 0.3352273 0.3347073 0.3340833 0.3333236 0.3323882 0.3312829 0.3299861 0.328566 0.3270324 0.3254755
 0.3239178 0.3224123 0.3209714 0.319607 0.3183221 0.3171082 0.3159648 0.3148569 0.3137812 0.3126853
 0.3115727 0.3104308 0.3092747 0.3081508 0.3070623 0.3060481 0.3050807 0.3041377 0.3031877 0.3021806
 0.301125 0.2999998 0.2988589 0.2977179 0.2966386 0.2956488 0.2947702 0.2940221 0.2933532 0.2927659
 0.292154 0.2915086 0.2907501 0.2898751 0.2889002 0.2878324 0.2867576 0.28568 0.284668 0.2837141
 0.2828299 0.2820061 0.2812274 0.2804891 0.2797809 0.2790936 0.2784174 0.277736 0.2770332 0.2763034
 0.2755342 0.2747461 0.273941 0.2731474 0.2723751 0.2716252 0.2709024 0.2701759 0.2694436 0.2686782
 0.2678786 0.2670462 0.2661825 0.265304 0.2644113 0.2635162 0.2626191 0.2617279 0.2608442 0.2599774
 0.259125 0.2582896 0.2574624 0.2566353 0.2558003 0.2549475 0.2540769 0.2531847 0.252278 0.2513578
 0.2504326 0.2495046 0.2485778 0.2476539 0.2467304 0.2458075 0.2448815 0.243952 0.2430187 0.2420818
 0.2411434 0.2402037 0.2392651 0.2383282 0.2373971 0.2364722 0.2355574 0.2346502 0.2337491 0.23285
 0.2319462 0.2310397 0.2301257 0.2292216 0.2283305 0.2274839 0.2266944 0.2259786 0.2253513 0.2247694
 0.2242364 0.2236506 0.2230035 0.2222122 0.2212723 0.2202021 0.2190104 0.2178094 0.2166097 0.2155325
 0.2145721 0.2137823 0.2131317 0.2125844 0.2120929 0.2115649 0.2109751 0.210246 0.2094168 0.2084791
 0.2075163 0.2065737 0.205692 0.2049079 0.2041797 0.2035055 0.2028381 0.2021623 0.2015119 0.2008856
 0.200365 0.1999542 0.1996736 0.1995157 0.1993929 0.1992917 0.1990838 0.1987719 0.1982881 0.1976627
 0.196927 0.1961198 0.1953218 0.1945431 0.1938341 0.1931662 0.1925328 0.1919104 0.191275 0.1906512
 0.1900388 0.1894779 0.1889849 0.1885476 0.1881716 0.1877977 0.1874194 0.1870111 0.186571 0.1861418
 0.1857263 0.1853771 0.1850894 0.1848639 0.184689 0.1845236 0.1843617 0.1841668 0.1839437 0.1836831
 0.1833924 0.1830804 0.1827399 0.1823757 0.1819554 0.1814653 0.1808736 0.1801559 0.1793378 0.1784079
 0.1774653 0.1765201 0.1756758 0.1749473 0.1743469 0.1738762 0.1734407 0.1730337 0.1725389 0.1719604
 0.1712588 0.1704556 0.1696052 0.1687269 0.1678984 0.1671152 0.1664084 0.1657548 0.1651394 0.1645442
 0.1639485 0.1633478 0.1627341 0.1621087 0.1614687 0.160824 0.1601744 0.1595406 0.1589277 0.1583365
 0.1577706 0.1571865 0.156582 0.1559124 0.15518 0.1544056 0.1535984 0.1528299 0.1520972 0.1514348
 0.1508196 0.1502125 0.1495972 0.1489207 0.1482006 0.1474304 0.1466486 0.1458836 0.1451609 0.1445042
 0.1439173 0.1434074 0.1429711 0.14261 0.1423146 0.1420865 0.1418976 0.1417474 0.1415878 0.1414159
 0.1411823 0.1408861 0.1405027 0.1400376 0.1395089 0.138929 0.1383511 0.1377882 0.1372992 0.1368892
 0.1365952 0.1364111 0.1363466 0.1363868 0.1365246 0.1367428 0.1370303 0.1373764 0.1377741 0.1382211
 0.1387152 0.1392564 0.1398434 0.1404827 0.1411728 0.1419433 0.1427957 0.1437812 0.1449014 0.1461915
 0.1476456 0.1492484 0.1509871 0.1528064 0.1546965 0.1566042 0.1585288 0.1604443 0.1623572 0.164264
 0.1661754 0.1680971 0.170042 0.1720186 0.1740346 0.176099 0.1781966 0.1803328 0.1824535 0.184557
 0.1865577 0.1884486 0.1901456 0.1916433 0.1928879 0.1938781 0.1945903 0.1950253 0.1951735 0.1950423
 0.1946432 0.194007 0.1931998 0.192286 0.1913949 0.1905998 0.1900421 0.1897525 0.1898146 0.1901938
 0.1909001 0.191871 0.1930839 0.1944986 0.1961001 0.1978702 0.1998062 0.2018794 0.2040886 0.2063847
 0.2087649 0.2111747 0.2136118 0.2160331 0.2184403 0.2208187 0.2231774 0.2255426 0.2279243 0.2303697
 0.2328623 0.2354226 0.2379562 0.2404099 0.242549 0.2442234 0.2450634 0.2448355 0.2432423 0.2400538
 0.2353836 0.2291246 0.2219194 0.2138087 0.205658 0.1975602 0.1901415 0.18345 0.1776481 0.1727252
 0.168501 0.1649503 0.1618197 0.1591014 0.1566349 0.1544199 0.152382 0.1505086 0.1487472 0.1470808
 0.145464 0.1439007 0.1423726 0.1409093 0.13952 0.1382385 0.1370806 0.1360656 0.1352028 0.1344946
 0.1339441 0.1335403 0.1332831 0.1331565 0.1331597 0.1332789 0.1335119 0.1338274 0.1342148 0.1345903
 0.1349352 0.1351286 0.1351669 0.1349681 0.1345666 0.1339738 0.1332545 0.1324858 0.131735 0.131081
 0.1305756 0.1302686 0.1301903 0.1303636 0.1308023 0.1315111 0.1325138 0.1338129 0.1354477 0.1374319
 0.1397018 0.1422613 0.1447206 0.1470394 0.1484676 0.1489661 0.1478454 0.1451991 0.1409669 0.1354071
 0.1291364 0.1224127 0.1160017 0.109979 0.1047787 0.1002799 0.09654154 0.09337522 0.09068539 0.08834023
 0.08626153 0.08439288 0.08270513 0.08117215 0.07978648 0.07852639 0.07738949 0.07635408 0.0754189 0.07455676
 0.07376583 0.07301287 0.07229654 0.07159032 0.07089598 0.07020499 0.06952321 0.06886061 0.06822462 0.06763505
 0.06709146 0.06660662 0.06616174 0.06574974 0.06533942 0.06490894 0.06444256 0.06392153 0.06337071 0.06278745
 0.06222495 0.06169303 0.0612253 0.06083032 0.06048543 0.06019052 0.05988917 0.05957976 0.05923417 0.05885696
 0.05847028 0.05807672 0.05770311 0.05733918 0.05697141 0.05658862 0.0561578 0.05568981 0.05517931 0.05465568
 0.05414344 0.05366214 0.05323419 0.05285532 0.05253091 0.05224584 0.05199862 0.05176934 0.05155629 0.05133088
 0.05108971 0.05081148 0.05049388 0.05014745 0.04977366 0.04940501 0.04904193 0.04870341 0.04838623 0.04808611
 0.04780167 0.04752635 0.04726197 0.04701007 0.04676943 0.04654028 0.04631779 0.04609633 0.04587723 0.04565742
 0.04544726 0.0452513 0.04507324 0.04491901 0.04476905 0.04462307 0.04444849 0.04424046 0.04398723 0.0436867
 0.04336689 0.04302986 0.04271909 0.04243385 0.0421905 0.04198223 0.04178873 0.04160431 0.04140082 0.0411813
 0.04093647 0.04067616 0.0404091 0.0401441 0.03989355 0.03965788 0.03944381 0.03923913 0.03904269 0.03883456
 0.03860857 0.03835246 0.03806078 0.03774176 0.03739433 0.03704152 0.03668482 0.03634272 0.03601559 0.03570593
 0.03541254 0.03512708 0.03484881 0.03456981 0.034291 0.03401039 0.03373003 0.03345251 0.03318031 0.03291808
 0.03266644 0.03242864 0.0322012 0.03198394 0.03177002 0.03155632 0.03133885 0.03111498 0.03088727 0.03065543
 0.03042456 0.03019548 0.02996907 0.02974559 0.02952138 0.02929637 0.02906975 0.02884249 0.02862198 0.02840945
 0.02821532 0.02803763 0.02787808 0.02772991 0.02758165 0.02742628 0.02724879 0.02704803 0.02681601 0.02655902
 0.02627744 0.02598128 0.02567426 0.02536604 0.02506027 0.02476236 0.02447454 0.02419539 0.02392529 0.0236596
 0.02339793 0.02314005 0.02288613 0.02264141 0.02240576 0.02218111 0.02196582 0.02175372 0.02154311 0.02132545
 0.02110115 0.02086643 0.02062373 0.02037443 0.02012155 0.01986808 0.01961708 0.01937119 0.01913285 0.01890416
 0.01868468 0.01847534 0.01827197 0.01807427 0.01787676 0.01767881 0.01747584 0.01726744 0.01705045 0.01682485
 0.01659151 0.01635111 0.01611005 0.01586867 0.01563272 0.01540027 0.01516883 0.01493608 0.01469472 0.0144477
 0.01419416 0.01394263 0.01370121 0.013475 0.01327206 0.01308612 0.01291837 0.01275466 0.01259137 0.01241674
 0.01222715 0.01202008 0.01179402 0.01155591 0.0113059 0.01105627 0.0108076 0.01056948 0.01034146 0.01012443
 0.009916699 0.009710849 0.009505782 0.009293471 0.009076051 0.008853123 0.00862922 0.008410927 0.008200064 0.008002255
 0.007812958 0.007631799 0.007451433 0.007268302 0.007078265 0.00687904 0.006670106 0.006450699 0.006222712 0.005985768
 0.005746449 0.005505005 0.005271914 0.005047639 0.004839573 0.00464711 0.004468308 0.00430158 0.004138499 0.003978007
 0.003812455 0.003642018 0.003463217 0.003277189 0.003083809 0.002884893 0.002681941 0.002476936 0.002271741 0.002067131
 0.001864135 0.001661988 0.001460498 0.001259646 0.001058744 0.0008620686 0.000669798 0.0004882963 0.0003183024 0.0001591148
 1.044996E-05 -0.0001386204 -0.0002887115 -0.0004508292 -0.0006233742 -0.0008049421 -0.0009926353 -0.001176247 -0.001355782 -0.001525336
 -0.001688726 -0.00184895 -0.002009019 -0.002173835 -0.00234228 -0.002515299 -0.002690583 -0.002866869 -0.00304428 -0.003222619
 -0.003402198 -0.003583479 -0.00376382 -0.003942875 -0.004119141 -0.004292346 -0.004464555 -0.004635852 -0.004807884 -0.004980392
 -0.005151293 -0.005320651 -0.005487158 -0.005652215 -0.005819516 -0.005990068 -0.006168199 -0.006352983 -0.006545037 -0.006742962
 -0.006945523 -0.007151919 -0.007361555 -0.007572899 -0.007785265 -0.007996995 -0.008207201 -0.008416032 -0.008623349 -0.008829761
 -0.009035668 -0.00923835 -0.009437725 -0.009629286 -0.009812879 -0.009987729 -0.01015444 -0.01031846 -0.01048073 -0.0106492
 -0.0108235 -0.0110073 -0.01119824 -0.01139328 -0.01159033 -0.01178449 -0.0119765 -0.01216533 -0.01235208 -0.01253787
 -0.01272117 -0.01290137 -0.0130778 -0.01324919 -0.01341991 -0.01359051 -0.01376548 -0.01394604 -0.01412973 -0.01431657
 -0.01450138 -0.01468398 -0.01486488 -0.01504454 -0.0152281 -0.0154153 -0.01560792 -0.01580426 -0.01600016 -0.01619368
 -0.0163785 -0.01655408 -0.01671628 -0.01686713 -0.01700667 -0.01713837 -0.01726438 -0.01738797 -0.01751093 -0.01763623
 -0.01776486 -0.01790022 -0.01804343 -0.01819548 -0.01835714 -0.01852433 -0.01869692 -0.01886919 -0.01904088 -0.01921066
 -0.01937878 -0.01954775 -0.01971708 -0.01988614 -0.02005284 -0.02021008 -0.02035659 -0.0204849 -0.0205982 -0.0206965
 -0.02078739 -0.02087825 -0.02097597 -0.02108873 -0.02121652 -0.02136303 -0.02152019 -0.0216872 -0.02185262 -0.02201376
 -0.02216336 -0.02229937 -0.02242378 -0.02253625 -0.02264552 -0.02275202 -0.02286291 -0.02297808 -0.02309872 -0.02322435
 -0.02335312 -0.0234849 -0.02361835 -0.02375366 -0.02389069 -0.02402953 -0.02417055 -0.02431281 -0.02445613 -0.02459752
 -0.02473511 -0.02486557 -0.02498614 -0.02509747 -0.02519843 -0.02529377 -0.02538415 -0.02547439 -0.02556536 -0.0256592
 -0.02575618 -0.02585725 -0.02596248 -0.02607233 -0.02618676 -0.02630544 -0.02642851 -0.02655616 -0.02668919 -0.02682979
 -0.0269796 -0.0271428 -0.02732172 -0.02752155 -0.02774418 -0.02799393 -0.02827036 -0.02857471 -0.02890531 -0.02925999
 -0.02964395 -0.03005547 -0.03051277 -0.03101797 -0.03159477 -0.03224851 -0.03298215 -0.03379908 -0.03465428 -0.03554495
 -0.03638038 -0.03715622 -0.0377917 -0.03829135 -0.03863938 -0.03883969 -0.03890342 -0.03881606 -0.03854087 -0.03809081
 -0.03744508 -0.03668968 -0.03590316 -0.03516643 -0.03457091 -0.03413413 -0.03389244 -0.03382622 -0.03394212 -0.03419447
 -0.03458379 -0.03501925 -0.0354922 -0.03589813 -0.03622421 -0.03644895 -0.03657122 -0.03663658 -0.03664703 -0.03663696
 -0.03660763 -0.03658404 -0.03656631 -0.03657221 -0.03659194 -0.0366135 -0.03662514 -0.03659923 -0.03654084 -0.03644201
 -0.03631902 -0.03618262 -0.03604062 -0.0359011 -0.03576191 -0.03562332 -0.03548571 -0.03534817 -0.03521753 -0.03509457
 -0.03498549 -0.03489117 -0.03481149 -0.03474644 -0.03469065 -0.03464394 -0.03460228 -0.03456641 -0.03453829 -0.03451904
 -0.03451396 -0.03452266 -0.03454747 -0.034586 -0.03463589 -0.03469412 -0.03475647 -0.0348213 -0.03488605 -0.03495005
 -0.0350125 -0.03507249 -0.03512948 -0.03518308 -0.03523245 -0.03528128 -0.03532945 -0.03538457 -0.03544743 -0.03552168
 -0.0356075 -0.03570061 -0.03580064 -0.03590145 -0.03600363 -0.03610731 -0.03621361 -0.03632697 -0.03644682 -0.03657478
 -0.03670808 -0.03684317 -0.03697769 -0.03710724 -0.03723202 -0.03735003 -0.0374645 -0.03757636 -0.03768901 -0.03780451
 -0.037922 -0.03804258 -0.03815963 -0.03827251 -0.03837438 -0.03846413 -0.03854299 -0.03861099 -0.03867825 -0.03874528
 -0.03882192 -0.03890716 -0.03900047 -0.03909989 -0.03919745 -0.03929359 -0.03938435 -0.03947349 -0.03956563 -0.03966273
 -0.03977034 -0.03988423 -0.04000391 -0.0401223 -0.04023487 -0.04033962 -0.04043354 -0.04052233 -0.04060647 -0.0406927
 -0.04078266 -0.04087664 -0.0409752 -0.04107244 -0.04116807 -0.04125812 -0.04134278 -0.04142379 -0.04150144 -0.04157847
 -0.04165459 -0.04172987 -0.04180483 -0.04188034 -0.04195797 -0.04204126 -0.0421297 -0.04222501 -0.04232349 -0.04242292
 -0.04252015 -0.04261245 -0.04269998 -0.04278201 -0.04286 -0.04293393 -0.04300626 -0.04307692 -0.04315114 -0.04322935
 -0.04331652 -0.04341295 -0.04351733 -0.04362907 -0.0437399 -0.04384909 -0.04394752 -0.04403579 -0.04411053 -0.04417419
 -0.0442306 -0.04428238 -0.04433599 -0.04439165 -0.04445253 -0.04451696 -0.04458417 -0.04465435 -0.04472676 -0.0448043
 -0.04488803 -0.04497944 -0.0450798 -0.04518574 -0.04529757 -0.04540741 -0.04551467 -0.04561136 -0.04569697 -0.04576923
 -0.04582861 -0.04588144 -0.04592867 -0.04597976 -0.0460342 -0.04609538 -0.04616151 -0.0462295 -0.04629917 -0.04636807
 -0.04643865 -0.04651288 -0.04659244 -0.04668028 -0.04677404 -0.04687412 -0.04697496 -0.04707484 -0.04716872 -0.0472548
 -0.0473314 -0.0473976 -0.04745591 -0.04750624 -0.04755397 -0.0475994 -0.047648 -0.04769986 -0.04775748 -0.04782045
 -0.04788763 -0.04795844 -0.04803015 -0.04810254 -0.04817366 -0.0482437 -0.04831209 -0.04837921 -0.04844527 -0.04851051
 -0.04857541 -0.04863918 -0.04870176 -0.04876155 -0.0488176 -0.04887039 -0.04891918 -0.04896846 -0.04901861 -0.04907494
 -0.04913829 -0.0492086 -0.04928596 -0.04936375 -0.04944157 -0.04951177 -0.04957478 -0.049629 -0.04967621 -0.04972215
 -0.04976856 -0.04982327 -0.04988534 -0.04995771 -0.0500363 -0.05011789 -0.05019789 -0.05027109 -0.05033616 -0.05038991
 -0.05043626 -0.05047516 -0.05051361 -0.05055352 -0.05059907 -0.0506518 -0.05070972 -0.05077292 -0.05083742 -0.05090295
 -0.05096944 -0.05103698 -0.05110734 -0.0511801 -0.05125355 -0.05132691 -0.05139587 -0.05146082 -0.05152034 -0.05157553
 -0.05162793 -0.05167745 -0.05172471 -0.05176911 -0.05180939 -0.05184842 -0.05188645 -0.05192952 -0.05198016 -0.05204188
 -0.05211718 -0.0522017 -0.05229589 -0.05238979 -0.05248253 -0.05256523 -0.05263726 -0.05269483 -0.05273806 -0.0527684
 -0.05278671 -0.05279901 -0.05280662 -0.05281798 -0.05283343 -0.05285858 -0.05289179 -0.05293294 -0.05297999 -0.05303011
 -0.0530829 -0.05313693 -0.05319288 -0.05325089 -0.053311 -0.05337352 -0.05343734 -0.05350246 -0.05356675 -0.05363005
 -0.05368935 -0.05374435 -0.0537928 -0.05383454 -0.05386904 -0.05389639 -0.05391841 -0.05393565 -0.05395247 -0.05396968
 -0.05399286 -0.05402232 -0.05406209 -0.05411127 -0.05417055 -0.0542378 -0.05431154 -0.05438759 -0.05446284 -0.05453148
 -0.05458888 -0.05463328 -0.05466123 -0.05468 -0.05468994 -0.05470192 -0.05471845 -0.05474281 -0.05477617 -0.05481303
 -0.05485312 -0.0548908 -0.05492603 -0.05495842 -0.05498819 -0.05501678 -0.05504396 -0.05506943 -0.05509306 -0.05511418
 -0.05513323 -0.05515085 -0.055167 -0.05518234 -0.0551954 -0.05520502 -0.05521052 -0.05521034 -0.05520738 -0.05520201
 -0.0551985 -0.0551986 -0.05520235 -0.0552106 -0.05521857 -0.05522585 -0.05522844 -0.05522599 -0.0552198 -0.05521008
 -0.05520111 -0.05519286 -0.05518755 -0.05518415 -0.05517989 -0.05517357 -0.05515999 -0.05514011 -0.05511253 -0.05508041
 -0.05504731 -0.05501517 -0.05498765 -0.05496293 -0.05494142 -0.05491946 -0.05489556 -0.05486747 -0.05483378 -0.05479598
 -0.05475369 -0.05471157 -0.05467028 -0.05463099 -0.05459395 -0.05455296 -0.05450779 -0.05445346 -0.05439118 -0.05432755
 -0.05426391 -0.0542104 -0.05416513 -0.05412834 -0.05409758 -0.05406706 -0.05403908 -0.05401416 -0.0539948 -0.05398581
 -0.05398051 -0.05397839 -0.05396609 -0.05393698 -0.05388676 -0.05381049 -0.05372002 -0.0536157 -0.05351432 -0.05341815
 -0.05333487 -0.05326534 -0.05320516 -0.053154 -0.05310493 -0.05305829 -0.05301362 -0.05297129 -0.05293336 -0.05289802
 -0.05286177 -0.05282202 -0.05277185 -0.05271114 -0.05263634 -0.05254972 -0.05245171 -0.05234543 -0.05223241 -0.05211656
 -0.05199963 -0.05188499 -0.05177419 -0.05166771 -0.05156619 -0.05146748 -0.05137159 -0.05127469 -0.05117653 -0.05107377
 -0.05096645 -0.05085639 -0.05074421 -0.05063599 -0.0505313 -0.05043186 -0.05033626 -0.0502408 -0.05014635 -0.05005259
 -0.04996136 -0.04987646 -0.04979455 -0.04971543 -0.04963131 -0.04953662 -0.04942876 -0.04930402 -0.0491675 -0.04901952
 -0.04886626 -0.04870887 -0.04855175 -0.04839549 -0.04824365 -0.04809655 -0.04795579 -0.04782152 -0.04769604 -0.04757973
 -0.04747746 -0.04738831 -0.04731271 -0.04724598 -0.04717649 -0.04709789 -0.04699117 -0.04685704 -0.04668533 -0.04648855
 -0.04627324 -0.04605356 -0.04584166 -0.04564058 -0.04545651 -0.04528041 -0.04511103 -0.04494002 -0.0447643 -0.0445877
 -0.04440978 -0.04424046 -0.04408053 -0.04393284 -0.04379729 -0.04367046 -0.04355143 -0.04343279 -0.04331185 -0.04317276
 -0.04301394 -0.04281987 -0.04259746 -0.04235145 -0.04209132 -0.04183302 -0.04157838 -0.04133419 -0.04110122 -0.04088075
 -0.04067679 -0.04049288 -0.04032509 -0.04017552 -0.04002734 -0.03987836 -0.03971162 -0.03952444 -0.0393101 -0.03906778
 -0.0387985 -0.03850266 -0.03819016 -0.03786247 -0.03753608 -0.03721144 -0.03689956 -0.03659925 -0.03631256 -0.03603875
 -0.03577838 -0.03552823 -0.03528563 -0.03504372 -0.03479388 -0.03453598 -0.03426494 -0.03399124 -0.03371936 -0.03345231
 -0.03319433 -0.03293347 -0.03266815 -0.03238842 -0.03209188 -0.03178291 -0.03146148 -0.03113664 -0.0308085 -0.03047641
 -0.03013874 -0.02978133 -0.02940295 -0.02898764 -0.02854153 -0.02807235 -0.02759 -0.02712051 -0.02666184 -0.02622443
 -0.02579669 -0.02536929 -0.02494008 -0.02450155 -0.0240662 -0.02363802 -0.0232255 -0.02283394 -0.02245815 -0.02210002
 -0.02174183 -0.02138392 -0.02098923 -0.02055509 -0.02005151 -0.01947882 -0.01886655 -0.01821887 -0.01758756 -0.01696818
 -0.01636877 -0.01577963 -0.01517601 -0.01455319 -0.01388973 -0.01318609 -0.01243269 -0.01163566 -0.01079498 -0.009923959
 -0.009034431 -0.00812403 -0.007202866 -0.006231873 -0.005200515 -0.004082756 -0.002862223 -0.001588403 -0.0002643073 0.001056354
 0.002367419 0.003685169 0.00501027 0.006361655 0.007734904 0.009094973 0.0104417 0.01174803 0.01303381 0.01434343
 0.01569492 0.01715797 0.0187071 0.02034266 0.02201935 0.02368403 0.02533731 0.02695715 0.0285763 0.03020561
 0.03186445 0.03356108 0.03530321 0.03708412 0.03896693 0.04094774 0.0431902 0.04570893 0.04857805 0.05179247
 0.05508368 0.05843652 0.06158259 0.06456298 0.06743357 0.07023884 0.07314686 0.07616068 0.07936376 0.08275007
 0.08632332 0.09014212 0.09423218 0.09874244 0.1037853 0.109441 0.1158493 0.1227309 0.1300839 0.1374037
 0.1445702 0.1513508 0.1576812 0.1636271 0.1691829 0.1745293 0.1796796 0.1849448 0.1903537 0.1963448
 0.2028659 0.2099729 0.2174428 0.224566 0.2313221 0.2372481 0.2426258 0.2476763 0.2525949 0.2576894
 0.2629485 0.2684644 0.2741572 0.2800014 0.2859769 0.2920909 0.2982421 0.3044236 0.3104743 0.3163565
 0.3221186 0.3277604 0.3333786 0.3389705 0.344307 0.3493631 0.3537893 0.3576102 0.3607625 0.363287
 0.365291 0.3667599 0.3676972 0.3681252 0.3680406 0.3675703 0.3668406 0.3659381 0.3649558 0.3639497
 0.3629639 0.3620433 0.3612269 0.3604605 0.3597554 0.3589631 0.3580704 0.3569176 0.3554864 0.3537565
 0.3517306 0.3496017 0.347374 0.3451724 0.3429661 0.3406658 0.3382431 0.335551 0.33261 0.329365
 0.3259155 0.3223714 0.3188432 0.3154982 0.3123502 0.309464 0.3068078 0.304364 0.3021762 0.3002429
 0.2986576 0.2974484 0.2966273 0.2962058 0.2961245 0.2963798 0.296928 0.2977673 0.2988763 0.300253
 0.3018692 0.3037201 0.3057669 0.3080052 0.3103998 0.3129527 0.3156479 0.3184971 0.3215087 0.3246977
 0.3280821 0.3316723 0.3354809 0.3395137 0.3437749 0.3482731 0.3530084 0.358003 0.3632638 0.3687964
 0.374613 0.3806202 0.3868164 0.3930284 0.399248 0.405376 0.4114107 0.4173272 0.4230856 0.4284784
 0.4334425 0.4376241 0.4410878 0.4437726 0.4458337 0.4474902 0.4488123 0.4499659 0.4509325 0.4517466
 0.4523869 0.4528656 0.4531098 0.4531324 0.4527106 0.4517912 0.4502453 0.4479985 0.4454442 0.4426099
 0.4397967 0.4370151 0.4340816 0.4309874 0.427566 0.4238407 0.4198512 0.4156172 0.4112606 0.4066993
 0.4018905 0.3965586 0.3902474 0.3828273 0.3737446 0.3637633 0.3532262 0.3428518 0.3332601 0.3241295
 0.3154808 0.3069758 0.2984763 0.2901696 0.2820514 0.2744139 0.2672954 0.2606447 0.2544583 0.2484779
 0.2426993 0.2369867 0.2313624 0.2258797 0.2205512 0.2154565 0.2105699 0.205876 0.2013436 0.1969139
 0.1925813 0.1883285 0.1841238 0.1799769 0.1757338 0.171337 0.1666086 0.1613809 0.1560011 0.1504441
 0.145469 0.1412432 0.1377508 0.1350309 0.1325463 0.1302717 0.1278866 0.1254044 0.1228731 0.1203243
 0.1179672 0.1157851 0.1138329 0.1120758 0.1104435 0.1089628 0.1076307 0.1065168 0.1057054 0.1052105
 0.1050818 0.1052711 0.1057658 0.1065315 0.1075477 0.1088214 0.1103409 0.1121724 0.1143144 0.1169088
 0.1199734 0.1235436 0.1276187 0.1318037 0.1360653 0.1398684 0.143237 0.1460271 0.1482905 0.150128
 0.1515604 0.152671 0.1534925 0.1540877 0.1545472 0.1549744 0.1554871 0.1562268 0.1571862 0.158442
 0.1597889 0.1611611 0.1624575 0.1636187 0.1647415 0.1658299 0.1669873 0.1682271 0.1695581 0.1709808
 0.1724299 0.1739033 0.1753531 0.1767895 0.1782404 0.1797257 0.181331 0.183063 0.1849886 0.1870795
 0.189315 0.1916835 0.1941433 0.1967578 0.1995565 0.2026069 0.2059699 0.209613 0.2135534 0.2176813
 0.2219674 0.2263706 0.2308685 0.2355503 0.240424 0.2455437 0.2509115 0.256297 0.2616757 0.2666643
 0.2712682 0.2753229 0.2788533 0.2818795 0.2843745 0.286301 0.2875887 0.288102 0.2878135 0.2866193
 0.2845842 0.2817073 0.2781047 0.2738312 0.268984 0.2636057 0.2577642 0.2514622 0.2448546 0.2379395
 0.2310413 0.2241879 0.2176486 0.2114389 0.2055439 0.1999524 0.1945066 0.1892138 0.1840299 0.1789887
 0.1741958 0.1696553 0.1654444 0.1615144 0.1578252 0.1543226 0.1509278 0.1476174 0.1443432 0.1411157
 0.1379209 0.1348 0.1317602 0.128853 0.1260951 0.1235037 0.121089 0.1188151 0.1166806 0.1146398
 0.11269 0.1108403 0.1090956 0.1075271 0.1061376 0.1049847 0.1040562 0.1033408 0.1028202 0.1024457
 0.102206 0.1020616 0.1020069 0.1020227 0.1021023 0.1022391 0.1024144 0.1026229 0.1028281 0.1030203
 0.1031545 0.1032199 0.103177 0.1030183 0.102717 0.1022687 0.1016705 0.1009219 0.1000504 0.09905913
 0.09799345 0.0968591 0.09570979 0.09455582 0.09346104 0.0924359 0.09153949 0.09076993 0.09015411 0.08967571
 0.08932835 0.08909192 0.08895011 0.08888445 0.08888309 0.08892681 0.0890082 0.08910643 0.08921691 0.08931692
 0.08940344 0.08945224 0.08946091 0.0894097 0.08929734 0.0891157 0.08886512 0.08854829 0.08816697 0.08773225
 0.08724734 0.08672958 0.08618144 0.08561791 0.0850388 0.0844499 0.0838519 0.08324665 0.08263798 0.08203002
 0.08142351 0.08082087 0.08021829 0.07961376 0.0790093 0.07840313 0.07780811 0.07722526 0.07667032 0.07614487
 0.0756605 0.07521795 0.07482284 0.07447493 0.07417217 0.07391377 0.07369288 0.07351074 0.07336693 0.07326619
 0.07321923 0.07323139 0.07331695 0.07347749 0.07372209 0.07404535 0.07444832 0.07491789 0.07544919 0.07602525
 0.07663991 0.07727692 0.07793231 0.07858936 0.07924548 0.07988437 0.08050391 0.08109624 0.08166072 0.08219875
 0.0827103 0.08319519 0.08365268 0.08407739 0.08446945 0.08482634 0.08514905 0.08544002 0.08569698 0.08591937
 0.08609878 0.08622693 0.08629197 0.08628196 0.08618811 0.08600095 0.08572153 0.08534573 0.08488669 0.08434533
 0.0837408 0.08307595 0.08236743 0.08161733 0.08083499 0.08002112 0.07917804 0.0783058 0.07740514 0.07647652
 0.0755237 0.07454678 0.07354912 0.07252869 0.07148163 0.07040714 0.06929952 0.06816599 0.06701035 0.06584666
 0.06468759 0.06354303 0.06242386 0.06132768 0.06025769 0.05920263 0.0581605 0.05712105 0.05608122 0.05504211
 0.05400249 0.05297707 0.05196656 0.05099075 0.0500505 0.04916122 0.04832319 0.04754591 0.04682955 0.04618028
 0.04559755 0.04508378 0.04463672 0.04425431 0.04393255 0.04366595 0.04345132 0.04328181 0.04316385 0.0430946
 0.04309711 0.04317705 0.0433626 0.04366398 0.04408965 0.04464588 0.04531131 0.04608609 0.04693189 0.04784655
 0.04879024 0.04976114 0.05072612 0.05168534 0.05262181 0.05353998 0.05444666 0.05534919 0.05627039 0.05721345
 0.05819687 0.05921395 0.06026604 0.06133973 0.06242469 0.06350973 0.06458635 0.0656455 0.06668446 0.06768646
 0.06864863 0.06954821 0.07037978 0.07113567 0.0718125 0.07243062 0.07299069 0.07353049 0.07405226 0.07459574
 0.07516317 0.07578889 0.07647433 0.07724325 0.07809655 0.07904794 0.08009928 0.0812611 0.08253171 0.08391768
 0.08540317 0.08698178 0.08862501 0.09031592 0.09203042 0.0937546 0.09547739 0.09719371 0.09889627 0.1005836
 0.1022474 0.1038862 0.1055001 0.1070888 0.1086665 0.1102341 0.1118079 0.1133863 0.1149678 0.1165464
 0.1180975 0.1196154 0.1210704 0.1224649 0.1237871 0.1250474 0.126252 0.127416 0.1285515 0.1296777
 0.1308085 0.1319575 0.1331365 0.1343375 0.1355625 0.136792 0.1380203 0.1392516 0.140483 0.1417524
 0.1430618 0.1444579 0.1459425 0.147547 0.1492683 0.1511044 0.153041 0.1550259 0.1570326 0.1589682
 0.1608044 0.1624477 0.1638804 0.1650409 0.1659292 0.1665187 0.1668342 0.166874 0.1666918 0.1663003
 0.1657744 0.1651306 0.1644518 0.1637526 0.1631059 0.1625219 0.1620416 0.1616689 0.1614064 0.1612537
 0.1611965 0.1612335 0.1613498 0.1615416 0.1617856 0.1620751 0.1623789 0.1626953 0.1630051 0.163314
 0.1636226 0.1639318 0.1642465 0.1645524 0.1648458 0.165102 0.1653109 0.1654523 0.1655167 0.1655035
 0.1654089 0.1652519 0.165034 0.1647735 0.164472 0.1641301 0.163747 0.16331 0.1628179 0.162257
 0.1616274 0.1609206 0.1601395 0.1592865 0.1583675 0.1573947 0.1563716 0.1553082 0.1542035 0.1530597
 0.151876 0.1506535 0.1493878 0.1480812 0.1467129 0.1452809 0.1437535 0.1421246 0.140372 0.1384912
 0.1364809 0.1343398 0.1320916 0.1297387 0.1273337 0.1248819 0.1224508 0.1200434 0.1177104 0.115449
 0.1132783 0.1111929 0.1091916 0.10727 0.1054221 0.1036442 0.1019319 0.1002791 0.09868287 0.09713154
 0.09562031 0.09413793 0.09267861 0.0912443 0.08983342 0.08845657 0.08711587 0.08580774 0.08453251 0.08327195
 0.08202565 0.08078887 0.07956412 0.07837027 0.07720848 0.07609595 0.07502732 0.07399829 0.07299937 0.07201092
 0.07102522 0.07002298 0.06900322 0.0679571 0.06689017 0.06580431 0.06470116 0.0635842 0.06244415 0.06127918
 0.06008108 0.05884641 0.05758077 0.05628349 0.05496901 0.05363809 0.05230681 0.05097623 0.049666 0.04837734
 0.0471292 0.0459217 0.04476504 0.04365944 0.04261051 0.04161912 0.04069111 0.03982272 0.03901274 0.03825342
 0.03753561 0.0368592 0.03621913 0.03562542 0.03508206 0.03459324 0.03416382 0.03378113 0.03344499 0.03313529
 0.0328495 0.03257434 0.03230847 0.0320501 0.03179916 0.03155628 0.0313201 0.03108039 0.03083398 0.03056035
 0.03025887 0.02991579 0.02953539 0.0291188 0.028672 0.02820257 0.02771761 0.02722461 0.02673374 0.02625349
 0.02579063 0.02535146 0.0249335 0.0245366 0.02416086 0.02380417 0.02348067 0.02319103 0.02295435 0.02277215
 0.02265575 0.0226055 0.02262465 0.02271199 0.02286067 0.02306608 0.02330468 0.02357022 0.02383126 0.02408714
 0.0243193 0.02453598 0.02473925 0.02494102 0.02515392 0.02538415 0.02564191 0.02592077 0.02622313 0.0265312
 0.02684133 0.02713482 0.02740728 0.02764742 0.02785316 0.02801891 0.02814399 0.02822694 0.02826803 0.02827596
 0.02825293 0.02822143 0.02818413 0.02816642 0.02816726 0.02819798 0.02825326 0.02832759 0.02841715 0.02851292
 0.02861713 0.02872823 0.02885038 0.0289862 0.0291375 0.02930613 0.02949137 0.02969482 0.02990864 0.03013361
 0.0303501 0.03055621 0.03073268 0.03087739 0.03098966 0.03106976 0.03113124 0.03117493 0.03121289 0.03124651
 0.03128719 0.03133867 0.03141844 0.03152811 0.03168134 0.03187253 0.03210027 0.03235712 0.03263461 0.03293019
 0.03324052 0.03356192 0.03389477 0.03422523 0.03455037 0.03485393 0.03513031 0.03538054 0.03560223 0.03581605
 0.03602335 0.03624128 0.03647036 0.03671009 0.03696053 0.03722127 0.03749457 0.03779348 0.03811597 0.03846614
 0.03883285 0.03919459 0.03954443 0.03985939 0.0401489 0.04041319 0.04066403 0.040912 0.04115578 0.04139687
 0.04163443 0.04186494 0.04210545 0.04235748 0.04264324 0.04296718 0.04333166 0.04373815 0.04416612 0.04461451
 0.0450603 0.04550452 0.04594651 0.0463911 0.046862 0.04736204 0.04791458 0.04851418 0.04916348 0.04984963
 0.05055818 0.05127109 0.05196724 0.05262861 0.05323417 0.05378288 0.05426319 0.05470209 0.05510292 0.05550079
 0.05590518 0.05632962 0.05677902 0.05724187 0.05771812 0.058188 0.05865059 0.05909223 0.05951307 0.05990912
 0.06028076 0.06062791 0.06095023 0.06124502 0.06151552 0.06176506 0.06200215 0.06224202 0.06248637 0.06274585
 0.06300876 0.06326893 0.06352134 0.06375811 0.0639933 0.06423007 0.06447849 0.06474332 0.06501696 0.06529879
 0.06558409 0.0658722 0.06616589 0.0664651 0.06676195 0.06705568 0.06733411 0.06759952 0.06785619 0.06810901
 0.06837405 0.06865815 0.06898083 0.06935357 0.06980331 0.07033208 0.07096037 0.07165895 0.07242159 0.07319715
 0.07396232 0.07467274 0.07530948 0.07584548 0.07626913 0.0765814 0.07677619 0.07690002 0.07695428 0.07701228
 0.07707771 0.07720573 0.07739618 0.07766882 0.07801895 0.07843565 0.07890963 0.07940667 0.0799182 0.08040852
 0.08087577 0.08130358 0.08168834 0.08202348 0.08229753 0.08249908 0.08262558 0.08266903 0.08264537 0.08255748
 0.08242086 0.0822392 0.08202255 0.08177043 0.08150956 0.08124091 0.08100734 0.08081097 0.08068199 0.08061981
 0.08063005 0.08070858 0.08083882 0.08101391 0.08120208 0.0814013 0.08159027 0.08177374 0.08195186 0.08212346
 0.08228467 0.08244303 0.08258637 0.08277824 0.08303487 0.08345132 0.08409011 0.08488191 0.08584949 0.08675372
 0.08755043 0.0881874 0.08864989 0.08903808 0.08935625 0.08965628 0.08993566 0.09018289 0.09039453 0.09054815
 0.09064084 0.0906528 0.09057955 0.09039909 0.09011541 0.08972173 0.08923271 0.08865909 0.08801915 0.08732606
 0.08660288 0.08586324 0.08512541 0.08439992 0.08368868 0.08299202 0.0823198 0.08167053 0.08107855 0.08054765
 0.08008911 0.0797031 0.07934006 0.07899556 0.07860219 0.07816117 0.07764237 0.07705434 0.07640644 0.07571301
 0.07500883 0.07430757 0.07365199 0.07302965 0.07245126 0.07187759 0.0712786 0.07064197 0.06994745 0.0692176
 0.06845857 0.06767594 0.06687139 0.06604885 0.06520225 0.06439243 0.06362157 0.0629814 0.06247672 0.06216018
 0.06203025 0.06208868 0.06232617 0.06269877 0.06318762 0.06370616 0.06424199 0.06471895 0.06514923 0.06551398
 0.06584135 0.06615042 0.06647623 0.06684484 0.06729881 0.06786688 0.0685723 0.06943634 0.07043552 0.07157239
 0.07280046 0.07411384 0.07547566 0.0768828 0.07829977 0.07972452 0.08112337 0.08249624 0.08383448 0.0851372
 0.0863999 0.087611 0.08873025 0.08974354 0.09059635 0.09128816 0.09179195 0.09211867 0.09226592 0.09225723
 0.09210421 0.09184206 0.09149523 0.09107252 0.09058885 0.09001348 0.08933852 0.08855791 0.08766293 0.08670897
 0.08569915 0.08469369 0.08369591 0.08273306 0.08180608 0.08093508 0.08011932 0.07936975 0.07867683 0.07801469
 0.07737181 0.07670712 0.07601894 0.07528616 0.07451198 0.07369038 0.07283018 0.07193237 0.07101706 0.07009607
 0.06917863 0.06827427 0.06736913 0.06646005 0.06554424 0.0646188 0.06370132 0.0627946 0.06189075 0.06098944
 0.06004688 0.05906184 0.05800534 0.05688214 0.05570307 0.05447748 0.05324101 0.05200557 0.05081771 0.04968099
 0.04862543 0.0476393 0.046716 0.04585984 0.0450628 0.04436119 0.04377726 0.04331698 0.04300375 0.04276083
 0.04258022 0.04236606 0.04209651 0.04175504 0.04133369 0.04089851 0.04045288</values></Ydata></AB><ScSm><Ydata ylabel="Single channel"><values byteorder="INTEL" format="FLOAT32" numvalues="1814"> 0.07221031 0.07222232 0.07230218 0.07246897 0.07268876 0.07289691 0.07304251 0.07311832 0.07314318 0.07312398
 0.07306577 0.0730192 0.07307052 0.07325625 0.07350802 0.0736983 0.07374334 0.07367951 0.07364295 0.07373552
 0.07388361 0.07386267 0.07350934 0.07291117 0.07234827 0.07203532 0.07198851 0.07219035 0.07272708 0.07353668
 0.07412641 0.07392754 0.07301445 0.07213178 0.07187045 0.07210262 0.0723303 0.07225798 0.07188527 0.07139445
 0.07119605 0.07181568 0.07337711 0.07517862 0.07594632 0.07463746 0.07118495 0.06673349 0.06321967 0.06233616
 0.06433818 0.0676969 0.07024535 0.07090779 0.07021709 0.06922092 0.06835634 0.06758124 0.06709677 0.06738651
 0.0685456 0.06982917 0.07003552 0.06853262 0.06601217 0.06400035 0.06346612 0.06421429 0.06570259 0.06763219
 0.06911759 0.06821606 0.06384039 0.05817415 0.05569276 0.05890683 0.06568603 0.07134835 0.0728246 0.07036939
 0.06619812 0.06265333 0.06132904 0.06263877 0.06573183 0.06920149 0.07194172 0.07320333 0.0724054 0.06963575
 0.06614563 0.0637449 0.06368889 0.06618422 0.07034655 0.07428364 0.07595689 0.07468643 0.07160023 0.0684393
 0.06641334 0.06620878 0.06815539 0.07188003 0.07628892 0.0802061 0.08285287 0.08392108 0.08363523 0.08260906
 0.08137809 0.0803189 0.07997821 0.08072884 0.08189186 0.08200313 0.08040892 0.07813548 0.07682751 0.07704718
 0.07783175 0.07786983 0.07683045 0.07513352 0.07264319 0.06865764 0.06350698 0.05897009 0.05649479 0.05609689
 0.0574147 0.06027307 0.06345232 0.06462473 0.06290814 0.06048257 0.06042885 0.06344168 0.06747738 0.07024218
 0.07131036 0.07195225 0.07349811 0.07597965 0.07796596 0.07764523 0.07462661 0.07094447 0.06961501 0.07167402
 0.07518296 0.07760845 0.07848676 0.07913388 0.08034565 0.0811671 0.07989489 0.07610641 0.07173932 0.0698923
 0.07212758 0.07690363 0.08069366 0.08060074 0.07630824 0.070134 0.06521839 0.06335439 0.06451184 0.0680384
 0.0733676 0.07940087 0.08421731 0.08615434 0.08503022 0.08203054 0.07836237 0.07415548 0.06910522 0.06429238
 0.06239131 0.06513245 0.07108092 0.07683355 0.08005322 0.08063029 0.07935905 0.07649639 0.07196359 0.06669366
 0.06307371 0.06309606 0.06595759 0.06851508 0.06857432 0.06688437 0.06551659 0.06528112 0.06543584 0.0652649
 0.06508532 0.06568547 0.06719432 0.06878094 0.06946488 0.06901595 0.06798513 0.06705533 0.06642877 0.0656993
 0.06442641 0.06300636 0.06262641 0.06396179 0.06624408 0.06805468 0.06874957 0.06868516 0.06827682 0.06729482
 0.06522381 0.06225125 0.05966691 0.058903 0.06014271 0.06221159 0.06380315 0.06441288 0.06419651 0.06349833
 0.06262605 0.06174624 0.06092786 0.06035703 0.06029444 0.060695 0.06112792 0.06121342 0.06092623 0.06039816
 0.05966077 0.05870808 0.0576783 0.05684538 0.05642108 0.05639255 0.05657192 0.05676761 0.05684415 0.05667529
 0.05619256 0.05549426 0.05478417 0.05418662 0.05370821 0.05335677 0.0531782 0.05315857 0.05317776 0.05310144
 0.05288522 0.05256912 0.05220152 0.05179996 0.05137569 0.05096699 0.05063618 0.05042553 0.05030564 0.05019009
 0.0500333 0.04988258 0.04978259 0.04966871 0.04943179 0.04906563 0.04867809 0.04836846 0.04814915 0.04797498
 0.04779486 0.04756336 0.04723863 0.04681556 0.04637432 0.04605502 0.0459457 0.04601553 0.04617057 0.04632527
 0.04640587 0.04635981 0.04620175 0.04599907 0.04578865 0.04555029 0.04526823 0.04498159 0.04476859 0.04469138
 0.04474154 0.04483691 0.04488757 0.04485761 0.04476057 0.04463425 0.04453021 0.04447762 0.04443958 0.04434798
 0.04419137 0.04403186 0.04393122 0.04388724 0.0438444 0.04375537 0.04363199 0.04353146 0.0434886 0.04348008
 0.04346351 0.04342739 0.04338907 0.04336082 0.04332733 0.04325427 0.04312621 0.04297397 0.04284627 0.0427581
 0.04269086 0.04263505 0.0426022 0.04259522 0.04259175 0.04256237 0.04249845 0.04241991 0.04235135 0.04228891
 0.04220324 0.04208002 0.04194197 0.04182317 0.04173489 0.04166206 0.04158249 0.04148392 0.04136659 0.04123436
 0.04108763 0.0409258 0.04075149 0.04057215 0.04040445 0.04027197 0.04018385 0.04011633 0.04002893 0.03990165
 0.03974974 0.03960397 0.03948206 0.03937834 0.03927882 0.03918379 0.03911021 0.03907249 0.03906887 0.03908709
 0.03911467 0.03914499 0.03918549 0.03926124 0.03939785 0.03959237 0.03980675 0.03999828 0.04015698 0.04030838
 0.04048062 0.04067619 0.04087735 0.04107166 0.04126699 0.04148151 0.04171748 0.04194776 0.04213939 0.04229244
 0.0424426 0.04262295 0.04283736 0.04307111 0.04330625 0.0435217 0.04370108 0.04385222 0.04400502 0.04418013
 0.04437005 0.04455657 0.04473626 0.04492093 0.04512016 0.04533349 0.04555843 0.04579972 0.04606661 0.04635957
 0.04665993 0.04693836 0.04718231 0.04741498 0.04767936 0.04799948 0.04835928 0.04871862 0.0490475 0.04934705
 0.049641 0.04994739 0.05026338 0.05058213 0.05091494 0.05128145 0.05168106 0.05208964 0.05248581 0.05286892
 0.05324995 0.05363558 0.05402476 0.05441484 0.05480684 0.05520363 0.05560386 0.05600029 0.05638614 0.05676084
 0.05712885 0.05749701 0.05787224 0.05825292 0.05861991 0.05894912 0.05924205 0.05953407 0.05985841 0.0602071
 0.06054224 0.06084458 0.06113463 0.0614416 0.06176784 0.06209495 0.06241377 0.06273343 0.06306243 0.06339071
 0.06369267 0.06394655 0.06415336 0.06433836 0.06453178 0.06475112 0.06500477 0.06530053 0.06563329 0.06597096
 0.066273 0.06652351 0.06673443 0.06692493 0.06711568 0.06733245 0.0675911 0.06787917 0.06816553 0.0684232
 0.06863959 0.06882454 0.06901816 0.06926795 0.06958377 0.06993422 0.07029592 0.0706793 0.07109197 0.07150756
 0.07189906 0.07228409 0.07270263 0.07315368 0.07358387 0.07394411 0.07423288 0.07447708 0.07469986 0.07492758
 0.07520366 0.07556208 0.07598967 0.07643482 0.07685231 0.07722817 0.07756783 0.07787786 0.07816151 0.07842005
 0.07865202 0.07885344 0.07902405 0.07917631 0.07933363 0.07950988 0.07968801 0.07982604 0.0798859 0.07984918
 0.07970583 0.07944836 0.07909125 0.07868046 0.07825726 0.07781073 0.07728358 0.07662766 0.07583988 0.07494343
 0.07395521 0.07288614 0.07176718 0.07066381 0.06966156 0.06883723 0.06824312 0.0679176 0.06789792 0.0682001
 0.06877431 0.06948802 0.07016275 0.07063147 0.07077599 0.07054314 0.0699515 0.06907953 0.06803199 0.06690718
 0.06578224 0.06470345 0.06367575 0.06267694 0.06170691 0.06082938 0.06016592 0.05986921 0.06012112 0.06112459
 0.06301306 0.06570084 0.06882878 0.07191215 0.07458751 0.07674636 0.07847668 0.0799242 0.08120295 0.08237386
 0.08345433 0.08444211 0.08533905 0.0861512 0.08687076 0.08747298 0.08793336 0.08824238 0.08841051 0.08847165
 0.088478 0.08848303 0.08852924 0.08864589 0.08883697 0.089058 0.08921315 0.08918917 0.08890203 0.08832108
 0.08746436 0.08640373 0.08533266 0.08465609 0.08493234 0.08657131 0.08949538 0.09311555 0.09668449 0.09969692
 0.1020162 0.1037441 0.1050511 0.1060867 0.1069553 0.1077199 0.1084175 0.1090706 0.1096901 0.1102793
 0.1108418 0.1113837 0.1119121 0.1124323 0.1129453 0.113448 0.1139403 0.1144287 0.1149208 0.1154184
 0.1159154 0.116403 0.1168774 0.1173462 0.1178195 0.1182934 0.1187492 0.1191744 0.1195778 0.1199811
 0.1204021 0.1208426 0.1212854 0.1217051 0.1220879 0.1224429 0.1227892 0.1231388 0.1234924 0.1238483
 0.1242078 0.1245713 0.1249351 0.1252956 0.1256547 0.1260155 0.1263718 0.1267096 0.1270225 0.1273212
 0.1276224 0.1279359 0.1282601 0.1285884 0.1289187 0.1292614 0.1296324 0.1300313 0.130431 0.1307988
 0.1311258 0.131433 0.1317492 0.1320893 0.1324487 0.1328143 0.1331748 0.1335265 0.1338719 0.1342142
 0.134554 0.1348908 0.1352266 0.1355637 0.1359011 0.1362348 0.1365656 0.1368996 0.1372432 0.1375996
 0.1379689 0.138346 0.1387152 0.1390584 0.1393701 0.1396631 0.1399563 0.1402615 0.1405821 0.1409164
 0.1412596 0.1416046 0.1419459 0.1422829 0.1426197 0.1429598 0.1433036 0.1436493 0.1439963 0.1443454
 0.1446989 0.1450589 0.1454245 0.1457879 0.1461394 0.1464764 0.1468062 0.1471377 0.1474765 0.1478236
 0.148174 0.1485171 0.1488441 0.1491565 0.1494644 0.1497783 0.1501045 0.1504437 0.1507919 0.1511411
 0.1514829 0.1518137 0.1521398 0.1524724 0.1528165 0.1531653 0.1535078 0.153839 0.1541605 0.154479
 0.1548046 0.1551451 0.1554987 0.1558554 0.1562057 0.1565444 0.1568701 0.1571848 0.1574949 0.1578102
 0.1581367 0.1584698 0.1588004 0.1591265 0.1594535 0.1597825 0.1601074 0.1604267 0.1607481 0.1610796
 0.161421 0.1617664 0.1621101 0.1624503 0.162788 0.1631251 0.1634635 0.1638062 0.164153 0.164498
 0.1648372 0.165176 0.1655215 0.1658716 0.1662192 0.1665604 0.1668931 0.167217 0.1675373 0.1678603
 0.1681862 0.1685126 0.1688398 0.1691695 0.1695019 0.1698361 0.1701706 0.1705059 0.1708484 0.1712033
 0.1715618 0.1719114 0.1722533 0.1725987 0.1729506 0.173305 0.1736602 0.1740154 0.1743677 0.1747164
 0.1750644 0.1754142 0.1757686 0.1761278 0.1764847 0.176832 0.1771722 0.1775106 0.1778468 0.1781814
 0.1785197 0.1788623 0.1792054 0.1795493 0.1798954 0.1802395 0.1805758 0.1809025 0.1812206 0.1815355
 0.1818567 0.182187 0.1825214 0.1828587 0.1831992 0.1835345 0.1838585 0.1841793 0.1845045 0.1848317
 0.1851608 0.1854954 0.1858308 0.1861619 0.1864935 0.1868262 0.1871489 0.187458 0.187758 0.1880381
 0.1882529 0.1882815 0.1878289 0.1863181 0.1828724 0.1764829 0.1664085 0.1526453 0.1360921 0.118229
 0.10057 0.08427033 0.07001393 0.05810209 0.04860079 0.04143583 0.03645489 0.03353208 0.03267316 0.03411613
 0.03844345 0.04624001 0.05679573 0.06695175 0.07232556 0.070769 0.0644246 0.05777591 0.05392195 0.05307679
 0.05390843 0.05528563 0.05686095 0.05885085 0.06160595 0.06521319 0.06949612 0.07445684 0.08047536 0.08782623
 0.09611669 0.1044583 0.112232 0.1195709 0.1270574 0.1350259 0.1432129 0.151017 0.1579797 0.1640152
 0.1693137 0.1741266 0.1786252 0.1828882 0.1869564 0.1908299 0.1943797 0.1973099 0.1993002 0.2002499
 0.2003977 0.200187 0.200003 0.2000189 0.2002448 0.2006474 0.2012043 0.2018974 0.2027059 0.2036035
 0.2045531 0.2055179 0.2064786 0.2074279 0.2083527 0.2092351 0.2100627 0.2108306 0.2115389 0.2121898
 0.2127853 0.2133302 0.2138407 0.2143369 0.2148256 0.215301 0.2157593 0.2161996 0.2166145 0.2169953
 0.2173447 0.217676 0.2180014 0.2183251 0.2186436 0.2189499 0.2192438 0.2195363 0.2198414 0.2201649
 0.2205018 0.2208385 0.2211584 0.221454 0.2217336 0.222012 0.2222982 0.2225931 0.2228934 0.2231946
 0.2234954 0.2237988 0.224103 0.224398 0.2246776 0.2249491 0.2252263 0.2255157 0.2258132 0.2261094
 0.2264007 0.2266956 0.2270039 0.2273226 0.2276402 0.2279527 0.2282627 0.2285696 0.2288738 0.2291776
 0.2294735 0.2297448 0.2299868 0.230218 0.2304661 0.2307489 0.2310628 0.2313837 0.2316882 0.2319752
 0.2322596 0.2325499 0.232838 0.2331093 0.2333634 0.2336296 0.2339469 0.2343163 0.2346929 0.2350382
 0.2353551 0.2356633 0.2359751 0.2362991 0.2366297 0.2369316 0.2371708 0.2373689 0.2376053 0.2379553
 0.2384188 0.2389096 0.2393279 0.2396468 0.2399192 0.2402152 0.2405732 0.2409671 0.2412829 0.2413991
 0.2413591 0.2414022 0.2417433 0.2423608 0.2430528 0.2436479 0.2441105 0.2444888 0.2448273 0.2451219
 0.2453285 0.2454161 0.2454393 0.2455567 0.2459217 0.2465223 0.2471753 0.2477127 0.2481137 0.2484359
 0.248718 0.2489761 0.2491616 0.249107 0.2487017 0.2481911 0.2481041 0.2487423 0.249844 0.2508665
 0.2515217 0.2519164 0.2522483 0.2525639 0.2528179 0.2529138 0.252584 0.2515474 0.250062 0.2490716
 0.2494239 0.2510157 0.2529601 0.2544727 0.2553611 0.2558196 0.2560908 0.2563092 0.2563964 0.2560619
 0.2551306 0.2539831 0.2534566 0.2540712 0.2554467 0.2567083 0.2573754 0.2576182 0.2577957 0.2580528
 0.2582201 0.2577781 0.2561592 0.2535819 0.251462 0.2514167 0.2536843 0.2568375 0.2591989 0.2602812
 0.2606504 0.2606925 0.2600468 0.2582541 0.2554439 0.2522811 0.2497635 0.2490822 0.2508305 0.254021
 0.2566465 0.2576639 0.2578789 0.2586168 0.2601366 0.2616467 0.2623349 0.2619935 0.2608747 0.2592457
 0.2572576 0.2553535 0.2545272 0.2556246 0.258313 0.2611921 0.2630948 0.2639771 0.2643029 0.2636802
 0.2605891 0.254208 0.2466973 0.2426019 0.2448343 0.2516274 0.2584401 0.262424 0.2639741 0.2645999
 0.2649088 0.2644333 0.2618976 0.2559246 0.2472075 0.2398538 0.2386 0.2441289 0.2522958 0.2579993
 0.2586662 0.254512 0.2475949 0.2412021 0.238525 0.2407221 0.2464011 0.2529987 0.2583267 0.2611645
 0.2612382 0.2591042 0.2560928 0.2539801 0.2537157 0.2540202 0.252342 0.2480781 0.2435798 0.2406978
 0.2379183 0.2331721 0.2283688 0.2281184 0.2337346 0.2410479 0.2450914 0.2451271 0.2437577 0.2421983
 0.2382154 0.2293665 0.2176341 0.2094748 0.2101506 0.2182818 0.2270922 0.231022 0.2301279 0.2281017
 0.227328 0.2264675 0.2223947 0.2142888 0.2056439 0.2013347 0.2024662 0.2053883 0.2060188 0.2031493
 0.1970581 0.1881029 0.1789041 0.1751833 0.180914 0.1933989 0.2053929 0.21108 0.2082072 0.1967454
 0.1795331 0.163787 0.157598 0.1627557 0.1726207 0.1782579 0.1755495 0.1659145 0.1524011 0.1375251
 0.1243443 0.1168613 0.1175892 0.1249667 0.1336786 0.1374896 0.1326732 0.120727 0.1082789 0.1023317
 0.1040892 0.1082938 0.1091533 0.1055537 0.1002158 0.09601343 0.09423332 0.09458445 0.09558643 0.0958685
 0.09526969 0.09353866 0.08887042 0.08020689 0.07053405 0.06498146 0.06544325 0.06957746 0.07501489 0.0814052
 0.08765957 0.09055632 0.08838388 0.08426368 0.08353019 0.08810423 0.09483759 0.09933555 0.100313 0.09984668
 0.1001172 0.1009772 0.1011623 0.1010533 0.1027451 0.1071202 0.1122461 0.1155077 0.1163254 0.1159059
 0.1152362 0.114368 0.1130925 0.111352 0.1091839 0.1067904 0.1044838 0.1023243 0.1000654 0.0975201
 0.09457357 0.0907407 0.08532368 0.07856761 0.07230611 0.06859073 0.06761392 0.06783645 0.06816974 0.06862608
 0.06839408 0.06523833 0.05845866 0.05131913 0.04866457 0.05226058 0.05951945 0.06643861 0.07059321 0.07130341
 0.06850977 0.06310073 0.05817347 0.0580729 0.06483953 0.07627536 0.08835218 0.09863139 0.1064355 0.1109969
 0.1113841 0.1082417 0.1043912 0.1032737 0.1069435 0.1151078 0.1250505 0.1321497 0.1321406 0.1254895
 0.1195635 0.1231633 0.1370563 0.1524408 0.1608131 0.1626602 0.1638286 0.1664411 0.1679016 0.1675052
 0.1690038 0.1754348 0.1845716 0.1910691 0.191131 0.1839969 0.1713861 0.1577891 0.1493257 0.1490041
 0.1535516 0.1571592 0.157197 0.1539097 0.1469417 0.1367207 0.1281464 0.1276531 0.1356882 0.1457435
 0.151769 0.1537041 0.1548035 0.1560349 0.1549673 0.1495309 0.1414745 0.1352664 0.1336457 0.1351912
 0.1366413 0.1363063 0.1341749 0.1300429 0.1236144 0.116349 0.1114562 0.1111709 0.1145437 0.1184281
 0.1203871 0.1202892 0.1194765 0.1191476 0.1195793 0.1202864 0.1208447 0.1219426 0.1252508 0.1314925
 0.1390404 0.145473 0.1503155 0.1551742 0.1611964 0.1674059 0.1717945 0.1734653 0.1735195 0.1741675
 0.1769713 0.1815553 0.1858399 0.1878035 0.1874072 0.1868116 0.1883808 0.1924052 0.1970601 0.2004736
 0.2022735 0.203175 0.2038431 0.2043653 0.2042422 0.2028098 0.2002753 0.1983263 0.1989666 0.2025399
 0.2073725 0.211429 0.2138826 0.2150679 0.2154776 0.2151926 0.2141519 0.2126422 0.2113074 0.2106799
 0.2108306 0.211494 0.2123823 0.2133167 0.2142048 0.2150233 0.2157903 0.2165111 0.2171794 0.2178213
 0.2184708 0.2191011 0.2196489 0.2201326 0.2206748 0.2213531 0.2220726 0.222647 0.2229624 0.2229821
 0.222637 0.221839 0.2206115 0.2190964 0.2173942 0.2154976 0.2134732 0.2116769 0.2106657 0.2108002
 0.2119225 0.2134579 0.2148273 0.2157487 0.2162246 0.2163833 0.2163814 0.2163692 0.2164498 0.2166502
 0.2169416 0.2172879 0.2176702 0.2180815 0.2185218 0.2190091 0.2195793 0.2202588 0.2210388 0.2218799
 0.2227309 0.2235399 0.2242694 0.2249172 0.2255114 0.2260694 0.2265644 0.2269376 0.2271469 0.2272059
 0.2271765 0.2271181 0.2270343 0.2268701 0.2265624 0.2260859 0.2254328 0.2245592 0.2234051 0.2219899
 0.2204459 0.2189165 0.2174446 0.2159853 0.2144882 0.2129272 0.2112813 0.2095379 0.207711 0.2058329
 0.2039287 0.2020105 0.2000926 0.1982002 0.1963582 0.1945696 0.1928046 0.1910149 0.1891545 0.1871879
 0.1850742 0.1827444 0.1800988 0.1770427 0.1735251 0.1695422 0.165123 0.1603418 0.155341 0.1503098
 0.1454207 0.1407869 0.1364788 0.1325658 0.1291316 0.1262499 0.1239551 0.1222422 0.1210856 0.1204554
 0.1203265 0.1206758 0.1214572 0.1225708 0.1238648 0.125169 0.126333 0.1272611 0.1279554 0.128532
 0.12917 0.1300129 0.1310976 0.1323649 0.1337204 0.1350734 0.1363305 0.1373974 0.1382172 0.1387962
 0.1391778 0.1394069 0.139528 0.1395875 0.1396157 0.1396161 0.1395845 0.139538 0.1395212 0.1395852
 0.1397606 0.1400476 0.1404319 0.1409063 0.1414788 0.1421659 0.1429789 0.1439109 0.1449407 0.146052
 0.14724 0.1485101 0.1498899 0.1514433 0.1532497 0.1553638 0.1577889 0.1604665 0.1632762 0.1660637
 0.1686897 0.1710635 0.1731451 0.1749342 0.1764567 0.1777528 0.1788702 0.1798537 0.1807285 0.1815023
 0.1821857 0.1827927 0.1833208 0.1837523 0.1840838 0.1843386 0.1845551 0.1847734 0.1850249 0.1853231
 0.1856687 0.1860645 0.1865184 0.1870341 0.1876019 0.1881915 0.1887549 0.1892516 0.1896673 0.1900024
 0.1902529 0.1904077 0.1904449 0.1903253 0.1900124 0.189505 0.1888373 0.1880459 0.1871513 0.1861628
 0.1850899 0.1839512 0.1827757 0.1815878 0.1803928 0.1791706 0.1778758 0.1764567 0.1749052 0.1732843
 0.1716829 0.170146 0.1686606 0.1671903 0.165709 0.1642181 0.1627502 0.1613447 0.1600155 0.1587511
 0.1575359 0.1563616 0.1552275 0.154146 0.1531446 0.152256 0.1515044 0.1508904 0.1503856 0.1499516
 0.1495677 0.1492349 0.1489619 0.1487571 0.1486214 0.1485331 0.1484475 0.1483203 0.1481299 0.1478858
 0.147629 0.1474158 0.1472809 0.1472121 0.1471577 0.1470482 0.1468132 0.146388 0.1457099 0.1447236
 0.1434128 0.141825 0.1400489 0.1381815 0.1363295 0.1346117 0.1331218 0.1318924 0.1309062 0.1301225
 0.1294886 0.1289544 0.1285024 0.1281669 0.1280082 0.1280343 0.1281332 0.1281302 0.1279524 0.127711
 0.127595 0.1277067 0.1280085 0.1283773 0.1286893 0.1288849 0.128971 0.1289663 0.1288728 0.1286974
 0.1284577 0.1281583 0.1277954 0.1273794 0.1269284 0.1264543 0.125964 0.1254503 0.1248827 0.1242385
 0.1235261 0.1227594 0.1219343 0.1210366 0.1200396 0.118916 0.1177159 0.116621 0.1158664 0.115603
 0.1158213 0.1163604 0.1170066 0.1176253 0.1181583 0.1184833 0.1184378 0.1181215 0.1180517 0.1188024
 0.1204475 0.1224557 0.1241444 0.1251557 0.1254967 0.1252933 0.1246506 0.1236568 0.1223498 0.1206979
 0.1187009 0.1164493 0.1140459 0.1115802 0.1091924 0.1070316 0.1051611 0.1035872 0.1023176 0.1014098
 0.1009897 0.1007493 0.09911798 0.09408059 0.08625174 0.08027459 0.08093691 0.08780254 0.09549886 0.09941318
 0.09939625 0.0979006 0.09663795 0.09588308 0.09555665 0.09577008 0.09661505 0.09795383 0.09944008 0.1007193
 0.101641 0.1022147 0.1023717 0.101808 0.09995963 0.09617187 0.09021999 0.08280559 0.07533932 0.06912631
 0.06478724 0.06226156 0.06106255 0.06056136 0.06030848 0.0602443 0.0606068 0.06163326 0.06335433 0.06563805
 0.06832564 0.07121374 0.07396488 0.07623728 0.07794664 0.07925074 0.08025259 0.08086216 0.08095905 0.08055324
 0.07976452 0.07874043 0.07761195 0.07646458 0.07531339 0.07412224 0.07290174 0.07180889 0.07107717 0.07079709
 0.07083693 0.07101545 0.0712537 0.07153121 0.07181548 0.07207975 0.07231869 0.07255186 0.07285402 0.07331702
 0.07392988 0.07456101 0.07508841 0.07549679 0.07584453 0.07615426 0.07632224 0.07620014 0.07584538 0.07555549
 0.0754803 0.07534398 0.07479945 0.07396769 0.07337628 0.07339131 0.07389044 0.07446621 0.074792 0.07479937
 0.07466713 0.07471238 0.07516482 0.0759049</values></Ydata></ScSm><ScRf><Ydata ylabel="Single channel"><values byteorder="INTEL" format="FLOAT32" numvalues="1820"> 0.06066383 0.06081925 0.06092068 0.06096531 0.06097229 0.06098276 0.06104465 0.06118213 0.06137406 0.06156261
 0.06169376 0.0617563 0.06177217 0.06175441 0.06170623 0.06166431 0.06169887 0.06184421 0.06204768 0.06220335
 0.06223696 0.06217292 0.06212347 0.06218042 0.06229265 0.0622764 0.06198739 0.06148663 0.06100372 0.06072437
 0.06067061 0.06083117 0.0612786 0.06196184 0.06246586 0.06230624 0.06153838 0.06078701 0.06055158 0.06072707
 0.06089789 0.06081966 0.06049174 0.06006305 0.05988037 0.06039703 0.06172561 0.06326775 0.06392998 0.06281687
 0.05987237 0.05607798 0.0530852 0.05232941 0.0540225 0.05686776 0.05903083 0.05960019 0.05902495 0.0581903
 0.05746217 0.05679769 0.0563638 0.05657689 0.05753052 0.05860231 0.05877372 0.05750437 0.05537631 0.05367895
 0.05322805 0.05385417 0.05509987 0.05671982 0.057972 0.05721297 0.05351686 0.04872572 0.04662781 0.04935361
 0.05510161 0.05990167 0.06114817 0.0590606 0.05552886 0.0525453 0.05145022 0.05257315 0.0551829 0.05809696
 0.06039402 0.06144656 0.0607635 0.05842195 0.05548189 0.05346653 0.05342636 0.05553368 0.05904798 0.06237558
 0.06379069 0.062712 0.06009134 0.05740689 0.05568939 0.05552214 0.05718284 0.06035553 0.06411554 0.06746469
 0.0697336 0.07064831 0.07039554 0.06950984 0.06846564 0.06758518 0.06731287 0.06794559 0.0689082 0.06897531
 0.06760879 0.06568527 0.0645957 0.06480859 0.06549926 0.06554687 0.06466334 0.0632073 0.06107567 0.05768166
 0.05330373 0.04944903 0.04734978 0.04702473 0.04817289 0.0506525 0.0534249 0.05449085 0.05307191 0.05100796
 0.05092977 0.05345361 0.0568624 0.05920976 0.06012602 0.06068508 0.06201789 0.06415236 0.06586906 0.06562019
 0.06306648 0.05994254 0.0588325 0.06063133 0.0636807 0.06580617 0.06661099 0.06723128 0.06835555 0.06916052
 0.06817125 0.06501294 0.06134833 0.05984695 0.06185777 0.06605721 0.06940927 0.06941298 0.06578948 0.06054315
 0.05639737 0.05490896 0.05606157 0.05931302 0.06419243 0.06974188 0.07426274 0.0762634 0.07553874 0.07310349
 0.0700313 0.06645852 0.06212495 0.05801267 0.056557 0.05934846 0.06509572 0.0706988 0.07401236 0.0749148
 0.07410382 0.07177363 0.06781936 0.06313226 0.06002627 0.0604401 0.06360067 0.06645977 0.06688631 0.0656119
 0.06466262 0.0648329 0.06538741 0.06562051 0.06586811 0.06693902 0.06895865 0.07106565 0.07224376 0.07224001
 0.07161054 0.07107391 0.07085969 0.07053834 0.06963439 0.06858712 0.06869961 0.07070655 0.07375393 0.07627165
 0.07754648 0.0779818 0.0780434 0.07744548 0.07556134 0.07259493 0.0700689 0.06969598 0.07171889 0.07475266
 0.07722463 0.07851037 0.07879304 0.07849085 0.07796994 0.07742779 0.07695936 0.07681161 0.07731757 0.07841618
 0.07954766 0.08021516 0.08039275 0.08026723 0.07987735 0.07919355 0.07838304 0.07781181 0.07777768 0.07828696
 0.07910219 0.07995483 0.08063848 0.08096685 0.08083865 0.080384 0.07989024 0.07954086 0.07934935 0.0793376
 0.07959463 0.08010741 0.08067787 0.08108702 0.08126903 0.08128674 0.08120802 0.08105673 0.08085148 0.08065666
 0.08058594 0.08072323 0.08101925 0.08132039 0.08154426 0.08175976 0.08202934 0.08225289 0.08227359 0.08209394
 0.08188605 0.08180362 0.0818588 0.08197203 0.08206178 0.08205491 0.08187327 0.08150364 0.08109471 0.08090165
 0.08108151 0.08158157 0.08223239 0.08286939 0.08335774 0.08361927 0.08369104 0.08368345 0.08364664 0.08353585
 0.08332241 0.08309035 0.08300351 0.08318186 0.08359698 0.0840892 0.08449474 0.08474272 0.08484869 0.08488557
 0.08496211 0.08513726 0.08533163 0.08540376 0.08533353 0.08525752 0.08530086 0.08543269 0.08551508 0.08546636
 0.08535367 0.08532447 0.08545578 0.08568795 0.08590771 0.08607075 0.08622639 0.08643066 0.08664648 0.08674968
 0.08665981 0.08644853 0.08627047 0.08619913 0.08619526 0.08622946 0.0863453 0.08656649 0.08680976 0.08695138
 0.08696218 0.08693288 0.08695887 0.08702812 0.08704339 0.08694126 0.08676249 0.08660704 0.08654662 0.08658449
 0.08667087 0.08673853 0.0867389 0.08666742 0.08655937 0.08645503 0.08637066 0.08631511 0.08632798 0.08646499
 0.0867156 0.0869527 0.08701063 0.08683691 0.08655278 0.08634518 0.08629656 0.08632524 0.08628528 0.08610788
 0.08584253 0.08558472 0.08539117 0.08526014 0.08516289 0.08507989 0.08502331 0.08503616 0.08514746 0.08530685
 0.08538708 0.08529002 0.08504643 0.08478403 0.08460738 0.08453321 0.08451832 0.08451196 0.08449599 0.08450237
 0.08456954 0.08466524 0.08469543 0.08461502 0.08448969 0.084428 0.08449195 0.08467555 0.08491066 0.08508244
 0.08510347 0.08500078 0.08489226 0.08486512 0.08491164 0.08498374 0.085063 0.08515723 0.08526423 0.08537291
 0.08549188 0.08565211 0.08587378 0.08613718 0.08638816 0.08657273 0.0866797 0.08676118 0.08690248 0.08715331
 0.08748329 0.08780882 0.08806454 0.0882501 0.08841333 0.08859338 0.08878873 0.08898608 0.08920257 0.08947186
 0.08979376 0.09012779 0.09044032 0.09073304 0.09102246 0.09131385 0.09160546 0.09190889 0.09225543 0.09266717
 0.09311116 0.09349774 0.09375181 0.09388675 0.09399797 0.09419151 0.09451494 0.0949204 0.09528038 0.09548478
 0.09555569 0.09563464 0.09582742 0.09609693 0.09634516 0.09656456 0.09684879 0.09725776 0.09772365 0.09811342
 0.09836219 0.09852377 0.09869465 0.09890556 0.09909974 0.09921634 0.0992737 0.0993469 0.09947704 0.09964533
 0.09984334 0.1001151 0.1004927 0.1009252 0.1013134 0.1016001 0.1017966 0.1019395 0.1020543 0.102145
 0.102199 0.1022134 0.1022256 0.1022851 0.1023871 0.1024699 0.1024984 0.1025146 0.1025859 0.1027374
 0.1029591 0.1032429 0.1035704 0.1038904 0.1041623 0.1044206 0.104741 0.1051231 0.1054546 0.1056302
 0.1056685 0.1056691 0.1056891 0.1057232 0.1057826 0.1059207 0.1061671 0.1064898 0.1068392 0.1071959
 0.1075596 0.107914 0.1082204 0.1084362 0.1085391 0.1085442 0.1085065 0.1085045 0.1086085 0.1088441
 0.1091716 0.1095106 0.1097933 0.1099889 0.1100821 0.1100683 0.1099934 0.1099654 0.1100705 0.1102749
 0.1104401 0.1104396 0.1102373 0.1098617 0.109347 0.1087233 0.1080444 0.1073939 0.106853 0.1064667
 0.1062472 0.1062128 0.1064051 0.1068449 0.1074738 0.108168 0.1088129 0.1093337 0.1096546 0.1096837
 0.1093791 0.1088037 0.1080873 0.1073483 0.1066607 0.1060495 0.105487 0.1049284 0.1044016 0.1040549
 0.1040905 0.1046409 0.1056974 0.1071153 0.1086647 0.1101114 0.1113111 0.1122583 0.1130446 0.113762
 0.1144478 0.1151103 0.1157693 0.1164356 0.1170726 0.1176251 0.1180852 0.1184966 0.1188962 0.1192811
 0.1196275 0.1199154 0.1201448 0.1203459 0.1205517 0.120742 0.1208466 0.1208278 0.1207297 0.1206213
 0.1205154 0.1203641 0.1201115 0.1197392 0.1192927 0.1188953 0.1187274 0.118954 0.1196333 0.1206792
 0.1219216 0.1232129 0.1244687 0.1256177 0.1265674 0.1272549 0.1277084 0.1280231 0.1282894 0.128559
 0.1288533 0.1291699 0.1294866 0.1297796 0.130046 0.1303081 0.1305996 0.1309367 0.1312944 0.1316191
 0.13188 0.1321072 0.13237 0.1327112 0.1331031 0.1334774 0.1338005 0.1341044 0.1344261 0.1347403
 0.1349877 0.1351597 0.135317 0.1355267 0.1358135 0.1361624 0.1365293 0.1368515 0.1370892 0.1372633
 0.1374306 0.1376253 0.1378435 0.1380763 0.1383264 0.1385923 0.1388611 0.1391282 0.1394089 0.1397134
 0.140013 0.1402541 0.1404154 0.1405393 0.1406927 0.1409028 0.141142 0.1413686 0.1415718 0.1417804
 0.1420334 0.1423372 0.1426477 0.1429014 0.1430708 0.1431863 0.1433057 0.1434668 0.1436682 0.1438856
 0.1440974 0.1442982 0.1444952 0.1446997 0.1449159 0.1451394 0.1453618 0.1455789 0.1457913 0.146001
 0.14621 0.1464211 0.1466412 0.1468828 0.1471581 0.1474606 0.1477542 0.147995 0.1481664 0.1482887
 0.1483974 0.1485207 0.1486709 0.1488458 0.149035 0.149231 0.1494336 0.1496438 0.1498572 0.1500665
 0.1502674 0.1504619 0.1506563 0.1508588 0.1510766 0.1513126 0.1515605 0.151805 0.1520297 0.1522281
 0.152409 0.1525898 0.1527827 0.1529843 0.1531803 0.1533628 0.1535404 0.1537286 0.1539318 0.1541409
 0.1543443 0.1545376 0.1547246 0.1549127 0.1551052 0.1552991 0.1554905 0.1556813 0.1558778 0.1560848
 0.1562993 0.1565108 0.1567087 0.1568919 0.1570686 0.1572489 0.1574396 0.1576443 0.1578622 0.1580854
 0.1583008 0.1584994 0.1586829 0.158862 0.1590464 0.1592364 0.159425 0.1596097 0.1597959 0.1599902
 0.1601947 0.1604068 0.1606203 0.1608297 0.1610377 0.1612528 0.1614765 0.1617004 0.1619167 0.1621267
 0.1623357 0.162547 0.1627603 0.1629731 0.1631834 0.1633943 0.1636108 0.1638335 0.1640561 0.1642691
 0.164464 0.1646404 0.1648061 0.1649696 0.1651343 0.1653007 0.1654693 0.1656414 0.1658207 0.1660121
 0.1662149 0.1664217 0.1666279 0.1668341 0.1670379 0.1672348 0.1674277 0.1676258 0.1678341 0.16805
 0.1682661 0.1684751 0.1686766 0.1688769 0.1690778 0.1692752 0.1694702 0.1696702 0.1698788 0.1700953
 0.1703199 0.1705505 0.1707796 0.1710017 0.171216 0.1714214 0.1716192 0.1718176 0.1720201 0.1722197
 0.1724132 0.1726104 0.1728225 0.1730505 0.1732845 0.1735076 0.1737104 0.1739031 0.1741045 0.1743187
 0.1745384 0.1747594 0.1749786 0.1751918 0.1754017 0.1756136 0.1758232 0.1760257 0.1762277 0.1764364
 0.176649 0.1768625 0.1770741 0.1772662 0.1773919 0.177336 0.1768202 0.1753026 0.1719598 0.1658433
 0.1562561 0.1431974 0.12752 0.1106271 0.09395127 0.07857599 0.06513209 0.05389176 0.04491666 0.03814622
 0.03344598 0.03069355 0.02987619 0.03120149 0.03521925 0.04249542 0.05237395 0.06188497 0.06690623 0.06542262
 0.0594541 0.05321106 0.04959176 0.0487862 0.04954625 0.05081737 0.05226957 0.05409512 0.05662374 0.05995097
 0.06391978 0.06852469 0.07410956 0.08092863 0.08862138 0.0963641 0.1035784 0.1103838 0.1173201 0.1246981
 0.1322712 0.1394763 0.1458852 0.1514219 0.1562694 0.1606655 0.1647712 0.1686615 0.1723754 0.1759079
 0.1791292 0.1817608 0.1835137 0.1843048 0.184354 0.1840637 0.1837873 0.1836919 0.1837955 0.1840698
 0.1844887 0.1850289 0.1856713 0.1864018 0.187197 0.1880217 0.1888434 0.1896409 0.1904038 0.1911283
 0.1918078 0.1924279 0.1929794 0.1934708 0.1939191 0.1943357 0.1947272 0.1951006 0.1954606 0.1958105
 0.196153 0.1964848 0.1967952 0.1970754 0.1973253 0.1975505 0.1977606 0.1979676 0.1981766 0.1983829
 0.1985841 0.1987858 0.1989918 0.1991995 0.1994068 0.199615 0.1998241 0.2000317 0.2002366 0.2004393
 0.2006418 0.2008469 0.2010516 0.2012464 0.201427 0.2016013 0.2017808 0.2019699 0.2021667 0.202367
 0.2025678 0.2027698 0.2029751 0.2031784 0.2033707 0.2035539 0.20374 0.2039372 0.204146 0.204367
 0.2045987 0.2048316 0.2050569 0.2052724 0.2054737 0.2056507 0.205803 0.205948 0.2061098 0.2063038
 0.2065279 0.206764 0.206991 0.2071999 0.2073952 0.2075841 0.2077704 0.2079535 0.2081348 0.208329
 0.2085569 0.2088157 0.2090762 0.209319 0.2095535 0.2097916 0.2100306 0.2102691 0.2105045 0.2107119
 0.2108613 0.2109696 0.2111112 0.2113602 0.2117185 0.2121066 0.2124347 0.2126803 0.2128843 0.2130958
 0.2133405 0.2136013 0.213795 0.2138303 0.2137527 0.2137714 0.2140647 0.2145977 0.2151813 0.2156655
 0.2160255 0.2163076 0.2165505 0.2167506 0.2168708 0.2168882 0.2168565 0.2169201 0.2172155 0.2177283
 0.218288 0.2187355 0.2190449 0.219267 0.2194429 0.2195999 0.2197122 0.2196392 0.2192711 0.2188033
 0.2186945 0.219219 0.2201554 0.2210267 0.221577 0.221901 0.2221738 0.2224352 0.2226448 0.2227215
 0.2224323 0.2215241 0.2202151 0.2193353 0.2196393 0.2210433 0.2227643 0.2241045 0.2248908 0.2253006
 0.2255572 0.2257799 0.2258896 0.2256211 0.2248222 0.2238361 0.2234064 0.2239898 0.2252435 0.2263941
 0.2270283 0.2273037 0.2275239 0.2277988 0.2279798 0.2276189 0.2262116 0.2239428 0.2220766 0.2220717
 0.2241532 0.2270425 0.2292256 0.2302543 0.2306347 0.2307202 0.2301924 0.2286423 0.2261931 0.2234484
 0.2212981 0.2207942 0.2224567 0.2254024 0.2278432 0.2288493 0.2291384 0.2298948 0.2313556 0.2328137
 0.2335351 0.2333314 0.2324329 0.2310762 0.2293889 0.2277733 0.2271367 0.228246 0.230799 0.233534
 0.2353977 0.236341 0.2367738 0.2363386 0.2336632 0.228012 0.2213498 0.2177942 0.219979 0.2263011
 0.2326427 0.2364197 0.237996 0.2387463 0.239212 0.2389514 0.2368037 0.2315273 0.2237621 0.2172547
 0.2163236 0.2215867 0.2292605 0.2346924 0.2355229 0.2319248 0.2257721 0.2200927 0.2178344 0.2200781
 0.2255636 0.2319367 0.2371623 0.2400905 0.2404551 0.2387602 0.2362391 0.2345541 0.2345932 0.2351569
 0.2338725 0.230195 0.2263197 0.2239602 0.2216969 0.2176012 0.2134745 0.2136554 0.2193804 0.2267102
 0.2309559 0.2314291 0.2305836 0.2295394 0.226154 0.2181015 0.2072819 0.1999013 0.2010508 0.2094228
 0.2184771 0.2228437 0.2225904 0.2213055 0.2213169 0.221318 0.2182061 0.2111304 0.2035633 0.2003859
 0.2026951 0.2068229 0.208684 0.2070309 0.2020286 0.1939581 0.1855735 0.1829411 0.1903225 0.2049619
 0.2192442 0.2269611 0.2255779 0.2148758 0.1978501 0.1825446 0.1781327 0.1866927 0.2006755 0.2098492
 0.2094164 0.2008578 0.187558 0.1725 0.1596697 0.1544928 0.1605922 0.1761162 0.1937338 0.2042533
 0.2017087 0.1880358 0.1735319 0.1694411 0.177684 0.1895067 0.1952764 0.1932223 0.1880593 0.1849449
 0.1865154 0.1923909 0.1995662 0.2052412 0.2090568 0.2099099 0.2029348 0.1853464 0.1641845 0.1516801
 0.1525569 0.1616093 0.1734728 0.1874463 0.2011261 0.207097 0.2012871 0.1906751 0.187352 0.1956864
 0.2085827 0.2161587 0.2155266 0.2113366 0.2086049 0.2073787 0.205197 0.2028405 0.2045586 0.2121964
 0.2219677 0.2286832 0.2311501 0.2316981 0.2322162 0.2327192 0.2326962 0.2319717 0.2306164 0.2290758
 0.2280426 0.2276758 0.2274508 0.2269565 0.2258705 0.2227391 0.2152916 0.2036309 0.1922626 0.1865185
 0.1868945 0.1894328 0.1916108 0.1938068 0.1937903 0.1851757 0.1658555 0.1449251 0.1360649 0.1443179
 0.1623282 0.1787228 0.1868261 0.1852417 0.1744616 0.1570652 0.1404206 0.1343706 0.1432052 0.1615461
 0.1800948 0.193642 0.2016416 0.2037559 0.1988837 0.1883463 0.1771564 0.1711368 0.1733648 0.182832
 0.194802 0.2020309 0.1982967 0.1845819 0.1718113 0.1727951 0.1887895 0.2074075 0.2165466 0.2166439
 0.2157627 0.2170544 0.2171991 0.2152117 0.2159709 0.2235336 0.2351783 0.2440924 0.2453523 0.2378649
 0.2237505 0.2088487 0.2011929 0.2045306 0.2139993 0.2213624 0.2229522 0.2191927 0.2097504 0.195564
 0.1839762 0.1843165 0.1970946 0.2127929 0.2226831 0.2267745 0.2298331 0.2331743 0.2330658 0.2263753
 0.2157982 0.2081974 0.2078241 0.2126067 0.2176752 0.2205029 0.2209335 0.2182654 0.2116916 0.2036265
 0.1997334 0.2039957 0.2145658 0.2254645 0.2319077 0.2332904 0.2317801 0.2294979 0.2270973 0.2239484
 0.2195569 0.2153895 0.2145762 0.2185705 0.2248273 0.2294165 0.2315183 0.233683 0.2378304 0.2426082
 0.2450383 0.2437654 0.2403427 0.2378696 0.238499 0.2417365 0.2448193 0.2450724 0.242448 0.2398129
 0.2403167 0.2443864 0.2496562 0.2536551 0.2558263 0.2570209 0.2580417 0.2589404 0.2589845 0.2572135
 0.2537947 0.2508134 0.2507939 0.2541939 0.2589694 0.2626919 0.2645122 0.2650173 0.2648891 0.2641963
 0.2627913 0.2609554 0.2594154 0.2587675 0.259043 0.2598601 0.2608199 0.2616822 0.2623393 0.2627892
 0.2630962 0.2633037 0.2634205 0.2634877 0.2635615 0.2636155 0.2635662 0.2634402 0.2634129 0.2636122
 0.2639509 0.2642209 0.2642837 0.2640836 0.263543 0.2625882 0.2612843 0.2598174 0.2582937 0.2566632
 0.2549537 0.2535442 0.2530647 0.2539204 0.255913 0.2583554 0.2605454 0.2621268 0.2630931 0.2636008
 0.2638302 0.2639287 0.2639731 0.2639588 0.2638454 0.2636173 0.263297 0.2629159 0.2624967 0.2620674
 0.2616732 0.2613527 0.2610996 0.2608565 0.2605547 0.2601573 0.2596732 0.2591417 0.2585991 0.2580419
 0.2574157 0.2566555 0.255746 0.2547464 0.2537607 0.252876 0.2521088 0.2514007 0.2506729 0.2498792
 0.2489947 0.2479827 0.2468309 0.2456265 0.2445372 0.2436785 0.2430182 0.2424234 0.2417698 0.2409953
 0.2400951 0.2391055 0.238079 0.2370433 0.2359849 0.2348787 0.2337126 0.2324776 0.2311567 0.2297383
 0.2282274 0.2266403 0.225 0.2233294 0.221624 0.2198248 0.2178246 0.2154996 0.2127313 0.2094232
 0.2055315 0.2011039 0.1962934 0.1913216 0.1864108 0.1817338 0.1774113 0.1735361 0.1701898 0.1674408
 0.1653387 0.1639129 0.1631796 0.1631525 0.1638382 0.1652102 0.1671903 0.1696546 0.1724523 0.1754206
 0.1783984 0.1812418 0.1838536 0.1862208 0.1884125 0.1905031 0.1924914 0.194315 0.1959306 0.1973456
 0.1985784 0.1996272 0.2004886 0.2011851 0.2017592 0.2022486 0.2026725 0.2030398 0.2033599 0.2036396
 0.2038748 0.20406 0.2042055 0.2043411 0.2045041 0.2047242 0.2050106 0.205354 0.2057429 0.2061763
 0.2066555 0.2071759 0.2077314 0.2083179 0.2089316 0.2095775 0.2102825 0.211092 0.2120491 0.2131745
 0.2144546 0.2158391 0.2172528 0.2186116 0.2198323 0.2208429 0.2215991 0.2220953 0.2223578 0.2224257
 0.2223353 0.2221196 0.2218121 0.2214421 0.2210184 0.2205296 0.2199675 0.2193459 0.2186899 0.2180132
 0.2173149 0.216597 0.2158773 0.2151786 0.2145061 0.2138462 0.2131911 0.2125525 0.2119439 0.2113601
 0.2107829 0.210201 0.209619 0.2090494 0.2084972 0.2079425 0.2073386 0.2066367 0.2058154 0.2048845
 0.2038607 0.2027483 0.2015454 0.2002572 0.1988925 0.1974524 0.1959337 0.1943422 0.1926908 0.1909795
 0.1891853 0.1872817 0.1852789 0.1832429 0.1812677 0.1794203 0.1777131 0.176123 0.1746236 0.1732009
 0.1718489 0.1705594 0.1693217 0.1681346 0.1670112 0.1659622 0.1649808 0.1640534 0.1631801 0.162378
 0.1616651 0.1610415 0.1604906 0.1600031 0.1595912 0.1592696 0.1590373 0.1588894 0.1588263 0.158832
 0.1588632 0.158872 0.1588244 0.158704 0.1585294 0.158359 0.1582471 0.1581981 0.1581746 0.1581275
 0.1579985 0.1577114 0.1571804 0.1563348 0.1551473 0.1536469 0.151906 0.1500291 0.1481565 0.1464385
 0.1449782 0.143813 0.1429385 0.1423109 0.1418407 0.1414445 0.1411102 0.1408958 0.1408715 0.1410466
 0.1413185 0.1415217 0.1415794 0.1415915 0.1417423 0.1421477 0.1427967 0.1435805 0.1443596 0.1450366
 0.1455726 0.1459447 0.1461418 0.1462035 0.1461967 0.1461477 0.1460404 0.145863 0.1456194 0.1453178
 0.1449656 0.1445528 0.1440535 0.1434646 0.1428075 0.1420833 0.1412766 0.1403863 0.1393945 0.1382625
 0.1370427 0.1359478 0.1352438 0.1350971 0.1355053 0.1363048 0.1372772 0.1383054 0.1393413 0.140202
 0.1406133 0.1406175 0.1407861 0.1418019 0.1438071 0.146253 0.1483931 0.1498256 0.1505399 0.150634
 0.1501784 0.1492489 0.1478724 0.1459869 0.1435849 0.1407987 0.1377783 0.1346498 0.1316159 0.1289012
 0.1266105 0.124752 0.123312 0.1223239 0.1219175 0.1217217 0.1198358 0.1138278 0.1045001 0.09755063
 0.0987667 0.1075121 0.1171807 0.1221615 0.1222929 0.120568 0.1190688 0.1181135 0.1175834 0.1176125
 0.1183312 0.1195955 0.1210125 0.1221772 0.1229175 0.1232612 0.1231625 0.1222697 0.1198611 0.1150959
 0.1076992 0.09855083 0.08938569 0.08178262 0.07645356 0.07327293 0.07163678 0.07080781 0.07025985 0.06992523
 0.07011183 0.07114178 0.07308105 0.07578431 0.07904761 0.08258241 0.08594327 0.08871886 0.09083556 0.09252097
 0.09394702 0.09503969 0.0956416 0.09571971 0.09537465 0.09474539 0.09395891 0.09310884 0.09220539 0.09116843
 0.08996677 0.08877745 0.08790035 0.08747663 0.08738096 0.08740307 0.08742549 0.08741695 0.08737496 0.08731069
 0.08724016 0.08720197 0.08729056 0.08759213 0.08805805 0.08851211 0.088806 0.08893069 0.08897614 0.08898117
 0.08881755 0.0883127 0.08754785 0.08686219 0.08639689 0.08581594 0.08473805 0.08333775 0.08224843 0.08189484
 0.08212647 0.08248855 0.08265066 0.08255 0.08233314 0.0822802 0.08262609 0.08327469 0.08377481 0.08374315
</values></Ydata></ScRf><Data_Parameters_AB><parameter name="DPF">1</parameter><parameter name="NPT">3497</parameter><parameter name="FXV">3996</parameter><parameter name="LXV">500</parameter><parameter name="CSF">1</parameter><parameter name="MXY">0.453132390975952</parameter><parameter name="MNY">-0.0771512314677238</parameter><parameter name="DAT">31/05/2022</parameter><parameter name="TIM">11:54:46.108 (GMT+2)</parameter><parameter name="DXU">WN</parameter></Data_Parameters_AB><AB__Qtest><MainReport name="Quality Test Report"><Header><Line><Legend>Test result ok/not ok [1/0]: </Legend><Value>0</Value></Line><Line><Legend>Method file: </Legend><Value>C:\Users\Public\Documents\Bruker\OPUS_8.2.28\QT\IRBT_v3_default.QT</Value></Line></Header><Matrix><Line><Legend></Legend><Legend>min</Legend><Legend>max</Legend><Legend>measured</Legend></Line><Line><Value>Absorption (X-Range 1):</Value><Value>0.400000</Value><Value>2.000000</Value><Value>0.423354</Value></Line><Line><Value>Noise (X-Range 4):</Value><Value></Value><Value>0.000300</Value><Value>0.000082</Value></Line><Line><Value>Signal/Noise (X-Range 2):</Value><Value>200.000000</Value><Value></Value><Value>125.211739</Value></Line><Line><Value>Signal/Noise (X-Range 3):</Value><Value>40.000000</Value><Value></Value><Value>52.399901</Value></Line><Line><Value>Water vapour (X-Range 5):</Value><Value></Value><Value>0.000300</Value><Value>0.000086</Value></Line><Line><Value>Signal/Water (X-Range 2):</Value><Value>100.000000</Value><Value></Value><Value>119.645256</Value></Line><Line><Value>Signal/Water (X-Range 3):</Value><Value>20.000000</Value><Value></Value><Value>50.070382</Value></Line><Line><Value>Fringes (X-Range 6):</Value><Value></Value><Value>0.000100</Value><Value>0.000067</Value></Line></Matrix></MainReport></AB__Qtest><Data_Parameters_ScSm><parameter name="DPF">1</parameter><parameter name="NPT">1814</parameter><parameter name="FXV">3996.33169228125</parameter><parameter name="LXV">499.541461535156</parameter><parameter name="CSF">1</parameter><parameter name="MXY">0.264908820390701</parameter><parameter name="MNY">0.0326731614768505</parameter><parameter name="DAT">31/05/2022</parameter><parameter name="TIM">11:54:46.108 (GMT+2)</parameter><parameter name="DXU">WN</parameter></Data_Parameters_ScSm><Data_Parameters_ScRf><parameter name="DPF">1</parameter><parameter name="NPT">1820</parameter><parameter name="FXV">4004.04661832813</parameter><parameter name="LXV">495.683998511719</parameter><parameter name="CSF">1</parameter><parameter name="MXY">0.265017330646515</parameter><parameter name="MNY">0.0298761948943138</parameter><parameter name="DAT">31/05/2022</parameter><parameter name="TIM">11:54:19.211 (GMT+2)</parameter><parameter name="DXU">WN</parameter></Data_Parameters_ScRf><Optic_Parameters_Rf><parameter name="APR">0</parameter><parameter name="APT">Open</parameter><parameter name="BMS">KBr</parameter><parameter name="DTC">RT-DLaTGS_IR-Biotyper [Microplate reader]</parameter><parameter name="HPF">0</parameter><parameter name="LPF">10.0</parameter><parameter name="LPV">4000</parameter><parameter name="PGR">0</parameter><parameter name="RCH">Module port</parameter><parameter name="RDX">0</parameter><parameter name="SRC">MIR</parameter><parameter name="VEL">10.0</parameter><parameter name="SON">Off</parameter></Optic_Parameters_Rf><Acquisition_Parameters_Rf><parameter name="ADT">1</parameter><parameter name="AQM">DD</parameter><parameter name="CFE">0</parameter><parameter name="COR">0</parameter><parameter name="DEL">0</parameter><parameter name="DLY">0</parameter><parameter name="HFW">8000</parameter><parameter name="LFW">0</parameter><parameter name="NSR">32</parameter><parameter name="PLF">AB</parameter><parameter name="RES">6</parameter><parameter name="RGN">-1</parameter><parameter name="STR">0</parameter><parameter name="TCL">MakeCompatibleScalar (0, {WSV=1.000000, ARV=0});</parameter><parameter name="TDL">37</parameter><parameter name="RPO">0</parameter></Acquisition_Parameters_Rf><FT_-_Parameters_Rf><parameter name="APF">B3</parameter><parameter name="HFQ">500</parameter><parameter name="LFQ">4000</parameter><parameter name="NLI">0</parameter><parameter name="PHR">24</parameter><parameter name="PHZ">ML</parameter><parameter name="SPZ">NO</parameter><parameter name="ZFF">1</parameter></FT_-_Parameters_Rf><Optic_Parameters_><parameter name="APR">0</parameter><parameter name="APT">Open</parameter><parameter name="BMS">KBr</parameter><parameter name="CHN">Module port</parameter><parameter name="DTC">RT-DLaTGS_IR-Biotyper [Microplate reader]</parameter><parameter name="HPF">0</parameter><parameter name="LPF">10.0</parameter><parameter name="LPV">4000</parameter><parameter name="PGN">0</parameter><parameter name="RDX">0</parameter><parameter name="SRC">MIR</parameter><parameter name="VEL">10.0</parameter><parameter name="SON">Off</parameter></Optic_Parameters_><FT_-_Parameters_><parameter name="APF">B3</parameter><parameter name="HFQ">500</parameter><parameter name="LFQ">4000</parameter><parameter name="NLI">0</parameter><parameter name="PHR">24</parameter><parameter name="PHZ">ML</parameter><parameter name="SPZ">NO</parameter><parameter name="ZFF">1</parameter></FT_-_Parameters_><Acquisition_Parameters_><parameter name="ADT">1</parameter><parameter name="AQM">DD</parameter><parameter name="CFE">0</parameter><parameter name="COR">0</parameter><parameter name="DEL">0</parameter><parameter name="DLY">0</parameter><parameter name="HFW">8000</parameter><parameter name="LFW">0</parameter><parameter name="NSS">32</parameter><parameter name="PLF">AB</parameter><parameter name="RES">6</parameter><parameter name="SOT">0</parameter><parameter name="TCL">MakeCompatibleScalar (0, {WSV=1.000000, ARV=0});</parameter><parameter name="TDL">37</parameter><parameter name="SPO">0</parameter><parameter name="SGN">-1</parameter></Acquisition_Parameters_><Instrument_Parameters_Rf><parameter name="HFL">15800.168544</parameter><parameter name="LFL">0</parameter><parameter name="LWN">15800.168544</parameter><parameter name="ABP">32197</parameter><parameter name="SSP">1</parameter><parameter name="ARG">2</parameter><parameter name="ASG">2</parameter><parameter name="ASS">32</parameter><parameter name="GFW">16</parameter><parameter name="GBW">16</parameter><parameter name="BFW">0</parameter><parameter name="BBW">0</parameter><parameter name="PKA">7263</parameter><parameter name="PKL">4996</parameter><parameter name="PRA">7446</parameter><parameter name="PRL">5001</parameter><parameter name="P2A">1</parameter><parameter name="P2L">1</parameter><parameter name="P2R">1</parameter><parameter name="P2K">1</parameter><parameter name="DAQ">0</parameter><parameter name="AG2">1</parameter><parameter name="SSM">1</parameter><parameter name="RSN">25515</parameter><parameter name="CRR">0</parameter><parameter name="SRT">1653998059.212</parameter><parameter name="DUR">19.6379852294922</parameter><parameter name="TSC">28.9</parameter><parameter name="MVD">0.280520260334015</parameter><parameter name="AN1">0.225825914215717</parameter><parameter name="AN2">0</parameter><parameter name="VSN">2.485 Apr  4 2017</parameter><parameter name="SRN">0085</parameter><parameter name="CAM">0</parameter><parameter name="INS">IR-Biotyper</parameter><parameter name="FOC">69</parameter><parameter name="RDY">1</parameter><parameter name="ARS">32</parameter></Instrument_Parameters_Rf><Sample_Parameters_><parameter name="BLD"></parameter><parameter name="CNM">Admin</parameter><parameter name="CPY"></parameter><parameter name="DPM"></parameter><parameter name="EXP">IRBT_v3_32Scans.XPM</parameter><parameter name="LCT"></parameter><parameter name="SFM">Microplate, HTS-XT</parameter><parameter name="SNM">220531-1021(v.3)_GFG29M (D_15)_C11_261bfd59-66e5-4106-a9d2-06bc6ad02ebe.0</parameter><parameter name="XPP">C:\Users\Public\Documents\Bruker\OPUS_8.2.28\XPM</parameter><parameter name="IST">OK</parameter><parameter name="CPG">1252</parameter><parameter name="UID">8b1810a7-0720-4a59-876f-a7c7de605c5b</parameter></Sample_Parameters_><Instrument_Parameters_><parameter name="HFL">15800.168544</parameter><parameter name="LFL">0</parameter><parameter name="LWN">15800.168544</parameter><parameter name="ABP">32197</parameter><parameter name="SSP">1</parameter><parameter name="ASG">2</parameter><parameter name="ARG">2</parameter><parameter name="ASS">32</parameter><parameter name="GFW">16</parameter><parameter name="GBW">16</parameter><parameter name="BFW">0</parameter><parameter name="BBW">0</parameter><parameter name="PKA">6532</parameter><parameter name="PKL">4988</parameter><parameter name="PRA">6788</parameter><parameter name="PRL">4993</parameter><parameter name="P2A">1</parameter><parameter name="P2L">1</parameter><parameter name="P2R">1</parameter><parameter name="P2K">1</parameter><parameter name="DAQ">0</parameter><parameter name="AG2">1</parameter><parameter name="SSM">1</parameter><parameter name="RSN">13383</parameter><parameter name="CRR">0</parameter><parameter name="SRT">1653998086.109</parameter><parameter name="DUR">19.6379852294922</parameter><parameter name="TSC">28.9</parameter><parameter name="MVD">0.284809172153473</parameter><parameter name="AN1">0.225790506172117</parameter><parameter name="AN2">0</parameter><parameter name="VSN">2.485 Apr  4 2017</parameter><parameter name="SRN">0085</parameter><parameter name="CAM">0</parameter><parameter name="INS">IR-Biotyper</parameter><parameter name="FOC">69</parameter><parameter name="RDY">1</parameter></Instrument_Parameters_><History/></OPUSDataFile>
