<?xml version="1.0" encoding="UTF-8" ?>
<OPUSDataFile><AB><Ydata ylabel="Absorbance Units"><values byteorder="INTEL" format="FLOAT32" numvalues="3497"> -0.05036312 -0.05032624 -0.05027261 -0.05020102 -0.05012927 -0.05005828 -0.05000329 -0.04996421 -0.04994417 -0.0499417
 -0.04995029 -0.04996848 -0.04998768 -0.0500077 -0.0500236 -0.05003661 -0.0500464 -0.05005458 -0.05006338 -0.05007203
 -0.05008108 -0.05008822 -0.05009152 -0.05009276 -0.05009107 -0.05009322 -0.05010086 -0.05011785 -0.05014604 -0.05017929
 -0.05021767 -0.05024896 -0.05027248 -0.05028005 -0.05027192 -0.05024904 -0.05021269 -0.05017062 -0.05012406 -0.05008169
 -0.05004329 -0.05001327 -0.04998928 -0.04996973 -0.04995186 -0.04993116 -0.04990849 -0.04988156 -0.04985673 -0.04983668
 -0.04982652 -0.04983053 -0.04984302 -0.04986463 -0.04988286 -0.04989515 -0.049898 -0.04989009 -0.04988124 -0.04987193
 -0.04987081 -0.04987749 -0.0498886 -0.04990318 -0.04991332 -0.04991963 -0.04992005 -0.04991599 -0.04990987 -0.04990235
 -0.04989533 -0.04988977 -0.04988801 -0.04988901 -0.04989456 -0.04989719 -0.04989423 -0.04987691 -0.04983889 -0.04978632
 -0.04971639 -0.04965308 -0.04959895 -0.04957821 -0.04959403 -0.04965457 -0.04976051 -0.04990073 -0.05007332 -0.05025076
 -0.05042938 -0.05057263 -0.05067906 -0.0507208 -0.05070549 -0.05063514 -0.0505232 -0.05039371 -0.05025331 -0.05011996
 -0.04999256 -0.04987548 -0.04976772 -0.0496678 -0.04958265 -0.04951286 -0.04947113 -0.04946185 -0.04948758 -0.04955224
 -0.04963379 -0.04973193 -0.04980824 -0.04986043 -0.04986871 -0.04983509 -0.04978425 -0.04972141 -0.04969331 -0.04969859
 -0.04976145 -0.04986767 -0.04999774 -0.05013256 -0.05022716 -0.05028196 -0.05027343 -0.05022721 -0.05015693 -0.05008059
 -0.05001443 -0.04995757 -0.04991085 -0.04988157 -0.0498689 -0.0498943 -0.04996243 -0.05008006 -0.05025185 -0.05043494
 -0.05062758 -0.05072874 -0.0507373 -0.0506125 -0.05037215 -0.05011528 -0.04984872 -0.04965299 -0.0495166 -0.04945054
 -0.04944432 -0.04948756 -0.04956668 -0.04966651 -0.04976309 -0.04983293 -0.04985809 -0.04981466 -0.04972362 -0.04958128
 -0.0494351 -0.0492983 -0.04919343 -0.04912893 -0.0490944 -0.04909004 -0.04910038 -0.04912445 -0.04915668 -0.04919688
 -0.04924248 -0.04929262 -0.04934101 -0.04938562 -0.04941595 -0.0494295 -0.04941383 -0.04937002 -0.04929092 -0.04918786
 -0.04906927 -0.04895118 -0.04885048 -0.04877399 -0.04873139 -0.04871975 -0.04874026 -0.04878851 -0.04886446 -0.04896063
 -0.04907791 -0.04919531 -0.04931203 -0.04939607 -0.04944539 -0.04944097 -0.04938343 -0.04928096 -0.04913658 -0.04897322
 -0.04879422 -0.0486234 -0.04846464 -0.04834033 -0.04825063 -0.04820862 -0.04820534 -0.04823763 -0.04829 -0.04834908
 -0.04840272 -0.04843958 -0.04845653 -0.04844881 -0.04842076 -0.04837115 -0.04831193 -0.04824385 -0.04818378 -0.04813369
 -0.0481038 -0.04809498 -0.04810634 -0.04813741 -0.04818044 -0.04823405 -0.04828567 -0.0483336 -0.04836362 -0.04837698
 -0.04836804 -0.04834275 -0.04830813 -0.04827116 -0.04824303 -0.04822826 -0.04823489 -0.04826311 -0.04831731 -0.04838873
 -0.04847886 -0.04856366 -0.04863926 -0.04867614 -0.04866557 -0.04861071 -0.04850836 -0.04839773 -0.04828132 -0.04817437
 -0.04807635 -0.04797439 -0.0478709 -0.04777648 -0.04769603 -0.04765834 -0.04765829 -0.04770185 -0.04777098 -0.04783653
 -0.04788471 -0.04787825 -0.04783728 -0.04776226 -0.0476858 -0.0476324 -0.04760333 -0.04760936 -0.04762613 -0.04765075
 -0.04765541 -0.04763358 -0.04757535 -0.04747688 -0.04735821 -0.04722 -0.04709911 -0.04699707 -0.04694268 -0.04693401
 -0.04697484 -0.0470563 -0.04714729 -0.04723555 -0.04726764 -0.04725079 -0.04716701 -0.04704433 -0.04691469 -0.04678675
 -0.04668447 -0.04659054 -0.04650191 -0.0464013 -0.04627702 -0.04613569 -0.04597383 -0.04581543 -0.04566457 -0.04553632
 -0.04543403 -0.04535231 -0.0452914 -0.04522831 -0.04516187 -0.0450687 -0.04495123 -0.04481446 -0.04466465 -0.04453126
 -0.04441577 -0.04433811 -0.0442941 -0.04428712 -0.04430801 -0.0443501 -0.04439583 -0.04442933 -0.04443351 -0.04439018
 -0.04430357 -0.04416942 -0.04400206 -0.04380709 -0.04358111 -0.0433239 -0.04303414 -0.04270997 -0.04237076 -0.04201754
 -0.04167012 -0.0413293 -0.04100737 -0.04070573 -0.040441 -0.04021407 -0.04003993 -0.03991324 -0.03982925 -0.03977811
 -0.03974019 -0.03970715 -0.03966418 -0.03959562 -0.0394861 -0.03931439 -0.03905421 -0.03872759 -0.03832778 -0.03791754
 -0.03751742 -0.03714787 -0.03681999 -0.03651135 -0.03622068 -0.03592806 -0.03563162 -0.03533371 -0.03503517 -0.03475583
 -0.03449609 -0.03427133 -0.03407494 -0.03389098 -0.03370522 -0.03346601 -0.03317579 -0.03280424 -0.03238821 -0.03196601
 -0.03155778 -0.031204 -0.03088257 -0.03059353 -0.03030824 -0.03001118 -0.02969863 -0.0293633 -0.02902395 -0.02868431
 -0.02834971 -0.02802329 -0.0276832 -0.02732827 -0.02693663 -0.02650858 -0.02605527 -0.02558068 -0.02512222 -0.02467961
 -0.02427305 -0.02389602 -0.02354013 -0.02320178 -0.02287015 -0.02254463 -0.02222198 -0.02189672 -0.02156261 -0.0212167
 -0.02085181 -0.02048018 -0.02010554 -0.01973672 -0.01938145 -0.01902091 -0.01865369 -0.01825713 -0.01782536 -0.01737681
 -0.01691165 -0.01647143 -0.01605713 -0.01568055 -0.01533869 -0.01501337 -0.01470199 -0.0143828 -0.01405743 -0.01371755
 -0.01336995 -0.0130234 -0.01268399 -0.01236683 -0.01206465 -0.01178106 -0.01149256 -0.01118532 -0.01084342 -0.01045026
 -0.01002575 -0.009569173 -0.009114741 -0.008670585 -0.008248121 -0.007851145 -0.007468791 -0.007100738 -0.006731901 -0.006361871
 -0.005985877 -0.005604852 -0.005224909 -0.004845751 -0.004470108 -0.004095171 -0.003713159 -0.003324759 -0.002925316 -0.002522608
 -0.00212577 -0.001738888 -0.001372015 -0.001016645 -0.000670828 -0.0003253155 2.714566E-05 0.0003805335 0.0007365395 0.001078739
 0.001403288 0.00170458 0.00197976 0.002244355 0.002498874 0.002767824 0.003052018 0.003362644 0.003698129 0.004050358
 0.004417656 0.004787619 0.005161383 0.005535931 0.005912765 0.006294293 0.006679089 0.007067007 0.007454299 0.007838202
 0.008213501 0.008576651 0.008922296 0.009246164 0.009549708 0.009830315 0.01010111 0.01036321 0.01063334 0.01091409
 0.01121267 0.01153012 0.0118617 0.01220701 0.01255649 0.01290945 0.01325647 0.01359671 0.01392096 0.01422937
 0.01451592 0.01478507 0.01504099 0.01529231 0.01555326 0.01582755 0.01612673 0.01644189 0.01677226 0.0171043
 0.01743101 0.01774703 0.01804911 0.01833651 0.01860921 0.01886278 0.01909607 0.01931106 0.019507 0.01970652
 0.01991104 0.02015199 0.02042877 0.02075202 0.02111526 0.02149559 0.02188476 0.02224521 0.02257668 0.02285708
 0.02309964 0.0233115 0.02350988 0.0237165 0.02393359 0.02417297 0.02441861 0.02466648 0.02490248 0.02511911
 0.02531994 0.02550303 0.02568235 0.02585939 0.02604483 0.0262398 0.0264459 0.02666299 0.0268843 0.02710947
 0.02733169 0.02755235 0.02777405 0.02799906 0.02823647 0.02848528 0.02874924 0.02902281 0.0293008 0.02957607
 0.02984079 0.03008759 0.03030924 0.03050185 0.03065973 0.03079037 0.0308921 0.0309855 0.03107367 0.03117678
 0.0312987 0.03144386 0.03161341 0.03179647 0.03199248 0.0321903 0.0323904 0.03259275 0.0327981 0.03301121
 0.03322982 0.03345051 0.03366885 0.03387285 0.03406312 0.03423295 0.03439152 0.03454484 0.03470199 0.03487387
 0.03505487 0.03524852 0.03543473 0.03560781 0.035754 0.03586664 0.0359566 0.03602296 0.03609068 0.03616212
 0.03624516 0.03633968 0.03642705 0.03650647 0.03656112 0.03659511 0.03661906 0.03663897 0.03668036 0.0367424
 0.03683763 0.03695782 0.03709689 0.03724668 0.03739617 0.03754273 0.03768024 0.03781214 0.03793666 0.03806471
 0.0381987 0.03835004 0.03852388 0.03871295 0.03891985 0.03910965 0.03928008 0.03939688 0.03945909 0.03947304
 0.03944279 0.03941134 0.03937968 0.03937762 0.03939752 0.03942963 0.03947061 0.0395043 0.03954232 0.03959502
 0.03967136 0.03979103 0.03993647 0.04010618 0.04026866 0.04040555 0.04050886 0.04056681 0.0406049 0.04062519
 0.04065717 0.04070676 0.04077821 0.0408735 0.04096935 0.04106446 0.04112846 0.04116156 0.0411519 0.04110499
 0.04104027 0.04096648 0.04092203 0.04090961 0.04095724 0.04105359 0.04119784 0.04136821 0.04154263 0.0417047
 0.04183325 0.04193098 0.04199075 0.04203082 0.0420548 0.04208043 0.04211215 0.04216052 0.04222715 0.04232148
 0.04244424 0.04260574 0.04280633 0.043047 0.04332545 0.04362125 0.04392817 0.0442043 0.0444443 0.04460584
 0.04469556 0.04470064 0.04464619 0.04456031 0.04447246 0.04442756 0.0444294 0.04450324 0.04461407 0.04475659
 0.0448816 0.04496993 0.04499871 0.04495478 0.04485794 0.0447067 0.04454201 0.04436734 0.04420887 0.04406779
 0.04394613 0.04384368 0.04375859 0.04369208 0.04365074 0.04363401 0.04364539 0.0436794 0.04372746 0.04378095
 0.04382553 0.04384915 0.0438364 0.04377232 0.0436395 0.04343671 0.04315202 0.04281547 0.0424297 0.04204079
 0.04166018 0.04131347 0.04100795 0.04073833 0.04050547 0.04029094 0.04009376 0.03989444 0.03969251 0.03947438
 0.03924323 0.03900713 0.03877271 0.03856867 0.03839263 0.03825906 0.03814844 0.03803882 0.03791088 0.03773012
 0.03750485 0.03722224 0.03692136 0.03661501 0.03634458 0.03613017 0.03598063 0.03590777 0.03587418 0.03587988
 0.03586155 0.03581353 0.03569288 0.03549768 0.03523993 0.03492398 0.03460238 0.03427818 0.03399708 0.03375394
 0.03355713 0.03339736 0.03325733 0.03313301 0.03300932 0.03288944 0.03277189 0.0326581 0.03255115 0.03244343
 0.03233288 0.03220994 0.03206906 0.03191305 0.03173961 0.03156421 0.03138854 0.03122619 0.03107894 0.03094812
 0.03083375 0.03072692 0.03062675 0.03052026 0.03040678 0.03027529 0.03012692 0.02995878 0.02977414 0.02957858
 0.02937527 0.02917163 0.02896896 0.02877123 0.02857932 0.02839474 0.02821893 0.02805322 0.02789752 0.02775316
 0.02761489 0.02748271 0.02734674 0.02720558 0.02705161 0.02688359 0.0267041 0.0265133 0.02632154 0.02612905
 0.02594187 0.02575899 0.02557777 0.0253972 0.02521213 0.02502327 0.02482955 0.02463253 0.02443411 0.02423565
 0.02403918 0.02384592 0.02365663 0.02347472 0.02330032 0.02314275 0.02300476 0.02289557 0.02282055 0.02276969
 0.02274559 0.02271103 0.02266336 0.02256624 0.02241772 0.0222182 0.02197078 0.0217132 0.02144936 0.02122206
 0.02102933 0.02088984 0.02079324 0.02072782 0.02067807 0.0206134 0.0205265 0.02039222 0.02022601 0.02002693
 0.01982524 0.01963852 0.01947887 0.01935977 0.01926018 0.01917847 0.0190909 0.01899068 0.0188867 0.01877759
 0.01869733 0.01864767 0.01864658 0.01869171 0.01875983 0.01884481 0.01889845 0.01891925 0.018873 0.01876988
 0.01861378 0.01842155 0.01822343 0.0180264 0.01785352 0.01769445 0.01754858 0.01740606 0.01725696 0.017113
 0.01697412 0.01686041 0.01678002 0.01672705 0.01670473 0.0166811 0.01665298 0.0166036 0.01653191 0.01645883
 0.0163861 0.01634317 0.01632768 0.01634139 0.01637849 0.01641845 0.0164595 0.01648625 0.01650232 0.01650754
 0.01650356 0.01649469 0.01647406 0.01644031 0.01637925 0.01628299 0.01614208 0.01594721 0.01571244 0.01543408
 0.01515531 0.01488064 0.01465577 0.01448719 0.01438166 0.01433996 0.01431864 0.01431445 0.01427162 0.01419212
 0.01405664 0.01387562 0.01367569 0.01346604 0.01328456 0.01312772 0.01300949 0.01291568 0.0128356 0.01275754
 0.01266706 0.01256374 0.01244173 0.01230996 0.01216902 0.01203243 0.01190341 0.01179264 0.01170401 0.01163072
 0.01157408 0.01150491 0.01142161 0.01129895 0.01113816 0.01095048 0.01074091 0.01054801 0.01037076 0.01022927
 0.01011197 0.01000027 0.009886521 0.009744785 0.009585902 0.009409048 0.009235095 0.009081897 0.008958483 0.008877422
 0.008830562 0.008818077 0.008830131 0.00886329 0.008916963 0.008990602 0.009085291 0.009202227 0.009327302 0.009459921
 0.009564979 0.009640399 0.009647842 0.00958944 0.009455523 0.009256832 0.009025584 0.00877519 0.008555873 0.008370907
 0.008251565 0.00818669 0.008176764 0.008206764 0.008263803 0.008340996 0.008430506 0.008532152 0.008645348 0.008765938
 0.008893959 0.009019575 0.009140292 0.009255458 0.009363071 0.009486022 0.009625378 0.009819163 0.01006835 0.01039541
 0.01079597 0.011255 0.01176468 0.01228699 0.01281938 0.01333456 0.01383866 0.01432924 0.01481412 0.01530206
 0.0157972 0.01630494 0.01682992 0.01737467 0.01794738 0.01855236 0.01919202 0.01987067 0.02057315 0.02130019
 0.02202036 0.02273157 0.0233984 0.02401864 0.02456442 0.0250351 0.02541727 0.02571254 0.02592316 0.02605351
 0.02611867 0.02612753 0.02610636 0.02606971 0.02605253 0.0260688 0.02615056 0.02629943 0.02653023 0.02683038
 0.02719705 0.0276186 0.02808813 0.02860663 0.02917231 0.0297919 0.03046699 0.03119745 0.03198422 0.03281692
 0.03369517 0.03459755 0.03552211 0.03643537 0.03733517 0.03818886 0.03899899 0.03975627 0.04046804 0.04115111
 0.04180355 0.04243934 0.0430277 0.04354963 0.04394196 0.04415481 0.04411628 0.04377024 0.04308151 0.0420103
 0.04060218 0.0388433 0.03687298 0.03470054 0.03251729 0.03034219 0.02833438 0.02650556 0.02491311 0.02355459
 0.02238918 0.02140901 0.0205414 0.01978401 0.01908983 0.0184601 0.01787692 0.01733591 0.01682319 0.01633026
 0.01583973 0.01535135 0.01485592 0.01436611 0.01388567 0.01342849 0.01300199 0.01260984 0.01225485 0.01193504
 0.01164949 0.01140317 0.01119547 0.01104338 0.01094784 0.01092773 0.01098278 0.01111157 0.01130831 0.01153449
 0.01178073 0.01198769 0.01215377 0.01223967 0.01226095 0.01222271 0.01215172 0.01208128 0.01203543 0.01204523
 0.01212538 0.01229305 0.01255355 0.01291388 0.0133703 0.01392445 0.01456551 0.01529363 0.01608993 0.01695617
 0.01783852 0.01873562 0.01951239 0.02015754 0.02046209 0.02041871 0.01986018 0.01881621 0.01729699 0.01537742
 0.01324848 0.01098773 0.008826788 0.006792055 0.005019657 0.003474879 0.002179705 0.001075038 0.0001329799 -0.0006924538
 -0.001426371 -0.002093609 -0.002705611 -0.003274101 -0.003803325 -0.004295251 -0.004750854 -0.005166418 -0.005541684 -0.0058767
 -0.006172003 -0.006437607 -0.006675232 -0.006902148 -0.007119291 -0.0073409 -0.007564187 -0.007790369 -0.008013203 -0.008221199
 -0.008411902 -0.008574745 -0.008717965 -0.008843041 -0.008964051 -0.009090754 -0.009228962 -0.009386108 -0.009552096 -0.009727324
 -0.009893725 -0.01004753 -0.01018003 -0.01028853 -0.0103833 -0.01046462 -0.0105513 -0.01064366 -0.01074626 -0.01085681
 -0.01095974 -0.0110542 -0.01112599 -0.01118119 -0.01122771 -0.01127417 -0.0113421 -0.01143106 -0.01155237 -0.01169359
 -0.01184879 -0.01200414 -0.0121486 -0.01227765 -0.01238534 -0.01247719 -0.01255227 -0.01262239 -0.01268887 -0.01276525
 -0.01285358 -0.01295942 -0.01308368 -0.01321498 -0.01335234 -0.01347547 -0.01358438 -0.01366894 -0.01373216 -0.013781
 -0.01381864 -0.01385797 -0.01389883 -0.01394727 -0.01400099 -0.01405929 -0.01412062 -0.01418318 -0.01424652 -0.01431051
 -0.0143727 -0.01443252 -0.01448611 -0.01453154 -0.01457012 -0.01460039 -0.0146338 -0.01467129 -0.0147244 -0.01479436
 -0.01487631 -0.01496937 -0.01505333 -0.01512761 -0.01517725 -0.01520544 -0.01521721 -0.01521734 -0.01522209 -0.01523287
 -0.01526104 -0.01530304 -0.01535975 -0.01542478 -0.01549287 -0.01555878 -0.0156169 -0.0156677 -0.01570873 -0.01574708
 -0.01578388 -0.01582666 -0.01587764 -0.01593734 -0.01600664 -0.01607885 -0.01615359 -0.01622418 -0.01629053 -0.01635263
 -0.01641113 -0.01647139 -0.01653338 -0.01660022 -0.01667055 -0.01674215 -0.01681394 -0.01688245 -0.01694814 -0.01701037
 -0.01706936 -0.01712537 -0.0171775 -0.01722485 -0.01726829 -0.01730696 -0.01734593 -0.01738626 -0.01743283 -0.01748759
 -0.01754782 -0.01761403 -0.01767695 -0.01773593 -0.01778445 -0.0178225 -0.01785273 -0.01787557 -0.01789615 -0.01791394
 -0.01792908 -0.01794115 -0.01794806 -0.01795227 -0.01795716 -0.01796598 -0.01798518 -0.01801448 -0.01805658 -0.01810816
 -0.01816785 -0.01823311 -0.01830259 -0.01837449 -0.0184482 -0.01852182 -0.01859482 -0.01866666 -0.01873721 -0.01880657
 -0.01887483 -0.01893919 -0.01899949 -0.0190526 -0.01909898 -0.01914091 -0.01917939 -0.01922012 -0.01926341 -0.01931305
 -0.01936865 -0.01943182 -0.01950028 -0.01957309 -0.01964401 -0.01970747 -0.01975725 -0.01978559 -0.01979678 -0.01978852
 -0.01977486 -0.01975956 -0.01975228 -0.0197565 -0.01977091 -0.01979578 -0.01982891 -0.01986998 -0.01992285 -0.0199876
 -0.02006551 -0.02015522 -0.02024624 -0.02033644 -0.02040954 -0.02046663 -0.02050073 -0.0205181 -0.02052699 -0.02053457
 -0.0205554 -0.02058966 -0.02064503 -0.02071215 -0.02078839 -0.02086187 -0.02092585 -0.02097631 -0.0210091 -0.02103118
 -0.02104243 -0.02105436 -0.02106857 -0.02109125 -0.02112321 -0.02116208 -0.02120762 -0.02125317 -0.02129876 -0.02134149
 -0.02138207 -0.02142245 -0.02146296 -0.02150573 -0.02155032 -0.02159681 -0.02164484 -0.02169396 -0.02174384 -0.02179423
 -0.02184425 -0.02189333 -0.02194059 -0.02198551 -0.02202751 -0.02206648 -0.02210124 -0.02213145 -0.0221569 -0.0221771
 -0.02219641 -0.02221503 -0.02223924 -0.02226921 -0.02230606 -0.02234907 -0.02239233 -0.022435 -0.02246996 -0.02249733
 -0.02251361 -0.02251978 -0.02251574 -0.02250336 -0.02248452 -0.02246274 -0.02244172 -0.02242513 -0.02241683 -0.02241773
 -0.02242956 -0.02245063 -0.02248081 -0.02251846 -0.02256335 -0.02261375 -0.02266975 -0.0227268 -0.02278467 -0.02283762
 -0.02288546 -0.02292701 -0.02296268 -0.02299607 -0.02302709 -0.02305762 -0.02308629 -0.0231098 -0.0231275 -0.02313551
 -0.02313635 -0.02313135 -0.0231246 -0.02312079 -0.02312197 -0.02313158 -0.02314792 -0.02317145 -0.02319877 -0.02322915
 -0.02325899 -0.02328749 -0.02331191 -0.02333165 -0.02334631 -0.02335568 -0.02336221 -0.02336606 -0.02337067 -0.02337627
 -0.02338619 -0.0234007 -0.0234232 -0.02345324 -0.02349192 -0.02353697 -0.02358456 -0.02363202 -0.0236732 -0.02370865
 -0.02373568 -0.02375874 -0.02377996 -0.02380304 -0.02383096 -0.0238627 -0.02389916 -0.02393598 -0.02397235 -0.02400529
 -0.02403402 -0.02405934 -0.02408116 -0.02410303 -0.02412514 -0.02415051 -0.02417896 -0.02421015 -0.02424321 -0.02427381
 -0.02430103 -0.02431903 -0.0243289 -0.02432884 -0.02432343 -0.02431805 -0.02431777 -0.02433089 -0.02435625 -0.02439731
 -0.02444583 -0.0244991 -0.02454956 -0.02459352 -0.02463001 -0.02465777 -0.02467976 -0.02469615 -0.02470995 -0.02472134
 -0.0247341 -0.02474844 -0.02476771 -0.02479165 -0.02481893 -0.02484878 -0.02487627 -0.02490161 -0.02492211 -0.02494001
 -0.02495872 -0.02498029 -0.02501005 -0.02504651 -0.02509124 -0.02513887 -0.02518641 -0.02522894 -0.02526255 -0.02528771
 -0.02530311 -0.02531299 -0.0253178 -0.02532226 -0.02532711 -0.02533516 -0.02534684 -0.02536133 -0.02537853 -0.02539321
 -0.02540519 -0.02541003 -0.02540893 -0.02540574 -0.0254019 -0.02540507 -0.02541347 -0.02542782 -0.02544375 -0.02545414
 -0.02545846 -0.02545163 -0.02544013 -0.02542623 -0.02541775 -0.02541994 -0.02543401 -0.02546293 -0.02549933 -0.02554282
 -0.02558325 -0.02561896 -0.02564486 -0.02566018 -0.02566619 -0.02566295 -0.02565312 -0.02563689 -0.02561698 -0.02559415
 -0.02557375 -0.02555636 -0.0255472 -0.02554509 -0.02554998 -0.02556068 -0.02557481 -0.02559332 -0.0256168 -0.02564455
 -0.02567763 -0.0257104 -0.02574034 -0.02576348 -0.02577635 -0.02578461 -0.02578827 -0.02579611 -0.02581007 -0.02582997
 -0.02585639 -0.02588068 -0.02590243 -0.02591562 -0.0259208 -0.02592161 -0.02591976 -0.02592597 -0.02594169 -0.02597747
 -0.02603325 -0.02611433 -0.02621913 -0.02634793 -0.02649794 -0.02666668 -0.02685105 -0.02704719 -0.02725634 -0.02747555
 -0.02771671 -0.02798159 -0.02828677 -0.02863851 -0.02903479 -0.02948019 -0.02993636 -0.03040183 -0.03082121 -0.03119171
 -0.03148102 -0.03169054 -0.03182607 -0.03188937 -0.03189559 -0.03183878 -0.03170753 -0.03149472 -0.03116844 -0.03075244
 -0.03025742 -0.02973898 -0.02926225 -0.02885959 -0.02858077 -0.02841886 -0.02838594 -0.02845832 -0.02863555 -0.02887615
 -0.02917828 -0.02946733 -0.02973388 -0.02990937 -0.02998332 -0.02997237 -0.02987742 -0.02976762 -0.02964463 -0.02954894
 -0.02947761 -0.02943664 -0.02942098 -0.02941848 -0.02942281 -0.02941365 -0.02938813 -0.02933259 -0.02924775 -0.02913004
 -0.02897868 -0.02879023 -0.02857054 -0.02831645 -0.02805329 -0.02778693 -0.02754571 -0.02733945 -0.02717228 -0.02704813
 -0.02694965 -0.02687583 -0.02681016 -0.02675176 -0.0266956 -0.02664181 -0.02659089 -0.02654245 -0.02649465 -0.02644683
 -0.02639546 -0.02634103 -0.0262824 -0.02622166 -0.02616141 -0.02610384 -0.02605261 -0.02600812 -0.0259725 -0.02594317
 -0.02592031 -0.02589807 -0.0258748 -0.02584491 -0.02580596 -0.02575949 -0.02570448 -0.02565065 -0.02559874 -0.02555712
 -0.02552624 -0.02550469 -0.02549207 -0.0254827 -0.02547693 -0.02547389 -0.02547441 -0.02548133 -0.02549411 -0.02551336
 -0.02553716 -0.0255631 -0.02558861 -0.02561029 -0.02562544 -0.02563072 -0.02562543 -0.02560748 -0.0255803 -0.02554417
 -0.02550407 -0.02546126 -0.02541861 -0.02537657 -0.02533782 -0.02530249 -0.02527477 -0.02525491 -0.02524537 -0.02524581
 -0.02525273 -0.02526496 -0.0252739 -0.02527883 -0.02527172 -0.02525456 -0.02522669 -0.02519344 -0.02516315 -0.02513952
 -0.02513171 -0.02513558 -0.02515278 -0.02517274 -0.02519016 -0.02519842 -0.02519278 -0.02517549 -0.02514562 -0.02510948
 -0.0250679 -0.02502554 -0.02498291 -0.02494341 -0.02490726 -0.02487751 -0.02485414 -0.02483819 -0.02482904 -0.02482367
 -0.0248214 -0.02481778 -0.02481346 -0.02480722 -0.02480129 -0.02479906 -0.02480141 -0.0248117 -0.02482676 -0.02484605
 -0.02486405 -0.02487764 -0.02488339 -0.02487891 -0.02486461 -0.02483974 -0.02480749 -0.02476791 -0.02472598 -0.02468208
 -0.02464145 -0.02460443 -0.02457271 -0.02454593 -0.0245198 -0.02449363 -0.02446055 -0.02442152 -0.02437515 -0.02432543
 -0.0242808 -0.02424517 -0.02423055 -0.0242339 -0.02425876 -0.02429418 -0.02433306 -0.02436613 -0.02438467 -0.02439086
 -0.0243821 -0.02436849 -0.02435228 -0.02433963 -0.02433255 -0.02432901 -0.02432918 -0.02432848 -0.02432665 -0.02432213
 -0.024315 -0.02430644 -0.02429639 -0.02428502 -0.02427202 -0.024256 -0.02423741 -0.0242161 -0.02419383 -0.02417359
 -0.02415635 -0.02414516 -0.02413786 -0.02413441 -0.02413052 -0.0241235 -0.02411164 -0.02409264 -0.02407063 -0.02404565
 -0.02402447 -0.02400848 -0.02400007 -0.02400012 -0.02400248 -0.02400685 -0.02400504 -0.02399714 -0.02398276 -0.02396312
 -0.02394609 -0.02393181 -0.02392583 -0.02392563 -0.02392788 -0.02393023 -0.02392633 -0.02391745 -0.02390207 -0.02388335
 -0.02386384 -0.02384415 -0.02382577 -0.02380687 -0.02378678 -0.02376538 -0.02374211 -0.02371942 -0.02369762 -0.02367854
 -0.02366244 -0.02364975 -0.02364049 -0.02363552 -0.0236348 -0.02363797 -0.02364432 -0.02364928 -0.02365185 -0.0236454
 -0.02363056 -0.02360488 -0.02357111 -0.02353263 -0.02349233 -0.02345529 -0.02342217 -0.02339561 -0.02337399 -0.02335712
 -0.02334345 -0.02333198 -0.02332327 -0.02331723 -0.02331473 -0.02331628 -0.02331968 -0.0233249 -0.02332805 -0.02332886
 -0.02332756 -0.02332438 -0.02332375 -0.02332551 -0.02333139 -0.02334008 -0.02334733 -0.02335231 -0.02335019 -0.02334227
 -0.02332819 -0.02331037 -0.02329175 -0.02327343 -0.02325773 -0.02324362 -0.02323146 -0.02321889 -0.02320479 -0.02318867
 -0.02316938 -0.02315123 -0.02313432 -0.02312559 -0.02312604 -0.02313726 -0.0231595 -0.02318488 -0.02321282 -0.02323283
 -0.02324519 -0.02324633 -0.02323753 -0.02322194 -0.02320045 -0.02317653 -0.02315124 -0.02312726 -0.02310725 -0.02309574
 -0.02309363 -0.0231048 -0.02312372 -0.02314932 -0.02317322 -0.02319125 -0.02320093 -0.02319994 -0.0231926 -0.02317929
 -0.02316359 -0.02314601 -0.02312742 -0.02310786 -0.02308922 -0.02307165 -0.02305833 -0.02304906 -0.02304423 -0.02304309
 -0.0230427 -0.02304274 -0.0230405 -0.02303706 -0.02303282 -0.02302958 -0.0230302 -0.02303426 -0.02304334 -0.02305354
 -0.02306308 -0.0230689 -0.02306857 -0.02306408 -0.02305509 -0.02304579 -0.02303716 -0.02302983 -0.02302407 -0.02301855
 -0.02301317 -0.02300877 -0.02300547 -0.023005 -0.02300721 -0.02301174 -0.02301833 -0.02302579 -0.02303391 -0.02304194
 -0.02304887 -0.02305283 -0.02305236 -0.02304454 -0.02302949 -0.02300546 -0.02297579 -0.022941 -0.02290711 -0.02287649
 -0.02285393 -0.02284209 -0.02283883 -0.02284508 -0.02285188 -0.02285836 -0.02285784 -0.02284972 -0.02283596 -0.02281682
 -0.02279759 -0.02277804 -0.02275918 -0.02274027 -0.02271862 -0.02269444 -0.02266632 -0.02263617 -0.02260657 -0.02257958
 -0.02255921 -0.02254545 -0.02254044 -0.0225412 -0.02254688 -0.02255398 -0.02256099 -0.02256519 -0.02256571 -0.02256014
 -0.0225477 -0.02252843 -0.02250179 -0.02247341 -0.02244357 -0.02241903 -0.02239985 -0.02238623 -0.02237752 -0.0223688
 -0.02236022 -0.02234962 -0.02233804 -0.02232737 -0.02231772 -0.02231049 -0.02230465 -0.02229973 -0.02229408 -0.02228669
 -0.02227452 -0.02225549 -0.02222762 -0.02218811 -0.02214249 -0.02209037 -0.02204374 -0.02200497 -0.02198071 -0.02197282
 -0.02197529 -0.02198804 -0.02199766 -0.02200374 -0.02199887 -0.02198405 -0.02196315 -0.02193737 -0.02191417 -0.02189269
 -0.02187448 -0.02185786 -0.02183986 -0.02182084 -0.02179955 -0.02177831 -0.02175888 -0.02174244 -0.02173061 -0.02172236
 -0.02171815 -0.02171462 -0.02171142 -0.02170348 -0.02168964 -0.02166742 -0.0216359 -0.02159912 -0.0215572 -0.02151752
 -0.02148032 -0.02144951 -0.02142492 -0.02140702 -0.0213955 -0.02138962 -0.02138847 -0.02138931 -0.0213912 -0.02139078
 -0.02138849 -0.02138376 -0.02137663 -0.02136807 -0.02135444 -0.02133404 -0.02130321 -0.02125857 -0.02120422 -0.02113939
 -0.02107442 -0.02101122 -0.02095657 -0.02091202 -0.02087568 -0.02084763 -0.02082245 -0.02080006 -0.0207797 -0.02076204
 -0.02075243 -0.02075069 -0.02076011 -0.02077752 -0.02079663 -0.02081286 -0.02081363 -0.02079904 -0.02076218 -0.02071022
 -0.02064677 -0.0205792 -0.02051347 -0.0204526 -0.02039939 -0.02035426 -0.02031798 -0.02028986 -0.02027008 -0.02025663
 -0.02024941 -0.02024542 -0.02024445 -0.02024443 -0.02024534 -0.02024693 -0.02024898 -0.02025008 -0.02024893 -0.02023899
 -0.02021928 -0.0201821 -0.02013098 -0.02006807 -0.01999938 -0.0199344 -0.01987522 -0.0198278 -0.01979004 -0.01976263
 -0.01974226 -0.01972823 -0.01971589 -0.01970427 -0.0196877 -0.0196649 -0.01963251 -0.01958976 -0.01953709 -0.01947439
 -0.01940434 -0.01932719 -0.0192487 -0.01916958 -0.01909859 -0.01903551 -0.01898469 -0.01894406 -0.01891013 -0.01888097
 -0.01885092 -0.01881967 -0.01878455 -0.01874557 -0.01870168 -0.01865352 -0.01860051 -0.01854571 -0.01849031 -0.01843657
 -0.01838602 -0.01833666 -0.01828858 -0.01823841 -0.0181855 -0.01813042 -0.0180731 -0.01801677 -0.01796145 -0.01790629
 -0.01785035 -0.01778551 -0.0177109 -0.01761693 -0.01750631 -0.01738095 -0.01724575 -0.0171122 -0.01698074 -0.01685777
 -0.01673928 -0.01662313 -0.01650794 -0.01639076 -0.01627628 -0.01616563 -0.01606352 -0.01597257 -0.01589068 -0.01581943
 -0.01574656 -0.01567205 -0.01557308 -0.0154479 -0.01528104 -0.01507259 -0.01483642 -0.01457423 -0.01430796 -0.01403531
 -0.01375768 -0.01347076 -0.01316212 -0.01283064 -0.01246719 -0.01207516 -0.01165402 -0.01121121 -0.01075248 -0.01028678
 -0.009822636 -0.009361522 -0.008908194 -0.00845328 -0.007993301 -0.007528659 -0.007055453 -0.006598272 -0.006159915 -0.005757324
 -0.005392765 -0.005055733 -0.004745752 -0.004452202 -0.004176119 -0.003923524 -0.003694087 -0.003491183 -0.003309818 -0.003136962
 -0.002968501 -0.002788524 -0.002599369 -0.002397846 -0.002186472 -0.001968626 -0.001739407 -0.001496899 -0.001236073 -0.0009524313
 -0.0006503401 -0.000329042 1.099099E-06 0.0003360673 0.000681158 0.001033415 0.001430258 0.001874431 0.002394641 0.002990333
 0.003612622 0.004257297 0.004861615 0.005433219 0.005975808 0.006498853 0.007033755 0.007581977 0.008159788 0.008769489
 0.009414827 0.01011535 0.01088427 0.01175866 0.01277091 0.01393149 0.01527268 0.01671449 0.01825047 0.01975967
 0.0212107 0.02255971 0.02379252 0.02493343 0.02598212 0.02698168 0.02793511 0.0289095 0.02991154 0.03103925
 0.03228308 0.0336659 0.03513922 0.03655614 0.03790691 0.03908326 0.04014236 0.04112196 0.04206624 0.04303968
 0.04404372 0.04510094 0.04619487 0.04732236 0.04847377 0.04965022 0.05082208 0.05198577 0.05310355 0.05416604
 0.0551877 0.05616822 0.05714129 0.05810714 0.05903399 0.05991668 0.06068867 0.06135545 0.06190563 0.0623555
 0.06275085 0.06309885 0.06344289 0.06376573 0.06405888 0.06431223 0.064505 0.06465643 0.06477347 0.06487197
 0.06496515 0.06504547 0.06511539 0.0651563 0.06516419 0.06512883 0.06504714 0.06492401 0.06475885 0.06457216
 0.06436487 0.06415121 0.06392928 0.06368613 0.0634189 0.06310666 0.06274862 0.06233032 0.06185489 0.06131859
 0.06073331 0.06011325 0.05947163 0.05882997 0.05818603 0.05754632 0.05690056 0.05624095 0.05557806 0.05490888
 0.05426617 0.05365778 0.05309832 0.05259287 0.05212874 0.05170524 0.05131291 0.05095146 0.0506254 0.05033475
 0.05008182 0.04986502 0.0496769 0.04951718 0.04938051 0.04926904 0.04918568 0.04912992 0.04910311 0.04910172
 0.04912119 0.04916355 0.04922639 0.04932056 0.04945004 0.04962495 0.04984972 0.05012888 0.05046441 0.05085719
 0.0513089 0.0518084 0.05235605 0.05292156 0.05350321 0.05406596 0.05460817 0.05510165 0.05554417 0.05590856
 0.05619464 0.05638371 0.05648544 0.05650809 0.05646884 0.05639514 0.05630333 0.05622137 0.05615465 0.05611793
 0.0561026 0.05610856 0.05612604 0.05615043 0.05618196 0.05621941 0.05626776 0.05632943 0.05639093 0.05645191
 0.05649016 0.05650478 0.05649611 0.05646522 0.05642445 0.05637309 0.05631528 0.05624647 0.05615667 0.05603652
 0.05586641 0.05562574 0.05527721 0.05480108 0.05414764 0.05335628 0.05243239 0.05143638 0.05041027 0.04934805
 0.04825495 0.0471251 0.04594938 0.04477711 0.0436123 0.04250914 0.04147474 0.04050672 0.03960481 0.03873094
 0.03788441 0.03704366 0.03621248 0.0353999 0.03460947 0.03385996 0.03314669 0.03247176 0.03182147 0.03117665
 0.03052522 0.02984683 0.02913645 0.02838593 0.02758806 0.0267351 0.02583082 0.0248594 0.02389913 0.02295886
 0.02213639 0.02145842 0.02088718 0.02042484 0.01997923 0.01954598 0.01908578 0.01860176 0.01811721 0.0176362
 0.01719557 0.01678962 0.0164173 0.01607448 0.01574589 0.01544441 0.01518076 0.01497326 0.01484963 0.01480826
 0.01485974 0.0149883 0.01518812 0.01544945 0.01576623 0.01613962 0.01656513 0.01706631 0.01764171 0.01834816
 0.01919183 0.02019973 0.02137238 0.02258999 0.02384077 0.0249434 0.02590312 0.026655 0.02721564 0.02760577
 0.02783842 0.02794827 0.02795276 0.02788995 0.02778197 0.02766449 0.02755789 0.02749079 0.02746464 0.02749489
 0.02754824 0.02761625 0.02767431 0.02771132 0.02773671 0.02774982 0.02776552 0.02778576 0.02780976 0.02783751
 0.02785882 0.02787396 0.02788276 0.02788737 0.02789983 0.02792181 0.02796651 0.02803168 0.02812031 0.02822556
 0.02833634 0.02845232 0.02856394 0.02868827 0.02883236 0.0290187 0.02926347 0.0295696 0.02994638 0.03036986
 0.03083727 0.03132272 0.03182081 0.03232472 0.03283327 0.03334554 0.03386137 0.03436165 0.03484452 0.0352804
 0.03566962 0.03599884 0.03627039 0.03648626 0.03664609 0.03675122 0.03679764 0.03677978 0.03669396 0.03653276
 0.03629806 0.03598744 0.03560841 0.03516341 0.034661 0.03410326 0.03350204 0.03285743 0.03219505 0.03151698
 0.03085687 0.03021863 0.02961604 0.02905001 0.02851044 0.02799692 0.02750055 0.02702304 0.02657011 0.0261432
 0.02575212 0.02539323 0.02506487 0.02475844 0.0244604 0.02416174 0.02384685 0.02351179 0.02314649 0.02275724
 0.02234207 0.0219173 0.02148754 0.02106803 0.0206646 0.0202788 0.01991304 0.01955528 0.01920454 0.0188518
 0.0184965 0.01815118 0.01781777 0.01752583 0.01727519 0.01708183 0.01693978 0.01683663 0.0167663 0.01670764
 0.01665944 0.01660976 0.01656132 0.01651215 0.01646675 0.01642805 0.01639908 0.01638326 0.01637808 0.01638413
 0.01639543 0.01641019 0.01642679 0.01644414 0.01646671 0.01649493 0.01653077 0.01657438 0.01661754 0.01665962
 0.01668918 0.01670729 0.01671333 0.01671144 0.01671548 0.01673008 0.01677414 0.01684737 0.01695992 0.01710375
 0.0172762 0.01746227 0.01765178 0.01782615 0.01797358 0.01807956 0.01813452 0.01813842 0.01808737 0.01799588
 0.01786498 0.01771136 0.01753673 0.01735225 0.01715862 0.01696422 0.01676941 0.01658131 0.01639955 0.01622572
 0.01605872 0.01589501 0.0157346 0.01557514 0.01541847 0.01526685 0.01512117 0.01498433 0.01485362 0.01472808
 0.01460464 0.01447996 0.01435771 0.01423667 0.01412843 0.01403547 0.01396727 0.01392675 0.01391173 0.01392295
 0.01394855 0.0139879 0.01402884 0.01407113 0.01410906 0.01414342 0.0141761 0.01420815 0.01424476 0.01428565
 0.01433302 0.0143856 0.01444163 0.01450172 0.01456513 0.01463492 0.0147133 0.01480248 0.01490494 0.01501911
 0.01514544 0.01528009 0.01542231 0.01556856 0.01571798 0.01586984 0.01602385 0.01618201 0.01634444 0.01651063
 0.01668012 0.01684578 0.01700703 0.01715601 0.01729366 0.01741927 0.01753422 0.01764217 0.01774241 0.01783597
 0.01792025 0.01799256 0.01805095 0.01809313 0.01811743 0.01812259 0.0181067 0.01806835 0.01800816 0.01792479
 0.01782581 0.01771155 0.01759331 0.01747254 0.01735355 0.01723677 0.01711485 0.01698736 0.01684612 0.01669207
 0.01652754 0.01635379 0.01617764 0.01599801 0.01581524 0.01562857 0.01543513 0.01523925 0.01504443 0.01485599
 0.01468082 0.01451754 0.01436845 0.01422692 0.01409065 0.01395597 0.01382078 0.01368722 0.01355492 0.01342902
 0.01330992 0.01320255 0.01310729 0.01302537 0.01295652 0.01289599 0.0128433 0.0127924 0.01274424 0.01269855
 0.0126582 0.01263005 0.012617 0.01262801 0.01266247 0.01272429 0.01280871 0.01291251 0.01303387 0.01316848
 0.01332466 0.01350361 0.01371664 0.0139686 0.01425778 0.01458619 0.01493921 0.01531546 0.01570432 0.01610486
 0.01652084 0.01695269 0.01740964 0.01789098 0.01839715 0.01892526 0.01946427 0.02001195 0.02055643 0.02109842
 0.02163374 0.0221637 0.02268909 0.02320847 0.02372117 0.02422508 0.02471894 0.02520098 0.02567134 0.02612418
 0.02655867 0.02696679 0.02734615 0.02769761 0.02802008 0.02832597 0.0286159 0.0289039 0.02919062 0.02948739
 0.02979469 0.03012201 0.03046821 0.03083463 0.03121848 0.03161228 0.03201648 0.03242722 0.03284912 0.03328772
 0.03374256 0.03421764 0.03470334 0.03519574 0.03568527 0.0361662 0.03663728 0.0370963 0.03754792 0.03799241
 0.038435 0.03887617 0.03932043 0.03976803 0.04022562 0.04069377 0.04118371 0.04169499 0.04223229 0.0427902
 0.04335065 0.04390574 0.04442331 0.04490431 0.04533276 0.04572017 0.04607433 0.04640568 0.04672629 0.04704108
 0.04735585 0.04767412 0.0479991 0.04833023 0.04866896 0.04900875 0.04934864 0.04968388 0.05001356 0.0503378
 0.0506565 0.05097155 0.05128345 0.05160117 0.05192632 0.05227612 0.05264977 0.05305549 0.05348653 0.05393098
 0.05437871 0.05480702 0.0552061 0.05555477 0.0558468 0.0560678 0.05622149 0.05630352 0.05632794 0.05629899
 0.05622903 0.05612243 0.05598551 0.05581919 0.0556329 0.05542717 0.05521586 0.05499992 0.05478873 0.05458257
 0.05438533 0.05419687 0.05401862 0.05384943 0.05368534 0.05352526 0.05336311 0.05320094 0.0530397 0.05288162
 0.05273181 0.05258602 0.05244362 0.0522964 0.05213887 0.05196673 0.05177601 0.05156868 0.05134343 0.05110822
 0.05086377 0.05062012 0.05037921 0.05014047 0.04990438 0.04965517 0.04939205 0.04910022 0.04878054 0.04843263
 0.04805847 0.04766609 0.04725687 0.04683873 0.0464119 0.04598174 0.04554447 0.04509822 0.04463713 0.04415328
 0.0436494 0.0431222 0.04258482 0.04204195 0.04150326 0.04097342 0.0404525 0.03994136 0.03943825 0.03894337
 0.03845254 0.03796574 0.03747105 0.03696779 0.03644338 0.03589789 0.03532642 0.03472945 0.03410621 0.03345738
 0.03278326 0.03208699 0.03137358 0.03064829 0.02991955 0.02919237 0.02847411 0.02776763 0.0270777 0.02640186
 0.02574146 0.02508835 0.02443989 0.02379299 0.02314532 0.02250505 0.02187284 0.02125577 0.02065467 0.02006503
 0.01948663 0.0189144 0.01834936 0.01779724 0.01726007 0.01674991 0.01626736 0.01582114 0.01540879 0.01503091
 0.01468182 0.01435398 0.01404396 0.01374411 0.01345906 0.01318942 0.01293983 0.01271502 0.01250693 0.01231566
 0.01212686 0.01193729 0.01174084 0.01153595 0.01132409 0.01110522 0.01088131 0.01065261 0.01042504 0.01019929
 0.009984126 0.0097794 0.009588962 0.009412339 0.009249881 0.009101944 0.008970499 0.008852884 0.008747818 0.008648633
 0.008547543 0.008443773 0.008332054 0.008222284 0.008117275 0.008025688 0.007952092 0.007894142 0.007852849 0.007820305
 0.007795495 0.007774455 0.007756689 0.007743788 0.007735828 0.007734735 0.007740244 0.007750393 0.007765664 0.007785907
 0.00781446 0.007861312 0.007928082 0.008026431 0.008146315 0.00828215 0.00841564 0.00852602 0.00860633 0.008641843
 0.008646171 0.008619875 0.008582683 0.008540756 0.008506309 0.008482908 0.008476151 0.00848735 0.008517777 0.00856788
 0.00863121 0.008707332 0.008786309 0.008868244 0.008949224 0.009030934 0.009119183 0.009215136 0.009326635 0.009450462
 0.009585752 0.009724554 0.009855676 0.009973153 0.01006535 0.01013591 0.01018178 0.01021448 0.01023791 0.01026247
 0.01029291 0.01033117 0.0103793 0.01043126 0.01048659 0.01053955 0.01058932 0.01064072 0.01069423 0.01076308
 0.01084706 0.01095101 0.01107171 0.01119683 0.01132313 0.01143334 0.01152933 0.01160537 0.01166753 0.01172257
 0.01177299 0.01182592 0.01187456 0.01191715 0.01194566 0.01195311 0.01194646 0.01192326 0.01190594 0.01189865
 0.01191774 0.01196735 0.0120422 0.0121427 0.01225196 0.01236921 0.01248175 0.01258959 0.01268752 0.012776
 0.01285409 0.01292256 0.01298307 0.01303666 0.01308565 0.01313218 0.01317912 0.01323124 0.01329423 0.01337116
 0.01346867 0.01357774 0.0136994 0.01381171 0.01390811 0.01397291 0.01399845 0.01399722 0.01396745 0.01394439
 0.01393066 0.01395205 0.01400922 0.01409689 0.01421303 0.0143363 0.01446671 0.01459271 0.01471689 0.01484144
 0.0149678 0.01510026 0.01523825 0.01538286 0.01553293 0.01568735 0.01584644 0.01600924 0.01617924 0.01635871
 0.01654658 0.01674616 0.01694025 0.01712698 0.01728565 0.01741152 0.01750769 0.0175731 0.0176334 0.01768973
 0.01775969 0.01784251 0.01793722 0.01804333 0.01815782 0.01828197 0.01841855 0.01856801 0.01873372 0.01891276
 0.01910442 0.01930012 0.01949223 0.01967078 0.01982388 0.01995564 0.02006227 0.02016034 0.02025665 0.02035191
 0.02045025 0.02053139 0.02059199 0.02062712 0.02063487 0.02064057 0.02064544 0.02067182 0.0207186 0.02078338
 0.02086362 0.02094558 0.02102811 0.02109987 0.02116274 0.02121285 0.02125852 0.02130925 0.02137425 0.02146935
 0.02158993 0.02174067 0.02190508 0.02207614 0.02224344 0.02240075 0.02254957 0.02268855 0.02282397 0.02295634
 0.023092 0.02323174 0.02337525 0.02352242 0.02366498 0.02380318 0.02393593 0.02406535 0.0242026 0.0243477
 0.02450652 0.02467787 0.02486003 0.02505724 0.02527537 0.02551686 0.02579029 0.02608385 0.02639393 0.02670388
 0.0270047 0.02728643 0.02754522 0.02776998 0.02795812 0.02809945 0.02819034 0.02824158 0.02825283 0.02825133
 0.02823848 0.02823772 0.02824989 0.02829277 0.02836525 0.02847388 0.02861165 0.02875979 0.02891234 0.02904339
 0.02916086 0.02926478 0.02936532 0.0294785 0.02959354 0.02971137 0.02980931 0.02987465 0.02989974 0.02987635
 0.02981636 0.02971829 0.02960823 0.02948752 0.02939439 0.02933246 0.02932416 0.0293702 0.0294495 0.02955914
 0.02965908 0.02975025 0.02981566 0.02986106 0.02989535 0.02992495 0.02996948 0.03002885 0.03011642 0.03021557
 0.03031468 0.03039771 0.03043964 0.03046613 0.03047348 0.03052447 0.03064958 0.03084343 0.03112444 0.03138903
 0.03161933 0.03178868 0.03188976 0.03197626 0.03205052 0.03214295 0.03225176 0.0323671 0.03248584 0.03258649
 0.03266827 0.03271629 0.03273419 0.0327205 0.0326845 0.03264048 0.03259282 0.03255337 0.03251759 0.03248256
 0.03245533 0.03243585 0.03244093 0.03248047 0.03254576 0.03264052 0.03273146 0.0328132 0.03287102 0.03290188
 0.03292001 0.03292606 0.03293754 0.03295464 0.03298611 0.03302987 0.03308167 0.03313503 0.03316504 0.03316964
 0.03312586 0.03305064 0.03295878 0.03286855 0.03281176 0.03277816 0.03277132 0.03277576 0.03278119 0.03279068
 0.03280427 0.03282028 0.03283814 0.03285681 0.03287308 0.03291303 0.03297874 0.03308978 0.03324706 0.03343621
 0.03365682 0.03389961 0.03416569 0.03446068 0.03477799 0.03509985 0.03541597 0.03569241 0.03592836 0.03610692
 0.03623281 0.03630261 0.03632804 0.03631097 0.03627999 0.03624923 0.0362413 0.03627147 0.03633093 0.03642121
 0.03652718 0.03664604 0.03677515 0.03691525 0.03704521 0.03716383 0.03723543 0.03726156 0.03724917 0.03720538
 0.03717706 0.03716323 0.03718693 0.03723942 0.03731023 0.03739678 0.03749113 0.03759099 0.03769272 0.03778937
 0.03787223 0.03794515 0.03800647 0.03806582 0.03812842 0.0381906 0.0382526 0.03830965 0.03836074 0.03840658
 0.03844817 0.0384698 0.03847066 0.03843322 0.03835899 0.03826379 0.03814911 0.03803448 0.03791365 0.03777131
 0.0376096 0.03741861 0.03722094 0.03704956 0.03691844 0.03686401 0.03686573 0.03692673 0.03700315 0.03707774
 0.03710159 0.03705248 0.03690505 0.03664019 0.03629895 0.03587849 0.03546777 0.03507584 0.03475106 0.03449642
 0.03428425 0.03411202 0.03393942 0.03376753 0.03358446 0.03338972 0.03317571 0.0329402 0.03267089 0.03237463
 0.03205316 0.03172385 0.03140453 0.03111486 0.03087762 0.03069749 0.03059136 0.03052569 0.03049775 0.0304548
 0.03037962 0.03026031 0.03008804 0.02989804 0.02969293 0.02949875 0.0293171</values></Ydata></AB><ScSm><Ydata ylabel="Single channel"><values byteorder="INTEL" format="FLOAT32" numvalues="1814"> 0.06817145 0.06816956 0.06822833 0.06837244 0.0685779 0.06878362 0.06893303 0.06901109 0.06903443 0.06901228
 0.06894955 0.06889064 0.06891626 0.06906866 0.06929521 0.06948106 0.06954087 0.06949502 0.06945986 0.06952943
 0.06964548 0.06961326 0.06928692 0.06874047 0.06822146 0.06792425 0.0678695 0.06804879 0.06854455 0.06929772
 0.06984952 0.06967002 0.06882279 0.06799315 0.06773007 0.06792334 0.06812058 0.06804974 0.06770238 0.06723708
 0.06703293 0.06758614 0.06902206 0.07069483 0.07142192 0.07023014 0.06704709 0.06292543 0.05966017 0.05882766
 0.06067142 0.06377603 0.06613031 0.06673473 0.06608415 0.06515373 0.06435125 0.06363488 0.06318411 0.06344144
 0.06449643 0.06566893 0.0658567 0.06447391 0.06214773 0.06028019 0.05977216 0.06045369 0.06182675 0.06361325
 0.06499416 0.06416865 0.0601181 0.05485513 0.05253573 0.05550824 0.06180668 0.06707813 0.0684619 0.06619197
 0.06232771 0.05904185 0.05780781 0.05900612 0.06185136 0.0650472 0.06757461 0.06873964 0.06800112 0.06543898
 0.06221202 0.05999328 0.05994031 0.06224377 0.06609014 0.06973211 0.07127977 0.07009812 0.06723201 0.0643006
 0.06242899 0.06225101 0.0640671 0.06752614 0.07161023 0.07523188 0.0776793 0.07867263 0.07841437 0.07746778
 0.07633227 0.07535673 0.07503699 0.07571249 0.07676591 0.07685755 0.0753863 0.07329634 0.07210518 0.0723322
 0.07308378 0.07313847 0.07218222 0.07060491 0.06828849 0.06458561 0.05979783 0.05557311 0.05326024 0.05288238
 0.054115 0.05681058 0.05984097 0.0610206 0.0594888 0.05724671 0.05717137 0.05994741 0.06370376 0.0663038
 0.06732491 0.06792725 0.06934718 0.07162857 0.07345917 0.0731656 0.07037959 0.06697752 0.06575871 0.06769684
 0.07099756 0.07329795 0.07415488 0.074792 0.0759618 0.07678616 0.07567455 0.07221572 0.06820185 0.06652535
 0.06865937 0.07318312 0.07681186 0.07682662 0.07290307 0.06719152 0.06264171 0.06095991 0.06214339 0.06559873
 0.07080038 0.0767042 0.08147773 0.08352648 0.0826569 0.07998401 0.07666016 0.07281019 0.06813356 0.06367218
 0.06203449 0.06493026 0.07098417 0.07688031 0.08032395 0.08119155 0.08024117 0.07769185 0.07343341 0.06839798
 0.0650183 0.06534086 0.06856236 0.0714779 0.07183711 0.07039937 0.06929234 0.0693556 0.069822 0.0699483
 0.0700772 0.07105254 0.07301562 0.07507866 0.07618564 0.0760753 0.07532798 0.07468116 0.07435727 0.07390807
 0.07284912 0.07163115 0.0715853 0.07346947 0.0764277 0.07886901 0.08006154 0.08039783 0.08033708 0.07959907
 0.07757853 0.07449663 0.07186741 0.07137771 0.07325588 0.07612681 0.07843825 0.07957733 0.07972621 0.07929891
 0.07865961 0.07800201 0.07741155 0.07712495 0.07747427 0.07841101 0.07939266 0.0799292 0.07998878 0.07975352
 0.07926667 0.07850073 0.07760975 0.07693996 0.07678062 0.07714492 0.0778072 0.07850607 0.07903966 0.07923079
 0.07899044 0.07845223 0.0778919 0.07747534 0.07720219 0.07708279 0.07719773 0.07754107 0.07794242 0.07821374
 0.07830006 0.07824914 0.0781031 0.07787084 0.07757476 0.07728741 0.07711762 0.07713887 0.07730696 0.07748669
 0.07760052 0.07770017 0.077836 0.07792407 0.07783561 0.0775796 0.07730795 0.07715446 0.07713218 0.07717364
 0.07720213 0.07714236 0.07691675 0.07651187 0.07606468 0.07581238 0.07590342 0.07628915 0.07680857 0.07730654
 0.07766095 0.0778054 0.07778212 0.07770275 0.0776194 0.07748485 0.07725675 0.07699892 0.07686038 0.0769578
 0.0772692 0.07764645 0.07793909 0.07808907 0.07811918 0.07809605 0.07811029 0.07821137 0.07833578 0.07836524
 0.078276 0.0781755 0.07817464 0.07826416 0.0783342 0.07830039 0.07819898 0.07814895 0.07822192 0.07837485
 0.07851829 0.0786193 0.07871416 0.07883607 0.07894939 0.07896782 0.07885027 0.07866587 0.07852964 0.07848325
 0.07848467 0.07850702 0.07858272 0.07873106 0.07889403 0.07898448 0.07898237 0.07895195 0.078958 0.07898626
 0.07896544 0.07885715 0.07870014 0.07856783 0.07850429 0.07850364 0.07852899 0.07853945 0.07850876 0.07843339
 0.07832963 0.0782198 0.07811715 0.07803014 0.07798462 0.07802038 0.0781389 0.0782618 0.07827497 0.078132
 0.07790399 0.07771514 0.07762954 0.07760423 0.07754873 0.07741718 0.07723784 0.07706836 0.0769432 0.07685971
 0.07679398 0.07672627 0.0766674 0.07666363 0.07675514 0.07691517 0.07704704 0.0770649 0.07697432 0.07685885
 0.07679622 0.07680462 0.07685618 0.07691658 0.07697675 0.07705992 0.07718528 0.0773202 0.07739912 0.0774028
 0.07738729 0.07742362 0.07754087 0.0777289 0.07794897 0.07813309 0.07822274 0.07823119 0.07823627 0.07829802
 0.07840952 0.07853378 0.07865518 0.07877895 0.07890689 0.07903957 0.07919447 0.07940059 0.07966839 0.0799692
 0.08024719 0.0804565 0.08059869 0.08073065 0.08092771 0.08122635 0.08159536 0.0819617 0.08226804 0.08251256
 0.08273528 0.08296742 0.08320594 0.08344486 0.08370954 0.0840326 0.08440581 0.08478462 0.08513868 0.08547479
 0.08581239 0.08615825 0.08650991 0.08687196 0.08726096 0.08768789 0.08812858 0.08852217 0.08881845 0.08902986
 0.0892278 0.08948947 0.08984558 0.09025547 0.09062369 0.09087144 0.09101817 0.09117199 0.09141371 0.09171316
 0.09199066 0.09223706 0.09252437 0.09290016 0.09331635 0.09368099 0.09395538 0.09418133 0.0944216 0.09468815
 0.09493198 0.09510253 0.09521005 0.09531615 0.09546649 0.09565872 0.09588481 0.09616841 0.09652827 0.09692588
 0.09728551 0.09756073 0.09775755 0.09790565 0.09803345 0.09816033 0.09828874 0.0984093 0.09852384 0.09864599
 0.09877077 0.09887399 0.09895699 0.09906232 0.09922646 0.09944592 0.09970757 0.1000172 0.1003692 0.1007188
 0.1010279 0.1013252 0.101674 0.1020737 0.1024357 0.1026789 0.1028132 0.1029027 0.1029846 0.103069
 0.1031905 0.1034001 0.1037038 0.1040523 0.1043968 0.1047241 0.105037 0.1053277 0.1055788 0.1057753
 0.105911 0.1059951 0.1060564 0.1061407 0.1062944 0.1065369 0.1068393 0.1071366 0.1073708 0.1075145
 0.1075552 0.1074863 0.107336 0.1071799 0.107085 0.1070353 0.1069357 0.1066908 0.1062657 0.1056741
 0.1049377 0.1040779 0.1031388 0.1021987 0.1013495 0.1006642 0.100187 0.09995446 0.1000067 0.1003531
 0.1009256 0.1015858 0.1021897 0.1026286 0.1028134 0.1026639 0.1021534 0.1013471 0.1003688 0.09933371
 0.09831744 0.09735581 0.09644742 0.09557937 0.09478875 0.09420028 0.09398694 0.09429278 0.09518541 0.096642
 0.09854011 0.1006651 0.1027679 0.1046558 0.106252 0.1075802 0.1087095 0.1097151 0.1106611 0.1115762
 0.1124409 0.1132202 0.1139123 0.1145493 0.1151537 0.1157143 0.1162008 0.1165852 0.1168571 0.1170337
 0.117148 0.1172162 0.1172309 0.1171914 0.1171185 0.117024 0.1168789 0.1166213 0.1161909 0.1155615
 0.1147713 0.1139504 0.1133312 0.1132121 0.1138518 0.1153257 0.1174536 0.1198799 0.1222438 0.1242971
 0.1259235 0.127121 0.1279802 0.128636 0.1292004 0.1297297 0.130238 0.1307224 0.131177 0.1316029
 0.1320117 0.1324212 0.1328453 0.1332842 0.1337165 0.1341093 0.1344507 0.1347726 0.1351307 0.1355546
 0.1360179 0.1364614 0.1368513 0.1372078 0.137567 0.1379264 0.1382511 0.1385304 0.1387987 0.1391
 0.1394534 0.1398514 0.1402657 0.1406516 0.1409733 0.1412337 0.1414697 0.1417156 0.1419819 0.1422646
 0.1425591 0.1428609 0.1431652 0.1434734 0.1437955 0.1441334 0.1444617 0.1447404 0.1449557 0.1451378
 0.145332 0.1455581 0.1458035 0.1460484 0.1462927 0.14656 0.1468729 0.1472216 0.1475602 0.1478419
 0.1480578 0.1482385 0.1484241 0.1486368 0.1488789 0.1491417 0.1494118 0.1496744 0.1499225 0.1501645
 0.1504152 0.1506788 0.1509453 0.1512049 0.151458 0.1517098 0.151959 0.1522015 0.1524426 0.1527009
 0.1529929 0.1533107 0.153621 0.1538895 0.154107 0.1542903 0.1544633 0.1546438 0.1548423 0.1550637
 0.155305 0.1555568 0.1558094 0.1560579 0.1563032 0.1565496 0.1568013 0.1570573 0.1573101 0.1575533
 0.157792 0.1580397 0.1583014 0.1585658 0.1588185 0.1590581 0.1592937 0.1595306 0.1597668 0.1599997
 0.1602298 0.1604585 0.1606871 0.160916 0.1611444 0.1613715 0.1615986 0.1618284 0.1620614 0.162296
 0.1625299 0.1627626 0.1629944 0.1632253 0.163456 0.1636899 0.1639303 0.1641743 0.1644132 0.1646431
 0.1648692 0.1650986 0.165334 0.165574 0.1658158 0.1660546 0.1662851 0.1665043 0.1667121 0.1669132
 0.1671171 0.1673322 0.1675602 0.1677975 0.1680399 0.1682817 0.1685173 0.1687473 0.1689787 0.1692167
 0.1694608 0.1697071 0.1699497 0.1701854 0.170417 0.1706492 0.1708814 0.1711108 0.1713389 0.1715699
 0.1718067 0.1720496 0.1722969 0.1725445 0.1727867 0.1730179 0.1732337 0.1734358 0.1736344 0.1738387
 0.17405 0.1742664 0.1744869 0.1747086 0.1749281 0.1751484 0.1753743 0.1756038 0.1758314 0.1760545
 0.1762745 0.1764966 0.1767279 0.1769691 0.1772133 0.1774567 0.1777012 0.1779448 0.1781826 0.1784166
 0.1786521 0.1788893 0.1791268 0.1793654 0.1796036 0.17984 0.1800779 0.1803195 0.1805615 0.1808032
 0.1810475 0.1812911 0.1815275 0.1817563 0.1819799 0.1822003 0.1824258 0.1826642 0.1829082 0.1831448
 0.1833745 0.1836047 0.1838349 0.1840644 0.1842969 0.1845324 0.1847678 0.1850047 0.1852411 0.185471
 0.1856981 0.1859311 0.1861666 0.1863988 0.1866352 0.1868803 0.1871226 0.1873529 0.1875722 0.1877701
 0.1879042 0.1878609 0.1873599 0.1858481 0.1824818 0.1762847 0.1665239 0.153161 0.1370278 0.1195387
 0.1021713 0.08607239 0.07193105 0.06005736 0.05053158 0.04330433 0.03825469 0.03528075 0.03439489 0.03582909
 0.04015672 0.04795398 0.05850478 0.06865434 0.07403463 0.07250536 0.06619321 0.05955111 0.05566324 0.0547601
 0.05553897 0.05688154 0.05843114 0.0603919 0.06311226 0.06667781 0.07089607 0.07574259 0.08158289 0.08870435
 0.09674674 0.104852 0.1124105 0.1195379 0.1267807 0.1344438 0.1422658 0.149679 0.1562626 0.1619478
 0.1669212 0.1714247 0.1756202 0.1795749 0.1833197 0.1868581 0.1900839 0.192734 0.1945134 0.1953256
 0.1953881 0.1951111 0.1948532 0.1947806 0.1949053 0.1951913 0.19561 0.1961443 0.1967838 0.1975131
 0.1983029 0.1991218 0.19995 0.2007704 0.2015583 0.2022915 0.2029626 0.2035737 0.2041307 0.2046421
 0.2051142 0.2055487 0.2059502 0.2063292 0.2066941 0.2070456 0.2073819 0.207702 0.2080028 0.2082811
 0.2085364 0.2087724 0.2089952 0.209211 0.2094219 0.2096277 0.2098313 0.2100387 0.2102515 0.2104648
 0.210672 0.210867 0.2110471 0.2112192 0.2113995 0.2116005 0.211818 0.2120359 0.2122422 0.2124365
 0.2126266 0.2128198 0.2130169 0.2132133 0.2134064 0.2135982 0.2137915 0.2139867 0.2141809 0.2143711
 0.2145597 0.214757 0.2149703 0.2151929 0.2154135 0.21563 0.2158457 0.2160588 0.2162676 0.2164778
 0.2166891 0.2168849 0.2170492 0.2171941 0.2173558 0.2175612 0.2177993 0.2180339 0.2182422 0.218432
 0.2186206 0.2188128 0.2190038 0.2191879 0.2193642 0.2195475 0.219763 0.2200151 0.2202771 0.2205256
 0.2207626 0.2209971 0.2212319 0.2214727 0.2217169 0.2219359 0.2221007 0.2222301 0.2223928 0.222655
 0.223019 0.2234109 0.2237415 0.2239853 0.2241876 0.224407 0.2246726 0.2249603 0.2251757 0.2252203
 0.2251389 0.2251446 0.2254243 0.2259505 0.2265362 0.2270276 0.2273999 0.227706 0.2279873 0.2282323
 0.228389 0.2284225 0.2283838 0.228426 0.2287006 0.2292036 0.2297643 0.2302188 0.2305402 0.2307811
 0.2309822 0.2311655 0.231294 0.2312184 0.2308305 0.2303385 0.230217 0.2307526 0.231725 0.2326434
 0.2332322 0.2335781 0.233862 0.2341287 0.2343358 0.234398 0.2340789 0.2331271 0.2317747 0.2308752
 0.2311966 0.2326435 0.2344085 0.2357776 0.236575 0.2369789 0.2372148 0.2374117 0.2375062 0.2372374
 0.2364387 0.2354414 0.2349969 0.2355779 0.2368419 0.238001 0.2386305 0.2388914 0.239101 0.2393791
 0.2395696 0.2392036 0.2377651 0.2354515 0.233553 0.233546 0.2356524 0.2385759 0.2407844 0.2418253
 0.2422092 0.242288 0.2417341 0.2401323 0.2376054 0.2347625 0.2325165 0.231961 0.233645 0.2366678
 0.2391888 0.2402387 0.2405343 0.2412802 0.2427267 0.2441686 0.2448725 0.244652 0.2437364 0.2423574
 0.2406402 0.2389927 0.238337 0.239452 0.2420298 0.244784 0.2466418 0.2475618 0.2479737 0.2475189
 0.2447939 0.2390355 0.2322325 0.2285801 0.2307749 0.2371924 0.2436338 0.2474605 0.2490443 0.2497906
 0.2502552 0.2499914 0.2478071 0.2424107 0.2344332 0.227709 0.2266853 0.232023 0.2398532 0.2453959
 0.2462218 0.2425104 0.2361904 0.2303661 0.2280469 0.2303192 0.2358734 0.2423052 0.247562 0.2504936
 0.2508282 0.2490686 0.2464659 0.2447141 0.2447195 0.2452587 0.2439073 0.2401029 0.2360838 0.2336029
 0.2312123 0.2269404 0.2226234 0.2226912 0.2284106 0.2357672 0.2399769 0.2403343 0.2393485 0.238179
 0.2346518 0.2263843 0.2152808 0.2076262 0.208586 0.2168433 0.2257739 0.2299298 0.2293663 0.2277035
 0.2272891 0.2268232 0.2232322 0.2157102 0.2077442 0.2041908 0.2061214 0.209867 0.2113584 0.2093759
 0.204118 0.1958812 0.1873886 0.1846278 0.1917787 0.2060637 0.2199246 0.2272453 0.2255768 0.2147551
 0.1977368 0.1823769 0.1776111 0.1854569 0.1985651 0.206988 0.2060709 0.197255 0.1838138 0.1686245
 0.155519 0.1496642 0.1544428 0.1680402 0.1835638 0.1924889 0.1893413 0.175928 0.1616987 0.1569461
 0.1634557 0.1732921 0.1777076 0.1750836 0.1696739 0.1660826 0.1665933 0.1708469 0.1762458 0.1803608
 0.1828691 0.1828815 0.1763294 0.1608745 0.1425105 0.1316534 0.132316 0.1400087 0.1500789 0.1618883
 0.1734355 0.1784944 0.1736351 0.1647519 0.1620718 0.16931 0.1804841 0.1872347 0.1871084 0.184031
 0.182224 0.1816767 0.1802742 0.1787297 0.1807432 0.1878994 0.1968732 0.2031194 0.2055831 0.2062968
 0.2069238 0.2074939 0.2075638 0.2069725 0.2057812 0.2043888 0.2033986 0.2029272 0.2024919 0.201721
 0.2003328 0.1970877 0.1900798 0.1794845 0.1692684 0.1640741 0.1643298 0.1665785 0.1685719 0.1705639
 0.1705768 0.1630782 0.1462767 0.1280927 0.1203971 0.127554 0.1431818 0.1574262 0.1645051 0.1632133
 0.1539798 0.1390412 0.124815 0.1199258 0.1282006 0.1450086 0.162215 0.1751704 0.1832533 0.186029
 0.1824481 0.1736685 0.1641861 0.1592864 0.1618361 0.1710035 0.1825209 0.1897577 0.1869397 0.1748918
 0.1636828 0.1652206 0.1807087 0.19861 0.2076139 0.2081255 0.207702 0.2093032 0.2098042 0.208257
 0.2092205 0.2164804 0.2274387 0.2356513 0.2364808 0.2289243 0.2149915 0.2001494 0.1919335 0.1939534
 0.2018503 0.2080912 0.2092931 0.2057816 0.1971308 0.1840894 0.1733807 0.1736411 0.1853945 0.1998718
 0.2089856 0.2127125 0.2154563 0.2184601 0.2182973 0.2120742 0.2022689 0.1952112 0.194819 0.1991591
 0.2036969 0.2060658 0.2061255 0.2032781 0.1968325 0.1890195 0.1850117 0.1884429 0.1976522 0.2072396
 0.2128922 0.2140798 0.21278 0.2109249 0.2091068 0.2067351 0.2033195 0.200138 0.1999953 0.2042068
 0.2104668 0.2151921 0.2176122 0.2200349 0.2242139 0.2289341 0.2315024 0.2307048 0.2279736 0.226145
 0.2271836 0.2306148 0.2338682 0.2344647 0.2323713 0.2302484 0.2309969 0.2349924 0.2400444 0.2438817
 0.2460004 0.2471864 0.2481778 0.2490255 0.2490607 0.2474016 0.2442093 0.2414265 0.2414059 0.2445762
 0.249033 0.2525042 0.2541792 0.2545826 0.2543384 0.2535189 0.2520186 0.2501501 0.2486377 0.2480552
 0.2484201 0.2493526 0.2504582 0.2514901 0.252325 0.2529486 0.2534228 0.2537984 0.2540881 0.2543215
 0.2545385 0.2547104 0.2547633 0.2547246 0.254755 0.2549669 0.2552703 0.2554689 0.2554455 0.2551694
 0.2545848 0.2536277 0.2523485 0.2508938 0.2493337 0.2476168 0.2457994 0.2442793 0.2436708 0.2443483
 0.2461047 0.2482819 0.2502253 0.2516103 0.2524292 0.252815 0.2529249 0.2529016 0.2528434 0.2527826
 0.2527038 0.2525873 0.2524289 0.2522333 0.2520097 0.251785 0.2516013 0.2514875 0.251432 0.2513865
 0.2512904 0.2511005 0.2508142 0.2504668 0.2500942 0.2496918 0.249214 0.2486117 0.2478726 0.2470357
 0.2461764 0.2453662 0.2446232 0.2438982 0.243119 0.2422495 0.2412808 0.2401787 0.2388989 0.2374826
 0.2360811 0.2348337 0.2337439 0.2326992 0.2315806 0.2303292 0.2289472 0.2274772 0.2259703 0.2244551
 0.2229335 0.2213994 0.2198465 0.2182646 0.2166425 0.2149745 0.2132597 0.2114982 0.2096917 0.2078439
 0.2059456 0.2039458 0.2017386 0.1991929 0.1962003 0.1927005 0.1886878 0.1842247 0.1794495 0.1745479
 0.1697035 0.1650678 0.1607599 0.1568832 0.1535313 0.150775 0.1486493 0.1471637 0.1463181 0.1461052
 0.1465051 0.147488 0.149004 0.1509618 0.1532264 0.1556391 0.1580345 0.160264 0.1622475 0.1640139
 0.1656682 0.1672978 0.1689105 0.1704583 0.1719041 0.1732433 0.1744677 0.1755462 0.1764586 0.177223
 0.1778733 0.1784317 0.1789166 0.1793522 0.1797562 0.1801311 0.1804754 0.1807944 0.1811033 0.1814257
 0.1817816 0.1821778 0.1826171 0.1831173 0.1837092 0.1844113 0.1852084 0.1860605 0.1869363 0.1878393
 0.1887921 0.1898071 0.1908913 0.1920694 0.1933768 0.194831 0.1964245 0.1981324 0.1999093 0.2016858
 0.2033812 0.2049217 0.2062568 0.207371 0.2082777 0.2090018 0.2095695 0.2100077 0.2103356 0.2105621
 0.2106974 0.2107566 0.2107454 0.2106574 0.2104837 0.2102187 0.2098688 0.2094633 0.2090404 0.2086144
 0.2081731 0.2077109 0.2072452 0.2068027 0.2064023 0.2060456 0.2057106 0.2053645 0.2049858 0.2045704
 0.2041216 0.20364 0.2031113 0.2024999 0.2017714 0.2009214 0.1999683 0.1989216 0.1977746 0.1965227
 0.1951737 0.1937431 0.1922396 0.1906564 0.188985 0.1872327 0.185412 0.1835202 0.1815587 0.1795705
 0.1776302 0.1757972 0.1740932 0.1725101 0.171019 0.1695844 0.1681876 0.1668324 0.1655301 0.1642913
 0.1631276 0.1620435 0.1610292 0.1600705 0.1591669 0.1583369 0.1576017 0.1569599 0.1563832 0.1558483
 0.1553662 0.154967 0.1546699 0.1544817 0.1544032 0.1544137 0.1544598 0.1544746 0.1544095 0.1542558
 0.1540486 0.1538434 0.1536782 0.1535571 0.1534616 0.1533556 0.153179 0.1528538 0.1522951 0.1514253
 0.1502064 0.148673 0.1469239 0.1450835 0.1432774 0.1416156 0.1401706 0.1389765 0.138042 0.1373397
 0.1367932 0.1363228 0.1359131 0.1356186 0.1355049 0.1355786 0.1357486 0.1358717 0.1358788 0.1358514
 0.1359502 0.1362784 0.1368185 0.137459 0.1380666 0.138562 0.1389392 0.1392105 0.1393691 0.1394187
 0.1393932 0.1393196 0.1391937 0.1390016 0.1387409 0.138421 0.1380515 0.1376253 0.1371175 0.1365123
 0.135815 0.1350349 0.1341817 0.1332637 0.1322505 0.1310871 0.1298172 0.12866 0.1278977 0.1276961
 0.1280292 0.128718 0.1295478 0.1303931 0.1311911 0.1317861 0.1319742 0.1318442 0.131945 0.1328917
 0.1347762 0.137057 0.1390338 0.1403395 0.1409749 0.1410463 0.1406183 0.1397318 0.1383951 0.1365847
 0.1343414 0.1317985 0.1290745 0.1262627 0.1235267 0.1210596 0.1189655 0.1172679 0.1159546 0.1150385
 0.1146202 0.114364 0.1125563 0.1069742 0.09830574 0.09174159 0.09265001 0.1005499 0.1094068 0.1140171
 0.1141776 0.1126084 0.1112059 0.11027 0.1097208 0.1096991 0.1103182 0.1114324 0.1126649 0.1136355
 0.1142068 0.1144393 0.1142969 0.1134341 0.1111694 0.1067232 0.09983999 0.09133933 0.08283462 0.07578918
 0.07086584 0.06795391 0.06648134 0.06574277 0.06525096 0.06495784 0.06514147 0.06607334 0.06779388 0.07016449
 0.07301989 0.07614936 0.07918955 0.08175302 0.08372091 0.08525656 0.08650097 0.08740263 0.0878564 0.08785994
 0.08750576 0.08692043 0.08622719 0.08549552 0.08469324 0.0837225 0.08256525 0.08140758 0.0805431 0.08010684
 0.07997596 0.07995544 0.07995321 0.07995262 0.07994309 0.07992195 0.07989608 0.07989313 0.08000342 0.08032569
 0.08082038 0.08130081 0.08160798 0.08173901 0.08179931 0.08184845 0.08177695 0.08140119 0.08075878 0.0801621
 0.07977974 0.07933098 0.07846349 0.07732464 0.07647912 0.07629345 0.07660852 0.07699293 0.07713801 0.07700532
 0.07677393 0.07673531 0.07710393 0.07776834</values></Ydata></ScSm><ScRf><Ydata ylabel="Single channel"><values byteorder="INTEL" format="FLOAT32" numvalues="1820"> 0.06044944 0.06060497 0.06069162 0.06071453 0.06070587 0.06071468 0.06078573 0.06093266 0.06112659 0.06131152
 0.06144046 0.06150469 0.06152165 0.06149949 0.06144121 0.06138646 0.06140857 0.06154447 0.06174367 0.06190149
 0.06194479 0.06189784 0.06186839 0.0619396 0.06205538 0.06203753 0.06175388 0.06127188 0.06081511 0.06055719
 0.06051283 0.06067102 0.06110758 0.06177609 0.06226988 0.06211206 0.06135517 0.06061195 0.06037556 0.06054857
 0.06072628 0.06066481 0.06035524 0.05993927 0.05975942 0.06026379 0.06156243 0.0630676 0.06371059 0.06261858
 0.05973636 0.05602061 0.05308709 0.05234604 0.05400988 0.05680789 0.05893909 0.05950766 0.05895229 0.05813814
 0.05742252 0.05676695 0.05634189 0.05655902 0.05750657 0.05856674 0.0587343 0.05747727 0.05537087 0.0536898
 0.05324391 0.05386851 0.05510737 0.05671011 0.057942 0.05718689 0.05353745 0.04881231 0.04674626 0.04943845
 0.05511153 0.05985243 0.0610946 0.05905212 0.05558026 0.0526382 0.0515518 0.0526536 0.05522399 0.05809307
 0.06035167 0.0613859 0.06071583 0.05841552 0.0555239 0.05353945 0.05350025 0.0555792 0.05904488 0.06232364
 0.06371576 0.06265159 0.06006867 0.05742023 0.05572164 0.05555146 0.05718557 0.06030956 0.0640066 0.06729186
 0.06951234 0.07040733 0.07016283 0.06929832 0.06827357 0.06740507 0.06713425 0.06775825 0.06871538 0.06880008
 0.06747447 0.06558904 0.06450947 0.06470748 0.06538551 0.06544493 0.06459545 0.06317942 0.06109024 0.05775518
 0.05345825 0.04968517 0.04763818 0.04732411 0.04844861 0.05088502 0.05361874 0.05467818 0.0532914 0.05127019
 0.05120827 0.05371293 0.05708992 0.05941778 0.06032789 0.06087529 0.06217477 0.06425788 0.06592913 0.06566984
 0.06314934 0.06007358 0.05898051 0.06074771 0.06374618 0.0658404 0.06663768 0.06724878 0.06834906 0.06913561
 0.06816538 0.06506842 0.06147074 0.05999001 0.06195432 0.06607133 0.0693645 0.0693749 0.0658189 0.06065673
 0.05656435 0.0550809 0.05620069 0.05939473 0.0641965 0.06965781 0.07410435 0.07606976 0.07535587 0.0729643
 0.06995159 0.06644884 0.06219619 0.05815892 0.05673475 0.05948909 0.06514892 0.0706627 0.07392402 0.07482084
 0.07404225 0.07177296 0.06790021 0.06329684 0.06024235 0.06064843 0.06375617 0.06656751 0.06698756 0.06573495
 0.06479773 0.06495446 0.06548721 0.06571031 0.06595566 0.06701283 0.06900024 0.07107125 0.07222955 0.07223007
 0.07162346 0.07111553 0.07092275 0.07061109 0.06970997 0.06865833 0.06874591 0.07069916 0.0736811 0.07615221
 0.0774121 0.07784925 0.07790969 0.07731144 0.07545251 0.07254696 0.0700862 0.06973314 0.07171258 0.0746686
 0.07707141 0.07831934 0.07859516 0.07830593 0.07780553 0.07728381 0.07683051 0.07668267 0.07716411 0.0782226
 0.07932356 0.07998478 0.08016958 0.08004753 0.07965645 0.07897739 0.07817996 0.07761957 0.07758398 0.07808119
 0.07888316 0.07972737 0.08040757 0.08073817 0.08062077 0.08018444 0.07971042 0.07937746 0.07919724 0.07918623
 0.07942532 0.07990316 0.08043836 0.08083037 0.08101842 0.08105678 0.0810018 0.08087097 0.08068202 0.0804986
 0.08042825 0.0805466 0.08080527 0.08106494 0.08125935 0.08146275 0.08173361 0.08196616 0.08199695 0.08182071
 0.08160818 0.08152259 0.08158663 0.08171891 0.0818264 0.08182971 0.08165535 0.08129613 0.08089845 0.08071038
 0.0808867 0.08137889 0.08202224 0.08265301 0.08313404 0.08338363 0.08343658 0.08340672 0.08335453 0.08324422
 0.08304526 0.0828301 0.08275232 0.08293074 0.08334218 0.08382985 0.08422762 0.08446305 0.08455701 0.08459014
 0.0846715 0.08485295 0.08505048 0.08512379 0.08505297 0.08497131 0.08500494 0.08513196 0.08522268 0.08519428
 0.08510505 0.08509238 0.08522674 0.08544961 0.08565745 0.08581562 0.08597217 0.0861726 0.08637358 0.08645648
 0.08635262 0.08614263 0.08598233 0.08593701 0.08595302 0.08599134 0.0860992 0.08631234 0.08655518 0.08670282
 0.08672129 0.08669738 0.08672428 0.08679077 0.0868028 0.08669718 0.08650962 0.08633751 0.08625939 0.08628848
 0.08637732 0.08645374 0.08646458 0.08640213 0.08629751 0.08619024 0.0861043 0.08605653 0.08608258 0.0862262
 0.08647282 0.08670361 0.08676119 0.08659048 0.08630412 0.08608608 0.0860252 0.08604906 0.0860149 0.08584891
 0.08559357 0.0853413 0.08514944 0.08501765 0.08491889 0.08483556 0.08478055 0.08479574 0.08490956 0.08507268
 0.08515757 0.08506334 0.08481838 0.08455133 0.08436939 0.08429079 0.08427224 0.08426237 0.08424284 0.08424652
 0.08431455 0.08441724 0.08445869 0.08438694 0.08426133 0.08419103 0.08424487 0.08442365 0.08466117 0.08483934
 0.08486427 0.08475877 0.08464403 0.08461637 0.0846724 0.08475752 0.08484273 0.08493255 0.08502999 0.08512953
 0.08524153 0.08539785 0.08562023 0.08588777 0.08614193 0.08632733 0.08643636 0.08652227 0.08666435 0.08690678
 0.08722286 0.08753864 0.08779523 0.08799273 0.08817424 0.08836917 0.08856673 0.08875467 0.08896146 0.08922879
 0.08955199 0.08988161 0.09018172 0.09045905 0.09073631 0.09102318 0.09131914 0.09163274 0.09198999 0.09241091
 0.09286325 0.09325501 0.09350573 0.09362896 0.09372929 0.09392099 0.09424883 0.09465541 0.09500915 0.0952054
 0.09527425 0.09536016 0.0955644 0.09584154 0.09608893 0.09630225 0.09658195 0.09699076 0.09745903 0.09785115
 0.09810013 0.09825794 0.09842212 0.09862724 0.09881786 0.09893073 0.09898485 0.09906207 0.0992071 0.09939291
 0.09959759 0.09986147 0.1002265 0.1006531 0.1010446 0.1013394 0.1015439 0.1016911 0.1018035 0.1018845
 0.1019248 0.1019251 0.1019245 0.1019767 0.1020835 0.1021845 0.1022357 0.1022675 0.1023435 0.1024945
 0.1027167 0.1029996 0.1033181 0.1036203 0.1038741 0.1041221 0.1044401 0.1048221 0.1051532 0.1053296
 0.1053723 0.1053801 0.1054056 0.1054389 0.1054921 0.1056238 0.1058679 0.1061912 0.1065399 0.1068917
 0.1072476 0.1075995 0.1079167 0.1081524 0.1082673 0.1082653 0.108211 0.1082025 0.1083167 0.1085689
 0.1089089 0.1092575 0.1095523 0.1097608 0.1098609 0.1098451 0.1097625 0.1097238 0.109816 0.1100073
 0.1101632 0.1101591 0.1099578 0.1095845 0.1090701 0.1084434 0.1077588 0.1071008 0.1065524 0.1061628
 0.1059486 0.1059254 0.1061255 0.1065634 0.1071836 0.10787 0.1085121 0.1090341 0.109357 0.1093856
 0.1090758 0.108493 0.1077722 0.1070351 0.1063523 0.1057425 0.1051746 0.1046076 0.1040768 0.1037358
 0.1037811 0.1043308 0.1053674 0.1067562 0.1082897 0.1097459 0.110971 0.1119404 0.1127345 0.1134473
 0.1141239 0.1147794 0.1154361 0.1161036 0.1167434 0.1172973 0.1177561 0.1181668 0.1185709 0.1189647
 0.1193169 0.1196049 0.1198349 0.1200426 0.1202578 0.1204551 0.1205643 0.1205469 0.120441 0.1203125
 0.1201849 0.1200276 0.1197912 0.1194459 0.1190178 0.1186184 0.1184318 0.1186354 0.1192976 0.1203357
 0.1215788 0.1228773 0.1241439 0.1253045 0.1262638 0.1269566 0.1274096 0.12772 0.1279824 0.1282491
 0.1285376 0.1288444 0.129153 0.1294457 0.1297194 0.1299925 0.1302942 0.1306361 0.1309882 0.1312967
 0.1315377 0.1317518 0.1320141 0.1323645 0.1327672 0.1331453 0.1334617 0.1337527 0.1340672 0.1343895
 0.1346579 0.1348509 0.1350188 0.1352286 0.1355101 0.1358518 0.1362124 0.1365322 0.1367699 0.136941
 0.1371031 0.1373 0.1375328 0.1377819 0.1380355 0.138291 0.1385468 0.138806 0.1390819 0.1393815
 0.1396792 0.1399238 0.1400887 0.1402088 0.1403503 0.1405483 0.1407829 0.1410136 0.1412267 0.1414462
 0.1417059 0.1420074 0.1423085 0.1425558 0.1427306 0.1428612 0.1429933 0.1431559 0.1433512 0.1435648
 0.1437805 0.1439873 0.1441832 0.1443772 0.1445833 0.1448072 0.1450383 0.1452605 0.145468 0.1456678
 0.1458697 0.1460773 0.146293 0.1465289 0.1468007 0.1471023 0.1473953 0.1476368 0.147815 0.1479502
 0.1480699 0.1481945 0.1483369 0.1485024 0.1486888 0.1488902 0.1491006 0.1493121 0.1495184 0.1497184
 0.149915 0.1501117 0.150315 0.1505328 0.1507674 0.1510127 0.1512587 0.1514941 0.1517073 0.1518928
 0.1520589 0.1522247 0.152409 0.1526156 0.1528296 0.1530288 0.1532054 0.1533724 0.1535494 0.153745
 0.153953 0.154161 0.1543612 0.1545541 0.1547458 0.1549391 0.1551318 0.1553212 0.155508 0.1556962
 0.1558901 0.1560886 0.1562853 0.1564775 0.1566718 0.1568755 0.1570854 0.1572926 0.1574931 0.1576904
 0.1578889 0.1580904 0.1582942 0.1584996 0.1587066 0.1589142 0.1591202 0.159323 0.1595208 0.1597109
 0.1598941 0.1600783 0.1602718 0.160475 0.1606859 0.1609054 0.1611328 0.1613607 0.1615814 0.1617927
 0.1619951 0.162191 0.1623873 0.1625924 0.1628098 0.1630368 0.1632669 0.1634913 0.1637003 0.1638881
 0.1640579 0.1642215 0.1643912 0.1645686 0.1647473 0.1649255 0.1651082 0.1652971 0.1654883 0.1656802
 0.1658731 0.1660663 0.1662611 0.1664629 0.1666734 0.1668854 0.1670901 0.1672854 0.1674775 0.1676763
 0.1678872 0.1681051 0.1683207 0.1685307 0.1687357 0.168938 0.169143 0.1693541 0.1695636 0.1697616
 0.1699512 0.1701449 0.1703498 0.1705672 0.1707937 0.1710194 0.1712335 0.1714368 0.1716388 0.1718465
 0.1720617 0.1722814 0.1724998 0.1727174 0.1729411 0.1731672 0.1733796 0.1735725 0.1737593 0.173955
 0.1741654 0.1743906 0.1746253 0.1748591 0.175087 0.17531 0.1755254 0.1757315 0.1759344 0.1761396
 0.1763463 0.1765541 0.1767568 0.1769317 0.1770383 0.1769811 0.176504 0.1750802 0.1718982 0.1660237
 0.1567643 0.1440946 0.1288154 0.112274 0.09586544 0.08066109 0.06730109 0.05608135 0.04709091 0.0402902
 0.03555775 0.03278242 0.03196537 0.03332618 0.03741501 0.04478109 0.0547412 0.06430373 0.0693423 0.06785204
 0.0618642 0.0555952 0.05194917 0.05112517 0.05187918 0.05315082 0.05460417 0.05643608 0.05898338 0.06233554
 0.06631854 0.07091554 0.07647079 0.08324148 0.09086847 0.09853482 0.1056735 0.1124034 0.1192425 0.1264775
 0.1338645 0.1408735 0.1471089 0.1525009 0.1572177 0.1614831 0.165452 0.1691967 0.172756 0.1761326
 0.1792132 0.1817369 0.1834262 0.1841973 0.1842565 0.1839861 0.183725 0.1836355 0.1837378 0.1840068
 0.1844187 0.1849529 0.185591 0.1863129 0.1870864 0.1878753 0.1886574 0.1894226 0.1901614 0.1908653
 0.191525 0.1921244 0.1926518 0.1931186 0.193552 0.1939696 0.194375 0.1947683 0.1951491 0.1955119
 0.1958502 0.1961615 0.1964485 0.1967149 0.1969613 0.1971839 0.1973832 0.1975705 0.1977602 0.1979609
 0.1981762 0.1984068 0.1986457 0.1988797 0.1991 0.199308 0.1995117 0.1997174 0.1999223 0.2001163
 0.2002949 0.2004684 0.2006508 0.2008432 0.2010364 0.2012251 0.2014118 0.2015995 0.2017881 0.2019783
 0.2021725 0.2023731 0.2025765 0.2027731 0.2029598 0.2031497 0.2033593 0.2035877 0.2038179 0.2040361
 0.2042408 0.2044395 0.2046439 0.2048594 0.2050726 0.2052597 0.2054131 0.2055564 0.2057251 0.2059374
 0.2061798 0.2064207 0.206639 0.2068382 0.2070313 0.2072217 0.2074035 0.2075729 0.2077374 0.2079226
 0.2081553 0.2084307 0.2087115 0.2089695 0.2092088 0.2094408 0.2096683 0.209895 0.2101221 0.2103289
 0.2104875 0.2106086 0.2107555 0.2109988 0.2113493 0.211736 0.2120668 0.212312 0.2125154 0.2127372
 0.2130068 0.2132938 0.2134966 0.213519 0.2134168 0.2134099 0.2136812 0.2141988 0.2147777 0.2152643
 0.2156239 0.2159 0.2161429 0.2163602 0.2165109 0.2165555 0.2165356 0.2165941 0.216871 0.2173575
 0.2178912 0.2183224 0.2186301 0.2188621 0.2190506 0.2192151 0.219329 0.2192587 0.2188994 0.2184409
 0.2183315 0.2188445 0.2197698 0.220639 0.2211915 0.2215118 0.2217738 0.2220253 0.2222331 0.2223183
 0.2220496 0.2211743 0.219901 0.2190422 0.2193422 0.2207227 0.2224152 0.2237335 0.2245091 0.224916
 0.2251692 0.2253843 0.2254911 0.2252383 0.2244738 0.2235209 0.2231 0.2236649 0.2248911 0.2260205
 0.2266379 0.2268955 0.2271035 0.2273789 0.22757 0.2272288 0.2258676 0.2236791 0.2218975 0.2219314
 0.2239831 0.2267979 0.2289051 0.2298838 0.2302434 0.2303319 0.2298302 0.2283294 0.2259439 0.223259
 0.221144 0.2206334 0.2222456 0.225125 0.2275276 0.228542 0.2288553 0.2296065 0.2310207 0.2324191
 0.2331024 0.2328952 0.232022 0.2307109 0.2290823 0.2275248 0.226925 0.2280348 0.2305555 0.2332424
 0.2350585 0.2359655 0.2363818 0.2359666 0.233372 0.227867 0.2213652 0.2178918 0.2200278 0.2262122
 0.2324214 0.2361251 0.2376727 0.2384049 0.2388561 0.2386056 0.23652 0.2313676 0.2237547 0.2173537
 0.2164212 0.2215826 0.2291236 0.2344631 0.2352781 0.2317457 0.2257194 0.2201774 0.2180032 0.2202364
 0.2256236 0.2318562 0.2369539 0.2398062 0.2401594 0.2385072 0.2360537 0.2344238 0.2344848 0.2350587
 0.2338158 0.2302185 0.2264183 0.2240955 0.221857 0.2178128 0.2137391 0.2139052 0.2195274 0.2267311
 0.230903 0.2313657 0.2305356 0.229519 0.2262093 0.2183098 0.2076758 0.2004061 0.2015158 0.2097325
 0.2186335 0.22294 0.2227142 0.2214737 0.2214961 0.2214962 0.2184383 0.2115038 0.2041105 0.2010371
 0.2033283 0.2073589 0.2091225 0.2074164 0.2024175 0.1944111 0.1861229 0.1835319 0.1908155 0.205232
 0.2192799 0.2268706 0.2255283 0.2150309 0.1983085 0.1832705 0.1789465 0.1873795 0.2011386 0.2101641
 0.2097395 0.2012998 0.1881458 0.173226 0.1605241 0.1554249 0.1614762 0.176811 0.1941985 0.2045959
 0.2021154 0.1886413 0.1743291 0.1702942 0.1784391 0.1901072 0.1957833 0.19374 0.1886497 0.1855899
 0.1871334 0.1928964 0.1999303 0.2054946 0.2092438 0.2100775 0.2031672 0.1857528 0.1648151 0.1524829
 0.1534355 0.1624809 0.1742521 0.1880378 0.2015054 0.2073822 0.2016596 0.191204 0.1879227 0.1961215
 0.2088193 0.2162955 0.2157107 0.2116297 0.2089643 0.2077428 0.2055521 0.2031942 0.2048811 0.212428
 0.2220778 0.2286933 0.2310956 0.2315953 0.2320688 0.2325359 0.232491 0.2317604 0.2304133 0.228885
 0.2278525 0.2274706 0.2272239 0.2267074 0.2256035 0.2224859 0.2151241 0.2036209 0.1924139 0.1867611
 0.1871592 0.1897071 0.1919055 0.1941086 0.194099 0.1855744 0.1664746 0.1458054 0.1370823 0.1452678
 0.1630767 0.1792785 0.187299 0.185773 0.1751765 0.1580311 0.1415988 0.1356178 0.1443624 0.1625382
 0.1809365 0.1943733 0.2023048 0.2044309 0.1996882 0.1893614 0.1783618 0.1724294 0.1746269 0.1839793
 0.1958061 0.2029437 0.1992476 0.1856877 0.1730437 0.1739643 0.1897084 0.2080631 0.2170711 0.217143
 0.2162411 0.2175081 0.2176882 0.2157839 0.2165581 0.2239891 0.2354145 0.2441544 0.2453755 0.2380021
 0.2241109 0.2094332 0.2018654 0.2051035 0.214381 0.2216041 0.2231625 0.2194609 0.2101523 0.1961511
 0.1846994 0.1850079 0.1975871 0.2130498 0.2227791 0.2267726 0.2297245 0.2329435 0.2327765 0.2261613
 0.2157614 0.2083245 0.2080111 0.2127559 0.2177597 0.2205524 0.2209975 0.2183993 0.2119423 0.2039895
 0.2001194 0.2042662 0.214625 0.2253201 0.2316473 0.2330099 0.2315376 0.229318 0.226999 0.2239616
 0.2197054 0.2156476 0.2148514 0.218759 0.2248974 0.2294197 0.2315059 0.2336343 0.2376825 0.2423475
 0.2447419 0.2435474 0.2402633 0.2378937 0.2385342 0.2417074 0.2447195 0.2449606 0.2423931 0.2398261
 0.2403331 0.244323 0.2494862 0.2534157 0.2555616 0.2567397 0.2577297 0.2585962 0.2586412 0.2569354
 0.2536408 0.2507828 0.2508084 0.2541482 0.2588022 0.2624104 0.2641654 0.2646585 0.2645579 0.2639159
 0.2625678 0.2607746 0.2592446 0.2585698 0.258798 0.2595692 0.2604978 0.2613459 0.2620012 0.262452
 0.2627555 0.2629608 0.2630877 0.263173 0.2632519 0.2632849 0.2632029 0.2630612 0.2630492 0.2632805
 0.2636375 0.2638911 0.263908 0.2636608 0.2631032 0.2621731 0.2609184 0.259491 0.2579725 0.2563174
 0.2545815 0.2531677 0.252705 0.2535816 0.2555885 0.2580424 0.2602484 0.2618515 0.2628415 0.2633637
 0.2635815 0.2636337 0.2636134 0.2635471 0.2634128 0.2631904 0.2628926 0.2625487 0.2621787 0.2617959
 0.2614283 0.2611111 0.2608466 0.2605848 0.2602598 0.2598417 0.2593496 0.2588221 0.258281 0.2577113
 0.2570686 0.2563135 0.2554438 0.2545018 0.2535554 0.2526662 0.2518547 0.2510879 0.2503131 0.2494991
 0.2486246 0.2476457 0.2465333 0.245355 0.2442657 0.2433811 0.2426836 0.2420629 0.2414114 0.240665
 0.2398005 0.2388358 0.2378151 0.2367691 0.2356961 0.2345836 0.2334196 0.2321811 0.2308399 0.229391
 0.2278568 0.2262644 0.2246378 0.2229972 0.2213325 0.2195736 0.2176001 0.2152811 0.2124992 0.2091646
 0.2052442 0.2007971 0.195979 0.1910005 0.1860701 0.1813647 0.1770311 0.1731864 0.1699046 0.1672202
 0.1651589 0.1637568 0.163046 0.1630374 0.1637211 0.1650676 0.1670153 0.1694573 0.1722432 0.175199
 0.1781532 0.1809632 0.183548 0.1859144 0.1881328 0.1902534 0.1922504 0.1940642 0.1956746 0.1971
 0.1983444 0.1993893 0.200235 0.2009187 0.2014863 0.2019653 0.202369 0.2027157 0.2030285 0.2033186
 0.2035766 0.2037888 0.2039597 0.2041167 0.2042961 0.2045226 0.2047985 0.2051183 0.2054924 0.2059404
 0.2064595 0.2070193 0.2075929 0.2081757 0.2087742 0.2094022 0.2100927 0.2108946 0.2118498 0.212974
 0.2142503 0.2156294 0.2170385 0.2183921 0.2196009 0.2205884 0.2213163 0.2217934 0.222059 0.2221545
 0.2221076 0.2219322 0.2216421 0.2212609 0.2208126 0.2203069 0.2197429 0.2191259 0.2184699 0.2177849
 0.2170745 0.216349 0.2156313 0.2149415 0.2142776 0.2136202 0.2129602 0.2123116 0.211695 0.2111156
 0.2105619 0.210015 0.2094601 0.2088939 0.2083217 0.2077363 0.2071029 0.2063778 0.2055435 0.2046141
 0.203607 0.2025188 0.2013355 0.2000539 0.1986848 0.1972411 0.1957338 0.194174 0.192567 0.190896
 0.189121 0.1872108 0.1851858 0.1831259 0.1811311 0.1792726 0.177574 0.1760173 0.1745587 0.1731575
 0.1718032 0.1705096 0.1692819 0.1681076 0.1669779 0.1658982 0.1648774 0.1639194 0.1630291 0.1622182
 0.1615012 0.160883 0.1603509 0.1598853 0.1594793 0.1591405 0.1588831 0.1587268 0.158682 0.158719
 0.1587686 0.1587692 0.1587014 0.15858 0.1584361 0.1583059 0.1582116 0.1581501 0.1581015 0.1580315
 0.1578829 0.1575824 0.1570548 0.1562286 0.1550523 0.1535293 0.1517377 0.1498202 0.1479495 0.1462695
 0.1448484 0.1436961 0.1428089 0.1421618 0.1416816 0.1412869 0.1409604 0.1407584 0.1407542 0.1409542
 0.1412438 0.1414491 0.1414997 0.1415084 0.1416627 0.1420702 0.1427104 0.1434713 0.1442167 0.144859
 0.1453733 0.1457509 0.1459843 0.1460986 0.1461327 0.1460927 0.1459679 0.1457717 0.1455272 0.145241
 0.1449059 0.1445006 0.1439977 0.1433992 0.1427346 0.1420133 0.1412224 0.1403529 0.1393717 0.1382275
 0.1369735 0.1358405 0.1351187 0.1349842 0.1354226 0.1362526 0.1372475 0.1382847 0.1393061 0.1401308
 0.1405143 0.1405314 0.1407504 0.1418154 0.1438357 0.1462641 0.1483824 0.1498211 0.1505863 0.1507633
 0.1503877 0.1495071 0.1481521 0.1462854 0.1439159 0.1411714 0.1381934 0.1351149 0.1321541 0.1295388
 0.1273558 0.1255892 0.1242106 0.1232464 0.1228277 0.1226045 0.1207158 0.1147472 0.1054595 0.09848011
 0.09957511 0.108171 0.1177551 0.1227604 0.1229913 0.1213636 0.1198975 0.1189027 0.1182961 0.1182483
 0.1188958 0.1200797 0.1214019 0.1224727 0.1231387 0.1234317 0.1232956 0.1223697 0.1199361 0.1151603
 0.1077577 0.09858799 0.0893831 0.08174748 0.07642163 0.07328075 0.07169491 0.07090288 0.07037817 0.07006882
 0.07028899 0.07134351 0.07327177 0.07592238 0.07912134 0.0826285 0.08602312 0.08886665 0.09102516 0.09268528
 0.09402865 0.09502478 0.09555735 0.09561193 0.09528421 0.09469457 0.09395221 0.09314052 0.0922601 0.09122038
 0.08999173 0.08876836 0.08786452 0.08741916 0.08729987 0.08730166 0.08732275 0.08734158 0.08734601 0.08732235
 0.08726715 0.08722124 0.08729511 0.08758599 0.08804905 0.08851379 0.0888377 0.08900716 0.08909511 0.08911809
 0.08893052 0.0883607 0.08751512 0.08676864 0.08628563 0.08573417 0.0847241 0.08340931 0.08239236 0.08207333
 0.0823006 0.08263521 0.08275694 0.08260211 0.08232275 0.08221866 0.08253993 0.08318403 0.08368507 0.08366006
</values></Ydata></ScRf><Data_Parameters_AB><parameter name="DPF">1</parameter><parameter name="NPT">3497</parameter><parameter name="FXV">3996</parameter><parameter name="LXV">500</parameter><parameter name="CSF">1</parameter><parameter name="MXY">0.0651641935110092</parameter><parameter name="MNY">-0.0507372990250587</parameter><parameter name="DAT">30/05/2022</parameter><parameter name="TIM">11:41:52.200 (GMT+2)</parameter><parameter name="DXU">WN</parameter></Data_Parameters_AB><AB__Qtest><MainReport name="Quality Test Report"><Header><Line><Legend>Test result ok/not ok [1/0]: </Legend><Value>0</Value></Line><Line><Legend>Method file: </Legend><Value>C:\Users\Public\Documents\Bruker\OPUS_8.2.28\QT\IRBT_v3_default.QT</Value></Line></Header><Matrix><Line><Legend></Legend><Legend>min</Legend><Legend>max</Legend><Legend>measured</Legend></Line><Line><Value>Absorption (X-Range 1):</Value><Value>0.400000</Value><Value>2.000000</Value><Value>0.088517</Value></Line><Line><Value>Noise (X-Range 4):</Value><Value></Value><Value>0.000300</Value><Value>0.000045</Value></Line><Line><Value>Signal/Noise (X-Range 2):</Value><Value>200.000000</Value><Value></Value><Value>46.063583</Value></Line><Line><Value>Signal/Noise (X-Range 3):</Value><Value>40.000000</Value><Value></Value><Value>27.988971</Value></Line><Line><Value>Water vapour (X-Range 5):</Value><Value></Value><Value>0.000300</Value><Value>0.000036</Value></Line><Line><Value>Signal/Water (X-Range 2):</Value><Value>100.000000</Value><Value></Value><Value>56.620639</Value></Line><Line><Value>Signal/Water (X-Range 3):</Value><Value>20.000000</Value><Value></Value><Value>34.403607</Value></Line><Line><Value>Fringes (X-Range 6):</Value><Value></Value><Value>0.000100</Value><Value>0.000066</Value></Line></Matrix></MainReport></AB__Qtest><Data_Parameters_ScSm><parameter name="DPF">1</parameter><parameter name="NPT">1814</parameter><parameter name="FXV">3996.33169228125</parameter><parameter name="LXV">499.541461535156</parameter><parameter name="CSF">1</parameter><parameter name="MXY">0.255468875169754</parameter><parameter name="MNY">0.0343948937952518</parameter><parameter name="DAT">30/05/2022</parameter><parameter name="TIM">11:41:52.200 (GMT+2)</parameter><parameter name="DXU">WN</parameter></Data_Parameters_ScSm><Data_Parameters_ScRf><parameter name="DPF">1</parameter><parameter name="NPT">1820</parameter><parameter name="FXV">4004.04661832813</parameter><parameter name="LXV">495.683998511719</parameter><parameter name="CSF">1</parameter><parameter name="MXY">0.264658510684967</parameter><parameter name="MNY">0.0319653712213039</parameter><parameter name="DAT">30/05/2022</parameter><parameter name="TIM">11:41:26.348 (GMT+2)</parameter><parameter name="DXU">WN</parameter></Data_Parameters_ScRf><Optic_Parameters_Rf><parameter name="APR">0</parameter><parameter name="APT">Open</parameter><parameter name="BMS">KBr</parameter><parameter name="DTC">RT-DLaTGS_IR-Biotyper [Microplate reader]</parameter><parameter name="HPF">0</parameter><parameter name="LPF">10.0</parameter><parameter name="LPV">4000</parameter><parameter name="PGR">0</parameter><parameter name="RCH">Module port</parameter><parameter name="RDX">0</parameter><parameter name="SRC">MIR</parameter><parameter name="VEL">10.0</parameter><parameter name="SON">Off</parameter></Optic_Parameters_Rf><Acquisition_Parameters_Rf><parameter name="ADT">1</parameter><parameter name="AQM">DD</parameter><parameter name="CFE">0</parameter><parameter name="COR">0</parameter><parameter name="DEL">0</parameter><parameter name="DLY">0</parameter><parameter name="HFW">8000</parameter><parameter name="LFW">0</parameter><parameter name="NSR">32</parameter><parameter name="PLF">AB</parameter><parameter name="RES">6</parameter><parameter name="RGN">-1</parameter><parameter name="STR">0</parameter><parameter name="TCL">MakeCompatibleScalar (0, {WSV=1.000000, ARV=0});</parameter><parameter name="TDL">37</parameter><parameter name="RPO">0</parameter></Acquisition_Parameters_Rf><FT_-_Parameters_Rf><parameter name="APF">B3</parameter><parameter name="HFQ">500</parameter><parameter name="LFQ">4000</parameter><parameter name="NLI">0</parameter><parameter name="PHR">24</parameter><parameter name="PHZ">ML</parameter><parameter name="SPZ">NO</parameter><parameter name="ZFF">1</parameter></FT_-_Parameters_Rf><Optic_Parameters_><parameter name="APR">0</parameter><parameter name="APT">Open</parameter><parameter name="BMS">KBr</parameter><parameter name="CHN">Module port</parameter><parameter name="DTC">RT-DLaTGS_IR-Biotyper [Microplate reader]</parameter><parameter name="HPF">0</parameter><parameter name="LPF">10.0</parameter><parameter name="LPV">4000</parameter><parameter name="PGN">0</parameter><parameter name="RDX">0</parameter><parameter name="SRC">MIR</parameter><parameter name="VEL">10.0</parameter><parameter name="SON">Off</parameter></Optic_Parameters_><FT_-_Parameters_><parameter name="APF">B3</parameter><parameter name="HFQ">500</parameter><parameter name="LFQ">4000</parameter><parameter name="NLI">0</parameter><parameter name="PHR">24</parameter><parameter name="PHZ">ML</parameter><parameter name="SPZ">NO</parameter><parameter name="ZFF">1</parameter></FT_-_Parameters_><Acquisition_Parameters_><parameter name="ADT">1</parameter><parameter name="AQM">DD</parameter><parameter name="CFE">0</parameter><parameter name="COR">0</parameter><parameter name="DEL">0</parameter><parameter name="DLY">0</parameter><parameter name="HFW">8000</parameter><parameter name="LFW">0</parameter><parameter name="NSS">32</parameter><parameter name="PLF">AB</parameter><parameter name="RES">6</parameter><parameter name="SOT">0</parameter><parameter name="TCL">MakeCompatibleScalar (0, {WSV=1.000000, ARV=0});</parameter><parameter name="TDL">37</parameter><parameter name="SPO">0</parameter><parameter name="SGN">-1</parameter></Acquisition_Parameters_><Instrument_Parameters_Rf><parameter name="HFL">15800.168544</parameter><parameter name="LFL">0</parameter><parameter name="LWN">15800.168544</parameter><parameter name="ABP">32197</parameter><parameter name="SSP">1</parameter><parameter name="ARG">2</parameter><parameter name="ASG">2</parameter><parameter name="ASS">32</parameter><parameter name="GFW">16</parameter><parameter name="GBW">16</parameter><parameter name="BFW">0</parameter><parameter name="BBW">0</parameter><parameter name="PKA">7299</parameter><parameter name="PKL">4996</parameter><parameter name="PRA">7467</parameter><parameter name="PRL">5001</parameter><parameter name="P2A">1</parameter><parameter name="P2L">1</parameter><parameter name="P2R">1</parameter><parameter name="P2K">1</parameter><parameter name="DAQ">0</parameter><parameter name="AG2">1</parameter><parameter name="SSM">1</parameter><parameter name="RSN">25238</parameter><parameter name="CRR">0</parameter><parameter name="SRT">1653910886.349</parameter><parameter name="DUR">19.6369934082031</parameter><parameter name="TSC">28.1</parameter><parameter name="MVD">0.220242083072662</parameter><parameter name="AN1">0.225836349484669</parameter><parameter name="AN2">0</parameter><parameter name="VSN">2.485 Apr  4 2017</parameter><parameter name="SRN">0085</parameter><parameter name="CAM">0</parameter><parameter name="INS">IR-Biotyper</parameter><parameter name="FOC">69</parameter><parameter name="RDY">1</parameter><parameter name="ARS">32</parameter></Instrument_Parameters_Rf><Sample_Parameters_><parameter name="BLD"></parameter><parameter name="CNM">Admin</parameter><parameter name="CPY"></parameter><parameter name="DPM"></parameter><parameter name="EXP">IRBT_v3_32Scans.XPM</parameter><parameter name="LCT"></parameter><parameter name="SFM">Microplate, HTS-XT</parameter><parameter name="SNM">220530-1021_GFG29M (D_10)_B6_529713cd-3a67-429c-9976-8d9ccec0d8ac.0</parameter><parameter name="XPP">C:\Users\Public\Documents\Bruker\OPUS_8.2.28\XPM</parameter><parameter name="IST">OK</parameter><parameter name="CPG">1252</parameter><parameter name="UID">ec1245cf-c7b6-490a-ac5d-2a63219e26db</parameter></Sample_Parameters_><Instrument_Parameters_><parameter name="HFL">15800.168544</parameter><parameter name="LFL">0</parameter><parameter name="LWN">15800.168544</parameter><parameter name="ABP">32197</parameter><parameter name="SSP">1</parameter><parameter name="ASG">2</parameter><parameter name="ARG">2</parameter><parameter name="ASS">32</parameter><parameter name="GFW">16</parameter><parameter name="GBW">16</parameter><parameter name="BFW">0</parameter><parameter name="BBW">0</parameter><parameter name="PKA">7272</parameter><parameter name="PKL">4988</parameter><parameter name="PRA">7538</parameter><parameter name="PRL">4993</parameter><parameter name="P2A">1</parameter><parameter name="P2L">1</parameter><parameter name="P2R">1</parameter><parameter name="P2K">1</parameter><parameter name="DAQ">0</parameter><parameter name="AG2">1</parameter><parameter name="SSM">1</parameter><parameter name="RSN">13245</parameter><parameter name="CRR">0</parameter><parameter name="SRT">1653910912.2</parameter><parameter name="DUR">19.6379852294922</parameter><parameter name="TSC">28.1</parameter><parameter name="MVD">0.212390318512917</parameter><parameter name="AN1">0.225813143766396</parameter><parameter name="AN2">0</parameter><parameter name="VSN">2.485 Apr  4 2017</parameter><parameter name="SRN">0085</parameter><parameter name="CAM">0</parameter><parameter name="INS">IR-Biotyper</parameter><parameter name="FOC">69</parameter><parameter name="RDY">1</parameter></Instrument_Parameters_><History/></OPUSDataFile>
