<?xml version="1.0" encoding="UTF-8" ?>
<OPUSDataFile><AB><Ydata ylabel="Absorbance Units"><values byteorder="INTEL" format="FLOAT32" numvalues="3497"> -0.06373966 -0.06377386 -0.06381281 -0.06385731 -0.06389622 -0.06392896 -0.06393939 -0.06392794 -0.06389467 -0.06384333
 -0.06379646 -0.06375563 -0.06374084 -0.0637455 -0.06376495 -0.0637909 -0.06380542 -0.06381092 -0.06380095 -0.06378645
 -0.06377475 -0.06377047 -0.06378046 -0.06379659 -0.06381813 -0.06383476 -0.06384306 -0.06384119 -0.06382742 -0.06380963
 -0.063788 -0.063775 -0.06377132 -0.06378414 -0.06381281 -0.06385157 -0.0638986 -0.06393982 -0.06397536 -0.06399735
 -0.06400911 -0.0640145 -0.06401648 -0.06402262 -0.06403137 -0.06404491 -0.06405805 -0.06406773 -0.06406935 -0.06405868
 -0.06403696 -0.06400229 -0.06396295 -0.06391995 -0.06388323 -0.06385472 -0.06383925 -0.06383781 -0.06384815 -0.06387022
 -0.06389716 -0.06392846 -0.06395525 -0.0639777 -0.06399112 -0.06399814 -0.06400514 -0.06401576 -0.06404283 -0.06408596
 -0.06415201 -0.06423443 -0.06433003 -0.06442835 -0.0645215 -0.06459807 -0.06465025 -0.06467009 -0.06465092 -0.06459814
 -0.06450858 -0.06440625 -0.0642928 -0.0641991 -0.06412834 -0.06410114 -0.06411885 -0.06418601 -0.06430148 -0.06445244
 -0.06463423 -0.06481379 -0.06498426 -0.06510058 -0.06516504 -0.06515536 -0.06509011 -0.06498847 -0.06486995 -0.06476606
 -0.06468332 -0.06464021 -0.06462663 -0.06464594 -0.0646731 -0.06469974 -0.06470729 -0.06468538 -0.06464754 -0.06459155
 -0.06455368 -0.06453823 -0.06455921 -0.06461791 -0.06468163 -0.06474842 -0.06478096 -0.06478352 -0.06476336 -0.06472832
 -0.06471388 -0.06471812 -0.06475786 -0.0648187 -0.06488341 -0.06494227 -0.06497312 -0.06498417 -0.06497478 -0.0649534
 -0.064926 -0.06489219 -0.06484973 -0.06481244 -0.06477923 -0.06478379 -0.0648319 -0.06494556 -0.06513135 -0.06535416
 -0.06561299 -0.06578566 -0.06586885 -0.0657813 -0.06554429 -0.06525768 -0.06493623 -0.06469265 -0.06451568 -0.06443372
 -0.06443125 -0.06449735 -0.06461342 -0.06475715 -0.06490465 -0.06502961 -0.06511691 -0.06514594 -0.06513032 -0.0650667
 -0.06498611 -0.06489675 -0.06481514 -0.06474616 -0.06469072 -0.06464918 -0.06462441 -0.06461658 -0.06463074 -0.06466661
 -0.06472078 -0.06479133 -0.06486455 -0.06493795 -0.06499537 -0.06503437 -0.0650408 -0.06501375 -0.064942 -0.06483533
 -0.064696 -0.06454773 -0.06440903 -0.06430183 -0.0642461 -0.06424373 -0.06430475 -0.06440531 -0.06454476 -0.06468445
 -0.06481823 -0.06491676 -0.06497568 -0.06498563 -0.06494565 -0.06486126 -0.06473371 -0.06458341 -0.06441261 -0.06424696
 -0.06408627 -0.0639434 -0.06381702 -0.06370889 -0.06362133 -0.06355944 -0.0635244 -0.06352393 -0.06354491 -0.0635829
 -0.0636145 -0.06362248 -0.06360187 -0.06354095 -0.06346606 -0.0633803 -0.06331331 -0.06327242 -0.06326278 -0.0632866
 -0.06333397 -0.06340446 -0.06348808 -0.06358386 -0.06367563 -0.06376151 -0.06381906 -0.06385019 -0.06384834 -0.06382095
 -0.06378442 -0.06374249 -0.06371066 -0.06368581 -0.06366885 -0.06366063 -0.06365808 -0.06367566 -0.0637194 -0.06380512
 -0.06394488 -0.0641286 -0.06436277 -0.06459968 -0.0648337 -0.0650173 -0.06514277 -0.06520583 -0.06520571 -0.06514388
 -0.06502012 -0.06482499 -0.06456485 -0.06427677 -0.06397285 -0.0637239 -0.06353003 -0.06343251 -0.06341305 -0.06346382
 -0.0635528 -0.06363523 -0.06369603 -0.06370015 -0.06366713 -0.06359831 -0.06351352 -0.06342334 -0.06333005 -0.06323673
 -0.06313983 -0.06303794 -0.06293698 -0.06283657 -0.06275228 -0.0626851 -0.06264512 -0.06263224 -0.06264471 -0.062681
 -0.06273129 -0.06279117 -0.06283916 -0.06286886 -0.06284872 -0.06278481 -0.06266838 -0.06252093 -0.06236823 -0.06221886
 -0.06209379 -0.06197923 -0.0618743 -0.06176109 -0.06162867 -0.06148059 -0.06131208 -0.06114833 -0.06099353 -0.06086347
 -0.06076244 -0.06067527 -0.06060173 -0.06050446 -0.06038249 -0.06021595 -0.06001052 -0.0597983 -0.05958422 -0.05940857
 -0.05926473 -0.05915505 -0.05907287 -0.05900673 -0.05895389 -0.05890933 -0.05886302 -0.05880752 -0.05872618 -0.05860443
 -0.05844187 -0.0582321 -0.05799056 -0.05772232 -0.05742783 -0.05710811 -0.05676034 -0.05638286 -0.05599133 -0.0555866
 -0.05518341 -0.05478206 -0.05438523 -0.05399386 -0.05361539 -0.05325267 -0.05292272 -0.05262515 -0.05236936 -0.05214943
 -0.0519597 -0.05179282 -0.05164041 -0.05148783 -0.05132459 -0.05112374 -0.05086281 -0.0505372 -0.05013118 -0.04968361
 -0.04920252 -0.04871626 -0.0482336 -0.04775416 -0.0472789 -0.04680445 -0.04633039 -0.04586361 -0.04540492 -0.04497088
 -0.04456213 -0.04419465 -0.04386249 -0.04355503 -0.04325384 -0.04290147 -0.04248939 -0.04196149 -0.04135457 -0.04069028
 -0.04001016 -0.03936589 -0.03875934 -0.0382097 -0.03769788 -0.03722164 -0.0367596 -0.03630534 -0.03584463 -0.03537277
 -0.03488962 -0.0343946 -0.03389001 -0.03337627 -0.03284459 -0.03229453 -0.03171607 -0.03111092 -0.03048732 -0.02984831
 -0.02921171 -0.02857827 -0.02795853 -0.02735325 -0.0267692 -0.02620511 -0.02566503 -0.02513861 -0.02461845 -0.02409506
 -0.02355797 -0.02301137 -0.0224563 -0.02189026 -0.02131772 -0.02070969 -0.02006002 -0.01935546 -0.01858832 -0.01781207
 -0.01702918 -0.0163086 -0.0156514 -0.01506225 -0.01453491 -0.01402237 -0.0135201 -0.01298141 -0.01241141 -0.01179702
 -0.01115278 -0.01049995 -0.009850012 -0.009230977 -0.008636079 -0.008074177 -0.007519697 -0.006960187 -0.006373271 -0.005741555
 -0.005073108 -0.004362591 -0.003641613 -0.002914971 -0.002208368 -0.001526718 -0.0008728821 -0.0002480726 0.0003686496 0.0009784548
 0.001605324 0.00224826 0.002909859 0.003587832 0.004272188 0.004964592 0.005665658 0.006375452 0.007098747 0.007823314
 0.008536716 0.009223537 0.009861471 0.01045351 0.01099035 0.01149485 0.01197385 0.01244797 0.01292698 0.01341092
 0.01390292 0.01438925 0.01486763 0.01533761 0.0157983 0.01627241 0.01676097 0.01728401 0.01783899 0.01841471
 0.01900579 0.01958087 0.02013971 0.02066344 0.02115914 0.02163141 0.0220874 0.02254052 0.02298937 0.02343946
 0.02388131 0.02430872 0.02472077 0.02510997 0.02550048 0.02589489 0.02632761 0.02680838 0.02734326 0.02793739
 0.02855839 0.02920481 0.02983598 0.03045041 0.03102817 0.03157043 0.03207822 0.03255302 0.03300093 0.03342408
 0.03382966 0.0342239 0.0346215 0.03502949 0.03546642 0.0359276 0.0364187 0.03692265 0.03742803 0.03792982
 0.03841871 0.03891195 0.03941488 0.0399314 0.04046791 0.04099277 0.04150238 0.04197505 0.04240702 0.04283486
 0.04326108 0.04374704 0.04429048 0.04490238 0.04556895 0.04623283 0.04688213 0.04744709 0.04793635 0.04832759
 0.04865 0.04893458 0.04920396 0.0494977 0.04980535 0.05013551 0.05046131 0.05076833 0.05105566 0.051315
 0.05157531 0.05184107 0.05213431 0.05246012 0.05281447 0.05319798 0.05359241 0.05399691 0.05439535 0.05478903
 0.0551808 0.0555758 0.05600113 0.05645783 0.05696856 0.05751878 0.05809325 0.05867056 0.05921176 0.05971109
 0.06014569 0.06052709 0.06085637 0.06114373 0.06139428 0.06161328 0.0618001 0.06197353 0.06213422 0.06231562
 0.06252249 0.06277511 0.0630766 0.06341168 0.06377915 0.06414462 0.06450789 0.06485209 0.06518086 0.06550402
 0.06582212 0.06614415 0.06646356 0.06677023 0.06706133 0.06732389 0.06757108 0.06780868 0.06805563 0.06833079
 0.06863031 0.0689648 0.0692962 0.06961661 0.06988811 0.07009582 0.07025254 0.07035318 0.07046012 0.0705782
 0.07074756 0.07096858 0.07120321 0.0714458 0.07162365 0.07174135 0.07177819 0.07175305 0.07171268 0.07167161
 0.0716868 0.07175159 0.07188503 0.07206375 0.07227267 0.07248963 0.07269178 0.07287784 0.07303633 0.07319202
 0.07334929 0.07353339 0.0737549 0.07400145 0.07427687 0.07452951 0.07475585 0.07490993 0.07499027 0.0750001
 0.07494386 0.07486583 0.07476909 0.07469324 0.07463483 0.07460248 0.07459486 0.0746108 0.07465643 0.07474303
 0.07486678 0.0750358 0.07522047 0.07540492 0.07556029 0.07566154 0.07572287 0.07573684 0.07575243 0.07577998
 0.07584791 0.07596548 0.07611074 0.07628412 0.076437 0.07656705 0.076637 0.07664782 0.07659242 0.07647738
 0.07632909 0.07615839 0.07601287 0.07589904 0.07585788 0.07587907 0.07597138 0.07610513 0.07625632 0.0763938
 0.07648458 0.076525 0.07649799 0.07643566 0.0763418 0.0762565 0.07619024 0.0761611 0.07617354 0.07623024
 0.07633132 0.07648747 0.07669923 0.07697761 0.07731927 0.07769872 0.07810424 0.07846326 0.0787661 0.07893721
 0.07899006 0.07890641 0.07872934 0.0785103 0.07829489 0.07815641 0.07809675 0.07815351 0.0782686 0.0784312
 0.07856423 0.0786373 0.07861421 0.07847461 0.07824622 0.0779258 0.07757874 0.07720987 0.07687346 0.07657199
 0.07632015 0.0761162 0.07594687 0.07581097 0.07569531 0.07560091 0.07552537 0.0754671 0.07542474 0.07538812
 0.07534564 0.07527735 0.07516043 0.07497483 0.07469508 0.07432511 0.07385131 0.07331718 0.07272865 0.07214523
 0.07158215 0.07107192 0.07062384 0.07023155 0.06989631 0.06959234 0.06931824 0.06904327 0.06876623 0.0684614
 0.06813201 0.06777925 0.06741166 0.06706026 0.06672509 0.06642726 0.06614803 0.06586967 0.06557236 0.06522251
 0.06482797 0.06437571 0.06390482 0.06342717 0.06298786 0.06260692 0.06230147 0.06208595 0.06192413 0.06181842
 0.06168904 0.06152952 0.06127639 0.06092682 0.06049033 0.05997281 0.05944317 0.05890611 0.05842481 0.05799374
 0.05762975 0.05732124 0.0570516 0.05681062 0.05657577 0.0563408 0.05609022 0.05582334 0.05553331 0.05522687
 0.05490393 0.05457698 0.05424945 0.05393362 0.05363377 0.05335204 0.0530906 0.05283847 0.05259523 0.05234599
 0.05209 0.05182032 0.05153719 0.05124098 0.05093239 0.05061449 0.05028934 0.04996471 0.04964387 0.04933912
 0.04904926 0.04878047 0.04852315 0.04827048 0.04801126 0.04773346 0.04743594 0.04711202 0.04677491 0.0464263
 0.04608335 0.04575117 0.04543595 0.04514079 0.04485577 0.04458071 0.04429995 0.04401267 0.04371172 0.04339749
 0.04307254 0.04273763 0.04239802 0.04205415 0.04170989 0.04136613 0.04102673 0.0406924 0.04036643 0.04004763
 0.03973627 0.03942998 0.03912513 0.03882668 0.03853266 0.03826128 0.03801831 0.03781779 0.03766931 0.03755016
 0.03746305 0.03734848 0.03720144 0.03697537 0.03666775 0.03628862 0.03584227 0.03538369 0.03491789 0.03450252
 0.03413636 0.03384961 0.03362968 0.03346793 0.03334001 0.033204 0.03304203 0.0328114 0.03252662 0.03217778
 0.03180606 0.03143144 0.03107835 0.0307652 0.03047811 0.03021694 0.02996761 0.02972391 0.02951033 0.02932731
 0.02921611 0.02917896 0.02921766 0.0293275 0.02945077 0.02957942 0.02963521 0.02961929 0.02948854 0.02926147
 0.02895549 0.02859711 0.02823889 0.02789086 0.02759051 0.02731932 0.02707621 0.0268397 0.02659203 0.02634343
 0.02608962 0.02586061 0.02566597 0.02550889 0.02539458 0.02529324 0.02520204 0.02510554 0.02500276 0.02491598
 0.02484646 0.02481848 0.02482844 0.02486802 0.02493118 0.02499069 0.02504659 0.02508416 0.0251093 0.02512589
 0.02513678 0.02515048 0.02515634 0.02515396 0.02511728 0.0250331 0.0248808 0.02464327 0.02433985 0.02396379
 0.02358089 0.02319824 0.02288266 0.02264383 0.02248931 0.02242009 0.02237341 0.02234455 0.02225303 0.02210114
 0.02185731 0.0215366 0.02117396 0.02078648 0.02043421 0.02012029 0.01988019 0.01970058 0.01958247 0.01950507
 0.01945402 0.01940935 0.01935606 0.01928473 0.01918491 0.01907004 0.01893861 0.0188197 0.0187193 0.01864577
 0.01860282 0.01855984 0.01851529 0.01843742 0.01832779 0.01820113 0.01806342 0.01796169 0.01789381 0.01788034
 0.01790797 0.0179521 0.01800917 0.01805453 0.01811081 0.01819033 0.0183254 0.01854765 0.01887083 0.01931234
 0.01987042 0.02054523 0.02134623 0.02227355 0.02334743 0.02457383 0.02594739 0.02747214 0.02908908 0.0307954
 0.03248802 0.03416036 0.03569973 0.037102 0.03828281 0.03924571 0.03995643 0.0404254 0.04065983 0.04067049
 0.04047726 0.04009051 0.03952435 0.03880213 0.03793671 0.03697843 0.03594802 0.03491737 0.03391295 0.03300212
 0.032207 0.03156524 0.03108747 0.03078246 0.03065166 0.03070365 0.03093883 0.03138411 0.03204042 0.03292959
 0.03404586 0.03536708 0.03688006 0.03852312 0.04028891 0.0421245 0.04403918 0.04602163 0.04809166 0.05026799
 0.05256627 0.05500722 0.05759293 0.06033384 0.06321423 0.06623624 0.06936201 0.07258932 0.07585378 0.07915041
 0.08239106 0.08556923 0.08858609 0.09143554 0.09403206 0.09637311 0.09840861 0.1001414 0.1015611 0.1026778
 0.1035152 0.1040991 0.1044922 0.1047465 0.1049668 0.1052242 0.1056394 0.1062694 0.1072047 0.1084586
 0.1100697 0.1120073 0.1142742 0.1168156 0.1196229 0.1226311 0.125832 0.1291541 0.1325916 0.136067
 0.1395759 0.1430286 0.1464187 0.1496396 0.1526823 0.155438 0.1578979 0.1599737 0.1616574 0.1628875
 0.163653 0.1639085 0.1636429 0.162822 0.1614508 0.1595115 0.1570481 0.154064 0.150655 0.1468407
 0.142765 0.138455 0.1340809 0.1296693 0.1253773 0.1212244 0.1173093 0.11364 0.1102336 0.1070876
 0.1041584 0.1014411 0.09888141 0.09647761 0.0941966 0.09203456 0.08997 0.08798855 0.08605746 0.08416063
 0.08226042 0.08036365 0.07845497 0.07657233 0.07473004 0.07296861 0.07130929 0.06976712 0.06834988 0.06706284
 0.06590349 0.06490617 0.06407033 0.06346982 0.06310892 0.06306361 0.06333416 0.06393421 0.06484771 0.06597913
 0.06729751 0.06862793 0.06995447 0.07113188 0.07219885 0.07313715 0.0740433 0.07501809 0.07616635 0.07761542
 0.07941183 0.08163503 0.08423303 0.08722682 0.09046516 0.09393518 0.09740453 0.1008496 0.1039802 0.1067725
 0.1089094 0.1103705 0.110869 0.1103961 0.1087878 0.1060658 0.1022788 0.09749433 0.09198416 0.08585148
 0.07948875 0.07299384 0.06672165 0.06071745 0.05518801 0.05010974 0.04553983 0.04141341 0.03771244 0.03436901
 0.03135552 0.02861318 0.02612512 0.02383449 0.02173084 0.01976375 0.01792657 0.01618681 0.01454181 0.01297802
 0.0114952 0.01009038 0.008763541 0.007513328 0.006338497 0.00523351 0.0041965 0.003219301 0.002301823 0.001440298
 0.0006348986 -0.0001136028 -0.0008112073 -0.001460334 -0.002073882 -0.002659785 -0.003228113 -0.003786572 -0.004332811 -0.004869266
 -0.00538391 -0.005874937 -0.006333158 -0.00675633 -0.007150163 -0.007514599 -0.007867236 -0.008208766 -0.008552147 -0.008896148
 -0.00923728 -0.009574555 -0.009900292 -0.0102183 -0.01053409 -0.01085343 -0.01119117 -0.01154628 -0.01192617 -0.01232022
 -0.01272353 -0.01312144 -0.01350476 -0.01386043 -0.01418047 -0.01445944 -0.01469137 -0.01488957 -0.01505254 -0.01521256
 -0.01537282 -0.01556107 -0.01577995 -0.01602731 -0.01630188 -0.01657475 -0.01684416 -0.01708242 -0.01729198 -0.01746747
 -0.01761455 -0.01774609 -0.01786555 -0.0179865 -0.0181069 -0.01823016 -0.01835176 -0.01846827 -0.01857815 -0.01867911
 -0.01877202 -0.01885696 -0.01893384 -0.01900218 -0.01906425 -0.01911922 -0.01917721 -0.01923908 -0.01931507 -0.01940625
 -0.0195089 -0.0196223 -0.01972966 -0.01983053 -0.01991291 -0.01997909 -0.02003217 -0.0200752 -0.0201189 -0.02016299
 -0.02021309 -0.02026485 -0.02031477 -0.02035944 -0.02039233 -0.02041889 -0.02043746 -0.02046432 -0.0205049 -0.02057506
 -0.02068252 -0.02082586 -0.02100885 -0.02120872 -0.02142421 -0.02162714 -0.02181526 -0.02197585 -0.02210904 -0.02222303
 -0.02231934 -0.0224138 -0.02250651 -0.02260657 -0.02271263 -0.02282563 -0.02294412 -0.02306654 -0.02318994 -0.02331059
 -0.02342402 -0.02352423 -0.02361047 -0.0236787 -0.02373603 -0.02378389 -0.02383065 -0.02388005 -0.0239321 -0.02398818
 -0.02404179 -0.0240922 -0.02413553 -0.02417132 -0.02420177 -0.02422699 -0.02424997 -0.02427024 -0.02428542 -0.02429471
 -0.02429253 -0.02428017 -0.02425702 -0.024228 -0.02420159 -0.0241833 -0.02418442 -0.02420685 -0.02425723 -0.02433252
 -0.02443407 -0.02455394 -0.0246905 -0.02483181 -0.02497429 -0.02510883 -0.02523193 -0.02534621 -0.02545085 -0.02555687
 -0.02566512 -0.02578119 -0.02590498 -0.02603033 -0.02615662 -0.02627542 -0.02638764 -0.02649233 -0.02659201 -0.02669335
 -0.02679819 -0.02691416 -0.02703958 -0.02717684 -0.02731938 -0.02746283 -0.02759929 -0.02772197 -0.02782789 -0.02791288
 -0.02798138 -0.02803283 -0.02807648 -0.02811354 -0.02815388 -0.02819893 -0.02825475 -0.02832206 -0.02840018 -0.02848897
 -0.02858346 -0.02868332 -0.02878364 -0.02888439 -0.02898264 -0.02907901 -0.02917323 -0.02926714 -0.02936443 -0.02946583
 -0.02957554 -0.02968858 -0.02980298 -0.02991058 -0.03000372 -0.03008357 -0.03014553 -0.0302057 -0.03026747 -0.03034582
 -0.03044664 -0.03056372 -0.03069864 -0.03082836 -0.03095117 -0.0310527 -0.03113282 -0.03119938 -0.03125373 -0.03131167
 -0.03137253 -0.0314418 -0.0315173 -0.03159495 -0.03167443 -0.03175312 -0.03183149 -0.03190999 -0.03198646 -0.03205918
 -0.03212585 -0.03218324 -0.03223439 -0.03227895 -0.03232349 -0.0323705 -0.03242171 -0.0324786 -0.03253702 -0.03259669
 -0.03265371 -0.03270768 -0.03275805 -0.03280482 -0.03284858 -0.03288959 -0.0329298 -0.03297018 -0.03301626 -0.03306881
 -0.03313388 -0.03320958 -0.03329592 -0.03338838 -0.03348065 -0.03356935 -0.03364845 -0.03371796 -0.03377593 -0.03382385
 -0.03386177 -0.03389149 -0.03391305 -0.03393036 -0.03394388 -0.03395871 -0.03397566 -0.03399726 -0.03402384 -0.03405504
 -0.03409084 -0.03413026 -0.03417302 -0.03421637 -0.03425932 -0.03429543 -0.03432442 -0.03434104 -0.03434813 -0.0343481
 -0.03434577 -0.03434955 -0.03436102 -0.03438603 -0.03442063 -0.03446434 -0.03451217 -0.03456092 -0.03461068 -0.03466026
 -0.03471362 -0.03477225 -0.03483379 -0.03489915 -0.03495603 -0.03500359 -0.03503112 -0.03503841 -0.03503058 -0.03500932
 -0.03499278 -0.03498193 -0.03499172 -0.03502013 -0.03506947 -0.03513582 -0.03521258 -0.03529607 -0.03537833 -0.03545713
 -0.03552673 -0.0355884 -0.03564014 -0.0356878 -0.03573319 -0.03578249 -0.03583882 -0.03590206 -0.03597365 -0.03604658
 -0.03612022 -0.03618804 -0.03624923 -0.03630415 -0.03635291 -0.0364019 -0.03645139 -0.03650672 -0.03656729 -0.03663307
 -0.03670302 -0.03677369 -0.03684511 -0.03691552 -0.03698567 -0.03705617 -0.03712682 -0.03719813 -0.03726826 -0.03733608
 -0.03740034 -0.03745982 -0.03751541 -0.03756706 -0.03761611 -0.03766288 -0.03770787 -0.03775108 -0.03779348 -0.03783512
 -0.03787716 -0.03791961 -0.03796152 -0.03800263 -0.03803986 -0.03807318 -0.03810063 -0.03812259 -0.03813906 -0.03815094
 -0.0381595 -0.03816702 -0.03817686 -0.03819213 -0.0382178 -0.0382538 -0.0383029 -0.03835972 -0.03842301 -0.03848621
 -0.03854659 -0.03860178 -0.03865035 -0.03869416 -0.03873286 -0.03877172 -0.03881096 -0.03885856 -0.03891491 -0.03898528
 -0.03906896 -0.03916128 -0.03926014 -0.03935215 -0.03943605 -0.03949985 -0.03954587 -0.03957226 -0.03958432 -0.03958897
 -0.03959039 -0.03959641 -0.03960596 -0.0396216 -0.0396383 -0.03965366 -0.03966629 -0.039674 -0.03968234 -0.03969195
 -0.03970877 -0.03973435 -0.03976683 -0.03980651 -0.03984546 -0.03988329 -0.03991551 -0.03994254 -0.03996741 -0.03999054
 -0.04001617 -0.04004324 -0.04007047 -0.04009684 -0.04011849 -0.04013747 -0.04015457 -0.04017344 -0.04019912 -0.04023118
 -0.04027211 -0.0403167 -0.04036289 -0.04040735 -0.04044778 -0.04048614 -0.04052243 -0.04055886 -0.040596 -0.04063296
 -0.04066976 -0.04070426 -0.04073636 -0.04076653 -0.04079521 -0.04082704 -0.04086304 -0.04091099 -0.04097158 -0.04105136
 -0.04115017 -0.04127039 -0.04141289 -0.04157862 -0.04177231 -0.04199795 -0.04226308 -0.0425743 -0.0429366 -0.04335507
 -0.04382825 -0.04435805 -0.04493613 -0.0455617 -0.04622417 -0.04692215 -0.04764664 -0.04839692 -0.04916569 -0.04995231
 -0.05073385 -0.05150501 -0.05220382 -0.052818 -0.05325009 -0.05349009 -0.05344711 -0.05313361 -0.05251351 -0.05165231
 -0.05061769 -0.04951022 -0.04846645 -0.0475375 -0.04681025 -0.0462773 -0.04595762 -0.04583071 -0.04589622 -0.04612591
 -0.04652336 -0.04701058 -0.04758583 -0.04811267 -0.04857813 -0.04889809 -0.04906834 -0.04911305 -0.04903637 -0.04889216
 -0.04868319 -0.04845105 -0.04819733 -0.04794957 -0.04770729 -0.04748332 -0.04727517 -0.04708607 -0.04690924 -0.04674127
 -0.04656837 -0.04637928 -0.04616493 -0.04591365 -0.0456378 -0.04533587 -0.04503405 -0.04473799 -0.04446655 -0.04422409
 -0.04401517 -0.0438412 -0.04369422 -0.04357379 -0.04346219 -0.04335874 -0.04324864 -0.04313372 -0.04301594 -0.04289867
 -0.04279538 -0.0427059 -0.04263807 -0.0425864 -0.04254632 -0.04251152 -0.04247266 -0.04242821 -0.04237271 -0.04231102
 -0.04224346 -0.04217711 -0.04211449 -0.04206041 -0.04201678 -0.04198421 -0.04196339 -0.04195138 -0.04194823 -0.04194775
 -0.0419496 -0.041948 -0.04194304 -0.04193413 -0.04192197 -0.04191058 -0.04189993 -0.04189222 -0.04188652 -0.04188152
 -0.04187727 -0.04187295 -0.04186972 -0.04186894 -0.04187026 -0.04187424 -0.04187909 -0.04188391 -0.04188785 -0.04189024
 -0.04189151 -0.04189147 -0.04189147 -0.04189153 -0.04189409 -0.04189943 -0.04190884 -0.04192239 -0.04193632 -0.04195029
 -0.04195895 -0.04196275 -0.04196151 -0.04195637 -0.04195162 -0.04194707 -0.04194497 -0.04194333 -0.04193995 -0.0419332
 -0.04191985 -0.04190078 -0.04187481 -0.04184576 -0.04181495 -0.04178666 -0.04176304 -0.04174512 -0.04173408 -0.04172672
 -0.04172288 -0.04171848 -0.04171302 -0.0417051 -0.04169462 -0.04168424 -0.04167419 -0.04166849 -0.04166688 -0.04167048
 -0.04167775 -0.04168397 -0.04168763 -0.04168217 -0.04166853 -0.04164449 -0.04161375 -0.04157929 -0.04154501 -0.04151523
 -0.04149119 -0.04147542 -0.04146526 -0.04146084 -0.04145737 -0.04145336 -0.04144751 -0.04143874 -0.0414319 -0.0414273
 -0.04142972 -0.04143947 -0.04145362 -0.04147167 -0.04148583 -0.04149609 -0.04149832 -0.04149341 -0.04148227 -0.04146593
 -0.04144697 -0.04142682 -0.04140861 -0.0413941 -0.04138713 -0.04138679 -0.04139493 -0.04140595 -0.04141778 -0.0414245
 -0.04142261 -0.04141249 -0.04139258 -0.04136988 -0.04134521 -0.04132443 -0.04130857 -0.04129626 -0.04128748 -0.04127626
 -0.04126251 -0.04124337 -0.04121967 -0.04119517 -0.04117075 -0.04115203 -0.04113825 -0.04113097 -0.04112757 -0.04112443
 -0.04111946 -0.041108 -0.04109152 -0.04106861 -0.04104453 -0.04102164 -0.04100419 -0.04099499 -0.04099322 -0.04099979
 -0.04101004 -0.04102349 -0.04103575 -0.04104635 -0.04105239 -0.04105365 -0.04104897 -0.04103853 -0.04102428 -0.04100697
 -0.04099231 -0.04098072 -0.04097739 -0.04098091 -0.04099101 -0.04100482 -0.041017 -0.04102653 -0.04102914 -0.04102786
 -0.04102325 -0.04101957 -0.04102001 -0.04102472 -0.04103531 -0.0410473 -0.04106012 -0.04106881 -0.04107236 -0.04106865
 -0.04105722 -0.04103889 -0.04101364 -0.04098561 -0.04095515 -0.04092816 -0.04090475 -0.04088895 -0.0408797 -0.04087563
 -0.04087485 -0.04087183 -0.04086574 -0.04085179 -0.04083233 -0.04080739 -0.04078181 -0.04075989 -0.04074377 -0.04073714
 -0.04073554 -0.04073876 -0.04074001 -0.04073693 -0.04072824 -0.04071286 -0.04069471 -0.04067417 -0.04065329 -0.04063225
 -0.04060935 -0.04058461 -0.04055771 -0.04052927 -0.04050327 -0.04048003 -0.04046354 -0.04045235 -0.04044526 -0.04043982
 -0.04043075 -0.04041784 -0.0403977 -0.04037394 -0.04034811 -0.0403242 -0.04030582 -0.04029179 -0.04028357 -0.04027456
 -0.04026342 -0.04024468 -0.04021655 -0.04018073 -0.04013675 -0.04009229 -0.04004779 -0.04001055 -0.03998066 -0.03996037
 -0.03994929 -0.03994611 -0.03995039 -0.03996015 -0.03997442 -0.03999024 -0.04000584 -0.04001644 -0.04002199 -0.04001968
 -0.04001259 -0.04000238 -0.03999151 -0.0399828 -0.039974 -0.03996524 -0.0399527 -0.03993466 -0.03991254 -0.03988576
 -0.03986019 -0.03983646 -0.03981797 -0.03980506 -0.03979483 -0.03978703 -0.03977673 -0.03976424 -0.03974914 -0.0397324
 -0.03971799 -0.03970572 -0.03969769 -0.03969196 -0.03968591 -0.03967839 -0.03966619 -0.03965105 -0.03963281 -0.03961482
 -0.03959902 -0.03958752 -0.03958182 -0.03958206 -0.03958896 -0.03960017 -0.03961571 -0.03963132 -0.03964645 -0.03965922
 -0.03966942 -0.03967908 -0.03968825 -0.0396979 -0.03970747 -0.03971333 -0.03971515 -0.0397091 -0.03969669 -0.03967961
 -0.03966002 -0.03964305 -0.03962876 -0.03962004 -0.03961398 -0.03960919 -0.03960291 -0.03959243 -0.03957877 -0.0395611
 -0.0395434 -0.03952676 -0.03951303 -0.03950319 -0.03949464 -0.03948732 -0.03947799 -0.03946641 -0.03945119 -0.03943233
 -0.0394103 -0.03938539 -0.03935964 -0.03933351 -0.03931026 -0.03928925 -0.03927086 -0.03925326 -0.03923276 -0.03920975
 -0.03918194 -0.0391542 -0.03912986 -0.03911307 -0.03910913 -0.03911319 -0.03912656 -0.03913591 -0.03913783 -0.03912289
 -0.03908727 -0.03903719 -0.03897204 -0.03890834 -0.03884722 -0.03879825 -0.03876132 -0.03873295 -0.03871261 -0.03869452
 -0.03867958 -0.03866885 -0.03866271 -0.03866361 -0.03866922 -0.0386766 -0.03868314 -0.03868387 -0.03867869 -0.03866554
 -0.03864589 -0.03861987 -0.03858932 -0.03855473 -0.03851852 -0.0384813 -0.03844536 -0.03841119 -0.03838031 -0.03835295
 -0.03833004 -0.03831171 -0.03829673 -0.03828492 -0.03827253 -0.03825969 -0.03824522 -0.03823033 -0.0382194 -0.03821338
 -0.03821785 -0.03823128 -0.03825442 -0.03828306 -0.03831271 -0.03833838 -0.0383535 -0.03835715 -0.03834512 -0.03832448
 -0.03829629 -0.03826999 -0.03824943 -0.03823535 -0.03822954 -0.03822391 -0.03821778 -0.03820409 -0.03818216 -0.03815319
 -0.03811751 -0.03808205 -0.03804735 -0.03802072 -0.03800175 -0.03799335 -0.03799336 -0.03799751 -0.03800393 -0.03800623
 -0.03800601 -0.03800242 -0.0379982 -0.03799657 -0.03799593 -0.03799726 -0.03799516 -0.03798707 -0.03797137 -0.03794611
 -0.03791594 -0.03788109 -0.03784777 -0.03781692 -0.03779043 -0.03776864 -0.03774729 -0.03772623 -0.0377025 -0.03767719
 -0.03765733 -0.03764454 -0.03765129 -0.03767458 -0.03771519 -0.03776319 -0.03779982 -0.03781886 -0.03780016 -0.03775449
 -0.03768206 -0.03760138 -0.03752568 -0.0374611 -0.03741607 -0.03738062 -0.03735453 -0.0373239 -0.03728514 -0.03723521
 -0.03717233 -0.03710645 -0.03703799 -0.03698026 -0.03693372 -0.03690568 -0.03689507 -0.036898 -0.03691105 -0.03691755
 -0.03691439 -0.0368821 -0.0368249 -0.0367399 -0.03663702 -0.03652899 -0.03642078 -0.0363222 -0.03623247 -0.03615389
 -0.0360848 -0.03602556 -0.0359726 -0.03592613 -0.03587752 -0.03582578 -0.03576053 -0.03568013 -0.03558046 -0.03546085
 -0.03532702 -0.03517953 -0.03503145 -0.03488339 -0.0347469 -0.03462057 -0.03450467 -0.03439658 -0.03428817 -0.03417966
 -0.0340672 -0.03395297 -0.03383963 -0.03372507 -0.03360904 -0.03348717 -0.03335522 -0.03321538 -0.03306691 -0.03291519
 -0.03276305 -0.03260715 -0.03244822 -0.03227663 -0.03209072 -0.03188945 -0.0316723 -0.03144938 -0.03122103 -0.03099338
 -0.03076505 -0.03052734 -0.03027825 -0.03000255 -0.02970282 -0.02937751 -0.02903263 -0.02868117 -0.02832198 -0.02796136
 -0.02758954 -0.02719891 -0.02678414 -0.02633623 -0.02586491 -0.02537156 -0.02486781 -0.02436192 -0.02383921 -0.02330502
 -0.02270188 -0.02202717 -0.02119759 -0.02020585 -0.0190181 -0.01763486 -0.01610446 -0.01442555 -0.01261618 -0.01065426
 -0.008451623 -0.005980741 -0.003108317 0.0001607367 0.003900313 0.008040317 0.0125353 0.01726792 0.02211697 0.02698465
 0.03176819 0.03643197 0.04094024 0.04526836 0.04942451 0.05328451 0.05683956 0.05990179 0.06244012 0.06439169
 0.06574541 0.0665734 0.06688008 0.06676137 0.06622349 0.06536037 0.06417535 0.06273646 0.06103792 0.05908209
 0.05689953 0.05451968 0.05205685 0.04968601 0.04747703 0.04559043 0.043953 0.04256842 0.04134778 0.04024316
 0.03923185 0.03829652 0.03743657 0.03665296 0.03592248 0.03524159 0.03459829 0.03398913 0.03346501 0.03302826
 0.03272592 0.03255111 0.03245976 0.03244339 0.03243644 0.03244192 0.03243338 0.0324211 0.03241007 0.03241714
 0.03246399 0.03257434 0.03277431 0.03309381 0.03355936 0.03419228 0.0350204 0.03600563 0.03715602 0.03836817
 0.03962316 0.04084242 0.04200997 0.0431111 0.04414197 0.04512867 0.04607359 0.04704159 0.04804046 0.04917583
 0.05044105 0.05187768 0.0534378 0.05498842 0.05651315 0.05789669 0.05919041 0.06042112 0.06162911 0.06287249
 0.06414682 0.06546786 0.06681931 0.06819375 0.06959371 0.07102298 0.0724626 0.07391315 0.07533376 0.07671553
 0.07806589 0.07938402 0.08069883 0.0820101 0.08327553 0.08448884 0.08556858 0.08651931 0.08731851 0.08797965
 0.08853432 0.08898712 0.08936371 0.08966096 0.08987994 0.09003221 0.09012569 0.09018192 0.09021947 0.09024677
 0.0902769 0.09029377 0.09029841 0.09026036 0.0901749 0.09001146 0.08976523 0.08941585 0.08895943 0.08842152
 0.08780432 0.08718057 0.08655004 0.08594107 0.08534373 0.08472233 0.08407108 0.08334975 0.08256706 0.08171646
 0.08082224 0.07991724 0.07901839 0.07816105 0.07733257 0.07653564 0.07575388 0.0749714 0.07421276 0.07347648
 0.07281338 0.07223912 0.07175709 0.07137485 0.07104158 0.07075398 0.07046831 0.07018302 0.06989895 0.06961948
 0.06937834 0.06917866 0.06905337 0.06900314 0.06904715 0.06918453 0.06942491 0.06976118 0.07019095 0.07069666
 0.07126257 0.07186663 0.07248849 0.07311571 0.07373417 0.0743514 0.07496387 0.07559449 0.0762479 0.07693943
 0.07767448 0.07843743 0.07922829 0.0800162 0.08079999 0.08157728 0.0823506 0.08314943 0.08397021 0.08481364
 0.08566643 0.08647884 0.08725884 0.08799043 0.08870876 0.08946388 0.09026872 0.09116923 0.09212262 0.09311835
 0.09410087 0.09503882 0.09590492 0.09668677 0.09735738 0.09791119 0.09831525 0.09855863 0.09867151 0.09865391
 0.09856459 0.09840576 0.09817255 0.09786122 0.09743095 0.09687804 0.09616328 0.09528363 0.09421445 0.09294175
 0.09143016 0.08965142 0.08751897 0.08509944 0.08236822 0.07958338 0.0769447 0.07455248 0.07255994 0.0707819
 0.06918672 0.06762911 0.06605671 0.06447139 0.06286252 0.06128404 0.05974168 0.05823886 0.05677548 0.05531209
 0.05384811 0.05236147 0.05085853 0.04936073 0.04787651 0.04644815 0.04507207 0.04376504 0.04251033 0.04128969
 0.04008999 0.03889207 0.03768393 0.03645929 0.03518273 0.0338349 0.03239164 0.03081037 0.02922404 0.02763897
 0.02626283 0.02514694 0.02424835 0.02357433 0.02295869 0.02239366 0.02180308 0.02119134 0.02058479 0.01998931
 0.01945285 0.01896948 0.01854126 0.01816706 0.01783769 0.01757399 0.01740198 0.01734431 0.01744072 0.01768562
 0.01808857 0.01863592 0.01931836 0.02014469 0.02110829 0.02225068 0.0235611 0.02517715 0.02709073 0.02963461
 0.03283503 0.03701082 0.04217485 0.0479799 0.05435846 0.06039123 0.06606295 0.07080664 0.07468984 0.07763453
 0.07972036 0.0810663 0.08177518 0.08205272 0.08197888 0.0817289 0.08130194 0.08075155 0.08005728 0.0792023
 0.07824549 0.07719667 0.07613208 0.07507373 0.07405312 0.07307617 0.07217369 0.07134896 0.07062564 0.07000487
 0.06946161 0.06899187 0.06854102 0.06810587 0.06764109 0.0671456 0.0665885 0.06597784 0.06530998 0.06461004
 0.06391502 0.06324601 0.06264097 0.06210798 0.06165855 0.06131623 0.06109152 0.06101695 0.06111038 0.06137197
 0.06180904 0.06239261 0.06312019 0.06396516 0.06492712 0.06595656 0.06705055 0.06809805 0.06909346 0.06993192
 0.07062067 0.07114477 0.07151996 0.07179198 0.07197186 0.0721094 0.0722031 0.07227817 0.07231293 0.0722992
 0.07219931 0.07198427 0.07162152 0.07108367 0.07036467 0.06944861 0.06837205 0.06712916 0.06581595 0.06443918
 0.06312637 0.06189095 0.06080546 0.05987437 0.05909435 0.05846441 0.05796954 0.0576126 0.05740461 0.0573464
 0.05745371 0.05770976 0.0580958 0.0585651 0.05904757 0.05947169 0.0597332 0.05977979 0.05951951 0.05899296
 0.05817068 0.05719955 0.05611749 0.05506872 0.05410447 0.05325637 0.05254503 0.05190711 0.05133988 0.05077225
 0.05020011 0.04960464 0.0489888 0.04838778 0.04780553 0.04728502 0.04682288 0.04643095 0.04610146 0.04582271
 0.04558729 0.04537916 0.04519096 0.04500857 0.04482709 0.04463735 0.04444047 0.04423438 0.04402238 0.04380591
 0.04358441 0.04335844 0.04312448 0.04288176 0.04262972 0.04236766 0.04210329 0.04183698 0.04158559 0.04135035
 0.04115117 0.04098964 0.0408848 0.04083893 0.04087115 0.04098115 0.04118116 0.04146101 0.04181342 0.04221857
 0.04265218 0.04309698 0.04353077 0.04394723 0.04433728 0.04469941 0.04503258 0.04533053 0.04559249 0.04580877
 0.04597743 0.04609403 0.0461572 0.0461747 0.04614683 0.04609493 0.0460205 0.04594928 0.04588128 0.04583078
 0.04579398 0.04576552 0.04573997 0.04570054 0.04564664 0.04556691 0.04547087 0.04536258 0.04525821 0.0451712
 0.04511469 0.04509925 0.04513209 0.04521713 0.04536234 0.04557047 0.04584645 0.0461936 0.04659845 0.04706173
 0.04754896 0.04805824 0.04855182 0.0490283 0.04946106 0.04985053 0.05018427 0.05046619 0.05070151 0.05089938
 0.05108359 0.05126349 0.05146716 0.05169472 0.05195963 0.05225175 0.05256755 0.05289744 0.05323347 0.05357639
 0.05392356 0.05428227 0.05465461 0.05504218 0.05544672 0.05585956 0.05628022 0.05669865 0.05711417 0.05752655
 0.05793628 0.05835157 0.05877256 0.05920532 0.05964758 0.06009538 0.06054378 0.06097988 0.06139711 0.06177974
 0.06212045 0.06240508 0.06262772 0.06277803 0.06285652 0.06285846 0.06279416 0.06266527 0.06248505 0.06225768
 0.06198905 0.06168115 0.0613334 0.06094541 0.06052293 0.06006612 0.0595923 0.05910263 0.05861745 0.05813719
 0.05767464 0.05722925 0.05680531 0.056403 0.05602441 0.05567121 0.0553476 0.0550538 0.0547931 0.0545611
 0.05435582 0.05417178 0.05400357 0.05385452 0.05372243 0.05362082 0.05355265 0.05352858 0.05355214 0.05362
 0.05373282 0.05387862 0.05405669 0.054261 0.0544918 0.05475322 0.05504521 0.05537043 0.0557264 0.0561047
 0.05650328 0.05691064 0.05733105 0.05776522 0.05822157 0.05871128 0.05923819 0.05981027 0.06042533 0.06108333
 0.06178512 0.06252997 0.06332341 0.06416757 0.06506222 0.06600914 0.06699662 0.0680243 0.0690748 0.07014709
 0.07122514 0.07230821 0.07338355 0.07445015 0.07549585 0.07651787 0.07750002 0.07843743 0.07931004 0.08011311
 0.08082911 0.08145602 0.08198407 0.08241431 0.08274364 0.08297631 0.08311322 0.08316048 0.08312015 0.08299846
 0.08279591 0.08252429 0.08218342 0.08179799 0.08136953 0.08092884 0.08047797 0.08003834 0.07961041 0.07920212
 0.07881243 0.07843928 0.07807967 0.07772093 0.07736019 0.07698096 0.07658871 0.07618094 0.07577616 0.07539161
 0.07505528 0.07479231 0.07463559 0.0746083 0.07474039 0.07505091 0.07554865 0.07624549 0.07711197 0.07815065
 0.07929617 0.08054502 0.08181177 0.08309119 0.08429921 0.08543277 0.0864376 0.08731661 0.08806194 0.08868186
 0.08920304 0.08963632 0.09002086 0.09036976 0.09072318 0.09109198 0.09150691 0.09196921 0.0924914 0.09306739
 0.09369788 0.09437396 0.09509501 0.09584279 0.09661563 0.09738294 0.09813986 0.09885969 0.0995381 0.1001672
 0.1007459 0.1012866 0.1017903 0.1022793 0.1027536 0.1032244 0.1036866 0.1041248 0.1045329 0.1048854
 0.1051835 0.1054176 0.105593 0.1057141 0.105781 0.105795 0.1057559 0.1056618 0.105519 0.1053293
 0.1050987 0.1048289 0.1045244 0.1041843 0.103825 0.1034468 0.1030778 0.1027199 0.1023958 0.1021059
 0.1018575 0.1016489 0.1014724 0.1013242 0.1011843 0.1010496 0.1009008 0.1007401 0.100563 0.1003724
 0.1001722 0.09995734 0.09972595 0.0994693 0.09918118 0.09885745 0.0984951 0.09809178 0.09764632 0.09715709
 0.09662277 0.09604847 0.09543426 0.0947886 0.09411214 0.09340884 0.09267891 0.09192578 0.09114946 0.09035286
 0.08953374 0.08868384 0.08780144 0.08687431 0.08591017 0.08491462 0.08390336 0.08289934 0.08191228 0.08096049
 0.08004251 0.0791631 0.07831696 0.07750268 0.07671724 0.07595966 0.07522758 0.0745215 0.07383312 0.07316318
 0.07248772 0.07180566 0.0710812 0.07031284 0.0694749 0.06856847 0.06759024 0.06654198 0.06542972 0.06425333
 0.06301418 0.06171461 0.0603562 0.05895044 0.05750911 0.05605277 0.05460281 0.05317676 0.05179474 0.05045409
 0.04916241 0.04789716 0.04665344 0.04541373 0.04417167 0.04293254 0.0416952 0.0404764 0.03927721 0.03811029
 0.03697623 0.03588481 0.0348364 0.03383878 0.03289124 0.03199468 0.03114857 0.03035142 0.02960406 0.02890897
 0.02826271 0.0276644 0.0271031 0.02656906 0.02605277 0.02554415 0.02504296 0.0245462 0.02405766 0.0235782
 0.02310923 0.02265148 0.02220358 0.02176572 0.02133391 0.02090788 0.02048387 0.02006188 0.01964367 0.01922963
 0.01882391 0.01842625 0.01803702 0.01765687 0.01728681 0.01692988 0.01659274 0.01627674 0.01598734 0.01572217
 0.01548015 0.01526161 0.01506539 0.01489581 0.01475567 0.01464318 0.01456082 0.01449402 0.01444146 0.01438471
 0.01432083 0.01424267 0.01414899 0.01405029 0.0139473 0.01385717 0.01377947 0.01371837 0.01367166 0.01363007
 0.01359494 0.01356408 0.01354264 0.01354146 0.01355938 0.01360231 0.01365917 0.01372162 0.01378117 0.01382808
 0.0138645 0.01388833 0.01390574 0.01391795 0.01393027 0.01394305 0.0139656 0.01399859 0.01405421 0.01413355
 0.0142415 0.01437787 0.01453341 0.01470647 0.01487874 0.01504954 0.01520484 0.01534775 0.01547972 0.01560479
 0.01573371 0.01586335 0.01599634 0.01612187 0.0162297 0.01631493 0.01636779 0.01639947 0.01641084 0.01641865
 0.01642966 0.01644729 0.01647469 0.01650274 0.01652985 0.01655637 0.01658145 0.01662626 0.01669184 0.01679957
 0.01694761 0.0171304 0.017342 0.01755178 0.01775554 0.01792336 0.01805828 0.01815007 0.01820868 0.01824236
 0.01826293 0.01828541 0.01831495 0.01836145 0.01841883 0.0184876 0.0185584 0.01862744 0.01869356 0.01875491
 0.01881832 0.01888454 0.01895802 0.01903952 0.01912368 0.01920998 0.01928492 0.01934795 0.01938793 0.01940649
 0.01940481 0.01938583 0.01935941 0.01932627 0.01929294 0.01925792 0.0192212 0.0191831 0.01914295 0.01910435
 0.01906818 0.01904177 0.01902768 0.01903484 0.01906744 0.01912664 0.01921544 0.01932021 0.01944041 0.01955726
 0.01966917 0.01976546 0.01984569 0.01990511 0.019944 0.01996114 0.01995949 0.01995115 0.01994179 0.01995613
 0.01999478 0.02007398 0.02018358 0.02031806 0.02046256 0.02059945 0.02072225 0.02081757 0.02089677 0.02095888
 0.02102609 0.02110576 0.02121021 0.02134488 0.02150527 0.02169149 0.0218983 0.022125 0.02237522 0.02264907
 0.02294738 0.02326924 0.02360614 0.02395695 0.0243117 0.02467009 0.02502573 0.02537964 0.02573035 0.02608045
 0.02643442 0.02679028 0.02715063 0.02750398 0.02784299 0.02816023 0.02844641 0.02871432 0.02896424 0.02921614
 0.02947567 0.02974731 0.03003342 0.03032546 0.030623 0.03091829 0.03121102 0.0314975 0.03177807 0.03205433
 0.03232712 0.03260233 0.03287892 0.03315714 0.03343471 0.03370538 0.03397183 0.03423358 0.03449852 0.03477369
 0.03506724 0.03538519 0.03573839 0.03613284 0.03657769 0.03708026 0.03763015 0.03822853 0.03885198 0.03949586
 0.04015802 0.04083676 0.0415561 0.04231717 0.04313836 0.04401897 0.0449589 0.04595596 0.04700042 0.04808809
 0.04920043 0.05033555 0.05147709 0.05263424 0.05381431 0.0550232 0.05628025 0.05755414 0.0588435 0.0600721
 0.06121214 0.06217556 0.06292748 0.06341513 0.06361191 0.06354651 0.06320997 0.06271581 0.06207044 0.0614014
 0.06071491 0.06008479 0.05951073 0.05901684 0.05860016 0.05826166 0.05799406 0.05777721 0.05760052 0.05743043
 0.05726351 0.05707803 0.05688087 0.05667084 0.05645595 0.05624262 0.05603239 0.05582996 0.05562584 0.05541936
 0.05519549 0.05494826 0.05468289 0.05439652 0.05412102 0.05385936 0.05362601 0.05342132 0.05321894 0.05301818
 0.05280019 0.05257018 0.05234794 0.05213475 0.05194796 0.05177909 0.05161621 0.05145657 0.05128822 0.05111865
 0.05095154 0.05079253 0.05064667 0.05051788 0.05041057 0.05032198 0.05025771 0.05018736 0.05010373 0.0499922
 0.04984424 0.04970268 0.04957043 0.04948254 0.04944041 0.04943077 0.0494503 0.04945758 0.04945186 0.04940624
 0.04932596 0.04921266 0.04907453 0.04892846 0.04878476 0.04866731 0.04857966 0.04853812 0.04853098 0.04855594
 0.04859872 0.04865 0.0487071 0.04876554 0.04883284 0.04890873 0.04900703 0.04913065 0.04928266 0.0494657
 0.04964418 0.04981606 0.04992384 0.04996734 0.04992452 0.04980166 0.04962172 0.04938957 0.04913171 0.04885275
 0.04857064 0.04830096 0.04807401 0.04790467 0.04782522 0.047827 0.04791697 0.04807355 0.04828999 0.04854156
 0.04882117 0.04909967 0.04936695 0.04961822 0.04984919 0.05008056 0.05031514 0.05054468 0.05076878 0.0509653
 0.05113826 0.05132884 0.05154325 0.05184613 0.05222231 0.05265756 0.05312798 0.05356634 0.05397442 0.05432217
 0.05462764 0.05490148 0.05515154 0.05538778 0.05561115 0.05582451 0.05602764 0.05622207 0.05640225 0.05656685
 0.05671379 0.05684226 0.05695477 0.05705212 0.0571247 0.05717205 0.05718752 0.05717302 0.0571516 0.0571235
 0.0571058 0.05708895 0.05704641 0.05697562 0.05685043 0.05669101 0.05651671 0.05634758 0.05621688 0.05612374
 0.05608075 0.05607374 0.05610459 0.05613868 0.05617028 0.0561466 0.05604968 0.05587076 0.05559853 0.05529659
 0.05496927 0.05467344 0.05441218 0.05417693 0.05396617 0.05375609 0.0535506 0.05336116 0.053192 0.05306701
 0.05298065 0.05293525 0.052916 0.05290146 0.0528776 0.05281686 0.05272384 0.05258987 0.05243374 0.05226799
 0.05208692 0.05189734 0.05166364 0.05137655 0.05102199 0.0505932 0.05011143 0.04957768 0.04901236 0.04841666
 0.04781599 0.04721374 0.04666195 0.04616146 0.04574798 0.04541153 0.04513528 0.04491108 0.04470946 0.04453254
 0.04437526 0.04422883 0.04408661 0.04392602 0.04372536 0.04347735 0.0431674 0.04281379 0.04241493 0.04200832
 0.041597 0.0412402 0.04094709 0.04076395 0.04070018 0.04071741 0.04081388</values></Ydata></AB><ScSm><Ydata ylabel="Single channel"><values byteorder="INTEL" format="FLOAT32" numvalues="1814"> 0.07039423 0.07041941 0.0705048 0.07066651 0.07087301 0.07106666 0.07120456 0.07128273 0.07131615 0.07130599
 0.07125536 0.07121409 0.07126369 0.07143609 0.07166769 0.07184524 0.07189596 0.07185034 0.07182438 0.07190737
 0.07204108 0.07203639 0.07175017 0.07124916 0.07076685 0.07048711 0.07042895 0.07058762 0.07105158 0.07177337
 0.07231245 0.07215163 0.07134708 0.07056037 0.07032246 0.07052599 0.07073232 0.07067642 0.07034767 0.06990098
 0.06971015 0.07026128 0.07167277 0.0733076 0.07400528 0.07281043 0.06965224 0.06557156 0.06234712 0.06154196
 0.06339446 0.06649457 0.06884266 0.06944669 0.06879809 0.06786366 0.06705246 0.06633789 0.06591219 0.06620964
 0.06729622 0.06847655 0.06865263 0.0672504 0.06490507 0.06302595 0.06252293 0.06322876 0.06463616 0.06645004
 0.0678297 0.06695318 0.06280483 0.05744492 0.05509425 0.05812148 0.06451721 0.06987226 0.07130709 0.06906435
 0.06520667 0.06190685 0.06065491 0.06185531 0.06472665 0.0679556 0.0705079 0.07168664 0.07095154 0.06838286
 0.06514198 0.06290585 0.06283496 0.065125 0.06896906 0.07261969 0.0741791 0.07300626 0.07014605 0.06721869
 0.0653512 0.0651837 0.06702097 0.07050487 0.07460404 0.07822493 0.08066196 0.08164839 0.08139728 0.08046985
 0.07935151 0.07838152 0.07806098 0.07873822 0.07979646 0.07989506 0.07843701 0.07636704 0.07519421 0.07543041
 0.0761845 0.07624397 0.07530013 0.07373345 0.07140239 0.0676467 0.06278878 0.05851103 0.05617107 0.05577685
 0.05699875 0.05969727 0.06273668 0.06390715 0.06233821 0.06004452 0.05991679 0.06264258 0.06635722 0.06893963
 0.06997764 0.0706282 0.07211946 0.07448743 0.07640368 0.07616779 0.0733908 0.06995197 0.06867014 0.07053798
 0.07377604 0.07603566 0.07688025 0.07752474 0.07870777 0.07954589 0.07844805 0.07499778 0.07098387 0.06930885
 0.07146307 0.07602975 0.07970706 0.07975258 0.07583119 0.0701005 0.06552706 0.06383143 0.0650136 0.06846902
 0.07365564 0.07952148 0.08424088 0.08623394 0.0853193 0.08261713 0.07927875 0.07542733 0.07076417 0.06632829
 0.06470713 0.0675782 0.07355031 0.07932372 0.08263594 0.0833858 0.08233602 0.0797039 0.0753805 0.07029479
 0.06686007 0.06709902 0.07021382 0.07304494 0.0733875 0.07199781 0.07095198 0.07103547 0.07146268 0.07150397
 0.07151892 0.07235497 0.07415628 0.07605633 0.07703338 0.07684583 0.07606086 0.07538176 0.07500994 0.07451132
 0.0734282 0.07220036 0.0721021 0.07384965 0.0766145 0.07887289 0.07992767 0.08015589 0.08000158 0.07921189
 0.07722585 0.07425448 0.07171607 0.07118185 0.07285126 0.07543236 0.07748568 0.07845414 0.0785087 0.07802466
 0.07733563 0.07662787 0.07598868 0.07563646 0.07586998 0.07664076 0.07745615 0.07787423 0.07786424 0.07758532
 0.07707484 0.07631035 0.0754319 0.07475083 0.07452907 0.074782 0.07531009 0.07588015 0.07630964 0.07643766
 0.07618546 0.07567073 0.07512728 0.07468742 0.07435054 0.07414345 0.07415674 0.07439171 0.07469214 0.07488192
 0.07490374 0.07479492 0.07459329 0.07431354 0.07398291 0.07366308 0.07343931 0.07337395 0.07344031 0.07352797
 0.07355912 0.07356513 0.07359295 0.07358764 0.07345194 0.07319207 0.07292459 0.0727519 0.07268551 0.07267492
 0.07265559 0.07255724 0.07231036 0.07190639 0.07146795 0.07120147 0.0712295 0.07149731 0.07185952 0.07219607
 0.0724257 0.07250279 0.07245603 0.07236817 0.07227702 0.07213992 0.0719171 0.07165805 0.0714902 0.07152168
 0.07174302 0.07202821 0.07224362 0.07233821 0.07233422 0.07228869 0.07227533 0.07233399 0.07241298 0.07241616
 0.07232295 0.07221621 0.0721828 0.07222205 0.07225948 0.07223407 0.07216674 0.07213749 0.072194 0.07230365
 0.07240531 0.07248119 0.07255888 0.07265709 0.07274307 0.07274991 0.07264949 0.07250096 0.07239689 0.0723663
 0.07236999 0.07238512 0.0724412 0.07255888 0.07269504 0.07277693 0.07277959 0.07274871 0.07274114 0.07275517
 0.07273804 0.07265884 0.0725496 0.07246853 0.07244413 0.07246276 0.07249238 0.07250509 0.07248694 0.07243916
 0.07237326 0.07230079 0.07222584 0.07215281 0.07210436 0.07211643 0.07219571 0.07228622 0.07230179 0.07220314
 0.07203715 0.07189305 0.07182033 0.07179153 0.0717438 0.07164831 0.07153101 0.07143322 0.07137048 0.071331
 0.07129657 0.07125878 0.07123073 0.07125076 0.07135502 0.07152738 0.07168977 0.07176567 0.0717518 0.07171261
 0.07171128 0.07176341 0.0718486 0.07194355 0.07204482 0.07217005 0.07232888 0.07249141 0.07260872 0.07267293
 0.07273142 0.07283517 0.07299888 0.07321031 0.07344037 0.07363939 0.07376546 0.07383385 0.07390951 0.07403722
 0.07420208 0.07436685 0.07452242 0.07468505 0.07486406 0.07505584 0.07526395 0.07550531 0.07579126 0.07610755
 0.07641508 0.07667354 0.07687539 0.07706195 0.07729663 0.07761233 0.07798459 0.07835656 0.07868746 0.07897935
 0.07926115 0.07955052 0.07984014 0.08012684 0.08043714 0.08080131 0.08121021 0.08162229 0.08201082 0.08238298
 0.08275472 0.08312885 0.08350259 0.08388296 0.08428702 0.08472431 0.08517513 0.08559218 0.08593735 0.08622007
 0.08649333 0.08681325 0.08720066 0.08762409 0.08801214 0.08830595 0.08852172 0.08874489 0.08903999 0.08938198
 0.08970225 0.08998685 0.09029095 0.09065666 0.09105311 0.0914135 0.09171024 0.09197474 0.09225166 0.0925471
 0.0928233 0.09304101 0.09320475 0.09335893 0.09354073 0.09375382 0.09399613 0.09428634 0.09463492 0.09500457
 0.09533183 0.09558363 0.09577167 0.09592274 0.09606017 0.09620292 0.09635691 0.09651248 0.09666291 0.09681046
 0.09694773 0.0970616 0.09716925 0.09731942 0.0975389 0.09780496 0.09808745 0.09838754 0.09871168 0.09903705
 0.09933947 0.09964044 0.0999838 0.1003604 0.1006928 0.1009127 0.1010275 0.1010883 0.1011256 0.1011492
 0.1011857 0.1012663 0.1013773 0.1014577 0.101448 0.1013223 0.1010784 0.1007233 0.1002749 0.09976708
 0.09925313 0.09880781 0.09852009 0.09847122 0.09870686 0.09921277 0.09990536 0.1006551 0.1013352 0.1018545
 0.1021549 0.1022091 0.1020402 0.101722 0.101323 0.1008409 0.1002088 0.09936012 0.09827495 0.09696541
 0.09544608 0.09373879 0.09190135 0.09003741 0.08827124 0.08671181 0.08544046 0.08452378 0.08401723 0.0839325
 0.08419438 0.08463936 0.08506422 0.08527649 0.0851182 0.08448851 0.08338183 0.08190084 0.08020875 0.07845891
 0.0767608 0.0751837 0.07376926 0.07255522 0.07161689 0.07108845 0.07112751 0.07184608 0.07325999 0.07527381
 0.07769269 0.0802641 0.08275233 0.08501285 0.08701497 0.0888007 0.09042674 0.09193945 0.09337692 0.09476344
 0.09609919 0.09737194 0.09857967 0.09972743 0.1008045 0.1017759 0.1025917 0.1031943 0.1035312 0.1035793
 0.1033631 0.1029522 0.102445 0.1019325 0.1014361 0.1008644 0.1000548 0.09888145 0.09734043 0.09556483
 0.09380019 0.09237587 0.09166408 0.09200108 0.0935736 0.09632197 0.09993444 0.1039547 0.1079338 0.1115354
 0.1145743 0.1170184 0.1189625 0.1205617 0.1219566 0.1232335 0.1244296 0.125552 0.1265939 0.127549
 0.1284227 0.1292332 0.1300031 0.1307454 0.1314526 0.1321043 0.1326942 0.1332482 0.1338102 0.1344052
 0.135016 0.1356023 0.1361449 0.136665 0.1371896 0.1377078 0.1381844 0.138611 0.1390221 0.1394565
 0.1399243 0.1404102 0.1408886 0.1413327 0.1417279 0.1420837 0.1424238 0.1427633 0.1431032 0.1434432
 0.1437849 0.1441243 0.1444526 0.1447716 0.1450975 0.1454409 0.1457857 0.1460982 0.1463601 0.1465878
 0.1468159 0.1470665 0.1473337 0.1475962 0.147845 0.1480994 0.1483917 0.1487327 0.1490952 0.1494361
 0.1497326 0.1499934 0.1502425 0.1504994 0.1507731 0.1510647 0.1513675 0.1516692 0.1519611 0.1522431
 0.1525197 0.1527917 0.1530575 0.1533172 0.153572 0.1538214 0.1540636 0.1542977 0.1545279 0.1547668
 0.15503 0.1553193 0.1556154 0.1558933 0.1561458 0.1563847 0.1566231 0.1568653 0.1571147 0.1573788
 0.1576631 0.1579626 0.1582636 0.1585554 0.1588383 0.1591233 0.1594214 0.159733 0.1600476 0.1603519
 0.1606411 0.1609213 0.1612023 0.1614875 0.1617706 0.1620436 0.1623074 0.1625729 0.1628496 0.1631354
 0.1634201 0.1636976 0.1639694 0.1642383 0.1645055 0.1647753 0.1650524 0.1653334 0.1656079 0.1658721
 0.1661327 0.1663954 0.1666581 0.1669187 0.1671806 0.1674466 0.1677121 0.16797 0.1682202 0.1684686
 0.1687189 0.1689686 0.1692151 0.1694612 0.1697118 0.1699692 0.1702341 0.1705066 0.170782 0.1710519
 0.1713107 0.1715585 0.1717978 0.1720331 0.1722703 0.1725128 0.1727598 0.17301 0.1732619 0.1735101
 0.1737491 0.1739801 0.1742111 0.17445 0.1746987 0.1749529 0.1752063 0.1754597 0.1757202 0.1759896
 0.1762592 0.1765205 0.1767738 0.1770244 0.1772751 0.1775255 0.1777733 0.1780171 0.1782576 0.1784942
 0.1787269 0.1789603 0.1791999 0.1794442 0.1796883 0.1799334 0.1801851 0.1804457 0.1807145 0.1809903
 0.1812693 0.181547 0.181821 0.1820877 0.1823423 0.1825901 0.1828446 0.1831125 0.1833884 0.1836644
 0.1839348 0.1841964 0.1844516 0.1847045 0.1849542 0.1852013 0.1854551 0.1857216 0.1859935 0.1862619
 0.1865267 0.1867904 0.1870551 0.187327 0.1876102 0.1878987 0.1881835 0.1884571 0.1887147 0.1889597
 0.1892038 0.1894496 0.1896893 0.1899267 0.1901764 0.1904404 0.1907078 0.1909736 0.1912383 0.1914995
 0.1917564 0.1920106 0.1922598 0.1925058 0.1927597 0.1930229 0.193283 0.1935355 0.1937842 0.1940151
 0.1941795 0.1941526 0.1936312 0.192021 0.1884167 0.1817709 0.1713028 0.1569898 0.1397547 0.121144
 0.1027539 0.08580263 0.07100192 0.0586533 0.048816 0.04141273 0.0362846 0.03328616 0.03239731 0.03384664
 0.03823935 0.04619636 0.0570021 0.06740989 0.07290602 0.07127247 0.06470589 0.05781543 0.05379349 0.05287205
 0.05369405 0.05509983 0.05672139 0.05876645 0.06159514 0.0653127 0.06974679 0.07488282 0.08108194 0.08861487
 0.09709576 0.1056402 0.1136262 0.1211802 0.1288738 0.1370255 0.1453588 0.1532702 0.1603054 0.1663817
 0.1716916 0.1764956 0.180978 0.1852256 0.1892793 0.193136 0.1966615 0.1995502 0.2014716 0.2023224
 0.2023474 0.201999 0.2016705 0.2015446 0.2016391 0.201923 0.2023717 0.2029661 0.203686 0.2045064
 0.2053936 0.2063125 0.2072352 0.2081368 0.2089929 0.2097884 0.2105194 0.2111869 0.2117932 0.2123455
 0.2128515 0.2133167 0.2137485 0.2141543 0.2145367 0.2148975 0.2152443 0.2155812 0.2158998 0.2161876
 0.2164432 0.2166772 0.2169048 0.2171366 0.2173724 0.2176035 0.2178258 0.2180456 0.2182714 0.2185037
 0.2187345 0.2189547 0.2191606 0.2193582 0.2195575 0.2197644 0.2199765 0.2201876 0.2203923 0.2205898
 0.2207853 0.2209878 0.2212009 0.2214182 0.221629 0.221828 0.2220196 0.222215 0.2224202 0.2226297
 0.2228354 0.2230408 0.2232552 0.2234801 0.2237117 0.2239499 0.2241931 0.224433 0.224665 0.2248951
 0.2251244 0.2253388 0.2255243 0.2256887 0.2258624 0.2260737 0.2263213 0.2265749 0.2268067 0.227017
 0.2272211 0.2274254 0.2276236 0.2278077 0.2279803 0.2281634 0.2283835 0.2286391 0.2289011 0.2291532
 0.2294037 0.229656 0.2299019 0.2301435 0.2303839 0.2305993 0.2307602 0.2308839 0.2310416 0.2313007
 0.2316599 0.2320421 0.2323624 0.2326044 0.2328172 0.2330531 0.2333313 0.2336221 0.2338333 0.2338744
 0.2337953 0.233807 0.2340892 0.2346125 0.2351942 0.2356852 0.2360601 0.2363669 0.2366426 0.2368754
 0.2370191 0.2370486 0.2370196 0.2370782 0.2373621 0.2378602 0.2384085 0.2388547 0.2391762 0.2394206
 0.2396228 0.239803 0.2399292 0.2398644 0.2395127 0.2390783 0.2390121 0.2395761 0.2405467 0.2414492
 0.2420247 0.2423654 0.2426533 0.2429364 0.2431732 0.24327 0.2429816 0.2420584 0.2407368 0.2398624
 0.2401862 0.2416084 0.2433352 0.2446692 0.2454437 0.2458415 0.2460863 0.2462944 0.2463907 0.2461233
 0.2453476 0.2443924 0.243972 0.2445271 0.2457312 0.2468453 0.247472 0.2477539 0.2479759 0.2482502
 0.2484399 0.2480973 0.2467104 0.2444583 0.2426014 0.2425947 0.2446635 0.2475355 0.2497057 0.2507339
 0.2511259 0.2512259 0.2507119 0.2491801 0.2467459 0.2439839 0.2417736 0.2412072 0.2428633 0.2458751
 0.2484157 0.2495026 0.2498249 0.2505691 0.2519937 0.2534199 0.2541364 0.2539569 0.2530915 0.2517559
 0.2500749 0.2484618 0.2478311 0.2489469 0.2515012 0.25423 0.2560829 0.2570174 0.2574445 0.2569986
 0.2542987 0.2486141 0.2419283 0.2383775 0.2405959 0.2469615 0.253337 0.2571303 0.2586991 0.2594106
 0.259818 0.259511 0.2573266 0.2519608 0.2440056 0.2372715 0.2362185 0.2415332 0.2493499 0.2548719
 0.2556689 0.2519451 0.2456455 0.2398529 0.2375335 0.2397449 0.2451835 0.2514746 0.2565933 0.2594034
 0.2596449 0.2578344 0.255211 0.2534195 0.2533274 0.2537355 0.2522796 0.2484153 0.2443344 0.2417388
 0.2391837 0.2347369 0.2302454 0.2300989 0.2355278 0.2425431 0.246423 0.2464847 0.245195 0.2436613
 0.2397124 0.2310031 0.2194117 0.2110685 0.210937 0.2176129 0.2245365 0.2263284 0.2229689 0.2179195
 0.2135522 0.2090053 0.201925 0.191939 0.1822318 0.1769749 0.1770468 0.1793484 0.180462 0.1792966
 0.175859 0.1702469 0.1647028 0.1642638 0.1723557 0.1864308 0.1999204 0.2075518 0.2071537 0.1984755
 0.1841027 0.1711218 0.1676277 0.1754455 0.1879221 0.1960757 0.1957124 0.1880917 0.1760885 0.1623006
 0.1503481 0.1451207 0.149785 0.1626318 0.1772349 0.1856399 0.1827087 0.1701181 0.1567376 0.1522196
 0.1581958 0.1671874 0.1710294 0.1682996 0.1630412 0.159522 0.1597797 0.1634322 0.1680979 0.1715734
 0.1735762 0.1732883 0.1669765 0.1525246 0.1355049 0.1255496 0.1263357 0.1336302 0.1430331 0.1539293
 0.164557 0.1692749 0.1649444 0.156963 0.1547308 0.161673 0.1722742 0.1788113 0.1790001 0.1764424
 0.1750077 0.1746555 0.1734246 0.1720108 0.1738863 0.1805288 0.1888377 0.1945971 0.1968511 0.1974898
 0.1980185 0.1984104 0.1982216 0.1973072 0.1957542 0.1939696 0.1925528 0.191658 0.1908717 0.1898485
 0.1883138 0.1851341 0.1785618 0.1687062 0.1591215 0.1540316 0.1538688 0.1554961 0.1568102 0.1579924
 0.1573138 0.1499436 0.1344246 0.1179165 0.1109818 0.1174076 0.131429 0.1442709 0.1508462 0.1501403
 0.1425235 0.1299187 0.1180328 0.1146485 0.1232402 0.1395657 0.1561642 0.1687815 0.1768712 0.18003
 0.1772401 0.1695284 0.161103 0.1569963 0.1599748 0.169251 0.1807381 0.1881037 0.1858224 0.1746538
 0.1642264 0.1659909 0.1811521 0.198633 0.207514 0.2081503 0.2078486 0.209525 0.2101805 0.2088168
 0.2096963 0.2163866 0.2264085 0.2336353 0.2336502 0.2254623 0.2108406 0.1946356 0.1836133 0.181288
 0.1843907 0.1869024 0.1861764 0.182403 0.1748568 0.1638453 0.1550364 0.1558968 0.1668801 0.180323
 0.1890882 0.1930392 0.1959699 0.19901 0.1992313 0.1941478 0.1859796 0.1803283 0.180629 0.1851026
 0.1896575 0.1921326 0.1923492 0.1897409 0.1837121 0.1763386 0.1723495 0.1750691 0.1830392 0.1914299
 0.1963708 0.1973555 0.1961174 0.1943944 0.1927948 0.1908928 0.1882894 0.1860527 0.1865408 0.1908003
 0.1967149 0.2010705 0.2031624 0.2050273 0.2082295 0.2117541 0.2133871 0.2123132 0.2099832 0.2088489
 0.2103899 0.2139446 0.2171751 0.2179697 0.2163946 0.2148308 0.2158186 0.2196565 0.2243864 0.2279913
 0.2300375 0.2312574 0.2323435 0.2333543 0.2336886 0.232556 0.2300908 0.2279905 0.2283018 0.2313703
 0.2354844 0.2386115 0.240018 0.2401708 0.2396588 0.2386078 0.2369755 0.2350489 0.2334499 0.232672
 0.232741 0.2333412 0.2341318 0.234883 0.2354662 0.2358607 0.2361356 0.236363 0.2365673 0.2367524
 0.2369035 0.236949 0.2368016 0.2364753 0.2361057 0.2358086 0.2355614 0.2352643 0.2348656 0.2343519
 0.2336513 0.2326517 0.2313313 0.229786 0.2280955 0.226257 0.224347 0.2227203 0.2219165 0.2222694
 0.2235963 0.2252995 0.2267694 0.2276973 0.2280878 0.228101 0.2279255 0.2277268 0.2276127 0.2276069
 0.2276667 0.2277432 0.2278227 0.2279162 0.228028 0.2281528 0.2282938 0.2284581 0.228631 0.2287667
 0.2288096 0.2287258 0.2285182 0.2282158 0.2278412 0.2273826 0.2267982 0.2260503 0.2251354 0.2240871
 0.2229641 0.2218336 0.2207402 0.2196721 0.2185682 0.2173671 0.2160301 0.2145233 0.2128288 0.2110058
 0.2091941 0.2075096 0.205954 0.2044466 0.2029191 0.2013566 0.1997837 0.1982448 0.196793 0.1954726
 0.1943042 0.193281 0.1923732 0.191539 0.1907346 0.1899185 0.1890512 0.188106 0.1870839 0.1860134
 0.1849187 0.18377 0.1824557 0.1808043 0.1786295 0.1757739 0.1721599 0.1678439 0.163029 0.1580105
 0.1530892 0.1485034 0.1443996 0.1408429 0.1378509 0.1354178 0.1335244 0.1321507 0.131289 0.130941
 0.1311069 0.1317794 0.1329307 0.1344923 0.1363526 0.1383737 0.1404128 0.1423515 0.1441356 0.1457905
 0.1473824 0.1489542 0.1504938 0.1519598 0.1533303 0.1546126 0.155803 0.1568636 0.1577576 0.1584862
 0.1590797 0.1595718 0.1599974 0.1603909 0.1607718 0.1611432 0.1615094 0.1618852 0.1622956 0.16277
 0.1633256 0.1639576 0.1646553 0.1654242 0.1662819 0.1672423 0.1683117 0.1694834 0.1707263 0.1719903
 0.173234 0.1744499 0.1756678 0.1769378 0.1783035 0.1797898 0.1814139 0.183189 0.1851065 0.1871189
 0.1891489 0.1911167 0.1929611 0.1946432 0.1961358 0.1974222 0.1985123 0.1994439 0.2002544 0.2009628
 0.2015783 0.2021046 0.2025303 0.202837 0.2030172 0.2030713 0.203006 0.2028521 0.2026646 0.2024852
 0.2023176 0.2021465 0.2019657 0.2017832 0.2016102 0.2014472 0.2012804 0.2010952 0.200887 0.2006512
 0.2003734 0.2000356 0.199617 0.1990887 0.1984276 0.1976374 0.19674 0.1957512 0.1946761 0.1935168
 0.1922708 0.1909328 0.1895028 0.1879882 0.1863968 0.1847315 0.1829803 0.181119 0.1791489 0.1771312
 0.1751608 0.1733013 0.1715611 0.1699201 0.1683622 0.1668851 0.1654927 0.164177 0.1629171 0.1617036
 0.1605562 0.1595001 0.1585348 0.1576376 0.1567929 0.1560081 0.1552974 0.1546537 0.1540478 0.1534647
 0.1529284 0.1524803 0.1521487 0.1519463 0.1518709 0.1518865 0.1519228 0.1519125 0.1518269 0.1516789
 0.1515056 0.1513464 0.1512216 0.1511314 0.1510646 0.1509935 0.1508611 0.1505862 0.1500813 0.149272
 0.148122 0.1466562 0.1449552 0.1431355 0.1413342 0.1396841 0.1382772 0.1371523 0.1363044 0.1356803
 0.1351845 0.1347382 0.1343417 0.1340664 0.1339834 0.1340875 0.1342643 0.1343534 0.1342835 0.1341438
 0.1341031 0.1342728 0.1346483 0.1351374 0.1356242 0.1360283 0.136318 0.1364806 0.1365134 0.13644
 0.1362942 0.1360825 0.1357958 0.1354453 0.1350556 0.1346379 0.1341853 0.133676 0.1330838 0.1324006
 0.1316303 0.130757 0.1297559 0.1286286 0.1273769 0.1259801 0.1244766 0.1230419 0.1219162 0.1212575
 0.1210649 0.1211964 0.1214604 0.1217299 0.1219388 0.1219694 0.1217089 0.1213376 0.1214261 0.1225277
 0.1246404 0.1271537 0.1293407 0.1308357 0.1316485 0.1318893 0.1316243 0.1309015 0.1297367 0.1280981
 0.1260086 0.1236019 0.1210229 0.1183817 0.1158245 0.1135167 0.1115584 0.1099893 0.1088095 0.1080352
 0.1077658 0.1076684 0.1060659 0.1008027 0.09257226 0.08642069 0.08751379 0.09532161 0.1039717 0.1084549
 0.1086253 0.1071498 0.1058739 0.1050783 0.1046647 0.1047503 0.1054395 0.1065979 0.1078732 0.1089046
 0.1095483 0.1098378 0.1097295 0.1089138 0.1067692 0.1025584 0.09602413 0.08793545 0.07982842 0.07310049
 0.06838337 0.06556828 0.06411114 0.06335115 0.06283784 0.0625291 0.06268687 0.06356982 0.06521626 0.06748608
 0.07020977 0.07317607 0.07602949 0.07839881 0.08018611 0.0815735 0.08271284 0.08355291 0.0839783 0.08397286
 0.0836247 0.08306518 0.08241511 0.08173052 0.08097668 0.08007421 0.07901871 0.07797976 0.07721849 0.07685342
 0.0767705 0.07679628 0.07685797 0.07694215 0.07702127 0.07707518 0.07711254 0.0771627 0.07728721 0.07755151
 0.07794152 0.07835402 0.07868592 0.07890259 0.07903619 0.07911837 0.07907642 0.07877257 0.078247 0.07777756
 0.07750541 0.07715235 0.07637262 0.07529055 0.07443686 0.07418949 0.07446033 0.07488778 0.07516494 0.07518789
 0.07505681 0.07501792 0.07529291 0.0758284</values></Ydata></ScSm><ScRf><Ydata ylabel="Single channel"><values byteorder="INTEL" format="FLOAT32" numvalues="1820"> 0.06048863 0.06064153 0.06073952 0.06078063 0.0607866 0.06079896 0.06086116 0.06099253 0.06117336 0.06135321
 0.06148346 0.06155127 0.0615737 0.06156234 0.06152202 0.06148877 0.06152831 0.06167173 0.06187 0.062027
 0.06207614 0.06203748 0.06200771 0.06206708 0.06217247 0.06216433 0.06191644 0.06148201 0.06106217 0.06081908
 0.06077281 0.06091937 0.06133094 0.0619612 0.06242685 0.06228224 0.06157959 0.06089444 0.06068674 0.06085969
 0.0610276 0.06095894 0.06064919 0.060241 0.06006568 0.06054819 0.06178939 0.06322898 0.06384914 0.06281315
 0.06005926 0.05649694 0.0536783 0.05296661 0.05457194 0.05726901 0.05931602 0.05984457 0.0592799 0.05846938
 0.05777673 0.05717374 0.05680968 0.0570525 0.05797283 0.05898768 0.05914718 0.05793922 0.05590539 0.05427197
 0.05383383 0.05444511 0.05566431 0.05723666 0.05843098 0.05766074 0.05404416 0.04937944 0.04734202 0.04998929
 0.05556577 0.06022977 0.06147496 0.05951629 0.05615541 0.05328781 0.05220712 0.0532563 0.05574989 0.05854835
 0.06075808 0.06177576 0.06113309 0.05890238 0.05609283 0.05415684 0.05409951 0.0560941 0.05944323 0.06262453
 0.06397967 0.06294806 0.06044512 0.05789031 0.05626855 0.05613413 0.05774758 0.06079406 0.06437457 0.06753819
 0.06967159 0.07053815 0.07031786 0.06950568 0.06854044 0.0677219 0.06746887 0.06806494 0.06897222 0.06903636
 0.06774858 0.06593595 0.0649129 0.06512252 0.0657852 0.06584467 0.06503318 0.0636784 0.06164903 0.05836689
 0.05411962 0.05038281 0.04834231 0.04800319 0.04908105 0.05146125 0.05415243 0.05521353 0.05386913 0.0518701
 0.05174319 0.0541001 0.05732719 0.05958224 0.06050467 0.06109459 0.06241147 0.06447937 0.06614247 0.06592889
 0.06350933 0.06052451 0.05942838 0.06108143 0.06392835 0.06592157 0.0666858 0.06728573 0.06836291 0.0691368
 0.06821343 0.06523636 0.06177863 0.06037372 0.06230858 0.06633505 0.06957179 0.06962954 0.06621917 0.061233
 0.0572729 0.05584516 0.05694873 0.06006192 0.06471992 0.0699991 0.07428548 0.0761752 0.07548939 0.07319791
 0.07031259 0.0669491 0.06285252 0.05895957 0.05759137 0.06025838 0.06572378 0.07103467 0.07415716 0.07498736
 0.07419367 0.07195288 0.0681528 0.06364094 0.06063703 0.06100937 0.0640328 0.06680065 0.06727371 0.06613843
 0.06531003 0.06552464 0.06606402 0.06625368 0.0664297 0.0673859 0.06925845 0.0712332 0.07234399 0.07235149
 0.07178204 0.07130605 0.07112493 0.07082766 0.06997886 0.0690105 0.06915012 0.07106911 0.07394607 0.07630844
 0.0775035 0.07791922 0.07798851 0.07744235 0.07570426 0.07297209 0.07065612 0.07033031 0.07220751 0.0750056
 0.07727984 0.07846415 0.07873294 0.07847075 0.07801104 0.07753442 0.07712944 0.07701924 0.07749754 0.0784997
 0.07951985 0.08011895 0.08027973 0.08016646 0.0798081 0.07917963 0.07843887 0.07792078 0.07789203 0.07835171
 0.07908212 0.07984455 0.08045739 0.08075233 0.08063672 0.08023086 0.07979822 0.07950404 0.0793542 0.07935835
 0.07958858 0.08003464 0.08052984 0.08088874 0.08105555 0.08108307 0.0810262 0.08090081 0.08072138 0.08054771
 0.08048378 0.08060239 0.08085597 0.08110982 0.08130103 0.08150223 0.08176956 0.08199988 0.0820354 0.08187207
 0.0816728 0.08158806 0.08163264 0.08172984 0.08180285 0.081791 0.08163171 0.08131322 0.08096179 0.08080138
 0.08097566 0.08144264 0.08205079 0.08264633 0.08310057 0.08334056 0.08340257 0.0833905 0.08335377 0.08325742
 0.0830792 0.08289053 0.08282919 0.08299882 0.08337853 0.08382892 0.08419923 0.08442082 0.08451144 0.08454889
 0.0846402 0.08483414 0.08504242 0.08512154 0.08505276 0.0849746 0.08501601 0.08515063 0.08524263 0.08520974
 0.08511539 0.08509816 0.08522476 0.08543509 0.08562967 0.08577961 0.08593455 0.08613689 0.08634121 0.0864325
 0.086345 0.08615141 0.08599333 0.08593337 0.08593191 0.08596291 0.08607032 0.08627793 0.08650631 0.08663781
 0.08664733 0.08662486 0.08666143 0.08674188 0.08676956 0.08668117 0.08651145 0.08635239 0.08627631 0.08629752
 0.08637711 0.08644813 0.08645365 0.08638205 0.08626905 0.08616063 0.08607832 0.08603145 0.0860545 0.08619592
 0.08644208 0.08667052 0.08672345 0.08655065 0.08626796 0.08605657 0.08600026 0.08602361 0.08598406 0.08581069
 0.08554985 0.08529665 0.08510841 0.08498212 0.08488733 0.08480477 0.0847474 0.08475663 0.08485949 0.08500816
 0.08508156 0.08498529 0.08474859 0.08449557 0.08432841 0.08426338 0.08425868 0.08426522 0.08426203 0.0842727
 0.08433089 0.08441305 0.08444148 0.08437693 0.08427247 0.08421896 0.08427334 0.08443943 0.08466074 0.08482487
 0.08483948 0.08472903 0.08461641 0.08459659 0.0846624 0.08475557 0.08484441 0.08493207 0.08502351 0.0851187
 0.08523204 0.085393 0.08561695 0.0858805 0.08612914 0.08631231 0.08642189 0.08650745 0.08664705 0.08688689
 0.08720203 0.0875186 0.08777668 0.08797396 0.08815214 0.08834505 0.08855066 0.08875918 0.08898887 0.08926764
 0.08958685 0.08990453 0.09019469 0.09046881 0.09074719 0.09103252 0.09131916 0.0916187 0.09196563 0.0923835
 0.09283517 0.0932243 0.09347351 0.0936005 0.09370585 0.09389581 0.09421435 0.09461278 0.0949685 0.09517676
 0.09525741 0.09534207 0.09552906 0.09578559 0.09602758 0.0962581 0.09656714 0.09699992 0.09747626 0.09786092
 0.09809217 0.0982271 0.09836856 0.0985584 0.09874721 0.09886996 0.09893583 0.09901734 0.0991594 0.09934407
 0.09955686 0.09983407 0.1002048 0.1006213 0.1009932 0.1012733 0.1014785 0.1016431 0.1017813 0.1018835
 0.1019311 0.1019267 0.1019194 0.1019697 0.1020781 0.1021797 0.1022267 0.1022475 0.1023061 0.1024361
 0.1026382 0.1029077 0.1032247 0.1035375 0.103806 0.1040617 0.1043758 0.1047473 0.1050711 0.1052513
 0.1053093 0.1053381 0.1053841 0.1054331 0.1054952 0.105629 0.1058694 0.1061809 0.1065066 0.106829
 0.1071633 0.1075115 0.1078385 0.1080855 0.1082055 0.1082028 0.1081459 0.1081358 0.1082482 0.1084918
 0.1088105 0.1091269 0.1093896 0.1095801 0.1096832 0.1096849 0.1096203 0.1095917 0.1096875 0.1098798
 0.1100326 0.1100186 0.1098036 0.1094222 0.1089118 0.1082977 0.107623 0.1069639 0.106404 0.1059979
 0.1057664 0.1057299 0.1059273 0.1063776 0.1070218 0.107733 0.1083893 0.1089116 0.1092287 0.1092564
 0.108954 0.1083805 0.1076659 0.1069333 0.1062543 0.1056446 0.1050731 0.1045044 0.1039762 0.1036349
 0.1036708 0.1042078 0.1052403 0.1066367 0.1081804 0.1096408 0.1108633 0.1118266 0.1126129 0.1133184
 0.113992 0.1146505 0.1153129 0.1159847 0.1166257 0.1171782 0.117636 0.1180516 0.118469 0.1188761
 0.1192286 0.1195 0.1197063 0.1198964 0.1201049 0.1203029 0.1204148 0.1204016 0.1203047 0.1201912
 0.120077 0.1199196 0.1196665 0.1192997 0.1188608 0.118465 0.1182857 0.1184892 0.1191459 0.120185
 0.121443 0.1227648 0.1240481 0.1252064 0.1261441 0.1268094 0.127247 0.127564 0.1278493 0.1281404
 0.1284416 0.1287466 0.1290464 0.1293346 0.1296115 0.1298873 0.1301812 0.1305054 0.1308429 0.1311537
 0.1314152 0.1316531 0.131924 0.1322628 0.1326476 0.1330203 0.1333489 0.1336578 0.13398 0.1342962
 0.1345528 0.1347362 0.1348952 0.1350928 0.1353611 0.1356955 0.1360579 0.1363861 0.1366344 0.1368138
 0.1369788 0.1371745 0.1374064 0.1376572 0.1379112 0.1381616 0.1384064 0.1386518 0.138913 0.1392003
 0.1394954 0.1397545 0.1399485 0.1400974 0.1402529 0.140449 0.1406753 0.1408984 0.1411038 0.141317
 0.1415771 0.1418887 0.1422028 0.1424547 0.1426208 0.1427355 0.1428549 0.143013 0.1432094 0.1434266
 0.1436474 0.1438591 0.1440572 0.1442497 0.1444514 0.1446678 0.1448888 0.1451024 0.1453079 0.1455121
 0.145718 0.1459227 0.1461272 0.1463466 0.1466017 0.1468929 0.1471871 0.1474419 0.1476402 0.1477948
 0.1479296 0.1480663 0.1482214 0.1484007 0.1485966 0.1487978 0.1489985 0.1491981 0.1493971 0.1495962
 0.1497954 0.1499948 0.1501964 0.1504043 0.1506222 0.1508514 0.151089 0.1513247 0.1515446 0.1517412
 0.1519216 0.1521023 0.1522957 0.1524992 0.1526977 0.1528812 0.1530593 0.1532504 0.1534576 0.1536638
 0.1538518 0.1540235 0.154197 0.1543868 0.1545899 0.1547926 0.1549862 0.1551742 0.1553635 0.1555572
 0.1557553 0.1559568 0.1561581 0.1563553 0.1565481 0.1567387 0.1569299 0.1571254 0.1573287 0.1575387
 0.1577484 0.1579501 0.1581419 0.1583282 0.1585152 0.1587065 0.1589029 0.1591059 0.1593153 0.1595269
 0.1597364 0.1599425 0.1601455 0.1603447 0.1605437 0.1607499 0.1609644 0.1611795 0.1613882 0.1615904
 0.1617892 0.1619867 0.1621848 0.162388 0.162604 0.1628387 0.1630853 0.1633242 0.163538 0.1637248
 0.1638944 0.1640606 0.1642341 0.1644155 0.1645957 0.1647682 0.1649365 0.1651083 0.1652882 0.1654769
 0.1656716 0.1658673 0.1660636 0.1662645 0.1664689 0.1666716 0.1668708 0.1670662 0.1672566 0.1674459
 0.1676447 0.1678581 0.1680798 0.1683011 0.1685183 0.1687327 0.168949 0.1691706 0.1693934 0.1696101
 0.1698195 0.1700241 0.1702253 0.1704263 0.1706324 0.1708438 0.1710549 0.1712603 0.1714568 0.1716469
 0.171842 0.1720526 0.1722743 0.1724959 0.1727129 0.1729248 0.1731325 0.173343 0.1735621 0.1737828
 0.173997 0.1742107 0.1744307 0.1746505 0.174864 0.1750752 0.1752868 0.1754971 0.1757062 0.1759129
 0.1761144 0.1763132 0.1765111 0.1766924 0.1768135 0.1767637 0.176266 0.1747721 0.1714475 0.1653318
 0.1557177 0.1425921 0.1267999 0.1097525 0.09291112 0.077397 0.06386673 0.05259526 0.04362848 0.03688362
 0.03220691 0.02946438 0.02864205 0.0299543 0.03395794 0.04122086 0.05108702 0.06058878 0.06560282 0.06410216
 0.05809067 0.05177693 0.04807984 0.04721945 0.04796624 0.04926461 0.05077008 0.05265746 0.05524457 0.05862625
 0.06265368 0.06732698 0.07298464 0.07987192 0.08762874 0.09544074 0.1027348 0.1096249 0.1166397 0.1240804
 0.1316947 0.13892 0.1453337 0.1508672 0.1557107 0.1601088 0.164224 0.1681232 0.1718342 0.1753509
 0.1785548 0.1811769 0.1829252 0.1837069 0.1837383 0.1834271 0.1831325 0.1830212 0.1831069 0.1833611
 0.1837649 0.1843029 0.1849566 0.185701 0.1865019 0.1873255 0.1881521 0.1889669 0.1897476 0.1904736
 0.191139 0.1917494 0.1923137 0.1928386 0.1933238 0.1937653 0.1941665 0.1945389 0.1948912 0.1952277
 0.1955511 0.195859 0.1961431 0.1964009 0.1966424 0.1968794 0.1971164 0.1973511 0.1975775 0.1977914
 0.1979974 0.1982043 0.1984127 0.1986157 0.1988107 0.1990016 0.1991917 0.1993843 0.1995829 0.1997854
 0.1999815 0.2001649 0.2003422 0.2005254 0.200721 0.2009262 0.201134 0.2013402 0.2015444 0.2017457
 0.2019415 0.2021329 0.2023239 0.2025181 0.2027178 0.2029258 0.2031398 0.2033509 0.2035552 0.2037603
 0.2039727 0.20419 0.2044099 0.204634 0.2048536 0.2050473 0.2052047 0.2053445 0.205502 0.2056981
 0.2059217 0.2061424 0.2063427 0.2065319 0.2067285 0.2069369 0.2071444 0.2073336 0.2075005 0.207669
 0.207874 0.2081225 0.2083844 0.208632 0.2088646 0.209092 0.20932 0.2095544 0.2097922 0.2100082
 0.2101776 0.2103163 0.2104821 0.21073 0.2110629 0.2114217 0.2117343 0.2119785 0.2121882 0.2124114
 0.2126773 0.2129699 0.2132033 0.2132817 0.213238 0.2132603 0.2135153 0.2139804 0.2144961 0.2149365
 0.215283 0.2155729 0.2158328 0.2160546 0.2162038 0.2162557 0.2162513 0.2163175 0.2165848 0.2170511
 0.2175671 0.2179867 0.2182864 0.2185161 0.2187141 0.2188962 0.2190252 0.2189699 0.2186413 0.2182301
 0.2181554 0.2186601 0.2195369 0.2203515 0.2208743 0.2211957 0.2214768 0.2217504 0.2219738 0.2220674
 0.2218156 0.22099 0.219799 0.2190102 0.2193135 0.2206238 0.222219 0.2234613 0.2241944 0.2245793
 0.2248208 0.2250329 0.2251487 0.2249255 0.2242177 0.223333 0.2229513 0.2234956 0.224659 0.2257372
 0.2263484 0.2266283 0.2268471 0.2271054 0.2272749 0.2269545 0.225688 0.2236438 0.2219724 0.2220007
 0.2239305 0.2265928 0.2286066 0.2295668 0.2299384 0.2300431 0.2295872 0.2281918 0.2259521 0.2233966
 0.2213456 0.2208171 0.2223483 0.225133 0.2274785 0.2284804 0.2287832 0.2294872 0.230827 0.2321685
 0.2328459 0.2326839 0.2318853 0.2306608 0.2291247 0.2276479 0.2270701 0.228103 0.2304702 0.233006
 0.2347357 0.2356157 0.2360297 0.2356464 0.2331846 0.2279528 0.2217781 0.2184975 0.2205632 0.2264757
 0.2323962 0.2359202 0.2373891 0.2380852 0.2385247 0.2383129 0.2363552 0.2314403 0.2241232 0.2179393
 0.2170193 0.2219965 0.2292912 0.2344675 0.235279 0.2319113 0.2261603 0.2208811 0.2188256 0.2209796
 0.2261381 0.2320918 0.2369508 0.2396633 0.2400021 0.2384488 0.2361421 0.234608 0.2346633 0.2351975
 0.2340071 0.2305883 0.2269893 0.2247934 0.222642 0.2187253 0.2147767 0.2149201 0.2203217 0.2272431
 0.2312542 0.231725 0.2309808 0.2300427 0.2268288 0.2191234 0.2087763 0.201734 0.2028385 0.2108078
 0.2193982 0.223528 0.2233041 0.2221412 0.2222067 0.2222208 0.2192574 0.2125733 0.2055088 0.2026647
 0.2049824 0.208892 0.2105078 0.2087022 0.2036842 0.1957602 0.1876204 0.1851109 0.1922669 0.206339
 0.2199758 0.2272847 0.2259267 0.2157174 0.1994947 0.1849359 0.1808113 0.1890818 0.2024966 0.2112834
 0.2108814 0.20267 0.1898041 0.1751403 0.1626254 0.1575843 0.1634899 0.178494 0.1955244 0.2057387
 0.2033522 0.1901881 0.1762004 0.1722833 0.1802682 0.1916414 0.197108 0.1950483 0.1900762 0.1871189
 0.1886159 0.1941673 0.200937 0.2062984 0.2099195 0.2107003 0.2039031 0.186832 0.1663424 0.1543463
 0.1554386 0.1644686 0.1760675 0.1895017 0.2025783 0.2082915 0.2027287 0.1925287 0.189282 0.1972248
 0.2095961 0.2169261 0.2164201 0.2124978 0.2099271 0.2087211 0.2065237 0.2041371 0.2057084 0.213039
 0.2224668 0.228953 0.2313116 0.2317778 0.2321882 0.2325784 0.2324692 0.231705 0.2303633 0.2288565
 0.2278156 0.2273804 0.22707 0.2265175 0.2254227 0.222392 0.2152447 0.204067 0.193173 0.1876997
 0.18816 0.1907616 0.1930429 0.1953 0.1953188 0.1869246 0.168138 0.1478327 0.1392813 0.1473367
 0.1648169 0.180673 0.1884578 0.1868753 0.1764431 0.1596444 0.1435703 0.1377531 0.1464152 0.1644008
 0.1826576 0.1960385 0.2039797 0.2062078 0.2016913 0.1916635 0.1809298 0.1751586 0.1773822 0.1866087
 0.1982071 0.2051859 0.2015792 0.1883062 0.1758283 0.1765135 0.1917039 0.2095574 0.2183651 0.2184445
 0.2175539 0.2188268 0.2191311 0.2174307 0.2182406 0.2253717 0.2362947 0.2446309 0.2457513 0.2386008
 0.2251469 0.2109042 0.2035104 0.206559 0.215455 0.2223752 0.2238323 0.2202194 0.2111828 0.1975875
 0.1864589 0.1867549 0.1989822 0.2140129 0.2234573 0.2273013 0.2301115 0.2331806 0.2329821 0.2265434
 0.2164398 0.2092226 0.2089385 0.2135716 0.2184339 0.2211151 0.2215016 0.2189495 0.2126902 0.2050241
 0.2013452 0.2054204 0.2154503 0.2257386 0.2317798 0.233056 0.2316482 0.229557 0.2273888 0.2245456
 0.2205423 0.216716 0.2159809 0.2197233 0.2255988 0.2299361 0.2319396 0.2339741 0.2378517 0.2423493
 0.2447083 0.2436473 0.2405754 0.2383505 0.2389738 0.2420019 0.2448859 0.2451534 0.2427607 0.2403543
 0.2408371 0.2446044 0.2494856 0.2532111 0.2552606 0.2564073 0.2573911 0.2582721 0.2583918 0.2568794
 0.2538811 0.2512721 0.2513211 0.2544348 0.2587693 0.2621388 0.2637869 0.2642493 0.2641347 0.2634905
 0.2621841 0.260492 0.2590911 0.2585166 0.2587781 0.2595159 0.2603673 0.2611222 0.2616926 0.2620844
 0.2623585 0.2625542 0.262677 0.262758 0.2628391 0.2628918 0.2628479 0.2627457 0.2627476 0.262954
 0.2632655 0.2634875 0.2635021 0.2632685 0.2627257 0.2618129 0.2605784 0.2591583 0.2576199 0.2559278
 0.2541628 0.2527413 0.2522826 0.2531546 0.2551362 0.2575492 0.2597144 0.261287 0.2622561 0.2627653
 0.2629817 0.2630485 0.2630562 0.2630239 0.2629256 0.2627384 0.2624643 0.262118 0.2617183 0.2612973
 0.2609025 0.2605706 0.2602955 0.2600315 0.2597266 0.2593479 0.2588872 0.2583596 0.2577949 0.25721
 0.256583 0.2558664 0.2550315 0.2541029 0.253153 0.2522602 0.2514549 0.2507007 0.2499364 0.2491247
 0.248243 0.2472505 0.2461261 0.2449466 0.2438723 0.2430147 0.2423413 0.2417251 0.2410578 0.2402937
 0.2394233 0.2384532 0.2374063 0.2363146 0.2352015 0.234071 0.2329053 0.2316716 0.2303453 0.2289266
 0.2274292 0.225863 0.2242447 0.2226021 0.2209378 0.2191875 0.2172276 0.214917 0.2121275 0.2087659
 0.2048069 0.2003238 0.1954857 0.1905136 0.1856194 0.180965 0.1766642 0.1728087 0.1694827 0.166759
 0.1646921 0.1633159 0.162645 0.1626809 0.1634147 0.1648154 0.1668089 0.1692737 0.1720577 0.175003
 0.1779587 0.1807869 0.1833906 0.1857571 0.1879518 0.1900347 0.1919907 0.1937643 0.1953366 0.1967277
 0.1979418 0.1989587 0.1997785 0.2004424 0.2010015 0.2014843 0.201899 0.2022546 0.2025682 0.2028491
 0.2030911 0.2032912 0.2034676 0.2036496 0.203855 0.2040846 0.2043385 0.20463 0.2049857 0.2054245
 0.2059369 0.206496 0.2070839 0.2076967 0.2083303 0.2089864 0.2096939 0.210506 0.2114685 0.2125944
 0.2138597 0.2152151 0.2166015 0.2179525 0.2191856 0.2202111 0.2209712 0.2214669 0.221743 0.2218471
 0.2218036 0.221617 0.2212944 0.2208639 0.2203666 0.219832 0.2192676 0.2186685 0.2180291 0.2173487
 0.2166372 0.2159175 0.2152148 0.2145419 0.2138945 0.2132615 0.2126395 0.2120347 0.211452 0.2108856
 0.2103238 0.2097582 0.2091855 0.2086051 0.2080164 0.2074107 0.2067642 0.2060468 0.2052427 0.2043532
 0.2033758 0.2022943 0.2011008 0.199814 0.1984583 0.1970335 0.1955258 0.193942 0.1923091 0.1906338
 0.188878 0.1869924 0.1849764 0.1829033 0.180881 0.17899 0.1772563 0.1756653 0.1741854 0.1727876
 0.1714571 0.1701904 0.1689814 0.1678191 0.1667005 0.1656368 0.1646421 0.1637197 0.1628619 0.1620663
 0.1613487 0.1607283 0.1602003 0.1597385 0.1593243 0.15896 0.1586647 0.1584722 0.1584115 0.1584635
 0.1585501 0.1585874 0.1585419 0.1584347 0.1583106 0.1582033 0.1581171 0.1580386 0.1579588 0.1578628
 0.1577003 0.1573867 0.1568316 0.1559634 0.1547571 0.1532523 0.1515358 0.1497117 0.1478996 0.1462248
 0.1447784 0.1436023 0.1427096 0.1420759 0.1416183 0.1412387 0.1409048 0.1406716 0.1406246 0.140788
 0.1410609 0.1412724 0.1413419 0.1413663 0.1415234 0.1419214 0.1425442 0.1432873 0.1440274 0.1446844
 0.1452228 0.1456096 0.145826 0.1459104 0.1459244 0.1458828 0.1457671 0.1455797 0.1453423 0.1450692
 0.1447589 0.1443875 0.1439191 0.1433477 0.1426934 0.1419558 0.1411265 0.1402203 0.1392272 0.138096
 0.1368629 0.1357445 0.1350263 0.1348864 0.1353174 0.1361445 0.1371403 0.1381763 0.1391936 0.1400131
 0.1403854 0.1403808 0.1405764 0.141636 0.143677 0.1461363 0.1482701 0.1496982 0.1504372 0.1505853
 0.1501704 0.1492185 0.1477512 0.1457478 0.143241 0.1403732 0.1372917 0.1341274 0.1310796 0.1283486
 0.1260209 0.1241233 0.122675 0.1217077 0.1213175 0.1211168 0.1192276 0.1132414 0.1039486 0.09701215
 0.09820006 0.1068934 0.1165287 0.1215291 0.1217265 0.1200699 0.1186021 0.1176428 0.1171046 0.1171477
 0.1179055 0.119218 0.1206728 0.1218597 0.1226241 0.1230177 0.1229934 0.1221676 0.1197867 0.1150071
 0.1075753 0.0983948 0.08921477 0.0816249 0.07634407 0.07323952 0.07168444 0.07092221 0.07042999 0.0701564
 0.07040632 0.07146829 0.07337791 0.07600462 0.0791982 0.08271235 0.08609768 0.08890855 0.09104132 0.09271154
 0.09409408 0.09513013 0.09568281 0.09573035 0.09537355 0.09475516 0.09400968 0.0932181 0.09235078 0.09129597
 0.09003381 0.08878222 0.08787155 0.08744526 0.08736308 0.08739802 0.08742396 0.08741479 0.08738124 0.0873406
 0.08729944 0.08727661 0.08735052 0.08761123 0.08804053 0.08849885 0.08884355 0.08903143 0.08911437 0.08912663
 0.08896003 0.08844756 0.08764983 0.08689573 0.08636295 0.08577697 0.08477658 0.08348626 0.08247146 0.08214231
 0.08238704 0.08277893 0.08296549 0.08284377 0.0825541 0.08241107 0.08269028 0.0833139 0.0838221 0.08380534
</values></Ydata></ScRf><Data_Parameters_AB><parameter name="DPF">1</parameter><parameter name="NPT">3497</parameter><parameter name="FXV">3996</parameter><parameter name="LXV">500</parameter><parameter name="CSF">1</parameter><parameter name="MXY">0.1639084815979</parameter><parameter name="MNY">-0.0658688470721245</parameter><parameter name="DAT">27/05/2022</parameter><parameter name="TIM">11:44:30.944 (GMT+2)</parameter><parameter name="DXU">WN</parameter></Data_Parameters_AB><AB__Qtest><MainReport name="Quality Test Report"><Header><Line><Legend>Test result ok/not ok [1/0]: </Legend><Value>0</Value></Line><Line><Legend>Method file: </Legend><Value>C:\Users\Public\Documents\Bruker\OPUS_8.2.28\QT\IRBT_v3_default.QT</Value></Line></Header><Matrix><Line><Legend></Legend><Legend>min</Legend><Legend>max</Legend><Legend>measured</Legend></Line><Line><Value>Absorption (X-Range 1):</Value><Value>0.400000</Value><Value>2.000000</Value><Value>0.130993</Value></Line><Line><Value>Noise (X-Range 4):</Value><Value></Value><Value>0.000300</Value><Value>0.000051</Value></Line><Line><Value>Signal/Noise (X-Range 2):</Value><Value>200.000000</Value><Value></Value><Value>45.279173</Value></Line><Line><Value>Signal/Noise (X-Range 3):</Value><Value>40.000000</Value><Value></Value><Value>51.393408</Value></Line><Line><Value>Water vapour (X-Range 5):</Value><Value></Value><Value>0.000300</Value><Value>0.000081</Value></Line><Line><Value>Signal/Water (X-Range 2):</Value><Value>100.000000</Value><Value></Value><Value>28.559168</Value></Line><Line><Value>Signal/Water (X-Range 3):</Value><Value>20.000000</Value><Value></Value><Value>32.415631</Value></Line><Line><Value>Fringes (X-Range 6):</Value><Value></Value><Value>0.000100</Value><Value>0.000045</Value></Line></Matrix></MainReport></AB__Qtest><Data_Parameters_ScSm><parameter name="DPF">1</parameter><parameter name="NPT">1814</parameter><parameter name="FXV">3996.33169228125</parameter><parameter name="LXV">499.541461535156</parameter><parameter name="CSF">1</parameter><parameter name="MXY">0.259817957878113</parameter><parameter name="MNY">0.0323973074555397</parameter><parameter name="DAT">27/05/2022</parameter><parameter name="TIM">11:44:30.944 (GMT+2)</parameter><parameter name="DXU">WN</parameter></Data_Parameters_ScSm><Data_Parameters_ScRf><parameter name="DPF">1</parameter><parameter name="NPT">1820</parameter><parameter name="FXV">4004.04661832813</parameter><parameter name="LXV">495.683998511719</parameter><parameter name="CSF">1</parameter><parameter name="MXY">0.264249324798584</parameter><parameter name="MNY">0.028642050921917</parameter><parameter name="DAT">27/05/2022</parameter><parameter name="TIM">11:44:05.095 (GMT+2)</parameter><parameter name="DXU">WN</parameter></Data_Parameters_ScRf><Optic_Parameters_Rf><parameter name="APR">0</parameter><parameter name="APT">Open</parameter><parameter name="BMS">KBr</parameter><parameter name="DTC">RT-DLaTGS_IR-Biotyper [Microplate reader]</parameter><parameter name="HPF">0</parameter><parameter name="LPF">10.0</parameter><parameter name="LPV">4000</parameter><parameter name="PGR">0</parameter><parameter name="RCH">Module port</parameter><parameter name="RDX">0</parameter><parameter name="SRC">MIR</parameter><parameter name="VEL">10.0</parameter><parameter name="SON">Off</parameter></Optic_Parameters_Rf><Acquisition_Parameters_Rf><parameter name="ADT">1</parameter><parameter name="AQM">DD</parameter><parameter name="CFE">0</parameter><parameter name="COR">0</parameter><parameter name="DEL">0</parameter><parameter name="DLY">0</parameter><parameter name="HFW">8000</parameter><parameter name="LFW">0</parameter><parameter name="NSR">32</parameter><parameter name="PLF">AB</parameter><parameter name="RES">6</parameter><parameter name="RGN">-1</parameter><parameter name="STR">0</parameter><parameter name="TCL">MakeCompatibleScalar (0, {WSV=1.000000, ARV=0});</parameter><parameter name="TDL">37</parameter><parameter name="RPO">0</parameter></Acquisition_Parameters_Rf><FT_-_Parameters_Rf><parameter name="APF">B3</parameter><parameter name="HFQ">500</parameter><parameter name="LFQ">4000</parameter><parameter name="NLI">0</parameter><parameter name="PHR">24</parameter><parameter name="PHZ">ML</parameter><parameter name="SPZ">NO</parameter><parameter name="ZFF">1</parameter></FT_-_Parameters_Rf><Optic_Parameters_><parameter name="APR">0</parameter><parameter name="APT">Open</parameter><parameter name="BMS">KBr</parameter><parameter name="CHN">Module port</parameter><parameter name="DTC">RT-DLaTGS_IR-Biotyper [Microplate reader]</parameter><parameter name="HPF">0</parameter><parameter name="LPF">10.0</parameter><parameter name="LPV">4000</parameter><parameter name="PGN">0</parameter><parameter name="RDX">0</parameter><parameter name="SRC">MIR</parameter><parameter name="VEL">10.0</parameter><parameter name="SON">Off</parameter></Optic_Parameters_><FT_-_Parameters_><parameter name="APF">B3</parameter><parameter name="HFQ">500</parameter><parameter name="LFQ">4000</parameter><parameter name="NLI">0</parameter><parameter name="PHR">24</parameter><parameter name="PHZ">ML</parameter><parameter name="SPZ">NO</parameter><parameter name="ZFF">1</parameter></FT_-_Parameters_><Acquisition_Parameters_><parameter name="ADT">1</parameter><parameter name="AQM">DD</parameter><parameter name="CFE">0</parameter><parameter name="COR">0</parameter><parameter name="DEL">0</parameter><parameter name="DLY">0</parameter><parameter name="HFW">8000</parameter><parameter name="LFW">0</parameter><parameter name="NSS">32</parameter><parameter name="PLF">AB</parameter><parameter name="RES">6</parameter><parameter name="SOT">0</parameter><parameter name="TCL">MakeCompatibleScalar (0, {WSV=1.000000, ARV=0});</parameter><parameter name="TDL">37</parameter><parameter name="SPO">0</parameter><parameter name="SGN">-1</parameter></Acquisition_Parameters_><Instrument_Parameters_Rf><parameter name="HFL">15800.168544</parameter><parameter name="LFL">0</parameter><parameter name="LWN">15800.168544</parameter><parameter name="ABP">32197</parameter><parameter name="SSP">1</parameter><parameter name="ARG">2</parameter><parameter name="ASG">2</parameter><parameter name="ASS">32</parameter><parameter name="GFW">16</parameter><parameter name="GBW">16</parameter><parameter name="BFW">0</parameter><parameter name="BBW">0</parameter><parameter name="PKA">7264</parameter><parameter name="PKL">4996</parameter><parameter name="PRA">7447</parameter><parameter name="PRL">5001</parameter><parameter name="P2A">1</parameter><parameter name="P2L">1</parameter><parameter name="P2R">1</parameter><parameter name="P2K">1</parameter><parameter name="DAQ">0</parameter><parameter name="AG2">1</parameter><parameter name="SSM">1</parameter><parameter name="RSN">24884</parameter><parameter name="CRR">0</parameter><parameter name="SRT">1653651845.095</parameter><parameter name="DUR">19.6349945068359</parameter><parameter name="TSC">27.8</parameter><parameter name="MVD">0.297999829053879</parameter><parameter name="AN1">0.225819506171368</parameter><parameter name="AN2">0</parameter><parameter name="VSN">2.485 Apr  4 2017</parameter><parameter name="SRN">0085</parameter><parameter name="CAM">0</parameter><parameter name="INS">IR-Biotyper</parameter><parameter name="FOC">69</parameter><parameter name="RDY">1</parameter><parameter name="ARS">32</parameter></Instrument_Parameters_Rf><Sample_Parameters_><parameter name="BLD"></parameter><parameter name="CNM">Admin</parameter><parameter name="CPY"></parameter><parameter name="DPM"></parameter><parameter name="EXP">IRBT_v3_32Scans.XPM</parameter><parameter name="LCT"></parameter><parameter name="SFM">Microplate, HTS-XT</parameter><parameter name="SNM">220527-1039(v.2)_GFG29M (D_4)_B6_3b6cfaff-d449-4ccc-ab80-3516121adb20.0</parameter><parameter name="XPP">C:\Users\Public\Documents\Bruker\OPUS_8.2.28\XPM</parameter><parameter name="IST">OK</parameter><parameter name="CPG">1252</parameter><parameter name="UID">ab8fd207-5f54-43c1-b6d3-b2442c7af72b</parameter></Sample_Parameters_><Instrument_Parameters_><parameter name="HFL">15800.168544</parameter><parameter name="LFL">0</parameter><parameter name="LWN">15800.168544</parameter><parameter name="ABP">32197</parameter><parameter name="SSP">1</parameter><parameter name="ASG">2</parameter><parameter name="ARG">2</parameter><parameter name="ASS">32</parameter><parameter name="GFW">16</parameter><parameter name="GBW">16</parameter><parameter name="BFW">0</parameter><parameter name="BBW">0</parameter><parameter name="PKA">7101</parameter><parameter name="PKL">4988</parameter><parameter name="PRA">7454</parameter><parameter name="PRL">4993</parameter><parameter name="P2A">1</parameter><parameter name="P2L">1</parameter><parameter name="P2R">1</parameter><parameter name="P2K">1</parameter><parameter name="DAQ">0</parameter><parameter name="AG2">1</parameter><parameter name="SSM">1</parameter><parameter name="RSN">13068</parameter><parameter name="CRR">0</parameter><parameter name="SRT">1653651870.944</parameter><parameter name="DUR">19.6349945068359</parameter><parameter name="TSC">27.8</parameter><parameter name="MVD">0.175401270389557</parameter><parameter name="AN1">0.225791115272629</parameter><parameter name="AN2">0</parameter><parameter name="VSN">2.485 Apr  4 2017</parameter><parameter name="SRN">0085</parameter><parameter name="CAM">0</parameter><parameter name="INS">IR-Biotyper</parameter><parameter name="FOC">69</parameter><parameter name="RDY">1</parameter></Instrument_Parameters_><History/></OPUSDataFile>
