<?xml version="1.0" encoding="UTF-8" ?>
<OPUSDataFile><AB><Ydata ylabel="Absorbance Units"><values byteorder="INTEL" format="FLOAT32" numvalues="3497"> -0.0868274 -0.08680799 -0.08678471 -0.08675727 -0.08673034 -0.08670416 -0.08667824 -0.08665254 -0.08662602 -0.08659924
 -0.08657479 -0.08655349 -0.08654025 -0.08653409 -0.08653591 -0.08654258 -0.08654931 -0.08655421 -0.08655252 -0.0865461
 -0.08653444 -0.08652099 -0.08650775 -0.08649583 -0.08648662 -0.08647791 -0.0864696 -0.08645872 -0.08644471 -0.08642613
 -0.08640249 -0.08637758 -0.08635158 -0.08633231 -0.08631999 -0.08631971 -0.08633088 -0.08635247 -0.08638383 -0.08642219
 -0.08646715 -0.08651748 -0.08657029 -0.08662175 -0.08666574 -0.08669322 -0.08670253 -0.08668654 -0.08665551 -0.08661137
 -0.08656842 -0.08653413 -0.08650913 -0.08649708 -0.08648381 -0.08646735 -0.08643892 -0.08639642 -0.08635038 -0.08630127
 -0.08626854 -0.08625256 -0.08626321 -0.08629844 -0.08635148 -0.08641918 -0.08648663 -0.08655243 -0.08660508 -0.08664658
 -0.08667429 -0.08669268 -0.08670662 -0.086717 -0.08672868 -0.08673282 -0.08672678 -0.08670064 -0.08664712 -0.08657422
 -0.08647949 -0.08638801 -0.08630326 -0.0862443 -0.08621396 -0.08621465 -0.08624669 -0.0863037 -0.08638499 -0.0864811
 -0.08658963 -0.08669238 -0.08678497 -0.08683985 -0.08685882 -0.08682822 -0.08676209 -0.08667658 -0.08658577 -0.08651421
 -0.08646347 -0.08644624 -0.08644853 -0.0864687 -0.08648539 -0.08648885 -0.08647168 -0.08642647 -0.08637223 -0.08630937
 -0.08626601 -0.08624575 -0.08625734 -0.08630159 -0.0863601 -0.08643173 -0.08649566 -0.08655321 -0.08660261 -0.08664533
 -0.08668747 -0.0867257 -0.08675524 -0.08677205 -0.08676362 -0.08673777 -0.08669649 -0.08665385 -0.08662562 -0.08660793
 -0.08660657 -0.08660186 -0.08658496 -0.08655393 -0.08650199 -0.08645673 -0.08642083 -0.08642278 -0.08646771 -0.08654948
 -0.08666851 -0.08675753 -0.0868135 -0.08677166 -0.08664384 -0.0864744 -0.08627626 -0.08612443 -0.08601534 -0.08597915
 -0.08600352 -0.08608504 -0.0862024 -0.08633219 -0.08645034 -0.08652637 -0.0865577 -0.08652741 -0.08646659 -0.08638155
 -0.08630417 -0.08624765 -0.08620955 -0.08619337 -0.08617762 -0.08615982 -0.08613257 -0.08609512 -0.08606065 -0.08602991
 -0.08601743 -0.0860218 -0.08604201 -0.08607408 -0.08610248 -0.08612435 -0.08612347 -0.08610237 -0.0860561 -0.08599336
 -0.08592116 -0.08585066 -0.08579319 -0.08575602 -0.08574757 -0.0857662 -0.08581532 -0.08588264 -0.08596756 -0.08605034
 -0.08612835 -0.0861824 -0.08621015 -0.08619991 -0.08615076 -0.08606326 -0.08593848 -0.08579344 -0.08563036 -0.08547221
 -0.08531974 -0.08518825 -0.08507656 -0.08498975 -0.08492562 -0.08488356 -0.08485928 -0.08484842 -0.08484493 -0.0848425
 -0.084837 -0.08482359 -0.08480345 -0.08477562 -0.08474331 -0.08470698 -0.08466993 -0.08463211 -0.08460052 -0.08457556
 -0.08456668 -0.08457458 -0.08460047 -0.08464357 -0.08469053 -0.0847399 -0.08477419 -0.08479562 -0.08480247 -0.0848003
 -0.0848038 -0.08481341 -0.08483879 -0.08487239 -0.08490889 -0.0849418 -0.08495995 -0.08497303 -0.08497994 -0.08500267
 -0.08505139 -0.08513345 -0.08525819 -0.08539814 -0.08555291 -0.08567846 -0.0857694 -0.08580398 -0.08578036 -0.08569403
 -0.08554575 -0.08534545 -0.08509941 -0.08485533 -0.08461976 -0.08444741 -0.08433282 -0.08429366 -0.08431209 -0.08436721
 -0.08443779 -0.08448508 -0.08450928 -0.08449294 -0.08445647 -0.08440869 -0.08435937 -0.0843169 -0.08427514 -0.08423503
 -0.08418503 -0.08412296 -0.08404236 -0.08394107 -0.08382998 -0.08370929 -0.08360671 -0.08352347 -0.08348392 -0.08348598
 -0.08352973 -0.08360653 -0.0836831 -0.08374999 -0.08375993 -0.08372279 -0.08362984 -0.08350565 -0.0833817 -0.08326268
 -0.08316787 -0.08308108 -0.08299858 -0.082905 -0.08279087 -0.08265723 -0.08249999 -0.08233608 -0.08216729 -0.0820112
 -0.08187077 -0.08174867 -0.08164573 -0.08154079 -0.08143254 -0.08129315 -0.08112547 -0.08093548 -0.08073014 -0.08054303
 -0.08037414 -0.08024115 -0.08013934 -0.08006875 -0.0800236 -0.07999988 -0.07998355 -0.0799645 -0.0799218 -0.07983836
 -0.07970829 -0.07952207 -0.07929312 -0.07902359 -0.07872276 -0.07839198 -0.07804103 -0.07767029 -0.07729691 -0.07692213
 -0.07655301 -0.07618959 -0.0758305 -0.075477 -0.07513777 -0.07481483 -0.07452303 -0.07425937 -0.07402463 -0.07381199
 -0.07360923 -0.07341199 -0.07321241 -0.07300054 -0.0727686 -0.0724981 -0.07216933 -0.07179467 -0.07136641 -0.07093293
 -0.07050949 -0.07011325 -0.06975427 -0.06940721 -0.069071 -0.06871656 -0.06834136 -0.06794378 -0.06752516 -0.06711641
 -0.06671897 -0.06636247 -0.06603815 -0.06572931 -0.06541735 -0.06503633 -0.06459083 -0.06404547 -0.06344663 -0.06284384
 -0.06226135 -0.06174817 -0.06128011 -0.06085821 -0.06045168 -0.06004505 -0.05962994 -0.05919811 -0.05876303 -0.05832639
 -0.05789701 -0.05747798 -0.05705402 -0.05662479 -0.05615849 -0.05565438 -0.05510002 -0.0545 -0.05388391 -0.05325654
 -0.052656 -0.05207932 -0.05153815 -0.05102683 -0.05054032 -0.05007402 -0.0496214 -0.04917529 -0.04872708 -0.04827212
 -0.0478038 -0.04732512 -0.04683873 -0.04633545 -0.04581717 -0.04525512 -0.04464106 -0.04397485 -0.04324988 -0.04253263
 -0.04182694 -0.04119655 -0.04064188 -0.04015233 -0.03972179 -0.03929696 -0.03887562 -0.03841779 -0.03793054 -0.03741061
 -0.03687114 -0.03633672 -0.03581317 -0.03532385 -0.03485337 -0.03440149 -0.03393595 -0.03343447 -0.03288269 -0.0322607
 -0.03159949 -0.03090126 -0.03020654 -0.02952576 -0.0288694 -0.0282412 -0.02763118 -0.02703895 -0.02645465 -0.02587807
 -0.02530838 -0.02474572 -0.02419235 -0.0236453 -0.02309387 -0.02253245 -0.02193701 -0.02131045 -0.02064174 -0.01994991
 -0.01925453 -0.01857428 -0.01793806 -0.0173406 -0.01679114 -0.0162663 -0.01575758 -0.01525016 -0.01473502 -0.01421967
 -0.01370327 -0.01319997 -0.01271307 -0.01223561 -0.01176816 -0.01127907 -0.01076713 -0.01021028 -0.009612319 -0.008993655
 -0.008361299 -0.007760159 -0.007188132 -0.006666154 -0.006179834 -0.005711195 -0.005248189 -0.004763145 -0.004261564 -0.003735486
 -0.003203115 -0.002675345 -0.002159979 -0.001667386 -0.001182326 -0.000703513 -0.0002120567 0.0002980354 0.000825137 0.001371043
 0.001919146 0.002468343 0.003007151 0.003535177 0.004048521 0.004547287 0.005029868 0.005497437 0.005953711 0.006401258
 0.006850031 0.007300267 0.007758508 0.008220295 0.00868271 0.009140589 0.009586438 0.01002222 0.01044448 0.01086496
 0.01128787 0.01172263 0.01217614 0.01263757 0.01310799 0.01356348 0.01399971 0.01441421 0.01480534 0.01520344
 0.01560989 0.01605162 0.01652557 0.01701794 0.01752171 0.01799526 0.01843838 0.01882497 0.01916784 0.01947798
 0.01977222 0.02008129 0.0204072 0.0207677 0.0211445 0.0215314 0.02191141 0.02227204 0.02261721 0.02294455
 0.02326483 0.02358095 0.02389302 0.02420131 0.02450547 0.02480504 0.0251111 0.02542418 0.02575416 0.02610059
 0.02646282 0.02684132 0.02723813 0.02765421 0.02809629 0.0285585 0.02903493 0.02951327 0.02997317 0.03040836
 0.03080373 0.03116305 0.03148446 0.03177219 0.0320283 0.03225322 0.03244613 0.03261353 0.03275413 0.03288861
 0.03301841 0.03316867 0.0333415 0.0335526 0.03380254 0.03409467 0.03442808 0.03479772 0.03519973 0.03561547
 0.03603682 0.03642964 0.03678856 0.03708186 0.03732023 0.03749928 0.03764806 0.03779108 0.03795697 0.0381774
 0.03844996 0.03879078 0.03915348 0.03953099 0.03986726 0.04014472 0.04035769 0.04049794 0.04061994 0.0407273
 0.04086354 0.0410293 0.04119457 0.04135457 0.04144755 0.04147951 0.04144234 0.04135558 0.04127494 0.04121371
 0.04123085 0.04131742 0.04149071 0.04172361 0.04199782 0.04228491 0.04255762 0.04280797 0.04301976 0.04321623
 0.04339942 0.04359909 0.04382657 0.04407185 0.04434 0.04457248 0.04476536 0.04486597 0.04487285 0.04479773
 0.04464677 0.04448524 0.04431579 0.04418803 0.04409446 0.04403534 0.04400837 0.04400453 0.04403548 0.04411805
 0.04425062 0.0444486 0.04467326 0.04490627 0.04510588 0.04523921 0.04531699 0.04532686 0.04532783 0.04532999
 0.04537987 0.04548928 0.0456482 0.04585908 0.04606322 0.04625748 0.04637762 0.0464243 0.04637542 0.04624203
 0.04606462 0.045859 0.0456976 0.04558443 0.0455691 0.04563208 0.04577265 0.04595297 0.04613608 0.04629001
 0.04637503 0.04639659 0.04633823 0.04624778 0.0461338 0.04604925 0.04600916 0.04603298 0.04612678 0.04628538
 0.04650861 0.04679691 0.04715022 0.0475696 0.04805105 0.04855887 0.04908077 0.04953515 0.04991333 0.05013723
 0.05022384 0.0501603 0.04999472 0.04978845 0.04958944 0.04947767 0.04945373 0.04955639 0.049726 0.04995118
 0.05015431 0.0503056 0.05036447 0.05031047 0.05016339 0.0499186 0.04963861 0.04932751 0.04904622 0.04879756
 0.04860348 0.04846204 0.04836039 0.0482971 0.04825737 0.04824409 0.04825972 0.04830542 0.04838971 0.04849982
 0.04862786 0.04874131 0.04880764 0.04879106 0.04865053 0.0483854 0.04797303 0.04746809 0.04687648 0.04627591
 0.04568481 0.04515297 0.04469238 0.04430973 0.04400804 0.04376357 0.04357486 0.0433962 0.04322535 0.04301893
 0.04278223 0.04251759 0.04223778 0.04198988 0.0417725 0.04161385 0.04148627 0.04136118 0.04121275 0.04099455
 0.04071945 0.04037292 0.04000326 0.03962749 0.03929312 0.03902316 0.0388301 0.03872781 0.0386766 0.03867795
 0.03865305 0.03859531 0.03844444 0.03819777 0.03786811 0.03746111 0.03704496 0.03662263 0.03624759 0.03591326
 0.0356261 0.03537863 0.03515678 0.03495803 0.03477417 0.0346 0.03442948 0.03425129 0.03405458 0.0338347
 0.03358286 0.0333126 0.03302416 0.03274062 0.03246802 0.0322177 0.03199407 0.03178636 0.03159469 0.03139839
 0.03119643 0.0309781 0.030744 0.03049773 0.03024034 0.02997931 0.02971496 0.02945198 0.029191 0.0289357
 0.02868661 0.02844715 0.02821481 0.02798917 0.02776489 0.02753768 0.02730467 0.02706271 0.02681302 0.02655577
 0.02629046 0.02601732 0.02573366 0.02543827 0.02513602 0.02482653 0.02452625 0.02423603 0.02396775 0.02372043
 0.02348631 0.02326329 0.02303465 0.02280162 0.02255938 0.02231074 0.02206135 0.021809 0.0215539 0.0212902
 0.02100918 0.02071439 0.02040026 0.02008955 0.01978839 0.01952932 0.0193272 0.01919301 0.01913931 0.01912665
 0.01915634 0.01915046 0.01910217 0.0189522 0.01869732 0.01834413 0.01789788 0.01742304 0.01692707 0.01648659
 0.01610134 0.01581685 0.01561547 0.01548641 0.01539552 0.01528347 0.01512837 0.01487227 0.01454211 0.01412928
 0.0136969 0.01327847 0.0129057 0.01260645 0.01235034 0.01213583 0.01193021 0.01172252 0.01153948 0.01138059
 0.01130228 0.01130752 0.01140097 0.01157665 0.01176128 0.01194501 0.01203034 0.01201976 0.01186345 0.0115846
 0.0112075 0.01076396 0.01031815 0.009882954 0.009503203 0.009162251 0.008861987 0.008584142 0.008314363 0.008061145
 0.007823567 0.007614756 0.007442731 0.007286751 0.007146651 0.006988218 0.006806014 0.006609276 0.006398271 0.006223851
 0.006086958 0.006015331 0.006001861 0.006018972 0.006058815 0.00607693 0.006075385 0.006035245 0.005966093 0.005875536
 0.005770202 0.005663522 0.005549502 0.005433215 0.005290093 0.00511137 0.004867909 0.004541636 0.004139798 0.003650647
 0.003142686 0.00262053 0.002172518 0.001810048 0.001558801 0.001420932 0.001327681 0.00127296 0.001155382 0.0009771942
 0.0006952175 0.0003273901 -8.646666E-05 -0.0005282199 -0.0009312182 -0.001296713 -0.001593092 -0.001838745 -0.002042015 -0.002220229
 -0.002390851 -0.002560471 -0.002738307 -0.002921989 -0.003114587 -0.003304041 -0.003489143 -0.003653382 -0.003791661 -0.003910319
 -0.004006932 -0.00412528 -0.004267721 -0.004474101 -0.004742432 -0.005054018 -0.005401161 -0.005723316 -0.00602329 -0.006274242
 -0.006494627 -0.006717794 -0.006952697 -0.007237379 -0.007550608 -0.007885843 -0.00821371 -0.00850399 -0.00875394 -0.008949835
 -0.009111064 -0.009243306 -0.009355232 -0.009452451 -0.009525097 -0.009571766 -0.009588221 -0.009572285 -0.009543506 -0.009502747
 -0.009488848 -0.009503866 -0.009585995 -0.009733434 -0.0099581 -0.01024944 -0.01057836 -0.01092875 -0.01124664 -0.01152323
 -0.01171624 -0.01183316 -0.01186364 -0.01182534 -0.01172869 -0.01158826 -0.01141507 -0.01121641 -0.01099623 -0.01076285
 -0.01051811 -0.01027277 -0.01003006 -0.009788468 -0.009550185 -0.009286086 -0.00899477 -0.008631052 -0.008193715 -0.00765547
 -0.007020893 -0.006303195 -0.005511586 -0.004686975 -0.003835986 -0.002996227 -0.002167403 -0.00136671 -0.00058904 0.0001645231
 0.0009002201 0.001621841 0.002336885 0.003049696 0.003768077 0.004497309 0.005236121 0.005989017 0.006732824 0.007467728
 0.008150821 0.008778559 0.009309777 0.0097417 0.01005671 0.01025534 0.01034405 0.0103246 0.01021007 0.01000304
 0.009715462 0.009358899 0.008960402 0.008548249 0.008178777 0.007883417 0.007726233 0.007710571 0.007868963 0.008166649
 0.008596821 0.009116082 0.009704839 0.01034179 0.0110168 0.01172568 0.01246639 0.01323726 0.01403771 0.01487
 0.01573425 0.01663294 0.01756506 0.01851504 0.01947989 0.02042987 0.02136705 0.02228071 0.02318104 0.02409077
 0.02501171 0.02597075 0.02692863 0.02787357 0.02869613 0.02932831 0.02960397 0.0294151 0.02863945 0.02717664
 0.02508886 0.02233351 0.01919474 0.01569267 0.01219857 0.008752967 0.005618713 0.002816135 0.000406038 -0.001616547
 -0.003337056 -0.004766329 -0.006017468 -0.007093544 -0.008064801 -0.00893149 -0.009726462 -0.01045623 -0.01114568 -0.01180288
 -0.01244981 -0.01308317 -0.01371107 -0.0143167 -0.01489421 -0.0154249 -0.01590011 -0.01630833 -0.01664427 -0.0169055
 -0.01708986 -0.01720422 -0.01724859 -0.01723458 -0.01716292 -0.01704168 -0.016872 -0.01667007 -0.01644232 -0.01623841
 -0.01606928 -0.01600803 -0.01605386 -0.0162501 -0.01657026 -0.01699406 -0.01747972 -0.01796992 -0.01842955 -0.01880972
 -0.01909198 -0.01925138 -0.01928527 -0.01918607 -0.01896042 -0.0186103 -0.01813321 -0.01753052 -0.01678571 -0.01589257
 -0.01488512 -0.01376178 -0.01271213 -0.01175406 -0.0112215 -0.011126 -0.01173318 -0.01299468 -0.01488449 -0.01729332
 -0.01993009 -0.02270013 -0.02528796 -0.02768399 -0.02973541 -0.03150944 -0.03300828 -0.0343091 -0.03546148 -0.03650372
 -0.03746507 -0.0383513 -0.03916908 -0.03991847 -0.04059979 -0.04121635 -0.04176813 -0.04226203 -0.04269825 -0.04309209
 -0.04344482 -0.04378027 -0.04409952 -0.04442268 -0.04474788 -0.04507967 -0.04541267 -0.04573522 -0.04604257 -0.04631856
 -0.04656702 -0.04678269 -0.046981 -0.04717223 -0.04737239 -0.04759694 -0.04784385 -0.04812047 -0.04840269 -0.04868698
 -0.048946 -0.04917239 -0.0493615 -0.0495098 -0.04964206 -0.04975941 -0.04989311 -0.05004363 -0.05021756 -0.05041169
 -0.05060435 -0.05079447 -0.05096313 -0.05111789 -0.0512684 -0.05142441 -0.0516115 -0.05182679 -0.05208118 -0.05235684
 -0.05264314 -0.05292176 -0.05317722 -0.05340409 -0.05359476 -0.05375599 -0.05388641 -0.0540013 -0.05410165 -0.05420952
 -0.05432744 -0.05447205 -0.05464509 -0.05484098 -0.05505866 -0.0552742 -0.05548694 -0.05567965 -0.05585526 -0.05601703
 -0.05616777 -0.05631797 -0.05646573 -0.05661293 -0.0567556 -0.05688858 -0.05701146 -0.05712183 -0.05722105 -0.05730988
 -0.0573873 -0.05745247 -0.05750679 -0.057548 -0.05759029 -0.05763425 -0.05770262 -0.05779879 -0.05793171 -0.05810289
 -0.05829334 -0.05850153 -0.05869529 -0.05887463 -0.05902329 -0.05914588 -0.05925301 -0.05934966 -0.05945684 -0.05957206
 -0.0597032 -0.0598387 -0.05996701 -0.06007791 -0.06015436 -0.06020326 -0.06021884 -0.06022743 -0.06023725 -0.0602739
 -0.06034872 -0.06046455 -0.06062625 -0.06081505 -0.06103002 -0.06124917 -0.06147085 -0.06168207 -0.06188244 -0.06206727
 -0.06223703 -0.06239249 -0.06253492 -0.06266998 -0.06279906 -0.06292938 -0.06306046 -0.06319534 -0.06333136 -0.06346614
 -0.06359778 -0.06372292 -0.06384313 -0.06395786 -0.06407089 -0.06418379 -0.06429876 -0.06441716 -0.06453807 -0.06466176
 -0.06478582 -0.06491003 -0.06503223 -0.0651522 -0.06526935 -0.06538367 -0.06549551 -0.06560447 -0.06570794 -0.06580453
 -0.0658863 -0.06595327 -0.06599928 -0.06603019 -0.06605241 -0.06607602 -0.06611766 -0.06618223 -0.06628283 -0.06641185
 -0.06657051 -0.06674337 -0.06692413 -0.06710171 -0.06727072 -0.06742963 -0.06757698 -0.0677153 -0.06784483 -0.06796642
 -0.06808016 -0.0681859 -0.06828373 -0.06837562 -0.06846198 -0.06854698 -0.06863116 -0.06871912 -0.06881116 -0.06891106
 -0.06901766 -0.06913127 -0.06924851 -0.06936496 -0.0694781 -0.06958292 -0.06968191 -0.06977445 -0.06986559 -0.06995828
 -0.07005223 -0.07014873 -0.07024267 -0.0703328 -0.07041825 -0.07049803 -0.07057938 -0.07066271 -0.070755 -0.07085633
 -0.07096433 -0.07107798 -0.07118701 -0.0712915 -0.0713853 -0.07147139 -0.07155512 -0.07163937 -0.07173364 -0.07183574
 -0.07194767 -0.07206374 -0.07217862 -0.07229023 -0.07239482 -0.07249486 -0.07259092 -0.07268391 -0.07277445 -0.07286166
 -0.07294489 -0.07302693 -0.07310766 -0.07319346 -0.07328489 -0.07338486 -0.07349341 -0.07360837 -0.07372948 -0.07385357
 -0.0739805 -0.07410813 -0.07423603 -0.07436223 -0.0744856 -0.07460323 -0.07471369 -0.07481344 -0.07490282 -0.07497982
 -0.07504862 -0.0751105 -0.07517177 -0.07523577 -0.0753058 -0.07538407 -0.07546934 -0.07556193 -0.07565928 -0.0757612
 -0.0758652 -0.07597114 -0.0760762 -0.07618027 -0.07628147 -0.07637995 -0.07647637 -0.07657117 -0.0766669 -0.07676372
 -0.07686396 -0.07696641 -0.07707037 -0.07717319 -0.07727073 -0.07736161 -0.07744184 -0.07751471 -0.07758034 -0.07764471
 -0.07771103 -0.07778128 -0.07785744 -0.07793646 -0.07801802 -0.07809971 -0.07818101 -0.07826237 -0.07834384 -0.07842483
 -0.07850526 -0.0785822 -0.07865568 -0.07872438 -0.078789 -0.07885221 -0.07891443 -0.07897886 -0.07904437 -0.07911037
 -0.07917517 -0.07923542 -0.07929226 -0.07934438 -0.07939696 -0.07945302 -0.07951654 -0.07959163 -0.07967415 -0.0797651
 -0.07985359 -0.07993747 -0.08000927 -0.0800669 -0.08011381 -0.08014973 -0.08018598 -0.08022312 -0.08027064 -0.0803283
 -0.08039789 -0.08047836 -0.08056559 -0.08065891 -0.08075398 -0.08085109 -0.08094885 -0.08104756 -0.08114745 -0.08124767
 -0.0813479 -0.08144613 -0.08154085 -0.08163097 -0.08171475 -0.0817953 -0.08187252 -0.08195262 -0.08203725 -0.08212856
 -0.0822278 -0.08232889 -0.08243156 -0.08252849 -0.08261944 -0.08270413 -0.08278299 -0.08286045 -0.08293646 -0.08301304
 -0.08308989 -0.0831665 -0.08324397 -0.08332404 -0.08340833 -0.08350065 -0.08359987 -0.08370735 -0.08381832 -0.08393039
 -0.08403838 -0.08413882 -0.08423039 -0.08431111 -0.08438507 -0.08445226 -0.08451947 -0.08458771 -0.08466098 -0.08473993
 -0.08482257 -0.08490875 -0.08499314 -0.0850757 -0.08515392 -0.08522861 -0.08530263 -0.08537647 -0.08545352 -0.08553302
 -0.08561502 -0.08569871 -0.08578227 -0.08586697 -0.08595315 -0.08604272 -0.08613775 -0.08623723 -0.08634202 -0.08644765
 -0.08655313 -0.08665386 -0.08674846 -0.08683544 -0.08691407 -0.08698682 -0.08705365 -0.08711965 -0.08718508 -0.08725438
 -0.08732755 -0.08740643 -0.08749069 -0.0875798 -0.08767314 -0.08776868 -0.0878654 -0.08796015 -0.08805246 -0.08814
 -0.08822373 -0.08830372 -0.0883809 -0.08845649 -0.0885291 -0.08859856 -0.088663 -0.08872104 -0.08877486 -0.0888237
 -0.08887558 -0.08893126 -0.08899914 -0.0890803 -0.08917556 -0.08928487 -0.08939911 -0.08951743 -0.0896274 -0.08972912
 -0.08981634 -0.08989032 -0.0899516 -0.09000142 -0.09004223 -0.09007581 -0.09010486 -0.09013328 -0.09016542 -0.09020617
 -0.09026095 -0.09033049 -0.09041829 -0.09051676 -0.09062569 -0.0907316 -0.09083153 -0.09091577 -0.0909814 -0.09103277
 -0.09106937 -0.09110702 -0.09114649 -0.09120002 -0.09126731 -0.09134889 -0.09144423 -0.09155031 -0.09166845 -0.09180115
 -0.09195042 -0.09212211 -0.09231674 -0.09253751 -0.09278453 -0.09305818 -0.09336101 -0.09369397 -0.09406245 -0.09446914
 -0.09491837 -0.09541346 -0.0959505 -0.09653076 -0.09714115 -0.0977805 -0.0984348 -0.09910275 -0.09977624 -0.1004546
 -0.1011142 -0.1017503 -0.1023017 -0.1027611 -0.1030554 -0.1031847 -0.1031087 -0.1028358 -0.1023529 -0.1016981
 -0.1009066 -0.1000586 -0.09925196 -0.09854297 -0.09801026 -0.09765549 -0.09750336 -0.09752754 -0.09773105 -0.09806079
 -0.09851633 -0.09899391 -0.09948207 -0.09987351 -0.1001534 -0.1003259 -0.1003911 -0.10042 -0.1004127 -0.1003901
 -0.1003484 -0.100275 -0.100173 -0.1000462 -0.09990069 -0.09975344 -0.0996033 -0.09945717 -0.09930885 -0.09915287
 -0.09898867 -0.09881157 -0.09863099 -0.09844972 -0.09827805 -0.09812173 -0.09797935 -0.09785249 -0.09773308 -0.09761956
 -0.09751087 -0.09740636 -0.0973129 -0.09723078 -0.0971642 -0.09711273 -0.09707264 -0.09704313 -0.09701769 -0.09699631
 -0.09697569 -0.09695601 -0.09693621 -0.09691606 -0.09689474 -0.09687217 -0.09684714 -0.0968221 -0.09679773 -0.0967785
 -0.09676737 -0.09676532 -0.09677463 -0.09678917 -0.09680813 -0.09682529 -0.09683874 -0.09685159 -0.09686357 -0.09688373
 -0.09691255 -0.09695405 -0.09700778 -0.09706949 -0.09713826 -0.09720684 -0.09727452 -0.09733488 -0.09738827 -0.09743164
 -0.0974673 -0.09749731 -0.09752412 -0.09755179 -0.09757983 -0.09760935 -0.09763893 -0.09766753 -0.09769658 -0.09772637
 -0.09775827 -0.09779335 -0.09782834 -0.09786303 -0.09789359 -0.09791935 -0.09794222 -0.09796225 -0.09798384 -0.09800694
 -0.09803183 -0.09805799 -0.09808228 -0.09810503 -0.09812544 -0.09814477 -0.09816578 -0.09818868 -0.09821582 -0.09824483
 -0.09827432 -0.09830135 -0.0983225 -0.09833841 -0.09834735 -0.09835476 -0.09836198 -0.0983742 -0.09839341 -0.09841992
 -0.09845448 -0.09849328 -0.09853609 -0.09857887 -0.09862138 -0.09866159 -0.09869952 -0.09873549 -0.09876944 -0.09880144
 -0.09883092 -0.0988557 -0.09887569 -0.09888867 -0.09889727 -0.09890411 -0.09891331 -0.09893128 -0.09895833 -0.09899845
 -0.09904516 -0.09909689 -0.09914542 -0.09918661 -0.09921899 -0.09924049 -0.09925682 -0.0992685 -0.09928082 -0.09929455
 -0.09930973 -0.0993264 -0.09934386 -0.09936231 -0.09938483 -0.09941154 -0.09944537 -0.09948505 -0.09952785 -0.09957213
 -0.0996121 -0.09964819 -0.09967788 -0.09970392 -0.09972823 -0.09975368 -0.0997835 -0.09981821 -0.0998598 -0.09990492
 -0.09995358 -0.09999964 -0.1000414 -0.1000757 -0.1001012 -0.1001218 -0.1001376 -0.1001556 -0.1001762 -0.1002017
 -0.1002315 -0.1002619 -0.1002926 -0.1003195 -0.1003435 -0.1003654 -0.1003862 -0.1004093 -0.100434 -0.100461
 -0.1004875 -0.1005102 -0.1005276 -0.1005362 -0.1005401 -0.1005397 -0.1005414 -0.1005484 -0.1005612 -0.1005817
 -0.100604 -0.1006273 -0.1006482 -0.1006658 -0.1006847 -0.100705 -0.1007328 -0.1007677 -0.1008078 -0.1008521
 -0.1008928 -0.1009302 -0.1009609 -0.1009867 -0.1010113 -0.101035 -0.1010611 -0.1010872 -0.1011119 -0.1011337
 -0.1011502 -0.1011632 -0.1011729 -0.1011818 -0.101191 -0.1012023 -0.1012162 -0.1012344 -0.1012574 -0.1012853
 -0.1013184 -0.1013521 -0.1013859 -0.1014139 -0.1014362 -0.1014526 -0.101464 -0.1014763 -0.1014896 -0.1015079
 -0.1015296 -0.1015531 -0.101577 -0.1015975 -0.1016149 -0.1016275 -0.1016379 -0.1016472 -0.101658 -0.1016725
 -0.101691 -0.1017145 -0.1017408 -0.1017694 -0.1017987 -0.1018282 -0.101858 -0.1018881 -0.1019183 -0.1019484
 -0.1019758 -0.1020004 -0.1020206 -0.1020366 -0.1020504 -0.1020625 -0.1020766 -0.1020922 -0.1021099 -0.1021283
 -0.1021447 -0.1021595 -0.1021712 -0.102183 -0.1021967 -0.102215 -0.1022411 -0.1022728 -0.1023109 -0.1023496
 -0.1023875 -0.1024198 -0.1024451 -0.1024642 -0.1024767 -0.1024887 -0.1025007 -0.1025194 -0.1025449 -0.102578
 -0.1026176 -0.1026572 -0.1026957 -0.1027249 -0.1027456 -0.1027551 -0.1027558 -0.1027507 -0.1027427 -0.1027362
 -0.1027324 -0.1027341 -0.1027404 -0.1027517 -0.1027671 -0.1027862 -0.1028088 -0.1028351 -0.1028641 -0.1028959
 -0.1029266 -0.102956 -0.1029798 -0.1029978 -0.103011 -0.1030198 -0.1030302 -0.1030425 -0.1030616 -0.1030863
 -0.1031157 -0.103148 -0.103178 -0.1032059 -0.1032283 -0.1032477 -0.1032658 -0.1032848 -0.103308 -0.1033343
 -0.1033645 -0.1033949 -0.1034244 -0.1034498 -0.1034702 -0.1034844 -0.103492 -0.1034932 -0.1034877 -0.1034781
 -0.1034644 -0.1034512 -0.1034385 -0.1034298 -0.1034249 -0.1034252 -0.1034303 -0.1034405 -0.103455 -0.1034724
 -0.1034915 -0.1035094 -0.1035259 -0.1035389 -0.1035505 -0.1035614 -0.1035741 -0.1035909 -0.1036115 -0.1036372
 -0.1036642 -0.1036924 -0.103715 -0.1037306 -0.1037351 -0.1037271 -0.1037105 -0.1036853 -0.1036613 -0.1036387
 -0.1036239 -0.1036162 -0.103614 -0.1036161 -0.1036175 -0.1036178 -0.1036132 -0.1036048 -0.1035924 -0.1035783
 -0.1035651 -0.103555 -0.1035514 -0.1035535 -0.1035629 -0.1035752 -0.1035893 -0.1035998 -0.1036047 -0.1036016
 -0.103589 -0.1035715 -0.103549 -0.103531 -0.103518 -0.1035158 -0.1035243 -0.1035395 -0.1035607 -0.1035792
 -0.1035951 -0.1036035 -0.1036053 -0.1036007 -0.1035908 -0.1035773 -0.1035621 -0.1035477 -0.1035365 -0.1035319
 -0.103534 -0.1035449 -0.1035603 -0.1035798 -0.1035966 -0.1036086 -0.1036121 -0.1036055 -0.1035922 -0.1035718
 -0.1035526 -0.1035353 -0.103525 -0.1035219 -0.1035237 -0.10353 -0.1035361 -0.1035426 -0.1035493 -0.1035575
 -0.1035709 -0.103589 -0.1036134 -0.1036411 -0.1036695 -0.1036942 -0.1037104 -0.1037164 -0.1037088 -0.1036915
 -0.1036645 -0.1036335 -0.1036004 -0.1035673 -0.103535 -0.1035029 -0.1034709 -0.1034397 -0.1034094 -0.1033821
 -0.1033576 -0.1033365 -0.1033187 -0.1033035 -0.1032912 -0.103282 -0.1032763 -0.1032745 -0.1032764 -0.1032819
 -0.1032901 -0.1033002 -0.1033104 -0.1033191 -0.1033238 -0.1033226 -0.1033147 -0.1032988 -0.1032772 -0.1032499
 -0.1032211 -0.1031917 -0.1031647 -0.103141 -0.1031193 -0.1030997 -0.103078 -0.1030542 -0.1030296 -0.1030052
 -0.1029909 -0.1029867 -0.1030002 -0.103027 -0.10306 -0.103092 -0.103105 -0.103098 -0.10306 -0.1030008
 -0.1029248 -0.1028431 -0.1027647 -0.1026926 -0.1026313 -0.102577 -0.1025295 -0.1024847 -0.1024415 -0.1023983
 -0.1023547 -0.1023116 -0.102269 -0.1022296 -0.1021935 -0.1021661 -0.1021473 -0.1021396 -0.1021402 -0.1021387
 -0.102131 -0.102098 -0.1020428 -0.1019597 -0.1018591 -0.1017526 -0.1016472 -0.1015537 -0.1014747 -0.1014146
 -0.1013737 -0.1013547 -0.1013493 -0.1013582 -0.1013613 -0.1013551 -0.1013227 -0.1012604 -0.1011717 -0.1010564
 -0.1009308 -0.1007955 -0.1006624 -0.1005315 -0.1004083 -0.1002928 -0.1001879 -0.1000932 -0.1000092 -0.09993364
 -0.09986316 -0.0997934 -0.09971727 -0.09963144 -0.09952849 -0.09941299 -0.09928362 -0.09915227 -0.09902449 -0.09890574
 -0.09880084 -0.09870133 -0.09860708 -0.09850584 -0.09839552 -0.09827367 -0.0981397 -0.09800109 -0.09785816 -0.09771636
 -0.09757476 -0.09742799 -0.09727442 -0.09710258 -0.0969139 -0.09670549 -0.09648211 -0.09625272 -0.09601797 -0.09578388
 -0.09554546 -0.09529952 -0.09504396 -0.09477415 -0.09449781 -0.09421578 -0.0939403 -0.09367575 -0.0934277 -0.09320006
 -0.09298201 -0.09277489 -0.09254661 -0.09229498 -0.09199242 -0.09163897 -0.09125318 -0.09083865 -0.09043618 -0.09004402
 -0.08967676 -0.08932791 -0.08898625 -0.08864684 -0.08829398 -0.08792749 -0.08753926 -0.08713473 -0.08671559 -0.08628853
 -0.08586201 -0.08542719 -0.08498869 -0.08451156 -0.08398645 -0.08338647 -0.08269831 -0.08194948 -0.08113998 -0.08031347
 -0.07947437 -0.07862269 -0.07775816 -0.07686517 -0.07594549 -0.07501045 -0.07405975 -0.07310374 -0.0721287 -0.07109897
 -0.07000377 -0.06879172 -0.06749347 -0.06612331 -0.06472923 -0.06337155 -0.06205203 -0.06079371 -0.0595741 -0.05838467
 -0.05722338 -0.05608686 -0.0549821 -0.05391587 -0.05285634 -0.05180585 -0.05068109 -0.04947446 -0.04815399 -0.04672213
 -0.04530522 -0.04391025 -0.04266033 -0.04153856 -0.04052847 -0.03961202 -0.03872491 -0.03786479 -0.03699768 -0.03612426
 -0.03523821 -0.03432122 -0.03336242 -0.03231883 -0.03115774 -0.02985371 -0.02836842 -0.02676816 -0.02505083 -0.02334495
 -0.02167971 -0.02012192 -0.01868879 -0.01736935 -0.01616574 -0.01503057 -0.01396025 -0.01286862 -0.01174671 -0.01046656
 -0.009038236 -0.007421132 -0.005674629 -0.003969206 -0.002324279 -0.0008818735 0.0004179812 0.001603284 0.002721934 0.00383849
 0.004958173 0.0061024 0.00727069 0.008463456 0.009696745 0.01098173 0.01229921 0.0136523 0.01498933 0.0163005
 0.01758359 0.01883695 0.02008348 0.02132266 0.02250716 0.02363106 0.02461331 0.02546095 0.02616248 0.02673644
 0.02723647 0.02766874 0.02807729 0.02844602 0.02876437 0.02903493 0.02924762 0.02943488 0.02961962 0.02981173
 0.03003038 0.03024123 0.03043888 0.0305881 0.03067679 0.03070641 0.03067257 0.03060881 0.03051694 0.03043571
 0.03036624 0.03030225 0.03023927 0.03013049 0.02997367 0.02973365 0.02941127 0.02898922 0.02847298 0.02786015
 0.02717015 0.02642643 0.02565446 0.02488894 0.02414372 0.02343684 0.02278013 0.02217943 0.02165727 0.02122319
 0.02088606 0.02065318 0.02050338 0.02043501 0.02042837 0.02048104 0.02059451 0.0207689 0.02101236 0.0213245
 0.02170492 0.02215164 0.02265495 0.02321239 0.02381107 0.02445005 0.02512027 0.02582415 0.02656091 0.02733442
 0.02814858 0.02900524 0.02990703 0.03085409 0.03184674 0.03288631 0.03397288 0.03510962 0.03629863 0.03753399
 0.03881789 0.04012042 0.04143972 0.04274268 0.04402827 0.04531093 0.04659452 0.04793271 0.04931576 0.05072973
 0.05214481 0.05344815 0.05464232 0.05566841 0.05656529 0.05737467 0.05810184 0.05877879 0.05936765 0.05984866
 0.06020173 0.06040929 0.06047361 0.06039642 0.06015934 0.05975644 0.05918589 0.05843844 0.05759327 0.05665766
 0.05566603 0.05461926 0.05346203 0.05219282 0.05077459 0.04921367 0.04752466 0.04571322 0.04381335 0.04180815
 0.03968924 0.03740943 0.03487404 0.03210866 0.02904612 0.02590576 0.0228372 0.01995323 0.0173972 0.01501402
 0.01277994 0.01057144 0.008340221 0.006114235 0.003887233 0.001729635 -0.000349903 -0.002359004 -0.00429837 -0.006229099
 -0.008151374 -0.01009099 -0.01203812 -0.01395408 -0.01582936 -0.01760763 -0.01929706 -0.02088355 -0.02238992 -0.02384456
 -0.02526528 -0.02668034 -0.02810265 -0.02954389 -0.03103215 -0.03258639 -0.03421729 -0.03596085 -0.037684 -0.03937546
 -0.04085281 -0.04206787 -0.04308143 -0.04388873 -0.04465546 -0.04538943 -0.04616163 -0.0469666 -0.04776464 -0.04854856
 -0.04925488 -0.04989225 -0.05045831 -0.05095975 -0.05141774 -0.05181583 -0.05213974 -0.05236936 -0.05247145 -0.05245403
 -0.05230947 -0.05205883 -0.05171319 -0.05127801 -0.05076133 -0.05014746 -0.04944173 -0.04858845 -0.04758863 -0.04632578
 -0.04478752 -0.04291261 -0.04069953 -0.03837395 -0.03596013 -0.03382427 -0.031958 -0.03050696 -0.02943538 -0.0287019
 -0.02827602 -0.02807677 -0.02807056 -0.028177 -0.02835763 -0.02854655 -0.02870526 -0.02878135 -0.02876744 -0.02863172
 -0.02843646 -0.02819555 -0.02796193 -0.02775874 -0.02756686 -0.0273896 -0.02718079 -0.02693578 -0.02663366 -0.02627333
 -0.02587689 -0.02544615 -0.0250118 -0.02457036 -0.02412076 -0.0236525 -0.02312965 -0.02254391 -0.02185415 -0.02106927
 -0.02018388 -0.01921187 -0.01817325 -0.01705621 -0.01586086 -0.01456692 -0.01315631 -0.0116458 -0.01003011 -0.008358951
 -0.006644899 -0.004912185 -0.003170411 -0.001394778 0.0004170391 0.002275599 0.004181237 0.006048761 0.00786971 0.009512095
 0.01097662 0.01220041 0.01319059 0.01394288 0.01445284 0.01470984 0.01470346 0.01440857 0.01382942 0.01295476
 0.0118107 0.01040906 0.008784755 0.006957348 0.004954622 0.002787434 0.0004842153 -0.001956206 -0.004461026 -0.007028219
 -0.00953153 -0.01195853 -0.01422633 -0.01632995 -0.01829361 -0.02012118 -0.02187271 -0.02354419 -0.02514412 -0.02666121
 -0.02805525 -0.0293298 -0.03046625 -0.03148997 -0.03243122 -0.03331676 -0.03418999 -0.03506068 -0.03595359 -0.03685826
 -0.03777859 -0.03869222 -0.03959287 -0.04046053 -0.04128799 -0.0420706 -0.04280508 -0.04350317 -0.04416554 -0.04480438
 -0.04542041 -0.04600807 -0.04656609 -0.04707563 -0.04753704 -0.04794225 -0.0482944 -0.04860121 -0.04886335 -0.04908659
 -0.04926939 -0.04941048 -0.04951215 -0.04957468 -0.04960565 -0.04960946 -0.04959688 -0.04957292 -0.04955138 -0.04953695
 -0.04954449 -0.04957845 -0.04964802 -0.04975632 -0.0499005 -0.05008132 -0.05028526 -0.05051164 -0.05074719 -0.05099186
 -0.0512426 -0.0514996 -0.05176393 -0.05203262 -0.05229688 -0.05255084 -0.05277616 -0.05296899 -0.05311435 -0.05321248
 -0.05325796 -0.053252 -0.05319377 -0.05308461 -0.05292361 -0.05271718 -0.05246516 -0.05218243 -0.05187049 -0.05155166
 -0.05122866 -0.05092485 -0.05064281 -0.05039758 -0.05019019 -0.0500224 -0.04989362 -0.04979627 -0.0497289 -0.04967958
 -0.04964609 -0.04961422 -0.04958234 -0.04953843 -0.04948479 -0.04941908 -0.04934626 -0.04927118 -0.04919752 -0.0491297
 -0.04907007 -0.04902063 -0.04898417 -0.04896246 -0.04895572 -0.04896536 -0.04898539 -0.04901551 -0.04904748 -0.04908043
 -0.04910907 -0.04913304 -0.04915024 -0.04916058 -0.04916221 -0.04915491 -0.04913632 -0.04910669 -0.04906516 -0.04901332
 -0.04895432 -0.04889026 -0.04882676 -0.04876319 -0.04870192 -0.04863902 -0.04857175 -0.04849833 -0.04841604 -0.04832786
 -0.04823408 -0.04813832 -0.04804173 -0.04794553 -0.04784966 -0.04775783 -0.04767006 -0.04759428 -0.04753099 -0.04748572
 -0.04745826 -0.04744605 -0.04744816 -0.04745754 -0.04747379 -0.04749183 -0.04751151 -0.04753044 -0.04754739 -0.04755912
 -0.04756493 -0.04756125 -0.04755253 -0.04753938 -0.04753159 -0.0475348 -0.04755571 -0.0475996 -0.04766332 -0.04774817
 -0.04784435 -0.0479506 -0.04805838 -0.04816655 -0.04827175 -0.04837365 -0.04847484 -0.04857562 -0.04868186 -0.04879357
 -0.04891409 -0.04904238 -0.04917661 -0.04931517 -0.04945323 -0.04958957 -0.04971964 -0.0498438 -0.04995993 -0.05007119
 -0.0501788 -0.05028758 -0.05040038 -0.05052101 -0.05065123 -0.05079451 -0.05095171 -0.05112709 -0.05132179 -0.05153659
 -0.05177235 -0.0520209 -0.05228186 -0.05254261 -0.05280265 -0.0530528 -0.05329322 -0.0535206 -0.05373506 -0.05393607
 -0.05412192 -0.05428942 -0.05443361 -0.05454468 -0.05461831 -0.05464362 -0.05462385 -0.05455644 -0.05445062 -0.05431224
 -0.05414312 -0.05394806 -0.05371473 -0.05344201 -0.05311351 -0.05272546 -0.05227244 -0.05175224 -0.05117719 -0.05054772
 -0.0498875 -0.04919752 -0.04849652 -0.04778372 -0.0470629 -0.04633286 -0.04559038 -0.04483615 -0.04407069 -0.04329428
 -0.04250798 -0.04171086 -0.04090022 -0.04008136 -0.03925509 -0.03843502 -0.03762911 -0.03684703 -0.03609641 -0.0353735
 -0.03467983 -0.03400512 -0.03334762 -0.03270139 -0.03206543 -0.03143855 -0.03082067 -0.03020968 -0.02960513 -0.0289989
 -0.02838994 -0.02776653 -0.02712893 -0.02647145 -0.02579587 -0.02510466 -0.02439748 -0.02367548 -0.02293636 -0.02217617
 -0.02139808 -0.02060119 -0.01979601 -0.01898787 -0.01818604 -0.01739617 -0.01662036 -0.01586087 -0.01511458 -0.01438189
 -0.01365574 -0.01293565 -0.01221344 -0.01148848 -0.01075912 -0.01002566 -0.009293957 -0.008564672 -0.007845274 -0.007135951
 -0.006442029 -0.005762059 -0.005096474 -0.004440124 -0.003784316 -0.003124147 -0.002448338 -0.001759297 -0.001054115 -0.0003397504
 0.0003803124 0.001101658 0.001822157 0.002537496 0.003246568 0.003944016 0.004627518 0.005302042 0.00596681 0.006638986
 0.007319626 0.008022608 0.008748033 0.009496549 0.01026681 0.01105001 0.01184405 0.01263688 0.01342474 0.01419444
 0.01493635 0.01563162 0.0162604 0.01679227 0.01720705 0.01747276 0.01759201 0.01755129 0.01738 0.01708474
 0.0166975 0.01622754 0.01569881 0.01511488 0.01450486 0.01387132 0.01324678 0.01263369 0.01204981 0.01149559
 0.01097585 0.01049118 0.01004912 0.009649361 0.009296556 0.008985836 0.008707349 0.008454751 0.008211491 0.007974659
 0.007734259 0.00748843 0.007233262 0.006964645 0.006679811 0.006373444 0.006042872 0.0056842 0.005295233 0.00487693
 0.004428313 0.003956441 0.003461894 0.002951119 0.002424591 0.001886028 0.001335844 0.0007820994 0.0002255921 -0.0003226491
 -0.0008642016 -0.001399022 -0.001930998 -0.002471586 -0.003021408 -0.00358785 -0.004167712 -0.004759503 -0.005361323 -0.005970449
 -0.006587472 -0.007211607 -0.007844985 -0.008487042 -0.009144736 -0.0098184 -0.0105208 -0.01125346 -0.01203124 -0.01285582
 -0.01373996 -0.01468479 -0.01569467 -0.01676909 -0.01789577 -0.01907198 -0.02027174 -0.02149176 -0.02270485 -0.02390837
 -0.02508125 -0.02622247 -0.02731923 -0.0283749 -0.02938794 -0.030364 -0.03130833 -0.03222277 -0.03310952 -0.03397059
 -0.03480477 -0.03562426 -0.03643085 -0.03724113 -0.03805949 -0.03889021 -0.03973546 -0.04058469 -0.04143763 -0.04227731
 -0.04310272 -0.04389425 -0.044651 -0.04535618 -0.0460109 -0.04661052 -0.04715771 -0.04765781 -0.04811217 -0.0485255
 -0.04889906 -0.04923477 -0.04953818 -0.04981343 -0.05006965 -0.05031354 -0.05055153 -0.05078955 -0.05102409 -0.05125707
 -0.05147554 -0.05167715 -0.05185344 -0.05200188 -0.05213069 -0.05224012 -0.05234294 -0.05243928 -0.05252702 -0.0526052
 -0.05266409 -0.05270503 -0.05272923 -0.05273832 -0.05273892 -0.0527284 -0.05270451 -0.05266511 -0.05260454 -0.05252715
 -0.05243475 -0.05233192 -0.05222356 -0.05210728 -0.0519837 -0.05184835 -0.05169962 -0.05153656 -0.05135863 -0.05116627
 -0.0509594 -0.05073889 -0.05050456 -0.05026366 -0.05001688 -0.04977982 -0.04955331 -0.04935226 -0.04917473 -0.04902102
 -0.04888617 -0.04875527 -0.04862648 -0.04848759 -0.04834315 -0.04819586 -0.04804546 -0.04789689 -0.04773559 -0.04755413
 -0.04734005 -0.04708184 -0.04679042 -0.04646433 -0.04612613 -0.04578154 -0.04543634 -0.0450932 -0.04474053 -0.04437751
 -0.04399908 -0.04360548 -0.04320803 -0.0428077 -0.04241792 -0.04203794 -0.04167141 -0.04131708 -0.04097253 -0.04063834
 -0.04031478 -0.04000186 -0.03970072 -0.03940829 -0.03912128 -0.03883982 -0.03856057 -0.03829313 -0.03804121 -0.037811
 -0.03760794 -0.03742081 -0.03724876 -0.03707867 -0.03690729 -0.03674155 -0.03658152 -0.03644009 -0.03631733 -0.03620545
 -0.03610284 -0.0359902 -0.03586936 -0.03573777 -0.03560027 -0.03547116 -0.03535073 -0.03524811 -0.03515701 -0.03507287
 -0.03498917 -0.03489712 -0.03479566 -0.03468109 -0.03455538 -0.0344193 -0.03427162 -0.0341126 -0.03393858 -0.03374805
 -0.03354378 -0.03332518 -0.03310214 -0.03287528 -0.03265331 -0.03243663 -0.03223103 -0.03203699 -0.03186192 -0.03170533
 -0.03157078 -0.03145384 -0.03134411 -0.03123572 -0.03111036 -0.03096856 -0.03080082 -0.03061673 -0.0304209 -0.03022538
 -0.03004054 -0.02987052 -0.02972219 -0.02958649 -0.02946424 -0.02933671 -0.02920097 -0.02903871 -0.02884649 -0.02861854
 -0.02835337 -0.028065 -0.02775438 -0.02744615 -0.02714058 -0.0268505 -0.02657358 -0.02630386 -0.02604206 -0.02578574
 -0.02554033 -0.02531832 -0.02511734 -0.02494408 -0.02478117 -0.0246137 -0.02442923 -0.02420859 -0.02396814 -0.0237061
 -0.02345614 -0.0232305 -0.02304259 -0.02290193 -0.02278425 -0.02268953 -0.02257841 -0.02244736 -0.0222779 -0.02206963
 -0.02183481 -0.02157479 -0.02130791 -0.02103295 -0.02075326 -0.02046692 -0.02016947 -0.01986059 -0.01953737 -0.01920041
 -0.01884712 -0.01848453 -0.01811505 -0.01775597 -0.01742027 -0.01711796 -0.01686144 -0.01663659 -0.01644287 -0.016261
 -0.01608446 -0.01591575 -0.01575342 -0.01561115 -0.01549047 -0.01539055 -0.01531104 -0.01523374 -0.01515719 -0.01505979
 -0.01494194 -0.01479264 -0.01461655 -0.0144216 -0.01421359 -0.01400963 -0.01380986 -0.0136227 -0.01344382 -0.01327186
 -0.0131032 -0.01293615 -0.01276407 -0.01258416 -0.01238883 -0.01217245 -0.01194329 -0.01170022 -0.01146313 -0.01123539
 -0.01102349 -0.01082859 -0.01064564 -0.01047455 -0.01031987 -0.0101813 -0.01006047 -0.009951959 -0.009830006 -0.009687622
 -0.009487337 -0.009230303 -0.008898025 -0.00850178 -0.008046743 -0.007552785 -0.007039411 -0.006528764 -0.006042838 -0.005592193
 -0.005187812 -0.004831223 -0.004523444 -0.004272377 -0.004081524 -0.00394729 -0.003873983 -0.003818122 -0.00377749 -0.003698398
 -0.00357851 -0.003402198 -0.003171456 -0.002901066 -0.002593406 -0.002266439 -0.001923895 -0.001586281 -0.001257628 -0.0009579681
 -0.0006853046 -0.000444491 -0.0002347033 -5.38516E-05 8.915934E-05 0.0001865279 0.0002392556 0.0002391403 0.0002155065 0.0001736146
 0.0001482411 0.0001498228 0.0001888104 0.0002696528 0.0003820453 0.0005260093 0.0006832523 0.000852866 0.001020711 0.001187916
 0.001361515 0.001543813 0.001752927 0.001985196 0.002238712 0.002507792 0.002777398 0.00304857 0.003317765 0.00358329
 0.003842443 0.004092937 0.004323676 0.004563893 0.004818103 0.005137534 0.00555549 0.006032821 0.006580658 0.007072893
 0.007484721 0.007801859 0.008017526 0.008194653 0.008335982 0.008469928 0.008595621 0.008711496 0.008817888 0.008917415
 0.009009374 0.00909497 0.009168537 0.009217055 0.009239026 0.009223656 0.009179649 0.009109368 0.009029256 0.008949886
 0.008889698 0.008863268 0.00887048 0.008919133 0.008982927 0.009056156 0.009125285 0.009184271 0.009256336 0.009343528
 0.009456389 0.009595104 0.009721447 0.009833031 0.009888694 0.009891629 0.009838502 0.00973331 0.009587622 0.009402922
 0.009184533 0.00894167 0.008688497 0.008438525 0.008213965 0.008015152 0.007850232 0.007713131 0.007602477 0.007514544
 0.007447652 0.007399542 0.007365878 0.007366708 0.007402571 0.007506697 0.00768453 0.007918268 0.008206863 0.00848852
 0.008763223 0.009011571 0.009239189 0.00947028 0.009703288 0.009943667 0.010191 0.01044248 0.01070993 0.01101433
 0.01135416 0.01174424 0.01215364 0.01256524 0.01295139 0.01328857 0.01358105 0.01382175 0.01403472 0.01422265
 0.01441325 0.01461141 0.0148329 0.01508101 0.01534212 0.01561558 0.01587674 0.01612553 0.01635584 0.01656677
 0.01675094 0.0169049 0.01700716 0.01706794 0.01709539 0.01711128 0.0171596 0.01723755 0.01736447 0.01751491
 0.01767089 0.01782984 0.0179844 0.01814172 0.01830962 0.0184613 0.01859154 0.01868067 0.01871925 0.018745
 0.01876003 0.01880396 0.01887889 0.01896589 0.01906184 0.01912169 0.01914524 0.01910721 0.01901277 0.01886277
 0.01867 0.01846256 0.01825395 0.01808289 0.01794255 0.01784502 0.01776563 0.0176897 0.01759795 0.01747729
 0.0173141 0.01710089 0.01682964 0.0164924 0.01611293 0.01569095 0.01527006 0.01485584 0.01445496 0.01406799
 0.01366623 0.01324965 0.01281016 0.01235131 0.01188998 0.01142871 0.01098215 0.01055744 0.01017767 0.009849852
 0.009603065 0.009418852 0.009293033 0.009192089 0.009083437 0.008963357 0.008814823 0.008666317 0.008524391 0.008411583
 0.008337674 0.008298242 0.008297191 0.008302414 0.008311957 0.008289775 0.008233733</values></Ydata></AB><ScSm><Ydata ylabel="Single channel"><values byteorder="INTEL" format="FLOAT32" numvalues="1814"> 0.07435508 0.07436919 0.07444603 0.07461233 0.07483796 0.07505421 0.07520345 0.07527625 0.07529497 0.07527157
 0.07521318 0.07516742 0.07521436 0.07538778 0.07562492 0.07580903 0.0758616 0.07581088 0.07577737 0.07585636
 0.07598791 0.07597218 0.0756584 0.07512029 0.07460833 0.07431696 0.07426369 0.07444201 0.07494421 0.07571542
 0.07628341 0.07610093 0.0752362 0.07439783 0.07414542 0.07435334 0.0745493 0.07445919 0.07408625 0.073602
 0.07339852 0.07398515 0.07548724 0.07723066 0.07798038 0.07671519 0.07335566 0.06900835 0.06556663 0.06469414
 0.06664646 0.06992888 0.07242096 0.07306977 0.07239357 0.07141389 0.07056136 0.06980491 0.06934715 0.06965292
 0.07080132 0.07206091 0.07226372 0.07079157 0.06831085 0.0663141 0.06576911 0.06650373 0.06798272 0.06988963
 0.07132924 0.07037648 0.06596991 0.06030123 0.05783297 0.06105524 0.06782943 0.07349205 0.07500508 0.07262839
 0.06854115 0.06504086 0.06370724 0.06497101 0.06800584 0.07142195 0.07412325 0.07536696 0.07457738 0.07184258
 0.06839937 0.0660281 0.06595854 0.0683957 0.07247847 0.07634841 0.0779949 0.07674688 0.07371767 0.07062094
 0.06864367 0.06846224 0.07040345 0.07409082 0.07843053 0.08226287 0.08484173 0.08588497 0.08561528 0.08462591
 0.08343533 0.08240712 0.08207026 0.08278908 0.08390842 0.08400748 0.08245177 0.08024272 0.07898647 0.07923469
 0.08004525 0.08012523 0.07913527 0.07747285 0.07499464 0.07101333 0.0658749 0.06135499 0.05888353 0.0584672
 0.05975919 0.06261319 0.06582777 0.06706612 0.06540805 0.06298282 0.06284446 0.06571881 0.06963594 0.07235622
 0.07344675 0.07413204 0.07570797 0.07820763 0.08022594 0.07997073 0.07703501 0.07340364 0.07205477 0.07403924
 0.07747369 0.07986762 0.08075695 0.08143444 0.08268952 0.08358759 0.0824416 0.07880913 0.07457846 0.0728107
 0.07507591 0.07988078 0.08374658 0.08378288 0.07963635 0.07358455 0.06876044 0.06698051 0.06824265 0.07190709
 0.07740188 0.08361608 0.0886201 0.09074335 0.0897918 0.08694541 0.08341798 0.07933882 0.07439248 0.06968045
 0.06794733 0.07097937 0.07731203 0.08345006 0.08698627 0.08780117 0.08670062 0.08392388 0.07936317 0.07399848
 0.07037739 0.07064322 0.07395969 0.0769816 0.07736331 0.07589793 0.07479089 0.07488935 0.07536982 0.0754546
 0.07551195 0.07643026 0.0783613 0.08039118 0.08144043 0.08125361 0.08043286 0.07972814 0.0793573 0.07885723
 0.07773249 0.07644344 0.07634957 0.07822638 0.08120234 0.0836528 0.08482479 0.08511378 0.08499417 0.08419518
 0.08210722 0.07894432 0.0762262 0.07565321 0.07745729 0.08025558 0.08249167 0.08355667 0.08363591 0.08314131
 0.08243369 0.08170496 0.08103941 0.08067089 0.08092748 0.08176228 0.08264381 0.08309341 0.08307906 0.08277584
 0.08222505 0.08140054 0.08045167 0.0797146 0.07947293 0.07974311 0.08030793 0.08091338 0.08136096 0.08147545
 0.08116993 0.08057484 0.07995627 0.07947437 0.07913287 0.07894599 0.0789907 0.07925873 0.07958473 0.0797835
 0.07979533 0.07966708 0.07945119 0.07916799 0.07883866 0.07852183 0.07831109 0.07827352 0.07836953 0.07847261
 0.0785116 0.07854298 0.07862389 0.07867564 0.07856519 0.0782872 0.07798049 0.07777918 0.07770765 0.07770565
 0.07769306 0.07759119 0.07732864 0.07689907 0.07643396 0.07615332 0.07619029 0.07649222 0.07690816 0.07730496
 0.07758366 0.07768537 0.07763851 0.07753658 0.07743074 0.07728854 0.07707429 0.07683416 0.07668667 0.07673101
 0.07695439 0.07723698 0.07745672 0.07756858 0.07758902 0.07756469 0.07756406 0.07762666 0.07770072 0.0776915
 0.07758485 0.07747284 0.07744794 0.07750672 0.07756416 0.07754841 0.07747917 0.07744582 0.0775051 0.07762361
 0.07773226 0.07780855 0.07788366 0.07798286 0.07807433 0.07808636 0.07798809 0.07784229 0.07774682 0.07773234
 0.07775688 0.07779163 0.07785861 0.07797433 0.0780993 0.07817043 0.07817124 0.07814674 0.07814272 0.07814603
 0.07810603 0.07800673 0.07789089 0.07781194 0.07778612 0.07779433 0.07780918 0.07781212 0.07779486 0.07775477
 0.07769151 0.07760566 0.07749818 0.07737704 0.07727213 0.07722977 0.07726729 0.07733369 0.07733852 0.07723247
 0.07705303 0.07688601 0.07678373 0.07672408 0.07664861 0.07653055 0.07639476 0.07627858 0.07619368 0.07612765
 0.07606384 0.07599421 0.07593073 0.07591145 0.07597506 0.07611099 0.0762464 0.07630587 0.07628345 0.0762396
 0.07623173 0.0762675 0.07632252 0.0763804 0.07645008 0.07655318 0.07669085 0.07682323 0.07690156 0.07692686
 0.07695386 0.07703332 0.07717471 0.07736139 0.07756399 0.07773627 0.07783962 0.07788768 0.07793988 0.07803874
 0.07817371 0.0783129 0.07844745 0.07859109 0.07875314 0.07893212 0.07913265 0.07937036 0.07965353 0.0799652
 0.08026595 0.08051699 0.08071215 0.08089498 0.08113245 0.08145785 0.08183965 0.08221152 0.08252996 0.08280225
 0.08306515 0.08334222 0.08362685 0.08391026 0.08421233 0.08456409 0.08496372 0.08537366 0.08576334 0.08613553
 0.08650836 0.08689019 0.08727779 0.08766866 0.08806856 0.08848521 0.0889105 0.08931428 0.08966832 0.08997724
 0.09027815 0.09061194 0.09099722 0.09141666 0.09181757 0.09214565 0.09240106 0.09264848 0.09294812 0.09328759
 0.0936088 0.09389438 0.09419147 0.09454393 0.09493269 0.09530235 0.09562843 0.095937 0.09626359 0.09660697
 0.09692488 0.09717321 0.09735144 0.09750699 0.09769145 0.09792332 0.09820214 0.09853648 0.09892868 0.0993422
 0.09971689 0.1000184 0.1002533 0.1004451 0.1006204 0.1008068 0.1010193 0.1012503 0.1014827 0.1017002
 0.1018825 0.1020202 0.1021462 0.1023219 0.1025742 0.1028756 0.1031972 0.1035482 0.1039367 0.1043289
 0.1046858 0.105027 0.1054097 0.1058397 0.1062449 0.1065542 0.1067685 0.1069344 0.1070848 0.1072419
 0.1074494 0.1077501 0.1081357 0.1085516 0.1089499 0.10932 0.1096714 0.1100081 0.1103189 0.1105824
 0.1107836 0.1109284 0.1110436 0.1111665 0.1113331 0.1115603 0.1118254 0.1120718 0.1122471 0.1123288
 0.1123095 0.1121845 0.111975 0.1117426 0.1115416 0.111354 0.111095 0.1106876 0.1101127 0.1093888
 0.1085331 0.1075626 0.1065235 0.1055032 0.104607 0.1039207 0.103497 0.1033729 0.1035803 0.1041165
 0.1049001 0.105774 0.1065611 0.1071125 0.10732 0.1071222 0.1065323 0.1056475 0.1046074 0.1035311
 0.1024866 0.1014908 0.1005242 0.09956728 0.09865962 0.09792747 0.09754333 0.09766536 0.0984189 0.09988958
 0.1020607 0.1047312 0.1075398 0.1101253 0.1122936 0.1140459 0.1154873 0.1167343 0.1178773 0.1189627
 0.119984 0.1209095 0.1217301 0.122466 0.1231288 0.1236999 0.1241488 0.1244601 0.1246471 0.1247534
 0.124836 0.1249329 0.1250519 0.1251908 0.1253462 0.1254909 0.1255558 0.1254527 0.1251184 0.1245402
 0.1237561 0.1228696 0.1221016 0.1218201 0.1224285 0.124114 0.1266708 0.1296001 0.1324003 0.1347749
 0.1366403 0.1380424 0.1390938 0.1399256 0.1406401 0.141291 0.1419002 0.1424778 0.1430295 0.1435601
 0.1440753 0.1445807 0.1450831 0.1455891 0.1460955 0.1465842 0.1470406 0.1474763 0.1479259 0.1484153
 0.1489342 0.1494441 0.1499184 0.1503707 0.1508304 0.1512969 0.1517384 0.1521363 0.1525111 0.1529014
 0.1533329 0.1538045 0.1542871 0.1547393 0.1551384 0.1554989 0.1558519 0.1562141 0.1565827 0.1569511
 0.1573175 0.1576803 0.1580387 0.1583984 0.1587716 0.159162 0.1595508 0.1599075 0.160219 0.1605049
 0.160799 0.1611188 0.1614549 0.1617851 0.1621004 0.1624173 0.1627639 0.1631481 0.1635434 0.1639111
 0.1642352 0.1645324 0.1648318 0.1651503 0.1654855 0.1658258 0.1661619 0.1664911 0.1668159 0.1671422
 0.1674767 0.1678213 0.16817 0.1685129 0.168845 0.1691705 0.1694964 0.1698251 0.1701564 0.170495
 0.1708489 0.1712149 0.1715735 0.1719043 0.1722036 0.1724837 0.1727581 0.1730341 0.1733173 0.1736125
 0.1739198 0.1742345 0.1745518 0.174872 0.1751991 0.1755347 0.1758726 0.1762015 0.176515 0.1768179
 0.1771234 0.1774435 0.1777799 0.178122 0.1784555 0.178773 0.1790774 0.1793774 0.1796829 0.1800002
 0.1803242 0.1806407 0.1809425 0.1812393 0.1815436 0.1818545 0.1821629 0.1824664 0.1827729 0.1830886
 0.18341 0.1837289 0.1840422 0.1843544 0.1846693 0.184985 0.1852988 0.1856117 0.1859267 0.1862433
 0.1865577 0.1868662 0.1871693 0.1874724 0.1877807 0.1880933 0.1884059 0.1887171 0.1890278 0.1893372
 0.1896424 0.1899423 0.1902401 0.1905423 0.1908524 0.1911665 0.1914764 0.1917786 0.1920771 0.1923775
 0.1926844 0.192999 0.1933155 0.1936249 0.1939247 0.1942236 0.1945326 0.1948541 0.1951801 0.195499
 0.1958095 0.1961233 0.1964508 0.1967863 0.1971142 0.1974235 0.1977126 0.1979898 0.198269 0.1985594
 0.198858 0.1991584 0.199461 0.1997688 0.2000799 0.2003901 0.2006961 0.2009975 0.2013002 0.201612
 0.2019341 0.2022628 0.2025968 0.2029339 0.2032671 0.2035937 0.2039188 0.2042465 0.2045749 0.2049014
 0.205224 0.2055425 0.2058646 0.2061995 0.206544 0.2068867 0.2072243 0.2075601 0.2078952 0.2082309
 0.2085666 0.2088941 0.2092086 0.2095212 0.2098449 0.2101784 0.2105164 0.2108593 0.2112045 0.2115441
 0.2118748 0.2121968 0.2125109 0.2128237 0.2131441 0.2134731 0.2138107 0.2141608 0.2145178 0.2148644
 0.2151948 0.2155169 0.2158331 0.2161442 0.2164611 0.2167901 0.2171242 0.2174578 0.2177848 0.2180786
 0.2182847 0.2182762 0.2177227 0.2159487 0.2119165 0.2044331 0.1926221 0.1764708 0.1570283 0.1360379
 0.1152953 0.09617378 0.07948065 0.06555995 0.05447605 0.04613542 0.04035558 0.03697461 0.03597257 0.03760545
 0.04255164 0.05151363 0.06369653 0.07545058 0.08168256 0.07987408 0.07248797 0.06472294 0.06019093 0.05916327
 0.06011031 0.06171896 0.06357027 0.06589833 0.06910725 0.07330908 0.07830881 0.08410694 0.09113733 0.09971748
 0.109397 0.1191474 0.1282437 0.1368289 0.1455697 0.154849 0.1643585 0.1733996 0.1814416 0.1883905
 0.1944755 0.199999 0.2051676 0.2100735 0.2147558 0.2192042 0.2232667 0.2266052 0.2288508 0.2298809
 0.2299622 0.2296053 0.2292645 0.2291567 0.2293081 0.2296833 0.2302484 0.230974 0.2318347 0.2328035
 0.2338426 0.2349115 0.2359814 0.23703 0.2380343 0.2389789 0.2398588 0.2406686 0.2414033 0.2420683
 0.2426752 0.2432327 0.2437508 0.2442444 0.2447227 0.2451857 0.2456323 0.2460622 0.2464702 0.2468478
 0.2471911 0.2475068 0.2478111 0.2481186 0.2484278 0.2487249 0.2490047 0.2492772 0.2495538 0.2498373
 0.2501281 0.250426 0.250725 0.2510167 0.2512988 0.2515746 0.2518483 0.2521237 0.2524018 0.2526779
 0.2529487 0.2532184 0.253492 0.2537663 0.2540332 0.2542909 0.2545471 0.2548129 0.2550931 0.2553793
 0.2556598 0.255936 0.2562191 0.256512 0.2568082 0.2571054 0.2574059 0.2577081 0.2580099 0.2583119
 0.2586067 0.2588773 0.2591165 0.2593414 0.2595839 0.2598642 0.2601723 0.2604759 0.2607546 0.2610188
 0.261287 0.2615595 0.2618248 0.2620778 0.2623256 0.2625889 0.2628902 0.2632259 0.2635664 0.2638952
 0.2642217 0.2645503 0.2648709 0.2651848 0.2654976 0.2657872 0.2660189 0.2662061 0.2664261 0.2667605
 0.2672133 0.2676966 0.2681131 0.2684465 0.2687522 0.2690835 0.2694568 0.2698416 0.2701382 0.2702404
 0.2701989 0.2702535 0.2706145 0.2712518 0.2719558 0.272553 0.273011 0.2733839 0.2737214 0.2740217
 0.2742378 0.2743312 0.2743508 0.2744586 0.2748215 0.275437 0.2761161 0.2766737 0.2770777 0.2773873
 0.2776526 0.2779012 0.2780892 0.278044 0.2776468 0.2771402 0.2770582 0.2777086 0.2788293 0.2798724
 0.2805469 0.2809649 0.2813279 0.2816775 0.2819628 0.2820887 0.2817858 0.2807593 0.2792605 0.2782544
 0.2786213 0.2802684 0.2822886 0.2838694 0.2848055 0.2852979 0.2856026 0.2858585 0.2859845 0.285691
 0.284809 0.2837223 0.2832693 0.2839692 0.2854363 0.2867903 0.2875515 0.2878909 0.2881587 0.2884937
 0.2887281 0.2883321 0.2867147 0.2840982 0.2819586 0.2819878 0.2844376 0.2878146 0.2903605 0.291567
 0.2920334 0.2921667 0.2915872 0.2898146 0.2869777 0.2837512 0.2811705 0.2805153 0.2824554 0.2859667
 0.288911 0.2901513 0.2905105 0.2913835 0.2930643 0.2947433 0.2955765 0.2953469 0.294315 0.2927457
 0.2907833 0.2889014 0.2881683 0.2894838 0.2924892 0.2957001 0.2978806 0.2989762 0.2994666 0.2989292
 0.2957557 0.2890909 0.2812526 0.2770836 0.2796718 0.2871142 0.2945592 0.2989745 0.3007915 0.3016205
 0.3021067 0.3017604 0.299216 0.2929513 0.2836618 0.2758006 0.2745761 0.2807906 0.2899316 0.2963997
 0.2973568 0.2930357 0.2856991 0.2789431 0.2762404 0.2788419 0.2852318 0.2926271 0.2986494 0.3019699
 0.3022913 0.3002136 0.2971754 0.2951046 0.2950341 0.2955679 0.293929 0.2894755 0.2847818 0.2818422
 0.278949 0.2738255 0.2686417 0.2685633 0.2750525 0.2834397 0.2881843 0.2884823 0.2872291 0.2857229
 0.2814096 0.2715514 0.2584261 0.2493649 0.2503326 0.2597525 0.2699401 0.2746291 0.2739283 0.2720233
 0.271583 0.2710633 0.266914 0.2582256 0.2490085 0.2447947 0.2467293 0.2505296 0.2515168 0.2483498
 0.2413462 0.2309226 0.2202232 0.2160467 0.2230701 0.2380669 0.2524901 0.2595627 0.2567148 0.2438898
 0.2243737 0.2067701 0.2008409 0.208762 0.2224951 0.2312173 0.229889 0.2200564 0.2052181 0.1884778
 0.1740308 0.1675006 0.1725124 0.1870578 0.2036912 0.2132255 0.2097346 0.1951382 0.1796278 0.1743098
 0.1810899 0.1914013 0.1958658 0.1928332 0.1869283 0.1830363 0.1834826 0.1878154 0.1932901 0.1973746
 0.1997541 0.1994913 0.1922666 0.1756096 0.1559331 0.14437 0.1451928 0.153523 0.1642651 0.1767001
 0.1888106 0.1941049 0.1889361 0.17946 0.1764697 0.1839527 0.1956609 0.2027935 0.2027473 0.1996344
 0.197864 0.197367 0.1958635 0.1940901 0.1959709 0.2032077 0.2123057 0.2184598 0.2205399 0.2206832
 0.220653 0.2205083 0.2198249 0.2184725 0.2165169 0.2143304 0.2124953 0.2111377 0.2098098 0.2081783
 0.2059899 0.2020281 0.1943898 0.1831936 0.1723108 0.1663587 0.1658562 0.1674425 0.1688645 0.1703493
 0.1700225 0.162553 0.1462197 0.1287445 0.1216968 0.1293334 0.1454339 0.1603682 0.1684326 0.1683254
 0.1602847 0.1464002 0.1331678 0.1295264 0.1395504 0.1585036 0.1779111 0.1928753 0.2026787 0.2067668
 0.2039328 0.1953706 0.1859495 0.1814914 0.1852169 0.1962432 0.2098427 0.2186408 0.2161727 0.2032983
 0.1912589 0.1934643 0.2113576 0.2319929 0.2425841 0.2435352 0.243381 0.2455098 0.2464013 0.2449218
 0.2461318 0.2542645 0.2664179 0.2753835 0.2759652 0.2670168 0.2507447 0.2332203 0.2228785 0.2238859
 0.2316105 0.2378433 0.2388504 0.2348974 0.2253696 0.2109714 0.199085 0.1992767 0.2121574 0.2280337
 0.2379303 0.2417689 0.2443842 0.2471839 0.2464773 0.2391349 0.227854 0.2195049 0.2183123 0.2221169
 0.2259513 0.2272739 0.2260388 0.2217362 0.2137019 0.204289 0.1988957 0.2013006 0.2098063 0.2189013
 0.2242509 0.2254258 0.2245176 0.223479 0.2228313 0.2218778 0.2200342 0.2185487 0.2202675 0.2264971
 0.2347607 0.2412621 0.2452087 0.2490747 0.2547128 0.260784 0.264385 0.2642328 0.2619118 0.2605255
 0.2622291 0.2665135 0.2705665 0.2716599 0.2697431 0.267735 0.2688441 0.2735109 0.2793316 0.2837797
 0.2862664 0.2876473 0.2887577 0.2896981 0.2897836 0.2880858 0.2847964 0.2820323 0.2823426 0.2861721
 0.2914234 0.2956028 0.2978109 0.2986064 0.2986563 0.2980102 0.2964957 0.2943876 0.2924473 0.2913391
 0.2911726 0.2916285 0.2923349 0.2930374 0.293591 0.2939577 0.2941807 0.2943045 0.2943559 0.2943855
 0.2944376 0.2944708 0.294407 0.2942899 0.2942996 0.294548 0.2949217 0.2951903 0.2952064 0.2949217
 0.2942732 0.2931945 0.2917383 0.2900575 0.2882297 0.2862195 0.284126 0.282424 0.281811 0.2826997
 0.2848459 0.2874972 0.2898993 0.2916645 0.2927659 0.2933455 0.2935817 0.2936426 0.2936473 0.293634
 0.2935793 0.2934532 0.2932526 0.292994 0.2927001 0.2924057 0.2921555 0.2919744 0.291841 0.2916977
 0.2914875 0.2911806 0.2907854 0.2903413 0.2898937 0.2894577 0.2890012 0.2884692 0.2878302 0.287107
 0.2863649 0.2856665 0.2850198 0.2843589 0.2835873 0.2826462 0.2815235 0.2802034 0.2786683 0.276975
 0.2752683 0.2736659 0.2721616 0.2706627 0.2690824 0.2673719 0.2655146 0.2635314 0.2614684 0.2593636
 0.2572375 0.2551036 0.2529661 0.2508122 0.2486225 0.2463857 0.2440971 0.2417564 0.2393732 0.2369601
 0.2345009 0.231919 0.2290838 0.2258573 0.2221346 0.2178547 0.2130079 0.2076659 0.201997 0.196225
 0.190561 0.185167 0.1801641 0.1756569 0.1717404 0.1684831 0.1659131 0.1640345 0.1628532 0.1623752
 0.1625901 0.163463 0.1649279 0.1668706 0.169128 0.1715114 0.173837 0.1759588 0.1778137 0.1794539
 0.1810183 0.1826455 0.1843897 0.18621 0.1880316 0.1897966 0.1914557 0.1929495 0.1942386 0.1953372
 0.1962873 0.1971122 0.1978172 0.1984205 0.1989568 0.1994558 0.1999318 0.2003972 0.2008784 0.201412
 0.2020202 0.2026977 0.2034305 0.2042179 0.2050703 0.2059952 0.2069905 0.2080452 0.2091468 0.2102945
 0.2115003 0.2127773 0.2141459 0.2156521 0.2173605 0.2193207 0.2215435 0.2239955 0.2265988 0.2292358
 0.2317649 0.2340491 0.2359961 0.2375879 0.2388642 0.2398801 0.2406883 0.2413454 0.2419041 0.2423936
 0.2428148 0.2431428 0.2433359 0.2433644 0.2432355 0.2429799 0.2426241 0.242191 0.2417111 0.2412138
 0.2407139 0.240211 0.2396994 0.239177 0.2386494 0.2381183 0.2375676 0.2369778 0.2363483 0.2356908
 0.2350075 0.2342846 0.2334931 0.2325905 0.2315395 0.230333 0.2289889 0.2275255 0.2259539 0.2242877
 0.2225466 0.2207479 0.2188967 0.2169838 0.2149998 0.2129394 0.2107787 0.208472 0.2060112 0.2034771
 0.2009932 0.1986366 0.1964184 0.1943266 0.192351 0.1904774 0.1886915 0.1869898 0.1853763 0.1838513
 0.1824088 0.1810412 0.1797454 0.1785249 0.1773909 0.1763669 0.1754799 0.174731 0.174083 0.1734955
 0.1729625 0.1724989 0.172117 0.171837 0.1716854 0.1716497 0.171649 0.1715795 0.1713851 0.1710837
 0.1707395 0.1704169 0.1701521 0.1699534 0.1698053 0.1696551 0.1694103 0.1689683 0.1682454 0.1671868
 0.1657775 0.1640538 0.1620884 0.1599751 0.1578406 0.1558387 0.1540962 0.1526697 0.1515549 0.1507083
 0.1500519 0.1494996 0.1490126 0.1486347 0.1484582 0.148517 0.1486982 0.1488043 0.148742 0.1486183
 0.1486296 0.1488939 0.1493924 0.1500079 0.1505955 0.1510597 0.151384 0.1515861 0.1516767 0.1516685
 0.151582 0.1514288 0.1512127 0.1509393 0.1506064 0.1502056 0.1497409 0.1492139 0.1486027 0.1478909
 0.1470902 0.1462113 0.1452489 0.144199 0.1430424 0.1417441 0.1403537 0.1390867 0.1382312 0.1379681
 0.1382771 0.1389631 0.1397837 0.1406007 0.1413589 0.141905 0.142022 0.141806 0.141861 0.1428596
 0.1448788 0.1472893 0.1493113 0.150563 0.1510713 0.1509629 0.1503176 0.1492031 0.1476496 0.1456212
 0.1431204 0.1402518 0.1371395 0.1339135 0.1307833 0.1279645 0.1255535 0.123563 0.1219919 0.1208829
 0.12036 0.1200416 0.118049 0.1119885 0.1026381 0.09560014 0.0966017 0.1050534 0.1144472 0.1192384
 0.1192777 0.1175295 0.1160321 0.1150777 0.1145498 0.1145957 0.1153544 0.1166737 0.118134 0.1193144
 0.120064 0.1204373 0.1203813 0.1195289 0.1171793 0.1125335 0.1053362 0.09645121 0.08756647 0.08020522
 0.07505035 0.07198137 0.07040577 0.06959774 0.06905543 0.06873073 0.06892294 0.06993092 0.07179747 0.07435319
 0.07739465 0.08068568 0.08384417 0.08646931 0.08844987 0.08997855 0.09122114 0.09212333 0.0925557 0.0924978
 0.09205012 0.09136158 0.09056722 0.08973775 0.08884869 0.08780967 0.08659185 0.08536619 0.08443229 0.08394232
 0.08377622 0.08373107 0.08371074 0.08369202 0.08365104 0.08358263 0.08350974 0.08347486 0.08356638 0.08387571
 0.08436991 0.08488162 0.08526136 0.08548848 0.08563527 0.08574069 0.08569697 0.08533531 0.08471544 0.08417515
 0.08389422 0.08357352 0.08281779 0.08172619 0.08083563 0.08053316 0.08072929 0.08106264 0.08123859 0.08117269
 0.08098254 0.08092789 0.08123607 0.0818333</values></Ydata></ScSm><ScRf><Ydata ylabel="Single channel"><values byteorder="INTEL" format="FLOAT32" numvalues="1820"> 0.06058373 0.06073413 0.06082972 0.06087136 0.06088042 0.06089735 0.06096754 0.06111085 0.06130267 0.06148704
 0.06161524 0.06167715 0.06169115 0.06167039 0.06162366 0.06158957 0.06163153 0.06177615 0.06197295 0.0621279
 0.06217737 0.06214263 0.06211853 0.06218069 0.06228049 0.06225573 0.06198432 0.06153051 0.06110611 0.06087354
 0.06084168 0.06099636 0.06141144 0.06204859 0.06252554 0.06238871 0.06168417 0.06098842 0.06076436 0.06091694
 0.06106515 0.06098529 0.06067657 0.06027768 0.06011455 0.06061079 0.06186673 0.06331784 0.06394039 0.06289435
 0.06011923 0.05653004 0.05368847 0.05296725 0.05457861 0.05728928 0.0593471 0.05988113 0.05932204 0.05851992
 0.05783311 0.05722771 0.05685669 0.0570969 0.05802075 0.05903773 0.05919221 0.05797626 0.05593934 0.05430868
 0.05387248 0.05447997 0.05569221 0.05725969 0.0584518 0.0576782 0.05405559 0.04938697 0.04735482 0.05001812
 0.05561395 0.06028885 0.06152925 0.05955246 0.05616996 0.05328795 0.05220481 0.05325977 0.05576056 0.05856622
 0.06078654 0.0618162 0.06117651 0.05893262 0.05610104 0.05415058 0.05409691 0.05610971 0.05947802 0.0626674
 0.06401848 0.06297901 0.0604709 0.05791198 0.05628474 0.05614824 0.05777108 0.06083956 0.06444675 0.06763092
 0.06977341 0.07064131 0.07042165 0.06960899 0.06863451 0.06779744 0.06753117 0.06813359 0.06906168 0.06914072
 0.0678482 0.06601651 0.06497608 0.06518003 0.06584459 0.06590152 0.06507722 0.06370562 0.0616643 0.05837546
 0.05412109 0.05037492 0.04832787 0.04799151 0.04908311 0.05148094 0.05418015 0.05523116 0.05386609 0.05185395
 0.05173183 0.05410403 0.05734117 0.0595924 0.0605021 0.06108437 0.06241081 0.06450467 0.06619319 0.06598364
 0.06354226 0.06052873 0.05942205 0.06108887 0.06395716 0.06596012 0.06672026 0.06731583 0.06840123 0.06919488
 0.06828824 0.0653102 0.06183483 0.06041298 0.06234784 0.06638909 0.06963672 0.06968409 0.06624107 0.06121513
 0.05722756 0.05579542 0.05691654 0.06006154 0.06475715 0.07007229 0.07438582 0.07628761 0.07559673 0.07328854
 0.070384 0.06700151 0.06288174 0.05896391 0.05758569 0.06027 0.06576861 0.07110346 0.07422888 0.07504943
 0.07424489 0.07199359 0.06818166 0.06366143 0.0606604 0.06104594 0.06408044 0.06684483 0.06730053 0.06614593
 0.06530631 0.0655187 0.06606255 0.06626469 0.06646359 0.06744879 0.06934433 0.07132483 0.07242322 0.0724095
 0.07182115 0.07133465 0.07115194 0.07085823 0.07001218 0.0690417 0.0691767 0.07109611 0.07398441 0.07636718
 0.07758343 0.07801383 0.07808869 0.07753622 0.07577448 0.07300369 0.07065326 0.07031969 0.07221924 0.07505313
 0.0773595 0.07856505 0.07884139 0.07857151 0.07809301 0.07759534 0.07717428 0.07705663 0.07753827 0.07855365
 0.07959123 0.08020519 0.08037492 0.0802643 0.07990282 0.07926783 0.07852282 0.0780079 0.07798809 0.07845452
 0.07918523 0.07994719 0.0805659 0.08086914 0.08075327 0.08033606 0.07989043 0.07959004 0.07943983 0.07944501
 0.07967653 0.0801247 0.08062261 0.08098574 0.08115975 0.08119516 0.08114078 0.08101015 0.08082433 0.08065225
 0.08059844 0.08072668 0.08098157 0.08123071 0.08141911 0.08162144 0.08188662 0.08210427 0.08211914 0.0819378
 0.08173208 0.08165453 0.08171879 0.08184589 0.0819512 0.08195851 0.08179298 0.08144756 0.081068 0.08089412
 0.08106856 0.08153869 0.08214813 0.08274731 0.08321063 0.08345994 0.08352382 0.08350539 0.08346067 0.08335968
 0.08317845 0.0829844 0.08291681 0.08308582 0.08347383 0.08393608 0.08431294 0.08453213 0.08461527 0.0846462
 0.08473609 0.08493523 0.085154 0.08524427 0.08518166 0.08510192 0.08513527 0.08525817 0.08533729 0.08529273
 0.08519162 0.08517758 0.08532083 0.085558 0.08577828 0.08594152 0.08609655 0.08629422 0.0864944 0.08657756
 0.08647297 0.08625922 0.08609077 0.08603597 0.08604893 0.08609405 0.08621015 0.08641935 0.08664246 0.08676584
 0.08677067 0.08674908 0.08678855 0.08687017 0.08689699 0.08680633 0.08663294 0.08647026 0.08639288 0.08641472
 0.08649389 0.08656259 0.08656634 0.08649558 0.08638534 0.08627983 0.0861991 0.08615087 0.08616836 0.08630131
 0.08653992 0.08676527 0.08682031 0.08665243 0.08637291 0.08615868 0.08609371 0.08610958 0.0860727 0.08591327
 0.08566862 0.08542413 0.085236 0.08510634 0.08500826 0.08492307 0.08486591 0.08488218 0.08499892 0.08516149
 0.08524069 0.08513974 0.08489183 0.08462641 0.08444872 0.08437502 0.08436201 0.08435978 0.08434995 0.08436102
 0.08442796 0.08452144 0.08455607 0.08449173 0.08438776 0.08433954 0.08440097 0.08456929 0.08478689 0.08494844
 0.08496961 0.0848742 0.08477414 0.08475244 0.08480112 0.08487388 0.08495238 0.08504224 0.08513962 0.08523545
 0.08534346 0.08549824 0.08571845 0.08597946 0.08622484 0.08640529 0.08651671 0.08661136 0.08676481 0.0870156
 0.08733208 0.08764136 0.08789118 0.08808541 0.08826332 0.08844951 0.08863512 0.08881442 0.08902 0.08929265
 0.08962455 0.08996408 0.09027578 0.09056644 0.09085357 0.09113805 0.0914175 0.09171023 0.09205361 0.09246923
 0.09292068 0.09331679 0.09358165 0.09372474 0.09383565 0.09401758 0.09432249 0.09471302 0.09507117 0.09528699
 0.09537235 0.095457 0.0956432 0.09590112 0.09614512 0.09637555 0.09668254 0.09711318 0.09758822 0.09797154
 0.09820108 0.09833484 0.09847683 0.09866996 0.09886698 0.09900419 0.09908481 0.09916818 0.09929155 0.09944689
 0.09964015 0.0999188 0.1003056 0.1007392 0.1011207 0.1014001 0.1015934 0.101738 0.1018579 0.1019553
 0.1020129 0.1020247 0.1020305 0.1020896 0.1022047 0.1023108 0.1023583 0.1023766 0.1024325 0.1025609
 0.1027595 0.1030218 0.1033304 0.1036375 0.1039037 0.1041592 0.1044754 0.1048532 0.1051852 0.105369
 0.1054233 0.1054451 0.1054855 0.105532 0.1055948 0.1057341 0.1059838 0.1063047 0.1066348 0.1069535
 0.1072772 0.1076133 0.1079336 0.1081828 0.1083127 0.1083219 0.1082697 0.1082496 0.1083399 0.1085631
 0.108877 0.1092052 0.1094847 0.1096833 0.1097828 0.1097796 0.1097201 0.1097045 0.109809 0.1100013
 0.1101566 0.1101592 0.1099709 0.1096097 0.1091 0.1084682 0.10777 0.1070935 0.1065253 0.1061159
 0.1058845 0.1058549 0.1060658 0.1065266 0.1071684 0.1078662 0.1085109 0.1090307 0.1093483 0.109371
 0.1090598 0.1084821 0.1077701 0.1070424 0.10637 0.1057714 0.1052116 0.1046457 0.1041092 0.1037584
 0.1037925 0.104332 0.105361 0.1067442 0.1082711 0.1097205 0.1109425 0.1119144 0.1127139 0.1134315
 0.1141126 0.1147737 0.1154365 0.1161105 0.1167591 0.1173258 0.1177982 0.1182158 0.1186157 0.1189971
 0.1193366 0.1196141 0.1198313 0.1200208 0.1202171 0.1204018 0.1205068 0.1204922 0.1203952 0.1202797
 0.1201616 0.1200027 0.1197557 0.1194031 0.1189814 0.1186004 0.1184309 0.11864 0.1192988 0.1203368
 0.1215916 0.1229101 0.1241925 0.1253531 0.1262949 0.1269626 0.127397 0.1277031 0.127973 0.1282528
 0.1285554 0.1288733 0.1291867 0.1294788 0.1297519 0.1300266 0.130328 0.1306628 0.1310038 0.1313062
 0.1315527 0.1317804 0.1320531 0.1324017 0.1327925 0.133158 0.1334683 0.1337584 0.1340727 0.1343952
 0.1346654 0.1348592 0.1350215 0.13522 0.1354921 0.1358317 0.1361953 0.1365203 0.1367675 0.1369555
 0.1371377 0.1373472 0.1375771 0.1378098 0.1380428 0.1382827 0.1385321 0.1387953 0.139084 0.1393998
 0.1397094 0.1399592 0.1401269 0.1402505 0.1403956 0.1405948 0.1408253 0.1410427 0.1412335 0.1414345
 0.1416961 0.1420224 0.1423546 0.142621 0.1427985 0.1429219 0.1430425 0.1431916 0.143373 0.1435751
 0.1437825 0.1439836 0.1441776 0.1443743 0.1445842 0.1448083 0.145036 0.145255 0.1454615 0.1456618
 0.1458648 0.1460734 0.1462876 0.1465154 0.1467735 0.1470643 0.1473574 0.1476064 0.1477888 0.1479213
 0.1480386 0.1481656 0.148312 0.1484795 0.1486674 0.1488712 0.1490844 0.1493017 0.1495205 0.1497374
 0.1499485 0.1501524 0.1503513 0.1505477 0.1507455 0.1509539 0.1511801 0.1514167 0.1516432 0.1518451
 0.1520281 0.1522118 0.1524113 0.1526234 0.1528309 0.1530214 0.1531999 0.1533811 0.1535737 0.1537755
 0.1539793 0.1541797 0.1543755 0.154568 0.1547569 0.1549391 0.1551153 0.1552927 0.1554797 0.1556804
 0.1558938 0.1561143 0.1563334 0.156544 0.1567434 0.1569316 0.1571126 0.1572944 0.1574839 0.1576793
 0.1578736 0.1580629 0.1582506 0.1584435 0.1586447 0.1588497 0.159051 0.1592493 0.1594508 0.1596556
 0.1598566 0.1600521 0.1602487 0.1604527 0.1606639 0.1608796 0.1610968 0.1613128 0.1615251 0.1617317
 0.1619333 0.1621363 0.162349 0.1625733 0.1628043 0.1630373 0.1632683 0.1634903 0.1636961 0.1638828
 0.1640511 0.1642081 0.1643671 0.16454 0.1647269 0.1649184 0.1651059 0.1652881 0.165471 0.1656605
 0.1658546 0.1660473 0.1662407 0.1664411 0.1666457 0.1668458 0.1670403 0.1672361 0.1674382 0.1676483
 0.1678655 0.1680836 0.1682948 0.1684996 0.1687032 0.1689083 0.1691174 0.1693333 0.1695536 0.1697715
 0.1699823 0.1701845 0.1703799 0.1705762 0.1707806 0.1709893 0.1711954 0.1714009 0.17161 0.1718191
 0.1720249 0.1722315 0.1724421 0.1726538 0.1728633 0.1730689 0.1732729 0.173484 0.1737065 0.1739299
 0.1741415 0.1743434 0.1745437 0.1747461 0.174955 0.1751753 0.175404 0.1756345 0.1758638 0.1760836
 0.1762835 0.1764701 0.17666 0.1768477 0.1769844 0.176945 0.1764443 0.1749345 0.1715801 0.165415
 0.1557296 0.1425227 0.1266585 0.1095586 0.09267989 0.07713554 0.06358148 0.05229668 0.04332667 0.03658344
 0.03191082 0.02917671 0.02836522 0.02968092 0.033673 0.04091461 0.05076226 0.06025243 0.06525591 0.06374465
 0.05773406 0.05144316 0.04778288 0.04695099 0.04770277 0.04898792 0.0504787 0.05235974 0.05494574 0.05832465
 0.06234669 0.06701609 0.07267527 0.0795712 0.08734393 0.09517652 0.1024896 0.1093904 0.1164059 0.1238436
 0.1314622 0.1387061 0.1451519 0.1507257 0.1556115 0.160047 0.1641889 0.1681072 0.1718401 0.1753889
 0.1786286 0.181276 0.18303 0.1837991 0.183809 0.1834787 0.183175 0.183066 0.1831644 0.18344
 0.1838678 0.1844223 0.1850809 0.1858264 0.1866345 0.1874703 0.1883049 0.1891201 0.1899019 0.1906388
 0.1913218 0.1919437 0.1925054 0.1930194 0.1934961 0.193933 0.1943282 0.1946916 0.1950363 0.1953687
 0.1956915 0.1960041 0.196303 0.1965851 0.1968496 0.197094 0.1973167 0.1975238 0.1977256 0.1979281
 0.1981325 0.1983385 0.1985463 0.1987572 0.198972 0.1991856 0.1993896 0.1995829 0.199774 0.1999687
 0.2001642 0.2003548 0.2005376 0.2007145 0.2008939 0.2010856 0.2012879 0.2014869 0.2016727 0.2018502
 0.2020314 0.2022233 0.202424 0.202627 0.2028314 0.2030447 0.2032689 0.2034934 0.2037098 0.2039251
 0.2041469 0.2043673 0.2045756 0.2047759 0.2049752 0.2051647 0.2053323 0.2054867 0.2056576 0.2058659
 0.2061014 0.2063328 0.2065399 0.2067275 0.20691 0.2070954 0.2072847 0.2074733 0.2076572 0.2078465
 0.2080631 0.2083114 0.2085703 0.2088213 0.2090649 0.2093023 0.2095294 0.2097501 0.2099695 0.2101708
 0.2103311 0.2104634 0.2106255 0.2108756 0.2112166 0.211584 0.2119022 0.2121509 0.2123661 0.2125919
 0.2128524 0.2131332 0.2133549 0.2134233 0.2133667 0.2133737 0.2136225 0.2141038 0.2146558 0.2151337
 0.2155002 0.215791 0.2160451 0.2162629 0.2164077 0.2164513 0.2164394 0.2165071 0.2167838 0.2172573
 0.2177701 0.2181796 0.2184705 0.2186946 0.2188857 0.2190579 0.2191766 0.2191136 0.2187822 0.2183765
 0.2183173 0.2188423 0.2197374 0.2205645 0.221092 0.2214084 0.2216762 0.2219349 0.2221476 0.2222352
 0.2219788 0.2211446 0.2199381 0.2191326 0.2194296 0.2207499 0.2223626 0.2236166 0.224353 0.2247404
 0.2249876 0.2252026 0.2253135 0.2250834 0.2243781 0.2235092 0.2231494 0.2237137 0.2248904 0.2259691
 0.2265615 0.2268092 0.227004 0.2272644 0.2274572 0.2271599 0.2258985 0.2238386 0.2221404 0.2221452
 0.2240654 0.226733 0.2287582 0.2297255 0.2300968 0.2301964 0.2297334 0.2283287 0.2260771 0.223509
 0.2214501 0.2209226 0.2224616 0.2252552 0.2276077 0.2286176 0.2289329 0.2296515 0.2310013 0.2323436
 0.2330137 0.2328396 0.2320254 0.2307809 0.2292235 0.227733 0.2271589 0.2282137 0.2306111 0.2331724
 0.2349166 0.2358018 0.2362131 0.2358137 0.2333162 0.2280352 0.2218207 0.2185315 0.2206211 0.2265714
 0.232525 0.2360725 0.2375568 0.2382575 0.2386876 0.2384585 0.2364852 0.2315541 0.2242133 0.2180063
 0.2170847 0.2220903 0.2294285 0.2346375 0.2354504 0.2320444 0.2262283 0.2208904 0.218813 0.2209846
 0.2261823 0.2321811 0.2370823 0.2398219 0.2401608 0.2385843 0.2362548 0.2347218 0.2348014 0.2353567
 0.2341599 0.2307107 0.2270826 0.2248714 0.2227035 0.2187512 0.214756 0.2148693 0.2202747 0.2272261
 0.2312723 0.2317689 0.2310413 0.2301154 0.2269037 0.2191758 0.2087794 0.2016891 0.2027857 0.2107971
 0.2194471 0.2236102 0.2233772 0.2221797 0.2222115 0.2222033 0.21922 0.2125099 0.2054209 0.2025706
 0.2049043 0.2088371 0.2104678 0.2086647 0.2036353 0.1956833 0.1875096 0.1849896 0.1921812 0.206326
 0.2200375 0.2273901 0.2260253 0.2157545 0.1994329 0.1847799 0.1806087 0.1888893 0.2023413 0.2111557
 0.2107552 0.2025228 0.1896251 0.1749298 0.1623966 0.1573621 0.1633048 0.1783683 0.1954591 0.2057091
 0.2033198 0.190124 0.1761072 0.1721939 0.180216 0.191627 0.1970991 0.1950128 0.1900122 0.1870553
 0.1885906 0.1942018 0.2010265 0.206422 0.210057 0.2108279 0.2039791 0.1868108 0.1662147 0.154152
 0.1552321 0.1642841 0.1759256 0.1894244 0.2025723 0.2083245 0.2027467 0.1925044 0.1892372 0.1972017
 0.2096118 0.2169603 0.2164425 0.2124953 0.2099013 0.2086719 0.2064515 0.2040611 0.2056649 0.2130526
 0.2225288 0.2290356 0.231395 0.2318596 0.2322758 0.2326846 0.2326094 0.2318889 0.2305868 0.2291054
 0.2280738 0.2276338 0.2273096 0.2267443 0.2256425 0.2225981 0.215411 0.2041693 0.1932158 0.1877126
 0.1881676 0.1907668 0.1930407 0.1952886 0.195286 0.1868389 0.1679758 0.1476153 0.1390697 0.1471848
 0.1647354 0.1806355 0.1884289 0.1868254 0.1763488 0.1594932 0.1433724 0.1375424 0.1462286 0.1642551
 0.1825482 0.1959529 0.2038998 0.2061028 0.2015254 0.1914201 0.1806243 0.1748267 0.177061 0.186326
 0.1979722 0.2049777 0.2013538 0.1880382 0.1755469 0.1762843 0.1915692 0.2095016 0.2183413 0.2184217
 0.2175277 0.2187953 0.219082 0.2173601 0.2181702 0.2253346 0.2363029 0.2446634 0.2457731 0.2385863
 0.225089 0.2108158 0.20342 0.206494 0.2154228 0.2223624 0.2238211 0.2201934 0.2111223 0.1974802
 0.1863215 0.1866296 0.1989021 0.2139782 0.2234491 0.2273076 0.2301304 0.2332058 0.2329945 0.2265223
 0.2163817 0.2091484 0.2088768 0.2135356 0.2184177 0.2211104 0.2215055 0.2189516 0.2126628 0.204941
 0.2012133 0.2052881 0.2153782 0.2257567 0.2318715 0.2331797 0.2317719 0.22967 0.2274886 0.224624
 0.2205887 0.2167307 0.2159795 0.2197276 0.2256221 0.2299779 0.2319978 0.2340562 0.2379667 0.2424893
 0.2448471 0.2437609 0.2406583 0.2384108 0.2390224 0.242047 0.2449319 0.2451995 0.242805 0.2404009
 0.2408958 0.2446814 0.2495831 0.2533352 0.2554205 0.2565993 0.2575936 0.2584588 0.2585438 0.256981
 0.2539193 0.2512533 0.2512796 0.2544126 0.2587867 0.2621869 0.2638449 0.2643096 0.2642146 0.2636197
 0.2623731 0.2607125 0.2592934 0.2586688 0.2588862 0.2596111 0.2604793 0.2612591 0.2618376 0.2622088
 0.2624453 0.2626144 0.2627417 0.2628551 0.2629768 0.2630587 0.2630221 0.2629042 0.2628783 0.2630629
 0.2633691 0.2635966 0.2636183 0.263396 0.2628738 0.2619826 0.2607549 0.2593241 0.2577699 0.2560681
 0.2543015 0.2528864 0.2524438 0.2533365 0.2553304 0.2577402 0.2598944 0.2614601 0.2624252 0.2629242
 0.2631262 0.2631881 0.2632051 0.263182 0.2630751 0.2628608 0.262558 0.2622012 0.2618192 0.2614379
 0.2610852 0.2607768 0.2604988 0.2602127 0.2598789 0.2594744 0.2589979 0.2584695 0.2579173 0.2573448
 0.2567134 0.2559728 0.2551123 0.254179 0.2532505 0.2523895 0.2516059 0.2508529 0.2500728 0.2492403
 0.2483432 0.2473431 0.246214 0.2450291 0.2439504 0.2430944 0.242431 0.241831 0.2411791 0.2404222
 0.2395498 0.2385778 0.2375447 0.2364869 0.235408 0.2342831 0.2330874 0.231812 0.2304589 0.229031
 0.2275275 0.2259531 0.2243324 0.2226982 0.2210444 0.2192928 0.2173173 0.2149899 0.2121996 0.2088572
 0.2049242 0.2004574 0.1956205 0.1906404 0.1857349 0.1810655 0.1767446 0.1728679 0.1695276 0.1668001
 0.1647367 0.163366 0.1627012 0.1627436 0.16348 0.1648739 0.1668565 0.1693231 0.1721352 0.1751234
 0.1781033 0.1809115 0.1834599 0.1857707 0.1879373 0.1900246 0.1920102 0.1938288 0.195445 0.1968578
 0.1980633 0.1990522 0.1998404 0.2004761 0.2010149 0.2014944 0.2019258 0.2023064 0.2026377 0.2029266
 0.2031752 0.2033834 0.2035648 0.2037471 0.2039527 0.2041872 0.2044472 0.2047393 0.2050877 0.2055165
 0.2060212 0.2065687 0.2071332 0.2077184 0.2083418 0.2090163 0.2097569 0.2105942 0.2115646 0.2126854
 0.2139394 0.2152824 0.2166583 0.2180012 0.2192301 0.2202614 0.2210387 0.2215499 0.2218213 0.2218987
 0.2218271 0.2216357 0.2213404 0.2209582 0.2205083 0.2200004 0.2194344 0.2188141 0.218154 0.2174707
 0.2167769 0.216084 0.2154008 0.2147272 0.2140569 0.2133927 0.2127524 0.2121497 0.2115774 0.2110162
 0.2104549 0.2098911 0.2093213 0.2087454 0.2081708 0.2075945 0.2069827 0.2062846 0.2054687 0.2045363
 0.2035057 0.2023921 0.2012024 0.1999355 0.1985827 0.1971368 0.1956055 0.1940079 0.1923555 0.1906382
 0.188833 0.1869274 0.1849413 0.1829327 0.1809759 0.1791285 0.1774148 0.1758308 0.1743516 0.1729459
 0.1715966 0.1703042 0.1690727 0.1679027 0.1667959 0.1657474 0.1647401 0.1637667 0.1628512 0.1620335
 0.1613316 0.160732 0.160211 0.1597552 0.1593602 0.1590198 0.1587352 0.1585359 0.1584638 0.1585145
 0.1586123 0.1586629 0.1586188 0.1584932 0.1583327 0.1581851 0.1580757 0.1580032 0.157951 0.1578878
 0.1577548 0.1574667 0.1569296 0.1560662 0.15485 0.1533247 0.1515834 0.1497379 0.1479133 0.146236
 0.1447965 0.1436342 0.1427526 0.142112 0.1416245 0.1412081 0.1408575 0.1406429 0.1406367 0.1408271
 0.1410855 0.1412494 0.1412753 0.1412866 0.1414577 0.1418813 0.1425366 0.143318 0.1440915 0.144766
 0.145312 0.1457146 0.1459614 0.1460776 0.1461078 0.1460631 0.1459324 0.1457222 0.1454519 0.1451391
 0.1447989 0.1444197 0.1439568 0.1433834 0.1427151 0.1419689 0.1411504 0.1402666 0.1392903 0.1381641
 0.1369272 0.1357942 0.135043 0.1348535 0.1352394 0.1360552 0.1370848 0.1381783 0.1392402 0.1400713
 0.1404287 0.1403976 0.1405648 0.1416021 0.1436354 0.1461042 0.1482573 0.1496993 0.15043 0.1505432
 0.150088 0.1491233 0.1476775 0.1457001 0.1431932 0.1403007 0.1371932 0.1340158 0.1309658 0.1282383
 0.125916 0.1240201 0.1225665 0.1215948 0.1212143 0.1210373 0.119163 0.1131632 0.1038422 0.09690724
 0.09815273 0.106929 0.1166051 0.1215659 0.1216744 0.1199487 0.1184698 0.1175355 0.1170128 0.1170434
 0.1177789 0.1190879 0.1205704 0.1218032 0.1226073 0.1230228 0.1230145 0.1222153 0.1198704 0.1151234
 0.1077162 0.09855483 0.0893835 0.08177802 0.07644996 0.07327381 0.07163715 0.07079558 0.07023605 0.06992055
 0.07017168 0.07128605 0.07327747 0.07596428 0.07915353 0.08260932 0.08594287 0.08876139 0.09095594 0.09269302
 0.09410754 0.09513715 0.09566456 0.09569085 0.09533229 0.09473252 0.09401263 0.09323979 0.09238157 0.09133101
 0.09007247 0.08882309 0.08790559 0.08745655 0.08734376 0.0873597 0.08738539 0.08738153 0.08734715 0.08730356
 0.08726219 0.08723606 0.08730001 0.08755344 0.08798802 0.08846124 0.08882223 0.08902629 0.08912544 0.08914426
 0.0889627 0.08842307 0.08762017 0.08691023 0.08646014 0.08595596 0.08500481 0.08372424 0.08268454 0.08229794
 0.0824571 0.08275595 0.082881 0.08276486 0.08254638 0.08248945 0.08280461 0.08339268 0.08383755 0.08379427
</values></Ydata></ScRf><Data_Parameters_AB><parameter name="DPF">1</parameter><parameter name="NPT">3497</parameter><parameter name="FXV">3996</parameter><parameter name="LXV">500</parameter><parameter name="CSF">1</parameter><parameter name="MXY">0.0604736134409904</parameter><parameter name="MNY">-0.103735059499741</parameter><parameter name="DAT">27/05/2022</parameter><parameter name="TIM">12:07:11.029 (GMT+2)</parameter><parameter name="DXU">WN</parameter></Data_Parameters_AB><AB__Qtest><MainReport name="Quality Test Report"><Header><Line><Legend>Test result ok/not ok [1/0]: </Legend><Value>0</Value></Line><Line><Legend>Method file: </Legend><Value>C:\Users\Public\Documents\Bruker\OPUS_8.2.28\QT\IRBT_v3_default.QT</Value></Line></Header><Matrix><Line><Legend></Legend><Legend>min</Legend><Legend>max</Legend><Legend>measured</Legend></Line><Line><Value>Absorption (X-Range 1):</Value><Value>0.400000</Value><Value>2.000000</Value><Value>0.134441</Value></Line><Line><Value>Noise (X-Range 4):</Value><Value></Value><Value>0.000300</Value><Value>0.000043</Value></Line><Line><Value>Signal/Noise (X-Range 2):</Value><Value>200.000000</Value><Value></Value><Value>54.418863</Value></Line><Line><Value>Signal/Noise (X-Range 3):</Value><Value>40.000000</Value><Value></Value><Value>46.849108</Value></Line><Line><Value>Water vapour (X-Range 5):</Value><Value></Value><Value>0.000300</Value><Value>0.000071</Value></Line><Line><Value>Signal/Water (X-Range 2):</Value><Value>100.000000</Value><Value></Value><Value>32.979031</Value></Line><Line><Value>Signal/Water (X-Range 3):</Value><Value>20.000000</Value><Value></Value><Value>28.391593</Value></Line><Line><Value>Fringes (X-Range 6):</Value><Value></Value><Value>0.000100</Value><Value>0.000077</Value></Line></Matrix></MainReport></AB__Qtest><Data_Parameters_ScSm><parameter name="DPF">1</parameter><parameter name="NPT">1814</parameter><parameter name="FXV">3996.33169228125</parameter><parameter name="LXV">499.541461535156</parameter><parameter name="CSF">1</parameter><parameter name="MXY">0.302291333675385</parameter><parameter name="MNY">0.0359725691378117</parameter><parameter name="DAT">27/05/2022</parameter><parameter name="TIM">12:07:11.029 (GMT+2)</parameter><parameter name="DXU">WN</parameter></Data_Parameters_ScSm><Data_Parameters_ScRf><parameter name="DPF">1</parameter><parameter name="NPT">1820</parameter><parameter name="FXV">4004.04661832813</parameter><parameter name="LXV">495.683998511719</parameter><parameter name="CSF">1</parameter><parameter name="MXY">0.264309644699097</parameter><parameter name="MNY">0.0283652227371931</parameter><parameter name="DAT">27/05/2022</parameter><parameter name="TIM">12:06:42.717 (GMT+2)</parameter><parameter name="DXU">WN</parameter></Data_Parameters_ScRf><Optic_Parameters_Rf><parameter name="APR">0</parameter><parameter name="APT">Open</parameter><parameter name="BMS">KBr</parameter><parameter name="DTC">RT-DLaTGS_IR-Biotyper [Microplate reader]</parameter><parameter name="HPF">0</parameter><parameter name="LPF">10.0</parameter><parameter name="LPV">4000</parameter><parameter name="PGR">0</parameter><parameter name="RCH">Module port</parameter><parameter name="RDX">0</parameter><parameter name="SRC">MIR</parameter><parameter name="VEL">10.0</parameter><parameter name="SON">Off</parameter></Optic_Parameters_Rf><Acquisition_Parameters_Rf><parameter name="ADT">1</parameter><parameter name="AQM">DD</parameter><parameter name="CFE">0</parameter><parameter name="COR">0</parameter><parameter name="DEL">0</parameter><parameter name="DLY">0</parameter><parameter name="HFW">8000</parameter><parameter name="LFW">0</parameter><parameter name="NSR">32</parameter><parameter name="PLF">AB</parameter><parameter name="RES">6</parameter><parameter name="RGN">-1</parameter><parameter name="STR">0</parameter><parameter name="TCL">MakeCompatibleScalar (0, {WSV=1.000000, ARV=0});</parameter><parameter name="TDL">37</parameter><parameter name="RPO">0</parameter></Acquisition_Parameters_Rf><FT_-_Parameters_Rf><parameter name="APF">B3</parameter><parameter name="HFQ">500</parameter><parameter name="LFQ">4000</parameter><parameter name="NLI">0</parameter><parameter name="PHR">24</parameter><parameter name="PHZ">ML</parameter><parameter name="SPZ">NO</parameter><parameter name="ZFF">1</parameter></FT_-_Parameters_Rf><Optic_Parameters_><parameter name="APR">0</parameter><parameter name="APT">Open</parameter><parameter name="BMS">KBr</parameter><parameter name="CHN">Module port</parameter><parameter name="DTC">RT-DLaTGS_IR-Biotyper [Microplate reader]</parameter><parameter name="HPF">0</parameter><parameter name="LPF">10.0</parameter><parameter name="LPV">4000</parameter><parameter name="PGN">0</parameter><parameter name="RDX">0</parameter><parameter name="SRC">MIR</parameter><parameter name="VEL">10.0</parameter><parameter name="SON">Off</parameter></Optic_Parameters_><FT_-_Parameters_><parameter name="APF">B3</parameter><parameter name="HFQ">500</parameter><parameter name="LFQ">4000</parameter><parameter name="NLI">0</parameter><parameter name="PHR">24</parameter><parameter name="PHZ">ML</parameter><parameter name="SPZ">NO</parameter><parameter name="ZFF">1</parameter></FT_-_Parameters_><Acquisition_Parameters_><parameter name="ADT">1</parameter><parameter name="AQM">DD</parameter><parameter name="CFE">0</parameter><parameter name="COR">0</parameter><parameter name="DEL">0</parameter><parameter name="DLY">0</parameter><parameter name="HFW">8000</parameter><parameter name="LFW">0</parameter><parameter name="NSS">32</parameter><parameter name="PLF">AB</parameter><parameter name="RES">6</parameter><parameter name="SOT">0</parameter><parameter name="TCL">MakeCompatibleScalar (0, {WSV=1.000000, ARV=0});</parameter><parameter name="TDL">37</parameter><parameter name="SPO">0</parameter><parameter name="SGN">-1</parameter></Acquisition_Parameters_><Instrument_Parameters_Rf><parameter name="HFL">15800.168544</parameter><parameter name="LFL">0</parameter><parameter name="LWN">15800.168544</parameter><parameter name="ABP">32197</parameter><parameter name="SSP">1</parameter><parameter name="ARG">2</parameter><parameter name="ASG">2</parameter><parameter name="ASS">32</parameter><parameter name="GFW">16</parameter><parameter name="GBW">16</parameter><parameter name="BFW">0</parameter><parameter name="BBW">0</parameter><parameter name="PKA">7268</parameter><parameter name="PKL">4996</parameter><parameter name="PRA">7451</parameter><parameter name="PRL">5001</parameter><parameter name="P2A">1</parameter><parameter name="P2L">1</parameter><parameter name="P2R">1</parameter><parameter name="P2K">1</parameter><parameter name="DAQ">0</parameter><parameter name="AG2">1</parameter><parameter name="SSM">1</parameter><parameter name="RSN">24934</parameter><parameter name="CRR">0</parameter><parameter name="SRT">1653653202.718</parameter><parameter name="DUR">19.635986328125</parameter><parameter name="TSC">27.9</parameter><parameter name="MVD">0.329587906599045</parameter><parameter name="AN1">0.225783460625611</parameter><parameter name="AN2">0</parameter><parameter name="VSN">2.485 Apr  4 2017</parameter><parameter name="SRN">0085</parameter><parameter name="CAM">0</parameter><parameter name="INS">IR-Biotyper</parameter><parameter name="FOC">69</parameter><parameter name="RDY">1</parameter><parameter name="ARS">32</parameter></Instrument_Parameters_Rf><Sample_Parameters_><parameter name="BLD"></parameter><parameter name="CNM">Admin</parameter><parameter name="CPY"></parameter><parameter name="DPM"></parameter><parameter name="EXP">IRBT_v3_32Scans.XPM</parameter><parameter name="LCT"></parameter><parameter name="SFM">Microplate, HTS-XT</parameter><parameter name="SNM">220527-1039(v.2)_GFG29M (D_9)_C9_5b3a5a39-861c-48c9-bbf6-e1a15910fb48.0</parameter><parameter name="XPP">C:\Users\Public\Documents\Bruker\OPUS_8.2.28\XPM</parameter><parameter name="IST">OK</parameter><parameter name="CPG">1252</parameter><parameter name="UID">b242e3e0-510d-458b-9324-b9e582ae0edc</parameter></Sample_Parameters_><Instrument_Parameters_><parameter name="HFL">15800.168544</parameter><parameter name="LFL">0</parameter><parameter name="LWN">15800.168544</parameter><parameter name="ABP">32197</parameter><parameter name="SSP">1</parameter><parameter name="ASG">2</parameter><parameter name="ARG">2</parameter><parameter name="ASS">32</parameter><parameter name="GFW">16</parameter><parameter name="GBW">16</parameter><parameter name="BFW">0</parameter><parameter name="BBW">0</parameter><parameter name="PKA">8148</parameter><parameter name="PKL">4988</parameter><parameter name="PRA">8432</parameter><parameter name="PRL">4993</parameter><parameter name="P2A">1</parameter><parameter name="P2L">1</parameter><parameter name="P2R">1</parameter><parameter name="P2K">1</parameter><parameter name="DAQ">0</parameter><parameter name="AG2">1</parameter><parameter name="SSM">1</parameter><parameter name="RSN">13093</parameter><parameter name="CRR">0</parameter><parameter name="SRT">1653653231.03</parameter><parameter name="DUR">19.635986328125</parameter><parameter name="TSC">27.9</parameter><parameter name="MVD">0.199353590607643</parameter><parameter name="AN1">0.225813217468142</parameter><parameter name="AN2">0</parameter><parameter name="VSN">2.485 Apr  4 2017</parameter><parameter name="SRN">0085</parameter><parameter name="CAM">0</parameter><parameter name="INS">IR-Biotyper</parameter><parameter name="FOC">69</parameter><parameter name="RDY">1</parameter></Instrument_Parameters_><History/></OPUSDataFile>
