<?xml version="1.0" encoding="UTF-8" ?>
<OPUSDataFile><AB><Ydata ylabel="Absorbance Units"><values byteorder="INTEL" format="FLOAT32" numvalues="3497"> -0.01052829 -0.01047997 -0.01042796 -0.01037227 -0.01031207 -0.01024732 -0.01018314 -0.01012045 -0.01007292 -0.01004069
 -0.01003314 -0.01004678 -0.01007479 -0.01011307 -0.01014736 -0.01017905 -0.01020295 -0.01022473 -0.01024956 -0.01027926
 -0.01031843 -0.01036208 -0.01040973 -0.01045359 -0.01049099 -0.01051577 -0.01052561 -0.01051882 -0.010494 -0.01045716
 -0.01040831 -0.01035897 -0.01030978 -0.01026903 -0.01023675 -0.0102154 -0.01020492 -0.01020648 -0.01021995 -0.01024662
 -0.01028386 -0.0103271 -0.01037176 -0.01040773 -0.01043407 -0.01044394 -0.01044381 -0.01043591 -0.01042754 -0.01042479
 -0.01042571 -0.01043262 -0.01043508 -0.01043099 -0.01041245 -0.01037688 -0.01032813 -0.01026574 -0.01020162 -0.01013641
 -0.01008077 -0.01003476 -0.01000173 -0.009980876 -0.009968672 -0.009965366 -0.009969393 -0.009982836 -0.01001063 -0.01005249
 -0.01011259 -0.01018316 -0.01025883 -0.01032771 -0.01037753 -0.01040507 -0.01040192 -0.01038124 -0.0103442 -0.01030977
 -0.01028409 -0.01027232 -0.01027744 -0.0102905 -0.01031077 -0.01033297 -0.01035672 -0.01039148 -0.01043771 -0.01050651
 -0.01059414 -0.01068564 -0.01077247 -0.01081151 -0.01080632 -0.01073743 -0.01062793 -0.01050833 -0.01039388 -0.01031922
 -0.01027498 -0.01026849 -0.010277 -0.01028945 -0.01029205 -0.01027386 -0.01024356 -0.01019987 -0.01015982 -0.01012697
 -0.01010542 -0.01009676 -0.01009047 -0.01008601 -0.01007489 -0.01005771 -0.01004146 -0.01002806 -0.01003365 -0.01005795
 -0.01011017 -0.01018512 -0.01027635 -0.01037561 -0.01046589 -0.0105429 -0.01059423 -0.01062113 -0.01062089 -0.01059466
 -0.01054014 -0.01046674 -0.01037237 -0.010287 -0.0102163 -0.01019007 -0.01021702 -0.0102939 -0.01042483 -0.01055707
 -0.01068811 -0.01072802 -0.01067707 -0.01051912 -0.01027025 -0.01003019 -0.009803099 -0.009659341 -0.009587625 -0.009596474
 -0.009671334 -0.009796522 -0.00994779 -0.01009323 -0.01020841 -0.01025644 -0.01024699 -0.01016586 -0.01006271 -0.009953989
 -0.009872327 -0.009834524 -0.009827293 -0.009851518 -0.009887994 -0.00993356 -0.00999298 -0.01006632 -0.01016464 -0.01028696
 -0.01042128 -0.0105628 -0.0106743 -0.01075243 -0.01076126 -0.01070836 -0.01059048 -0.01042569 -0.01024203 -0.01005659
 -0.009901909 -0.009783577 -0.009719639 -0.009700785 -0.009729332 -0.009786129 -0.009865616 -0.009948854 -0.01002957 -0.01009838
 -0.01015255 -0.01018974 -0.01020991 -0.01020548 -0.01017599 -0.01011395 -0.0100199 -0.009901711 -0.009761404 -0.009616119
 -0.009467309 -0.009328544 -0.009202288 -0.00910088 -0.009027475 -0.008994938 -0.008999688 -0.00904675 -0.009118969 -0.009206784
 -0.009287437 -0.009343279 -0.009368382 -0.009351076 -0.009314768 -0.009260678 -0.009222812 -0.009208911 -0.009228929 -0.009286778
 -0.009360374 -0.009448735 -0.009523325 -0.009583645 -0.009619016 -0.0096318 -0.009632739 -0.00962388 -0.009620523 -0.009619342
 -0.009620465 -0.009617881 -0.009599473 -0.009565761 -0.009508116 -0.009442128 -0.009374388 -0.009329067 -0.009324285 -0.009366264
 -0.009467674 -0.009602183 -0.009768607 -0.009927016 -0.01006844 -0.01018023 -0.01025863 -0.01031805 -0.0103596 -0.01036893
 -0.01034462 -0.01025529 -0.01010636 -0.009918762 -0.009703108 -0.009515247 -0.009355347 -0.00925432 -0.009202053 -0.009196453
 -0.009223594 -0.009265046 -0.009312735 -0.009351927 -0.009385003 -0.009409571 -0.009428386 -0.009443314 -0.009450808 -0.009451214
 -0.009436414 -0.009404682 -0.00935244 -0.009277877 -0.009193716 -0.009100348 -0.009024115 -0.008966072 -0.008946679 -0.008963718
 -0.009014254 -0.009090384 -0.009159659 -0.009214458 -0.009212574 -0.009165309 -0.009069548 -0.008948479 -0.008834571 -0.00872958
 -0.008650258 -0.008579347 -0.00851053 -0.008432641 -0.008335638 -0.008231265 -0.008118588 -0.008020137 -0.007940978 -0.007888508
 -0.007866014 -0.007854601 -0.007853671 -0.007827536 -0.007775288 -0.007678198 -0.007541872 -0.007397911 -0.007252423 -0.007150108
 -0.007086135 -0.007070506 -0.00709601 -0.007154587 -0.007240029 -0.007344938 -0.007454516 -0.007557204 -0.007630596 -0.007656253
 -0.007627707 -0.007534089 -0.00739197 -0.007203242 -0.006984179 -0.006737035 -0.006478889 -0.006211158 -0.005954466 -0.005710473
 -0.005484221 -0.005275505 -0.005077444 -0.004891139 -0.004721074 -0.004570162 -0.004454746 -0.004372813 -0.004329665 -0.004316419
 -0.004320147 -0.004331503 -0.004335533 -0.004320152 -0.004272124 -0.004176177 -0.004012845 -0.003798054 -0.00352598 -0.00324568
 -0.002972468 -0.002725936 -0.002515692 -0.002324244 -0.002151073 -0.001976209 -0.001797931 -0.001615438 -0.001429471 -0.001257652
 -0.001100521 -0.0009732182 -0.0008698476 -0.0007769383 -0.0006816774 -0.0005384499 -0.0003484151 -8.285922E-05 0.0002262452 0.0005476504
 0.0008605715 0.001128215 0.001365278 0.001567845 0.001760498 0.001954498 0.002158808 0.002381522 0.002608037 0.00283749
 0.003052986 0.003250814 0.003437747 0.00361336 0.00380793 0.004022655 0.004280491 0.004578096 0.004900909 0.005243286
 0.005571885 0.005887276 0.006173335 0.006434738 0.006672973 0.006891588 0.007095056 0.007287828 0.007474817 0.00766078
 0.00785087 0.008044489 0.008241825 0.008444651 0.00865086 0.008875897 0.009122684 0.009401117 0.009715624 0.01003967
 0.01037228 0.01067272 0.01094017 0.01116645 0.01135493 0.01152829 0.01168966 0.01186548 0.0120543 0.01226741
 0.01249783 0.01273842 0.0129813 0.01321135 0.01342934 0.01362695 0.01381907 0.01401052 0.01422034 0.01446067
 0.0147314 0.01503877 0.01535971 0.01569191 0.01601035 0.01631122 0.01658357 0.01682583 0.01704748 0.01724942
 0.01745288 0.0176581 0.01787701 0.01810751 0.01834603 0.01859212 0.01884186 0.01909803 0.01936556 0.01964299
 0.01993293 0.0202261 0.02051512 0.02079228 0.02104905 0.02128713 0.0215048 0.02170667 0.02189445 0.02206785
 0.02222676 0.02237208 0.02250274 0.02263162 0.02275932 0.02290416 0.02306646 0.02324706 0.02344321 0.02363199
 0.02381211 0.02396313 0.02409142 0.02420332 0.02430801 0.02442825 0.02456431 0.02472931 0.02491098 0.02510374
 0.02529343 0.02546705 0.02562421 0.02575789 0.02588609 0.0260113 0.02615486 0.02632313 0.02651809 0.02674242
 0.02697759 0.02722256 0.02745891 0.02768612 0.02790072 0.02810323 0.02829718 0.02848162 0.02865388 0.02881291
 0.02895262 0.02907643 0.02918664 0.02929062 0.02939964 0.02951808 0.02965528 0.02980904 0.02998123 0.03016706
 0.03036532 0.03057075 0.03078264 0.03099202 0.03119742 0.03138962 0.03156642 0.03173045 0.03188122 0.03203585
 0.03219513 0.03237413 0.03257134 0.03278143 0.03299971 0.03320162 0.03338419 0.03352384 0.03362544 0.03368509
 0.03371479 0.03372931 0.03373803 0.03375671 0.03378506 0.03382781 0.03388149 0.03394491 0.0340183 0.03410234
 0.03419332 0.03429194 0.03438631 0.03447475 0.03455091 0.03461361 0.03467269 0.03472874 0.03479609 0.03487466
 0.03496925 0.03507929 0.03520428 0.03534461 0.03550236 0.03567549 0.03586291 0.03605739 0.03624904 0.03643057
 0.0365902 0.03672774 0.03683808 0.03692823 0.03699978 0.03705975 0.03711094 0.03715607 0.03719638 0.03723131
 0.03726081 0.03728523 0.0373044 0.03732304 0.03734162 0.03737275 0.03741746 0.03749137 0.03759331 0.03772809
 0.03788938 0.03806184 0.03823742 0.03839085 0.03852171 0.03861523 0.03868412 0.03873326 0.03878064 0.03884181
 0.03892112 0.03902908 0.0391464 0.03927099 0.03937826 0.03945994 0.03951791 0.03954872 0.03958296 0.03962294
 0.03968821 0.03977883 0.03987189 0.03996443 0.04001691 0.04003262 0.04000365 0.03994189 0.0398794 0.03982527
 0.03981715 0.03984897 0.03993227 0.04004643 0.04017649 0.04030257 0.04040324 0.04047938 0.04052052 0.0405542
 0.0405852 0.04064371 0.04074058 0.04087181 0.0410421 0.04120808 0.04136707 0.04147691 0.04153623 0.041545
 0.0415068 0.04145692 0.0413972 0.04135645 0.04133084 0.04132213 0.04132936 0.04134915 0.04138777 0.04145462
 0.04154965 0.04168156 0.04183186 0.04199251 0.04214222 0.04226529 0.04236389 0.04243187 0.04249204 0.0425488
 0.04261579 0.0426975 0.04278202 0.04286927 0.04293777 0.04298666 0.04300845 0.04300449 0.04298511 0.04295251
 0.04292275 0.04289722 0.04288826 0.04289687 0.04293165 0.0429914 0.04308029 0.04319007 0.04331661 0.04344483
 0.04356338 0.04366111 0.04372767 0.04376645 0.04377407 0.04376608 0.04374378 0.04372746 0.04371903 0.04374166
 0.04379722 0.04390685 0.04407132 0.04429021 0.04455976 0.0448435 0.04513462 0.04537784 0.04557248 0.04568329
 0.04572285 0.04569701 0.04562756 0.04554816 0.04547666 0.04544658 0.04545768 0.04552523 0.04562613 0.04575728
 0.04588354 0.04599316 0.04606104 0.0460772 0.04604303 0.04595515 0.0458381 0.04569305 0.04554981 0.04540989
 0.04529329 0.04519998 0.04513676 0.04510249 0.04509493 0.04511313 0.04515292 0.04521386 0.0452945 0.04539073
 0.04549946 0.0456067 0.04569968 0.04575938 0.04576648 0.04571603 0.04559523 0.04542628 0.04520983 0.04498293
 0.04475359 0.04454867 0.04437416 0.04423591 0.04413562 0.04406315 0.04401787 0.04397973 0.04394741 0.04389884
 0.04383503 0.04374805 0.04364308 0.04353313 0.0434213 0.04332326 0.04323312 0.04314958 0.04306435 0.04296535
 0.04285636 0.0427328 0.04261153 0.04249903 0.04241014 0.04235319 0.04232744 0.04233712 0.04236193 0.0424016
 0.04242231 0.0424212 0.04237156 0.04227219 0.04212892 0.04194495 0.04175802 0.04157107 0.04142141 0.04130538
 0.04123196 0.04119322 0.04117588 0.04117467 0.04117558 0.04117695 0.04117303 0.04115997 0.04113504 0.04108955
 0.04101794 0.04091663 0.04077936 0.04062298 0.04044671 0.04028515 0.04014347 0.04004438 0.039992 0.03997194
 0.0399834 0.03998947 0.03998931 0.03996025 0.03990591 0.03983397 0.03974908 0.03967158 0.03960146 0.0395498
 0.03951168 0.03948485 0.03946345 0.03943996 0.03941165 0.03937303 0.03932714 0.03927284 0.03921827 0.03916615
 0.03912174 0.0390884 0.03905898 0.03903398 0.03899773 0.03894867 0.03887865 0.03878727 0.03868299 0.03856679
 0.03845302 0.03834147 0.03823863 0.03814305 0.03805289 0.03796773 0.03788578 0.03780692 0.03773088 0.03765571
 0.03757895 0.03749992 0.03741481 0.03733223 0.03725271 0.03719429 0.0371641 0.0371713 0.03722342 0.03730076
 0.03740445 0.03749254 0.03756133 0.0375796 0.03754564 0.03746391 0.03733703 0.03719781 0.03704934 0.03692669
 0.03682892 0.03677357 0.0367533 0.03676217 0.03678835 0.03681034 0.03682084 0.03680073 0.03675654 0.03668449
 0.03660084 0.03651378 0.03643177 0.03636175 0.03629739 0.03623853 0.03617803 0.03611314 0.0360528 0.03599677
 0.03596619 0.03596218 0.03599404 0.03605987 0.03613924 0.03622779 0.03628821 0.03632123 0.03630648 0.03625436
 0.03617804 0.03608877 0.03601335 0.03594982 0.03590912 0.03587766 0.03584732 0.03581161 0.0357617 0.03570757
 0.03565055 0.03560071 0.03556276 0.03553091 0.03550544 0.03547603 0.03544085 0.03540596 0.03537162 0.03535565
 0.03535812 0.03538499 0.03543371 0.0354919 0.03555766 0.03561693 0.03567137 0.03571771 0.03575892 0.03579889
 0.03583823 0.03588052 0.03592125 0.03596048 0.03598633 0.03599385 0.03596959 0.03590537 0.03580298 0.03565718
 0.03549533 0.03531903 0.03516503 0.0350378 0.03495162 0.03490756 0.03488356 0.03487734 0.03485219 0.03480877
 0.0347306 0.03462439 0.03450498 0.03437907 0.03427164 0.03418154 0.03411931 0.03407811 0.03405379 0.03404183
 0.03403725 0.03403781 0.03404201 0.03404499 0.0340446 0.03403789 0.03402254 0.03400422 0.03398363 0.03396488
 0.03394943 0.03392531 0.03389192 0.03383331 0.03375027 0.03364984 0.03353573 0.0334359 0.03334982 0.03329322
 0.03325697 0.03322713 0.03319563 0.03313998 0.03306422 0.03296209 0.03284591 0.03272296 0.03260398 0.03249653
 0.03240744 0.03234066 0.0323006 0.03229018 0.03230548 0.03234785 0.03240163 0.03246594 0.03252178 0.03256801
 0.03258979 0.03258662 0.03254799 0.03247478 0.03236501 0.03222343 0.03206462 0.03189677 0.03174711 0.03162063
 0.03153954 0.03150055 0.03151006 0.03155855 0.03164171 0.03174818 0.03187173 0.03200102 0.03213127 0.03225228
 0.03236075 0.0324498 0.03251706 0.03256404 0.03258948 0.03261057 0.03262807 0.03267375 0.03274894 0.03288005
 0.03306427 0.03329896 0.03357668 0.03386829 0.03416873 0.03444928 0.03471288 0.03495058 0.03516972 0.03537591
 0.03557361 0.03576901 0.03596188 0.03615348 0.03634368 0.0365319 0.03672159 0.03691339 0.03711078 0.03731508
 0.03752362 0.03773677 0.03794556 0.03814951 0.03834119 0.03852047 0.03868482 0.03883403 0.0389658 0.03907935
 0.03916943 0.03923779 0.03928391 0.03931502 0.03934233 0.03937385 0.03942513 0.03949575 0.03959266 0.0397063
 0.03983312 0.03996583 0.04009919 0.04023648 0.04037686 0.04052783 0.04069085 0.04086861 0.04106161 0.04126995
 0.04149364 0.04173329 0.04198851 0.04225393 0.04252794 0.0427965 0.04305961 0.04330812 0.04354694 0.04378343
 0.0440227 0.0442802 0.04454967 0.04483632 0.04511322 0.0453677 0.04555343 0.04564472 0.04559631 0.04538012
 0.0449905 0.04441034 0.04369887 0.04285632 0.0419828 0.04108794 0.04025391 0.03948675 0.03881372 0.03823414
 0.03773599 0.03731742 0.03696136 0.03666625 0.03641929 0.03621514 0.036035 0.03587172 0.03570237 0.03552817
 0.03533857 0.03514589 0.03495706 0.0347814 0.03462961 0.03449377 0.03437496 0.0342578 0.03413678 0.03401027
 0.03387516 0.03374674 0.03362573 0.03353097 0.03346374 0.0334362 0.03344828 0.03350014 0.03358872 0.03369446
 0.03381162 0.03390633 0.03397673 0.03399802 0.03397842 0.03391886 0.03383357 0.03374029 0.03364948 0.03357661
 0.03352484 0.0335006 0.03350243 0.03353118 0.03358483 0.03366221 0.03376592 0.03389539 0.03405948 0.03425972
 0.03449697 0.03477216 0.03504835 0.03532096 0.03550546 0.03559602 0.03550528 0.03524204 0.03478613 0.03416869
 0.03345642 0.03268407 0.03194833 0.03125776 0.03066851 0.03015678 0.02972332 0.02933761 0.02897914 0.02863759
 0.028301 0.02798004 0.02767475 0.02739822 0.0271537 0.02694348 0.02676898 0.02662101 0.02649922 0.02638968
 0.02629184 0.02619538 0.02610059 0.0260044 0.02590751 0.02581116 0.02571549 0.02562141 0.02552903 0.02543852
 0.0253511 0.02526822 0.02519116 0.02512232 0.02505981 0.02500424 0.02494996 0.02489459 0.02483509 0.02476876
 0.02470153 0.02463347 0.02457381 0.02452422 0.02448424 0.02445417 0.02442196 0.0243871 0.02434003 0.02428183
 0.02421603 0.02414387 0.0240734 0.02400262 0.02393065 0.0238541 0.02376463 0.02366465 0.0235515 0.02343521
 0.02332301 0.02322452 0.02314905 0.02309666 0.02307139 0.02306368 0.02307297 0.02308498 0.02309763 0.02309679
 0.02308046 0.02304089 0.02297716 0.02289476 0.02279437 0.02269082 0.02258476 0.02248833 0.02240077 0.02232539
 0.02226127 0.02220762 0.02216397 0.02212979 0.02210308 0.02208168 0.02206223 0.02204041 0.02201617 0.02198701
 0.02195828 0.02193169 0.02191123 0.02189989 0.02189185 0.02188742 0.02187508 0.02185311 0.02181798 0.02176904
 0.02171523 0.02165702 0.02160404 0.02155568 0.02151147 0.02147009 0.02142511 0.0213771 0.02132349 0.02126761
 0.02121395 0.02116654 0.0211329 0.02111409 0.02111584 0.02113075 0.02115868 0.02118338 0.02119833 0.02119081
 0.02115344 0.02109182 0.0210036 0.02091045 0.02081445 0.02073388 0.02067054 0.02062437 0.02059488 0.02056849
 0.02054468 0.02051262 0.02047374 0.02042837 0.02037849 0.02033028 0.02028366 0.02024164 0.02020268 0.0201656
 0.02013036 0.02009629 0.02006436 0.02003581 0.02000841 0.01998206 0.0199526 0.01991819 0.01987921 0.01983483
 0.01979022 0.01974608 0.01970446 0.01966568 0.01962646 0.01958683 0.01954767 0.01951019 0.01948514 0.01947285
 0.01948228 0.01950881 0.01954534 0.01958435 0.01960683 0.01961132 0.01958569 0.01953786 0.01947023 0.01939196
 0.01931047 0.01922824 0.01914839 0.01907005 0.01899277 0.01891967 0.01885085 0.01879155 0.01874262 0.01870544
 0.0186803 0.01866385 0.01865584 0.01865059 0.01864778 0.01864226 0.01863389 0.01861915 0.01859841 0.01857064
 0.01853695 0.01849833 0.01845734 0.0184174 0.01838174 0.01835509 0.01833774 0.01833255 0.01833425 0.01834183
 0.01834854 0.01835167 0.01834938 0.01834036 0.01832753 0.01831108 0.01829356 0.01827522 0.01825624 0.01823664
 0.01821649 0.01819593 0.01817623 0.01815745 0.01814081 0.01812582 0.01811217 0.01809835 0.0180815 0.01805985
 0.01802942 0.01799031 0.01794002 0.01788294 0.01782021 0.01775873 0.01770208 0.01765375 0.0176168 0.01758625
 0.01756239 0.01753558 0.01750444 0.01746416 0.01741397 0.01735915 0.01730006 0.01724629 0.01719778 0.01715834
 0.01712678 0.01709942 0.01707562 0.01705115 0.01702706 0.01700364 0.0169815 0.0169624 0.01694422 0.01692578
 0.01690472 0.0168781 0.01684842 0.01681532 0.01678428 0.01675753 0.01673573 0.01672021 0.01670533 0.01669036
 0.01667262 0.01665164 0.01663204 0.01661402 0.01660167 0.01659431 0.01658774 0.01658074 0.01656481 0.01654055
 0.01650452 0.01645994 0.01641135 0.0163623 0.0163203 0.01628553 0.0162618 0.01624513 0.01623421 0.01622498
 0.01621437 0.01620379 0.01619265 0.01618463 0.0161811 0.01617993 0.01618149 0.01617868 0.0161708 0.01615681
 0.01613687 0.01611903 0.01610346 0.01609578 0.01609428 0.01609359 0.01609218 0.01608155 0.01606398 0.01603959
 0.01601219 0.0159883 0.01596737 0.01595218 0.01593833 0.01592297 0.01590527 0.01588283 0.01586109 0.01584119
 0.01582762 0.01582242 0.01582235 0.0158278 0.01583054 0.01582996 0.01582025 0.01580121 0.01577284 0.01573556
 0.01569316 0.01564623 0.01559938 0.01555334 0.01551259 0.01547764 0.01545208 0.01543497 0.01542721 0.0154255
 0.01542714 0.01542879 0.01542702 0.01542102 0.0154093 0.0153929 0.01537185 0.015347 0.01531814 0.01528811
 0.01525682 0.01523057 0.01520989 0.0151989 0.01519764 0.01520086 0.01520773 0.01520775 0.01520113 0.01518279
 0.01515481 0.01512115 0.01508331 0.01504683 0.01501081 0.01497615 0.01494202 0.01490691 0.01487342 0.01484217
 0.01481763 0.0148028 0.0147975 0.01480371 0.01481365 0.01482675 0.01483253 0.01482917 0.01481249 0.01478151
 0.01474379 0.01469983 0.01466408 0.01463687 0.01462762 0.01463445 0.0146535 0.01468152 0.01470605 0.01472581
 0.01473113 0.01472469 0.01470553 0.01467873 0.01464921 0.01462042 0.01459708 0.0145779 0.01456414 0.01455115
 0.01453731 0.01452101 0.01450083 0.01448119 0.01446247 0.01444876 0.01444068 0.01443569 0.01443361 0.01442814
 0.01441925 0.01440399 0.01438321 0.01435954 0.01433438 0.01431369 0.01429784 0.0142915 0.01429182 0.0142976
 0.01430336 0.01430251 0.01429302 0.0142694 0.0142385 0.01420074 0.01416784 0.01414408 0.01413558 0.01414586
 0.01416895 0.01420544 0.01424138 0.01427567 0.01429775 0.01430721 0.01430533 0.01429301 0.01428033 0.01426773
 0.014263 0.01426488 0.01427378 0.01428749 0.01430175 0.0143144 0.01432005 0.01431853 0.01430627 0.01428815
 0.01426552 0.01424591 0.01423422 0.01423186 0.01424174 0.01425693 0.01427655 0.0142943 0.01430883 0.01431937
 0.01432574 0.01432805 0.01432628 0.01431887 0.0143058 0.01428647 0.01426075 0.01422815 0.01418768 0.01413574
 0.01407177 0.01399199 0.01389834 0.01379173 0.01367513 0.01355284 0.01342416 0.01329221 0.01314781 0.01299013
 0.01280089 0.01257506 0.01229385 0.01195003 0.01154407 0.01107086 0.01056877 0.01003862 0.009545952 0.009094183
 0.008735718 0.008469879 0.008306443 0.008241583 0.008258783 0.008358167 0.008531748 0.008781319 0.009114916 0.009513399
 0.009959436 0.01041267 0.01082147 0.0111658 0.01141022 0.01156439 0.01162195 0.01160352 0.01151171 0.01137539
 0.01119702 0.01102315 0.01086 0.01074872 0.01069586 0.01068768 0.01072347 0.01076025 0.01079799 0.01082292
 0.01083858 0.01085825 0.01088249 0.01092142 0.01097048 0.01102378 0.01107869 0.01112573 0.01117207 0.01122021
 0.01128177 0.01136812 0.01147996 0.01162435 0.01178483 0.01195882 0.01212624 0.01228115 0.01241571 0.01252689
 0.01262029 0.01269582 0.01276386 0.01282495 0.012883 0.01293732 0.01298057 0.01301188 0.01302152 0.01301168
 0.01298357 0.01294233 0.01290019 0.0128608 0.01283652 0.01282519 0.01283055 0.01284527 0.0128653 0.01288414
 0.01289609 0.01290252 0.01290109 0.01290146 0.01290538 0.01292075 0.01295005 0.01298966 0.01304004 0.01308884
 0.01313542 0.01316873 0.01318871 0.01319116 0.01317696 0.01314828 0.01310702 0.01306032 0.0130107 0.01296761
 0.01293215 0.01291106 0.01290206 0.01290628 0.01291789 0.01293395 0.01294633 0.01294994 0.01294013 0.01291255
 0.01287256 0.0128191 0.01276616 0.01271573 0.01267801 0.01265472 0.01264338 0.01264394 0.01264521 0.01264674
 0.01263945 0.01262426 0.01260129 0.01257305 0.01254846 0.012529 0.01252389 0.0125299 0.01254734 0.01256909
 0.01258691 0.01259708 0.01259245 0.01257731 0.01255129 0.01252153 0.01249095 0.01246244 0.01243758 0.01241549
 0.01239611 0.01237958 0.01236579 0.01235635 0.01235133 0.01235103 0.01235536 0.0123633 0.01237458 0.01238737
 0.0124009 0.01241178 0.01241897 0.01241788 0.01240926 0.01239142 0.01236799 0.01234233 0.01231744 0.01229759
 0.01228144 0.01226985 0.0122596 0.01224922 0.01223882 0.01222806 0.01221823 0.01220998 0.01220025 0.01218893
 0.01217157 0.01214791 0.0121203 0.01208928 0.01206335 0.01204252 0.0120317 0.01202923 0.01203196 0.01203789
 0.01204038 0.01203929 0.01203088 0.01201731 0.01199917 0.01197976 0.01196203 0.01194765 0.01193911 0.0119338
 0.01193206 0.0119282 0.01192069 0.01190654 0.01188437 0.01185804 0.01182754 0.01179988 0.01177549 0.01175671
 0.0117433 0.01173191 0.01172253 0.0117131 0.0117045 0.01169938 0.01169749 0.01170051 0.01170536 0.01170769
 0.01170505 0.01169148 0.01167031 0.01164102 0.01161091 0.01158413 0.01156445 0.01155516 0.01155337 0.01155931
 0.01156831 0.01157956 0.01159086 0.01160198 0.01161069 0.01161688 0.01161643 0.01160928 0.01159342 0.01156959
 0.01154135 0.01150955 0.01147952 0.01145098 0.01142601 0.01140377 0.01138349 0.01136536 0.01134911 0.01133569
 0.01132583 0.01131999 0.01131872 0.01132194 0.01132992 0.01134179 0.01135782 0.01137496 0.01139307 0.01140733
 0.01141723 0.01141981 0.01141485 0.01140416 0.01138808 0.01137209 0.01135655 0.01134682 0.01134239 0.0113447
 0.01135209 0.0113614 0.0113707 0.01137499 0.01137412 0.0113652 0.011351 0.01133216 0.01131327 0.01129726
 0.01128642 0.01128311 0.01128456 0.01129105 0.01129711 0.0113017 0.01130237 0.01129851 0.01129195 0.01128275
 0.01127296 0.01126259 0.01125198 0.01124139 0.01123268 0.0112262 0.01122489 0.01122763 0.01123369 0.01124058
 0.01124302 0.01124112 0.01123173 0.01121916 0.0112059 0.01119527 0.0111912 0.01119018 0.0111924 0.01119168
 0.0111856 0.01117466 0.01115773 0.0111425 0.01112968 0.01112476 0.01112821 0.01113755 0.01115245 0.01116721
 0.0111816 0.01119164 0.01119697 0.01119439 0.01118313 0.01115913 0.01112337 0.01107433 0.01101697 0.01095572
 0.01089721 0.01084891 0.01081326 0.01079515 0.01078948 0.01079651 0.01080679 0.01081801 0.01082298 0.01081961
 0.01080751 0.01078596 0.01076095 0.01073276 0.01070904 0.01068992 0.01067829 0.01067353 0.01067275 0.01067553
 0.01067838 0.01068187 0.01068587 0.01069069 0.0106973 0.01070458 0.01071158 0.01071722 0.01071997 0.01072021
 0.01071792 0.01071284 0.01070541 0.01069286 0.0106744 0.01064856 0.01061438 0.01057534 0.01053138 0.01048914
 0.01044903 0.01041639 0.01039132 0.01037576 0.01036909 0.01036836 0.01037215 0.01037293 0.01037038 0.01035876
 0.01034118 0.01032013 0.01029959 0.01028675 0.01028031 0.01028312 0.01028818 0.01029195 0.01029006 0.01027831
 0.0102617 0.01024011 0.01022164 0.01020861 0.01020006 0.01019685 0.0101888 0.01017524 0.01015141 0.01011777
 0.01008353 0.01004997 0.01003136 0.01002662 0.01004011 0.01006746 0.0100998 0.01013281 0.0101536 0.01016262
 0.01015368 0.01013326 0.01010415 0.01007394 0.01004869 0.01003012 0.01002148 0.01001777 0.01001849 0.01001818
 0.01001543 0.01000931 0.009999328 0.009987868 0.009975031 0.009963716 0.009954035 0.009947974 0.009945395 0.009946416
 0.009950571 0.009956106 0.009962527 0.009967785 0.009971287 0.009971012 0.00996664 0.009956251 0.009941946 0.009923905
 0.009907194 0.009894936 0.009890406 0.009896731 0.009910882 0.009933197 0.009957799 0.009983531 0.01000738 0.01002874
 0.01004752 0.0100637 0.01007707 0.01008758 0.0100941 0.01009645 0.01009281 0.01008317 0.01006632 0.01004287
 0.0100136 0.009979728 0.009943653 0.009906923 0.009872092 0.009841288 0.009817089 0.009801305 0.009796453 0.009800789
 0.009814945 0.009833939 0.009856471 0.009879171 0.00990085 0.00992222 0.009943083 0.009965977 0.009991067 0.01002002
 0.01005281 0.01008876 0.01012732 0.01016441 0.01019911 0.01022533 0.01024263 0.01024628 0.01023727 0.0102145
 0.01018105 0.01013941 0.01009513 0.0100534 0.01001998 0.01000041 0.009995839 0.01000923 0.01003517 0.0100733
 0.01011612 0.01016222 0.01020621 0.0102473 0.01028215 0.01031049 0.01033013 0.010341 0.01034221 0.01033396
 0.01031724 0.01029281 0.01026391 0.01023224 0.01020393 0.01018072 0.01016919 0.01016905 0.0101835 0.01020911
 0.01024459 0.01028471 0.01032659 0.01036407 0.01039397 0.01041207 0.01041569 0.01040709 0.01038545 0.01035889
 0.01032826 0.01029976 0.01027405 0.01025036 0.01022856 0.0102046 0.01017891 0.01015259 0.01012766 0.01011376
 0.01011201 0.01013224 0.01017009 0.01022291 0.01028383 0.01034218 0.01039486 0.01043497 0.01046265 0.0104757
 0.01047623 0.01046332 0.01044426 0.01041976 0.01040136 0.01039168 0.01039649 0.01041753 0.0104496 0.01049254
 0.01053875 0.01058793 0.01063647 0.01068409 0.01072689 0.01076425 0.01079082 0.01080706 0.01081082 0.01080439
 0.01079076 0.01077284 0.01075584 0.01074134 0.01073301 0.01072998 0.01073311 0.01073996 0.01074936 0.01076095
 0.01077401 0.01079058 0.01081121 0.01083574 0.01086457 0.01089338 0.0109219 0.01094668 0.01096774 0.01098738
 0.01100624 0.01103097 0.01106139 0.01110126 0.0111477 0.01119448 0.01123892 0.01127132 0.01129467 0.01130779
 0.01131748 0.01133052 0.01134913 0.01137865 0.0114124 0.01144903 0.01148167 0.01150665 0.01152647 0.0115399
 0.01155718 0.01157901 0.01161742 0.01167362 0.01174904 0.01184319 0.0119393 0.01203627 0.01211626 0.01218134
 0.01223078 0.01226904 0.01230875 0.01235268 0.01241346 0.01248864 0.01258128 0.01268492 0.01279459 0.01290504
 0.01301027 0.01311145 0.01320597 0.01330275 0.01340376 0.01351667 0.01364453 0.01378374 0.01393425 0.01409176
 0.01425564 0.01443186 0.01462058 0.01482423 0.01504119 0.01525786 0.01547297 0.01567155 0.01585756 0.01603396
 0.01620726 0.01639349 0.0165924 0.01681245 0.01704546 0.01728641 0.01752923 0.01776839 0.01800071 0.01822436
 0.01843406 0.01862767 0.01880227 0.01895469 0.01909725 0.01922848 0.01938456 0.01956798 0.01981183 0.02011631
 0.02045671 0.02082893 0.02118273 0.02152175 0.0218366 0.02213454 0.02243288 0.02273494 0.02305475 0.02339509
 0.02376207 0.02416767 0.02462099 0.0251456 0.02576088 0.02647842 0.02731968 0.02824151 0.02924385 0.03024749
 0.03123425 0.03216302 0.03302323 0.03382102 0.03455509 0.03525379 0.03591924 0.03660126 0.0373043 0.0380957
 0.03896828 0.03993353 0.04096023 0.04195148 0.04290309 0.04374927 0.0445264 0.04526125 0.04597735 0.04671324
 0.04746305 0.04823498 0.04901724 0.04980367 0.05059665 0.05139782 0.0521995 0.05300257 0.05378626 0.05454618
 0.05528532 0.05600327 0.05671209 0.05741158 0.05807892 0.05871204 0.05927826 0.05978351 0.06023793 0.06065243
 0.06107102 0.06148796 0.0619201 0.06233834 0.06270061 0.06300648 0.06323178 0.063409 0.0635564 0.06368728
 0.06381711 0.06393194 0.06403083 0.06409954 0.06413374 0.0641315 0.06409137 0.06401882 0.06391368 0.06379046
 0.06364996 0.06350996 0.06336965 0.06322891 0.06308418 0.06291784 0.06272694 0.06249136 0.06221431 0.06188883
 0.06152952 0.06115346 0.06077547 0.06042023 0.06008486 0.0597768 0.05948364 0.05919908 0.05892291 0.05865163
 0.05839724 0.05816284 0.05795043 0.05776202 0.05758494 0.05741836 0.05725173 0.05708468 0.05691802 0.05675241
 0.05659498 0.05644593 0.05630999 0.05618675 0.05607738 0.05598135 0.0558988 0.05582758 0.05576548 0.05570833
 0.05565057 0.05559118 0.05552586 0.05546143 0.05539877 0.05534852 0.05531415 0.05530332 0.05531853 0.0553626
 0.05543682 0.05553763 0.05566526 0.05580866 0.05596718 0.05612641 0.05628534 0.05642906 0.05655598 0.0566494
 0.05670951 0.05672618 0.05670497 0.05665149 0.05657433 0.05648831 0.0564 0.05632312 0.05625594 0.0562036
 0.05615528 0.05610709 0.05605041 0.05597858 0.05590084 0.05581342 0.05575429 0.05572959 0.05575645 0.05583944
 0.05593631 0.05604508 0.05613189 0.05619727 0.05623608 0.0562491 0.05623731 0.0562006 0.05613836 0.05605184
 0.05594317 0.0558144 0.05567143 0.0555099 0.0553307 0.05511943 0.05486543 0.05456095 0.05419703 0.0537801
 0.05330759 0.05279891 0.05225528 0.05170703 0.05115877 0.05063024 0.05012448 0.04963571 0.04916368 0.04869652
 0.04823503 0.04778367 0.04734478 0.046935 0.04655244 0.04620197 0.04587523 0.04555688 0.04523886 0.04490141
 0.0445428 0.04415412 0.04373528 0.04328616 0.04279818 0.04226665 0.04168664 0.04104372 0.04039181 0.03973406
 0.03915334 0.03867006 0.03826849 0.03795185 0.03765175 0.03736496 0.03705445 0.03672187 0.03637373 0.03601345
 0.03566425 0.03532435 0.03499916 0.03468706 0.0343836 0.03409678 0.03383568 0.03361075 0.0334395 0.03331899
 0.03325464 0.0332347 0.03325395 0.03330646 0.03338768 0.0335012 0.03364511 0.03383418 0.03406886 0.03437368
 0.03475197 0.03520568 0.03573455 0.03627504 0.0368226 0.03730104 0.037715 0.03805093 0.03831682 0.03853359
 0.03870266 0.03883648 0.03893598 0.0390043 0.03905224 0.03908895 0.03913393 0.03920744 0.03931163 0.03946105
 0.03962072 0.03978119 0.03991799 0.04001971 0.0400973 0.04014996 0.04019639 0.0402386 0.04028349 0.04033145
 0.04037607 0.04041662 0.04044247 0.04045305 0.04043975 0.04040239 0.04033487 0.04023959 0.04011678 0.03997459
 0.03982484 0.0396769 0.03954579 0.03943601 0.03935559 0.03930605 0.0392904 0.03930775 0.03935884 0.03944063
 0.03955197 0.0396939 0.0398656 0.04007551 0.04032458 0.04061615 0.04095037 0.04130871 0.04168933 0.04206313
 0.04243033 0.04277716 0.04310563 0.04341603 0.04370838 0.04398346 0.0442392 0.0444731 0.04468221 0.04486287
 0.04501149 0.04512427 0.04519875 0.04523158 0.04522581 0.04518057 0.04510431 0.04499862 0.04487086 0.04472262
 0.04455639 0.04437273 0.04417013 0.04394855 0.04370558 0.04344148 0.04315807 0.04285703 0.04254894 0.04223546
 0.0419292 0.04162783 0.04133283 0.04103979 0.04074118 0.04043698 0.04012308 0.03980433 0.03948314 0.03916331
 0.03884768 0.03853751 0.0382334 0.03793779 0.03765155 0.03737533 0.03711021 0.03684944 0.0365925 0.03633292
 0.03607029 0.03581447 0.03556699 0.03535181 0.03516858 0.03502942 0.03492885 0.03485427 0.03480019 0.0347467
 0.03469317 0.03462905 0.03455782 0.03447896 0.0343972 0.03431597 0.03423892 0.03416924 0.03410747 0.03405499
 0.03400917 0.03397001 0.03393312 0.03389781 0.03386097 0.03382209 0.03378112 0.03373801 0.03369471 0.03365123
 0.0336083 0.03356596 0.03352425 0.03348449 0.0334507 0.03342576 0.03341894 0.03343081 0.03346837 0.03352552
 0.03359984 0.03368028 0.03375757 0.03382356 0.03386994 0.03389838 0.03390622 0.03390282 0.03388992 0.03387497
 0.03386018 0.03384394 0.03382669 0.03380119 0.03376704 0.03372149 0.03366496 0.03360323 0.03353677 0.03347205
 0.03340767 0.03334214 0.03327352 0.03319511 0.03310888 0.03301354 0.03291565 0.03282209 0.03273836 0.03267233
 0.03262257 0.03259154 0.0325725 0.03256401 0.03255876 0.03255466 0.03254721 0.03253503 0.03251829 0.03249653
 0.0324753 0.03245488 0.03244134 0.03243452 0.03243343 0.03243701 0.03243765 0.03243518 0.03242393 0.0324064
 0.03238533 0.03236419 0.03235029 0.03234519 0.03235407 0.03237567 0.03241109 0.03245743 0.03251387 0.0325764
 0.03264388 0.03271125 0.03277688 0.03283813 0.03289362 0.03294743 0.03299955 0.03305734 0.03312126 0.03319331
 0.03327325 0.03335763 0.03344638 0.03353735 0.03363091 0.03372786 0.03382733 0.03392812 0.03402794 0.03412228
 0.03420979 0.03428698 0.03435371 0.03440872 0.03445239 0.03448439 0.03450592 0.03451722 0.03451994 0.03451495
 0.034501 0.03447849 0.03444263 0.03439298 0.03432588 0.03424103 0.03414019 0.03402374 0.03389794 0.03376348
 0.03362778 0.03349127 0.03335961 0.03323283 0.03311379 0.03300247 0.03290021 0.03280668 0.03272241 0.03264586
 0.03257621 0.03251131 0.03244935 0.03239023 0.03233314 0.03228001 0.0322314 0.03218769 0.03214932 0.03211419
 0.03208214 0.03205143 0.03202194 0.03199285 0.03196394 0.03193213 0.03189689 0.03185284 0.03180045 0.0317377
 0.0316675 0.03159581 0.03152606 0.03146737 0.03142029 0.0313894 0.03137313 0.03137089 0.03138377 0.03141151
 0.03145785 0.03152467 0.03161238 0.0317219 0.03185041 0.0319972 0.03216287 0.03234732 0.03255306 0.03278033
 0.03302464 0.03328542 0.0335524 0.03382559 0.03409998 0.03437637 0.03465582 0.03493783 0.03522195 0.03550662
 0.0357885 0.03606766 0.03634272 0.03661457 0.03688437 0.03715 0.03741178 0.0376634 0.03790303 0.03812363
 0.03832246 0.03849798 0.0386484 0.03878154 0.03889756 0.03900843 0.03911494 0.03922458 0.03933761 0.03945769
 0.03958561 0.03972866 0.03988782 0.04007219 0.04027957 0.04051033 0.0407586 0.04101405 0.04127259 0.04152336
 0.0417696 0.04200848 0.04225022 0.04249924 0.04276595 0.04305622 0.04337329 0.04372035 0.04409184 0.04448821
 0.04489809 0.04532071 0.04574279 0.04616347 0.04657223 0.04696894 0.04735139 0.04772006 0.04807797 0.04842382
 0.04875495 0.04906727 0.04934862 0.04959628 0.04979793 0.0499578 0.05007349 0.05015764 0.05021833 0.05027143
 0.05032909 0.05039907 0.05048968 0.05059347 0.05071089 0.05083001 0.05094757 0.05106394 0.05117781 0.05130221
 0.05143785 0.05159697 0.05177976 0.05198922 0.05222431 0.05247916 0.05275243 0.05303507 0.0533274 0.05362545
 0.05393084 0.05424618 0.05456871 0.05489832 0.05522533 0.05554169 0.0558391 0.05610886 0.05635213 0.05656641
 0.05675831 0.05692904 0.05708434 0.05722533 0.05735638 0.05747835 0.05759137 0.05769567 0.05778338 0.05785404
 0.05789863 0.05791768 0.05791057 0.05787905 0.05783 0.05776495 0.0576913 0.05761021 0.05752688 0.05744275
 0.05736134 0.05728475 0.05721574 0.0571564 0.05710978 0.05707316 0.05704794 0.05702375 0.05699812 0.0569627
 0.05691428 0.05685716 0.05679112 0.05672444 0.05665787 0.05658891 0.05651733 0.05643686 0.05634871 0.05625924
 0.05617034 0.05609537 0.05603126 0.05597839 0.05592838 0.05586527 0.05578436 0.05566984 0.05552993 0.05536261
 0.05518858 0.05501859 0.05487209 0.05476166 0.05469032 0.05466377 0.05466875 0.05470438 0.05475541 0.0548198
 0.05488947 0.05496373 0.05503838 0.05511317 0.05518383 0.05525 0.05530709 0.05535455 0.05538778 0.05540603
 0.05540515 0.05538412 0.05533948 0.05526961 0.05517121 0.05504253 0.05488027 0.05468542 0.05445641 0.054199
 0.05391406 0.05361086 0.05329143 0.05296604 0.05263713 0.05231047 0.05198815 0.0516616 0.05133088 0.05097207
 0.05058404 0.05014528 0.04965722 0.04912042 0.0485394 0.04793391 0.04730769 0.04668124 0.04605595 0.04544359
 0.04484516 0.04426691 0.04370855 0.04317344 0.04265601 0.04215457 0.04166177 0.04117272 0.04068834 0.04020663
 0.03973624 0.03927907 0.03883773 0.0384136 0.03799856 0.03759208 0.03718943 0.03679078 0.03640356 0.03602831
 0.03567345 0.03533773 0.03502015 0.0347193 0.03443045 0.0341535 0.03388673 0.03362881 0.03337792 0.03313122
 0.03288477 0.03263891 0.03239156 0.03214771 0.03190862 0.03167965 0.03146248 0.03126109 0.03107648 0.03091132
 0.0307664 0.03063997 0.03053222 0.03043483 0.03034723 0.03025798 0.03016656 0.0300633 0.02994861 0.02981823
 0.02967476 0.02952252 0.02936603 0.0292163 0.02907586 0.02895362 0.02884751 0.02875897 0.02868482 0.02862268
 0.02857304 0.02853557 0.02851095 0.02850054 0.02849842 0.02850407 0.02850996 0.02851425 0.02852044 0.02852835
 0.02854996 0.02858548 0.02863535 0.02869787 0.02875739 0.02881414 0.02885897 0.02889751 0.02894172 0.02899582
 0.02907573 0.02917782 0.0293037 0.02944915 0.02960895 0.02978599 0.02998127 0.03019517 0.0304308 0.0306768
 0.03093131 0.03118106 0.03142259 0.0316512 0.03186608 0.03206355 0.03224355 0.03239693 0.03252332 0.03261751
 0.03268031 0.03271654 0.03272739 0.03272072 0.0326975 0.03266366 0.03262185 0.03258035 0.03254056 0.03251005
 0.03248243 0.03245553 0.03241979 0.03236552 0.03229631 0.03220794 0.03211917 0.03203556 0.03196757 0.03192148
 0.03188138 0.03184706 0.03179402 0.03171964 0.03162306 0.0315049 0.03139164 0.03128492 0.03121185 0.03116991
 0.03116296 0.03118449 0.03121711 0.0312562 0.03128242 0.03129869 0.03129924 0.03129324 0.03128733 0.0312893
 0.03130757 0.0313419 0.03139593 0.03146107 0.03153666 0.0316098 0.03167769 0.03173167 0.03176924 0.03179525
 0.03180946 0.03182651 0.03184692 0.03187715 0.03191609 0.03195515 0.03199412 0.03202619 0.03205479 0.03208677
 0.03212535 0.03218126 0.0322536 0.03234546 0.03245563 0.03258381 0.03272962 0.03289501 0.03307148 0.03325911
 0.03343711 0.03359923 0.03372986 0.03382163 0.03388519 0.03391898 0.03395278 0.03398904 0.03404473 0.03412018
 0.03420415 0.03429529 0.03437481 0.03444508 0.03450669 0.03456555 0.03464047 0.03473459 0.03486563 0.03502831
 0.03522588 0.035443 0.03566803 0.03588168 0.03606623 0.03621364 0.03631231 0.03637411 0.03639844 0.03640569
 0.03640015 0.03639504 0.03639314 0.03639783 0.03640989 0.03642526 0.03644355 0.03645264 0.03645159 0.0364257
 0.03637597 0.03629806 0.03619666 0.03608311 0.03596339 0.03585603 0.03576284 0.03569624 0.03565023 0.03562418
 0.0356095 0.03559843 0.03559103 0.03558425 0.03558439 0.035595 0.03561047 0.03563236 0.03564178 0.03563574
 0.03560585 0.03555019 0.03548388 0.03540779 0.03534412 0.03529309 0.03526576 0.03526017 0.03527347 0.03530167
 0.0353311 0.03535841 0.03536755 0.0353635 0.03534334 0.03532216 0.03531379 0.0353309 0.03538998 0.0354858
 0.03562441 0.03578158 0.03595311 0.03610958 0.03624305 0.0363395 0.03639362 0.03641935 0.03641652 0.03641473
 0.03641539 0.03643721 0.03647889 0.03653482 0.03660127 0.03665585 0.03669696 0.03670561 0.03668748 0.03664364
 0.03658467 0.03652778 0.03647738 0.03644624 0.03642957 0.03642756 0.03643649 0.03645404 0.03648009 0.03651594
 0.0365532 0.03659194 0.03661525 0.03662032 0.03659931 0.0365507 0.03648162 0.03639248 0.03629655 0.03619522
 0.03610699 0.03603416 0.03599988 0.03600307 0.03605521 0.03614751 0.03626847 0.03640559 0.0365351 0.036649
 0.03672807 0.03677586 0.03678514 0.03677434 0.03674702 0.03673171 0.03674122 0.0367822 0.03686358 0.0369534
 0.03704719 0.03713036 0.03720027 0.03726809 0.0373342 0.03739996 0.03746416 0.03751277 0.03754593 0.03755557
 0.03754599 0.03752697 0.03750262 0.03748801 0.03748174 0.03749006 0.03750523 0.03752216 0.03753223 0.03752681
 0.03750347 0.03745785 0.03739369 0.03731103 0.03721466 0.03710524 0.03698846 0.03686501 0.0367406 0.03661585
 0.03649293 0.03637202 0.03625764 0.03615077 0.03606511 0.03600034 0.03596482 0.03595155 0.0359425 0.03592932
 0.035879 0.03580172 0.03569131 0.03558037 0.0355046 0.03547781 0.03553499 0.03563271 0.03576734 0.03586662
 0.03589996 0.03584255 0.03567082 0.03545102 0.03518365 0.03497549 0.03483817 0.03481226 0.03489975 0.03504999
 0.03525938 0.03546975 0.03568261 0.03587853 0.03605785 0.03620987 0.03633718 0.03643322 0.03651868 0.03661932
 0.03676168 0.03699151 0.03730144 0.03771271 0.03817088 0.03865785 0.03911681 0.03951769 0.03985617 0.04011835
 0.04035447 0.04056843 0.04081408 0.04109856 0.04142735 0.0418008 0.04217787 0.04255579 0.04288926 0.0431786
 0.04340187 0.04356257 0.0436595 0.043699 0.04369357 0.043651 0.04359036 0.04351244 0.04342726 0.04332716
 0.04320718 0.043069 0.04290692 0.04274395 0.04258504 0.04245612 0.042367 0.04231768 0.0423129 0.04232104
 0.04234016 0.04233705 0.04230993 0.04226254 0.04219818 0.0421599 0.04215021 0.04220862 0.04232842 0.04250911
 0.04273901 0.04299033 0.04325704 0.04351671 0.04376939 0.04400732 0.0442303 0.04443653 0.04462395 0.04479143
 0.04493628 0.04505779 0.04515211 0.04521826 0.04525332 0.04525603 0.04522982 0.04517421 0.04510301 0.04501696
 0.04492829 0.04483538 0.04472198 0.04458266 0.04437369 0.04409816 0.04373555 0.04331022 0.04286652 0.04243032
 0.04207324 0.04177988 0.04157262 0.04139383 0.04120728 0.04096696 0.04062862 0.04020787 0.03968871 0.03914585
 0.03859157 0.0380982 0.03768456 0.03734975 0.03709944 0.03686213 0.03663404</values></Ydata></AB><ScSm><Ydata ylabel="Single channel"><values byteorder="INTEL" format="FLOAT32" numvalues="1814"> 0.06222409 0.06222907 0.06228832 0.06242129 0.06260498 0.06278767 0.06292289 0.06299719 0.06302232 0.06300658
 0.06295857 0.06292069 0.06296141 0.06310994 0.0633134 0.06347221 0.06351995 0.06348202 0.0634605 0.06353326
 0.06364708 0.06363436 0.06337067 0.06291819 0.06248557 0.06223684 0.06219018 0.06234055 0.06276082 0.0634014
 0.06386922 0.06371102 0.06298575 0.06228583 0.0620804 0.06226648 0.06244778 0.06238762 0.06207953 0.06166431
 0.061477 0.06195441 0.06320764 0.06467283 0.06531444 0.06427637 0.06149104 0.05788063 0.0550205 0.05429336
 0.05591365 0.05864282 0.06071735 0.06125489 0.06068229 0.05985471 0.05913866 0.058508 0.05812343 0.05836759
 0.05931224 0.06035771 0.06053331 0.05931763 0.05725984 0.05560417 0.05515836 0.05577431 0.05700219 0.05858681
 0.05979653 0.05902556 0.05536593 0.05062419 0.0485293 0.05118828 0.05683917 0.06158647 0.06287478 0.06090558
 0.0574949 0.05456574 0.05344406 0.05449484 0.05702915 0.05988511 0.06214893 0.06320456 0.06257053 0.06031118
 0.05744898 0.05546693 0.05539362 0.05740465 0.0607902 0.06400958 0.06538585 0.06434937 0.06182237 0.05923919
 0.05759656 0.05745648 0.05908395 0.06216023 0.06577428 0.06896618 0.07112429 0.07201833 0.07182664 0.07102916
 0.07004721 0.06918385 0.0688908 0.06948574 0.07042748 0.0705228 0.06923155 0.0673878 0.06633695 0.0665408
 0.06720897 0.06726144 0.06642331 0.06503794 0.06298601 0.05967826 0.0553881 0.0516008 0.04952597 0.04917834
 0.05026624 0.05266512 0.05537122 0.05642615 0.05505057 0.05302082 0.05289777 0.05529957 0.05858578 0.06088292
 0.06182139 0.062415 0.06374215 0.06583349 0.0675201 0.06730492 0.06484494 0.06179993 0.0606667 0.06233123
 0.06521884 0.06723955 0.06799738 0.06857178 0.06962907 0.07039465 0.06945628 0.06643565 0.06291008 0.06145062
 0.06338243 0.06745543 0.07074545 0.07081698 0.06736358 0.06229424 0.05824722 0.05675963 0.05783588 0.06094019
 0.06559638 0.07087669 0.07515687 0.07701817 0.07628123 0.07393322 0.07100118 0.06759928 0.06346127 0.0595175
 0.05809391 0.06071005 0.06613047 0.07139355 0.07445715 0.07521923 0.07435883 0.07206544 0.06823359 0.06370084
 0.06066101 0.06096362 0.06389371 0.06657273 0.06697588 0.06577957 0.06488506 0.06503177 0.06551655 0.06566747
 0.06579975 0.06668217 0.0684488 0.07030798 0.07131834 0.07124916 0.07061816 0.07008053 0.06983238 0.06947331
 0.06857318 0.0675388 0.06756166 0.06931595 0.07203054 0.07427838 0.07540277 0.07575546 0.0757511 0.07514225
 0.07338613 0.07067802 0.06837349 0.06798257 0.06970503 0.07230582 0.07440062 0.07545307 0.07563302 0.07530554
 0.07478631 0.07424533 0.07376276 0.07355061 0.07390025 0.07476752 0.07567696 0.07620019 0.0763069 0.07615042
 0.07576282 0.07511892 0.07436046 0.07380426 0.07371479 0.07410118 0.0747515 0.07542451 0.07594155 0.076152
 0.075982 0.0755492 0.07509275 0.07475571 0.0745411 0.074467 0.07461075 0.07496411 0.07536726 0.07564679
 0.07575479 0.07574119 0.07565065 0.07549097 0.07527389 0.07505622 0.07493556 0.07498335 0.07516222 0.07534856
 0.07547407 0.07559389 0.07576146 0.07590035 0.07588617 0.07571879 0.07553165 0.07544528 0.07547031 0.07554223
 0.07559099 0.07555649 0.07538106 0.07505779 0.0747041 0.07452385 0.07464571 0.07502697 0.07552732 0.07601262
 0.07637589 0.07655437 0.07657733 0.076537 0.07648088 0.07637768 0.07620206 0.07601421 0.07593995 0.07607415
 0.07639293 0.07676502 0.07705998 0.07722981 0.07729586 0.07731578 0.07736839 0.07749516 0.07763426 0.07767664
 0.07760568 0.07752657 0.07754123 0.07763597 0.07770853 0.07768648 0.07760671 0.07757586 0.07765685 0.07781218
 0.07796393 0.07808407 0.07820702 0.07836296 0.07851246 0.07856213 0.07846302 0.07828251 0.0781427 0.0780949
 0.0780997 0.07812405 0.07819442 0.07833223 0.07848698 0.07857594 0.0785767 0.07854815 0.07855424 0.07858694
 0.0785802 0.07849043 0.07834452 0.07821189 0.07814601 0.07815152 0.0781902 0.07821053 0.07818006 0.07810061
 0.077998 0.07789689 0.07780436 0.07772332 0.0776813 0.07772414 0.07785629 0.07799566 0.07802139 0.07788351
 0.07765491 0.07746269 0.07737099 0.07733613 0.07726961 0.07712939 0.07694552 0.07677466 0.07664737 0.07655542
 0.0764724 0.07638234 0.07630104 0.07627381 0.07633498 0.07645457 0.07653885 0.0765089 0.07637626 0.07622381
 0.07612232 0.07608549 0.07608996 0.07610841 0.07613136 0.07617749 0.0762675 0.07637521 0.07643469 0.07641562
 0.07636341 0.07635113 0.07642028 0.07657008 0.07675983 0.07691342 0.07696801 0.07693842 0.07690437 0.07692474
 0.07699098 0.07706743 0.07714362 0.07723181 0.07733814 0.07746077 0.07760769 0.07779609 0.07802944 0.07828283
 0.07851353 0.07868676 0.07880251 0.07890563 0.07906147 0.07930534 0.07961092 0.07991211 0.08015851 0.08035171
 0.08052994 0.0807222 0.08092701 0.08113913 0.08137763 0.08166546 0.08199082 0.08231334 0.08260757 0.08288109
 0.08315326 0.08343407 0.0837252 0.08403108 0.08436485 0.08473627 0.08512332 0.08546631 0.08571438 0.08587961
 0.08603252 0.0862461 0.08654654 0.08689581 0.08720818 0.08741269 0.0875276 0.08765279 0.08786274 0.08812863
 0.08837664 0.08859923 0.08886373 0.08921473 0.08960716 0.08994965 0.09019384 0.09036998 0.09054282 0.09074015
 0.09092757 0.091058 0.09113812 0.09122557 0.09136043 0.09153189 0.09172685 0.09197293 0.09229637 0.09265967
 0.09298313 0.0932211 0.09338723 0.09351587 0.09362952 0.09373622 0.09383214 0.09391116 0.09398465 0.09407489
 0.09417835 0.09426326 0.09431997 0.09438592 0.09450238 0.0946744 0.09489107 0.09515232 0.09544688 0.0957323
 0.09597831 0.09621914 0.09651766 0.09686896 0.09718006 0.09736852 0.09745014 0.09750017 0.09755985 0.09762707
 0.09771894 0.09788477 0.09814794 0.09847276 0.09880345 0.09911342 0.09940923 0.09970216 0.09998257 0.1002168
 0.1003704 0.1004411 0.1004687 0.1005141 0.1006284 0.1008276 0.1010829 0.1013382 0.1015469 0.1016879
 0.1017489 0.101722 0.1016355 0.101565 0.1015719 0.1016303 0.1016382 0.1015059 0.1012133 0.1007846
 0.1002414 0.09960059 0.09890229 0.09821725 0.09762118 0.09716548 0.09687532 0.09677343 0.09689271 0.09724589
 0.09778176 0.09839082 0.0989603 0.09940591 0.0996514 0.09962079 0.09928516 0.0987017 0.09798244 0.09722992
 0.09650572 0.09582978 0.09518713 0.09456015 0.09398831 0.09359492 0.0935372 0.09392489 0.09477606 0.09601828
 0.09750801 0.09906357 0.1005207 0.101788 0.1028609 0.1037829 0.1045996 0.1053484 0.1060665 0.1067739
 0.1074487 0.1080481 0.1085608 0.1090202 0.1094621 0.1098863 0.1102628 0.1105621 0.1107803 0.1109464
 0.1110951 0.1112251 0.1112998 0.111299 0.1112491 0.1111882 0.1111145 0.110983 0.1107423 0.1103714
 0.1099027 0.1094367 0.1091392 0.1092012 0.1097615 0.1108275 0.1122603 0.1138457 0.1153879 0.1167504
 0.1178531 0.1186762 0.1192676 0.1197148 0.1200945 0.1204496 0.1207985 0.121147 0.1214905 0.1218209
 0.1221366 0.1224485 0.122776 0.1231277 0.1234828 0.1238023 0.1240709 0.1243219 0.1246103 0.1249621
 0.1253514 0.1257278 0.1260665 0.1263884 0.1267226 0.1270586 0.1273555 0.1275951 0.1278051 0.1280321
 0.1283084 0.1286393 0.1289981 0.1293342 0.1296095 0.1298307 0.1300373 0.1302612 0.1305068 0.130764
 0.1310238 0.1312818 0.1315356 0.1317893 0.1320562 0.1323445 0.1326366 0.1328934 0.133092 0.1332542
 0.1334272 0.1336367 0.1338681 0.1340912 0.1342977 0.1345117 0.1347661 0.1350651 0.135373 0.1356412
 0.1358482 0.1360123 0.1361707 0.1363516 0.136563 0.1367965 0.1370366 0.1372684 0.1374869 0.1376989
 0.1379151 0.1381384 0.1383639 0.1385869 0.1388078 0.1390279 0.1392468 0.1394637 0.1396801 0.1399037
 0.1401463 0.1404117 0.1406819 0.1409275 0.1411342 0.1413144 0.1414907 0.1416754 0.1418678 0.1420651
 0.1422669 0.1424735 0.1426834 0.1428945 0.1431065 0.1433199 0.1435335 0.1437436 0.1439469 0.1441442
 0.1443432 0.1445556 0.1447852 0.1450205 0.1452437 0.1454486 0.1456445 0.1458437 0.1460515 0.1462643
 0.1464745 0.1466773 0.1468767 0.1470793 0.1472848 0.1474871 0.1476852 0.1478865 0.1480975 0.1483152
 0.1485304 0.1487378 0.1489412 0.1491479 0.1493592 0.1495724 0.1497872 0.1500038 0.150217 0.1504205
 0.1506166 0.1508139 0.1510155 0.151217 0.1514167 0.1516188 0.1518275 0.1520403 0.1522499 0.1524533
 0.1526552 0.1528601 0.1530652 0.1532645 0.153458 0.1536528 0.1538563 0.1540687 0.1542822 0.1544891
 0.154693 0.1549037 0.1551214 0.1553367 0.1555446 0.1557491 0.1559548 0.1561638 0.1563783 0.1565983
 0.1568207 0.1570432 0.1572674 0.1574934 0.1577158 0.157927 0.1581224 0.1583042 0.1584808 0.1586582
 0.158838 0.1590226 0.1592145 0.1594096 0.1595995 0.1597838 0.1599706 0.1601663 0.1603725 0.1605864
 0.1608018 0.1610143 0.1612254 0.1614363 0.1616428 0.1618444 0.1620483 0.1622601 0.162478 0.1626959
 0.1629068 0.1631061 0.1632986 0.1634952 0.163701 0.163914 0.1641304 0.1643449 0.1645537 0.1647617
 0.1649768 0.165195 0.1654071 0.1656143 0.1658237 0.166036 0.1662488 0.1664603 0.1666683 0.1668733
 0.1670821 0.1672964 0.1675083 0.1677131 0.1679127 0.1681088 0.1683061 0.1685138 0.1687315 0.168945
 0.1691466 0.1693415 0.1695349 0.1697333 0.1699467 0.1701727 0.1703942 0.1706022 0.1708 0.1709787
 0.1710981 0.1710509 0.1705728 0.1691403 0.1659527 0.1600837 0.150845 0.1382167 0.1230099 0.106584
 0.09034416 0.07536812 0.06229151 0.05138739 0.04270679 0.03617169 0.03163332 0.028965 0.02815802 0.02942024
 0.03328566 0.04030245 0.04984342 0.05904523 0.06391683 0.06248889 0.0566956 0.05060889 0.0470505 0.04622675
 0.04694393 0.04818439 0.04962305 0.05143486 0.05392958 0.05720035 0.06110289 0.06563244 0.07110997 0.07777089
 0.0852702 0.0928231 0.09987478 0.1065342 0.1133151 0.1205147 0.1278953 0.1349122 0.1411466 0.1465174
 0.1512 0.1554357 0.1593966 0.1631602 0.1667523 0.1701563 0.17325 0.1757748 0.1774556 0.1782102
 0.1782519 0.1779721 0.1777105 0.1776225 0.1777212 0.1779817 0.178388 0.1789283 0.179586 0.1803333
 0.1811306 0.1819412 0.1827469 0.1835384 0.1842991 0.1850097 0.1856615 0.1862589 0.1868123 0.1873304
 0.1878113 0.1882483 0.1886445 0.1890141 0.1893682 0.1897093 0.190037 0.1903483 0.190636 0.1908985
 0.1911442 0.1913824 0.1916148 0.1918399 0.1920564 0.1922623 0.1924566 0.1926463 0.1928445 0.1930605
 0.193291 0.1935212 0.1937367 0.1939366 0.1941318 0.1943293 0.1945252 0.1947142 0.1948987 0.1950863
 0.1952822 0.1954861 0.1956937 0.1958989 0.196097 0.1962864 0.1964702 0.1966561 0.1968529 0.1970637
 0.1972855 0.1975133 0.1977402 0.1979578 0.1981632 0.1983637 0.1985676 0.1987768 0.1989926 0.1992157
 0.1994341 0.1996268 0.1997867 0.1999358 0.2001073 0.2003161 0.2005453 0.2007629 0.2009526 0.201125
 0.2012996 0.2014835 0.2016709 0.2018532 0.2020283 0.202211 0.2024247 0.2026735 0.2029343 0.2031863
 0.2034289 0.2036654 0.2038949 0.2041234 0.2043553 0.2045711 0.204743 0.2048797 0.2050385 0.205282
 0.2056183 0.205986 0.2063073 0.2065569 0.2067693 0.2069929 0.2072551 0.2075367 0.2077534 0.2078164
 0.207764 0.2077832 0.2080391 0.208516 0.2090618 0.2095445 0.2099261 0.2102274 0.2104756 0.2106769
 0.2108145 0.2108751 0.2108997 0.211002 0.2112937 0.2117652 0.2122763 0.2126939 0.2129941 0.2132183
 0.2134031 0.2135723 0.2136987 0.2136582 0.2133635 0.2129947 0.2129508 0.2134622 0.2143289 0.2151319
 0.2156493 0.2159693 0.2162478 0.2165138 0.2167251 0.2168126 0.2165796 0.215805 0.2146748 0.2139196
 0.2142145 0.2154957 0.217069 0.2183016 0.219026 0.2193985 0.2196276 0.2198318 0.2199486 0.2197413
 0.2190644 0.2182137 0.2178519 0.2183953 0.2195444 0.2206043 0.2211942 0.2214494 0.2216493 0.2219045
 0.2220835 0.2217802 0.2205443 0.2185464 0.216913 0.2169347 0.2188023 0.2213739 0.2233075 0.2242181
 0.224568 0.2246731 0.2242471 0.2229213 0.2207847 0.2183407 0.2163752 0.2158732 0.2173589 0.2200553
 0.2223231 0.2232844 0.2235634 0.2242272 0.2255048 0.2267819 0.2274161 0.2272442 0.2264685 0.2252922
 0.223821 0.222409 0.2218663 0.2228776 0.2251678 0.2276024 0.2292435 0.230065 0.2304508 0.2300778
 0.2276924 0.2226148 0.2166177 0.2134313 0.2154414 0.2211901 0.2269439 0.2303692 0.2318027 0.2324876
 0.2329153 0.2327006 0.2307921 0.2260225 0.2189252 0.212921 0.2120182 0.2168384 0.2239104 0.2289243
 0.229698 0.2264144 0.2208173 0.215673 0.2136475 0.2156981 0.2206634 0.2264152 0.2311324 0.2337883
 0.2341407 0.2326414 0.2303976 0.2289002 0.2289459 0.2294528 0.2282774 0.2249305 0.2214074 0.2192506
 0.2171348 0.2132903 0.2093962 0.2094714 0.2146755 0.2213944 0.2253066 0.2257601 0.2249968 0.2240353
 0.2208861 0.2133948 0.2033264 0.1964318 0.1974173 0.2050644 0.2133338 0.2172925 0.2170268 0.2158329
 0.2158081 0.2157217 0.2127568 0.206203 0.1992794 0.1964155 0.1985162 0.202135 0.203516 0.2015757
 0.1965421 0.1887362 0.1807439 0.1781614 0.1848439 0.1981464 0.2110244 0.2178433 0.2163769 0.206462
 0.19081 0.1767274 0.1725496 0.1801399 0.1926137 0.2006926 0.2000479 0.1919915 0.1795142 0.1653035
 0.1530521 0.1477331 0.1525737 0.1658373 0.1809644 0.189811 0.1870865 0.174475 0.1610652 0.1567864
 0.163326 0.1729767 0.1773143 0.1748697 0.1698212 0.1665999 0.1673477 0.1716748 0.1770723 0.1812254
 0.1838428 0.1840088 0.1776618 0.1624806 0.1444027 0.1337518 0.1345118 0.142199 0.1521191 0.1636122
 0.1748116 0.1797143 0.1749562 0.1662381 0.1635286 0.1704782 0.1812722 0.1877613 0.1875459 0.1844328
 0.1825034 0.1817238 0.1800416 0.1781795 0.1797661 0.186368 0.1947844 0.2006214 0.2028474 0.2034096
 0.2039054 0.2043676 0.204382 0.203808 0.2027051 0.2014399 0.2005775 0.2002379 0.199979 0.1994581
 0.1984062 0.1956109 0.1891818 0.1792254 0.1695577 0.1647094 0.1651354 0.1674849 0.1695568 0.1715832
 0.1716254 0.1642862 0.1478353 0.1300427 0.1225332 0.1295648 0.144861 0.1587534 0.1655927 0.1642359
 0.1551309 0.1404491 0.1264117 0.1214089 0.1291977 0.145296 0.1617565 0.1740108 0.1814872 0.183871
 0.1802115 0.1715956 0.1623026 0.1574036 0.1596438 0.1681799 0.1788954 0.1855163 0.1826409 0.1710582
 0.1602095 0.1612977 0.1755344 0.1921498 0.2004962 0.2008813 0.2003881 0.2018639 0.2024235 0.2011092
 0.2020605 0.2087713 0.2189014 0.2265661 0.2274988 0.2207312 0.2080757 0.1946037 0.1873558 0.189691
 0.1974648 0.2035422 0.2047249 0.2013547 0.1930823 0.1806484 0.1704148 0.1705501 0.1815605 0.1951628
 0.2037048 0.2071458 0.2096362 0.2123716 0.2121678 0.2063363 0.1972221 0.1907725 0.1906442 0.1949734
 0.1994699 0.2019269 0.2022357 0.199809 0.1939495 0.1867562 0.1831428 0.1865446 0.1953435 0.2043867
 0.2096009 0.2105246 0.2090485 0.2069909 0.2049151 0.2023035 0.1987322 0.1953958 0.1948916 0.1984467
 0.2039471 0.208095 0.210181 0.2123292 0.2161522 0.2205274 0.2229599 0.2222964 0.2198135 0.2181001
 0.218974 0.2220295 0.2249368 0.225435 0.2234858 0.221505 0.2221343 0.2257224 0.2302879 0.2337764
 0.2357353 0.236878 0.2378699 0.2387504 0.2389066 0.2375379 0.2347861 0.2323927 0.232463 0.2353803
 0.2394425 0.2426186 0.2441823 0.2446035 0.2444491 0.2437957 0.2425477 0.2409587 0.2396369 0.2390724
 0.2392901 0.2399792 0.2408122 0.2415825 0.2421883 0.2426259 0.2429605 0.2432401 0.2434647 0.2436411
 0.2437883 0.2438756 0.243847 0.2437481 0.2437409 0.2439294 0.2442251 0.2444444 0.2444784 0.2442931
 0.2438254 0.2429994 0.2418461 0.2404979 0.2390321 0.2374212 0.2357364 0.2343624 0.2338764 0.2346176
 0.2363755 0.238521 0.2404299 0.2417859 0.2425807 0.242955 0.2430729 0.2430679 0.2430187 0.2429439
 0.2428279 0.2426574 0.2424392 0.24219 0.2419243 0.241661 0.2414306 0.2412579 0.2411312 0.2409988
 0.2408012 0.2405106 0.2401425 0.239734 0.2393069 0.2388445 0.2383027 0.2376463 0.2368782 0.2360443
 0.2352152 0.2344522 0.2337667 0.23311 0.2324171 0.2316564 0.2308159 0.2298606 0.2287588 0.2275654
 0.2264217 0.2254376 0.2245975 0.2237981 0.2229418 0.2219746 0.2208797 0.2196795 0.2184292 0.217178
 0.2159345 0.2146788 0.2133936 0.212072 0.2107069 0.2092876 0.2078047 0.2062572 0.2046569 0.2030199
 0.2013381 0.1995519 0.1975557 0.195229 0.192464 0.1891802 0.1853473 0.1810187 0.1763443 0.1715367
 0.1668071 0.1623182 0.1581842 0.1544949 0.1513295 0.148752 0.1468053 0.1455086 0.1448571 0.1448311
 0.1454126 0.1465816 0.1482847 0.1504125 0.1528136 0.1553254 0.1577936 0.1600889 0.1621399 0.1639617
 0.1656343 0.167228 0.1687453 0.17014 0.17138 0.172467 0.1734036 0.174179 0.1748029 0.1753279
 0.1758158 0.1762907 0.1767362 0.1771293 0.1774665 0.1777594 0.1780165 0.1782396 0.1784361 0.1786273
 0.1788372 0.1790771 0.1793485 0.1796618 0.1800411 0.1805005 0.1810217 0.181569 0.1821297 0.1827222
 0.1833622 0.1840388 0.1847403 0.185488 0.1863267 0.1872851 0.1883543 0.1894959 0.1906578 0.1917814
 0.1928103 0.1937027 0.1944388 0.1950164 0.1954451 0.195746 0.1959481 0.1960702 0.1961101 0.1960632
 0.1959504 0.1958166 0.1956985 0.1956025 0.1955149 0.1954222 0.195318 0.1951989 0.1950626 0.1949102
 0.194743 0.1945614 0.1943709 0.1941853 0.1940128 0.1938403 0.1936428 0.1934094 0.1931494 0.1928745
 0.1925835 0.1922619 0.191884 0.1914162 0.1908334 0.1901336 0.1893308 0.1884328 0.187435 0.1863368
 0.1851531 0.1839039 0.1825974 0.1812265 0.1797805 0.1782511 0.1766238 0.1748819 0.1730368 0.1711521
 0.1693195 0.1676033 0.1660104 0.1645083 0.1630679 0.1616876 0.1603802 0.1591436 0.157957 0.1568016
 0.1556709 0.1545603 0.1534697 0.1524172 0.1514352 0.1505502 0.1497772 0.1491224 0.1485781 0.1481221
 0.1477331 0.1474049 0.1471515 0.1470058 0.1469941 0.1470906 0.1472112 0.1472721 0.1472479 0.147173
 0.1470982 0.1470477 0.1470071 0.1469528 0.1468852 0.1468112 0.1466939 0.1464392 0.1459361 0.145108
 0.1439423 0.1424895 0.1408376 0.1390921 0.1373731 0.1357964 0.1344407 0.1333435 0.1325115 0.1319042
 0.1314304 0.1310102 0.1306371 0.130368 0.1302664 0.1303434 0.1305159 0.1306419 0.1306486 0.1306175
 0.1307108 0.1310349 0.1315757 0.1322211 0.1328312 0.1333223 0.1336905 0.1339574 0.1341319 0.1342261
 0.1342573 0.1342234 0.1341125 0.1339295 0.1336927 0.1334229 0.1331362 0.132821 0.132435 0.131951
 0.131374 0.1307075 0.1299504 0.1291176 0.1282061 0.1271827 0.1260836 0.1250895 0.1244393 0.12429
 0.1246528 0.1253961 0.1263229 0.1272934 0.128218 0.128918 0.1291793 0.1290912 0.1292068 0.1301505
 0.1320275 0.1343013 0.1362667 0.1375593 0.1381915 0.1382689 0.137849 0.1369793 0.1356737 0.1338862
 0.1316253 0.129022 0.1262243 0.1233577 0.1205956 0.1181122 0.1159826 0.1142257 0.1128559 0.1119159
 0.1115198 0.1113251 0.1095984 0.1041091 0.09556751 0.08917467 0.09024497 0.09822059 0.1070555 0.1116021
 0.1117121 0.1101285 0.1087528 0.1078737 0.1073903 0.1074339 0.1081259 0.1093324 0.1106886 0.1118189
 0.1125682 0.1129673 0.1129671 0.1122253 0.1100639 0.1057098 0.09892422 0.0905382 0.08215958 0.07523016
 0.07038164 0.06748684 0.06599853 0.06525651 0.06478986 0.06453446 0.06475736 0.06573549 0.06751413 0.06994957
 0.07285929 0.07600886 0.07902639 0.08153756 0.08343215 0.08486789 0.08599127 0.08677239 0.0871188 0.08702707
 0.08658855 0.08592512 0.08514993 0.08433588 0.08347329 0.08248702 0.08136939 0.08030006 0.07954389 0.07919988
 0.07913068 0.07914802 0.07916707 0.07917591 0.07917035 0.07914835 0.07911332 0.07909012 0.07915372 0.07937913
 0.07973643 0.08008973 0.08031307 0.08038098 0.08035587 0.08027944 0.08006008 0.07955738 0.07884717 0.07824156
 0.07788554 0.07749379 0.07671476 0.0756557 0.07482463 0.07459207 0.07487532 0.07531746 0.07561453 0.07566525
 0.07557127 0.07558447 0.0759328 0.07655243</values></Ydata></ScSm><ScRf><Ydata ylabel="Single channel"><values byteorder="INTEL" format="FLOAT32" numvalues="1820"> 0.0604438 0.06059106 0.06068378 0.06072339 0.06073165 0.06074968 0.06082264 0.06096975 0.06116576 0.06135345
 0.06148326 0.06154633 0.06156198 0.06154042 0.06148612 0.06143792 0.06146506 0.06160086 0.06179772 0.06195983
 0.06201947 0.06199559 0.06198353 0.0620579 0.06216607 0.06214427 0.06187465 0.06142449 0.06100084 0.06076024
 0.06071509 0.06086046 0.06127282 0.06190839 0.06238207 0.06224509 0.06154915 0.06087139 0.06067205 0.06085099
 0.06101819 0.0609415 0.06062098 0.06020468 0.06002426 0.06049996 0.0617299 0.06315929 0.06378028 0.06275956
 0.06002757 0.0564822 0.05367083 0.0529599 0.05456337 0.05725639 0.05929755 0.05982248 0.05926093 0.05845828
 0.05776968 0.05716145 0.05678818 0.05702819 0.05795524 0.05898001 0.05914614 0.05794075 0.05590682 0.0542703
 0.05382583 0.05442964 0.05564301 0.05721287 0.05840961 0.05764792 0.05404399 0.04938986 0.04735579 0.05000087
 0.05557616 0.06024244 0.06148862 0.05952564 0.05615953 0.05329287 0.05221791 0.05326821 0.05575331 0.05853903
 0.06073928 0.06175042 0.06109871 0.05885673 0.05604295 0.05411799 0.054082 0.0560915 0.05943568 0.06259566
 0.06393056 0.06289483 0.06040419 0.0578671 0.0562582 0.05612905 0.05774222 0.06078522 0.06436132 0.06752338
 0.06966203 0.07054111 0.07033455 0.06952735 0.06855255 0.06771425 0.06744194 0.06802675 0.06893144 0.06899908
 0.06771778 0.06590943 0.06488332 0.06508321 0.06573714 0.06579643 0.06499453 0.06365545 0.06164377 0.05837791
 0.05414219 0.05040972 0.04836603 0.04801824 0.04908611 0.0514604 0.05415417 0.05522665 0.05389684 0.05190647
 0.05177566 0.05411772 0.05732799 0.05957249 0.0604917 0.06108207 0.06240129 0.06447409 0.06614242 0.06592817
 0.06349915 0.06050198 0.05940095 0.06106083 0.06392069 0.06592326 0.06668761 0.06728047 0.0683507 0.06912504
 0.06821085 0.06524636 0.06179847 0.06039917 0.06233725 0.06636479 0.0695981 0.06964543 0.06621747 0.06120988
 0.05723191 0.05579697 0.05690414 0.06002428 0.06468636 0.0699688 0.0742635 0.07616599 0.07548869 0.07319455
 0.07029915 0.0669284 0.06283303 0.05894636 0.05758308 0.06024931 0.06570612 0.07100111 0.07410565 0.0749235
 0.07412686 0.07189092 0.06810136 0.06360464 0.06061642 0.06099779 0.0640198 0.06677936 0.06724311 0.06609995
 0.06526566 0.06547888 0.06602493 0.06623012 0.06642745 0.06740543 0.06929462 0.07127738 0.07238828 0.07239085
 0.07181278 0.07132508 0.07113297 0.07082984 0.06997782 0.06899962 0.06911876 0.07101616 0.07388514 0.07625698
 0.07746829 0.07789496 0.0779682 0.07742472 0.07569045 0.07296043 0.0706437 0.07031775 0.07219851 0.07500141
 0.07727608 0.07845387 0.07871289 0.07844393 0.07798205 0.0775019 0.07708509 0.0769568 0.07742292 0.07843032
 0.07947237 0.0800975 0.08027536 0.08016655 0.0798053 0.07917303 0.07842989 0.07790965 0.07787752 0.07833245
 0.07905762 0.07981539 0.08042467 0.08071622 0.08059592 0.08018396 0.0797458 0.07944892 0.07929946 0.0793058
 0.07953901 0.07998817 0.08048479 0.08084151 0.08100334 0.08102706 0.08097114 0.0808522 0.08068328 0.08052158
 0.08046742 0.08059114 0.0808465 0.08110216 0.08129543 0.08149488 0.08175349 0.08197115 0.08199726 0.08183146
 0.08163323 0.08154823 0.08159232 0.08169423 0.08177801 0.08177588 0.08161736 0.08129044 0.08092831 0.08076102
 0.08093163 0.08139434 0.08199836 0.08259556 0.08305905 0.08330841 0.0833713 0.08335255 0.08330987 0.083212
 0.08303139 0.08283404 0.08276066 0.0829235 0.08330697 0.08376997 0.08415687 0.08439466 0.08449686 0.0845366
 0.08461977 0.08480005 0.08499722 0.08507292 0.08500817 0.08493796 0.08498666 0.08512388 0.08521158 0.08516768
 0.08505911 0.08503151 0.08515826 0.0853774 0.08557849 0.08572531 0.08587529 0.0860858 0.08631331 0.08642583
 0.08634008 0.08613014 0.08595511 0.08589149 0.08589761 0.08593634 0.08604512 0.08625072 0.08648118 0.08662347
 0.08665006 0.08664152 0.08667935 0.08674757 0.08675873 0.08665952 0.08648731 0.08633101 0.08625959 0.08628491
 0.08636613 0.0864376 0.08644626 0.08638044 0.0862686 0.08614933 0.08604622 0.08597989 0.08599555 0.08614245
 0.08639823 0.08663143 0.08668377 0.08651026 0.08622735 0.08600982 0.08593895 0.0859494 0.08591267 0.08575928
 0.08552113 0.08527795 0.0850849 0.08494715 0.08484027 0.08474482 0.08467504 0.08467878 0.08478746 0.08494956
 0.0850371 0.08495231 0.08472314 0.08447053 0.08429465 0.08421634 0.08420295 0.08421007 0.08421226 0.08422583
 0.08428384 0.08436801 0.08440211 0.08434217 0.08423863 0.08418606 0.08424409 0.08441336 0.0846352 0.08480178
 0.08482523 0.08472647 0.08461995 0.08459607 0.08465029 0.08473158 0.08481583 0.08490969 0.08501402 0.08511794
 0.08522578 0.08536787 0.08557299 0.08583085 0.08608581 0.08627482 0.08638263 0.08646464 0.08660772 0.08685824
 0.08718376 0.08750361 0.08775719 0.0879475 0.08812307 0.08832047 0.08853355 0.08874537 0.08897073 0.08924045
 0.08955174 0.08986517 0.09015167 0.09041803 0.09068453 0.09095933 0.09124264 0.0915467 0.09190227 0.09232973
 0.09279156 0.09319092 0.09344783 0.0935785 0.0936853 0.09387524 0.09418936 0.09457776 0.09492441 0.09513353
 0.095226 0.0953261 0.0955253 0.09578905 0.09603161 0.09625136 0.09653745 0.09694478 0.09740745 0.0977962
 0.09804393 0.09819858 0.09835635 0.098555 0.09874433 0.09886345 0.0989264 0.09900504 0.09913957 0.09931049
 0.09950804 0.09977578 0.1001464 0.1005688 0.1009448 0.1012226 0.1014208 0.1015792 0.1017179 0.1018321
 0.1019025 0.1019217 0.1019246 0.1019669 0.1020574 0.1021439 0.1021862 0.1022125 0.1022827 0.1024251
 0.1026366 0.102911 0.1032284 0.1035389 0.1038039 0.1040571 0.1043706 0.1047423 0.1050621 0.1052283
 0.1052652 0.1052781 0.1053226 0.1053807 0.1054484 0.105576 0.1058028 0.1061054 0.1064339 0.1067653
 0.1071041 0.1074489 0.1077719 0.108023 0.1081558 0.1081677 0.1081185 0.1081028 0.1081983 0.1084266
 0.1087462 0.1090816 0.1093681 0.1095704 0.1096675 0.109652 0.1095699 0.1095311 0.1096244 0.1098175
 0.1099708 0.1099592 0.1097528 0.1093859 0.1088903 0.108286 0.107617 0.1069633 0.1064108 0.1060137
 0.1057923 0.1057654 0.1059668 0.1064084 0.1070301 0.1077143 0.1083519 0.1088693 0.1091887 0.1092177
 0.1089148 0.1083436 0.1076332 0.1068987 0.106208 0.1055829 0.1050013 0.1044319 0.1039119 0.1035866
 0.1036444 0.1042046 0.1052541 0.1066527 0.108179 0.1096097 0.1108089 0.1117688 0.1125657 0.1132791
 0.1139522 0.1146106 0.1152808 0.1159623 0.1166061 0.1171569 0.117617 0.1180382 0.1184542 0.1188486
 0.1191857 0.1194474 0.1196487 0.1198331 0.1200372 0.1202377 0.1203591 0.1203553 0.1202613 0.1201462
 0.1200326 0.1198827 0.1196419 0.1192855 0.1188504 0.1184533 0.1182723 0.1184767 0.1191342 0.1201685
 0.1214139 0.1227189 0.1239899 0.1251485 0.1260997 0.1267819 0.1272262 0.1275344 0.1278032 0.1280824
 0.1283828 0.128696 0.1290062 0.1293015 0.1295814 0.1298588 0.1301548 0.1304813 0.1308193 0.1311256
 0.1313771 0.1316041 0.1318708 0.1322144 0.1326076 0.1329845 0.1333093 0.1336079 0.1339191 0.1342294
 0.1344859 0.13467 0.1348281 0.1350275 0.1353067 0.1356611 0.136045 0.1363877 0.1366397 0.1368137
 0.1369679 0.1371495 0.1373672 0.1376091 0.1378643 0.1381233 0.1383763 0.1386254 0.1388909 0.1391873
 0.1394905 0.1397459 0.139925 0.1400603 0.1402117 0.1404054 0.140619 0.140819 0.1410045 0.1412129
 0.1414848 0.1418156 0.1421437 0.1423982 0.1425603 0.142674 0.1428002 0.1429696 0.1431751 0.143396
 0.1436168 0.1438297 0.1440329 0.1442318 0.144437 0.1446529 0.1448713 0.145082 0.1452849 0.145487
 0.1456907 0.1458921 0.1460948 0.1463194 0.1465874 0.1468896 0.14718 0.1474124 0.147581 0.1477158
 0.147848 0.1479909 0.148148 0.1483227 0.1485166 0.1487261 0.1489428 0.1491578 0.1493663 0.149568
 0.1497642 0.1499583 0.1501555 0.1503595 0.1505719 0.1507945 0.1510278 0.1512623 0.1514828 0.1516833
 0.1518738 0.1520688 0.1522751 0.1524876 0.1526933 0.152881 0.1530524 0.1532212 0.1533985 0.1535849
 0.153774 0.1539613 0.154147 0.1543341 0.1545247 0.1547176 0.1549121 0.1551104 0.1553145 0.1555234
 0.1557331 0.1559391 0.1561384 0.1563321 0.1565249 0.1567192 0.1569145 0.1571117 0.1573133 0.157518
 0.1577192 0.1579109 0.1580942 0.1582786 0.1584739 0.1586794 0.1588849 0.1590845 0.1592831 0.1594855
 0.1596909 0.1598981 0.1601088 0.1603214 0.1605319 0.1607395 0.1609467 0.1611541 0.1613594 0.1615598
 0.1617574 0.1619612 0.1621803 0.1624116 0.1626409 0.1628581 0.1630646 0.1632657 0.1634629 0.1636552
 0.1638428 0.164028 0.1642123 0.1643936 0.1645702 0.1647453 0.1649231 0.1651031 0.1652853 0.1654745
 0.1656718 0.1658702 0.1660649 0.1662596 0.1664558 0.1666503 0.1668434 0.1670403 0.1672454 0.167459
 0.167678 0.1678933 0.1680962 0.1682906 0.1684885 0.1686975 0.1689155 0.1691346 0.1693461 0.1695487
 0.1697504 0.169956 0.1701617 0.1703658 0.1705731 0.1707853 0.1709983 0.1712102 0.1714198 0.1716244
 0.1718256 0.1720311 0.1722443 0.1724608 0.1726728 0.1728738 0.1730652 0.1732618 0.1734775 0.173707
 0.1739357 0.1741581 0.1743751 0.1745865 0.1747952 0.175006 0.1752162 0.1754226 0.1756313 0.1758481
 0.1760703 0.1762938 0.176513 0.1767085 0.1768367 0.1767865 0.1762824 0.1747828 0.1714593 0.1653512
 0.1557473 0.1426375 0.1268737 0.1098649 0.09305544 0.07754678 0.063991 0.05267873 0.04367923 0.03692243
 0.03225082 0.02951967 0.02870741 0.03002444 0.03402575 0.04128116 0.05113972 0.06063665 0.06564891 0.06415312
 0.0581606 0.05188147 0.04822246 0.04738424 0.04812702 0.04940271 0.0508831 0.05275168 0.0553236 0.05869104
 0.06271042 0.0673881 0.07306069 0.07996518 0.08773459 0.09555218 0.1028461 0.1097338 0.1167461 0.1241816
 0.1317837 0.1389911 0.1453879 0.1509087 0.1557387 0.1601154 0.164203 0.1680796 0.1717851 0.1753155
 0.1785415 0.1811795 0.1829286 0.1836971 0.1837091 0.1833813 0.1830807 0.1829785 0.1830867 0.1833668
 0.1837846 0.1843161 0.1849505 0.1856808 0.1864828 0.1873163 0.1881461 0.1889492 0.18971 0.1904239
 0.1910966 0.1917284 0.1923103 0.1928358 0.1933075 0.1937316 0.1941184 0.1944823 0.1948351 0.1951817
 0.1955223 0.1958517 0.1961592 0.1964364 0.1966841 0.1969107 0.1971276 0.1973431 0.1975561 0.1977587
 0.1979493 0.1981368 0.1983298 0.1985314 0.1987423 0.1989603 0.1991779 0.1993877 0.1995885 0.1997814
 0.1999661 0.2001458 0.2003289 0.2005194 0.2007126 0.2009022 0.2010894 0.2012788 0.2014696 0.2016554
 0.2018365 0.2020249 0.2022308 0.202447 0.2026592 0.2028664 0.2030776 0.2032946 0.2035112 0.2037271
 0.203946 0.2041659 0.2043813 0.2045901 0.2047865 0.2049581 0.2051011 0.2052368 0.2053994 0.2056063
 0.2058417 0.2060734 0.2062828 0.2064755 0.206663 0.2068475 0.2070261 0.2071993 0.2073741 0.207567
 0.2077949 0.2080516 0.2083085 0.2085496 0.2087855 0.2090264 0.2092675 0.2095056 0.2097399 0.2099532
 0.21012 0.2102506 0.2104072 0.2106586 0.2110099 0.2113872 0.2117064 0.2119511 0.2121662 0.2123968
 0.2126591 0.2129329 0.2131444 0.213212 0.2131713 0.2132042 0.2134725 0.2139533 0.2144831 0.2149269
 0.2152608 0.2155288 0.2157702 0.2159839 0.216134 0.2161916 0.2161965 0.2162755 0.2165563 0.2170338
 0.2175594 0.2179905 0.2183026 0.2185392 0.2187348 0.2189098 0.2190361 0.2189858 0.2186642 0.2182527
 0.2181661 0.218652 0.2195151 0.2203296 0.2208618 0.2211877 0.2214577 0.2217096 0.2219164 0.2220099
 0.221773 0.220967 0.2197898 0.2190046 0.2193018 0.2205994 0.2221785 0.2234081 0.2241423 0.2245466
 0.2248137 0.2250366 0.2251412 0.2248993 0.2241838 0.223306 0.2229359 0.2234886 0.2246547 0.2257269
 0.226321 0.2265791 0.226787 0.2270542 0.2272415 0.2269285 0.2256514 0.2235899 0.2219095 0.2219402
 0.2238733 0.2265297 0.2285298 0.2294781 0.2298468 0.2299572 0.2295125 0.2281336 0.2259147 0.2233777
 0.2213346 0.220801 0.2223192 0.2250926 0.2274349 0.2284403 0.2287475 0.2294525 0.2307932 0.2321391
 0.2328242 0.2326683 0.2318692 0.230635 0.229085 0.2276012 0.2270317 0.228084 0.2304673 0.2330061
 0.2347279 0.2355981 0.2360049 0.2356156 0.2331493 0.227919 0.2217546 0.218488 0.2205657 0.2264889
 0.2324221 0.2359575 0.2374267 0.2381052 0.2385118 0.2382647 0.236287 0.2313778 0.224088 0.2179379
 0.2170446 0.2220361 0.2293341 0.2345054 0.2353066 0.2319278 0.2261719 0.2208962 0.2188427 0.2209842
 0.2261198 0.2320625 0.2369374 0.2396799 0.240038 0.2384838 0.2361671 0.2346261 0.2346776 0.2352078
 0.2340174 0.2306081 0.2270247 0.2248411 0.2226926 0.2187688 0.2148029 0.2149225 0.2203061 0.2272283
 0.2312551 0.2317365 0.2309849 0.2300339 0.2268243 0.2191462 0.2088296 0.2017994 0.2028938 0.2108419
 0.2194103 0.2235231 0.2232922 0.2221324 0.2222043 0.222224 0.2192706 0.2126063 0.2055629 0.2027254
 0.205031 0.2089216 0.2105251 0.2087162 0.2036981 0.1957725 0.1876276 0.1851061 0.1922429 0.2062995
 0.2199383 0.2272661 0.2259257 0.2157187 0.1994872 0.1849202 0.1807886 0.1890462 0.2024427 0.2112178
 0.2108211 0.2026297 0.1897873 0.1751409 0.162633 0.1575862 0.1634732 0.1784535 0.1954711 0.2056992
 0.2033549 0.1902441 0.1762935 0.1723793 0.1803386 0.1916775 0.1971168 0.1950411 0.1900643 0.187113
 0.1886226 0.1941868 0.2009672 0.2063385 0.209967 0.2107484 0.2039464 0.1868727 0.1663893 0.1544072
 0.1555136 0.1645487 0.1761379 0.1895507 0.2026071 0.2083144 0.2027603 0.192568 0.1893138 0.1972362
 0.209589 0.2169125 0.2164095 0.2124902 0.209915 0.2086974 0.2064884 0.2040973 0.205671 0.2130064
 0.2224397 0.2289344 0.231303 0.2317743 0.2321845 0.2325803 0.2324933 0.2317625 0.2304477 0.2289499
 0.2279039 0.2274592 0.2271369 0.2265663 0.2254485 0.2223973 0.2152368 0.2040513 0.1931544 0.1876876
 0.1881653 0.1907847 0.1930698 0.1953144 0.1953185 0.1869237 0.1681516 0.1478617 0.1393127 0.1473584
 0.1648308 0.1806916 0.1884904 0.1869205 0.1764959 0.1597061 0.1436464 0.1378425 0.146507 0.164483
 0.1827263 0.1960965 0.2040285 0.2062449 0.201715 0.1916778 0.1809436 0.1751794 0.1774089 0.1866309
 0.1982146 0.2051827 0.2015858 0.1883431 0.1758952 0.1765895 0.1917716 0.2096214 0.2184422 0.218541
 0.2176597 0.2189302 0.2192293 0.2175226 0.2183175 0.2254211 0.2363109 0.2446184 0.2457237 0.2385772
 0.2251442 0.2109249 0.2035365 0.2065661 0.2154352 0.2223448 0.2238195 0.2202449 0.2112495 0.197681
 0.1865538 0.1868284 0.199025 0.2140283 0.2234492 0.2272676 0.2300478 0.2330905 0.2328793 0.2264461
 0.21636 0.2091591 0.2088802 0.2135088 0.2183672 0.2210528 0.2214493 0.2189064 0.2126545 0.2049966
 0.2013258 0.2054073 0.2154465 0.2257534 0.231819 0.2331125 0.2317044 0.2295921 0.2273873 0.2245087
 0.2204931 0.2166857 0.2159823 0.2197416 0.2256099 0.2299305 0.231929 0.2339755 0.2378682 0.2423666
 0.2447118 0.2436411 0.2405769 0.2383693 0.239004 0.2420334 0.244914 0.2451757 0.2427742 0.2403607
 0.2408435 0.2446146 0.2494949 0.253214 0.2552585 0.2564042 0.257387 0.258263 0.2583738 0.2568491
 0.2538332 0.251202 0.2512303 0.2543341 0.2586747 0.2620596 0.2637166 0.2641777 0.2640682 0.2634531
 0.2621891 0.2605178 0.2590944 0.2584693 0.2586873 0.2594107 0.2602712 0.2610399 0.2616187 0.2620164
 0.2622986 0.2625031 0.2626325 0.2627191 0.2628088 0.2628716 0.2628317 0.262719 0.2626963 0.2628749
 0.2631709 0.2633985 0.2634377 0.2632355 0.2627133 0.2617988 0.2605459 0.259111 0.2575777 0.2559085
 0.2541684 0.2527594 0.2522975 0.2531572 0.2551268 0.257533 0.2596953 0.2612679 0.2622417 0.2627631
 0.2629962 0.2630749 0.2630801 0.2630322 0.2629169 0.262724 0.2624588 0.2621291 0.2617432 0.2613253
 0.2609226 0.2605786 0.2602938 0.2600192 0.2596939 0.2592879 0.2588134 0.2583033 0.2577792 0.2572267
 0.2565999 0.2558565 0.2549959 0.254065 0.253133 0.252255 0.2514417 0.250657 0.2498543 0.2490105
 0.2481119 0.2471229 0.2460181 0.2448582 0.2437896 0.242931 0.2422695 0.2416844 0.2410504 0.240299
 0.2394126 0.2384126 0.2373511 0.2362782 0.235205 0.2341053 0.2329456 0.2317019 0.2303624 0.2289297
 0.2274165 0.2258368 0.2242117 0.2225729 0.2209263 0.2192019 0.2172573 0.2149356 0.2121175 0.2087352
 0.2047773 0.200308 0.1954802 0.1905066 0.1855988 0.180923 0.1766056 0.1727534 0.1694523 0.1667578
 0.1647049 0.163322 0.162632 0.1626477 0.1633691 0.1647682 0.1667696 0.1692501 0.1720573 0.1750267
 0.1779907 0.1807957 0.1833476 0.1856572 0.1878175 0.1899016 0.1918869 0.1936963 0.1952881 0.1966729
 0.1978638 0.1988555 0.1996589 0.2003212 0.2008983 0.2014175 0.2018723 0.2022508 0.2025605 0.2028236
 0.2030585 0.2032743 0.2034757 0.2036681 0.2038625 0.2040768 0.2043254 0.2046168 0.2049699 0.2054125
 0.2059443 0.2065201 0.2070901 0.2076459 0.2082153 0.2088341 0.2095386 0.2103682 0.2113539 0.2125013
 0.2137842 0.2151507 0.2165336 0.217857 0.2190471 0.2200469 0.2208246 0.2213683 0.2216805 0.2217855
 0.2217284 0.2215513 0.2212737 0.2209028 0.2204475 0.219916 0.2193131 0.2186502 0.2179515 0.217244
 0.2165465 0.2158694 0.2152144 0.214571 0.2139233 0.2132701 0.2126318 0.2120291 0.2114581 0.2108971
 0.2103311 0.2097612 0.2091953 0.2086371 0.2080805 0.2075039 0.2068697 0.2061401 0.2052974 0.2043511
 0.2033248 0.2022315 0.2010636 0.1998059 0.1984552 0.1970174 0.1954963 0.1938952 0.192225 0.1904935
 0.1886858 0.1867774 0.1847794 0.1827598 0.180807 0.1789783 0.1772851 0.1757083 0.1742159 0.1727847
 0.1714184 0.1701354 0.1689369 0.1678028 0.1667169 0.1656765 0.1646819 0.1637361 0.1628538 0.1620549
 0.1613501 0.1607351 0.1601959 0.1597156 0.1592829 0.1589016 0.1585999 0.1584225 0.1583883 0.1584499
 0.1585179 0.1585276 0.158469 0.158361 0.1582276 0.1580936 0.1579767 0.1578853 0.1578222 0.1577683
 0.1576563 0.1573803 0.156838 0.155965 0.1547515 0.1532402 0.1515072 0.149654 0.1478152 0.1461324
 0.1446974 0.1435411 0.1426643 0.1420336 0.141565 0.1411761 0.1408594 0.1406753 0.1406806 0.1408596
 0.1411009 0.1412603 0.1412924 0.1413047 0.1414612 0.1418573 0.142481 0.1432361 0.1439933 0.1446596
 0.145201 0.1456007 0.1458466 0.1459625 0.1459936 0.1459564 0.1458433 0.1456548 0.1453961 0.145073
 0.1447002 0.1442824 0.1438002 0.1432394 0.1426001 0.1418706 0.141046 0.1401493 0.1391713 0.1380544
 0.1368285 0.135706 0.1349701 0.1348025 0.1352103 0.1360332 0.1370392 0.1380791 0.1390841 0.1398893
 0.1402627 0.1402706 0.1404743 0.1415332 0.1435752 0.1460502 0.1482132 0.1496609 0.1503776 0.1504552
 0.1499629 0.1489813 0.1475455 0.1456031 0.1431573 0.1403482 0.137326 0.1342078 0.1311745 0.1284239
 0.1260533 0.1241035 0.1226124 0.1216343 0.1212743 0.1211277 0.1192829 0.1133091 0.1040021 0.09705286
 0.09825305 0.1069796 0.1166391 0.1216285 0.1217823 0.1200747 0.1185723 0.1176022 0.1170704 0.1171243
 0.1178859 0.1191946 0.1206453 0.1218307 0.1225869 0.1229545 0.1228865 0.1220144 0.1196081 0.114842
 0.107461 0.09834572 0.08921787 0.08165273 0.07637241 0.07325529 0.07167848 0.07087513 0.07031316 0.06995856
 0.07016115 0.07124572 0.07323754 0.07595029 0.07917373 0.08264567 0.08596081 0.08874086 0.09091121 0.09265288
 0.09407826 0.09509476 0.09558482 0.095579 0.09521906 0.09464343 0.0939447 0.0931681 0.09228677 0.09121944
 0.08997199 0.08876185 0.08788994 0.08746029 0.08732101 0.08728209 0.08727167 0.08727901 0.0872781 0.08724371
 0.08718275 0.08715312 0.08726434 0.08759626 0.08809255 0.08858347 0.08892153 0.08907515 0.08911045 0.0890707
 0.08885083 0.08829264 0.08748317 0.08677876 0.08634753 0.08586011 0.08489823 0.08357552 0.08249664 0.08212306
 0.08236468 0.08277437 0.08296559 0.08282866 0.08252877 0.08239566 0.08268069 0.08327095 0.08371425 0.08365716
</values></Ydata></ScRf><Data_Parameters_AB><parameter name="DPF">1</parameter><parameter name="NPT">3497</parameter><parameter name="FXV">3996</parameter><parameter name="LXV">500</parameter><parameter name="CSF">1</parameter><parameter name="MXY">0.0641337409615517</parameter><parameter name="MNY">-0.0108115095645189</parameter><parameter name="DAT">27/05/2022</parameter><parameter name="TIM">11:38:15.772 (GMT+2)</parameter><parameter name="DXU">WN</parameter></Data_Parameters_AB><AB__Qtest><MainReport name="Quality Test Report"><Header><Line><Legend>Test result ok/not ok [1/0]: </Legend><Value>0</Value></Line><Line><Legend>Method file: </Legend><Value>C:\Users\Public\Documents\Bruker\OPUS_8.2.28\QT\IRBT_v3_default.QT</Value></Line></Header><Matrix><Line><Legend></Legend><Legend>min</Legend><Legend>max</Legend><Legend>measured</Legend></Line><Line><Value>Absorption (X-Range 1):</Value><Value>0.400000</Value><Value>2.000000</Value><Value>0.054337</Value></Line><Line><Value>Noise (X-Range 4):</Value><Value></Value><Value>0.000300</Value><Value>0.000060</Value></Line><Line><Value>Signal/Noise (X-Range 2):</Value><Value>200.000000</Value><Value></Value><Value>21.440075</Value></Line><Line><Value>Signal/Noise (X-Range 3):</Value><Value>40.000000</Value><Value></Value><Value>17.040682</Value></Line><Line><Value>Water vapour (X-Range 5):</Value><Value></Value><Value>0.000300</Value><Value>0.000048</Value></Line><Line><Value>Signal/Water (X-Range 2):</Value><Value>100.000000</Value><Value></Value><Value>26.738973</Value></Line><Line><Value>Signal/Water (X-Range 3):</Value><Value>20.000000</Value><Value></Value><Value>21.252274</Value></Line><Line><Value>Fringes (X-Range 6):</Value><Value></Value><Value>0.000100</Value><Value>0.000070</Value></Line></Matrix></MainReport></AB__Qtest><Data_Parameters_ScSm><parameter name="DPF">1</parameter><parameter name="NPT">1814</parameter><parameter name="FXV">3996.33169228125</parameter><parameter name="LXV">499.541461535156</parameter><parameter name="CSF">1</parameter><parameter name="MXY">0.244603499770164</parameter><parameter name="MNY">0.0281580202281475</parameter><parameter name="DAT">27/05/2022</parameter><parameter name="TIM">11:38:15.772 (GMT+2)</parameter><parameter name="DXU">WN</parameter></Data_Parameters_ScSm><Data_Parameters_ScRf><parameter name="DPF">1</parameter><parameter name="NPT">1820</parameter><parameter name="FXV">4004.04661832813</parameter><parameter name="LXV">495.683998511719</parameter><parameter name="CSF">1</parameter><parameter name="MXY">0.264177680015564</parameter><parameter name="MNY">0.0287074111402035</parameter><parameter name="DAT">27/05/2022</parameter><parameter name="TIM">11:37:49.923 (GMT+2)</parameter><parameter name="DXU">WN</parameter></Data_Parameters_ScRf><Optic_Parameters_Rf><parameter name="APR">0</parameter><parameter name="APT">Open</parameter><parameter name="BMS">KBr</parameter><parameter name="DTC">RT-DLaTGS_IR-Biotyper [Microplate reader]</parameter><parameter name="HPF">0</parameter><parameter name="LPF">10.0</parameter><parameter name="LPV">4000</parameter><parameter name="PGR">0</parameter><parameter name="RCH">Module port</parameter><parameter name="RDX">0</parameter><parameter name="SRC">MIR</parameter><parameter name="VEL">10.0</parameter><parameter name="SON">Off</parameter></Optic_Parameters_Rf><Acquisition_Parameters_Rf><parameter name="ADT">1</parameter><parameter name="AQM">DD</parameter><parameter name="CFE">0</parameter><parameter name="COR">0</parameter><parameter name="DEL">0</parameter><parameter name="DLY">0</parameter><parameter name="HFW">8000</parameter><parameter name="LFW">0</parameter><parameter name="NSR">32</parameter><parameter name="PLF">AB</parameter><parameter name="RES">6</parameter><parameter name="RGN">-1</parameter><parameter name="STR">0</parameter><parameter name="TCL">MakeCompatibleScalar (0, {WSV=1.000000, ARV=0});</parameter><parameter name="TDL">37</parameter><parameter name="RPO">0</parameter></Acquisition_Parameters_Rf><FT_-_Parameters_Rf><parameter name="APF">B3</parameter><parameter name="HFQ">500</parameter><parameter name="LFQ">4000</parameter><parameter name="NLI">0</parameter><parameter name="PHR">24</parameter><parameter name="PHZ">ML</parameter><parameter name="SPZ">NO</parameter><parameter name="ZFF">1</parameter></FT_-_Parameters_Rf><Optic_Parameters_><parameter name="APR">0</parameter><parameter name="APT">Open</parameter><parameter name="BMS">KBr</parameter><parameter name="CHN">Module port</parameter><parameter name="DTC">RT-DLaTGS_IR-Biotyper [Microplate reader]</parameter><parameter name="HPF">0</parameter><parameter name="LPF">10.0</parameter><parameter name="LPV">4000</parameter><parameter name="PGN">0</parameter><parameter name="RDX">0</parameter><parameter name="SRC">MIR</parameter><parameter name="VEL">10.0</parameter><parameter name="SON">Off</parameter></Optic_Parameters_><FT_-_Parameters_><parameter name="APF">B3</parameter><parameter name="HFQ">500</parameter><parameter name="LFQ">4000</parameter><parameter name="NLI">0</parameter><parameter name="PHR">24</parameter><parameter name="PHZ">ML</parameter><parameter name="SPZ">NO</parameter><parameter name="ZFF">1</parameter></FT_-_Parameters_><Acquisition_Parameters_><parameter name="ADT">1</parameter><parameter name="AQM">DD</parameter><parameter name="CFE">0</parameter><parameter name="COR">0</parameter><parameter name="DEL">0</parameter><parameter name="DLY">0</parameter><parameter name="HFW">8000</parameter><parameter name="LFW">0</parameter><parameter name="NSS">32</parameter><parameter name="PLF">AB</parameter><parameter name="RES">6</parameter><parameter name="SOT">0</parameter><parameter name="TCL">MakeCompatibleScalar (0, {WSV=1.000000, ARV=0});</parameter><parameter name="TDL">37</parameter><parameter name="SPO">0</parameter><parameter name="SGN">-1</parameter></Acquisition_Parameters_><Instrument_Parameters_Rf><parameter name="HFL">15800.168544</parameter><parameter name="LFL">0</parameter><parameter name="LWN">15800.168544</parameter><parameter name="ABP">32197</parameter><parameter name="SSP">1</parameter><parameter name="ARG">2</parameter><parameter name="ASG">2</parameter><parameter name="ASS">32</parameter><parameter name="GFW">16</parameter><parameter name="GBW">16</parameter><parameter name="BFW">0</parameter><parameter name="BBW">0</parameter><parameter name="PKA">7267</parameter><parameter name="PKL">4996</parameter><parameter name="PRA">7444</parameter><parameter name="PRL">5001</parameter><parameter name="P2A">1</parameter><parameter name="P2L">1</parameter><parameter name="P2R">1</parameter><parameter name="P2K">1</parameter><parameter name="DAQ">0</parameter><parameter name="AG2">1</parameter><parameter name="SSM">1</parameter><parameter name="RSN">24870</parameter><parameter name="CRR">0</parameter><parameter name="SRT">1653651469.923</parameter><parameter name="DUR">19.635986328125</parameter><parameter name="TSC">27.8</parameter><parameter name="MVD">0.278023183345795</parameter><parameter name="AN1">0.225811671935042</parameter><parameter name="AN2">0</parameter><parameter name="VSN">2.485 Apr  4 2017</parameter><parameter name="SRN">0085</parameter><parameter name="CAM">0</parameter><parameter name="INS">IR-Biotyper</parameter><parameter name="FOC">69</parameter><parameter name="RDY">1</parameter><parameter name="ARS">32</parameter></Instrument_Parameters_Rf><Sample_Parameters_><parameter name="BLD"></parameter><parameter name="CNM">Admin</parameter><parameter name="CPY"></parameter><parameter name="DPM"></parameter><parameter name="EXP">IRBT_v3_32Scans.XPM</parameter><parameter name="LCT"></parameter><parameter name="SFM">Microplate, HTS-XT</parameter><parameter name="SNM">220527-1039(v.2)_GFG29M (D_5)_C5_dbf5794b-bd7d-4a84-bc17-f3a8368d0ed7.0</parameter><parameter name="XPP">C:\Users\Public\Documents\Bruker\OPUS_8.2.28\XPM</parameter><parameter name="IST">OK</parameter><parameter name="CPG">1252</parameter><parameter name="UID">1ef60449-2e3b-4409-81d6-0f2dca6e7426</parameter></Sample_Parameters_><Instrument_Parameters_><parameter name="HFL">15800.168544</parameter><parameter name="LFL">0</parameter><parameter name="LWN">15800.168544</parameter><parameter name="ABP">32197</parameter><parameter name="SSP">1</parameter><parameter name="ASG">2</parameter><parameter name="ARG">2</parameter><parameter name="ASS">32</parameter><parameter name="GFW">16</parameter><parameter name="GBW">16</parameter><parameter name="BFW">0</parameter><parameter name="BBW">0</parameter><parameter name="PKA">6826</parameter><parameter name="PKL">4988</parameter><parameter name="PRA">7089</parameter><parameter name="PRL">5002</parameter><parameter name="P2A">1</parameter><parameter name="P2L">1</parameter><parameter name="P2R">1</parameter><parameter name="P2K">1</parameter><parameter name="DAQ">0</parameter><parameter name="AG2">1</parameter><parameter name="SSM">1</parameter><parameter name="RSN">13061</parameter><parameter name="CRR">0</parameter><parameter name="SRT">1653651495.772</parameter><parameter name="DUR">19.635986328125</parameter><parameter name="TSC">27.8</parameter><parameter name="MVD">0.225474178791046</parameter><parameter name="AN1">0.225804601209851</parameter><parameter name="AN2">0</parameter><parameter name="VSN">2.485 Apr  4 2017</parameter><parameter name="SRN">0085</parameter><parameter name="CAM">0</parameter><parameter name="INS">IR-Biotyper</parameter><parameter name="FOC">69</parameter><parameter name="RDY">1</parameter></Instrument_Parameters_><History/></OPUSDataFile>
