<?xml version="1.0" encoding="UTF-8" ?>
<OPUSDataFile><AB><Ydata ylabel="Absorbance Units"><values byteorder="INTEL" format="FLOAT32" numvalues="3497"> -0.08743568 -0.08748765 -0.08751417 -0.08751488 -0.08749348 -0.08745022 -0.08740985 -0.08737293 -0.08735403 -0.08735098
 -0.08735865 -0.08737514 -0.08739047 -0.08740594 -0.08741947 -0.0874334 -0.08745105 -0.08747279 -0.08750092 -0.08753335
 -0.08756959 -0.08760656 -0.08764223 -0.08767587 -0.08770614 -0.08773597 -0.0877658 -0.08779792 -0.08783316 -0.08786957
 -0.08790714 -0.08794288 -0.08797664 -0.08800827 -0.08803759 -0.08806248 -0.08808213 -0.08808995 -0.08808655 -0.08806936
 -0.08804233 -0.08801342 -0.08798598 -0.08797002 -0.08796416 -0.08797115 -0.08798761 -0.08801138 -0.08804134 -0.08807731
 -0.08811513 -0.08815501 -0.08818588 -0.08820454 -0.08820616 -0.08818706 -0.08816499 -0.08814044 -0.08814063 -0.08816712
 -0.08822636 -0.0883163 -0.08841053 -0.08850593 -0.08856821 -0.08860096 -0.08859688 -0.08856539 -0.08852512 -0.08848277
 -0.08845832 -0.08845229 -0.08847456 -0.08851836 -0.08858465 -0.08865687 -0.08872834 -0.08877993 -0.08880019 -0.08879106
 -0.08874641 -0.08869656 -0.08864444 -0.08862099 -0.08863036 -0.08868052 -0.08877219 -0.08889668 -0.08905295 -0.08922719
 -0.08941589 -0.08959323 -0.08975182 -0.08984777 -0.08988347 -0.08983507 -0.08972715 -0.08958786 -0.08944225 -0.08933421
 -0.08926513 -0.089256 -0.08928268 -0.08934063 -0.08939859 -0.08944066 -0.08946174 -0.08945331 -0.08944127 -0.08942856
 -0.08943605 -0.08946783 -0.0895128 -0.08957062 -0.08961435 -0.08964381 -0.08965072 -0.08963829 -0.0896221 -0.08960519
 -0.08960737 -0.08962855 -0.08967971 -0.08975619 -0.08985689 -0.08997253 -0.09009308 -0.09020823 -0.09030686 -0.09038172
 -0.09042469 -0.090437 -0.09041289 -0.09037441 -0.09032167 -0.09029557 -0.09030198 -0.09037674 -0.09052681 -0.09074233
 -0.09102394 -0.09125622 -0.09143255 -0.09142067 -0.09124 -0.09094954 -0.0905742 -0.09024359 -0.08995549 -0.08976929
 -0.08967249 -0.08967437 -0.08975259 -0.08989009 -0.09005298 -0.0902087 -0.09033426 -0.09040226 -0.09042502 -0.09039742
 -0.09034972 -0.09028976 -0.09023268 -0.09018263 -0.09014346 -0.09011558 -0.0901057 -0.09011425 -0.09014775 -0.0902059
 -0.09028555 -0.09038485 -0.09049102 -0.09060109 -0.09069791 -0.09077789 -0.09082317 -0.09083289 -0.09079413 -0.09071711
 -0.0906046 -0.09047876 -0.09035686 -0.09026 -0.09020592 -0.09020144 -0.09025658 -0.09035774 -0.09050713 -0.09067214
 -0.09084943 -0.09100257 -0.09112744 -0.09119954 -0.09121697 -0.09117565 -0.09107695 -0.09094284 -0.09077688 -0.09061378
 -0.09045453 -0.09032197 -0.09021341 -0.0901339 -0.09007993 -0.09004842 -0.09003504 -0.09003473 -0.0900404 -0.09004492
 -0.09004246 -0.09002581 -0.08999963 -0.08996221 -0.08992654 -0.08989581 -0.08987869 -0.08987782 -0.08989266 -0.08992348
 -0.08996838 -0.09002728 -0.09009904 -0.09018308 -0.09027078 -0.09035997 -0.09043123 -0.09048397 -0.09050302 -0.09049465
 -0.09046567 -0.09042567 -0.09039604 -0.0903786 -0.09038667 -0.09041114 -0.09044743 -0.09049226 -0.09053718 -0.09060095
 -0.09068853 -0.09081707 -0.09099964 -0.09120529 -0.09143651 -0.09162301 -0.09175604 -0.09180484 -0.09176635 -0.09165907
 -0.0914845 -0.09126717 -0.09101189 -0.09076133 -0.09052387 -0.09035767 -0.09026279 -0.09027618 -0.09037573 -0.09054878
 -0.09074949 -0.09091111 -0.09101832 -0.09102109 -0.09096635 -0.09086671 -0.09076471 -0.09068602 -0.09063058 -0.09060706
 -0.09058863 -0.0905722 -0.09053449 -0.09047123 -0.09038444 -0.09027366 -0.09015997 -0.0900446 -0.08994984 -0.08987614
 -0.08983901 -0.08983518 -0.08986317 -0.08991257 -0.08995479 -0.08998367 -0.08996992 -0.0899261 -0.08985669 -0.08977194
 -0.08968644 -0.08959215 -0.08948904 -0.08936694 -0.08921725 -0.08905289 -0.08887243 -0.08870485 -0.08855589 -0.08844052
 -0.08836273 -0.08831096 -0.08828509 -0.08825666 -0.08822443 -0.08816455 -0.08807932 -0.08797364 -0.08785131 -0.08773122
 -0.08761335 -0.08750613 -0.08741067 -0.08733228 -0.08727317 -0.08724167 -0.08722847 -0.08723371 -0.08723169 -0.08720731
 -0.08714255 -0.08702293 -0.08685545 -0.08663974 -0.08638097 -0.08608029 -0.08573837 -0.08535398 -0.08494393 -0.08450896
 -0.08407327 -0.08363812 -0.08322521 -0.08283634 -0.08249619 -0.08220425 -0.08197545 -0.08180029 -0.08166223 -0.08154999
 -0.08143214 -0.08131091 -0.08117797 -0.08103339 -0.08088376 -0.08069824 -0.08046009 -0.08014686 -0.0797318 -0.07926264
 -0.07874399 -0.07823338 -0.07774559 -0.07729252 -0.07687885 -0.07648926 -0.07612313 -0.075763 -0.07540873 -0.07505929
 -0.0747166 -0.07439677 -0.07409754 -0.07382318 -0.073559 -0.07326664 -0.07293584 -0.07251766 -0.07204182 -0.07152312
 -0.07099939 -0.0705171 -0.07007501 -0.06969197 -0.06933615 -0.06900106 -0.0686512 -0.06827192 -0.06785834 -0.06740373
 -0.06693447 -0.0664534 -0.06597532 -0.06550211 -0.06501762 -0.06452098 -0.06399286 -0.06343579 -0.06286003 -0.06227024
 -0.06169258 -0.06112732 -0.06058837 -0.06007413 -0.05958815 -0.0591284 -0.05869585 -0.05828239 -0.05788255 -0.05748559
 -0.05708249 -0.05666985 -0.056245 -0.05580363 -0.05534649 -0.05485762 -0.05433295 -0.05376849 -0.05316005 -0.05254215
 -0.05191647 -0.05132458 -0.05076738 -0.05025271 -0.0497782 -0.04932961 -0.04890446 -0.04848517 -0.04807007 -0.04764442
 -0.04721046 -0.0467641 -0.046312 -0.0458629 -0.04541691 -0.0449819 -0.04454107 -0.04408865 -0.04360275 -0.04306797
 -0.04249049 -0.0418637 -0.0412234 -0.0405746 -0.03994882 -0.03935165 -0.03879025 -0.03826614 -0.03776304 -0.03727981
 -0.03679206 -0.03629924 -0.03578599 -0.0352532 -0.03469595 -0.03411653 -0.03351683 -0.03290331 -0.03228748 -0.03167886
 -0.03109644 -0.03054138 -0.03002486 -0.029534 -0.02906493 -0.02860332 -0.02814009 -0.02767459 -0.02720259 -0.02673757
 -0.02628171 -0.02584438 -0.02542914 -0.02501916 -0.02461429 -0.02417558 -0.02370166 -0.02317107 -0.0225882 -0.02197901
 -0.02135064 -0.02075137 -0.02017911 -0.01965565 -0.01916875 -0.01870432 -0.01825379 -0.01779658 -0.01733787 -0.01687383
 -0.01641533 -0.01597155 -0.0155382 -0.01512034 -0.01469322 -0.01425043 -0.01377407 -0.01325576 -0.01271095 -0.0121388
 -0.01157122 -0.01101079 -0.01047185 -0.009954561 -0.009453053 -0.008967111 -0.008492203 -0.008029715 -0.007584134 -0.00715579
 -0.006749023 -0.006360912 -0.005988713 -0.005627303 -0.005268669 -0.00490903 -0.004541466 -0.004165935 -0.003780522 -0.00338568
 -0.002981296 -0.002567187 -0.002141431 -0.001713178 -0.00128228 -0.0008670053 -0.0004703488 -9.81535E-05 0.0002481568 0.0005861833
 0.0009168874 0.001260806 0.001617052 0.001987077 0.002367988 0.002747202 0.003122982 0.003483407 0.003829142 0.004154947
 0.004464591 0.004760729 0.005047567 0.005331508 0.005610443 0.005885458 0.006151987 0.006405856 0.006653813 0.006895158
 0.007145386 0.007408714 0.007688183 0.007986439 0.008286616 0.00858793 0.008869518 0.009130746 0.009366602 0.009579535
 0.009788187 0.009996837 0.01023706 0.01050766 0.01082528 0.01117761 0.01154964 0.01192614 0.01227735 0.0126005
 0.01287918 0.01312506 0.01334025 0.01353783 0.0137249 0.01390706 0.01408755 0.01426801 0.01444899 0.01463307
 0.01482073 0.01501322 0.01521086 0.01540988 0.0156101 0.01580719 0.01600192 0.01619925 0.01640068 0.0166178
 0.01684779 0.01709076 0.01733744 0.01756875 0.01777846 0.01794522 0.01807991 0.01818102 0.01827328 0.01837405
 0.018496 0.01865538 0.01883209 0.01902633 0.01920474 0.01935754 0.01948043 0.0195686 0.01965277 0.01973524
 0.01983462 0.01995088 0.0200581 0.02015378 0.0202011 0.02020458 0.0201648 0.02009218 0.02001953 0.01995186
 0.01991704 0.01991068 0.0199396 0.01999441 0.02006913 0.02015371 0.02023839 0.02032119 0.02039534 0.02047536
 0.02056333 0.02067655 0.02082286 0.02098928 0.02117888 0.02134344 0.02147957 0.02154569 0.02154068 0.02147428
 0.02135134 0.02122347 0.0210925 0.02099725 0.02092982 0.02088536 0.0208576 0.02082748 0.02080194 0.02078307
 0.02077752 0.02079867 0.02083142 0.02087241 0.0208987 0.02089338 0.02086337 0.02080132 0.02074589 0.02070439
 0.02070352 0.02075145 0.02083041 0.02094112 0.02103683 0.02111524 0.02113725 0.02110373 0.0210058 0.02084987
 0.02066065 0.02044843 0.02025807 0.02009614 0.02000174 0.01996678 0.02000168 0.02008091 0.02018514 0.02028643
 0.02035661 0.02038931 0.02036907 0.02031834 0.0202381 0.02016159 0.02009599 0.02006414 0.02007033 0.02012572
 0.0202317 0.02039366 0.02061167 0.02087817 0.02118979 0.02151188 0.02183684 0.02210749 0.0223194 0.02242375
 0.02243175 0.02233625 0.0221683 0.02196642 0.02176625 0.02162163 0.02154354 0.02156566 0.02165452 0.02181106
 0.0219722 0.02211872 0.02220142 0.02220119 0.02212078 0.02195344 0.02174915 0.02151083 0.02128992 0.02108872
 0.02092303 0.02079125 0.02068144 0.02059329 0.02051827 0.02045955 0.02042346 0.02041158 0.02043379 0.02048132
 0.02055112 0.02061871 0.0206615 0.0206497 0.0205517 0.02036223 0.02006155 0.01968851 0.01924522 0.01879395
 0.01834855 0.01795242 0.01761574 0.0173445 0.01714154 0.01698157 0.01686309 0.0167434 0.01662071 0.01645851
 0.01626107 0.01602935 0.01577342 0.01552894 0.01529692 0.01510283 0.01492822 0.014758 0.01457128 0.01433479
 0.01405393 0.01371353 0.01335277 0.01298253 0.01265035 0.01237735 0.01218033 0.01207426 0.01201989 0.01201876
 0.01199325 0.01193673 0.01179294 0.01155934 0.01124646 0.01085917 0.01045558 0.010039 0.009658694 0.009310708
 0.009008641 0.008745559 0.0085138 0.00830588 0.008108517 0.007912938 0.007704396 0.007479492 0.007228365 0.006960428
 0.006676334 0.006390218 0.00610788 0.005834525 0.005573018 0.005321202 0.00507899 0.004845855 0.004621956 0.004404008
 0.004191747 0.0039712 0.00374157 0.003487925 0.003212291 0.002916873 0.002606586 0.002299567 0.001997847 0.001716717
 0.001451118 0.001200811 0.0009581472 0.000714006 0.0004656693 0.0002070648 -5.820662E-05 -0.0003301398 -0.0006042984 -0.0008786627
 -0.001152596 -0.001425186 -0.001699038 -0.001974454 -0.00225314 -0.002535374 -0.002820605 -0.003108808 -0.003398355 -0.003689154
 -0.003979635 -0.004269788 -0.004558563 -0.004846341 -0.005133623 -0.005421293 -0.00571177 -0.006005221 -0.006303964 -0.006604984
 -0.006907299 -0.007203944 -0.007490864 -0.007758312 -0.008001012 -0.008209945 -0.008378878 -0.00851145 -0.008602629 -0.008684275
 -0.008757041 -0.008873866 -0.009039899 -0.009289615 -0.009624865 -0.01002519 -0.01048575 -0.01094184 -0.01138911 -0.01176671
 -0.01208057 -0.01231401 -0.01248561 -0.01262666 -0.0127588 -0.01293271 -0.01315309 -0.01345206 -0.01380298 -0.0142016
 -0.01460556 -0.01498925 -0.01533511 -0.01562551 -0.01588172 -0.016105 -0.01631854 -0.01652942 -0.01672502 -0.01690623
 -0.01703861 -0.01712037 -0.01714214 -0.01710728 -0.01705391 -0.01698934 -0.01697643 -0.01701684 -0.01715413 -0.01737544
 -0.01767694 -0.018035 -0.01840926 -0.01878586 -0.0191291 -0.01944904 -0.01974061 -0.02002011 -0.02029924 -0.02057192
 -0.02084107 -0.02108773 -0.02130451 -0.02149751 -0.02166373 -0.02183457 -0.02201353 -0.02221178 -0.02243008 -0.02263973
 -0.02283906 -0.02299721 -0.02311749 -0.02320318 -0.02326041 -0.0233138 -0.02336424 -0.02342675 -0.0234977 -0.02357669
 -0.02366326 -0.02375439 -0.02385748 -0.02397467 -0.02412058 -0.02430262 -0.02453409 -0.02482496 -0.02516686 -0.02556591
 -0.02597743 -0.02639845 -0.02676992 -0.02708446 -0.02732112 -0.02747824 -0.02759988 -0.02769046 -0.02782198 -0.02799357
 -0.02824058 -0.02855013 -0.02889662 -0.02926503 -0.02960446 -0.02991343 -0.03016278 -0.03036767 -0.03053204 -0.030676
 -0.03081715 -0.03096687 -0.03113841 -0.03132699 -0.03153701 -0.03174769 -0.03195584 -0.03213936 -0.03229179 -0.03241821
 -0.03251603 -0.03262715 -0.03275381 -0.03293686 -0.033175 -0.03345992 -0.03378458 -0.03409928 -0.03440341 -0.03466441
 -0.0348949 -0.03510918 -0.03531814 -0.03555096 -0.0357998 -0.03607033 -0.036343 -0.03660329 -0.03684 -0.03704118
 -0.03720934 -0.0373428 -0.03744534 -0.03751846 -0.03755978 -0.03756863 -0.03754619 -0.03749098 -0.03742474 -0.03734847
 -0.03730638 -0.0373006 -0.03737225 -0.03751798 -0.03774117 -0.03803007 -0.03834489 -0.03867327 -0.03896392 -0.03921467
 -0.0393963 -0.03951883 -0.03958089 -0.03959737 -0.0395793 -0.03953863 -0.03948532 -0.03942395 -0.03935863 -0.03928959
 -0.0392172 -0.03914334 -0.03906847 -0.0389939 -0.03892102 -0.03883497 -0.0387352 -0.03858445 -0.03838102 -0.03809059
 -0.03771726 -0.03726676 -0.03675074 -0.03621579 -0.03567015 -0.03516066 -0.03468138 -0.03424583 -0.03383885 -0.03344721
 -0.03306096 -0.03266603 -0.03226298 -0.03184745 -0.03142519 -0.03099667 -0.03056974 -0.03014512 -0.02973549 -0.02934215
 -0.02898054 -0.02865221 -0.02836969 -0.02813384 -0.02795 -0.02781804 -0.0277366 -0.02770494 -0.02771798 -0.02777472
 -0.02787028 -0.02800083 -0.0281577 -0.02832946 -0.02849519 -0.02863955 -0.02873417 -0.02877563 -0.0287475 -0.02866537
 -0.02853226 -0.02836635 -0.02817785 -0.02796695 -0.02773779 -0.02747573 -0.02717892 -0.02683597 -0.02644464 -0.02600792
 -0.02552558 -0.02501924 -0.02449136 -0.02398344 -0.02349906 -0.02308424 -0.02273724 -0.02247955 -0.0222994 -0.0221801
 -0.02210649 -0.02204173 -0.02198517 -0.02191214 -0.02185504 -0.02182034 -0.02187513 -0.02205271 -0.02242285 -0.02302594
 -0.02387803 -0.02500485 -0.02633227 -0.02786281 -0.02945428 -0.03109492 -0.03264696 -0.03410074 -0.03538987 -0.03651529
 -0.03749124 -0.03832378 -0.03906035 -0.0397035 -0.04028707 -0.04081214 -0.04129549 -0.04174433 -0.04217795 -0.04260383
 -0.04304238 -0.04348586 -0.04393898 -0.044379 -0.04479423 -0.04516806 -0.04548868 -0.04575885 -0.04597585 -0.04615124
 -0.04628704 -0.04638867 -0.04645748 -0.04648931 -0.04648401 -0.04643403 -0.04633979 -0.04620577 -0.04603692 -0.04586733
 -0.04570558 -0.04560577 -0.04556872 -0.04562934 -0.04577108 -0.04598473 -0.04624392 -0.04651286 -0.04677247 -0.046993
 -0.04717045 -0.04729256 -0.04736741 -0.04739414 -0.04738591 -0.04734629 -0.0472834 -0.0472002 -0.04709308 -0.04696125
 -0.04680709 -0.04662968 -0.04647886 -0.04636061 -0.04638579 -0.04656126 -0.04699728 -0.04767941 -0.04862151 -0.04977761
 -0.05104076 -0.05236136 -0.05359496 -0.05473286 -0.05569504 -0.05652394 -0.05722471 -0.05785048 -0.0584383 -0.0590069
 -0.05957735 -0.06013324 -0.06067494 -0.06118219 -0.06165015 -0.06207449 -0.06245342 -0.06279495 -0.06309935 -0.06337851
 -0.06363307 -0.06387514 -0.06410528 -0.06433368 -0.06455994 -0.06478873 -0.06501758 -0.0652433 -0.06546161 -0.06566276
 -0.06584561 -0.0660021 -0.06614085 -0.06626402 -0.0663873 -0.06652146 -0.06667385 -0.06685423 -0.06704689 -0.06725257
 -0.06744077 -0.06760521 -0.06773055 -0.06781193 -0.06786885 -0.06790183 -0.06794782 -0.06800774 -0.06809762 -0.06821418
 -0.06834017 -0.068473 -0.06859026 -0.06869731 -0.06879584 -0.06889495 -0.06901429 -0.06915415 -0.06932636 -0.06951828
 -0.0697249 -0.06992912 -0.0701194 -0.07028427 -0.07041503 -0.07051143 -0.07056907 -0.07060362 -0.07061487 -0.070632
 -0.07065812 -0.07071637 -0.07080905 -0.07093214 -0.07108452 -0.07124092 -0.07140033 -0.07154277 -0.07167067 -0.07178357
 -0.07188435 -0.0719813 -0.07207401 -0.07216566 -0.07225484 -0.07234049 -0.07242294 -0.07250249 -0.07257825 -0.07265119
 -0.07271545 -0.07276864 -0.07280724 -0.07282732 -0.07283983 -0.07284427 -0.0728632 -0.07289957 -0.07296531 -0.07306204
 -0.07317649 -0.07330754 -0.07343078 -0.07354641 -0.0736438 -0.07372648 -0.07380401 -0.07387912 -0.07396556 -0.0740607
 -0.07416756 -0.07427849 -0.07438501 -0.07448065 -0.07455473 -0.07460999 -0.07464222 -0.07466531 -0.07468291 -0.07471048
 -0.07475399 -0.07481873 -0.07490793 -0.07501465 -0.07513899 -0.07526941 -0.07540516 -0.07553658 -0.07566334 -0.0757808
 -0.07588932 -0.07598943 -0.07608184 -0.07616986 -0.07625383 -0.07633649 -0.07641768 -0.07649852 -0.07657841 -0.076657
 -0.07673389 -0.07680813 -0.07688109 -0.07695267 -0.07702643 -0.07710385 -0.07718723 -0.0772783 -0.07737438 -0.07747579
 -0.07757647 -0.07767577 -0.07776874 -0.07785489 -0.07793352 -0.07800468 -0.07807024 -0.07813009 -0.07818443 -0.07823271
 -0.07827207 -0.07830337 -0.07832634 -0.07834524 -0.07836744 -0.07839801 -0.07844791 -0.07851665 -0.07860968 -0.07871867
 -0.07884102 -0.0789663 -0.07908914 -0.07920399 -0.07930723 -0.07940099 -0.07948433 -0.07956492 -0.07964358 -0.07972617
 -0.07981339 -0.07990316 -0.07999516 -0.08008123 -0.08016122 -0.08022972 -0.08028809 -0.08033909 -0.08038489 -0.08043312
 -0.08048494 -0.08054671 -0.08061731 -0.08069846 -0.08078698 -0.08088097 -0.08097656 -0.08107129 -0.08116082 -0.08124284
 -0.08131414 -0.08137254 -0.0814202 -0.08145591 -0.08149046 -0.08152479 -0.08156982 -0.0816268 -0.08169333 -0.08176893
 -0.08183873 -0.08190241 -0.08194967 -0.08198341 -0.08201063 -0.08203553 -0.08207516 -0.08212889 -0.0822059 -0.08229788
 -0.08239834 -0.08249731 -0.08258123 -0.08264993 -0.08269635 -0.0827333 -0.0827639 -0.08280178 -0.08285344 -0.08291823
 -0.08299879 -0.08308146 -0.08316495 -0.08323787 -0.08329895 -0.08334954 -0.08338991 -0.08342934 -0.08346801 -0.08351157
 -0.08355909 -0.08360909 -0.08366116 -0.08371297 -0.08376553 -0.08381999 -0.08387692 -0.0839383 -0.08400212 -0.0840674
 -0.08413162 -0.08419245 -0.08424981 -0.08430265 -0.08435313 -0.08440164 -0.08445013 -0.08449927 -0.08454901 -0.08459967
 -0.08464869 -0.08469594 -0.08473822 -0.08477548 -0.08480821 -0.08483699 -0.08486736 -0.08489985 -0.08494042 -0.08498813
 -0.0850439 -0.08510525 -0.08516794 -0.08522946 -0.08528423 -0.08533176 -0.08536859 -0.08539837 -0.08542157 -0.08544448
 -0.08547027 -0.08550238 -0.08554345 -0.08559052 -0.08564401 -0.08569732 -0.08574963 -0.08579622 -0.08583654 -0.08587065
 -0.08589861 -0.0859239 -0.08594675 -0.08597103 -0.08599664 -0.08602536 -0.0860569 -0.0860911 -0.086128 -0.08616763
 -0.08620984 -0.08625519 -0.08630143 -0.08634727 -0.0863887 -0.08642218 -0.08644687 -0.08646017 -0.08646771 -0.08647009
 -0.08647487 -0.08648423 -0.08649974 -0.08652234 -0.08654771 -0.08657559 -0.08660228 -0.08662764 -0.08665117 -0.08667296
 -0.08669356 -0.08671316 -0.08673275 -0.0867529 -0.08677609 -0.0868021 -0.08683241 -0.08686484 -0.08689702 -0.08692687
 -0.08695053 -0.08696991 -0.08698407 -0.08699881 -0.0870162 -0.087042 -0.08707882 -0.08712829 -0.08719193 -0.08726541
 -0.08734898 -0.08743311 -0.08751717 -0.08759148 -0.08765565 -0.08770645 -0.08774448 -0.08777399 -0.08779585 -0.08781648
 -0.08783633 -0.08786007 -0.08788791 -0.08792269 -0.08796389 -0.08801279 -0.08806637 -0.08812295 -0.08817735 -0.08822526
 -0.08826428 -0.08829091 -0.08830962 -0.08832032 -0.08833086 -0.08834309 -0.08836117 -0.08838619 -0.08841749 -0.08845513
 -0.08849764 -0.08854492 -0.08859536 -0.08864848 -0.08869909 -0.08874632 -0.08878244 -0.0888079 -0.08881932 -0.08881959
 -0.08881285 -0.08880232 -0.08879468 -0.08879109 -0.08879539 -0.08880688 -0.08882616 -0.08885255 -0.08888628 -0.08892523
 -0.08896966 -0.08901379 -0.0890568 -0.08909218 -0.08911849 -0.08913542 -0.08914255 -0.08914617 -0.08914658 -0.08914941
 -0.08915453 -0.08916269 -0.08917366 -0.08918668 -0.08920173 -0.08921869 -0.08923679 -0.08925455 -0.0892707 -0.08928241
 -0.08928988 -0.08929174 -0.08929025 -0.08928624 -0.08928274 -0.08928125 -0.0892844 -0.08929355 -0.08930928 -0.08933254
 -0.08935978 -0.0893909 -0.08942048 -0.08944803 -0.08947037 -0.08948736 -0.08949804 -0.08950236 -0.08949891 -0.08948801
 -0.0894697 -0.08944579 -0.08942179 -0.08939995 -0.08938862 -0.08938707 -0.08939903 -0.08941953 -0.08944518 -0.08947074
 -0.08949056 -0.08950444 -0.08951011 -0.08951138 -0.08950935 -0.08950539 -0.08950047 -0.08949188 -0.08947904 -0.08946244
 -0.08944172 -0.08942425 -0.08941038 -0.08940621 -0.08941138 -0.08942398 -0.08944347 -0.08946503 -0.08949027 -0.08952083
 -0.08956081 -0.08961946 -0.08970107 -0.08981648 -0.0899672 -0.09015985 -0.0903912 -0.09066192 -0.09096561 -0.09129865
 -0.09165916 -0.09204406 -0.09246087 -0.09291024 -0.09340176 -0.09393878 -0.09451244 -0.09512418 -0.09573393 -0.09633938
 -0.09688202 -0.09735998 -0.09773377 -0.09800483 -0.09816404 -0.0982066 -0.0981136 -0.09787548 -0.09744731 -0.09686102
 -0.09612785 -0.0953292 -0.09455826 -0.09386471 -0.0933216 -0.09292355 -0.09268851 -0.09259339 -0.09263731 -0.09278736
 -0.09304356 -0.09333841 -0.09366656 -0.09394041 -0.09414963 -0.09427047 -0.09430171 -0.09428234 -0.09421326 -0.09411589
 -0.09398864 -0.09383078 -0.09364667 -0.09344885 -0.09324644 -0.09306817 -0.09291425 -0.09280257 -0.09271593 -0.09264524
 -0.09256766 -0.09246092 -0.0923193 -0.09212817 -0.09191129 -0.09167092 -0.09143972 -0.09122705 -0.09104602 -0.09090192
 -0.09078331 -0.09069031 -0.09060237 -0.09051841 -0.09042568 -0.09032471 -0.09021862 -0.0901087 -0.09000449 -0.089905
 -0.08981233 -0.08972387 -0.08963376 -0.08954257 -0.08944732 -0.08935279 -0.08926312 -0.0891818 -0.08911408 -0.08905722
 -0.08901214 -0.08897232 -0.08893551 -0.08889804 -0.08885808 -0.08881727 -0.08877542 -0.08873586 -0.08869892 -0.08866628
 -0.08863805 -0.08861554 -0.08859899 -0.08859212 -0.08859485 -0.08860949 -0.08863404 -0.08866335 -0.08869448 -0.08871741
 -0.0887325 -0.08873458 -0.08872879 -0.08871856 -0.08870903 -0.08870587 -0.08870984 -0.08872349 -0.08874378 -0.08877075
 -0.08879926 -0.08882844 -0.08885262 -0.08887078 -0.08887943 -0.08887789 -0.08886807 -0.08885004 -0.08883034 -0.08880932
 -0.08879352 -0.08878265 -0.08877885 -0.08878091 -0.08878598 -0.08879282 -0.08879693 -0.08879813 -0.08879395 -0.08878516
 -0.08877164 -0.08875429 -0.08873361 -0.08871073 -0.08868625 -0.08866131 -0.08863621 -0.08861269 -0.08859104 -0.08857342
 -0.08856024 -0.08855283 -0.08855151 -0.0885543 -0.08856108 -0.08856808 -0.08857522 -0.08858088 -0.08858514 -0.08858798
 -0.08858893 -0.088586 -0.08857908 -0.08856615 -0.08854946 -0.08853135 -0.08851504 -0.08850567 -0.08850325 -0.08851046
 -0.08852322 -0.08854049 -0.08855753 -0.08857221 -0.08858239 -0.08858673 -0.08858676 -0.0885823 -0.08857655 -0.08856985
 -0.0885635 -0.08855759 -0.08855046 -0.08854213 -0.08853263 -0.08852242 -0.08851448 -0.08850881 -0.08850732 -0.08850874
 -0.08851088 -0.08851292 -0.08851191 -0.08850949 -0.08850577 -0.08850412 -0.08850734 -0.08851723 -0.08853632 -0.08856222
 -0.08859555 -0.08863001 -0.08866456 -0.08869261 -0.08871281 -0.08872212 -0.08871984 -0.08870813 -0.08868704 -0.08866395
 -0.08863933 -0.08862199 -0.08861153 -0.08861071 -0.08861742 -0.08862542 -0.08863293 -0.08863194 -0.08862342 -0.08860502
 -0.08857935 -0.08854837 -0.08851457 -0.08847974 -0.08844815 -0.08842193 -0.08840641 -0.08840502 -0.08841671 -0.08844344
 -0.08847462 -0.08850922 -0.08853617 -0.08855385 -0.08856098 -0.08855738 -0.08854904 -0.08853619 -0.08852337 -0.0885103
 -0.08849726 -0.08848407 -0.08847003 -0.08845562 -0.0884416 -0.08842856 -0.08841781 -0.08840975 -0.08840533 -0.08840487
 -0.08840906 -0.08841752 -0.08843075 -0.08844638 -0.08846427 -0.08847976 -0.08849168 -0.0884968 -0.08849391 -0.08848511
 -0.08847024 -0.08845463 -0.08843862 -0.08842407 -0.08841077 -0.0883956 -0.08837856 -0.08835791 -0.08833487 -0.08831315
 -0.08829397 -0.08828273 -0.0882786 -0.08828314 -0.08829376 -0.08830827 -0.0883238 -0.08833729 -0.08834699 -0.0883506
 -0.08834935 -0.08834236 -0.08833457 -0.08832695 -0.08832376 -0.08832657 -0.08833265 -0.08834233 -0.08834719 -0.0883467
 -0.08833598 -0.08831538 -0.08828981 -0.08826039 -0.08823723 -0.08822025 -0.08821535 -0.08822001 -0.08823129 -0.08824603
 -0.08825692 -0.0882635 -0.08826141 -0.088254 -0.0882424 -0.08823005 -0.08822006 -0.08821122 -0.0882045 -0.08819522
 -0.08818201 -0.08816316 -0.08813738 -0.08810985 -0.08808067 -0.08805797 -0.08804228 -0.08803753 -0.08804352 -0.08805747
 -0.0880786 -0.08810064 -0.08812282 -0.088139 -0.08814867 -0.08814704 -0.08813516 -0.08811156 -0.08808044 -0.08804577
 -0.08801221 -0.08798593 -0.08796636 -0.08795605 -0.08794919 -0.08794386 -0.08793677 -0.08792579 -0.08791424 -0.08790228
 -0.08789349 -0.0878887 -0.08788497 -0.08788224 -0.08787294 -0.08785691 -0.08783122 -0.08779702 -0.0877606 -0.08772352
 -0.08769586 -0.08767682 -0.08767029 -0.08767273 -0.08767974 -0.08768828 -0.08769217 -0.08769177 -0.08768474 -0.0876739
 -0.08766006 -0.08764593 -0.08763287 -0.08762201 -0.08761421 -0.08760835 -0.08760463 -0.08760025 -0.08759497 -0.08758633
 -0.08757415 -0.08755711 -0.08753515 -0.08750704 -0.08747284 -0.08743203 -0.0873854 -0.08733542 -0.08728357 -0.08723465
 -0.08719017 -0.08715507 -0.08712983 -0.08711768 -0.08711649 -0.08712652 -0.08714256 -0.08716218 -0.08717982 -0.08719261
 -0.0871977 -0.08719354 -0.08718017 -0.08715707 -0.08712681 -0.08708934 -0.08705012 -0.08700944 -0.08697256 -0.08693952
 -0.08691139 -0.08688775 -0.08686635 -0.0868466 -0.08682507 -0.08680093 -0.08677007 -0.08673251 -0.08668525 -0.0866318
 -0.08657459 -0.08651895 -0.08647116 -0.08643171 -0.08640432 -0.08638196 -0.0863633 -0.08634018 -0.08630922 -0.08627006
 -0.08622107 -0.08617077 -0.08611975 -0.08607696 -0.08604317 -0.08601826 -0.08600179 -0.08598499 -0.08596746 -0.08594175
 -0.08590887 -0.08586879 -0.08582304 -0.08577552 -0.08572775 -0.08568399 -0.08564586 -0.08561794 -0.08559856 -0.08559003
 -0.08558327 -0.08557434 -0.08555362 -0.08551416 -0.08545922 -0.08538625 -0.08531036 -0.0852339 -0.08516791 -0.08511464
 -0.08507217 -0.08504067 -0.08501109 -0.08498307 -0.08495006 -0.08491256 -0.08487115 -0.08482654 -0.08478221 -0.0847379
 -0.08469471 -0.08465198 -0.08460888 -0.08456513 -0.08452041 -0.08447368 -0.08442419 -0.08437017 -0.08430966 -0.08424408
 -0.08417283 -0.08410057 -0.08402882 -0.08395921 -0.08389272 -0.08382675 -0.08376097 -0.08369496 -0.08362857 -0.08356552
 -0.08350588 -0.08345092 -0.08340015 -0.08335022 -0.08330079 -0.0832485 -0.08319407 -0.08313777 -0.0830804 -0.08302396
 -0.08296782 -0.08291231 -0.0828557 -0.08279651 -0.08273365 -0.08266565 -0.08259338 -0.0825166 -0.08243727 -0.08235577
 -0.0822743 -0.08219326 -0.08211444 -0.08203824 -0.08196424 -0.08189249 -0.08182042 -0.0817481 -0.08167712 -0.08160847
 -0.08155093 -0.08150448 -0.08147553 -0.08145962 -0.08144898 -0.08143667 -0.08140447 -0.08135232 -0.08126989 -0.08116761
 -0.08105107 -0.08092966 -0.08081224 -0.08069904 -0.08059277 -0.08048975 -0.08038892 -0.08028998 -0.08019211 -0.08009977
 -0.08001333 -0.07993693 -0.07987095 -0.07981613 -0.07977241 -0.07973851 -0.07971376 -0.07969356 -0.07967522 -0.0796451
 -0.07960016 -0.07952275 -0.07941641 -0.07927729 -0.07911574 -0.07894383 -0.07876939 -0.07860393 -0.07845102 -0.07831641
 -0.0782002 -0.07810504 -0.07802492 -0.07796007 -0.07789841 -0.07783798 -0.07776821 -0.07768715 -0.077593 -0.07748531
 -0.07736865 -0.07724334 -0.07711574 -0.07698596 -0.07685789 -0.0767308 -0.0766032 -0.07647485 -0.07634326 -0.07621103
 -0.07608187 -0.07595831 -0.07584685 -0.07574404 -0.07565025 -0.07555797 -0.07546172 -0.07535927 -0.07524743 -0.07512962
 -0.07500613 -0.07488018 -0.07475217 -0.07462567 -0.07450088 -0.0743832 -0.07427312 -0.07417192 -0.07407932 -0.0739869
 -0.07389308 -0.07378072 -0.07364892 -0.07348225 -0.07328549 -0.07306252 -0.07282231 -0.07258531 -0.07235451 -0.07214432
 -0.07194919 -0.07176964 -0.07159799 -0.07142856 -0.07125939 -0.07108693 -0.07091648 -0.0707487 -0.07058927 -0.07044085
 -0.07029805 -0.07016238 -0.07000979 -0.06983874 -0.06962676 -0.06937381 -0.06909434 -0.06879103 -0.06849515 -0.06820455
 -0.0679268 -0.06765582 -0.06737719 -0.06708825 -0.06677484 -0.06644226 -0.06608985 -0.06572885 -0.06536926 -0.06502026
 -0.06469353 -0.06438398 -0.06409679 -0.06380706 -0.06350911 -0.06318014 -0.06281061 -0.06241361 -0.06198782 -0.06156463
 -0.06114681 -0.06074316 -0.06035373 -0.0599704 -0.05959294 -0.0592168 -0.05884147 -0.05846387 -0.05808014 -0.05767778
 -0.05725271 -0.05678786 -0.05628927 -0.05575554 -0.05520076 -0.05463951 -0.05407673 -0.0535216 -0.05296949 -0.05242008
 -0.05187077 -0.0513206 -0.05076921 -0.05021946 -0.04965242 -0.04907028 -0.0484152 -0.04768273 -0.04683006 -0.04585794
 -0.0448368 -0.04377348 -0.04276533 -0.0418021 -0.04088629 -0.04000322 -0.03910819 -0.0381988 -0.03724801 -0.03626113
 -0.03523827 -0.03417337 -0.03306925 -0.03189284 -0.03062572 -0.02923427 -0.02768321 -0.02601693 -0.02422547 -0.02243046
 -0.02065612 -0.01898163 -0.01742483 -0.01598805 -0.01467439 -0.01344668 -0.01230203 -0.01116853 -0.01003877 -0.008806995
 -0.007481302 -0.006027791 -0.004493794 -0.003015303 -0.001605663 -0.0003732392 0.0007300834 0.001729971 0.002661749 0.003574963
 0.004472421 0.005369705 0.006265853 0.007161795 0.008065036 0.00898304 0.009896183 0.01080463 0.01167222 0.01249106
 0.01326711 0.01399935 0.01471735 0.01542162 0.01609852 0.0167442 0.01731368 0.01780927 0.01821601 0.01854496
 0.01882118 0.01905563 0.01928648 0.01950982 0.01973771 0.01995927 0.02016251 0.02035671 0.02054316 0.02073533
 0.02094514 0.02115946 0.02138017 0.02157782 0.02174571 0.02186827 0.0219407 0.02197134 0.02195939 0.02193586
 0.0219022 0.02188283 0.02187543 0.02186652 0.02185212 0.0218043 0.02172398 0.0215968 0.02143207 0.02123969
 0.02103454 0.02084406 0.0206733 0.02053843 0.02043652 0.02036518 0.02033907 0.02035992 0.02045727 0.02064471
 0.02092346 0.02130066 0.02174384 0.02224937 0.02279425 0.02337591 0.02398801 0.0246302 0.02529819 0.02599243
 0.0267151 0.02746797 0.02826178 0.02909664 0.02997866 0.03090662 0.03187992 0.03289981 0.0339684 0.03508522
 0.03625312 0.03746326 0.03871199 0.03998682 0.04127977 0.04258732 0.04390429 0.04524181 0.04660106 0.04799421
 0.04942574 0.05087971 0.05235648 0.05381611 0.05525693 0.05666598 0.05804542 0.05941962 0.06078106 0.06210996
 0.06338347 0.06451041 0.06549233 0.06628148 0.06690597 0.0673909 0.06774895 0.06800458 0.06815639 0.06821139
 0.06816404 0.06802573 0.06774259 0.06731706 0.0666208 0.06561369 0.06427644 0.06256936 0.06079263 0.05897145
 0.05727358 0.05570455 0.05411689 0.05250403 0.05074367 0.04884854 0.04682336 0.04468179 0.04248138 0.04020162
 0.0378407 0.03533796 0.03257456 0.02958566 0.02629118 0.02296527 0.01980007 0.01692204 0.01450312 0.0123448
 0.01041475 0.008555662 0.006709807 0.004887661 0.003079021 0.001346975 -0.000301017 -0.00187228 -0.003367527 -0.004846103
 -0.006308123 -0.007777873 -0.009245891 -0.01067336 -0.01205357 -0.01333912 -0.01454078 -0.01565704 -0.01670493 -0.0177108
 -0.01868316 -0.01963796 -0.02058731 -0.02153658 -0.02252162 -0.02356158 -0.02468151 -0.02592036 -0.02716429 -0.0284081
 -0.02947435 -0.03031838 -0.03098487 -0.03146823 -0.03191695 -0.03233803 -0.03279888 -0.03329498 -0.03379629 -0.03429652
 -0.0347421 -0.03514122 -0.03549455 -0.03580934 -0.0361091 -0.03637888 -0.03660836 -0.03677652 -0.03685081 -0.03683748
 -0.03672711 -0.03654193 -0.03629269 -0.03598775 -0.03563464 -0.03522577 -0.03476377 -0.03422438 -0.03360822 -0.03286351
 -0.03198496 -0.03094121 -0.02973142 -0.02845668 -0.02712806 -0.02591293 -0.02480623 -0.02386696 -0.02307895 -0.02241713
 -0.02187484 -0.02142714 -0.02106809 -0.02078442 -0.02055385 -0.02035575 -0.02014817 -0.01989252 -0.01956573 -0.01913154
 -0.01863932 -0.01809555 -0.01755468 -0.01703713 -0.01653732 -0.01605945 -0.0155741 -0.01507858 -0.01455731 -0.01400944
 -0.01344421 -0.01286248 -0.01227928 -0.01169169 -0.01109362 -0.01047624 -0.009806543 -0.009077725 -0.008253564 -0.007343507
 -0.006344684 -0.005272524 -0.004147265 -0.002965654 -0.001732014 -0.0004399881 0.000918233 0.002325052 0.003778603 0.005252575
 0.006736685 0.00823572 0.009745372 0.01130408 0.01291604 0.01459664 0.01634658 0.01809178 0.01982464 0.02142781
 0.02290093 0.02418392 0.0252795 0.02617092 0.02684741 0.02727795 0.02744779 0.02731501 0.02688521 0.02614173
 0.02511502 0.02381939 0.02229009 0.02054884 0.01861797 0.01650725 0.01423904 0.01180976 0.009292924 0.006689501
 0.004134207 0.001640164 -0.0007035399 -0.002891575 -0.004949061 -0.006879991 -0.008745974 -0.01054298 -0.01228 -0.01394594
 -0.01550235 -0.01695128 -0.01827339 -0.01948761 -0.02061502 -0.0216733 -0.0226918 -0.02367581 -0.02464082 -0.02557961
 -0.02649458 -0.02736996 -0.0282013 -0.02897411 -0.02968242 -0.03032699 -0.03090515 -0.03143539 -0.03191896 -0.03237435
 -0.03280267 -0.03320057 -0.03356651 -0.03387817 -0.03413537 -0.0343243 -0.03444908 -0.03451713 -0.03453224 -0.03450714
 -0.03444317 -0.0343475 -0.03422189 -0.03406963 -0.03389591 -0.03370284 -0.03350387 -0.0333026 -0.03312394 -0.03297558
 -0.0328836 -0.03285686 -0.03290484 -0.03303258 -0.03322574 -0.03348456 -0.03378085 -0.03411304 -0.03445847 -0.03481675
 -0.03517938 -0.03554548 -0.03590677 -0.03625926 -0.03658429 -0.03687846 -0.03712265 -0.03732007 -0.03746632 -0.03756861
 -0.03763374 -0.03766622 -0.03767139 -0.03765274 -0.03761178 -0.0375569 -0.03749045 -0.03742281 -0.03735699 -0.03729944
 -0.03725165 -0.03721706 -0.0371962 -0.03719052 -0.03720017 -0.037223 -0.03725888 -0.03730513 -0.03736191 -0.03742913
 -0.03750645 -0.03759307 -0.03768749 -0.0377853 -0.03788633 -0.03798743 -0.03809147 -0.03820055 -0.03831705 -0.03844436
 -0.03858111 -0.03872808 -0.03888151 -0.03904038 -0.03920111 -0.03936299 -0.03952184 -0.03967736 -0.03982315 -0.03995871
 -0.04007743 -0.04017888 -0.0402591 -0.04031819 -0.04035648 -0.04037463 -0.04037652 -0.04036307 -0.04033968 -0.04030671
 -0.04026832 -0.04022296 -0.04017055 -0.04010772 -0.04003005 -0.03993649 -0.0398234 -0.03969512 -0.03955258 -0.03940106
 -0.03924334 -0.03907997 -0.03891145 -0.03873808 -0.03855895 -0.03838201 -0.0382075 -0.03804808 -0.03790452 -0.03778282
 -0.03768252 -0.03759778 -0.03752704 -0.03745748 -0.03738818 -0.03730825 -0.03721908 -0.03711795 -0.03700834 -0.03689477
 -0.03678047 -0.03667073 -0.03656839 -0.03647685 -0.03639979 -0.03633999 -0.03630023 -0.03628308 -0.03628588 -0.03630951
 -0.03634541 -0.03639277 -0.03644168 -0.03649083 -0.03653615 -0.03657725 -0.03661862 -0.03666069 -0.03671117 -0.03676977
 -0.03683888 -0.03691687 -0.03699873 -0.03708326 -0.03716469 -0.03724335 -0.03731683 -0.03738694 -0.03745471 -0.03752236
 -0.03759239 -0.03766504 -0.03774208 -0.03781965 -0.03789702 -0.03796955 -0.03803539 -0.03809443 -0.03814612 -0.03819305
 -0.03823549 -0.03827471 -0.03831078 -0.03834501 -0.03837741 -0.03840914 -0.03843922 -0.03846235 -0.03847622 -0.03846867
 -0.03843921 -0.0383793 -0.0382925 -0.03818053 -0.03804834 -0.03790282 -0.03774652 -0.03758458 -0.03741536 -0.03724023
 -0.03705382 -0.03685473 -0.03663739 -0.0363999 -0.03613974 -0.03585608 -0.03554855 -0.03521701 -0.03486139 -0.03448166
 -0.03407917 -0.03365419 -0.03321102 -0.03275048 -0.03227996 -0.03180088 -0.03132275 -0.03084648 -0.0303799 -0.02992148
 -0.02947248 -0.02903014 -0.02859131 -0.02815483 -0.02771836 -0.0272825 -0.0268464 -0.02641278 -0.02598107 -0.02555981
 -0.0251505 -0.02476297 -0.02440038 -0.02406025 -0.02374365 -0.02343492 -0.02313313 -0.0228264 -0.02251469 -0.02219789
 -0.02187634 -0.02155277 -0.02122615 -0.0208944 -0.02055516 -0.0202019 -0.01983143 -0.01943439 -0.01901073 -0.01855385
 -0.01807334 -0.01757282 -0.0170677 -0.01656854 -0.01608322 -0.01561898 -0.01517177 -0.01474237 -0.01432368 -0.0139143
 -0.01351134 -0.01311423 -0.01272302 -0.01233774 -0.0119572 -0.01158101 -0.01120161 -0.01081824 -0.01042054 -0.01001017
 -0.009586968 -0.009155962 -0.008730165 -0.008313585 -0.007919721 -0.007549484 -0.007210366 -0.006898926 -0.006617867 -0.006353425
 -0.006101605 -0.005839794 -0.005557056 -0.005242552 -0.004888303 -0.004505401 -0.00409387 -0.003669037 -0.00323327 -0.002789292
 -0.00233761 -0.001871056 -0.001389329 -0.0008859076 -0.0003620962 0.0001774531 0.0007279686 0.001268047 0.001792589 0.0022762
 0.002718823 0.003109023 0.003447632 0.003733136 0.003960649 0.004124889 0.004224119 0.004252012 0.004222391 0.004136337
 0.004017783 0.003872125 0.00372267 0.003573648 0.003445415 0.003340826 0.003272127 0.003240548 0.003244272 0.003283019
 0.003350188 0.003446085 0.003570534 0.003723449 0.003905331 0.00411377 0.004342719 0.004589617 0.004847259 0.005113426
 0.005383362 0.005652987 0.005917646 0.006173024 0.006415579 0.006641659 0.006850037 0.007034044 0.007191894 0.007317393
 0.007408016 0.007467858 0.007496552 0.007504222 0.00749159 0.007463426 0.007419859 0.007362071 0.007290393 0.007208036
 0.007115324 0.007014865 0.006907697 0.006796699 0.006685743 0.006583282 0.006492394 0.006422073 0.006368968 0.006334374
 0.006310923 0.006295619 0.006279101 0.006259227 0.006219552 0.006156312 0.006051587 0.005900081 0.005699799 0.00544845
 0.005162646 0.004843257 0.004507279 0.004155127 0.003791324 0.003415299 0.003023861 0.002618117 0.002199712 0.001773287
 0.001351948 0.0009406701 0.0005562051 0.0001976759 -0.0001280661 -0.0004267517 -0.0007014576 -0.0009560473 -0.001193061 -0.00141731
 -0.001629329 -0.001840997 -0.002055338 -0.00228304 -0.002527652 -0.002788177 -0.003065136 -0.003354121 -0.003654775 -0.003967254
 -0.004291375 -0.004622998 -0.004961273 -0.005296553 -0.005629771 -0.005959386 -0.006288 -0.006623118 -0.006964166 -0.007314413
 -0.007670239 -0.008028382 -0.008385328 -0.00873766 -0.009080188 -0.009409083 -0.00971967 -0.01000696 -0.01027723 -0.01052912
 -0.0107795 -0.01103141 -0.01129684 -0.01157849 -0.01187437 -0.01218486 -0.01249809 -0.01281335 -0.01311618 -0.01340622
 -0.01367363 -0.01391935 -0.01414219 -0.01434344 -0.01452611 -0.01469089 -0.01483998 -0.01497498 -0.01509888 -0.01521296
 -0.0153206 -0.01541852 -0.01550595 -0.01557899 -0.01563442 -0.0156755 -0.0157022 -0.01571938 -0.01572908 -0.01572689
 -0.01571294 -0.01567842 -0.01562239 -0.01554649 -0.01545127 -0.01535159 -0.01524914 -0.01516452 -0.01509864 -0.0150676
 -0.01506916 -0.0151065 -0.01517401 -0.01526264 -0.01536698 -0.01547614 -0.01558655 -0.01569218 -0.01578782 -0.01586969
 -0.01593024 -0.01596548 -0.01597005 -0.0159412 -0.01587787 -0.01577888 -0.01564734 -0.01548286 -0.0152942 -0.01508167
 -0.01485978 -0.01462931 -0.01440496 -0.01418666 -0.013981 -0.01378588 -0.01359541 -0.01340741 -0.01321057 -0.01300844
 -0.01280079 -0.01259643 -0.01240932 -0.0122399 -0.01209832 -0.01196748 -0.01184066 -0.01169935 -0.01153023 -0.01133651
 -0.011113 -0.01088255 -0.01064819 -0.01043146 -0.01023624 -0.01006875 -0.009930321 -0.009810057 -0.009707162 -0.009601628
 -0.009493385 -0.009371963 -0.009240909 -0.009111012 -0.00898603 -0.008884774 -0.008803745 -0.008747458 -0.008704646 -0.008661604
 -0.008609626 -0.008532811 -0.008435237 -0.008312248 -0.008178494 -0.008039434 -0.007905848 -0.007783807 -0.007670963 -0.007568832
 -0.007467687 -0.007366571 -0.007257522 -0.007139851 -0.007008545 -0.006863365 -0.00670077 -0.006521114 -0.006325168 -0.006114921
 -0.005899502 -0.005681973 -0.005476661 -0.005284263 -0.005114486 -0.004962782 -0.0048279 -0.004702543 -0.004578334 -0.004452997
 -0.004321025 -0.004187481 -0.004052802 -0.003923538 -0.003802191 -0.003691213 -0.003592205 -0.003501923 -0.003420841 -0.003339443
 -0.003257141 -0.003164004 -0.003059719 -0.002943497 -0.002815901 -0.002682434 -0.002542561 -0.002396193 -0.002242966 -0.002080012
 -0.001911319 -0.001743375 -0.001580424 -0.001433724 -0.001298272 -0.001175462 -0.001053049 -0.0009220875 -0.0007779052 -0.0006129204
 -0.0004389119 -0.000256778 -8.261892E-05 7.814213E-05 0.0002267774 0.0003606088 0.0005033181 0.0006563847 0.0008422884 0.001061689
 0.001312405 0.001592315 0.001880282 0.002174854 0.00245761 0.002729435 0.002982602 0.003220587 0.003445383 0.00366379
 0.003886328 0.004118003 0.004370037 0.004636959 0.004920902 0.005207641 0.005491775 0.005760374 0.006007251 0.006229256
 0.006422015 0.006601625 0.006767801 0.006951701 0.007156315 0.00739468 0.007666674 0.007941889 0.008217111 0.008447118
 0.008634253 0.008764253 0.008846392 0.008900935 0.008937472 0.008985654 0.009050869 0.009155657 0.009295224 0.009477112
 0.009682072 0.009901109 0.01011274 0.01030319 0.01046509 0.01059134 0.01068886 0.01075623 0.01081048 0.01085297
 0.0109036 0.01096467 0.01103897 0.01112631 0.01120562 0.01127661 0.01132635 0.01135948 0.01139267 0.0114307
 0.01149815 0.01159489 0.01173298 0.01190905 0.01212621 0.01237255 0.01264065 0.01291009 0.01316254 0.01339132
 0.01358432 0.01375791 0.01391497 0.01406885 0.01422473 0.01437914 0.01453224 0.01468066 0.0148241 0.01496139
 0.01509233 0.01520707 0.01530571 0.01538446 0.01544637 0.01550565 0.01556411 0.01563632 0.01571903 0.0158125
 0.01591275 0.0160147 0.01611363 0.01620415 0.01627912 0.01633071 0.01635861 0.01635821 0.01634063 0.0163072
 0.01627275 0.01623922 0.01622583 0.01623487 0.0162861 0.01638259 0.01651593 0.0166854 0.01685313 0.01701862
 0.01716276 0.01728882 0.0174073 0.01751501 0.01760775 0.01767936 0.01770869 0.01770669 0.01767728 0.01764106
 0.0176223 0.01763093 0.01768014 0.01777866 0.0179358 0.01814952 0.01843438 0.01872226 0.0190018 0.01921193
 0.01933138 0.01942271 0.01948782 0.01960986 0.01979248 0.02004472 0.02036057 0.02067797 0.02098953 0.02122078
 0.0213763 0.02142769 0.02139288 0.0212961 0.02115504 0.02101213 0.0208626 0.02072132 0.020567 0.02038329
 0.02017309 0.01992724 0.01967668 0.01943099 0.01920765 0.01901398 0.01884853 0.01871146 0.01860616 0.01853364
 0.01848607 0.01846275 0.01842456 0.0183695 0.01826078 0.01810158 0.01788902 0.01762951 0.0173401 0.01703086
 0.01672836 0.01644957 0.01623512 0.0160868 0.01603194 0.0160347 0.01608101 0.01612956 0.01615303 0.01613785
 0.01607148 0.01595948 0.01579633 0.01561571 0.01541746 0.01526532 0.01516578 0.01515111 0.01522285 0.01535108
 0.01553319 0.01573057 0.01594198 0.01614257 0.01632947 0.01647526 0.01658817 0.01666698 0.01673632 0.01683637
 0.01697821 0.01719514 0.01747075 0.01780226 0.01817765 0.01858661 0.01903571 0.01952689 0.02005793 0.02063051
 0.02123125 0.02185797 0.02250567 0.02317433 0.02385266 0.0245399 0.02519636 0.02581925 0.02636166 0.02682511
 0.0271902 0.02746749 0.02767897 0.02784192 0.02801004 0.02818492 0.02840465 0.02863047 0.02883937 0.02898356
 0.02900893 0.0289236 0.02870732 0.02841581 0.02806509 0.02769272 0.02731373 0.02692933 0.02654268 0.02614263
 0.02572821 0.02529288 0.02483633 0.02437804 0.02392111 0.02351207 0.02315025 0.02285931 0.02262864 0.0224332
 0.02226553 0.02209514 0.02192201 0.02173603 0.02153011 0.02129169 0.02101908 0.02069866 0.02035991 0.02001084
 0.01968871 0.01941282 0.01918649 0.01901814 0.01888096 0.01877419 0.01865928 0.01853298 0.01836002 0.01813835
 0.01787785 0.01758246 0.01730999 0.01705866 0.01685205 0.0166748 0.01648094 0.01626759 0.01599673 0.01569369
 0.0153832 0.01508506 0.0148373 0.01463054 0.01447203 0.01434252 0.01423441 0.01413115 0.01402402 0.01390792
 0.01377531 0.01365269 0.01354144 0.01347723 0.0134657 0.01349655 0.01356943</values></Ydata></AB><ScSm><Ydata ylabel="Single channel"><values byteorder="INTEL" format="FLOAT32" numvalues="1814"> 0.07449847 0.07451282 0.07459442 0.07476407 0.07499219 0.07521322 0.07536943 0.07544944 0.07547469 0.07545534
 0.07539584 0.07534625 0.07539616 0.07558672 0.07585013 0.07605465 0.07611144 0.07605419 0.07601945 0.0761109
 0.0762568 0.07623363 0.075877 0.07527234 0.07469966 0.07437594 0.07431882 0.07451217 0.07504836 0.07587169
 0.07648295 0.07629473 0.0753713 0.07446705 0.07418708 0.07440524 0.07461791 0.07452932 0.07414225 0.07363982
 0.07343718 0.07407317 0.07568049 0.07754228 0.07834549 0.07700975 0.07346199 0.06888193 0.06526386 0.06434642
 0.0663899 0.0698275 0.07244196 0.07313424 0.07244761 0.07144465 0.07056076 0.06975103 0.06923401 0.06952026
 0.07071105 0.072035 0.07225081 0.07070805 0.06812078 0.06606016 0.0655213 0.06629881 0.06783045 0.06980897
 0.07132889 0.07039732 0.06589736 0.06007548 0.05753784 0.06086642 0.06785977 0.07368866 0.07519426 0.07265078
 0.06835068 0.06470771 0.06335726 0.06471848 0.06791241 0.07149072 0.07431517 0.07561408 0.07479091 0.07194059
 0.06835477 0.06589544 0.06585094 0.0684308 0.07272312 0.07677903 0.07849932 0.07718505 0.07400151 0.07074757
 0.06867248 0.06848095 0.07050855 0.07436907 0.07893395 0.08298689 0.08572032 0.08681589 0.08650994 0.08544309
 0.08417195 0.08308068 0.08272515 0.0834894 0.08468238 0.08480253 0.08317629 0.08085728 0.07953726 0.07979379
 0.0806305 0.08068706 0.0796146 0.0778492 0.07526323 0.07114153 0.06582361 0.06114057 0.05858483 0.05817524
 0.05954631 0.06252537 0.06584948 0.06709863 0.06534898 0.06285383 0.06280545 0.06592961 0.0701167 0.07299224
 0.07411097 0.07478715 0.07640186 0.07898922 0.08106388 0.0807457 0.0776296 0.07382796 0.07247551 0.07465161
 0.0783411 0.08090611 0.08186236 0.08258164 0.08389731 0.08481606 0.08355595 0.0796666 0.07516917 0.07330811
 0.07572268 0.08080238 0.08485787 0.08485334 0.0804465 0.07405755 0.06898409 0.06712283 0.0684597 0.07232246
 0.0781173 0.08467738 0.08996394 0.09220964 0.09120991 0.08821 0.084483 0.08015579 0.07489932 0.06989436
 0.06805399 0.07126672 0.07798289 0.08451144 0.0883099 0.08924327 0.08814634 0.08526026 0.08047625 0.07484752
 0.07107588 0.07141247 0.07494621 0.0781254 0.07847591 0.07685313 0.07560821 0.07565778 0.07614895 0.07626387
 0.07638168 0.0774263 0.07954527 0.08176092 0.08292061 0.08274822 0.08188691 0.08114614 0.08076611 0.08024737
 0.07905071 0.07767153 0.0775799 0.07961316 0.08282727 0.08547008 0.08674011 0.08707285 0.08697037 0.08611739
 0.08384603 0.080405 0.0774645 0.0768756 0.07888123 0.08196993 0.08444601 0.08564425 0.08576152 0.0852422
 0.08447908 0.08368619 0.08296613 0.08258829 0.08291978 0.08390275 0.08493631 0.08547954 0.08549476 0.08518134
 0.08459175 0.08370132 0.08267661 0.08188918 0.08165355 0.08198973 0.08265449 0.0833583 0.08387812 0.08402796
 0.08371992 0.08309439 0.08243387 0.08190984 0.08153358 0.08133431 0.08140428 0.08172907 0.08211657 0.08236193
 0.08240776 0.08230956 0.08211759 0.08184253 0.08150208 0.0811651 0.08094551 0.0809276 0.08106987 0.08122683
 0.08131251 0.08138578 0.08150825 0.08159124 0.08148878 0.08120246 0.08089468 0.08071354 0.0806752 0.08070293
 0.08070721 0.0806051 0.08032098 0.07985312 0.0793569 0.07908347 0.07917742 0.07957013 0.08008584 0.08057426
 0.08092548 0.08107334 0.08104797 0.08095231 0.0808428 0.08068392 0.08044074 0.08017528 0.08003259 0.0801302
 0.08044776 0.08083272 0.08112898 0.08128082 0.08131956 0.08131512 0.08135062 0.08146356 0.08158514 0.08160326
 0.08150484 0.08140181 0.08140309 0.08149859 0.08158061 0.08156513 0.08148627 0.08146191 0.08156361 0.08174662
 0.08191946 0.08204811 0.08216907 0.08231664 0.08245592 0.08249822 0.0823999 0.08223299 0.08211845 0.08209862
 0.08212799 0.08218001 0.08229105 0.0824803 0.08268511 0.0828146 0.08284635 0.08284126 0.08286285 0.0829018
 0.08289491 0.08280952 0.08268641 0.08259769 0.08258189 0.08262426 0.08268116 0.08271208 0.08269753 0.08264063
 0.08255883 0.08246942 0.08237956 0.0822954 0.08224583 0.08227701 0.0823969 0.08253123 0.08256705 0.08245552
 0.08226097 0.08209755 0.08202021 0.08198476 0.08191046 0.08176725 0.08159321 0.08144231 0.08133613 0.08126235
 0.08119813 0.08113039 0.08107224 0.08106574 0.08114781 0.08129571 0.08142112 0.0814428 0.08136406 0.08126184
 0.08120736 0.08121543 0.08126043 0.08131484 0.08137642 0.08147063 0.08161376 0.08176798 0.08186506 0.08188796
 0.08189578 0.08195709 0.08209426 0.08229515 0.08252803 0.08273308 0.08285247 0.08289509 0.08293675 0.08303761
 0.08318713 0.08334237 0.08348958 0.0836466 0.08382599 0.08402472 0.08424648 0.0845115 0.08483297 0.0851894
 0.08552793 0.08579984 0.08600201 0.08618928 0.08643948 0.08679277 0.08721848 0.08764081 0.08800059 0.08829823
 0.08857851 0.08887501 0.08918135 0.08948588 0.0898138 0.09020412 0.09065272 0.09111046 0.09153882 0.09194195
 0.09234308 0.09275247 0.09316534 0.09357977 0.09400945 0.09447342 0.09496481 0.0954375 0.09584215 0.0961758
 0.09648685 0.09683632 0.09725693 0.09772584 0.09816442 0.09849592 0.09873064 0.09896985 0.09929532 0.09967856
 0.1000351 0.1003474 0.1006848 0.1011021 0.1015636 0.1019883 0.102341 0.1026564 0.1029852 0.1033335
 0.1036584 0.1039152 0.1041083 0.1042887 0.1045025 0.1047623 0.1050733 0.1054577 0.1059193 0.1064053
 0.1068377 0.1071783 0.1074392 0.1076501 0.1078401 0.1080348 0.1082423 0.1084531 0.1086642 0.1088802
 0.1090835 0.1092434 0.1093724 0.1095333 0.109768 0.1100586 0.1103778 0.1107366 0.1111466 0.1115706
 0.1119621 0.1123373 0.1127564 0.1132246 0.113659 0.1139778 0.1141848 0.1143384 0.1144762 0.1146151
 0.1147999 0.1150891 0.1154878 0.1159377 0.1163785 0.1167927 0.1171865 0.1175549 0.117877 0.1181314
 0.1183109 0.118431 0.1185303 0.118661 0.1188698 0.1191701 0.1195237 0.1198598 0.1201213 0.1202853
 0.1203418 0.1202862 0.1201507 0.1200135 0.119935 0.1198877 0.1197737 0.1195081 0.119066 0.1184603
 0.1177077 0.1168323 0.1158898 0.1149717 0.1141774 0.1135783 0.1132108 0.1131043 0.1132983 0.1138035
 0.1145482 0.1153847 0.1161579 0.1167496 0.1170622 0.1170123 0.1165758 0.1158251 0.1148927 0.1139034
 0.1129416 0.1120491 0.1112279 0.1104701 0.1098229 0.1094199 0.1094297 0.1099725 0.1110796 0.1126937
 0.1146764 0.1168256 0.1189267 0.1208228 0.1224542 0.1238429 0.1250472 0.1261314 0.1271522 0.1281391
 0.1290786 0.1299363 0.1307003 0.1313875 0.1320102 0.1325574 0.1330091 0.1333538 0.1335995 0.1337772
 0.1339234 0.1340492 0.1341407 0.1341978 0.1342455 0.1342929 0.1342983 0.1341898 0.1339143 0.1334693
 0.1329152 0.1323829 0.1320767 0.1322417 0.1330744 0.1346085 0.1366666 0.1389381 0.1411206 0.1430126
 0.144528 0.1456776 0.1465425 0.1472303 0.1478277 0.1483844 0.1489233 0.1494528 0.1499717 0.1504745
 0.1509576 0.1514264 0.1518967 0.1523818 0.1528718 0.1533357 0.1537546 0.154149 0.1545644 0.1550282
 0.1555229 0.1560043 0.1564505 0.1568839 0.1573342 0.1577888 0.1582038 0.1585627 0.1588978 0.1592553
 0.1596597 0.1601066 0.1605644 0.1609849 0.1613374 0.1616363 0.1619255 0.1622375 0.1625769 0.1629353
 0.1633039 0.1636731 0.1640343 0.164391 0.1647585 0.1651437 0.1655229 0.1658559 0.1661271 0.1663667
 0.1666234 0.1669205 0.1672426 0.1675598 0.1678625 0.1681736 0.168527 0.1689258 0.1693282 0.169681
 0.169967 0.1702144 0.1704634 0.1707356 0.1710321 0.1713474 0.1716735 0.1719979 0.1723101 0.1726107
 0.1729106 0.1732201 0.1735411 0.1738681 0.1741943 0.1745155 0.1748295 0.175135 0.175436 0.175749
 0.1760943 0.1764717 0.1768484 0.1771842 0.1774651 0.1777095 0.177944 0.178185 0.1784386 0.1787095
 0.1790009 0.1793097 0.1796249 0.1799339 0.1802335 0.1805302 0.1808319 0.18114 0.181451 0.1817619
 0.1820711 0.1823791 0.1826886 0.1830008 0.1833109 0.1836099 0.1838927 0.184166 0.1844448 0.1847377
 0.1850377 0.1853295 0.1856075 0.1858798 0.1861563 0.1864401 0.1867297 0.1870211 0.1873085 0.1875891
 0.187866 0.1881434 0.1884215 0.1886991 0.1889779 0.1892608 0.189547 0.1898314 0.1901095 0.1903841
 0.1906643 0.1909555 0.191254 0.1915516 0.1918428 0.1921265 0.1924042 0.1926789 0.1929524 0.1932228
 0.1934885 0.1937532 0.1940249 0.1943083 0.1945982 0.194882 0.1951511 0.1954096 0.1956687 0.1959368
 0.1962169 0.1965069 0.1967991 0.1970855 0.1973654 0.1976435 0.197923 0.1982055 0.1984947 0.1987908
 0.1990894 0.1993862 0.1996785 0.1999624 0.2002351 0.2004978 0.2007512 0.2009949 0.2012318 0.2014689
 0.2017126 0.2019687 0.2022401 0.2025227 0.2028079 0.2030907 0.2033682 0.2036359 0.203895 0.2041563
 0.2044285 0.2047101 0.2049948 0.2052769 0.2055524 0.2058222 0.206093 0.2063704 0.2066561 0.2069497
 0.2072441 0.2075274 0.2077956 0.2080561 0.2083173 0.2085853 0.2088646 0.2091534 0.2094432 0.2097298
 0.2100129 0.2102876 0.2105506 0.2108107 0.211076 0.2113449 0.2116161 0.2118912 0.2121638 0.2124261
 0.212683 0.2129438 0.2132095 0.2134804 0.2137591 0.2140402 0.2143148 0.2145826 0.2148453 0.2151029
 0.2153632 0.2156351 0.2159126 0.2161858 0.2164563 0.2167273 0.2169968 0.217266 0.2175308 0.2177617
 0.217903 0.2178294 0.217211 0.2153752 0.2113012 0.2038324 0.1921355 0.1762205 0.1571203 0.136525
 0.116162 0.09735196 0.08088414 0.06711479 0.05612795 0.04784056 0.04207533 0.03868342 0.03766669 0.03929775
 0.04425032 0.05319819 0.06531604 0.07696022 0.08309354 0.0812621 0.07394097 0.06627868 0.06182427 0.06082091
 0.06174516 0.0632988 0.06507342 0.067311 0.07042105 0.07451499 0.07938953 0.08503121 0.09185926 0.100187
 0.1095791 0.1190344 0.1278461 0.1361525 0.1446031 0.1535767 0.1627843 0.1715538 0.1793647 0.1861115
 0.1920046 0.197335 0.2023084 0.2070219 0.211521 0.2157989 0.2197025 0.2228971 0.2250299 0.2259985
 0.2260725 0.2257394 0.2254194 0.2253058 0.2254207 0.2257394 0.2262433 0.2269138 0.2277255 0.2286445
 0.2296243 0.2306191 0.2316023 0.2325612 0.2334825 0.2343536 0.235166 0.2359111 0.2365831 0.2371873
 0.2377371 0.2382458 0.2387256 0.2391852 0.2396257 0.2400444 0.2404426 0.2408221 0.2411788 0.2415083
 0.241812 0.2420961 0.2423675 0.2426328 0.2428939 0.2431486 0.2433976 0.2436489 0.2439087 0.2441753
 0.2444419 0.2447004 0.2449453 0.2451797 0.2454142 0.2456545 0.2458962 0.2461332 0.2463665 0.2466018
 0.2468444 0.2470944 0.2473437 0.2475791 0.2477975 0.2480124 0.2482413 0.2484879 0.2487387 0.2489741
 0.2491897 0.2494063 0.249651 0.2499286 0.2502218 0.250514 0.2507956 0.2510595 0.2513067 0.2515476
 0.2517843 0.2519997 0.2521822 0.2523502 0.2525439 0.2527899 0.2530755 0.2533591 0.2536111 0.2538406
 0.2540762 0.2543278 0.2545761 0.2547938 0.2549782 0.2551678 0.2554141 0.2557248 0.2560564 0.2563704
 0.256667 0.2569565 0.2572397 0.2575231 0.2578082 0.2580623 0.2582428 0.2583668 0.2585271 0.2588192
 0.2592482 0.2597155 0.2601096 0.2604058 0.2606595 0.2609306 0.2612421 0.2615643 0.261794 0.2618251
 0.2617169 0.2617222 0.2620574 0.2626846 0.2633782 0.2639529 0.264375 0.2647055 0.2650007 0.2652591
 0.2654276 0.2654622 0.265415 0.2654587 0.2657684 0.2663412 0.2669826 0.2675061 0.2678809 0.2681626
 0.2683923 0.2685919 0.2687191 0.2686036 0.2681278 0.2675452 0.2674124 0.2680508 0.269183 0.2702274
 0.2708725 0.2712359 0.2715378 0.2718344 0.2720796 0.2721676 0.2718008 0.2706622 0.2690209 0.2679001
 0.2682306 0.269914 0.2719917 0.2736044 0.2745355 0.2749987 0.2752621 0.27547 0.275542 0.27518
 0.2742023 0.2729994 0.2724445 0.2730918 0.274552 0.2759084 0.2766502 0.2769433 0.277149 0.2774163
 0.2775792 0.2770988 0.2753703 0.2726209 0.2703603 0.2703184 0.2727545 0.2761454 0.278693 0.2798686
 0.2802766 0.2803324 0.2796499 0.2777395 0.2747461 0.271387 0.2687307 0.2680535 0.2699915 0.2734827
 0.2763686 0.2775204 0.2777908 0.2786021 0.2802491 0.2818974 0.2826743 0.2823522 0.281202 0.2795081
 0.2774287 0.2754468 0.2746414 0.2759185 0.2789066 0.2820919 0.2842191 0.2852421 0.2856613 0.2850559
 0.2817915 0.2749876 0.266975 0.2626508 0.2651547 0.2725841 0.2800387 0.2844417 0.286225 0.2870234
 0.2874835 0.2870868 0.284454 0.2780987 0.2687675 0.2609083 0.2596611 0.2657726 0.2747529 0.2810703
 0.2819228 0.2775295 0.2701297 0.2633144 0.2605614 0.2631263 0.2694933 0.276872 0.2828726 0.2861584
 0.2864288 0.2842875 0.2811908 0.27909 0.2790174 0.2795509 0.2778924 0.273403 0.2686768 0.2657376
 0.2629084 0.2579072 0.2528462 0.2528303 0.2593229 0.2677078 0.2724802 0.2728229 0.2716098 0.2701657
 0.2660009 0.2564058 0.2435933 0.2347781 0.2358628 0.245315 0.2555388 0.2603047 0.2596916 0.2578564
 0.2574934 0.2571052 0.2531449 0.2446575 0.2356225 0.2316088 0.2338508 0.2381408 0.2398083 0.2374524
 0.2313002 0.2216906 0.2117373 0.208288 0.2161274 0.232101 0.2476023 0.2556692 0.2535179 0.2409681
 0.2213781 0.2036475 0.1978924 0.2063989 0.2208606 0.2300331 0.2286648 0.2184199 0.2030515 0.1858273
 0.1710048 0.1642863 0.1693924 0.1842813 0.2012856 0.2109575 0.2072711 0.1922753 0.176442 0.1711341
 0.1783019 0.1891762 0.1941083 0.1913151 0.1854825 0.1816919 0.1824813 0.1874575 0.1937231 0.1985679
 0.2016233 0.2018659 0.1947243 0.1775956 0.1571936 0.145137 0.1458754 0.1544038 0.1655728 0.1786911
 0.1914989 0.1970207 0.1914439 0.1813785 0.1782392 0.1861358 0.1983631 0.2056049 0.2051497 0.2013717
 0.1989555 0.1978945 0.1958415 0.1935316 0.1949764 0.2019067 0.210726 0.2165263 0.2182087 0.2180187
 0.2177616 0.2174427 0.2165632 0.214948 0.2126595 0.2101194 0.2079889 0.2064405 0.2050101 0.2033183
 0.2010676 0.1970082 0.1892341 0.1779123 0.1669814 0.1610772 0.1606763 0.1623843 0.1639787 0.1657267
 0.165709 0.1584847 0.1422939 0.1249649 0.1182171 0.1263512 0.1430615 0.1585926 0.1671363 0.1672855
 0.1591811 0.1449452 0.1313207 0.1275476 0.1377609 0.1569878 0.1764924 0.191319 0.2008046 0.2043953
 0.2008732 0.1915274 0.1813768 0.176319 0.1795759 0.1902516 0.203558 0.2119801 0.2089609 0.1954711
 0.1829837 0.1849963 0.2027931 0.2232223 0.2334743 0.2340764 0.2336288 0.2354515 0.2359624 0.2341118
 0.2351357 0.2433591 0.2558074 0.2651259 0.2660287 0.2573809 0.2414942 0.2246161 0.2153085 0.2176171
 0.2265191 0.2334214 0.2344932 0.2301636 0.2200345 0.204997 0.1926122 0.1925519 0.2053624 0.2211821
 0.2309481 0.2346386 0.2371714 0.2399411 0.2391685 0.2316707 0.2201814 0.2116459 0.2103362 0.2141094
 0.2180097 0.2194941 0.2184791 0.2143941 0.2065327 0.197253 0.1919956 0.1945754 0.203274 0.2125027
 0.2178575 0.2189024 0.2177787 0.2164983 0.2156093 0.2144011 0.2122772 0.2105376 0.2121268 0.2183906
 0.2267768 0.2333891 0.2374297 0.2414493 0.2473378 0.2536834 0.2574485 0.2572684 0.2547695 0.2531894
 0.2547933 0.2590584 0.2630448 0.2639035 0.2615938 0.2591803 0.2600155 0.2645434 0.2702404 0.2744835
 0.2766978 0.2778103 0.2786972 0.2794479 0.2793388 0.2774095 0.2738757 0.2709587 0.2713237 0.2754253
 0.281042 0.2855214 0.2878866 0.2887197 0.2887503 0.2880746 0.2865509 0.2844958 0.2827197 0.2819015
 0.282109 0.2829539 0.2840121 0.285009 0.285807 0.2863945 0.2868422 0.287199 0.2874755 0.2877144
 0.2879699 0.2882075 0.2883373 0.2883884 0.2885408 0.2889138 0.2893949 0.2897505 0.2898369 0.289609
 0.2889942 0.2879127 0.2864235 0.2847109 0.2828802 0.2808912 0.2788075 0.2770682 0.2763615 0.2771181
 0.2791217 0.28164 0.2839212 0.285565 0.2865313 0.2869634 0.2870556 0.2869927 0.2868996 0.2868102
 0.2866919 0.2865057 0.2862418 0.2859134 0.2855435 0.2851706 0.2848467 0.2846037 0.28442 0.284232
 0.2839742 0.2836127 0.2831572 0.28265 0.2821291 0.2815871 0.280967 0.2802033 0.2792762 0.2782383
 0.2771904 0.2762176 0.2753284 0.2744538 0.273511 0.2724623 0.2712982 0.269986 0.268497 0.2669004
 0.2653661 0.2640252 0.2628544 0.2617226 0.2605111 0.2591678 0.2576946 0.256128 0.2545162 0.252887
 0.251237 0.2495513 0.2478217 0.2460469 0.2442273 0.2423592 0.2404322 0.23844 0.2363946 0.234319
 0.2322089 0.229992 0.22753 0.224669 0.221292 0.2173385 0.2128093 0.2077853 0.2024319 0.1969621
 0.19158 0.1864463 0.1816809 0.1773829 0.1736441 0.1705426 0.1681328 0.1664492 0.165508 0.1652965
 0.1657737 0.1668887 0.1685791 0.1707435 0.1732316 0.1758659 0.1784664 0.1808818 0.1830406 0.1849867
 0.1868405 0.1887021 0.1905794 0.192403 0.1940981 0.1956255 0.1969581 0.1980593 0.1989126 0.1995504
 0.2000284 0.200385 0.20064 0.2008092 0.2009049 0.2009357 0.2009187 0.2008849 0.2008736 0.2009213
 0.2010464 0.2012422 0.201496 0.2018145 0.2022204 0.2027253 0.2033088 0.2039264 0.2045412 0.205153
 0.2057886 0.2064745 0.2072424 0.2081511 0.2092679 0.2106174 0.2121655 0.2138464 0.2155843 0.2172947
 0.2188842 0.220262 0.2213632 0.2221715 0.2227161 0.2230471 0.2232185 0.2232781 0.2232534 0.2231518
 0.2229832 0.2227676 0.2225135 0.2222136 0.2218667 0.2214853 0.2210833 0.2206751 0.2202766 0.2198918
 0.2195075 0.2191143 0.2187246 0.2183602 0.218029 0.2177154 0.2173905 0.2170345 0.2166446 0.2162243
 0.2157726 0.2152818 0.2147264 0.214062 0.2132569 0.2123208 0.2112781 0.2101256 0.208843 0.2074347
 0.205938 0.2043964 0.2028345 0.2012522 0.1996325 0.1979501 0.1961699 0.1942531 0.1921927 0.1900442
 0.1879005 0.1858399 0.1839012 0.1820894 0.1803867 0.1787694 0.1772247 0.1757491 0.1743385 0.1729904
 0.1717075 0.1704876 0.1693203 0.1682037 0.1671541 0.1661966 0.165348 0.1646053 0.1639518 0.1633806
 0.1629025 0.1625211 0.1622199 0.1619913 0.1618488 0.1617868 0.1617511 0.1616709 0.1615081 0.1612736
 0.1610088 0.1607569 0.1605381 0.1603531 0.1601984 0.1600532 0.1598498 0.159479 0.1588328 0.1578465
 0.1565174 0.1548984 0.1530702 0.1511283 0.1491918 0.1473935 0.1458369 0.1445708 0.1435975 0.1428739
 0.1423127 0.1418276 0.1413964 0.1410747 0.1409435 0.1410231 0.1412108 0.141329 0.1412817 0.1411553
 0.1411394 0.141367 0.141836 0.1424388 0.1430383 0.1435366 0.1438918 0.1440918 0.1441475 0.1441047
 0.1440093 0.1438593 0.1436246 0.1433018 0.1429189 0.1425063 0.142077 0.1416125 0.1410699 0.1404256
 0.1396943 0.1388947 0.1380347 0.1371181 0.1361144 0.1349633 0.1336967 0.1325287 0.1317519 0.1315475
 0.131897 0.1326198 0.1334997 0.1344184 0.1353197 0.1360325 0.1363112 0.1362082 0.1362785 0.1371826
 0.1390516 0.141345 0.143339 0.1446505 0.1452792 0.1453315 0.1448725 0.143949 0.1425663 0.1406771
 0.1383007 0.1355809 0.1326675 0.1296714 0.1267569 0.1241199 0.1218736 0.1200484 0.1186397 0.1176814
 0.1172946 0.1171061 0.1152765 0.1094646 0.1004237 0.09360974 0.09460559 0.1028494 0.1120129 0.1166906
 0.1167205 0.1149855 0.1134935 0.1125573 0.112063 0.1121266 0.1128713 0.1141742 0.1156538 0.1168868
 0.1176827 0.1180709 0.1180174 0.1171997 0.114949 0.1104659 0.1034648 0.09476604 0.08602317 0.07874934
 0.07364225 0.07060851 0.06907922 0.06833863 0.06788006 0.06763753 0.06788347 0.06889667 0.07072684 0.07323573
 0.07624736 0.07953034 0.08269267 0.08532472 0.08730949 0.08883025 0.0900365 0.09085924 0.09117191 0.09097444
 0.09038184 0.08954056 0.08858989 0.08762886 0.08666002 0.08559147 0.08438033 0.08319966 0.08236119 0.08201444
 0.082018 0.08214457 0.08228435 0.0824148 0.08251822 0.08258746 0.08263662 0.08270708 0.08289314 0.08328231
 0.08382684 0.08435379 0.08472468 0.08492985 0.08504122 0.08509438 0.08498611 0.0845609 0.08389289 0.08331974
 0.08299515 0.08258654 0.0817031 0.08050271 0.07958696 0.07934723 0.07963143 0.08000885 0.08016514 0.08004421
 0.07980292 0.07972653 0.08004899 0.08068143</values></Ydata></ScSm><ScRf><Ydata ylabel="Single channel"><values byteorder="INTEL" format="FLOAT32" numvalues="1820"> 0.06064063 0.06080338 0.06090234 0.060931 0.06091643 0.06091501 0.06098168 0.06113102 0.06132717 0.06150951
 0.06163343 0.06169466 0.06171153 0.06169024 0.06163331 0.06158277 0.06161399 0.06176142 0.06196827 0.06212565
 0.0621618 0.06210576 0.06206935 0.06213853 0.06225793 0.06224562 0.06196211 0.06147113 0.06100028 0.06072881
 0.06067233 0.06082018 0.06125379 0.06193066 0.06243499 0.0622738 0.06149705 0.06073441 0.06049567 0.06067976
 0.0608644 0.06079594 0.06047133 0.06004314 0.05986081 0.06037597 0.06169806 0.06322853 0.06387968 0.06276543
 0.05983353 0.05605738 0.05307522 0.05231697 0.05399916 0.05683138 0.05898255 0.05954453 0.05897038 0.0581447
 0.05742732 0.05677032 0.05634166 0.05656115 0.05752246 0.05860161 0.05878121 0.05752192 0.05540055 0.0536986
 0.05323263 0.05384313 0.05507916 0.05669262 0.05793835 0.0571767 0.05348558 0.04870342 0.04661211 0.04934192
 0.0550965 0.05990815 0.06116701 0.05908591 0.05555137 0.05255714 0.05144841 0.05256135 0.05516957 0.0580888
 0.06039063 0.06144353 0.06075951 0.05841924 0.05548076 0.05346467 0.05342332 0.05553133 0.05904596 0.06236992
 0.0637776 0.06269088 0.06006496 0.05738047 0.0556684 0.05550908 0.05717595 0.06034883 0.06409819 0.06742378
 0.06966405 0.07056098 0.07031139 0.06944381 0.06841677 0.06754072 0.0672598 0.0678807 0.06884095 0.06892067
 0.0675744 0.06566499 0.06457704 0.06478548 0.06547527 0.06552778 0.06465206 0.06320717 0.06109348 0.05772214
 0.05336332 0.04951878 0.04742311 0.04709923 0.04824495 0.05071386 0.05346603 0.05450761 0.05306986 0.05100051
 0.05093078 0.05346971 0.05689086 0.05924286 0.06015722 0.06071196 0.06204071 0.06417235 0.06589064 0.06565383
 0.06312317 0.06002061 0.05891245 0.06068981 0.06371121 0.06582333 0.0666339 0.06726525 0.06839029 0.06918295
 0.0681784 0.06501362 0.06135299 0.05985569 0.06185951 0.06604383 0.06938919 0.06940617 0.06580797 0.06058094
 0.05644061 0.05495047 0.05610104 0.05934731 0.06421207 0.06973778 0.07423386 0.07621853 0.07549285 0.07307157
 0.07002194 0.0664708 0.06215011 0.05803964 0.05657824 0.05936253 0.06510518 0.07070645 0.0740201 0.074925
 0.07412075 0.07180289 0.06786532 0.06319393 0.06009448 0.06050058 0.06364185 0.06647852 0.06688745 0.06560344
 0.06465195 0.06482521 0.06538504 0.06562221 0.06586923 0.06693412 0.0689449 0.07104421 0.07221924 0.0722198
 0.07160226 0.07108015 0.07087518 0.07055463 0.06964634 0.06859289 0.06869639 0.07069077 0.07372697 0.076242
 0.07752317 0.07796477 0.07802232 0.07741159 0.0755198 0.07256129 0.07005221 0.06968899 0.07170688 0.07472748
 0.07718769 0.07846602 0.07874382 0.07843891 0.07791974 0.07738527 0.07692711 0.07678506 0.07728802 0.07837971
 0.07950966 0.08018321 0.08036495 0.08023126 0.07982356 0.07912782 0.07832425 0.07777632 0.07776676 0.07828767
 0.07909751 0.07993273 0.08059497 0.08090466 0.08076569 0.08031237 0.07983399 0.07951048 0.07934518 0.07934746
 0.0795989 0.08008991 0.08063581 0.08103226 0.08121943 0.08125448 0.08119433 0.08105586 0.08085829 0.08066979
 0.08060384 0.08073886 0.08102228 0.08130491 0.08151145 0.08171368 0.08197413 0.08219475 0.08221935 0.08204553
 0.08184026 0.0817592 0.08181904 0.08193888 0.08203216 0.08202536 0.08184396 0.08147483 0.08106256 0.08086134
 0.08103335 0.08153073 0.08218348 0.08282246 0.08330785 0.08355772 0.08360884 0.08357903 0.08353296 0.08343612
 0.08325423 0.08305217 0.0829779 0.08315129 0.08355556 0.08403997 0.08443986 0.08467989 0.08477646 0.08480815
 0.08488624 0.08506624 0.08526465 0.08533929 0.08527075 0.08519533 0.08523908 0.0853743 0.08546445 0.08542434
 0.08531579 0.08528373 0.08540654 0.08562845 0.08584152 0.08600549 0.08616865 0.08638047 0.08659639 0.08668984
 0.08658596 0.08636782 0.08619883 0.08614963 0.08616768 0.08621176 0.08632373 0.08653257 0.08676104 0.08689183
 0.0869025 0.08688481 0.08692659 0.08700737 0.08702829 0.08692741 0.08674273 0.08657113 0.08648933 0.08651158
 0.08659408 0.08666635 0.08667237 0.08660125 0.08648567 0.08637004 0.08628108 0.08623478 0.08626519 0.08641402
 0.08666278 0.08689016 0.0869424 0.08677083 0.08648847 0.0862731 0.08621064 0.08623346 0.08620413 0.08604753
 0.0858009 0.08555473 0.08536775 0.0852388 0.08513649 0.08504193 0.08497375 0.08498128 0.08509345 0.08525518
 0.08533554 0.08523545 0.08498584 0.08471622 0.08453624 0.08446793 0.08446742 0.0844764 0.08446845 0.08447299
 0.08453307 0.08462444 0.08465768 0.08458451 0.08446161 0.08439106 0.0844377 0.08460712 0.08484189 0.08502664
 0.08506222 0.08496486 0.08485293 0.08482251 0.0848715 0.08494802 0.08502398 0.08510211 0.08518694 0.08528104
 0.08539999 0.08556991 0.08580345 0.08607822 0.08633796 0.0865238 0.08662301 0.08669379 0.08682859 0.08707848
 0.08741009 0.08773743 0.08799541 0.08818619 0.08835845 0.08854678 0.08874314 0.0889346 0.08914644 0.08941843
 0.08974741 0.09008527 0.09039328 0.09067355 0.09094786 0.09122955 0.0915222 0.09183507 0.0921915 0.09260876
 0.09305573 0.09344602 0.09370443 0.09384398 0.09396246 0.09416588 0.09449475 0.09489315 0.09523454 0.09541839
 0.09547547 0.09554946 0.09574385 0.0960184 0.09627302 0.09649903 0.09678871 0.09720076 0.09766915 0.09806399
 0.09831724 0.09847271 0.0986232 0.09881109 0.09899579 0.09911914 0.09918775 0.09926587 0.09939446 0.09956124
 0.09976213 0.1000398 0.1004214 0.100853 0.1012396 0.1015317 0.1017412 0.101897 0.1020184 0.102112
 0.1021698 0.1021878 0.1022012 0.102265 0.102381 0.1024846 0.1025287 0.1025453 0.1026007 0.1027264
 0.102922 0.1031861 0.1035016 0.1038146 0.1040821 0.1043374 0.1046572 0.1050431 0.1053839 0.1055702
 0.1056143 0.1056135 0.1056284 0.1056574 0.1057141 0.1058524 0.1061011 0.1064248 0.1067703 0.1071188
 0.1074777 0.1078408 0.1081694 0.1084043 0.1085038 0.1084827 0.1084182 0.1084103 0.1085299 0.1087853
 0.1091216 0.1094558 0.1097269 0.1099121 0.1100003 0.1099866 0.1099145 0.1098886 0.1099928 0.1101934
 0.1103534 0.1103484 0.1101449 0.1097739 0.1092696 0.1086584 0.1079868 0.1073315 0.1067734 0.1063657
 0.1061321 0.1060962 0.1062965 0.1067482 0.1073894 0.1080937 0.1087439 0.1092647 0.1095825 0.1096063
 0.109292 0.1087026 0.1079736 0.1072316 0.1065523 0.105955 0.1054043 0.1048535 0.1043329 0.1039916
 0.1040286 0.1045751 0.1056262 0.1070431 0.1085996 0.1100632 0.1112861 0.1122521 0.1130421 0.1137482
 0.1144184 0.11507 0.1157223 0.1163819 0.1170121 0.1175591 0.1180154 0.1184254 0.1188252 0.1192074
 0.119544 0.1198191 0.1200435 0.1202515 0.1204688 0.1206674 0.1207781 0.1207685 0.1206823 0.120583
 0.1204799 0.1203266 0.1200706 0.1196952 0.1192443 0.1188368 0.1186506 0.118854 0.1195137 0.1205518
 0.1218021 0.1231143 0.1243958 0.1255645 0.12652 0.1271979 0.127632 0.127928 0.1281847 0.1284523
 0.1287438 0.1290537 0.129368 0.1296709 0.1299552 0.1302311 0.1305251 0.1308564 0.1312055 0.1315213
 0.1317731 0.1319939 0.1322574 0.1326062 0.1330064 0.1333818 0.1336969 0.1339899 0.1343091 0.1346378
 0.1349132 0.1351096 0.1352713 0.1354669 0.1357384 0.1360862 0.1364662 0.1368043 0.1370475 0.1372114
 0.1373612 0.1375461 0.1377701 0.138016 0.1382728 0.1385337 0.1387915 0.1390502 0.139331 0.139645
 0.1399602 0.1402165 0.1403865 0.1405098 0.1406545 0.1408514 0.1410754 0.1412851 0.1414715 0.1416701
 0.1419264 0.1422441 0.1425696 0.1428356 0.1430182 0.1431478 0.1432719 0.1434202 0.1435994 0.143804
 0.1440232 0.144243 0.1444533 0.1446554 0.1448593 0.145072 0.1452896 0.1455038 0.1457116 0.1459167
 0.1461235 0.1463322 0.1465444 0.1467737 0.1470403 0.147342 0.1476388 0.1478798 0.1480483 0.1481708
 0.1482872 0.1484214 0.1485776 0.1487504 0.1489354 0.1491322 0.1493412 0.149558 0.1497754 0.1499882
 0.1501941 0.1503931 0.1505879 0.1507838 0.1509876 0.1512055 0.1514376 0.1516717 0.1518904 0.1520886
 0.1522801 0.1524816 0.1526945 0.1529036 0.1530933 0.1532666 0.1534441 0.15364 0.1538458 0.1540429
 0.1542274 0.1544125 0.154608 0.1548106 0.155012 0.1552087 0.1554026 0.1555954 0.1557866 0.1559763
 0.1561672 0.1563602 0.156553 0.1567453 0.1569417 0.1571463 0.1573595 0.157578 0.1577966 0.1580071
 0.1582032 0.1583872 0.1585684 0.1587547 0.1589494 0.1591505 0.1593539 0.1595566 0.1597571 0.1599538
 0.1601461 0.1603378 0.1605336 0.1607354 0.1609431 0.1611552 0.1613653 0.1615672 0.1617651 0.1619715
 0.1621922 0.1624213 0.1626506 0.1628769 0.1631018 0.1633266 0.16355 0.1637681 0.1639768 0.1641736
 0.164358 0.1645349 0.164713 0.1648965 0.1650812 0.1652613 0.1654356 0.165606 0.1657787 0.1659627
 0.1661601 0.1663613 0.1665579 0.1667516 0.1669453 0.167137 0.167328 0.1675253 0.1677321 0.1679441
 0.1681548 0.1683619 0.1685669 0.1687712 0.1689721 0.1691677 0.1693653 0.1695747 0.1697945 0.1700171
 0.1702389 0.1704575 0.1706669 0.170867 0.1710665 0.171271 0.1714793 0.1716901 0.1719023 0.1721133
 0.172323 0.1725335 0.1727426 0.172949 0.173158 0.1733732 0.1735894 0.1738016 0.1740102 0.1742155
 0.1744183 0.1746231 0.1748331 0.1750503 0.1752795 0.1755181 0.1757481 0.1759573 0.1761573 0.1763643
 0.1765802 0.1768012 0.1770212 0.1772195 0.1773499 0.1773003 0.1767937 0.1752855 0.171951 0.1658456
 0.1562779 0.1432473 0.1276012 0.1107354 0.09407578 0.07870442 0.06525806 0.05401903 0.04505463 0.03830069
 0.03361359 0.03086459 0.03004424 0.03137241 0.03540899 0.04271514 0.05261666 0.06213017 0.06713757 0.0656372
 0.05965525 0.05339925 0.04976606 0.04895013 0.04970766 0.05098606 0.05245674 0.05430877 0.05685917 0.06019071
 0.06414911 0.06874469 0.07433078 0.08115466 0.08884355 0.09657046 0.1037632 0.1105471 0.1174606 0.12481
 0.1323519 0.1395377 0.1459497 0.1515034 0.1563602 0.1607462 0.1648291 0.1686972 0.1723941 0.1759129
 0.179124 0.1817512 0.1835038 0.1842925 0.1843348 0.1840385 0.183763 0.1836724 0.1837742 0.1840342
 0.184432 0.1849562 0.185595 0.1863303 0.1871303 0.1879551 0.1887732 0.1895643 0.1903149 0.1910197
 0.1916799 0.192293 0.192854 0.1933651 0.1938345 0.1942705 0.1946795 0.1950649 0.1954254 0.1957615
 0.1960803 0.1963858 0.1966757 0.1969494 0.1972105 0.1974572 0.1976839 0.1978918 0.1980897 0.1982856
 0.1984856 0.1986944 0.198912 0.1991349 0.1993595 0.1995791 0.1997842 0.199975 0.2001643 0.200362
 0.2005616 0.2007495 0.2009206 0.2010828 0.2012513 0.2014387 0.2016443 0.201854 0.202053 0.2022383
 0.2024207 0.2026152 0.202825 0.2030373 0.2032424 0.2034494 0.2036692 0.2038936 0.2041084 0.2043172
 0.2045317 0.2047494 0.2049618 0.2051701 0.2053752 0.2055639 0.205725 0.2058705 0.2060308 0.206226
 0.2064461 0.2066618 0.2068579 0.2070483 0.2072536 0.2074734 0.2076886 0.2078818 0.2080528 0.2082258
 0.2084329 0.208679 0.2089355 0.2091807 0.2094209 0.2096637 0.2099008 0.2101292 0.2103541 0.2105626
 0.2107279 0.2108552 0.2110028 0.2112395 0.211577 0.2119504 0.2122766 0.2125296 0.2127458 0.2129742
 0.2132422 0.2135294 0.2137432 0.2137828 0.2136898 0.2136756 0.2139287 0.21443 0.2150041 0.2155
 0.2158775 0.2161698 0.2164196 0.2166364 0.2167845 0.2168236 0.2167899 0.2168294 0.2170978 0.217597
 0.2181561 0.2186046 0.2189115 0.2191339 0.21932 0.2194916 0.2196091 0.2195268 0.2191451 0.2186729
 0.2185701 0.2191041 0.2200509 0.2209374 0.2215094 0.221857 0.2221492 0.2224208 0.2226279 0.2226872
 0.2223686 0.2214268 0.2200901 0.2191966 0.2195029 0.2209195 0.2226529 0.2239973 0.2247799 0.2251828
 0.2254338 0.2256551 0.2257708 0.2255184 0.2247427 0.2237768 0.2233546 0.2239334 0.2251801 0.2263263
 0.226953 0.2272119 0.2274124 0.2276763 0.2278582 0.2275048 0.2261092 0.2238592 0.2220161 0.2220251
 0.2240984 0.2269588 0.229106 0.230106 0.2304711 0.2305548 0.2300383 0.2285116 0.2260919 0.2233708
 0.2212294 0.2207223 0.2223798 0.2253268 0.2277765 0.2287934 0.2290833 0.2298195 0.2312394 0.2326527
 0.2333455 0.2331354 0.2322445 0.2309031 0.2292423 0.2276661 0.2270706 0.2282051 0.2307599 0.2334788
 0.2353188 0.2362414 0.2366643 0.2362341 0.2335788 0.2279589 0.2213285 0.2177862 0.2199533 0.2262356
 0.2325423 0.2363091 0.2378966 0.2386625 0.2391353 0.238875 0.236731 0.2314692 0.2237222 0.2172206
 0.2162752 0.2215157 0.2291772 0.2346131 0.2354581 0.2318823 0.2257644 0.22013 0.2179084 0.2201583
 0.2256098 0.2319199 0.2370803 0.2399708 0.2403384 0.2386749 0.2361872 0.2345194 0.2345611 0.2351282
 0.2338619 0.230214 0.2263585 0.2239914 0.2216994 0.2175745 0.2134275 0.2135932 0.2193062 0.2266318
 0.2308792 0.23135 0.2304946 0.229444 0.2260731 0.2180615 0.2072941 0.1999483 0.2010946 0.2094299
 0.2184401 0.2227843 0.222542 0.2212885 0.2213279 0.2213429 0.2182434 0.2111967 0.2036745 0.2005374
 0.2028586 0.2069619 0.2087733 0.2070702 0.2020422 0.1939776 0.1856129 0.1829832 0.1903306 0.2049085
 0.2191322 0.2268243 0.2254664 0.2148339 0.197892 0.1826435 0.1782386 0.1867678 0.2007172 0.209884
 0.2094763 0.2009575 0.187687 0.1726358 0.1597965 0.1546042 0.1606792 0.1761658 0.1937441 0.204244
 0.2017104 0.1880682 0.1735892 0.1694985 0.1777221 0.1895291 0.1953031 0.1932684 0.188124 0.1850161
 0.1865771 0.1924313 0.1995838 0.2052443 0.2090538 0.2099048 0.2029354 0.1853717 0.1642576 0.1518117
 0.1527364 0.1618088 0.1736588 0.1875935 0.20123 0.207178 0.201375 0.1907807 0.1874537 0.19575
 0.2085942 0.2161392 0.2155145 0.2113575 0.2086546 0.2074319 0.2052315 0.2028528 0.2045588 0.2121944
 0.2219626 0.2286623 0.2310957 0.2316051 0.2321024 0.2326135 0.2326147 0.2319095 0.2305589 0.2290101
 0.2279595 0.2275702 0.227325 0.2268213 0.2257418 0.2226334 0.2152194 0.2035905 0.1922407 0.1865023
 0.1868871 0.1894509 0.1916639 0.1938842 0.1938751 0.1852679 0.1659706 0.1450674 0.1362104 0.1444285
 0.1623778 0.1787116 0.1867786 0.1852004 0.1744716 0.1571497 0.1405636 0.1345295 0.1433467 0.1616688
 0.1802137 0.1937615 0.2017546 0.2038675 0.1990195 0.1885283 0.1773787 0.1713722 0.1735893 0.1830343
 0.1949793 0.20219 0.1984591 0.1847698 0.1720199 0.1729895 0.1889372 0.2075085 0.2166222 0.2167086
 0.2158182 0.2171067 0.2172622 0.2152894 0.2160428 0.2235667 0.2351502 0.2440066 0.2452385 0.2377723
 0.2237287 0.2089172 0.2013222 0.2046624 0.2140945 0.2214265 0.223016 0.2192798 0.2098659 0.1956984
 0.1841079 0.1844213 0.197164 0.2128375 0.2227109 0.2267719 0.2297765 0.2330581 0.2329147 0.22623
 0.2156918 0.2081408 0.2078105 0.2126243 0.2177103 0.2205349 0.2209414 0.2182474 0.2116685 0.2036152
 0.1997231 0.203958 0.2144874 0.2253592 0.2317974 0.2331837 0.2316783 0.2294147 0.2270627 0.2239857
 0.2196568 0.2155075 0.2146574 0.2185826 0.2247769 0.229338 0.2314422 0.2336112 0.237741 0.2424865
 0.2448993 0.2436423 0.2402557 0.2378123 0.2384546 0.2416989 0.244794 0.2450657 0.2424596 0.2398328
 0.2403236 0.2443574 0.2495854 0.2535603 0.2557338 0.2569479 0.2579923 0.2589091 0.2589591 0.2571825
 0.2537537 0.250764 0.2507361 0.2541246 0.2588874 0.2626015 0.2644215 0.2649345 0.2648202 0.2641433
 0.2627521 0.2609207 0.2593682 0.2586906 0.2589333 0.2597314 0.260692 0.2615669 0.2622349 0.2626865
 0.2629896 0.2632 0.2633332 0.2634202 0.2635004 0.263543 0.2634754 0.2633338 0.2632934 0.2634776
 0.2637982 0.2640513 0.264105 0.2639088 0.2633837 0.262448 0.2611582 0.2596953 0.2581626 0.2565134
 0.2547907 0.2533918 0.2529454 0.2538314 0.2558286 0.2582543 0.2604316 0.2620209 0.2630089 0.2635302
 0.2637485 0.2638149 0.2638294 0.2638087 0.2637134 0.2635119 0.2632147 0.2628563 0.2624675 0.2620746
 0.2617099 0.2613986 0.261133 0.2608682 0.2605487 0.2601389 0.2596391 0.2590852 0.2585207 0.2579503
 0.2573238 0.256576 0.2556859 0.2546988 0.2537062 0.2527989 0.2520117 0.2512975 0.250572 0.2497788
 0.2488941 0.2478875 0.2467446 0.2455419 0.2444421 0.2435673 0.2428965 0.2423054 0.2416742 0.2409375
 0.2400753 0.2391051 0.2380706 0.2370068 0.2359169 0.2347873 0.2336039 0.2323473 0.2309975 0.2295543
 0.2280366 0.2264603 0.2248376 0.2231866 0.2215085 0.2197493 0.2177957 0.2155056 0.212741 0.2093991
 0.205454 0.2009847 0.1961622 0.1911984 0.1862924 0.1816047 0.1772649 0.1733851 0.1700538 0.1673279
 0.1652421 0.1638237 0.1630953 0.1630719 0.1637553 0.1651208 0.1670989 0.1695724 0.1723899 0.1753862
 0.1783915 0.1812455 0.1838389 0.1861703 0.1883367 0.1904293 0.1924395 0.1942864 0.1959153 0.1973298
 0.1985473 0.1995689 0.200401 0.2010759 0.2016401 0.2021318 0.2025698 0.2029575 0.2032913 0.2035663
 0.2037847 0.2039644 0.2041348 0.2043193 0.2045246 0.2047492 0.2049963 0.2052816 0.205631 0.2060615
 0.2065581 0.2070836 0.2076197 0.208184 0.2088017 0.209483 0.2102373 0.2110897 0.2120718 0.2132
 0.2144648 0.2158276 0.2172198 0.2185518 0.2197367 0.2207134 0.2214536 0.221955 0.2222369 0.2223378
 0.222299 0.2221431 0.2218747 0.2215004 0.2210375 0.2205073 0.2199269 0.2193054 0.2186432 0.2179388
 0.217202 0.2164569 0.2157323 0.2150478 0.214403 0.2137792 0.2131573 0.212535 0.2119219 0.2113231
 0.2107358 0.2101576 0.2095874 0.2090222 0.2084553 0.2078716 0.2072403 0.2065239 0.2057005 0.2047753
 0.2037631 0.2026668 0.2014801 0.2002034 0.1988469 0.197418 0.1959152 0.1943372 0.1926892 0.190972
 0.1891695 0.1872599 0.1852528 0.1832123 0.1812296 0.1793743 0.1776691 0.1760968 0.1746193 0.1732056
 0.1718532 0.1705741 0.1693597 0.1681828 0.1670367 0.1659475 0.1649408 0.1640162 0.163159 0.1623624
 0.1616334 0.1609835 0.160422 0.1599544 0.1595752 0.1592633 0.1590021 0.1588116 0.1587328 0.1587616
 0.1588233 0.158829 0.1587415 0.1585834 0.1584068 0.1582609 0.1581703 0.1581333 0.1581325 0.158127
 0.1580374 0.1577615 0.1572093 0.1563251 0.1551003 0.1535768 0.1518301 0.1499587 0.1480924 0.146375
 0.1449102 0.1437407 0.1428691 0.1422545 0.1417996 0.1414044 0.1410511 0.1408153 0.1407892 0.140981
 0.1412682 0.1414727 0.1415244 0.1415347 0.1416915 0.142104 0.1427491 0.1435105 0.1442559 0.1449046
 0.1454304 0.145817 0.1460542 0.1461668 0.1461944 0.1461534 0.1460496 0.1458939 0.1456788 0.1453829
 0.1450059 0.1445594 0.144043 0.143464 0.1428393 0.1421582 0.1413915 0.140527 0.1395394 0.1383873
 0.1371263 0.1359791 0.1352243 0.135037 0.1354187 0.136214 0.1372162 0.1383038 0.1393977 0.1402833
 0.1406874 0.140679 0.1408488 0.1418791 0.1439034 0.146361 0.1484917 0.1498941 0.1505854 0.1506928
 0.1502821 0.1493906 0.1480105 0.1460764 0.1436049 0.1407602 0.1377184 0.1346179 0.131649 0.1290036
 0.1267608 0.1249342 0.1235285 0.122573 0.1221754 0.1219608 0.1200521 0.1140345 0.1046979 0.09771657
 0.09887121 0.1075449 0.117168 0.1221602 0.1223559 0.120701 0.1192255 0.1182378 0.1176536 0.1176437
 0.1183477 0.1196104 0.1210277 0.1221882 0.1229176 0.1232503 0.1231547 0.1222851 0.1199059 0.1151519
 0.1077353 0.09854513 0.08933948 0.08172063 0.07641192 0.07327959 0.07169565 0.07090233 0.07037531 0.070066
 0.07029256 0.07136269 0.07331453 0.07598487 0.07917581 0.08262992 0.08594332 0.08872727 0.09089027 0.09261721
 0.0940513 0.09512252 0.09569492 0.09575462 0.09541318 0.09481122 0.09406316 0.0932388 0.09233028 0.09126431
 0.09004194 0.08887036 0.08804457 0.08766589 0.08757565 0.08757257 0.08757379 0.08756109 0.08750903 0.08740645
 0.08728334 0.08721551 0.08731647 0.08765753 0.08816317 0.0886398 0.08892874 0.08901422 0.08899672 0.08894879
 0.08877102 0.08828298 0.08753353 0.08685078 0.08640267 0.08588093 0.08489205 0.08356729 0.08250983 0.0821503
 0.08236126 0.08269794 0.08282027 0.08265506 0.08235879 0.08224285 0.08257201 0.08325123 0.08379661 0.08378445
</values></Ydata></ScRf><Data_Parameters_AB><parameter name="DPF">1</parameter><parameter name="NPT">3497</parameter><parameter name="FXV">3996</parameter><parameter name="LXV">500</parameter><parameter name="CSF">1</parameter><parameter name="MXY">0.0682113915681839</parameter><parameter name="MNY">-0.098206602036953</parameter><parameter name="DAT">31/05/2022</parameter><parameter name="TIM">11:25:35.526 (GMT+2)</parameter><parameter name="DXU">WN</parameter></Data_Parameters_AB><AB__Qtest><MainReport name="Quality Test Report"><Header><Line><Legend>Test result ok/not ok [1/0]: </Legend><Value>0</Value></Line><Line><Legend>Method file: </Legend><Value>C:\Users\Public\Documents\Bruker\OPUS_8.2.28\QT\IRBT_v3_default.QT</Value></Line></Header><Matrix><Line><Legend></Legend><Legend>min</Legend><Legend>max</Legend><Legend>measured</Legend></Line><Line><Value>Absorption (X-Range 1):</Value><Value>0.400000</Value><Value>2.000000</Value><Value>0.120227</Value></Line><Line><Value>Noise (X-Range 4):</Value><Value></Value><Value>0.000300</Value><Value>0.000062</Value></Line><Line><Value>Signal/Noise (X-Range 2):</Value><Value>200.000000</Value><Value></Value><Value>30.064422</Value></Line><Line><Value>Signal/Noise (X-Range 3):</Value><Value>40.000000</Value><Value></Value><Value>15.104045</Value></Line><Line><Value>Water vapour (X-Range 5):</Value><Value></Value><Value>0.000300</Value><Value>0.000104</Value></Line><Line><Value>Signal/Water (X-Range 2):</Value><Value>100.000000</Value><Value></Value><Value>17.824305</Value></Line><Line><Value>Signal/Water (X-Range 3):</Value><Value>20.000000</Value><Value></Value><Value>8.954741</Value></Line><Line><Value>Fringes (X-Range 6):</Value><Value></Value><Value>0.000100</Value><Value>0.000076</Value></Line></Matrix></MainReport></AB__Qtest><Data_Parameters_ScSm><parameter name="DPF">1</parameter><parameter name="NPT">1814</parameter><parameter name="FXV">3996.33169228125</parameter><parameter name="LXV">499.541461535156</parameter><parameter name="CSF">1</parameter><parameter name="MXY">0.289836913347244</parameter><parameter name="MNY">0.0376666858792305</parameter><parameter name="DAT">31/05/2022</parameter><parameter name="TIM">11:25:35.526 (GMT+2)</parameter><parameter name="DXU">WN</parameter></Data_Parameters_ScSm><Data_Parameters_ScRf><parameter name="DPF">1</parameter><parameter name="NPT">1820</parameter><parameter name="FXV">4004.04661832813</parameter><parameter name="LXV">495.683998511719</parameter><parameter name="CSF">1</parameter><parameter name="MXY">0.264934539794922</parameter><parameter name="MNY">0.0300442446023226</parameter><parameter name="DAT">31/05/2022</parameter><parameter name="TIM">11:25:09.674 (GMT+2)</parameter><parameter name="DXU">WN</parameter></Data_Parameters_ScRf><Optic_Parameters_Rf><parameter name="APR">0</parameter><parameter name="APT">Open</parameter><parameter name="BMS">KBr</parameter><parameter name="DTC">RT-DLaTGS_IR-Biotyper [Microplate reader]</parameter><parameter name="HPF">0</parameter><parameter name="LPF">10.0</parameter><parameter name="LPV">4000</parameter><parameter name="PGR">0</parameter><parameter name="RCH">Module port</parameter><parameter name="RDX">0</parameter><parameter name="SRC">MIR</parameter><parameter name="VEL">10.0</parameter><parameter name="SON">Off</parameter></Optic_Parameters_Rf><Acquisition_Parameters_Rf><parameter name="ADT">1</parameter><parameter name="AQM">DD</parameter><parameter name="CFE">0</parameter><parameter name="COR">0</parameter><parameter name="DEL">0</parameter><parameter name="DLY">0</parameter><parameter name="HFW">8000</parameter><parameter name="LFW">0</parameter><parameter name="NSR">32</parameter><parameter name="PLF">AB</parameter><parameter name="RES">6</parameter><parameter name="RGN">-1</parameter><parameter name="STR">0</parameter><parameter name="TCL">MakeCompatibleScalar (0, {WSV=1.000000, ARV=0});</parameter><parameter name="TDL">37</parameter><parameter name="RPO">0</parameter></Acquisition_Parameters_Rf><FT_-_Parameters_Rf><parameter name="APF">B3</parameter><parameter name="HFQ">500</parameter><parameter name="LFQ">4000</parameter><parameter name="NLI">0</parameter><parameter name="PHR">24</parameter><parameter name="PHZ">ML</parameter><parameter name="SPZ">NO</parameter><parameter name="ZFF">1</parameter></FT_-_Parameters_Rf><Optic_Parameters_><parameter name="APR">0</parameter><parameter name="APT">Open</parameter><parameter name="BMS">KBr</parameter><parameter name="CHN">Module port</parameter><parameter name="DTC">RT-DLaTGS_IR-Biotyper [Microplate reader]</parameter><parameter name="HPF">0</parameter><parameter name="LPF">10.0</parameter><parameter name="LPV">4000</parameter><parameter name="PGN">0</parameter><parameter name="RDX">0</parameter><parameter name="SRC">MIR</parameter><parameter name="VEL">10.0</parameter><parameter name="SON">Off</parameter></Optic_Parameters_><FT_-_Parameters_><parameter name="APF">B3</parameter><parameter name="HFQ">500</parameter><parameter name="LFQ">4000</parameter><parameter name="NLI">0</parameter><parameter name="PHR">24</parameter><parameter name="PHZ">ML</parameter><parameter name="SPZ">NO</parameter><parameter name="ZFF">1</parameter></FT_-_Parameters_><Acquisition_Parameters_><parameter name="ADT">1</parameter><parameter name="AQM">DD</parameter><parameter name="CFE">0</parameter><parameter name="COR">0</parameter><parameter name="DEL">0</parameter><parameter name="DLY">0</parameter><parameter name="HFW">8000</parameter><parameter name="LFW">0</parameter><parameter name="NSS">32</parameter><parameter name="PLF">AB</parameter><parameter name="RES">6</parameter><parameter name="SOT">0</parameter><parameter name="TCL">MakeCompatibleScalar (0, {WSV=1.000000, ARV=0});</parameter><parameter name="TDL">37</parameter><parameter name="SPO">0</parameter><parameter name="SGN">-1</parameter></Acquisition_Parameters_><Instrument_Parameters_Rf><parameter name="HFL">15800.168544</parameter><parameter name="LFL">0</parameter><parameter name="LWN">15800.168544</parameter><parameter name="ABP">32197</parameter><parameter name="SSP">1</parameter><parameter name="ARG">2</parameter><parameter name="ASG">2</parameter><parameter name="ASS">32</parameter><parameter name="GFW">16</parameter><parameter name="GBW">16</parameter><parameter name="BFW">0</parameter><parameter name="BBW">0</parameter><parameter name="PKA">7263</parameter><parameter name="PKL">4996</parameter><parameter name="PRA">7447</parameter><parameter name="PRL">5001</parameter><parameter name="P2A">1</parameter><parameter name="P2L">1</parameter><parameter name="P2R">1</parameter><parameter name="P2K">1</parameter><parameter name="DAQ">0</parameter><parameter name="AG2">1</parameter><parameter name="SSM">1</parameter><parameter name="RSN">25451</parameter><parameter name="CRR">0</parameter><parameter name="SRT">1653996309.674</parameter><parameter name="DUR">19.6379852294922</parameter><parameter name="TSC">28.9</parameter><parameter name="MVD">6.4121470451355</parameter><parameter name="AN1">0.225779214884105</parameter><parameter name="AN2">0</parameter><parameter name="VSN">2.485 Apr  4 2017</parameter><parameter name="SRN">0085</parameter><parameter name="CAM">0</parameter><parameter name="INS">IR-Biotyper</parameter><parameter name="FOC">69</parameter><parameter name="RDY">1</parameter><parameter name="ARS">32</parameter></Instrument_Parameters_Rf><Sample_Parameters_><parameter name="BLD"></parameter><parameter name="CNM">Admin</parameter><parameter name="CPY"></parameter><parameter name="DPM"></parameter><parameter name="EXP">IRBT_v3_32Scans.XPM</parameter><parameter name="LCT"></parameter><parameter name="SFM">Microplate, HTS-XT</parameter><parameter name="SNM">220531-1021(v.3)_GFG29M (D_15)_C7_61735273-4c5c-4ef6-8817-89145a60c28d.0</parameter><parameter name="XPP">C:\Users\Public\Documents\Bruker\OPUS_8.2.28\XPM</parameter><parameter name="IST">OK</parameter><parameter name="CPG">1252</parameter><parameter name="UID">a47c95da-e224-4ed1-a434-abb40e670c61</parameter></Sample_Parameters_><Instrument_Parameters_><parameter name="HFL">15800.168544</parameter><parameter name="LFL">0</parameter><parameter name="LWN">15800.168544</parameter><parameter name="ABP">32197</parameter><parameter name="SSP">1</parameter><parameter name="ASG">2</parameter><parameter name="ARG">2</parameter><parameter name="ASS">32</parameter><parameter name="GFW">16</parameter><parameter name="GBW">16</parameter><parameter name="BFW">0</parameter><parameter name="BBW">0</parameter><parameter name="PKA">8091</parameter><parameter name="PKL">4988</parameter><parameter name="PRA">8367</parameter><parameter name="PRL">4993</parameter><parameter name="P2A">1</parameter><parameter name="P2L">1</parameter><parameter name="P2R">1</parameter><parameter name="P2K">1</parameter><parameter name="DAQ">0</parameter><parameter name="AG2">1</parameter><parameter name="SSM">1</parameter><parameter name="RSN">13351</parameter><parameter name="CRR">0</parameter><parameter name="SRT">1653996335.526</parameter><parameter name="DUR">19.6379852294922</parameter><parameter name="TSC">28.9</parameter><parameter name="MVD">0.869090020656586</parameter><parameter name="AN1">0.225816698597202</parameter><parameter name="AN2">0</parameter><parameter name="VSN">2.485 Apr  4 2017</parameter><parameter name="SRN">0085</parameter><parameter name="CAM">0</parameter><parameter name="INS">IR-Biotyper</parameter><parameter name="FOC">69</parameter><parameter name="RDY">1</parameter></Instrument_Parameters_><History/></OPUSDataFile>
