<?xml version="1.0" encoding="UTF-8" ?>
<OPUSDataFile><AB><Ydata ylabel="Absorbance Units"><values byteorder="INTEL" format="FLOAT32" numvalues="3497"> -0.08140093 -0.08140089 -0.08138822 -0.08136267 -0.08132701 -0.08128141 -0.08124145 -0.08120786 -0.08119489 -0.08120056
 -0.08122185 -0.08125445 -0.08128117 -0.0813009 -0.08130119 -0.08128649 -0.081258 -0.08122121 -0.08118325 -0.08114602
 -0.08111324 -0.08108538 -0.08106287 -0.08104859 -0.0810435 -0.08105045 -0.08107111 -0.08110254 -0.0811455 -0.08118975
 -0.08123484 -0.08126672 -0.08128463 -0.08127826 -0.08124815 -0.08119787 -0.08113026 -0.08106361 -0.08100033 -0.08095991
 -0.08094005 -0.08094612 -0.08097228 -0.08101134 -0.08105917 -0.08110776 -0.0811569 -0.08120421 -0.08124942 -0.08129299
 -0.08133034 -0.08136081 -0.0813771 -0.08137675 -0.08135802 -0.08131912 -0.08126903 -0.08120787 -0.08115112 -0.08109964
 -0.08106487 -0.0810467 -0.08104675 -0.08106368 -0.08109086 -0.08112666 -0.08116177 -0.08119541 -0.08122047 -0.08123834
 -0.08124737 -0.08125125 -0.08125366 -0.0812571 -0.08126599 -0.08127715 -0.08129121 -0.08130077 -0.08130293 -0.08129392
 -0.08127091 -0.08123974 -0.0811996 -0.08116562 -0.08113859 -0.08113815 -0.08116547 -0.08123384 -0.08134231 -0.08148302
 -0.08165073 -0.0818101 -0.08195594 -0.08204695 -0.08208968 -0.08207641 -0.08202242 -0.08195122 -0.08186922 -0.0817947
 -0.08172385 -0.08165918 -0.08159714 -0.08153489 -0.08147585 -0.0814193 -0.08137444 -0.08134329 -0.08133338 -0.08134727
 -0.08138192 -0.08143847 -0.08149716 -0.08155695 -0.08159275 -0.08160473 -0.08158972 -0.08155194 -0.08151609 -0.08148538
 -0.08148655 -0.08151559 -0.08157824 -0.08166417 -0.08175869 -0.08185409 -0.08193485 -0.08199966 -0.08204351 -0.08206357
 -0.08205631 -0.08202264 -0.0819572 -0.08188349 -0.08180308 -0.0817527 -0.08173981 -0.08178104 -0.08188224 -0.08200859
 -0.08215893 -0.08223181 -0.08222495 -0.08207869 -0.08181108 -0.08151106 -0.08119147 -0.08095066 -0.08078088 -0.08071341
 -0.08073308 -0.08083395 -0.08098831 -0.08116642 -0.08133301 -0.08144578 -0.08149742 -0.08146226 -0.08138151 -0.08126293
 -0.08114915 -0.08105693 -0.08098758 -0.08094497 -0.08091531 -0.08089662 -0.08089173 -0.08090065 -0.08093304 -0.08098841
 -0.08106149 -0.08114965 -0.08123337 -0.08131066 -0.0813632 -0.08139148 -0.08138666 -0.08135226 -0.08128794 -0.08120351
 -0.08110882 -0.08101628 -0.08094043 -0.08088472 -0.08085707 -0.08084967 -0.08086181 -0.08088449 -0.08091468 -0.08094984
 -0.08098923 -0.08103155 -0.08107731 -0.08111663 -0.081149 -0.08116201 -0.08115569 -0.08112957 -0.08108513 -0.08103194
 -0.08097094 -0.08091047 -0.08085121 -0.08079915 -0.08075425 -0.08072058 -0.08069383 -0.08067247 -0.08064657 -0.08060724
 -0.0805483 -0.08046062 -0.08035368 -0.08022553 -0.08010016 -0.07998254 -0.07989467 -0.07984235 -0.07982955 -0.07985849
 -0.07991521 -0.07999916 -0.08008845 -0.08018183 -0.08025606 -0.08031107 -0.0803327 -0.08032548 -0.08029813 -0.08025771
 -0.08022772 -0.08020958 -0.08021855 -0.08024785 -0.08029587 -0.08035466 -0.080415 -0.0804785 -0.08054169 -0.08061452
 -0.0807019 -0.08080357 -0.08092394 -0.08104198 -0.08115525 -0.08124387 -0.08130477 -0.08133495 -0.08133427 -0.08128802
 -0.0811954 -0.08103634 -0.08081734 -0.0805712 -0.08031022 -0.08010323 -0.07995144 -0.07989847 -0.0799255 -0.08002671
 -0.08016397 -0.08028495 -0.08037247 -0.08038343 -0.08034931 -0.08027554 -0.08019371 -0.0801226 -0.08006026 -0.08001245
 -0.0799581 -0.0798934 -0.07980897 -0.0797014 -0.07959016 -0.07947602 -0.07938913 -0.07933033 -0.07931574 -0.07934295
 -0.07940559 -0.07949609 -0.07958258 -0.07965556 -0.07966878 -0.0796302 -0.0795268 -0.07938521 -0.07923597 -0.07909115
 -0.07897551 -0.07887981 -0.07880643 -0.07874176 -0.07867955 -0.07861612 -0.07854789 -0.07848148 -0.07841755 -0.07836166
 -0.0783154 -0.07827209 -0.07823174 -0.07817259 -0.07809369 -0.07797534 -0.07782094 -0.0776443 -0.07745189 -0.07727913
 -0.07712616 -0.07701145 -0.07693197 -0.07689074 -0.07688457 -0.07691354 -0.0769665 -0.0770383 -0.0771059 -0.07715503
 -0.07716765 -0.07713077 -0.07704528 -0.07690862 -0.07672574 -0.0764966 -0.07622847 -0.07592092 -0.0755934 -0.07524702
 -0.07490269 -0.07456148 -0.07424078 -0.07394232 -0.07368758 -0.07347699 -0.07332741 -0.07323056 -0.07317576 -0.07314834
 -0.0731151 -0.0730703 -0.07299145 -0.07288317 -0.07274259 -0.07257282 -0.07237431 -0.07215178 -0.07190469 -0.07164762
 -0.07138439 -0.07112581 -0.07087541 -0.07063258 -0.07039803 -0.07016616 -0.06993662 -0.06970725 -0.06947839 -0.0692581
 -0.06904716 -0.06885748 -0.06868539 -0.06852557 -0.06836593 -0.06816988 -0.06793121 -0.0676128 -0.06723735 -0.06681628
 -0.06637833 -0.06595598 -0.06555774 -0.06519945 -0.06487675 -0.06459399 -0.06433499 -0.06409824 -0.06386002 -0.06361488
 -0.06335308 -0.06307236 -0.06277438 -0.06245932 -0.06212113 -0.06175957 -0.06136766 -0.06094777 -0.06051462 -0.06007206
 -0.05964552 -0.0592344 -0.05885036 -0.05849026 -0.05815394 -0.05783777 -0.05753866 -0.05724901 -0.05696111 -0.05666936
 -0.05636597 -0.05605644 -0.0557421 -0.05542482 -0.05510975 -0.05477475 -0.05441724 -0.05401389 -0.05355811 -0.05307342
 -0.05255998 -0.0520732 -0.05161475 -0.05120919 -0.05085272 -0.05052685 -0.0502265 -0.04991899 -0.04960456 -0.0492651
 -0.04890799 -0.04853832 -0.04816386 -0.04779893 -0.04744236 -0.04710058 -0.04676281 -0.04642528 -0.0460756 -0.04570627
 -0.04531525 -0.04489795 -0.04446775 -0.04402492 -0.04359069 -0.04316786 -0.04276935 -0.0423968 -0.04204142 -0.0417023
 -0.04135777 -0.04100742 -0.0406382 -0.04025146 -0.03984644 -0.03942409 -0.03898533 -0.0385339 -0.03807502 -0.037618
 -0.03717798 -0.03675963 -0.03637604 -0.03601707 -0.0356813 -0.03535548 -0.03503139 -0.03470958 -0.03438687 -0.03407475
 -0.03377577 -0.03349346 -0.03323032 -0.03296913 -0.03270925 -0.0324235 -0.03211113 -0.03176285 -0.03138218 -0.03099376
 -0.03060183 -0.03024145 -0.02990737 -0.02960582 -0.02932242 -0.02903033 -0.02872387 -0.02837788 -0.02801051 -0.02762603
 -0.0272526 -0.02691382 -0.02661233 -0.02636305 -0.02612917 -0.0259051 -0.02565007 -0.02535141 -0.02500827 -0.02461603
 -0.02420961 -0.02379105 -0.02339151 -0.02301182 -0.0226576 -0.02232757 -0.02201317 -0.0217143 -0.02142623 -0.02114984
 -0.02088669 -0.02063426 -0.02039018 -0.02014715 -0.01989428 -0.01962636 -0.01933255 -0.01901723 -0.01867842 -0.01832651
 -0.01796483 -0.01760386 -0.01724566 -0.01690542 -0.01658553 -0.01630286 -0.01606161 -0.01585556 -0.01568597 -0.0155095
 -0.01532376 -0.01507894 -0.0147772 -0.01441225 -0.01399542 -0.01357493 -0.01316103 -0.01281303 -0.01252421 -0.01231503
 -0.01216036 -0.01203445 -0.01191636 -0.01177174 -0.01160597 -0.01140929 -0.01120185 -0.01099293 -0.0107869 -0.01058963
 -0.01038816 -0.01018013 -0.009959687 -0.009724616 -0.009483905 -0.009237888 -0.008998227 -0.008765349 -0.008544398 -0.008334459
 -0.008130756 -0.007930283 -0.007716413 -0.007486953 -0.00722414 -0.006933767 -0.006615991 -0.006284743 -0.005958942 -0.00565036
 -0.005379297 -0.005144833 -0.004955195 -0.004796683 -0.004666547 -0.004548055 -0.004434968 -0.004319316 -0.004197774 -0.004071157
 -0.003939293 -0.003802538 -0.003661087 -0.003510713 -0.003351222 -0.00317932 -0.002995094 -0.002797913 -0.002588161 -0.002366292
 -0.002134592 -0.001898918 -0.001664055 -0.00144335 -0.001237765 -0.001057461 -0.0008923308 -0.0007381651 -0.0005800255 -0.0004040384
 -0.000209921 1.076758E-05 0.0002353824 0.0004602154 0.0006596581 0.0008251737 0.0009571267 0.001052184 0.001136404 0.001211678
 0.001295917 0.001389364 0.001478556 0.001561619 0.001613853 0.001637564 0.001629412 0.001596356 0.0015577 0.00151878
 0.001500859 0.001503177 0.001535389 0.001589855 0.001663801 0.001746601 0.001828755 0.001908561 0.001978999 0.002056688
 0.002144394 0.002260596 0.002413395 0.002591124 0.002796874 0.002985043 0.003152458 0.003259662 0.003305504 0.003296614
 0.003237268 0.003172191 0.003103182 0.00306486 0.003050637 0.003057679 0.003080502 0.003103249 0.003131447 0.00316643
 0.003213746 0.003283968 0.003365983 0.003458001 0.003541301 0.003603909 0.003644703 0.003657371 0.00366103 0.003658265
 0.003666522 0.003689751 0.003727512 0.003780813 0.003833298 0.003884003 0.003910189 0.003911586 0.003874767 0.003803979
 0.003711184 0.003605039 0.003519421 0.003458552 0.003451677 0.003488423 0.003570474 0.003674808 0.003779369 0.003865585
 0.003909931 0.003916668 0.003877558 0.003817468 0.003741802 0.003673576 0.00361967 0.003587405 0.00357836 0.003597823
 0.003645735 0.003738783 0.003877716 0.00407423 0.004325083 0.00460478 0.004903815 0.005159693 0.005367089 0.005470711
 0.005483986 0.005402029 0.005256527 0.005090615 0.004931982 0.004830397 0.004782837 0.00481058 0.004875747 0.004969928
 0.005045784 0.005084408 0.005063381 0.004970026 0.004822064 0.004617496 0.00439806 0.004167041 0.003955359 0.003764388
 0.003597896 0.003455411 0.003332391 0.003230431 0.003156241 0.00311075 0.003103433 0.003127392 0.003175565 0.003233314
 0.003277196 0.003292854 0.003255925 0.003161283 0.002994857 0.002766669 0.002474087 0.002142133 0.001776048 0.001405201
 0.001036458 0.0006915735 0.0003748806 9.640795E-05 -0.0001420619 -0.0003442432 -0.0005105082 -0.0006621213 -0.0008007306 -0.0009530709
 -0.00111718 -0.001298223 -0.001489792 -0.001671694 -0.001843958 -0.001992501 -0.002130972 -0.002273405 -0.002432604 -0.002632125
 -0.002863637 -0.00313382 -0.003414732 -0.0036956 -0.003951186 -0.004168346 -0.004343537 -0.004470108 -0.00457045 -0.004644561
 -0.004730443 -0.004831335 -0.004975873 -0.005165365 -0.005396083 -0.00566555 -0.005944672 -0.006231807 -0.00650217 -0.006758346
 -0.00699597 -0.007217896 -0.007428939 -0.00762909 -0.007820359 -0.008002291 -0.008174662 -0.008338541 -0.008494332 -0.00864384
 -0.008786988 -0.008929215 -0.009071226 -0.009222216 -0.009384854 -0.009562683 -0.009757818 -0.009961015 -0.01017193 -0.01037825
 -0.01057939 -0.01077267 -0.0109584 -0.01114019 -0.01131757 -0.01148963 -0.0116557 -0.01181196 -0.0119606 -0.01210358
 -0.01224577 -0.01239544 -0.01255627 -0.01273635 -0.01293403 -0.0131528 -0.01338289 -0.01362243 -0.01385546 -0.01407597
 -0.01427391 -0.01444342 -0.01459386 -0.01472387 -0.01485843 -0.0149996 -0.01516661 -0.01536044 -0.01557891 -0.01582056
 -0.01606731 -0.01631808 -0.01655689 -0.01678546 -0.01700104 -0.01720618 -0.01740614 -0.01760035 -0.01779089 -0.01797475
 -0.01814845 -0.01831283 -0.01846708 -0.01861353 -0.01875554 -0.01888535 -0.01900219 -0.01909388 -0.01915383 -0.0191947
 -0.01921325 -0.01925649 -0.01932802 -0.01946996 -0.01968454 -0.01996492 -0.02030683 -0.02065696 -0.02100999 -0.02130662
 -0.02154923 -0.02170992 -0.02180433 -0.0218499 -0.0218714 -0.02191658 -0.02199906 -0.02215973 -0.02237841 -0.02266038
 -0.02296006 -0.02325415 -0.02351549 -0.023723 -0.02389375 -0.02402594 -0.02414956 -0.02427196 -0.02438894 -0.02450253
 -0.02457809 -0.02461385 -0.02459396 -0.02452153 -0.02443065 -0.02432807 -0.02427204 -0.02426226 -0.02433242 -0.02446949
 -0.02466231 -0.02489328 -0.02512754 -0.0253589 -0.02556323 -0.02575255 -0.02592757 -0.02610244 -0.02628886 -0.02648009
 -0.02668012 -0.02686386 -0.02702511 -0.02715085 -0.02723574 -0.02729344 -0.02732428 -0.02734673 -0.02736182 -0.02737159
 -0.02737569 -0.02736919 -0.02735344 -0.02733394 -0.02731301 -0.02730278 -0.02730211 -0.02731542 -0.0273378 -0.02736322
 -0.02738786 -0.02740321 -0.02741326 -0.02741438 -0.02742406 -0.0274478 -0.02750915 -0.02762021 -0.02778525 -0.02801376
 -0.02826967 -0.02855233 -0.02880363 -0.02901702 -0.02916407 -0.02924274 -0.02928546 -0.02929615 -0.02933756 -0.02940912
 -0.02954278 -0.02972724 -0.02993992 -0.03016871 -0.03037088 -0.03054749 -0.03067838 -0.03077648 -0.0308484 -0.03090641
 -0.03096295 -0.03102327 -0.03109433 -0.03117451 -0.03126646 -0.03135994 -0.0314541 -0.03153429 -0.0315968 -0.0316413
 -0.03166588 -0.03169439 -0.03172809 -0.03178928 -0.03187674 -0.03197876 -0.03209061 -0.03217534 -0.03223375 -0.03224623
 -0.03222299 -0.03217956 -0.03212265 -0.03207505 -0.0320261 -0.03197611 -0.03190311 -0.03178958 -0.03162111 -0.03138361
 -0.03107652 -0.03069678 -0.0302456 -0.02972395 -0.02912617 -0.028451 -0.02769688 -0.02686165 -0.02596899 -0.02501991
 -0.02407248 -0.02313127 -0.02227229 -0.02149888 -0.02087198 -0.02038797 -0.02006867 -0.0199032 -0.0198778 -0.01997991
 -0.02018323 -0.02047783 -0.02084392 -0.0212707 -0.02174718 -0.02225411 -0.02278247 -0.02330358 -0.0238071 -0.02426432
 -0.02466627 -0.02499511 -0.02524654 -0.02541214 -0.02549124 -0.02547131 -0.0253517 -0.02511147 -0.02475024 -0.02425679
 -0.02363511 -0.02290335 -0.02206882 -0.02116936 -0.02020738 -0.01920993 -0.01817051 -0.01709106 -0.01596264 -0.01477478
 -0.01352336 -0.01220111 -0.0108081 -0.009341948 -0.007805339 -0.006196365 -0.004527648 -0.002797716 -0.001039187 0.0007466906
 0.002507634 0.004239975 0.005884255 0.007436805 0.008848496 0.01011805 0.0112195 0.0121548 0.01292135 0.013525
 0.01398179 0.014306 0.01453391 0.01469366 0.01484333 0.01501965 0.01528671 0.01567348 0.01622572 0.01695315
 0.01787519 0.01898555 0.02028809 0.02176665 0.0234207 0.02522281 0.02717146 0.02922516 0.03138156 0.03358636
 0.03583651 0.03806743 0.04027514 0.04239157 0.04441219 0.04627594 0.04797591 0.04945777 0.05070663 0.05166269
 0.05230337 0.05256287 0.052427 0.05184561 0.05083647 0.04938528 0.04755243 0.04535511 0.04288626 0.04017457
 0.03732882 0.03437445 0.03142385 0.0284963 0.02568926 0.02301571 0.02053015 0.01823726 0.01613487 0.01422083
 0.01245765 0.01084239 0.009337924 0.007942798 0.006633615 0.005406268 0.004240817 0.003128615 0.002045596 0.0009859456
 -6.975626E-05 -0.001114837 -0.002153248 -0.003167648 -0.004149499 -0.005085141 -0.005966159 -0.006790162 -0.007556146 -0.008258494
 -0.008899462 -0.009450966 -0.009912324 -0.0102369 -0.01042175 -0.01043077 -0.01026458 -0.009929918 -0.009435747 -0.008843365
 -0.008167231 -0.007498327 -0.006842175 -0.006266731 -0.005751348 -0.005300777 -0.004866207 -0.004396209 -0.003834049 -0.003114457
 -0.002203065 -0.001054367 0.0003173246 0.001930351 0.003707804 0.005647963 0.007612922 0.009590405 0.01140033 0.01302788
 0.01427992 0.0151439 0.01545048 0.01519453 0.01428036 0.01272084 0.01054519 0.007794257 0.004632211 0.0011217
 -0.002498527 -0.006171163 -0.009682341 -0.01301171 -0.01604142 -0.01879657 -0.02125385 -0.02346088 -0.02543761 -0.02722557
 -0.02884496 -0.0303246 -0.03167415 -0.03291913 -0.03406421 -0.03513372 -0.03613064 -0.0370728 -0.03796156 -0.0388083
 -0.03961351 -0.04038509 -0.04112298 -0.04183103 -0.04250833 -0.04315383 -0.04376547 -0.04433754 -0.04486787 -0.04534896
 -0.04578234 -0.04616404 -0.0465047 -0.04680938 -0.04709553 -0.04737517 -0.04765879 -0.04795661 -0.04825974 -0.04857012
 -0.04886616 -0.04914382 -0.04939061 -0.04960321 -0.04979111 -0.04995445 -0.05011415 -0.05027082 -0.05043465 -0.05060416
 -0.05077254 -0.0509393 -0.05109713 -0.05125043 -0.05140692 -0.05157154 -0.05175928 -0.05196638 -0.05219695 -0.05243792
 -0.05267997 -0.05291089 -0.05311975 -0.05330313 -0.05345596 -0.0535827 -0.05368213 -0.05376607 -0.05383503 -0.05390801
 -0.05398721 -0.05408671 -0.054208 -0.05434551 -0.05449835 -0.05464692 -0.05479101 -0.05491921 -0.05503404 -0.05514044
 -0.05523989 -0.05533998 -0.0554383 -0.05553396 -0.0556243 -0.05570476 -0.05577586 -0.05583647 -0.05588762 -0.05593025
 -0.05596281 -0.05598458 -0.0559956 -0.05599415 -0.05598884 -0.05597977 -0.05598227 -0.05599828 -0.05603738 -0.05610073
 -0.05618219 -0.05628095 -0.05637846 -0.05647374 -0.05654983 -0.05660813 -0.05664443 -0.05666282 -0.05667191 -0.05667584
 -0.05668727 -0.05670585 -0.05673796 -0.05677702 -0.0568195 -0.05685938 -0.05688995 -0.05691493 -0.05693235 -0.05695442
 -0.05698435 -0.05703036 -0.05709583 -0.05717617 -0.05727199 -0.0573707 -0.05747152 -0.05756389 -0.05764756 -0.05772025
 -0.05778292 -0.05784186 -0.05789844 -0.05796249 -0.05803336 -0.05811576 -0.05820484 -0.05829455 -0.05837854 -0.05844468
 -0.05849285 -0.05851579 -0.05852455 -0.05852206 -0.05852384 -0.05853839 -0.05857078 -0.05862669 -0.05869456 -0.05877436
 -0.05884774 -0.05891228 -0.05895735 -0.05898172 -0.05898835 -0.05897763 -0.05895955 -0.05893437 -0.05890866 -0.05888178
 -0.05885381 -0.05882532 -0.05879683 -0.05877191 -0.0587576 -0.05875686 -0.0587781 -0.05881803 -0.05887806 -0.05894988
 -0.05902872 -0.05910839 -0.05918459 -0.05925609 -0.0593215 -0.0593818 -0.05943685 -0.05948815 -0.05953556 -0.05958314
 -0.05963109 -0.05968481 -0.05974452 -0.05981373 -0.05989208 -0.05997855 -0.06007198 -0.06016679 -0.06026167 -0.06034949
 -0.06043084 -0.06050282 -0.06056831 -0.06063013 -0.06069009 -0.0607519 -0.06081302 -0.06087337 -0.06092875 -0.06097638
 -0.06101742 -0.06105031 -0.06108352 -0.06111829 -0.06116232 -0.06121753 -0.06128046 -0.06135133 -0.06141676 -0.06147621
 -0.06152061 -0.0615512 -0.06157407 -0.06159183 -0.06162014 -0.0616592 -0.06171907 -0.06179542 -0.06188555 -0.06198287
 -0.06207706 -0.06216425 -0.06223597 -0.06229445 -0.06233732 -0.0623721 -0.06240131 -0.06243144 -0.06246566 -0.06250437
 -0.06254879 -0.06259418 -0.06264012 -0.06268233 -0.06272031 -0.06275439 -0.0627847 -0.06281562 -0.06284739 -0.06288431
 -0.06292582 -0.06297205 -0.06302153 -0.06307005 -0.06311648 -0.06315624 -0.06318972 -0.06321491 -0.06323459 -0.06325023
 -0.06326577 -0.06328415 -0.06330821 -0.06334038 -0.06338021 -0.0634286 -0.06348197 -0.06354029 -0.0635976 -0.06365329
 -0.0637014 -0.06374127 -0.06377197 -0.06379362 -0.06381259 -0.06382936 -0.06385144 -0.063878 -0.06390947 -0.06394398
 -0.06397577 -0.06400468 -0.06402697 -0.06404503 -0.06406038 -0.06407566 -0.06409429 -0.06411682 -0.06414527 -0.06417722
 -0.06421261 -0.06424724 -0.06427976 -0.06430751 -0.06432904 -0.0643474 -0.06436243 -0.06438047 -0.06440217 -0.06442863
 -0.06445973 -0.06448828 -0.06451374 -0.06452786 -0.06453148 -0.06452379 -0.06450698 -0.06448732 -0.06446627 -0.06445012
 -0.06443834 -0.06443291 -0.06443253 -0.06443648 -0.06444412 -0.06445486 -0.06446815 -0.06448372 -0.06450073 -0.06451895
 -0.06453741 -0.06455587 -0.06457356 -0.06459035 -0.06460571 -0.06461953 -0.06463302 -0.0646463 -0.06466259 -0.06468198
 -0.06470676 -0.06473651 -0.06477059 -0.06480833 -0.06484745 -0.06488728 -0.06492542 -0.06496111 -0.06499188 -0.06501818
 -0.06503863 -0.06505672 -0.06507385 -0.06509469 -0.06512232 -0.06515745 -0.06520179 -0.06525086 -0.06530429 -0.06535669
 -0.06540713 -0.06545378 -0.06549628 -0.06553616 -0.0655735 -0.06560982 -0.06564499 -0.06567817 -0.06570913 -0.06573579
 -0.06575882 -0.06577881 -0.06579719 -0.06581753 -0.06583994 -0.06586672 -0.06589557 -0.06592536 -0.06595305 -0.06597584
 -0.06599321 -0.06600349 -0.06600985 -0.06601236 -0.06601652 -0.0660233 -0.06603773 -0.06606095 -0.06609309 -0.06613452
 -0.06617963 -0.06622811 -0.0662735 -0.06631596 -0.06635484 -0.06639074 -0.06642672 -0.06646226 -0.06649775 -0.06653139
 -0.06655923 -0.06658088 -0.06659336 -0.066599 -0.06659868 -0.06659587 -0.06659309 -0.06659327 -0.06659855 -0.06660996
 -0.06662883 -0.06665275 -0.06668174 -0.06671184 -0.06674231 -0.06677236 -0.06680179 -0.06683266 -0.06686503 -0.06689742
 -0.06692941 -0.06695557 -0.06697619 -0.0669895 -0.0669969 -0.06700227 -0.06700594 -0.06701078 -0.0670161 -0.06702164
 -0.06702823 -0.06703635 -0.06704766 -0.06706437 -0.06708452 -0.06710832 -0.06713163 -0.06715275 -0.06717077 -0.06718486
 -0.067197 -0.06720752 -0.0672165 -0.06722403 -0.06722816 -0.06722884 -0.06722642 -0.06722122 -0.06721652 -0.06721258
 -0.06721249 -0.06721595 -0.06722368 -0.06723496 -0.06724889 -0.06726423 -0.06727916 -0.06729162 -0.06729861 -0.06729952
 -0.06729157 -0.06727973 -0.06726453 -0.06725444 -0.06725314 -0.06726261 -0.06728538 -0.0673127 -0.06734373 -0.06737068
 -0.06739234 -0.06741248 -0.0674313 -0.06745689 -0.0674889 -0.06752638 -0.06756826 -0.06760751 -0.06764545 -0.06768157
 -0.06772009 -0.06776969 -0.06783426 -0.0679236 -0.06803906 -0.06818531 -0.06836356 -0.06857505 -0.06882403 -0.06911291
 -0.0694446 -0.06982356 -0.07023735 -0.07068702 -0.07114372 -0.07160288 -0.07204834 -0.07247661 -0.07290976 -0.0733487
 -0.07380891 -0.0742846 -0.07471769 -0.07509694 -0.07532606 -0.07540993 -0.07531089 -0.07504695 -0.07463564 -0.07410137
 -0.0734787 -0.07281369 -0.07216485 -0.0715729 -0.07108836 -0.07072259 -0.07049518 -0.07040166 -0.07044758 -0.07061338
 -0.07090405 -0.07125518 -0.07166474 -0.07202686 -0.07233077 -0.07252282 -0.07260031 -0.0725911 -0.07249783 -0.07235807
 -0.07217366 -0.07197193 -0.07175667 -0.07155567 -0.07137022 -0.07121904 -0.07109573 -0.07100058 -0.07092157 -0.0708473
 -0.0707646 -0.0706595 -0.07052678 -0.07035618 -0.0701624 -0.06994516 -0.0697314 -0.06952754 -0.06935047 -0.06920519
 -0.06908757 -0.06899848 -0.0689202 -0.06885183 -0.06877633 -0.06869388 -0.06860089 -0.06849949 -0.06839994 -0.06830332
 -0.06821971 -0.06814679 -0.06808434 -0.06802939 -0.06797592 -0.0679254 -0.06787626 -0.06783298 -0.06779953 -0.06777525
 -0.06776273 -0.0677533 -0.06774491 -0.06772926 -0.06770285 -0.06766771 -0.06762272 -0.06757827 -0.0675351 -0.06750245
 -0.06748085 -0.0674724 -0.06747675 -0.0674904 -0.06751247 -0.06753626 -0.06756098 -0.06757993 -0.06759391 -0.06760082
 -0.06760327 -0.06760494 -0.06760647 -0.06761111 -0.06761523 -0.0676173 -0.06761387 -0.06760158 -0.06758314 -0.06755804
 -0.06753218 -0.06750707 -0.06748543 -0.06746817 -0.06745441 -0.06744421 -0.06743597 -0.06742961 -0.06742387 -0.06741867
 -0.06741296 -0.06740678 -0.06739997 -0.06739251 -0.06738437 -0.06737526 -0.0673644 -0.06735161 -0.06733601 -0.06731807
 -0.06729786 -0.06727627 -0.06725375 -0.06723183 -0.06721142 -0.06719363 -0.06717955 -0.06716745 -0.06715729 -0.06714646
 -0.06713408 -0.0671222 -0.0671107 -0.06710505 -0.06710556 -0.06711204 -0.06712388 -0.06713259 -0.06713789 -0.06713322
 -0.06712026 -0.06710155 -0.06707884 -0.06705804 -0.06703854 -0.06702199 -0.06700716 -0.06699278 -0.06697945 -0.06696717
 -0.06695669 -0.0669488 -0.0669423 -0.06693677 -0.06693184 -0.06692688 -0.06692445 -0.06692497 -0.06692944 -0.0669383
 -0.06694775 -0.06695763 -0.06696275 -0.06696305 -0.06695675 -0.06694403 -0.0669248 -0.06689926 -0.06686768 -0.06683121
 -0.06679246 -0.06675317 -0.06671783 -0.06668624 -0.0666604 -0.06663807 -0.06661794 -0.0665989 -0.06657938 -0.0665612
 -0.06654441 -0.06653183 -0.06652422 -0.06652328 -0.0665298 -0.06654162 -0.06655893 -0.06657492 -0.06658924 -0.06659619
 -0.06659603 -0.06659129 -0.06658285 -0.06657787 -0.06657581 -0.066579 -0.0665854 -0.066591 -0.06659485 -0.06659333
 -0.06658693 -0.06657495 -0.06655762 -0.06653453 -0.06650713 -0.06647505 -0.06644346 -0.06641401 -0.0663912 -0.06637723
 -0.06637019 -0.06637057 -0.06637245 -0.06637509 -0.06637709 -0.0663783 -0.06638155 -0.06638677 -0.06639347 -0.06640084
 -0.06640297 -0.06640001 -0.06638856 -0.06637113 -0.06635194 -0.06633329 -0.06632171 -0.06631624 -0.06631899 -0.06632659
 -0.06633704 -0.06634773 -0.0663567 -0.06636235 -0.06636371 -0.0663596 -0.06634935 -0.06633342 -0.06631138 -0.06628691
 -0.0662602 -0.06623583 -0.06621408 -0.06619673 -0.06618369 -0.06617358 -0.06616611 -0.06615884 -0.06615145 -0.06614174
 -0.06612913 -0.06611094 -0.06608718 -0.06605584 -0.06601954 -0.06597978 -0.06594116 -0.0659083 -0.06588298 -0.06586871
 -0.06586115 -0.06586003 -0.06585913 -0.06585632 -0.0658503 -0.06583994 -0.06582971 -0.06581985 -0.06581545 -0.06581686
 -0.06582485 -0.06583909 -0.06585443 -0.06587011 -0.06587831 -0.0658791 -0.06586797 -0.0658466 -0.06581656 -0.06578026
 -0.06574262 -0.0657051 -0.06567164 -0.06564206 -0.06561794 -0.06559736 -0.0655799 -0.06556308 -0.06554573 -0.06552669
 -0.06550538 -0.06548166 -0.06545538 -0.06542685 -0.06539595 -0.06536453 -0.06533264 -0.06530466 -0.06528079 -0.06526475
 -0.06525611 -0.06525405 -0.06525762 -0.06526273 -0.06526875 -0.06527201 -0.06527241 -0.06526791 -0.06525919 -0.06524584
 -0.06522976 -0.06521218 -0.06519523 -0.06518083 -0.06516895 -0.06516055 -0.06515287 -0.06514544 -0.06513561 -0.06512241
 -0.06510726 -0.06508992 -0.06507532 -0.06506378 -0.06505701 -0.06505463 -0.06505014 -0.06504304 -0.06502599 -0.06500073
 -0.06496989 -0.0649363 -0.0649094 -0.06488878 -0.0648789 -0.06487589 -0.0648764 -0.06487839 -0.06487827 -0.06487764
 -0.06487647 -0.06487622 -0.06487787 -0.06488065 -0.06488461 -0.0648888 -0.06489302 -0.06489686 -0.06490026 -0.06490263
 -0.06490396 -0.06490237 -0.06489775 -0.06488808 -0.06487361 -0.06485474 -0.06483249 -0.06481105 -0.06479116 -0.06477746
 -0.06476862 -0.06476496 -0.06476344 -0.06476015 -0.06475382 -0.06474103 -0.06472489 -0.06470568 -0.06468837 -0.06467565
 -0.06466793 -0.06466707 -0.06466596 -0.06466376 -0.06465391 -0.06463496 -0.06461044 -0.06458034 -0.06455369 -0.06453054
 -0.06451248 -0.06449864 -0.06448326 -0.06446647 -0.06444551 -0.06442167 -0.06439737 -0.0643725 -0.06434814 -0.06432334
 -0.06429682 -0.06426961 -0.06424197 -0.0642155 -0.06419212 -0.06416941 -0.06414752 -0.06412137 -0.06408906 -0.06405
 -0.06400276 -0.06395487 -0.06390673 -0.06386747 -0.06383786 -0.06381807 -0.06380761 -0.06379624 -0.0637835 -0.06376033
 -0.06372863 -0.06369083 -0.06365009 -0.06361654 -0.06359086 -0.0635798 -0.0635807 -0.06359383 -0.06361391 -0.0636374
 -0.0636573 -0.06366861 -0.06366631 -0.06364578 -0.06361071 -0.06355976 -0.06350433 -0.06344611 -0.06339441 -0.06335093
 -0.06331614 -0.06329028 -0.06326789 -0.06324875 -0.06322894 -0.06320896 -0.06319077 -0.06317514 -0.06316667 -0.06316483
 -0.06317116 -0.06318334 -0.0631983 -0.06321284 -0.06322202 -0.06322274 -0.06321023 -0.06318393 -0.06314068 -0.06308618
 -0.06302097 -0.06295408 -0.06288829 -0.06282885 -0.06277751 -0.06273437 -0.06269978 -0.0626718 -0.06265035 -0.06263259
 -0.06261835 -0.06260415 -0.06259019 -0.06257601 -0.06256238 -0.06255271 -0.06254672 -0.06254601 -0.0625485 -0.06255122
 -0.06255192 -0.06254646 -0.06253342 -0.06250996 -0.06247603 -0.06242981 -0.06237534 -0.06231255 -0.06225033 -0.06219094
 -0.06214192 -0.06210572 -0.06208226 -0.06207249 -0.06206826 -0.0620692 -0.0620642 -0.06205298 -0.06203121 -0.06200019
 -0.06196811 -0.06193649 -0.06191755 -0.06190894 -0.06191206 -0.06192032 -0.06192153 -0.06191226 -0.06188083 -0.06183292
 -0.06176855 -0.06169648 -0.0616225 -0.06155119 -0.06148607 -0.06142833 -0.06137927 -0.06133754 -0.06130333 -0.06127364
 -0.06124807 -0.06122518 -0.06120476 -0.06118843 -0.06117626 -0.06117025 -0.06116987 -0.06117247 -0.06117611 -0.06117117
 -0.06115576 -0.0611182 -0.06106118 -0.06098277 -0.06089011 -0.06079179 -0.06069318 -0.0606025 -0.06052153 -0.06045397
 -0.06039906 -0.06035805 -0.06032696 -0.06030603 -0.06028641 -0.06026718 -0.06023717 -0.06019495 -0.06013244 -0.06004874
 -0.05994518 -0.05982224 -0.05969156 -0.05955422 -0.05942454 -0.05930211 -0.05919333 -0.05909609 -0.05900758 -0.05892643
 -0.05884887 -0.05877382 -0.05869932 -0.05862178 -0.05853719 -0.05844323 -0.0583353 -0.05821977 -0.0580973 -0.05797741
 -0.05786425 -0.05775784 -0.0576599 -0.05756198 -0.05746313 -0.05735819 -0.05724652 -0.05713113 -0.05701202 -0.05688983
 -0.0567632 -0.05662112 -0.05646219 -0.05627223 -0.05605544 -0.05581497 -0.05555914 -0.05530739 -0.05506065 -0.0548308
 -0.05460877 -0.05439085 -0.05416754 -0.05392995 -0.05367853 -0.05341069 -0.0531314 -0.05284387 -0.05254111 -0.05222555
 -0.05187007 -0.05147325 -0.05099756 -0.0504396 -0.04978626 -0.04903795 -0.04822017 -0.04733262 -0.04638768 -0.04537573
 -0.04426033 -0.04303012 -0.0416286 -0.04006152 -0.03830358 -0.0363908 -0.03435425 -0.03224567 -0.03012468 -0.02802574
 -0.02599173 -0.02402656 -0.02214173 -0.0203343 -0.01859846 -0.01696637 -0.01543836 -0.01407315 -0.01287958 -0.01188346
 -0.01108831 -0.0104844 -0.01007116 -0.00983565 -0.009776184 -0.009872922 -0.01012386 -0.01050739 -0.01102632 -0.01168391
 -0.01246923 -0.0133786 -0.01435764 -0.01533074 -0.01625376 -0.01704311 -0.0177233 -0.01828252 -0.01876126 -0.01917884
 -0.01954738 -0.01987464 -0.02016334 -0.0204129 -0.0206395 -0.02084526 -0.02104188 -0.02123175 -0.02138831 -0.02151007
 -0.02156228 -0.02154809 -0.02148189 -0.02136932 -0.02124558 -0.02111079 -0.02098395 -0.02086139 -0.02074609 -0.02063092
 -0.02050954 -0.02036944 -0.02020037 -0.01998058 -0.01969615 -0.01932047 -0.0188325 -0.01823911 -0.01752771 -0.01676037
 -0.01594575 -0.01514248 -0.01436144 -0.01361851 -0.01291675 -0.01224225 -0.01159367 -0.01093322 -0.01025653 -0.009503248
 -0.008678018 -0.007761057 -0.006780589 -0.005818137 -0.004881273 -0.004035031 -0.003247741 -0.002499485 -0.00176859 -0.001020586
 -0.0002626335 0.0005105804 0.001289827 0.002067142 0.002856663 0.003662689 0.004489397 0.005342224 0.006197063 0.007050871
 0.007891322 0.008717014 0.009527033 0.01032063 0.01106932 0.01177076 0.01238856 0.01292635 0.01338215 0.01376254
 0.01408813 0.01435931 0.01458619 0.01476832 0.01490482 0.0150082 0.01508829 0.0151618 0.0152455 0.01534098
 0.01545824 0.01557454 0.0156878 0.01576544 0.01580085 0.01576873 0.01566428 0.01547599 0.01520093 0.01486571
 0.01447229 0.01408095 0.01369143 0.01332598 0.01297746 0.01262077 0.01225287 0.01184871 0.01141558 0.01095339
 0.01047831 0.01001447 0.009571112 0.009169642 0.008802948 0.008471893 0.00817115 0.007894346 0.007654643 0.007454349
 0.007307171 0.007219926 0.007179253 0.007186299 0.00721014 0.007248416 0.007277334 0.007295939 0.007300485 0.007292908
 0.007290288 0.007295852 0.007334439 0.007408167 0.007536645 0.007720206 0.007970293 0.008282777 0.008659794 0.00908774
 0.009557461 0.01004635 0.01053698 0.0110109 0.0114517 0.01186287 0.01223757 0.01260394 0.01296518 0.01335337
 0.01377493 0.01423668 0.01474077 0.01526836 0.0158186 0.01637882 0.01694941 0.01753318 0.01812617 0.01871139
 0.01928004 0.01978956 0.02024698 0.020641 0.02099603 0.02134492 0.02170176 0.02209907 0.02252395 0.02298107
 0.02344376 0.02390419 0.02432865 0.02471343 0.02499356 0.02515643 0.02514027 0.02492216 0.02457967 0.02411458
 0.02364834 0.02318574 0.02272152 0.02225021 0.0217119 0.02110402 0.02038304 0.01955004 0.01858919 0.01749467
 0.01625016 0.01484044 0.01321459 0.0114243 0.009463886 0.007507921 0.005698556 0.004089441 0.00277936 0.001631059
 0.0006168198 -0.0003623671 -0.001343758 -0.002321204 -0.0033011 -0.004245708 -0.005150449 -0.006021986 -0.00686092 -0.007709493
 -0.008568238 -0.009460174 -0.01037808 -0.01129651 -0.01220636 -0.01306038 -0.01386377 -0.01460093 -0.0152903 -0.0159539
 -0.01660383 -0.01726188 -0.01793135 -0.01861836 -0.01933323 -0.02008355 -0.02087268 -0.02171792 -0.02255005 -0.02336268
 -0.02406272 -0.02462528 -0.02508376 -0.02543609 -0.02576589 -0.02607705 -0.02639691 -0.02672232 -0.02702484 -0.02730265
 -0.02752887 -0.02771037 -0.02785849 -0.02797441 -0.02807159 -0.02813497 -0.028148 -0.02809595 -0.02795257 -0.0277233
 -0.02740325 -0.02700214 -0.02652683 -0.02597192 -0.02534111 -0.02461159 -0.02378912 -0.0227992 -0.02164669 -0.02014716
 -0.01828608 -0.0158867 -0.01294193 -0.00964901 -0.006045378 -0.002642055 0.0005530586 0.003228515 0.005421198 0.007087094
 0.008270432 0.00903643 0.009443662 0.009608798 0.0095759 0.009442872 0.009208458 0.008899999 0.008512539 0.008039016
 0.007518377 0.006961563 0.006401077 0.005848693 0.005308334 0.004780116 0.00428105 0.003811825 0.00340037 0.00304807
 0.002755045 0.002518733 0.002308616 0.002121584 0.001924817 0.001717388 0.001476608 0.001208228 0.0009099938 0.0005981937
 0.0002972451 1.963885E-05 -0.0002103859 -0.0003909571 -0.000516166 -0.0005768131 -0.0005695179 -0.0004774446 -0.0002925071 -1.08972E-05
 0.0003715194 0.000844638 0.001408283 0.002049436 0.002768598 0.003531867 0.004337274 0.005112487 0.005854072 0.00649749
 0.007046197 0.007486504 0.00782463 0.008074764 0.008240234 0.008335389 0.008361524 0.008328142 0.008231801 0.008074604
 0.007845876 0.007539507 0.007143247 0.006648317 0.006050508 0.005342754 0.004540334 0.003638777 0.002689528 0.001695039
 0.0007323832 -0.0001906481 -0.001026488 -0.001772239 -0.00242936 -0.002998389 -0.00348815 -0.003895939 -0.004209293 -0.004426457
 -0.004529827 -0.004530292 -0.004436717 -0.004279038 -0.004101675 -0.003947856 -0.003881563 -0.003933559 -0.004158281 -0.004533208
 -0.005076013 -0.005702912 -0.006392698 -0.007061942 -0.007681524 -0.00823082 -0.008697895 -0.009115476 -0.009484872 -0.009842877
 -0.01019161 -0.01053989 -0.01088632 -0.01121391 -0.01152122 -0.01179033 -0.01202331 -0.0122177 -0.01237714 -0.0125084
 -0.01261553 -0.01270721 -0.0127883 -0.01286779 -0.01294788 -0.01303409 -0.01312368 -0.01321606 -0.01331079 -0.01340575
 -0.01350933 -0.0136226 -0.01375554 -0.01391118 -0.01408601 -0.01428126 -0.01447476 -0.01466535 -0.01482808 -0.01496273
 -0.01506088 -0.01512372 -0.01515506 -0.01515409 -0.01512011 -0.01505116 -0.01494049 -0.01479124 -0.01460311 -0.01438611
 -0.01415069 -0.01390683 -0.01366624 -0.0134328 -0.01321154 -0.01300383 -0.01281048 -0.01263502 -0.01247804 -0.01234428
 -0.01223492 -0.01215067 -0.01209215 -0.01205357 -0.01203465 -0.01202577 -0.01202664 -0.01203114 -0.01203966 -0.01205178
 -0.01206775 -0.01208855 -0.01211338 -0.01214079 -0.01216993 -0.012199 -0.01222684 -0.01225238 -0.01227199 -0.01228338
 -0.0122809 -0.01226163 -0.01221922 -0.01215146 -0.01205107 -0.01191595 -0.01174082 -0.01152338 -0.0112692 -0.01097751
 -0.01066796 -0.01034157 -0.01002277 -0.009712541 -0.00942954 -0.009173419 -0.008952459 -0.008763948 -0.008603835 -0.008466472
 -0.00833667 -0.008209077 -0.008066803 -0.007910277 -0.007731787 -0.007538401 -0.007333079 -0.007122346 -0.00691166 -0.006700811
 -0.006491437 -0.006279997 -0.006065364 -0.005847794 -0.005626855 -0.005405646 -0.005184635 -0.004963376 -0.004741892 -0.004516911
 -0.004288526 -0.004057498 -0.003824558 -0.003595029 -0.003369057 -0.003150262 -0.002937788 -0.002730649 -0.002529736 -0.002334402
 -0.002150404 -0.001982817 -0.001840591 -0.001732801 -0.001664689 -0.001643494 -0.001664236 -0.001728598 -0.001823081 -0.001945373
 -0.002081239 -0.002227675 -0.002377748 -0.00252996 -0.002686768 -0.0028482 -0.003020512 -0.003203594 -0.003397053 -0.003599244
 -0.003798943 -0.003995088 -0.00417661 -0.004345886 -0.004503067 -0.004651291 -0.004797616 -0.004939616 -0.005078995 -0.005207457
 -0.005318728 -0.005406805 -0.005464836 -0.005496447 -0.005499967 -0.005486061 -0.005457469 -0.005420377 -0.005377378 -0.005323221
 -0.005258032 -0.005171914 -0.005064223 -0.004930853 -0.004771931 -0.004589436 -0.004383791 -0.004158088 -0.00391359 -0.003656289
 -0.003388303 -0.003118925 -0.002847186 -0.00257721 -0.002303015 -0.002019679 -0.001720332 -0.001397346 -0.001047427 -0.0006659026
 -0.000254343 0.0001891005 0.0006563009 0.001146403 0.001648098 0.00215854 0.002675906 0.003198908 0.003737767 0.004293098
 0.004870373 0.005468897 0.006077046 0.006692655 0.007295437 0.007884067 0.008442499 0.008970961 0.009461428 0.009915973
 0.01033408 0.01071907 0.01107533 0.0114036 0.0117077 0.01198176 0.01222525 0.01242667 0.01258166 0.012681
 0.01271902 0.01270306 0.01263038 0.01253078 0.01240625 0.01229058 0.01218626 0.01210542 0.01204764 0.01200401
 0.01197371 0.01194693 0.01192377 0.01190002 0.01187485 0.01184392 0.01180666 0.01175905 0.01170388 0.01164074
 0.01157905 0.01152221 0.01149196 0.01149709 0.01157017 0.01172583 0.01198658 0.01236533 0.0128525 0.01345268
 0.01412497 0.01486773 0.01562397 0.01639027 0.01710886 0.01777755 0.01835667 0.01884835 0.01924628 0.01955776
 0.01980635 0.02000264 0.02018426 0.02036257 0.02057562 0.02082818 0.02114409 0.02151546 0.02194509 0.02241967
 0.02293239 0.02347288 0.02403712 0.02461197 0.025195 0.02576771 0.0263262 0.02685995 0.02736659 0.02784895
 0.02830693 0.02874896 0.02917543 0.02959434 0.03000483 0.03040654 0.03079477 0.0311508 0.03146909 0.03172341
 0.03191588 0.03203644 0.03209395 0.03209561 0.03204853 0.03196117 0.03183828 0.03168432 0.03150417 0.03130078
 0.0310768 0.03083261 0.03057375 0.03029921 0.03002763 0.02976057 0.02951696 0.02929852 0.02910332 0.02893065
 0.02876479 0.0286056 0.02844504 0.02828382 0.02812124 0.02795672 0.02778802 0.02761524 0.02743689 0.0272549
 0.02707141 0.026887 0.02670323 0.02651922 0.02633555 0.02614899 0.02596034 0.02575872 0.0255428 0.02529652
 0.02501661 0.02469309 0.024324 0.02390815 0.02344517 0.02294032 0.02239424 0.0218205 0.02122004 0.02060732
 0.01998083 0.01934157 0.01868799 0.018014 0.01732444 0.01662448 0.01592126 0.0152278 0.01454369 0.01387388
 0.01321368 0.01256076 0.01191451 0.01127404 0.01063976 0.01001208 0.009388926 0.008769735 0.008154808 0.007544267
 0.006937474 0.006334721 0.005724295 0.005105326 0.004459804 0.003787722 0.003079652 0.002338555 0.001570528 0.0007816371
 -9.15174E-06 -0.0007956129 -0.001555981 -0.002290408 -0.002988661 -0.003657528 -0.004300229 -0.004920573 -0.005523067 -0.006105185
 -0.006665613 -0.007207357 -0.007729091 -0.00824342 -0.008752483 -0.009265698 -0.009785187 -0.01030862 -0.01083623 -0.011358
 -0.01187327 -0.01236937 -0.01284586 -0.01329278 -0.01371156 -0.01410241 -0.01446847 -0.01481877 -0.01515495 -0.01548498
 -0.01580738 -0.01612368 -0.01643151 -0.0167284 -0.0170152 -0.01729045 -0.01755987 -0.01782583 -0.01809162 -0.01836072
 -0.0186241 -0.01888136 -0.01911954 -0.01933588 -0.01953398 -0.01971355 -0.01988999 -0.0200636 -0.02023653 -0.02040724
 -0.02056289 -0.02070405 -0.02082555 -0.0209311 -0.02102911 -0.02112119 -0.02121491 -0.02130905 -0.02140507 -0.02150147
 -0.02159825 -0.0216914 -0.02177977 -0.02185553 -0.02191502 -0.0219531 -0.02196614 -0.02195837 -0.02192846 -0.02189078
 -0.02184624 -0.0218128 -0.02179203 -0.02179128 -0.02181038 -0.02183944 -0.0218776 -0.02191253 -0.02194565 -0.02197764
 -0.02200903 -0.02204398 -0.02207677 -0.02209921 -0.02210358 -0.02207424 -0.02201161 -0.02190724 -0.02177413 -0.0216149
 -0.02145163 -0.02129389 -0.02115959 -0.02105892 -0.0209872 -0.02094837 -0.02091471 -0.02088359 -0.02083054 -0.02075292
 -0.02065094 -0.02052504 -0.02039132 -0.02025034 -0.02011403 -0.01998122 -0.01985298 -0.01972795 -0.01960204 -0.01947605
 -0.01934863 -0.01922349 -0.01910529 -0.01899644 -0.01890218 -0.01881938 -0.0187483 -0.01868317 -0.01862126 -0.01855959
 -0.01849687 -0.01843095 -0.01836143 -0.01828525 -0.01820158 -0.01811209 -0.01801656 -0.01792408 -0.01783508 -0.01775802
 -0.01769238 -0.01763768 -0.01759191 -0.01754586 -0.01749746 -0.01743557 -0.01735996 -0.01726419 -0.01715088 -0.01702038
 -0.01687702 -0.01672451 -0.01656769 -0.01641056 -0.01625693 -0.01610939 -0.01597021 -0.0158404 -0.01572186 -0.01561484
 -0.0155225 -0.01544559 -0.01538334 -0.01533612 -0.01529391 -0.01525616 -0.01521215 -0.01516245 -0.01510773 -0.01504949
 -0.01499584 -0.01494625 -0.01490332 -0.01486565 -0.01483105 -0.01479994 -0.01477264 -0.01474791 -0.01472676 -0.01470126
 -0.01466708 -0.01461609 -0.0145409 -0.01444753 -0.01433356 -0.01421865 -0.01410654 -0.01401098 -0.01393576 -0.01387401
 -0.01382583 -0.01377681 -0.01372651 -0.01367322 -0.01361777 -0.01356814 -0.01352344 -0.01348397 -0.01344712 -0.01340482
 -0.01335573 -0.01329347 -0.01321723 -0.01312343 -0.01301104 -0.01287654 -0.01272335 -0.01255119 -0.01236847 -0.01217882
 -0.01198864 -0.01180088 -0.01161789 -0.01144041 -0.01127078 -0.01110934 -0.01095817 -0.01081761 -0.01068629 -0.010564
 -0.01044364 -0.01032392 -0.01018968 -0.0100397 -0.009858122 -0.009648548 -0.009411938 -0.009156482 -0.008900468 -0.008647348
 -0.008411948 -0.008188636 -0.007977305 -0.007771962 -0.007567584 -0.007363365 -0.007157483 -0.006951092 -0.006744302 -0.006537651
 -0.006331305 -0.006125428 -0.005920209 -0.005714371 -0.005507892 -0.005298584 -0.005086294 -0.004867449 -0.00464168 -0.004402889
 -0.004152468 -0.003892065 -0.003627463 -0.003378122 -0.003147112 -0.002954005 -0.002789283 -0.002649766 -0.002519773 -0.002381718
 -0.002226919 -0.002043879 -0.001829653 -0.001579543 -0.00129515 -0.0009740224 -0.0006282941 -0.0002609179 0.0001232944 0.0005205414
 0.0009549671 0.001428089 0.001963429 0.002561446 0.003200708 0.003877593 0.004545901 0.005206305 0.00583721 0.00644411
 0.007032101 0.00760773 0.00818462 0.00877369 0.009397387 0.01006091 0.01078656 0.01154729 0.01234259 0.01310951
 0.0138237 0.01441843 0.01486391 0.01513386 0.01520889 0.01513177 0.01490035 0.0146012 0.01424131 0.01388186
 0.01352571 0.01319015 0.01287612 0.01260036 0.01236425 0.01218905 0.01206569 0.01197851 0.01191345 0.01182681
 0.0117256 0.01159577 0.01146376 0.0113549 0.0112789 0.01125807 0.01126841 0.01130877 0.01133948 0.0113483
 0.01130333 0.01119265 0.01101438 0.01076262 0.0104759 0.01015571 0.009854975 0.009576336 0.009352987 0.009184857
 0.009084464 0.009048212 0.009068127 0.009133144 0.009203582 0.009270666 0.009290624 0.009274535 0.009217897 0.009139447
 0.009060437 0.008983551 0.008918105 0.008860053 0.008808737 0.008764406 0.008730001 0.00869123 0.008646131 0.008578822
 0.008483715 0.008378664 0.008264439 0.008160945 0.008069054 0.007988387 0.007918605 0.00785563 0.007800058 0.007754025
 0.007716556 0.007684105 0.007658726 0.007639851 0.007638304 0.007673231 0.00774424 0.007866175 0.008010383 0.008162756
 0.008294214 0.008382118 0.008427771 0.008422795 0.008391624 0.00833555 0.008289849 0.008259194 0.008274156 0.008339611
 0.008445328 0.008590553 0.008723044 0.008841206 0.008908398 0.008929478 0.008912344 0.008861711 0.008796783 0.008720238
 0.008643351 0.008577104 0.008543671 0.008549587 0.008618586 0.008725927 0.008864274 0.009001353 0.009114302 0.009201845
 0.009255942 0.009293442 0.009316757 0.009339409 0.009364306 0.009395115 0.009433074 0.009467175 0.009496997 0.009526098
 0.009557696 0.009633759 0.00975372 0.009941326 0.01018245 0.01043906 0.01070516 0.01094247 0.01116723 0.01139037
 0.01162044 0.01187674 0.0121447 0.01241927 0.01268893 0.01294508 0.01318681 0.01341389 0.01361803 0.01379713
 0.01394623 0.01406341 0.01415482 0.0142218 0.01425256 0.0142465 0.01418631 0.01407526 0.01394682 0.01380839
 0.01372374 0.01368772 0.01371834 0.01380203 0.01391468 0.01405156 0.01419771 0.0143438 0.01447929 0.01458161
 0.01462668 0.01461339 0.01452818 0.01440124 0.01424036 0.01406778 0.01389092 0.01371703 0.01354637 0.01339761
 0.01327192 0.01319281 0.01316154 0.01318186 0.01325171 0.01334877 0.01346675 0.01355849 0.01361905 0.01360052
 0.01351525 0.01336349 0.01316991 0.01297833 0.01279345 0.01264208 0.01250702 0.01238107 0.0122584 0.01213257
 0.01200724 0.01188656 0.01175422 0.01160857 0.01142779 0.01120536 0.01095068 0.01066214 0.01037714 0.01009766
 0.009859193 0.009661182 0.009508764 0.009394041 0.009274562 0.009141406 0.008933534 0.008663592 0.008321866 0.007946058
 0.007594748 0.007289758 0.007088971 0.006966499 0.006929546 0.00692302 0.00692008 0.006880858 0.006774585 0.006627933
 0.006429417 0.006278024 0.006188162 0.006229921 0.006418596 0.006679125 0.007007944</values></Ydata></AB><ScSm><Ydata ylabel="Single channel"><values byteorder="INTEL" format="FLOAT32" numvalues="1814"> 0.07323982 0.07326406 0.07334375 0.07350145 0.07371496 0.07392599 0.07407807 0.07415497 0.07417515 0.07415362
 0.07410011 0.07405913 0.07410699 0.07427956 0.07451937 0.07471099 0.07477187 0.07472497 0.07468818 0.07475832
 0.07488041 0.07486063 0.07455136 0.07402451 0.07352576 0.07324654 0.07320424 0.07339001 0.07388939 0.07464571
 0.07519825 0.07501459 0.07416264 0.07333744 0.07309212 0.07330882 0.07352193 0.07345197 0.07309352 0.0726162
 0.07241175 0.07298324 0.07445136 0.07615338 0.07688328 0.07564846 0.0723746 0.06813984 0.06478877 0.06394608
 0.06586465 0.06908277 0.07152011 0.07214131 0.07145827 0.07048373 0.06964949 0.06892389 0.06849357 0.06880001
 0.06991531 0.07113048 0.07131508 0.06987195 0.06745318 0.06551633 0.06500398 0.06573985 0.06719364 0.06905956
 0.0704727 0.06955124 0.06524292 0.05967959 0.05723411 0.06036306 0.06698674 0.07253771 0.07403083 0.07171147
 0.06770959 0.0642762 0.06296378 0.06420061 0.06717993 0.07053894 0.07320174 0.07443857 0.07368131 0.07101173
 0.06764057 0.06531372 0.06523666 0.06761141 0.07159938 0.07538413 0.07699288 0.07576321 0.07278944 0.06976044
 0.06784157 0.06768571 0.06960188 0.07321937 0.0774731 0.0812345 0.0837757 0.08481669 0.0845684 0.08360627
 0.08243689 0.08141835 0.08107336 0.08176589 0.08286095 0.08296841 0.08146232 0.07931562 0.0780934 0.07833278
 0.07911728 0.07919395 0.07823939 0.0766371 0.07422813 0.07032354 0.06526387 0.06080509 0.05836352 0.05795033
 0.05922431 0.06203999 0.06521444 0.0664475 0.06483061 0.06245286 0.06231462 0.06513356 0.06898293 0.0716671
 0.0727535 0.07343163 0.07497009 0.0774113 0.07938871 0.07914713 0.07628149 0.07273038 0.07140873 0.07334724
 0.07670723 0.07905751 0.07994654 0.08063559 0.08189074 0.0827906 0.08167653 0.07811286 0.07395973 0.07223415
 0.07448277 0.07923381 0.08306285 0.08312537 0.07907023 0.07313447 0.06840241 0.0666676 0.06793243 0.07156879
 0.07701454 0.08317618 0.08815104 0.09028842 0.0893928 0.08662604 0.08318416 0.07919053 0.07433147 0.06970265
 0.0680305 0.07108717 0.07741669 0.08355048 0.08710617 0.08797398 0.0869517 0.08425721 0.07976332 0.07445025
 0.0708822 0.07121179 0.07459393 0.07767212 0.07810318 0.07669079 0.07564296 0.07579764 0.07632224 0.07644181
 0.07653795 0.07751068 0.07951257 0.08162175 0.08274877 0.0826309 0.08186936 0.08121949 0.08090377 0.08045717
 0.07938319 0.07815186 0.07813603 0.08011042 0.0831867 0.0857248 0.08697042 0.08732505 0.08726219 0.08650047
 0.08442435 0.08126398 0.07857449 0.07808217 0.08000995 0.08294113 0.08529221 0.08644815 0.0865977 0.08615616
 0.08549058 0.08480421 0.08419324 0.08390069 0.0842575 0.08520754 0.08619998 0.08674105 0.08679804 0.08655235
 0.08604828 0.08526172 0.08435074 0.08366528 0.08349783 0.08386182 0.08452684 0.08522406 0.08574857 0.08593052
 0.08569267 0.08516794 0.08461407 0.08418138 0.0838768 0.08373246 0.08384077 0.08418902 0.08459328 0.08485745
 0.08492756 0.08485897 0.08470205 0.08446759 0.08417155 0.08387796 0.08369413 0.08370079 0.08386075 0.08403598
 0.08414038 0.08422387 0.08434515 0.08442937 0.08434932 0.08410864 0.08385143 0.08370578 0.08368331 0.08371703
 0.0837297 0.08364654 0.08339575 0.08297343 0.08252379 0.08228314 0.08238968 0.08278117 0.08329059 0.08377075
 0.08411394 0.08426181 0.08425158 0.08418259 0.08410029 0.08396453 0.08374515 0.0835063 0.08338314 0.08348069
 0.08378014 0.08414546 0.08443457 0.08458993 0.08463112 0.08462179 0.08465023 0.08476215 0.08488866 0.08490983
 0.08480856 0.08470185 0.08470272 0.08479578 0.08486789 0.08484127 0.08476058 0.08474207 0.08484444 0.08501467
 0.08516523 0.0852721 0.0853793 0.08552307 0.08566456 0.08570722 0.08559978 0.08541148 0.08526789 0.08522154
 0.0852344 0.08527804 0.08538112 0.08555867 0.08574877 0.08586079 0.08587293 0.08585212 0.08587009 0.08591783
 0.08592182 0.08583656 0.08569597 0.08557419 0.08552001 0.0855328 0.08557834 0.08561452 0.08561245 0.08556679
 0.08549158 0.08540465 0.08531611 0.08523715 0.08520091 0.08525229 0.085392 0.08553666 0.08556776 0.0854388
 0.08522522 0.0850549 0.08498843 0.08497375 0.08491604 0.08477643 0.08459467 0.08443273 0.08432031 0.08424929
 0.08419451 0.08413648 0.08408551 0.08409008 0.08419488 0.08437193 0.0845145 0.08452921 0.08442764 0.08430603
 0.08424576 0.08425781 0.08430758 0.08436106 0.08441342 0.08449313 0.08462487 0.08477711 0.08487749 0.08489721
 0.08488938 0.08493141 0.08506209 0.08527596 0.08552912 0.08574075 0.08584276 0.08585161 0.08585875 0.08593468
 0.08607104 0.0862218 0.08636615 0.08651218 0.08666638 0.08682837 0.08701099 0.08724195 0.08753664 0.08787357
 0.08819924 0.08846135 0.08865002 0.08881515 0.08903538 0.08935532 0.08974863 0.09014295 0.09048048 0.09075774
 0.091012 0.09127463 0.09154744 0.09182957 0.09214624 0.09252435 0.09294794 0.09336849 0.09375898 0.0941323
 0.09450765 0.09488462 0.09525664 0.0956331 0.0960388 0.09648959 0.09696351 0.0974014 0.09775287 0.09802569
 0.09828264 0.09859289 0.09898552 0.09942729 0.0998335 0.1001303 0.1003337 0.100545 0.1008405 0.1011883
 0.1015083 0.1017918 0.1021134 0.1025255 0.102983 0.1033897 0.1036973 0.1039442 0.1042025 0.1044986
 0.1047891 0.1050167 0.1051812 0.1053368 0.1055226 0.1057331 0.105966 0.1062584 0.106638 0.1070621
 0.1074469 0.1077446 0.1079649 0.1081381 0.1082877 0.1084286 0.1085636 0.1086894 0.1088156 0.1089579
 0.1091036 0.1092191 0.1093059 0.1094153 0.1095909 0.1098282 0.1101079 0.1104317 0.1107947 0.1111561
 0.1114799 0.1117941 0.1121607 0.1125769 0.1129481 0.1131846 0.1132933 0.1133442 0.1133817 0.1134155
 0.1134745 0.1136033 0.1138014 0.1140074 0.114157 0.114228 0.1142284 0.1141639 0.1140301 0.113826
 0.1135738 0.1133286 0.1131702 0.1131766 0.1133971 0.1138277 0.1143999 0.1150057 0.1155473 0.1159616
 0.1162034 0.1162434 0.1161072 0.1158878 0.1156722 0.1154518 0.115126 0.1145944 0.1138239 0.1128338
 0.1116488 0.1102939 0.1088232 0.1073336 0.1059401 0.1047378 0.1037921 0.1031601 0.1029 0.1030315
 0.1034806 0.1040818 0.1046438 0.1050028 0.1050207 0.1045872 0.103669 0.1023493 0.1007886 0.09914716
 0.09754103 0.09603758 0.09466145 0.09343086 0.09242897 0.09183738 0.09187328 0.09267965 0.09425716 0.09646063
 0.09903529 0.1016832 0.1041536 0.1063179 0.1081763 0.1097968 0.1112499 0.1125904 0.113867 0.1151071
 0.1162933 0.1173886 0.1183874 0.1193192 0.1202011 0.1210106 0.1217007 0.1222207 0.1225352 0.1226467
 0.1225963 0.1224314 0.122186 0.1218906 0.121565 0.1211763 0.1206274 0.1198118 0.1186898 0.1173292
 0.1159133 0.114732 0.1141383 0.1144529 0.1158374 0.1182053 0.1212459 0.1245537 0.1277665 0.1306278
 0.1329948 0.1348446 0.1362661 0.1374054 0.1383933 0.1393096 0.1401886 0.1410347 0.1418367 0.1425832
 0.1432732 0.1439184 0.1445386 0.1451473 0.1457347 0.1462741 0.1467544 0.1472038 0.1476714 0.1481857
 0.1487285 0.1492528 0.1497324 0.1501888 0.1506556 0.1511259 0.1515585 0.1519346 0.1522829 0.1526491
 0.1530618 0.1535221 0.1539997 0.1544402 0.1548017 0.1550928 0.1553609 0.1556472 0.1559621 0.156296
 0.1566369 0.1569737 0.1572991 0.1576186 0.1579514 0.1583067 0.1586583 0.1589607 0.1591972 0.1594022
 0.1596271 0.1598907 0.1601704 0.1604337 0.1606751 0.160928 0.1612343 0.1615988 0.1619733 0.1622972
 0.1625506 0.1627654 0.1629871 0.1632374 0.1635101 0.1637926 0.1640785 0.1643649 0.1646479 0.1649252
 0.1651987 0.1654716 0.1657458 0.166021 0.1662928 0.1665536 0.1667989 0.1670315 0.1672622 0.1675103
 0.1677959 0.1681216 0.1684584 0.1687647 0.1690196 0.1692342 0.1694323 0.169633 0.1698497 0.1700913
 0.1703593 0.1706461 0.1709409 0.1712363 0.17153 0.1718219 0.1721126 0.1724016 0.1726864 0.1729628
 0.1732316 0.1735032 0.173789 0.1740881 0.1743849 0.174663 0.1749188 0.1751653 0.1754228 0.1757027
 0.1759945 0.1762758 0.1765364 0.1767856 0.1770365 0.1772923 0.1775502 0.1778086 0.1780649 0.178316
 0.178563 0.1788124 0.1790686 0.1793295 0.1795892 0.1798435 0.1800936 0.1803426 0.1805939 0.1808501
 0.1811109 0.1813712 0.1816244 0.1818708 0.1821172 0.1823684 0.182623 0.1828776 0.1831303 0.1833814
 0.183634 0.1838906 0.1841482 0.1843988 0.1846378 0.1848707 0.1851099 0.1853621 0.1856185 0.1858648
 0.1860997 0.1863372 0.1865868 0.1868429 0.1870948 0.1873391 0.1875814 0.1878337 0.1881047 0.1883899
 0.1886743 0.18895 0.1892215 0.1894919 0.1897555 0.1900038 0.1902341 0.1904513 0.1906656 0.1908857
 0.1911158 0.191359 0.1916147 0.1918733 0.192123 0.1923628 0.1926015 0.1928451 0.1930946 0.1933505
 0.1936119 0.1938758 0.1941395 0.1944006 0.1946569 0.1949101 0.1951643 0.195421 0.1956814 0.1959495
 0.1962243 0.1964985 0.1967686 0.1970359 0.1972976 0.1975496 0.1977955 0.1980407 0.1982865 0.1985372
 0.1987982 0.1990666 0.1993374 0.1996123 0.199889 0.2001565 0.2004126 0.2006686 0.2009286 0.2011856
 0.2014371 0.201686 0.2019334 0.2021839 0.2024438 0.2027095 0.2029728 0.2032333 0.2034935 0.2037517
 0.2040104 0.2042726 0.2045316 0.2047809 0.2050265 0.2052737 0.2055211 0.205772 0.2060262 0.2062586
 0.2064148 0.2063723 0.2058188 0.2041188 0.2002974 0.1932343 0.1821039 0.1668886 0.1485681 0.1287806
 0.1092197 0.09118183 0.07542442 0.06226834 0.05177958 0.04388192 0.03841001 0.03520764 0.03425124 0.03578614
 0.04046159 0.04894055 0.0604565 0.07154492 0.0773973 0.07565775 0.06867159 0.0613437 0.05706363 0.05607425
 0.05693668 0.0584244 0.06014816 0.06232645 0.06533779 0.06928933 0.07399605 0.07944584 0.08602775 0.09403232
 0.10305 0.1121403 0.1206373 0.1286663 0.1368269 0.1454573 0.1542723 0.1626405 0.1700854 0.1765203
 0.1821495 0.1872476 0.1920037 0.1965013 0.2007795 0.2048373 0.2085389 0.211569 0.2135846 0.214479
 0.2145072 0.2141425 0.213798 0.2136656 0.2137643 0.2140633 0.2145385 0.2151676 0.2159271 0.2167909
 0.2177247 0.2186908 0.2196597 0.220606 0.2215031 0.2223324 0.2230901 0.2237792 0.2244043 0.2249748
 0.2255027 0.2259951 0.2264542 0.2268836 0.2272922 0.2276928 0.2280906 0.2284722 0.2288141 0.2291079
 0.2293667 0.2296095 0.2298484 0.2300891 0.2303311 0.2305692 0.2308035 0.2310425 0.2312914 0.2315437
 0.2317877 0.2320165 0.2322307 0.2324365 0.2326409 0.2328458 0.2330497 0.2332557 0.2334676 0.233684
 0.233901 0.2341209 0.2343459 0.2345704 0.2347874 0.2349997 0.2352176 0.2354463 0.2356793 0.2359043
 0.2361179 0.2363328 0.2365643 0.2368125 0.237065 0.2373142 0.237561 0.2378072 0.2380542 0.2383015
 0.2385397 0.2387535 0.2389385 0.2391111 0.2392993 0.2395238 0.2397799 0.2400376 0.2402697 0.2404761
 0.2406746 0.2408752 0.2410746 0.2412664 0.2414529 0.2416534 0.2418904 0.2421604 0.2424352 0.2427006
 0.2429684 0.2432432 0.2435133 0.2437753 0.2440324 0.244266 0.2444483 0.2445918 0.244764 0.2450355
 0.2454099 0.2458097 0.246148 0.2464083 0.2466386 0.2468881 0.2471767 0.2474798 0.2477047 0.2477527
 0.2476712 0.2476804 0.2479725 0.2485213 0.249138 0.2496623 0.2500568 0.2503667 0.2506421 0.2508889
 0.2510647 0.2511297 0.2511252 0.251197 0.2514917 0.2520027 0.2525629 0.2530201 0.2533569 0.253622
 0.2538441 0.2540403 0.2541789 0.2541157 0.2537431 0.2532718 0.2531831 0.2537637 0.2547798 0.2557241
 0.2563199 0.2566703 0.2569717 0.2572706 0.2575155 0.2576099 0.2573048 0.2563382 0.2549485 0.2540179
 0.2543443 0.2558362 0.2576616 0.2590779 0.2599012 0.2603212 0.2605729 0.2607782 0.2608648 0.2605774
 0.2597638 0.258761 0.2583193 0.2589134 0.2602053 0.2614038 0.2620728 0.2623601 0.2625759 0.2628455
 0.2630263 0.2626505 0.2611867 0.2588258 0.256886 0.2568857 0.2590562 0.2620628 0.2643276 0.2653886
 0.2657787 0.2658658 0.2653179 0.2637095 0.2611514 0.2582375 0.2558935 0.2552795 0.2570115 0.2601725
 0.2628322 0.26396 0.2642906 0.2650749 0.2665749 0.268065 0.2687946 0.2685778 0.2676503 0.2662416
 0.2644691 0.2627543 0.2620639 0.2632187 0.2659037 0.2687817 0.2707342 0.2717099 0.2721436 0.2716557
 0.2687942 0.2627867 0.2557222 0.2519635 0.2542907 0.2609864 0.2676786 0.2716404 0.2732739 0.2740381
 0.2745077 0.2742271 0.2719539 0.266308 0.2579156 0.2508066 0.2496985 0.2553208 0.2635902 0.2694382
 0.2702944 0.2663704 0.2597228 0.2536163 0.2511901 0.2535591 0.2593413 0.2660253 0.2714721 0.2744837
 0.2747856 0.2729172 0.2701825 0.2683266 0.2682784 0.2687739 0.2673085 0.2633027 0.2590742 0.2564192
 0.253802 0.2491722 0.2444888 0.2444164 0.25028 0.2578658 0.2621666 0.2624476 0.2613115 0.2599191
 0.2559538 0.2469308 0.23489 0.2264318 0.2269143 0.2348721 0.2433216 0.2465669 0.2446752 0.2414153
 0.2392683 0.2370464 0.2318252 0.2229523 0.2139633 0.2096269 0.2109064 0.214141 0.215369 0.2134388
 0.2085172 0.2008518 0.1931608 0.1914004 0.1996187 0.2148767 0.2295542 0.2375722 0.2364905 0.2260884
 0.2093367 0.1942768 0.1900582 0.1986994 0.2126312 0.2216925 0.2211664 0.2124988 0.1989497 0.1834609
 0.1701255 0.1644659 0.1700592 0.1849678 0.201897 0.2117879 0.2087609 0.1947145 0.179792 0.1750478
 0.1823398 0.1930743 0.1978826 0.1951483 0.1895297 0.1859498 0.1867756 0.1915593 0.1975084 0.2020593
 0.2049012 0.2050256 0.1979281 0.1810497 0.1610078 0.1492683 0.1502233 0.1588606 0.1699633 0.1828141
 0.195341 0.2008633 0.1956491 0.1860695 0.1832394 0.1912116 0.2034721 0.2109018 0.2108052 0.2074268
 0.2053283 0.2044787 0.2025878 0.2004637 0.2021613 0.2094271 0.2186806 0.2250258 0.2273408 0.2278166
 0.228216 0.2285315 0.2282624 0.2272336 0.2255199 0.2235684 0.2220701 0.2212147 0.2205291 0.2196071
 0.2181148 0.2147108 0.2073369 0.19611 0.1851807 0.1794894 0.1795558 0.1817424 0.1836227 0.1854118
 0.18503 0.1767278 0.1587507 0.1395515 0.1316396 0.1395191 0.1563656 0.1717631 0.1796569 0.1788183
 0.1696667 0.1544764 0.1400156 0.1355113 0.1450965 0.1637774 0.1827416 0.1969579 0.2058074 0.2088948
 0.2051123 0.1956969 0.1855205 0.180351 0.1833091 0.1934339 0.2060232 0.2138759 0.2107631 0.1975816
 0.1852181 0.186597 0.2031121 0.2223375 0.2319909 0.2324151 0.2317609 0.2333145 0.2337772 0.2320586
 0.232899 0.2402735 0.2514647 0.2597111 0.2601268 0.2516111 0.2361807 0.2194052 0.2090139 0.2088369
 0.2147197 0.2193384 0.2194777 0.2154472 0.2066069 0.1935186 0.1829331 0.1836149 0.1960744 0.2113496
 0.2211541 0.2253969 0.228519 0.2317943 0.2317736 0.2255619 0.2157547 0.2088607 0.2088568 0.2136815
 0.218633 0.22128 0.2214711 0.2185495 0.2117803 0.2035101 0.1991577 0.2025204 0.2118796 0.221652
 0.227401 0.2285909 0.2272488 0.2253582 0.2235618 0.2213095 0.2181191 0.2152494 0.2154773 0.2200708
 0.2266433 0.2315343 0.2339589 0.2362641 0.2402287 0.244637 0.2468469 0.2457868 0.2430279 0.241412
 0.2427705 0.2464772 0.2498923 0.250555 0.2484903 0.2464146 0.2472593 0.2513938 0.2565941 0.2605559
 0.2627698 0.2640467 0.2651554 0.2661615 0.2663987 0.2649904 0.2620971 0.2596335 0.2598995 0.2632794
 0.2678552 0.2713617 0.2729967 0.2732961 0.2729103 0.2719473 0.2703203 0.2683272 0.2666625 0.2658834
 0.2660143 0.2666933 0.2675414 0.2683228 0.2689237 0.269336 0.269625 0.2698447 0.2700112 0.2701476
 0.2702681 0.2703097 0.2701752 0.2698838 0.2695964 0.2694388 0.2693569 0.2692017 0.2688931 0.2684138
 0.2676938 0.2666272 0.265216 0.2635846 0.2618135 0.2598725 0.2578375 0.2561316 0.2553969 0.2560173
 0.2577665 0.2599523 0.2618874 0.2632242 0.2639505 0.2642156 0.2642062 0.2640939 0.2639956 0.263944
 0.2639076 0.2638445 0.2637367 0.2635865 0.2634059 0.2632211 0.2630697 0.2629725 0.262907 0.2628153
 0.262637 0.2623383 0.2619248 0.2614343 0.260903 0.2603261 0.2596503 0.2588152 0.2578069 0.2566741
 0.2554988 0.2543522 0.2532643 0.2522132 0.2511438 0.2500017 0.2487415 0.2473141 0.2457021 0.2439913
 0.2423514 0.2409007 0.2396108 0.2383672 0.2370825 0.2357296 0.2343168 0.2328744 0.2314458 0.2300643
 0.2287377 0.2274582 0.2262133 0.2249816 0.2237304 0.2224232 0.2210356 0.2195671 0.2180417 0.2164902
 0.2149172 0.2132669 0.211419 0.2092239 0.206535 0.2032207 0.1991958 0.194491 0.1892911 0.1838855
 0.1785704 0.1735812 0.1690729 0.165131 0.161792 0.1590613 0.156927 0.1553806 0.1544304 0.1540928
 0.1543777 0.1552785 0.1567549 0.1587147 0.1610205 0.1635121 0.1660224 0.1684017 0.170573 0.1725671
 0.1744817 0.1763877 0.1782711 0.1800625 0.1817116 0.1832145 0.1845696 0.1857442 0.1867127 0.1875013
 0.1881669 0.1887513 0.1892747 0.1897509 0.1901897 0.1905926 0.1909614 0.1913072 0.1916544 0.1920395
 0.1924962 0.1930398 0.1936723 0.1943989 0.1952308 0.1961752 0.1972238 0.1983473 0.1995097 0.2006941
 0.2019048 0.2031483 0.2044359 0.2058039 0.2073039 0.2089651 0.2107807 0.2127208 0.2147378 0.2167609
 0.2186979 0.22045 0.2219391 0.223134 0.2240511 0.2247296 0.2252128 0.2255472 0.2257742 0.2259188
 0.2259904 0.2259861 0.2258916 0.2256973 0.2254168 0.2250766 0.2246933 0.2242734 0.2238282 0.2233779
 0.2229416 0.2225239 0.2221083 0.2216757 0.2212304 0.2207919 0.2203605 0.2199166 0.2194504 0.2189718
 0.2184847 0.2179682 0.2173799 0.2166752 0.2158332 0.2148632 0.2137831 0.2126028 0.2113339 0.209992
 0.2085826 0.2070997 0.2055423 0.2039122 0.2021983 0.2003733 0.1984079 0.1962938 0.1940749 0.1918484
 0.1897114 0.1877064 0.1858282 0.1840625 0.1823994 0.1808261 0.1793289 0.1778966 0.1765228 0.1752133
 0.1739851 0.1728456 0.1717794 0.1707617 0.1697811 0.1688543 0.1680208 0.1673115 0.1667172 0.1661994
 0.1657279 0.1652974 0.1649239 0.1646416 0.164484 0.1644428 0.1644529 0.1644334 0.1643401 0.1641788
 0.163985 0.1637929 0.1636219 0.1634842 0.163384 0.1632894 0.16312 0.1627758 0.1621698 0.1612352
 0.1599427 0.1583268 0.1564787 0.1545169 0.1525764 0.150796 0.1492772 0.1480588 0.1471255 0.1464197
 0.1458554 0.1453664 0.1449498 0.1446562 0.1445414 0.1446094 0.1447695 0.1448745 0.1448503 0.1447792
 0.1448249 0.1450975 0.1455965 0.1462331 0.1468784 0.1474235 0.1478146 0.1480408 0.1481197 0.1480953
 0.1480065 0.1478514 0.1476104 0.1472853 0.1468901 0.1464337 0.1459284 0.1453793 0.1447663 0.1440683
 0.1432848 0.1424129 0.1414395 0.1403588 0.1391484 0.1377624 0.1362397 0.1347975 0.1337373 0.1332517
 0.1333278 0.1337821 0.1343845 0.1349905 0.1355242 0.1358424 0.1357952 0.1355504 0.1357075 0.1368623
 0.1390323 0.141603 0.1438373 0.1453574 0.1461591 0.1463452 0.1459853 0.1451289 0.1437792 0.1418924
 0.139504 0.1367789 0.1338873 0.1309532 0.1281354 0.1255995 0.1234197 0.121607 0.1201723 0.1191884
 0.1188132 0.1186777 0.1168997 0.1110828 0.101991 0.09518377 0.09634711 0.1049023 0.1143974 0.1193265
 0.1195209 0.1178958 0.1164637 0.1155295 0.1149954 0.1150094 0.1157113 0.1169754 0.1184136 0.119603
 0.1203589 0.1207092 0.120603 0.1196917 0.1172905 0.112607 0.1053841 0.09647977 0.08757362 0.08017972
 0.07497835 0.07185946 0.07024584 0.06941777 0.06887226 0.06856269 0.06878676 0.06982804 0.07171039 0.07426133
 0.0772911 0.0805788 0.08374994 0.08640381 0.08842197 0.08998425 0.09124751 0.0921634 0.09262082 0.0926131
 0.09223971 0.09164134 0.0909417 0.09018669 0.08932041 0.08825222 0.08699988 0.08578633 0.08492251 0.08453672
 0.08448169 0.08453794 0.08460563 0.0846708 0.08471566 0.0847197 0.08468413 0.08465445 0.08474302 0.0850538
 0.08554289 0.08602843 0.08636013 0.08652399 0.0865939 0.08661002 0.08648102 0.08606381 0.08542003 0.08485128
 0.08449849 0.08406197 0.08318026 0.08198984 0.08104959 0.08074488 0.08095732 0.08129263 0.08145715 0.08139867
 0.0812478 0.08122878 0.08152139 0.08205058</values></Ydata></ScSm><ScRf><Ydata ylabel="Single channel"><values byteorder="INTEL" format="FLOAT32" numvalues="1820"> 0.06044149 0.06058518 0.06067406 0.06071232 0.06072242 0.06074297 0.06081596 0.06095837 0.06114425 0.06131858
 0.0614368 0.06149474 0.061514 0.06150524 0.06147115 0.06144553 0.0614906 0.06163424 0.06182701 0.06197443
 0.06201327 0.06196987 0.06194698 0.06202259 0.0621412 0.06213187 0.06187 0.06142073 0.06099365 0.0607495
 0.06070327 0.06085023 0.06126544 0.0619034 0.0623779 0.06223926 0.06153765 0.06084919 0.06063668 0.06080732
 0.06097856 0.0609189 0.06062085 0.06022235 0.06004948 0.0605237 0.06174784 0.06317003 0.06378187 0.0627493
 0.06000589 0.05645464 0.05364339 0.05293244 0.05453008 0.0572141 0.05925183 0.05978333 0.05923335 0.05843926
 0.05775429 0.05714845 0.05677801 0.05701791 0.05793878 0.05895422 0.05911513 0.05791338 0.05588933 0.05426158
 0.05381981 0.05442092 0.0556285 0.05719025 0.05837908 0.05761671 0.05402416 0.04938807 0.04736604 0.05000936
 0.05557311 0.06022862 0.06147142 0.05951062 0.05614635 0.05327876 0.05220275 0.05325559 0.0557485 0.05854677
 0.06076157 0.06178537 0.06114241 0.05890513 0.05608945 0.0541516 0.05409347 0.05608154 0.05941423 0.06257356
 0.06391472 0.06288975 0.06041294 0.05788881 0.05628549 0.05614862 0.0577395 0.06075151 0.06429769 0.06743718
 0.06956139 0.07043502 0.07023612 0.06945176 0.06850912 0.0677007 0.06744666 0.06803668 0.06893887 0.06900366
 0.06772403 0.06592291 0.06490727 0.06511661 0.06577519 0.06583282 0.06502379 0.06367469 0.06165489 0.05838796
 0.0541585 0.05043431 0.0483968 0.04805493 0.04913141 0.05151471 0.05421154 0.05527708 0.05393214 0.05192577
 0.05178674 0.05413162 0.05735032 0.05959999 0.06051699 0.06109964 0.06240897 0.06447237 0.06613636 0.06592897
 0.06351864 0.06054154 0.05944695 0.06109496 0.06393554 0.06592578 0.06668791 0.06728142 0.06834918 0.06911935
 0.06820346 0.06524041 0.06179371 0.06039175 0.06232341 0.0663452 0.06957962 0.06963836 0.0662289 0.06123801
 0.05726667 0.05582708 0.0569234 0.06003295 0.06468901 0.069971 0.07426764 0.07616943 0.07548697 0.07318683
 0.07029053 0.06692779 0.06284741 0.05897396 0.05761225 0.06026762 0.06571005 0.07099482 0.07409343 0.07490801
 0.0741125 0.07188321 0.06810254 0.06361173 0.06062363 0.06100093 0.06402045 0.06678437 0.06725796 0.06612267
 0.06528833 0.06549418 0.06603023 0.06622669 0.06641641 0.06738456 0.06925978 0.071228 0.07232964 0.07233071
 0.07175772 0.07127969 0.07109907 0.07080569 0.0699602 0.06898732 0.06911306 0.07101841 0.07389513 0.07627297
 0.07748704 0.07791141 0.07797687 0.07742421 0.07568705 0.07296379 0.07065628 0.07033095 0.07220179 0.07499316
 0.07726258 0.07843966 0.0786951 0.07841607 0.07794297 0.07746077 0.07705557 0.07694412 0.07741864 0.07842112
 0.07945153 0.08006513 0.08023155 0.08010968 0.07973692 0.07910094 0.07836445 0.07785696 0.07783538 0.078293
 0.07901546 0.07977368 0.08039223 0.08069889 0.0805916 0.08018541 0.07974664 0.07944691 0.07929663 0.07930559
 0.07954209 0.07999088 0.08048289 0.08083446 0.08099328 0.08101538 0.08095925 0.08084411 0.08068391 0.08053154
 0.08048107 0.08059911 0.08083875 0.08107112 0.08124126 0.08142887 0.08169244 0.08192402 0.08195816 0.08178818
 0.08158191 0.08149602 0.08154689 0.08165511 0.08173962 0.08173487 0.08157479 0.08124971 0.08089286 0.08073285
 0.08091009 0.08137631 0.08197953 0.08257162 0.08302669 0.0832666 0.08332211 0.08330075 0.08326152 0.08317237
 0.08300385 0.08281946 0.08275599 0.08292016 0.0832943 0.08374259 0.08411799 0.08435196 0.08445749 0.08450658
 0.08460374 0.08479896 0.0850075 0.08508892 0.08502389 0.08494637 0.08498169 0.08510569 0.08518881 0.08515226
 0.0850568 0.08503616 0.08515567 0.08535622 0.08553827 0.08567343 0.0858176 0.0860218 0.0862402 0.08634423
 0.08625461 0.08604605 0.08587645 0.08582215 0.0858418 0.08589567 0.08601536 0.0862233 0.08644892 0.08658317
 0.08659972 0.08657896 0.08660665 0.08667438 0.08669662 0.08661149 0.08644509 0.0862835 0.0862029 0.0862235
 0.08630572 0.0863792 0.08638836 0.0863248 0.0862211 0.08611468 0.08602355 0.08596391 0.08598049 0.08612496
 0.08637741 0.08660676 0.08665405 0.08647683 0.0861983 0.08599693 0.08594614 0.08596461 0.0859146 0.08573431
 0.08547382 0.08522478 0.08503933 0.08491299 0.08481824 0.08474025 0.08469422 0.08471918 0.08483563 0.08498979
 0.08506101 0.08496054 0.08472066 0.08446261 0.08428578 0.08420907 0.08419509 0.08419503 0.08418645 0.08419557
 0.08426139 0.08435968 0.08440283 0.0843419 0.08423129 0.08417127 0.08422375 0.08438934 0.08460993 0.08477892
 0.08480889 0.08471879 0.0846192 0.08459666 0.08464559 0.08471698 0.0847887 0.08486863 0.08496207 0.08506685
 0.08519098 0.08535421 0.0855683 0.08581797 0.08605927 0.08624348 0.08635911 0.08645573 0.086612 0.08686824
 0.08719027 0.08750004 0.08774053 0.08791678 0.08807932 0.08826824 0.08847973 0.08869515 0.08892469 0.08919546
 0.08950491 0.08981782 0.09011005 0.09038998 0.09067512 0.09096843 0.0912639 0.09156857 0.09191226 0.09232022
 0.09276271 0.09314799 0.0933959 0.09351936 0.09362009 0.09381016 0.09413581 0.09454311 0.09490173 0.09510392
 0.09517452 0.09525537 0.09545135 0.09572434 0.09597541 0.09619775 0.09648714 0.09690399 0.0973777 0.09777002
 0.09800997 0.09814874 0.09829092 0.09848412 0.09868127 0.09881304 0.09888239 0.09896129 0.09909962 0.09928294
 0.09949468 0.0997674 0.1001299 0.1005371 0.1008999 0.1011709 0.1013665 0.1015233 0.1016617 0.1017771
 0.1018468 0.10186 0.1018549 0.101895 0.1019931 0.1020916 0.1021409 0.102165 0.1022279 0.1023648
 0.1025745 0.1028465 0.103158 0.1034604 0.1037194 0.10397 0.1042831 0.1046571 0.104985 0.1051655
 0.1052165 0.1052344 0.1052751 0.1053308 0.1054081 0.1055563 0.1058046 0.1061197 0.1064479 0.106769
 0.1070953 0.1074328 0.1077552 0.1080082 0.1081425 0.1081552 0.1081046 0.1080837 0.1081714 0.1083909
 0.1086991 0.10902 0.1092957 0.1095003 0.1096128 0.1096164 0.109548 0.109513 0.1096018 0.1097873
 0.109937 0.1099283 0.1097276 0.1093638 0.1088673 0.1082609 0.1075913 0.1069388 0.1063866 0.1059846
 0.10575 0.1057031 0.1058861 0.1063228 0.1069587 0.1076682 0.1083286 0.1088578 0.1091804 0.109209
 0.1089027 0.1083237 0.1076045 0.1068688 0.1061881 0.1055776 0.1050057 0.1044397 0.1039231 0.1036025
 0.1036574 0.104197 0.1052116 0.1065791 0.1080971 0.1095448 0.1107707 0.1117491 0.1125512 0.1132619
 0.1139285 0.1145766 0.1152338 0.1159051 0.1165448 0.1170949 0.1175533 0.1179719 0.1183887 0.1187891
 0.1191358 0.119409 0.1196221 0.1198131 0.1200122 0.1201986 0.1203081 0.1203032 0.1202167 0.120107
 0.1199901 0.1198319 0.1195877 0.1192378 0.1188147 0.1184266 0.118248 0.1184494 0.119101 0.1201282
 0.121369 0.1226749 0.1239505 0.1251109 0.1260579 0.1267334 0.1271747 0.1274842 0.1277549 0.128034
 0.1283335 0.1286451 0.1289507 0.1292366 0.1295046 0.1297737 0.130071 0.1304099 0.1307656 0.1310858
 0.1313417 0.131565 0.1318238 0.1321587 0.1325448 0.1329185 0.1332461 0.1335533 0.1338763 0.1341977
 0.1344628 0.1346551 0.1348216 0.1350263 0.1353041 0.1356528 0.1360318 0.1363707 0.1366166 0.1367828
 0.136932 0.1371127 0.1373281 0.1375617 0.137805 0.138055 0.1383065 0.1385635 0.1388447 0.1391581
 0.1394709 0.1397247 0.1398935 0.1400145 0.1401536 0.1403468 0.1405777 0.1408051 0.1410072 0.1412066
 0.1414494 0.1417512 0.1420676 0.1423301 0.1425096 0.1426379 0.1427695 0.1429355 0.1431333 0.1433438
 0.1435499 0.143745 0.1439373 0.1441433 0.1443719 0.1446109 0.1448375 0.1450406 0.1452282 0.1454164
 0.1456149 0.1458234 0.1460402 0.146274 0.1465419 0.1468432 0.1471415 0.1473886 0.1475683 0.1477036
 0.1478275 0.1479605 0.1481135 0.1482927 0.1484941 0.1487044 0.1489103 0.1491069 0.1493 0.1494987
 0.1497063 0.1499173 0.1501239 0.1503251 0.1505283 0.1507419 0.1509654 0.1511879 0.1513995 0.1516015
 0.1518015 0.1520019 0.1522005 0.1523953 0.1525844 0.1527667 0.1529479 0.1531368 0.153334 0.1535314
 0.1537246 0.1539174 0.1541134 0.1543094 0.1545011 0.1546889 0.1548773 0.1550706 0.1552703 0.1554749
 0.1556803 0.1558813 0.1560746 0.1562617 0.156447 0.1566342 0.1568253 0.1570221 0.1572224 0.1574212
 0.1576175 0.1578165 0.1580207 0.1582267 0.1584302 0.1586306 0.1588281 0.1590222 0.1592133 0.1594028
 0.1595935 0.1597896 0.159993 0.1602015 0.1604141 0.1606334 0.1608582 0.1610809 0.161294 0.1614962
 0.1616936 0.1618979 0.1621184 0.1623522 0.1625872 0.1628149 0.1630348 0.1632468 0.1634473 0.1636325
 0.1638041 0.1639704 0.1641409 0.1643168 0.164493 0.1646691 0.1648504 0.1650364 0.1652199 0.1653986
 0.1655779 0.1657643 0.1659612 0.1661671 0.1663758 0.1665819 0.1667871 0.1669961 0.1672095 0.1674246
 0.1676366 0.167839 0.1680322 0.168227 0.168431 0.168639 0.168844 0.1690477 0.1692542 0.1694639
 0.169676 0.1698876 0.1700929 0.1702928 0.1704947 0.170702 0.1709116 0.1711229 0.1713362 0.1715492
 0.1717618 0.171978 0.1721968 0.1724125 0.1726206 0.17282 0.1730139 0.1732129 0.1734249 0.1736446
 0.1738646 0.1740871 0.1743135 0.1745377 0.1747572 0.1749739 0.1751842 0.1753872 0.1755943 0.1758134
 0.1760358 0.1762494 0.176449 0.1766248 0.1767412 0.1766891 0.1761907 0.1747039 0.1714041 0.1653319
 0.1557679 0.1426874 0.1269325 0.1099158 0.09309483 0.07758635 0.06405056 0.05277144 0.04379845 0.03704559
 0.03235895 0.02961113 0.02879204 0.03011085 0.03411871 0.0413873 0.05126754 0.06078816 0.06581378 0.06431258
 0.05829697 0.05198544 0.04829607 0.04744123 0.04818826 0.04948571 0.05099337 0.05288459 0.05547265 0.05885001
 0.06286936 0.06753457 0.07318758 0.08007392 0.08782993 0.09563787 0.102926 0.109811 0.1168184 0.1242415
 0.1318274 0.1390251 0.1454263 0.150963 0.1558092 0.1601912 0.1642685 0.1681245 0.1718062 0.1753126
 0.1785134 0.1811243 0.1828476 0.1835969 0.1836014 0.1832767 0.1829785 0.1828639 0.1829447 0.1832008
 0.1836192 0.1841782 0.1848481 0.1856015 0.1864095 0.1872422 0.1880762 0.1888916 0.1896659 0.1903835
 0.1910426 0.1916471 0.1922002 0.1927079 0.1931769 0.1936104 0.1940127 0.194391 0.1947501 0.195093
 0.1954249 0.1957473 0.1960498 0.1963201 0.1965593 0.196781 0.1969979 0.1972143 0.1974282 0.1976369
 0.1978415 0.1980454 0.1982514 0.1984597 0.1986685 0.198875 0.1990799 0.1992873 0.1994972 0.1997023
 0.1998986 0.2000926 0.2002914 0.2004908 0.2006825 0.2008648 0.2010433 0.201224 0.2014095 0.2015981
 0.2017873 0.2019787 0.2021746 0.2023715 0.2025679 0.2027747 0.203002 0.2032397 0.2034678 0.2036817
 0.2038913 0.2041012 0.2043087 0.2045148 0.2047211 0.2049187 0.2050947 0.2052502 0.2054069 0.20559
 0.2058027 0.2060241 0.2062337 0.2064311 0.2066253 0.2068172 0.2070009 0.207173 0.2073401 0.2075232
 0.2077469 0.2080104 0.2082828 0.2085383 0.2087794 0.2090167 0.2092521 0.2094865 0.2097157 0.209915
 0.2100594 0.2101689 0.2103149 0.2105655 0.2109191 0.211298 0.2116184 0.2118634 0.2120776 0.212309
 0.2125779 0.2128637 0.2130861 0.213157 0.2131092 0.2131263 0.2133756 0.2138426 0.2143719 0.2148297
 0.2151833 0.2154665 0.2157165 0.2159368 0.2160959 0.2161646 0.2161767 0.2162493 0.2165064 0.2169534
 0.2174583 0.2178834 0.2181955 0.2184294 0.2186194 0.2187887 0.2189089 0.2188526 0.2185278 0.218118
 0.2180385 0.2185375 0.2194171 0.2202438 0.2207778 0.2210994 0.2213694 0.2216291 0.2218449 0.2219402
 0.2216956 0.2208738 0.2196776 0.2188796 0.2191794 0.2204932 0.2220892 0.2233247 0.224051 0.224436
 0.2246775 0.2248792 0.2249807 0.22476 0.2240812 0.2232393 0.2228917 0.2234506 0.2246118 0.2256759
 0.2262658 0.2265274 0.2267438 0.2270165 0.2272011 0.2268806 0.2255992 0.2235381 0.2218567 0.2218808
 0.2238066 0.2264607 0.2284611 0.2294052 0.2297626 0.2298581 0.2294005 0.2280135 0.2257915 0.2232575
 0.2212261 0.2207135 0.2222579 0.2250569 0.2274222 0.2284487 0.2287696 0.2294707 0.2307845 0.2320891
 0.2327347 0.2325541 0.2317496 0.2305282 0.2290031 0.2275467 0.2269985 0.2280619 0.2304461 0.2329756
 0.2346787 0.2355254 0.2359134 0.2355208 0.2330719 0.2278742 0.2217419 0.2184875 0.2205448 0.2264204
 0.2323015 0.2358054 0.2372733 0.2379725 0.2384073 0.2381849 0.2362232 0.2313204 0.224028 0.2178658
 0.2169521 0.2219228 0.2292109 0.234386 0.2351963 0.2318211 0.2260568 0.2207635 0.2186955 0.2208403
 0.2259972 0.2319609 0.2368399 0.239574 0.2399266 0.2383756 0.2360667 0.2345376 0.2346109 0.2351711
 0.2340048 0.230599 0.2269965 0.2247815 0.2226049 0.2186678 0.2147071 0.2148436 0.2202427 0.2271688
 0.2311891 0.2316633 0.2309095 0.2299561 0.2267416 0.2190642 0.2087613 0.2017477 0.2028443 0.2107791
 0.2193362 0.223453 0.2232344 0.2220791 0.2221432 0.2221542 0.2192064 0.212565 0.2055483 0.2027237
 0.2050233 0.208899 0.2104915 0.2086802 0.2036679 0.195759 0.1876422 0.1851476 0.1922863 0.2063057
 0.2198821 0.2271561 0.2258027 0.2156343 0.1994748 0.1849724 0.1808607 0.1890886 0.2024378 0.2111874
 0.2108021 0.2026444 0.189834 0.1752044 0.1627003 0.1576526 0.163538 0.1785142 0.1955243 0.2057442
 0.2033947 0.1902846 0.1763376 0.172419 0.1803556 0.1916614 0.1970796 0.1950071 0.1900462 0.1871047
 0.188614 0.1941777 0.2009661 0.2063507 0.2099881 0.2107719 0.2039744 0.1869119 0.1664343 0.1544359
 0.1555056 0.1645025 0.1760685 0.189479 0.2025547 0.2083001 0.2027892 0.1926258 0.1893736 0.1972734
 0.2095936 0.2168936 0.2163863 0.2124743 0.209902 0.2086763 0.206454 0.2040498 0.2056078 0.2129222
 0.2223356 0.2288218 0.2311946 0.231674 0.2320868 0.2324763 0.2323745 0.231624 0.2302911 0.2287849
 0.2277407 0.2272983 0.2269703 0.2263918 0.2252804 0.2222602 0.2151497 0.2040151 0.1931505 0.1876892
 0.1881536 0.1907579 0.1930336 0.19527 0.195266 0.1868756 0.1681304 0.1478788 0.1393553 0.1474024
 0.1648618 0.1807123 0.1885139 0.1869619 0.176565 0.1597981 0.1437386 0.1379074 0.1465326 0.1644773
 0.1827019 0.1960591 0.2039855 0.206216 0.2017229 0.191729 0.1810246 0.1752711 0.1774997 0.1867162
 0.1982901 0.2052426 0.2016292 0.1883794 0.1759352 0.1766285 0.1917902 0.2096066 0.2184006 0.2184872
 0.2176019 0.2188737 0.2191851 0.2175004 0.2183101 0.2254076 0.2362771 0.2445708 0.24568 0.2385493
 0.2251327 0.2109256 0.2035438 0.2065711 0.2154276 0.2223195 0.2237787 0.2201976 0.2112124 0.1976717
 0.1865761 0.1868651 0.1990526 0.2140372 0.2234473 0.2272671 0.230054 0.2330977 0.2328764 0.2264275
 0.2163324 0.2091348 0.2088634 0.2134928 0.2183444 0.2210241 0.221423 0.2188906 0.2126505 0.2049976
 0.2013213 0.2053909 0.2154192 0.2257173 0.2317682 0.2330343 0.2315955 0.2294729 0.2272963 0.2244767
 0.2205216 0.2167451 0.21603 0.2197447 0.2255588 0.2298369 0.2318119 0.2338488 0.23774 0.2422469
 0.2446146 0.2435741 0.2405324 0.2383277 0.2389453 0.2419445 0.2447927 0.2450352 0.2426382 0.2402434
 0.2407367 0.2445006 0.2493701 0.25309 0.2551436 0.2562927 0.2572687 0.258138 0.2582559 0.2567562
 0.2537748 0.2511749 0.2512241 0.2543381 0.2586801 0.2620595 0.2637075 0.2641555 0.2640226 0.2633715
 0.2620722 0.26039 0.2589909 0.2584083 0.258657 0.2593839 0.2602325 0.2609934 0.2615688 0.2619521
 0.2622057 0.2623862 0.2625149 0.2626211 0.2627319 0.2628044 0.262764 0.2626485 0.2626277 0.2628127
 0.2631091 0.2633176 0.2633186 0.2630779 0.2625405 0.2616437 0.2604328 0.2590448 0.2575417 0.2558718
 0.2541051 0.2526653 0.2521876 0.2530485 0.2550287 0.2574519 0.2596359 0.2612239 0.262194 0.2626942
 0.2629053 0.2629746 0.2629827 0.2629385 0.2628175 0.2626096 0.2623318 0.2620046 0.2616363 0.2612412
 0.2608593 0.2605358 0.2602713 0.2600056 0.2596633 0.2592135 0.2586886 0.2581486 0.2576253 0.25709
 0.256474 0.2557265 0.254853 0.2539103 0.2529746 0.2521081 0.251325 0.2505832 0.2498226 0.2490084
 0.2481217 0.2471282 0.2460088 0.2448302 0.2437376 0.2428446 0.2421417 0.2415231 0.2408757 0.2401298
 0.2392599 0.2382806 0.2372387 0.236181 0.2351227 0.2340443 0.2329063 0.2316653 0.2303012 0.2288342
 0.2273036 0.2257332 0.224132 0.2225132 0.2208719 0.2191417 0.2171927 0.2148778 0.2120734 0.2086985
 0.2047357 0.200258 0.1954305 0.1904714 0.185588 0.180937 0.1766312 0.1727664 0.1694327 0.1667063
 0.1646419 0.1632692 0.1625951 0.1626169 0.1633283 0.1647047 0.16668 0.1691427 0.1719501 0.1749434
 0.1779539 0.1808167 0.1834146 0.1857347 0.1878648 0.189897 0.1918366 0.1936234 0.1952149 0.1966137
 0.1978284 0.1988552 0.1996985 0.2003853 0.2009529 0.2014328 0.2018442 0.2021981 0.2025032 0.2027664
 0.2029929 0.2031937 0.2033881 0.2035941 0.2038174 0.2040542 0.2043024 0.2045757 0.2049084 0.2053302
 0.2058327 0.2063771 0.2069404 0.2075333 0.2081691 0.2088471 0.2095756 0.2103917 0.2113437 0.2124605
 0.2137316 0.2151048 0.2164994 0.2178276 0.2190116 0.2199956 0.22075 0.2212666 0.2215529 0.2216376
 0.2215676 0.221384 0.2211049 0.2207366 0.2202915 0.2197853 0.2192278 0.2186271 0.2179941 0.2173356
 0.2166522 0.215948 0.2152397 0.2145464 0.2138746 0.2132206 0.2125834 0.2119669 0.2113706 0.2107886
 0.2102183 0.2096611 0.2091145 0.2085712 0.2080204 0.2074399 0.2067926 0.2060458 0.2051971 0.2042675
 0.2032677 0.2021825 0.2009928 0.1997016 0.1983297 0.1968905 0.1953824 0.1938042 0.1921653 0.1904706
 0.188701 0.1868237 0.1848348 0.1827905 0.1807867 0.1789047 0.1771763 0.1755885 0.1741093 0.1727097
 0.1713755 0.1701019 0.1688828 0.1677144 0.1666046 0.1655639 0.1645879 0.1636591 0.1627705 0.1619424
 0.1612104 0.1605925 0.1600696 0.1596066 0.159188 0.1588248 0.1585409 0.1583662 0.1583233 0.1583932
 0.1585048 0.1585754 0.1585586 0.1584561 0.1583032 0.1581455 0.1580148 0.1579218 0.1578603 0.1577966
 0.1576556 0.1573411 0.1567713 0.155896 0.1547018 0.153216 0.1515002 0.1496502 0.1478038 0.1461119
 0.1446753 0.1435235 0.1426428 0.1419881 0.1414854 0.1410761 0.1407613 0.1405863 0.1405932 0.1407757
 0.1410417 0.1412444 0.1413089 0.1413172 0.1414382 0.1417979 0.1424137 0.1431947 0.143989 0.1446703
 0.1451884 0.1455426 0.1457535 0.1458633 0.1459094 0.1458896 0.1457857 0.1456021 0.1453571 0.1450653
 0.1447334 0.1443401 0.1438436 0.1432352 0.1425484 0.141804 0.1409984 0.1401244 0.1391447 0.1380062
 0.1367714 0.1356805 0.1350132 0.1349177 0.1353627 0.1361741 0.1371428 0.1381566 0.1391611 0.1399744
 0.1403447 0.1403399 0.1405333 0.1415845 0.1436056 0.1460319 0.1481295 0.1495348 0.1502684 0.150411
 0.1499772 0.1490103 0.1475631 0.1456214 0.1431934 0.140392 0.1373485 0.1341884 0.1311194 0.1283684
 0.1260444 0.1241669 0.1227303 0.1217617 0.1213769 0.1212014 0.119344 0.1133741 0.1040721 0.09711036
 0.09827527 0.1069567 0.1165803 0.1215538 0.1217133 0.1200282 0.1185494 0.1175841 0.1170363 0.117079
 0.1178633 0.1192272 0.1207325 0.1219394 0.122682 0.1230271 0.122955 0.1221 0.1197116 0.1149461
 0.1075532 0.0984339 0.08931953 0.08177393 0.07649902 0.07336189 0.07174774 0.07091779 0.07036804 0.07005984
 0.07030022 0.07137419 0.07331001 0.0759566 0.07913527 0.08259753 0.08593557 0.08874802 0.09092675 0.09264541
 0.09405085 0.09508795 0.09563322 0.09567374 0.0953148 0.09469324 0.09392754 0.09309341 0.09218048 0.09110534
 0.0898635 0.08866763 0.08782156 0.08743072 0.08733528 0.08733013 0.08733203 0.08733501 0.08733482 0.08732685
 0.08731452 0.08732668 0.08744318 0.08773828 0.08817302 0.08859946 0.08888455 0.089004 0.08902618 0.0889935
 0.08880013 0.08828318 0.08751263 0.08682428 0.08638622 0.08589248 0.08494116 0.08363186 0.08253953 0.08211031
 0.08226715 0.08259925 0.08276057 0.08265847 0.0824385 0.08239521 0.08276023 0.08341902 0.08391473 0.08387507
</values></Ydata></ScRf><Data_Parameters_AB><parameter name="DPF">1</parameter><parameter name="NPT">3497</parameter><parameter name="FXV">3996</parameter><parameter name="LXV">500</parameter><parameter name="CSF">1</parameter><parameter name="MXY">0.0525628738105297</parameter><parameter name="MNY">-0.0822318121790886</parameter><parameter name="DAT">27/05/2022</parameter><parameter name="TIM">11:30:12.352 (GMT+2)</parameter><parameter name="DXU">WN</parameter></Data_Parameters_AB><AB__Qtest><MainReport name="Quality Test Report"><Header><Line><Legend>Test result ok/not ok [1/0]: </Legend><Value>0</Value></Line><Line><Legend>Method file: </Legend><Value>C:\Users\Public\Documents\Bruker\OPUS_8.2.28\QT\IRBT_v3_default.QT</Value></Line></Header><Matrix><Line><Legend></Legend><Legend>min</Legend><Legend>max</Legend><Legend>measured</Legend></Line><Line><Value>Absorption (X-Range 1):</Value><Value>0.400000</Value><Value>2.000000</Value><Value>0.081680</Value></Line><Line><Value>Noise (X-Range 4):</Value><Value></Value><Value>0.000300</Value><Value>0.000042</Value></Line><Line><Value>Signal/Noise (X-Range 2):</Value><Value>200.000000</Value><Value></Value><Value>31.664938</Value></Line><Line><Value>Signal/Noise (X-Range 3):</Value><Value>40.000000</Value><Value></Value><Value>34.856612</Value></Line><Line><Value>Water vapour (X-Range 5):</Value><Value></Value><Value>0.000300</Value><Value>0.000067</Value></Line><Line><Value>Signal/Water (X-Range 2):</Value><Value>100.000000</Value><Value></Value><Value>19.967882</Value></Line><Line><Value>Signal/Water (X-Range 3):</Value><Value>20.000000</Value><Value></Value><Value>21.980548</Value></Line><Line><Value>Fringes (X-Range 6):</Value><Value></Value><Value>0.000100</Value><Value>0.000054</Value></Line></Matrix></MainReport></AB__Qtest><Data_Parameters_ScSm><parameter name="DPF">1</parameter><parameter name="NPT">1814</parameter><parameter name="FXV">3996.33169228125</parameter><parameter name="LXV">499.541461535156</parameter><parameter name="CSF">1</parameter><parameter name="MXY">0.27478563785553</parameter><parameter name="MNY">0.0342512428760529</parameter><parameter name="DAT">27/05/2022</parameter><parameter name="TIM">11:30:12.352 (GMT+2)</parameter><parameter name="DXU">WN</parameter></Data_Parameters_ScSm><Data_Parameters_ScRf><parameter name="DPF">1</parameter><parameter name="NPT">1820</parameter><parameter name="FXV">4004.04661832813</parameter><parameter name="LXV">495.683998511719</parameter><parameter name="CSF">1</parameter><parameter name="MXY">0.264155477285385</parameter><parameter name="MNY">0.0287920422852039</parameter><parameter name="DAT">27/05/2022</parameter><parameter name="TIM">11:29:46.503 (GMT+2)</parameter><parameter name="DXU">WN</parameter></Data_Parameters_ScRf><Optic_Parameters_Rf><parameter name="APR">0</parameter><parameter name="APT">Open</parameter><parameter name="BMS">KBr</parameter><parameter name="DTC">RT-DLaTGS_IR-Biotyper [Microplate reader]</parameter><parameter name="HPF">0</parameter><parameter name="LPF">10.0</parameter><parameter name="LPV">4000</parameter><parameter name="PGR">0</parameter><parameter name="RCH">Module port</parameter><parameter name="RDX">0</parameter><parameter name="SRC">MIR</parameter><parameter name="VEL">10.0</parameter><parameter name="SON">Off</parameter></Optic_Parameters_Rf><Acquisition_Parameters_Rf><parameter name="ADT">1</parameter><parameter name="AQM">DD</parameter><parameter name="CFE">0</parameter><parameter name="COR">0</parameter><parameter name="DEL">0</parameter><parameter name="DLY">0</parameter><parameter name="HFW">8000</parameter><parameter name="LFW">0</parameter><parameter name="NSR">32</parameter><parameter name="PLF">AB</parameter><parameter name="RES">6</parameter><parameter name="RGN">-1</parameter><parameter name="STR">0</parameter><parameter name="TCL">MakeCompatibleScalar (0, {WSV=1.000000, ARV=0});</parameter><parameter name="TDL">37</parameter><parameter name="RPO">0</parameter></Acquisition_Parameters_Rf><FT_-_Parameters_Rf><parameter name="APF">B3</parameter><parameter name="HFQ">500</parameter><parameter name="LFQ">4000</parameter><parameter name="NLI">0</parameter><parameter name="PHR">24</parameter><parameter name="PHZ">ML</parameter><parameter name="SPZ">NO</parameter><parameter name="ZFF">1</parameter></FT_-_Parameters_Rf><Optic_Parameters_><parameter name="APR">0</parameter><parameter name="APT">Open</parameter><parameter name="BMS">KBr</parameter><parameter name="CHN">Module port</parameter><parameter name="DTC">RT-DLaTGS_IR-Biotyper [Microplate reader]</parameter><parameter name="HPF">0</parameter><parameter name="LPF">10.0</parameter><parameter name="LPV">4000</parameter><parameter name="PGN">0</parameter><parameter name="RDX">0</parameter><parameter name="SRC">MIR</parameter><parameter name="VEL">10.0</parameter><parameter name="SON">Off</parameter></Optic_Parameters_><FT_-_Parameters_><parameter name="APF">B3</parameter><parameter name="HFQ">500</parameter><parameter name="LFQ">4000</parameter><parameter name="NLI">0</parameter><parameter name="PHR">24</parameter><parameter name="PHZ">ML</parameter><parameter name="SPZ">NO</parameter><parameter name="ZFF">1</parameter></FT_-_Parameters_><Acquisition_Parameters_><parameter name="ADT">1</parameter><parameter name="AQM">DD</parameter><parameter name="CFE">0</parameter><parameter name="COR">0</parameter><parameter name="DEL">0</parameter><parameter name="DLY">0</parameter><parameter name="HFW">8000</parameter><parameter name="LFW">0</parameter><parameter name="NSS">32</parameter><parameter name="PLF">AB</parameter><parameter name="RES">6</parameter><parameter name="SOT">0</parameter><parameter name="TCL">MakeCompatibleScalar (0, {WSV=1.000000, ARV=0});</parameter><parameter name="TDL">37</parameter><parameter name="SPO">0</parameter><parameter name="SGN">-1</parameter></Acquisition_Parameters_><Instrument_Parameters_Rf><parameter name="HFL">15800.168544</parameter><parameter name="LFL">0</parameter><parameter name="LWN">15800.168544</parameter><parameter name="ABP">32197</parameter><parameter name="SSP">1</parameter><parameter name="ARG">2</parameter><parameter name="ASG">2</parameter><parameter name="ASS">32</parameter><parameter name="GFW">16</parameter><parameter name="GBW">16</parameter><parameter name="BFW">0</parameter><parameter name="BBW">0</parameter><parameter name="PKA">7267</parameter><parameter name="PKL">4996</parameter><parameter name="PRA">7446</parameter><parameter name="PRL">5001</parameter><parameter name="P2A">1</parameter><parameter name="P2L">1</parameter><parameter name="P2R">1</parameter><parameter name="P2K">1</parameter><parameter name="DAQ">0</parameter><parameter name="AG2">1</parameter><parameter name="SSM">1</parameter><parameter name="RSN">24852</parameter><parameter name="CRR">0</parameter><parameter name="SRT">1653650986.503</parameter><parameter name="DUR">19.635986328125</parameter><parameter name="TSC">27.2</parameter><parameter name="MVD">0.478610694408417</parameter><parameter name="AN1">0.22579637556797</parameter><parameter name="AN2">0</parameter><parameter name="VSN">2.485 Apr  4 2017</parameter><parameter name="SRN">0085</parameter><parameter name="CAM">0</parameter><parameter name="INS">IR-Biotyper</parameter><parameter name="FOC">69</parameter><parameter name="RDY">1</parameter><parameter name="ARS">32</parameter></Instrument_Parameters_Rf><Sample_Parameters_><parameter name="BLD"></parameter><parameter name="CNM">Admin</parameter><parameter name="CPY"></parameter><parameter name="DPM"></parameter><parameter name="EXP">IRBT_v3_32Scans.XPM</parameter><parameter name="LCT"></parameter><parameter name="SFM">Microplate, HTS-XT</parameter><parameter name="SNM">220527-1039(v.2)_GFG29M (D_4)_B4_c18fe936-f5f3-49cf-9dea-f901e6c2a0fa.0</parameter><parameter name="XPP">C:\Users\Public\Documents\Bruker\OPUS_8.2.28\XPM</parameter><parameter name="IST">OK</parameter><parameter name="CPG">1252</parameter><parameter name="UID">e68cb0b0-b375-4fb1-95aa-b9497158adfe</parameter></Sample_Parameters_><Instrument_Parameters_><parameter name="HFL">15800.168544</parameter><parameter name="LFL">0</parameter><parameter name="LWN">15800.168544</parameter><parameter name="ABP">32197</parameter><parameter name="SSP">1</parameter><parameter name="ASG">2</parameter><parameter name="ARG">2</parameter><parameter name="ASS">32</parameter><parameter name="GFW">16</parameter><parameter name="GBW">16</parameter><parameter name="BFW">0</parameter><parameter name="BBW">0</parameter><parameter name="PKA">7832</parameter><parameter name="PKL">4988</parameter><parameter name="PRA">8155</parameter><parameter name="PRL">4993</parameter><parameter name="P2A">1</parameter><parameter name="P2L">1</parameter><parameter name="P2R">1</parameter><parameter name="P2K">1</parameter><parameter name="DAQ">0</parameter><parameter name="AG2">1</parameter><parameter name="SSM">1</parameter><parameter name="RSN">13052</parameter><parameter name="CRR">0</parameter><parameter name="SRT">1653651012.353</parameter><parameter name="DUR">19.635986328125</parameter><parameter name="TSC">27.2</parameter><parameter name="MVD">0.263979494571686</parameter><parameter name="AN1">0.225798822484287</parameter><parameter name="AN2">0</parameter><parameter name="VSN">2.485 Apr  4 2017</parameter><parameter name="SRN">0085</parameter><parameter name="CAM">0</parameter><parameter name="INS">IR-Biotyper</parameter><parameter name="FOC">69</parameter><parameter name="RDY">1</parameter></Instrument_Parameters_><History/></OPUSDataFile>
