<?xml version="1.0" encoding="UTF-8" ?>
<OPUSDataFile><AB><Ydata ylabel="Absorbance Units"><values byteorder="INTEL" format="FLOAT32" numvalues="3497"> -0.09395928 -0.09403548 -0.09412501 -0.09422922 -0.09432871 -0.09442247 -0.09448482 -0.09451587 -0.09450818 -0.09446638
 -0.09441315 -0.09435331 -0.09431785 -0.09430333 -0.09431916 -0.0943552 -0.09439837 -0.09444386 -0.09447937 -0.09450913
 -0.09453282 -0.09455352 -0.09457365 -0.09459164 -0.09460604 -0.09462182 -0.09463818 -0.09466936 -0.09471826 -0.09478875
 -0.09488287 -0.09498077 -0.09508144 -0.09515983 -0.0952164 -0.09524998 -0.0952643 -0.09528159 -0.09530279 -0.09534526
 -0.09540246 -0.0954688 -0.09553548 -0.0955842 -0.09561417 -0.09561382 -0.09559634 -0.09556559 -0.09554128 -0.09553639
 -0.09555767 -0.09561522 -0.09568888 -0.09577846 -0.09585077 -0.09589901 -0.0959126 -0.09588776 -0.09585088 -0.09580325
 -0.09578224 -0.09578802 -0.09583271 -0.09591173 -0.09600361 -0.09610513 -0.09619135 -0.09626701 -0.09633053 -0.09638823
 -0.09645233 -0.09651945 -0.09659258 -0.09666117 -0.09671637 -0.09675594 -0.09677351 -0.09678022 -0.096779 -0.09677736
 -0.09677911 -0.09677978 -0.09677836 -0.0967771 -0.09677502 -0.0967909 -0.09682577 -0.09689441 -0.09699571 -0.09711849
 -0.09725844 -0.09738298 -0.09749058 -0.09755605 -0.09758579 -0.09758132 -0.09755211 -0.0975146 -0.09747476 -0.09744626
 -0.09743021 -0.09743388 -0.09744965 -0.09747682 -0.0975031 -0.09752169 -0.09753393 -0.09753612 -0.09754739 -0.0975706
 -0.09761802 -0.09769276 -0.09777932 -0.09787705 -0.09795965 -0.09802721 -0.09807575 -0.09810849 -0.09814452 -0.0981844
 -0.09824248 -0.09831223 -0.09838572 -0.09845497 -0.0984996 -0.0985247 -0.09852475 -0.09851664 -0.09851483 -0.09852222
 -0.09854849 -0.09857681 -0.09860162 -0.09861562 -0.09861117 -0.09861168 -0.09861756 -0.09866577 -0.09876117 -0.09891733
 -0.0991359 -0.09935327 -0.09956352 -0.0996572 -0.09964405 -0.09952942 -0.09933452 -0.09914503 -0.09896535 -0.09885034
 -0.0987919 -0.09880491 -0.09886896 -0.09896979 -0.09907944 -0.0991679 -0.0992266 -0.09923489 -0.09922197 -0.09919237
 -0.09917868 -0.09919441 -0.09923568 -0.09930643 -0.0993794 -0.09945173 -0.09950887 -0.09954958 -0.09958582 -0.0996187
 -0.09966809 -0.09973259 -0.09981456 -0.09990799 -0.09999129 -0.1000601 -0.1000896 -0.1000862 -0.1000469 -0.09998575
 -0.09991799 -0.0998552 -0.09981221 -0.09979416 -0.09980863 -0.09985425 -0.09993411 -0.1000375 -0.1001646 -0.1002942
 -0.1004236 -0.1005297 -0.1006096 -0.1006494 -0.1006481 -0.1006069 -0.1005268 -0.100425 -0.1003034 -0.1001839
 -0.100067 -0.09996645 -0.0998824 -0.09982147 -0.09978465 -0.09977745 -0.0997982 -0.09984987 -0.09992188 -0.1000086
 -0.1000949 -0.1001692 -0.1002276 -0.1002638 -0.1002888 -0.1003044 -0.1003194 -0.1003363 -0.1003534 -0.1003704
 -0.1003882 -0.1004068 -0.1004365 -0.1004776 -0.1005362 -0.10061 -0.100687 -0.100765 -0.1008262 -0.1008753
 -0.1009141 -0.1009497 -0.1009977 -0.1010556 -0.1011292 -0.101206 -0.1012754 -0.1013356 -0.1013771 -0.101422
 -0.1014758 -0.1015594 -0.1016846 -0.1018355 -0.1020152 -0.1021793 -0.1023226 -0.1024226 -0.1024777 -0.1024853
 -0.1024452 -0.1023487 -0.1021992 -0.1020134 -0.1018014 -0.1016133 -0.1014539 -0.1013649 -0.1013375 -0.1013805
 -0.1014695 -0.1015779 -0.1016886 -0.1017724 -0.1018396 -0.1018875 -0.1019291 -0.1019719 -0.1020115 -0.1020503
 -0.1020729 -0.1020769 -0.1020505 -0.1019909 -0.1019047 -0.1017916 -0.101679 -0.1015687 -0.101493 -0.1014517
 -0.1014629 -0.1015198 -0.1016089 -0.1017165 -0.1017961 -0.1018464 -0.1018365 -0.1017906 -0.1017273 -0.1016649
 -0.1016312 -0.1016168 -0.1016279 -0.1016382 -0.1016372 -0.1016103 -0.1015473 -0.1014624 -0.1013552 -0.1012493
 -0.1011483 -0.1010591 -0.1009827 -0.1009059 -0.1008282 -0.100738 -0.1006377 -0.1005405 -0.1004488 -0.1003806
 -0.100333 -0.1003062 -0.1002985 -0.1003059 -0.1003309 -0.1003766 -0.1004392 -0.1005216 -0.1006039 -0.1006776
 -0.1007203 -0.1007185 -0.1006693 -0.1005679 -0.1004239 -0.1002374 -0.1000199 -0.09977207 -0.09950887 -0.09923131
 -0.09895258 -0.09867343 -0.09840621 -0.09815274 -0.09793296 -0.09774759 -0.09761345 -0.09752346 -0.09746857 -0.09743899
 -0.09740941 -0.09738264 -0.09735182 -0.09732237 -0.0973063 -0.09727614 -0.09722463 -0.09710867 -0.09689783 -0.09661228
 -0.09624374 -0.09585626 -0.09546109 -0.09509798 -0.09477426 -0.09449633 -0.09426551 -0.09406737 -0.09390102 -0.09374909
 -0.09361172 -0.09348325 -0.09336257 -0.09324586 -0.09312357 -0.09296851 -0.09277137 -0.09249366 -0.09215482 -0.09175901
 -0.09134057 -0.09093385 -0.09055436 -0.09022409 -0.08993801 -0.0897029 -0.08949542 -0.08931252 -0.08912507 -0.08892598
 -0.08870498 -0.08845928 -0.08819355 -0.08790811 -0.08760097 -0.08727185 -0.08691312 -0.08652592 -0.08611453 -0.08568247
 -0.08524667 -0.08481058 -0.08439157 -0.08399284 -0.08362927 -0.08329976 -0.08301242 -0.08275443 -0.08251949 -0.08228934
 -0.08205 -0.08179353 -0.08151335 -0.08120659 -0.0808731 -0.08050143 -0.080088 -0.07963315 -0.07913288 -0.07862908
 -0.07812386 -0.07766807 -0.07726271 -0.07691611 -0.07662405 -0.07635788 -0.07611276 -0.07585211 -0.07557573 -0.07526165
 -0.0749184 -0.0745501 -0.07416946 -0.07379696 -0.07343494 -0.07309826 -0.07276757 -0.07243835 -0.07208304 -0.07168391
 -0.07124394 -0.0707543 -0.07025372 -0.06974757 -0.06926931 -0.06882536 -0.06841787 -0.06804813 -0.06769296 -0.06735108
 -0.0669978 -0.06663314 -0.0662465 -0.0658389 -0.06540858 -0.06495707 -0.06448539 -0.06400007 -0.06351218 -0.06303201
 -0.06258031 -0.06215597 -0.06176969 -0.06140349 -0.06104933 -0.06069247 -0.06032066 -0.05994242 -0.05955517 -0.05918158
 -0.0588271 -0.05849832 -0.05819929 -0.05790497 -0.05761443 -0.05729068 -0.05693265 -0.05652691 -0.0560769 -0.05560505
 -0.05511535 -0.05463921 -0.0541742 -0.05373086 -0.05330178 -0.05287637 -0.0524519 -0.05201719 -0.05158107 -0.05114533
 -0.05072596 -0.05033557 -0.0499782 -0.04966443 -0.04937018 -0.04909382 -0.04879867 -0.04847537 -0.0481118 -0.04770274
 -0.04727015 -0.04681492 -0.04636447 -0.04591962 -0.0454882 -0.04506936 -0.04465828 -0.04425568 -0.04386197 -0.0434793
 -0.04311524 -0.04276877 -0.04244321 -0.04213244 -0.04182982 -0.04152967 -0.04122307 -0.04091079 -0.04059023 -0.04026501
 -0.03993672 -0.03960557 -0.03927153 -0.03893616 -0.03859871 -0.03826766 -0.03794437 -0.03763191 -0.03733129 -0.03702635
 -0.03671612 -0.03637839 -0.03601444 -0.03562383 -0.03521277 -0.03480957 -0.03441925 -0.03407393 -0.03376833 -0.03351062
 -0.03328508 -0.03307333 -0.03286368 -0.03263508 -0.03239244 -0.03213139 -0.03186338 -0.03159468 -0.03132441 -0.03105469
 -0.03077741 -0.0304897 -0.03019579 -0.02989479 -0.02960174 -0.02931783 -0.02905149 -0.02880282 -0.0285674 -0.02834388
 -0.02811939 -0.02789149 -0.02764166 -0.02736891 -0.02705803 -0.02671578 -0.02634526 -0.02596138 -0.02558565 -0.02523042
 -0.02491742 -0.02464608 -0.02442493 -0.02424166 -0.02409431 -0.02396681 -0.02385447 -0.02374375 -0.02363129 -0.023508
 -0.02337201 -0.02322078 -0.02305373 -0.0228754 -0.02268597 -0.02248926 -0.02228464 -0.0220673 -0.02183684 -0.02158693
 -0.02132172 -0.02104884 -0.02077577 -0.02052299 -0.02029083 -0.02009246 -0.01991375 -0.01974784 -0.01957597 -0.01938045
 -0.01916043 -0.01890516 -0.01864215 -0.01837528 -0.01813834 -0.01794186 -0.01778957 -0.01768646 -0.0176002 -0.01752881
 -0.01744284 -0.0173416 -0.01723362 -0.01712142 -0.01703384 -0.01696933 -0.01693714 -0.01693013 -0.01693153 -0.0169352
 -0.01692001 -0.0168844 -0.01681649 -0.0167191 -0.01658914 -0.01643502 -0.01626033 -0.01607544 -0.01588688 -0.01569755
 -0.01551033 -0.01532226 -0.01513137 -0.01494619 -0.01476569 -0.01461517 -0.01449668 -0.01442713 -0.01440671 -0.0144186
 -0.01445992 -0.01449495 -0.01452472 -0.01453412 -0.01452931 -0.01452408 -0.01451718 -0.01451636 -0.01450878 -0.01447674
 -0.01441727 -0.01431324 -0.01418987 -0.0140561 -0.01394327 -0.01387382 -0.01384491 -0.01386686 -0.01390042 -0.0139402
 -0.01394863 -0.01391734 -0.01384559 -0.01373094 -0.0136109 -0.01348757 -0.01340822 -0.01337268 -0.01340018 -0.01348341
 -0.01359763 -0.01373294 -0.01384412 -0.01392938 -0.01395958 -0.01394662 -0.01389196 -0.01381688 -0.01374271 -0.01368679
 -0.01367182 -0.0136921 -0.01375686 -0.01383277 -0.01391278 -0.01396338 -0.01397339 -0.01393967 -0.01385867 -0.01374806
 -0.0136094 -0.01344771 -0.01326313 -0.01304764 -0.01280312 -0.01254294 -0.01227493 -0.01204668 -0.01186348 -0.01177196
 -0.01176118 -0.01183658 -0.01197025 -0.01212556 -0.01227538 -0.01237414 -0.01242038 -0.01239113 -0.01231993 -0.0122112
 -0.01211559 -0.01205047 -0.01205003 -0.01212884 -0.01228042 -0.01250951 -0.01277332 -0.01306941 -0.01335134 -0.01361696
 -0.01384769 -0.0140448 -0.01421591 -0.01436156 -0.0144894 -0.01459654 -0.01467671 -0.01472928 -0.014746 -0.01473737
 -0.01471067 -0.01468891 -0.01469659 -0.01475611 -0.01489471 -0.01511132 -0.01541954 -0.01578488 -0.01620372 -0.01662598
 -0.01704001 -0.01741241 -0.01773505 -0.01800481 -0.0182196 -0.01839993 -0.01854696 -0.01869284 -0.01883875 -0.01901037
 -0.01920436 -0.01941806 -0.01964434 -0.01985642 -0.02005483 -0.02022336 -0.02037652 -0.02052875 -0.02069361 -0.02089525
 -0.02112685 -0.02139654 -0.02167674 -0.02195872 -0.02221121 -0.02242051 -0.02257338 -0.02265936 -0.02270341 -0.02270295
 -0.02272066 -0.02276113 -0.02288223 -0.02308665 -0.02337634 -0.02374648 -0.02414405 -0.02456395 -0.02494966 -0.02530408
 -0.02560581 -0.02586293 -0.02608256 -0.02627166 -0.02644353 -0.02660333 -0.02676128 -0.02692047 -0.02708683 -0.02725935
 -0.02743982 -0.02762352 -0.02780958 -0.02799296 -0.02817252 -0.02834412 -0.02850678 -0.02865959 -0.02880188 -0.02894158
 -0.02907915 -0.02923043 -0.02939595 -0.02958757 -0.02980341 -0.03004035 -0.03029436 -0.0305506 -0.0308061 -0.03104624
 -0.03127217 -0.03147778 -0.03166962 -0.03185071 -0.03203183 -0.03222191 -0.03242788 -0.03265839 -0.03290526 -0.03317006
 -0.03343331 -0.03369019 -0.0339306 -0.0341505 -0.0343607 -0.0345613 -0.03476981 -0.03498711 -0.03521931 -0.0354658
 -0.03572101 -0.03598408 -0.03624743 -0.03651095 -0.03677012 -0.03702577 -0.03727733 -0.03752625 -0.03777481 -0.03802332
 -0.0382738 -0.03852363 -0.03877271 -0.03901482 -0.03924832 -0.03946278 -0.03965439 -0.03981533 -0.03994007 -0.04004164
 -0.0401176 -0.04020922 -0.04031939 -0.04048995 -0.04072314 -0.04102152 -0.04138135 -0.04175881 -0.04214777 -0.04248933
 -0.04278433 -0.04299984 -0.0431505 -0.04324926 -0.04331994 -0.04340727 -0.04352307 -0.04370439 -0.04393236 -0.04420982
 -0.04450029 -0.04478274 -0.04504367 -0.04526821 -0.04547817 -0.04567612 -0.04588084 -0.04609937 -0.04631153 -0.04651762
 -0.0466759 -0.04678416 -0.04682901 -0.04681386 -0.04677669 -0.04672472 -0.04672072 -0.04676505 -0.04689681 -0.04710165
 -0.04736916 -0.04767752 -0.04798528 -0.04828367 -0.0485423 -0.0487747 -0.04898087 -0.0491764 -0.04937361 -0.04956647
 -0.04975698 -0.04993131 -0.05008291 -0.05022306 -0.05035052 -0.05049327 -0.05065515 -0.05083669 -0.05103811 -0.05122177
 -0.0513862 -0.05150006 -0.05156796 -0.05160036 -0.05160439 -0.05161237 -0.05162443 -0.05165793 -0.05170727 -0.05176942
 -0.05184391 -0.05192569 -0.0520256 -0.05214826 -0.05230946 -0.05252024 -0.05278505 -0.05311315 -0.05348154 -0.05389178
 -0.05429442 -0.05468324 -0.05501226 -0.0552745 -0.05546767 -0.0555912 -0.0556956 -0.05578456 -0.05592133 -0.05610399
 -0.05635657 -0.05666739 -0.05700873 -0.05736832 -0.05770142 -0.05800688 -0.05826029 -0.05847209 -0.05864325 -0.05878816
 -0.0589176 -0.05904411 -0.05917757 -0.0593236 -0.05948871 -0.05966439 -0.05985146 -0.06003221 -0.06020283 -0.0603594
 -0.06049955 -0.06064575 -0.06079913 -0.06098289 -0.06119603 -0.06142937 -0.0616791 -0.06191471 -0.06213879 -0.062342
 -0.06253504 -0.06274089 -0.06296299 -0.06322236 -0.06350434 -0.06380209 -0.06409658 -0.06436804 -0.06461255 -0.06482049
 -0.06500107 -0.06515633 -0.06529091 -0.0654075 -0.06550188 -0.06557325 -0.06562123 -0.06564447 -0.06565935 -0.06566664
 -0.06569775 -0.06575409 -0.0658633 -0.06602286 -0.06623335 -0.06648664 -0.06675407 -0.06702752 -0.06727229 -0.06748658
 -0.06765136 -0.06776946 -0.06783698 -0.06785707 -0.06782994 -0.0677618 -0.06765354 -0.06751926 -0.06736232 -0.06720169
 -0.06704242 -0.06689897 -0.06677572 -0.06667209 -0.06659009 -0.06650625 -0.06641951 -0.06629001 -0.06611641 -0.06587046
 -0.06555623 -0.06518348 -0.06476084 -0.06432647 -0.06388395 -0.06346321 -0.06305871 -0.06267396 -0.06230429 -0.06194292
 -0.06159499 -0.06126215 -0.06094984 -0.06066548 -0.06039717 -0.06014491 -0.05988593 -0.05961199 -0.05932066 -0.05900593
 -0.05870226 -0.05841121 -0.058178 -0.05800565 -0.05790704 -0.05788023 -0.05789522 -0.05794862 -0.05800213 -0.05805824
 -0.05810584 -0.05814971 -0.05819941 -0.05824989 -0.05829983 -0.05833557 -0.05833821 -0.05830462 -0.05822077 -0.05810472
 -0.05796114 -0.05781083 -0.05766555 -0.05752602 -0.05739663 -0.05726347 -0.05712419 -0.05697281 -0.05680734 -0.05663874
 -0.05646736 -0.05631582 -0.05618566 -0.05610439 -0.05607285 -0.05611233 -0.05621903 -0.05639235 -0.05662261 -0.05688565
 -0.05717309 -0.05745723 -0.05774027 -0.05801035 -0.05828293 -0.05856336 -0.05887581 -0.05923352 -0.05965949 -0.06016755
 -0.06076256 -0.06145363 -0.0622125 -0.06304037 -0.06388057 -0.06472853 -0.06552795 -0.0662749 -0.06694398 -0.06753576
 -0.06805959 -0.06851789 -0.06893146 -0.06930082 -0.06963795 -0.06994396 -0.07022536 -0.07048852 -0.07074693 -0.07100704
 -0.0712846 -0.07157515 -0.0718834 -0.07219344 -0.07249807 -0.07278349 -0.0730418 -0.07326901 -0.07346255 -0.0736218
 -0.07374652 -0.07383507 -0.07388704 -0.07390366 -0.07388487 -0.07383769 -0.07376309 -0.07367665 -0.07358145 -0.07350545
 -0.0734529 -0.07345688 -0.0735165 -0.07364913 -0.07384456 -0.0740945 -0.07438501 -0.07469569 -0.07501715 -0.07533448
 -0.07564378 -0.07593869 -0.07621863 -0.07648121 -0.07673015 -0.07696544 -0.07719314 -0.07741477 -0.07763117 -0.07784286
 -0.07804558 -0.0782388 -0.078431 -0.0786242 -0.07885583 -0.07912984 -0.07949578 -0.07994947 -0.08050683 -0.08114779
 -0.08183112 -0.08253285 -0.08318727 -0.08379115 -0.08430764 -0.08476103 -0.08515753 -0.08552594 -0.08588772 -0.08625094
 -0.0866268 -0.0870035 -0.08738057 -0.08774437 -0.08809192 -0.08841749 -0.08871973 -0.08900055 -0.0892599 -0.0895041
 -0.08973349 -0.08995442 -0.09016682 -0.09037324 -0.09057336 -0.09076737 -0.0909549 -0.09113548 -0.09130797 -0.09147
 -0.09162095 -0.09175723 -0.09188431 -0.09200309 -0.0921267 -0.09226344 -0.09242133 -0.09260967 -0.09281464 -0.09303771
 -0.09324834 -0.09344078 -0.09359662 -0.09371094 -0.09379874 -0.09386028 -0.09392783 -0.09400227 -0.09409843 -0.09421365
 -0.0943347 -0.09445981 -0.09457263 -0.09467804 -0.09478012 -0.09488565 -0.09501167 -0.09515518 -0.09532259 -0.09549968
 -0.09567681 -0.09584102 -0.09597997 -0.09609307 -0.09617526 -0.09623659 -0.09627756 -0.09631284 -0.09634443 -0.0963877
 -0.09644487 -0.0965241 -0.09662638 -0.0967453 -0.0968802 -0.09701724 -0.09715629 -0.09729002 -0.09741933 -0.09754483
 -0.09766579 -0.097781 -0.0978884 -0.09798312 -0.09806496 -0.09813114 -0.09818354 -0.09822282 -0.09825091 -0.09826864
 -0.09827921 -0.09828293 -0.0982871 -0.0982932 -0.09830952 -0.0983384 -0.09838136 -0.0984396 -0.09850525 -0.09857795
 -0.09864791 -0.09871504 -0.09877874 -0.09884029 -0.09890975 -0.09898739 -0.09908109 -0.09918739 -0.09930171 -0.09941873
 -0.09952597 -0.09962098 -0.09969454 -0.09974903 -0.09978195 -0.0998007 -0.09980736 -0.09981376 -0.09982455 -0.09985095
 -0.09989793 -0.09996767 -0.1000626 -0.1001744 -0.100303 -0.1004352 -0.1005702 -0.1006949 -0.1008088 -0.1009028
 -0.1009775 -0.1010334 -0.1010727 -0.1011059 -0.1011354 -0.1011737 -0.1012211 -0.1012847 -0.1013612 -0.1014504
 -0.101546 -0.1016433 -0.1017354 -0.1018163 -0.1018844 -0.1019362 -0.1019788 -0.1020127 -0.1020492 -0.1020908
 -0.1021434 -0.1022087 -0.1022831 -0.1023667 -0.1024501 -0.1025328 -0.1026071 -0.1026732 -0.1027297 -0.1027773
 -0.1028178 -0.1028512 -0.102878 -0.1028988 -0.1029138 -0.1029262 -0.1029394 -0.1029591 -0.1029918 -0.1030406
 -0.1031103 -0.1031977 -0.103304 -0.1034195 -0.1035423 -0.1036614 -0.1037743 -0.1038752 -0.1039626 -0.1040387
 -0.1041032 -0.1041617 -0.1042144 -0.1042638 -0.1043098 -0.1043533 -0.1043947 -0.1044375 -0.1044827 -0.1045362
 -0.1045965 -0.1046654 -0.104738 -0.1048087 -0.1048736 -0.1049256 -0.1049664 -0.1049938 -0.1050149 -0.1050321
 -0.1050514 -0.1050755 -0.1051064 -0.1051451 -0.1051911 -0.1052448 -0.1053039 -0.1053685 -0.1054337 -0.1054993
 -0.1055603 -0.1056168 -0.1056682 -0.1057156 -0.1057623 -0.105809 -0.1058594 -0.105913 -0.1059707 -0.1060316
 -0.1060949 -0.1061593 -0.1062234 -0.1062856 -0.1063444 -0.1063983 -0.1064459 -0.106487 -0.1065205 -0.1065492
 -0.1065729 -0.1065966 -0.1066209 -0.1066504 -0.1066854 -0.1067269 -0.1067747 -0.1068256 -0.1068794 -0.1069328
 -0.1069855 -0.1070355 -0.1070829 -0.1071265 -0.1071674 -0.1072065 -0.1072457 -0.1072885 -0.1073355 -0.10739
 -0.1074488 -0.1075117 -0.1075724 -0.1076281 -0.1076738 -0.1077067 -0.1077277 -0.1077357 -0.1077384 -0.1077361
 -0.1077397 -0.1077501 -0.1077737 -0.1078105 -0.1078564 -0.1079103 -0.1079597 -0.1080038 -0.1080322 -0.1080472
 -0.1080491 -0.1080421 -0.1080349 -0.1080306 -0.1080378 -0.1080566 -0.1080909 -0.1081372 -0.1081953 -0.1082582
 -0.1083232 -0.1083823 -0.108432 -0.1084692 -0.1084916 -0.1085034 -0.1085044 -0.1085028 -0.1084992 -0.1085005
 -0.108507 -0.1085216 -0.108544 -0.1085723 -0.1086053 -0.1086372 -0.1086669 -0.1086878 -0.1087011 -0.1087046
 -0.1087023 -0.1086986 -0.1086977 -0.1087061 -0.1087229 -0.108751 -0.1087836 -0.1088184 -0.1088497 -0.1088742
 -0.1088935 -0.108907 -0.108919 -0.1089303 -0.1089413 -0.1089523 -0.1089609 -0.1089672 -0.1089732 -0.1089792
 -0.1089897 -0.1090045 -0.109025 -0.1090507 -0.10908 -0.1091133 -0.1091504 -0.1091915 -0.1092375 -0.109286
 -0.1093358 -0.1093836 -0.1094264 -0.1094643 -0.1094956 -0.1095243 -0.1095514 -0.1095802 -0.1096121 -0.1096463
 -0.1096832 -0.1097195 -0.109755 -0.1097876 -0.1098172 -0.1098447 -0.1098703 -0.1098956 -0.1099209 -0.1099473
 -0.1099745 -0.1100026 -0.1100308 -0.1100575 -0.1100822 -0.1101027 -0.1101196 -0.1101322 -0.1101427 -0.1101521
 -0.1101627 -0.1101761 -0.1101926 -0.110213 -0.1102351 -0.1102589 -0.1102805 -0.1102995 -0.1103128 -0.1103198
 -0.1103208 -0.1103159 -0.1103094 -0.110302 -0.1102998 -0.110303 -0.1103152 -0.1103353 -0.1103622 -0.1103936
 -0.1104247 -0.110454 -0.1104768 -0.1104941 -0.1105041 -0.1105102 -0.1105138 -0.1105187 -0.1105275 -0.1105407
 -0.1105598 -0.1105801 -0.1106013 -0.1106179 -0.1106289 -0.1106349 -0.1106357 -0.1106378 -0.1106412 -0.1106495
 -0.110662 -0.1106753 -0.1106888 -0.1106979 -0.1107028 -0.1107028 -0.1106986 -0.1106913 -0.1106812 -0.1106687
 -0.1106548 -0.1106401 -0.110627 -0.1106172 -0.1106129 -0.110616 -0.1106259 -0.1106439 -0.110665 -0.1106889
 -0.1107084 -0.1107223 -0.1107266 -0.1107207 -0.1107076 -0.1106873 -0.1106661 -0.1106438 -0.110624 -0.1106064
 -0.1105916 -0.1105793 -0.1105697 -0.1105625 -0.1105572 -0.1105527 -0.110547 -0.1105394 -0.1105279 -0.1105132
 -0.1104951 -0.110475 -0.1104538 -0.1104316 -0.1104089 -0.1103846 -0.1103581 -0.11033 -0.1102998 -0.1102725
 -0.1102482 -0.1102334 -0.1102285 -0.1102354 -0.1102539 -0.1102808 -0.1103159 -0.1103559 -0.110401 -0.1104501
 -0.1105032 -0.1105596 -0.1106206 -0.1106859 -0.1107603 -0.1108468 -0.1109536 -0.1110878 -0.1112545 -0.1114605
 -0.1116992 -0.1119725 -0.1122611 -0.112561 -0.1128595 -0.1131519 -0.1134511 -0.1137573 -0.1140955 -0.1144669
 -0.1148612 -0.1152736 -0.1156456 -0.1159723 -0.1161956 -0.116318 -0.1163185 -0.1162006 -0.1159571 -0.1156024
 -0.1151454 -0.1146264 -0.114089 -0.1135703 -0.1131126 -0.1127295 -0.1124384 -0.1122424 -0.1121474 -0.1121472
 -0.1122473 -0.1124076 -0.1126281 -0.1128344 -0.1130189 -0.1131436 -0.1132065 -0.1132287 -0.1132112 -0.1131741
 -0.1131163 -0.1130414 -0.1129505 -0.1128495 -0.1127406 -0.1126333 -0.1125251 -0.1124183 -0.1123046 -0.1121757
 -0.1120259 -0.111845 -0.1116431 -0.1114189 -0.1111963 -0.1109837 -0.1107941 -0.1106345 -0.1104957 -0.110378
 -0.1102668 -0.1101604 -0.1100544 -0.1099485 -0.109846 -0.1097471 -0.1096542 -0.1095671 -0.1094852 -0.1094081
 -0.1093334 -0.1092603 -0.1091861 -0.1091103 -0.1090312 -0.1089492 -0.1088639 -0.108777 -0.1086892 -0.1086034
 -0.1085208 -0.1084436 -0.1083733 -0.1083083 -0.1082488 -0.1081916 -0.1081359 -0.1080821 -0.10803 -0.1079843
 -0.1079454 -0.1079152 -0.1078933 -0.1078751 -0.1078597 -0.1078405 -0.1078178 -0.1077889 -0.1077552 -0.107719
 -0.107681 -0.107644 -0.1076073 -0.1075714 -0.1075353 -0.1074981 -0.1074606 -0.107423 -0.1073864 -0.1073519
 -0.1073176 -0.1072833 -0.1072457 -0.1072038 -0.1071577 -0.1071072 -0.1070557 -0.1070034 -0.106952 -0.1069012
 -0.1068505 -0.1068003 -0.1067519 -0.1067054 -0.1066627 -0.1066225 -0.106583 -0.106543 -0.106499 -0.1064518
 -0.1064007 -0.1063482 -0.1062964 -0.1062465 -0.1061999 -0.1061556 -0.1061134 -0.106072 -0.1060308 -0.1059905
 -0.105951 -0.1059137 -0.1058789 -0.105846 -0.105815 -0.1057829 -0.1057498 -0.1057131 -0.1056733 -0.1056307
 -0.1055859 -0.1055413 -0.1054974 -0.105457 -0.1054201 -0.1053884 -0.1053596 -0.1053324 -0.105303 -0.1052675
 -0.1052243 -0.1051705 -0.1051105 -0.1050443 -0.1049798 -0.104919 -0.104868 -0.1048286 -0.1048012 -0.1047866
 -0.1047783 -0.1047758 -0.1047684 -0.1047558 -0.1047314 -0.1046963 -0.1046542 -0.1046063 -0.1045603 -0.1045149
 -0.104472 -0.1044286 -0.1043794 -0.1043251 -0.104263 -0.1041989 -0.1041366 -0.1040806 -0.1040361 -0.1039984
 -0.1039679 -0.103935 -0.1038963 -0.1038504 -0.1037953 -0.1037401 -0.1036857 -0.1036396 -0.1036024 -0.1035709
 -0.1035449 -0.1035166 -0.1034861 -0.1034503 -0.10341 -0.1033667 -0.103321 -0.1032742 -0.1032267 -0.1031789
 -0.1031317 -0.1030862 -0.1030427 -0.1030025 -0.1029638 -0.1029264 -0.1028875 -0.102846 -0.1028009 -0.1027515
 -0.1026996 -0.1026454 -0.1025907 -0.1025358 -0.1024804 -0.1024247 -0.1023685 -0.102312 -0.1022575 -0.1022054
 -0.1021595 -0.1021198 -0.1020882 -0.1020631 -0.1020421 -0.1020228 -0.1019996 -0.1019713 -0.1019337 -0.1018894
 -0.1018387 -0.1017865 -0.101736 -0.1016889 -0.1016471 -0.1016083 -0.1015721 -0.1015357 -0.1014984 -0.1014604
 -0.1014216 -0.1013832 -0.1013454 -0.1013078 -0.1012703 -0.1012314 -0.1011908 -0.1011466 -0.1010992 -0.1010486
 -0.1009962 -0.100945 -0.1008959 -0.1008526 -0.1008136 -0.100779 -0.1007453 -0.1007093 -0.1006699 -0.1006245
 -0.1005766 -0.1005268 -0.1004793 -0.1004359 -0.1003969 -0.1003632 -0.1003309 -0.1002998 -0.1002655 -0.1002278
 -0.100185 -0.100137 -0.1000854 -0.1000305 -0.09997556 -0.09992068 -0.09986851 -0.0998183 -0.09976967 -0.09972152
 -0.09967142 -0.09961973 -0.09956536 -0.09951073 -0.09945756 -0.09940741 -0.09936225 -0.09932044 -0.09928221 -0.09924425
 -0.09920552 -0.09916487 -0.09912155 -0.09907785 -0.09903372 -0.09899364 -0.09895787 -0.09892933 -0.09890782 -0.09889037
 -0.09887602 -0.09885677 -0.09883239 -0.09879708 -0.0987526 -0.09870017 -0.09864229 -0.09858391 -0.09852621 -0.09847302
 -0.09842329 -0.09837763 -0.09833408 -0.09829146 -0.09824917 -0.09820613 -0.09816478 -0.09812558 -0.09809065 -0.09806104
 -0.09803362 -0.09800847 -0.09797895 -0.09794461 -0.09790316 -0.09785482 -0.09780362 -0.09774981 -0.09769738 -0.09764563
 -0.09759375 -0.09754106 -0.09748486 -0.09742622 -0.09736536 -0.09730442 -0.09724636 -0.09719177 -0.0971427 -0.09709712
 -0.0970545 -0.09701286 -0.09697112 -0.09692882 -0.09688576 -0.09684105 -0.09679468 -0.09674478 -0.09669099 -0.09663381
 -0.0965732 -0.09651297 -0.09645324 -0.09639642 -0.09634223 -0.09628963 -0.09623853 -0.09618783 -0.0961377 -0.09608835
 -0.09603921 -0.09598946 -0.09593835 -0.09588408 -0.09582788 -0.09576958 -0.09571242 -0.09565838 -0.09560911 -0.09556686
 -0.09552747 -0.09549122 -0.09544934 -0.09540005 -0.09533892 -0.09526434 -0.09518486 -0.09510078 -0.09502745 -0.09496511
 -0.09491857 -0.09488583 -0.09485489 -0.0948239 -0.09477779 -0.09471898 -0.09464506 -0.09456164 -0.09447822 -0.0943974
 -0.09432755 -0.09426542 -0.09421165 -0.09416083 -0.09410964 -0.0940556 -0.09399685 -0.09393281 -0.09386308 -0.09378684
 -0.0937035 -0.09361499 -0.09352098 -0.09342866 -0.09333844 -0.09325738 -0.09318555 -0.09312348 -0.09307048 -0.09302192
 -0.09297725 -0.09293184 -0.09288548 -0.09283504 -0.09278107 -0.09272255 -0.09266174 -0.09260092 -0.09254236 -0.09249008
 -0.0924411 -0.09239626 -0.09234724 -0.09229068 -0.09222147 -0.09213606 -0.09203955 -0.09193143 -0.09182251 -0.09171398
 -0.09161349 -0.09152172 -0.09143928 -0.09136597 -0.09129768 -0.09123415 -0.09117153 -0.09111 -0.09104813 -0.09098642
 -0.09092565 -0.0908659 -0.09080831 -0.09075106 -0.09069322 -0.0906304 -0.09055793 -0.0904744 -0.09037571 -0.09026895
 -0.09015521 -0.09004414 -0.0899397 -0.08984272 -0.08975491 -0.08966897 -0.08958422 -0.08949532 -0.08940173 -0.08930495
 -0.08920521 -0.08910747 -0.08901197 -0.0889232 -0.08884073 -0.08876578 -0.08869645 -0.08862843 -0.0885596 -0.08848321
 -0.08840033 -0.08830859 -0.08821249 -0.08811543 -0.08802031 -0.08793093 -0.08784468 -0.08776192 -0.08767778 -0.0875903
 -0.08749946 -0.08740421 -0.08731045 -0.08721876 -0.08713369 -0.08705578 -0.0869813 -0.08690989 -0.0868334 -0.08675218
 -0.08666489 -0.08657328 -0.08648462 -0.08639957 -0.08632506 -0.08625752 -0.08619459 -0.08612997 -0.08605361 -0.08596388
 -0.08585387 -0.0857301 -0.08559365 -0.08545342 -0.08531379 -0.08517902 -0.08505183 -0.08493073 -0.08481599 -0.08470467
 -0.08459631 -0.08449014 -0.08438607 -0.08428502 -0.08418705 -0.08409343 -0.08400387 -0.08391722 -0.08383208 -0.08374168
 -0.0836451 -0.08353489 -0.08341427 -0.08328538 -0.0831527 -0.08302426 -0.08289935 -0.08278071 -0.08266494 -0.08254993
 -0.08243585 -0.08232169 -0.08221041 -0.08210321 -0.08199968 -0.0819007 -0.08180048 -0.0816987 -0.08158797 -0.08146764
 -0.0813354 -0.08119144 -0.0810416 -0.08088659 -0.08073532 -0.08058733 -0.08044557 -0.08030859 -0.08017322 -0.08003951
 -0.07990582 -0.07977329 -0.07964356 -0.07951525 -0.07938814 -0.07925934 -0.07912634 -0.07898945 -0.07884812 -0.07870363
 -0.07855694 -0.07840548 -0.07824893 -0.07808508 -0.07791302 -0.07773805 -0.07756038 -0.07738853 -0.0772227 -0.07706375
 -0.07691053 -0.07675348 -0.0765917 -0.07641464 -0.07622522 -0.07602569 -0.07582088 -0.07562277 -0.07543028 -0.07524849
 -0.07507058 -0.07489148 -0.0747073 -0.0745121 -0.07431129 -0.07410491 -0.07390152 -0.07370441 -0.0735156 -0.07333722
 -0.07316201 -0.07299019 -0.07280689 -0.07261091 -0.07239337 -0.07215442 -0.071906 -0.07164937 -0.07140163 -0.07116104
 -0.07092908 -0.0707024 -0.07047178 -0.07023572 -0.06998636 -0.06972509 -0.06944958 -0.06916445 -0.06887217 -0.06857992
 -0.068294 -0.06801576 -0.0677504 -0.06748468 -0.06721688 -0.06693019 -0.06661896 -0.06628576 -0.06592928 -0.06556296
 -0.06518792 -0.06480758 -0.06442212 -0.06403309 -0.06364123 -0.0632551 -0.06287315 -0.0624949 -0.0621137 -0.06170875
 -0.06127732 -0.06079901 -0.06028762 -0.05975238 -0.05920959 -0.0586826 -0.05816723 -0.05766964 -0.05717622 -0.05668068
 -0.05617996 -0.05567051 -0.05515905 -0.05464839 -0.05413159 -0.05361128 -0.05304913 -0.05244228 -0.05176235 -0.05100987
 -0.05023287 -0.04943526 -0.04867657 -0.04794884 -0.04724494 -0.04655597 -0.04584966 -0.04512691 -0.04437511 -0.04359551
 -0.04279043 -0.04194377 -0.04104726 -0.0400676 -0.03897715 -0.03776484 -0.03640388 -0.03495403 -0.03341971 -0.03189094
 -0.0303904 -0.02895461 -0.02759388 -0.02629956 -0.0250726 -0.02388739 -0.02274174 -0.02158014 -0.02039675 -0.01910609
 -0.01771846 -0.01622373 -0.01466553 -0.01318308 -0.01178044 -0.0105475 -0.009432289 -0.008395074 -0.007402177 -0.006399426
 -0.005390509 -0.004361899 -0.003323025 -0.002277798 -0.001222248 -0.0001515177 0.0009160254 0.00198054 0.003006414 0.003986277
 0.004922477 0.005814014 0.006681358 0.007524617 0.008323527 0.009075646 0.009745545 0.0103392 0.01086537 0.01133586
 0.01179562 0.01224204 0.01269899 0.01313964 0.01353158 0.01386522 0.0141123 0.01429284 0.01441179 0.01448733
 0.01453033 0.01454742 0.01454492 0.01451523 0.01445976 0.01435929 0.01421164 0.0139998 0.013721 0.01338882
 0.01300451 0.01261346 0.01221572 0.01183019 0.011452 0.0110647 0.01066834 0.01025115 0.009823719 0.009400305
 0.008995946 0.00864106 0.008337617 0.008101381 0.007921563 0.007793684 0.007714741 0.007681019 0.007696437 0.007764324
 0.007874145 0.008025995 0.008200161 0.00839321 0.008598989 0.008816384 0.009049364 0.009298064 0.009564193 0.009847541
 0.0101467 0.01046124 0.01078853 0.01112767 0.01147414 0.01182791 0.01218649 0.01255085 0.01292226 0.01329887
 0.01367996 0.01406174 0.01444019 0.014817 0.01519071 0.0155683 0.01595194 0.01634572 0.01675167 0.01716741
 0.01759377 0.01802058 0.01844735 0.01885988 0.01925759 0.01963781 0.02000179 0.02036334 0.02072113 0.02107829
 0.02142669 0.02174093 0.02201705 0.02223288 0.02239171 0.02248944 0.02252887 0.02250953 0.02243958 0.02232432
 0.02217074 0.02199187 0.02175832 0.02147509 0.02106033 0.02049313 0.01973529 0.01876118 0.01771545 0.01660806
 0.01555451 0.01455902 0.01356898 0.01258084 0.01153738 0.01044455 0.009305706 0.008126163 0.006932006 0.005707986
 0.004443135 0.003098042 0.001594971 -5.331928E-05 -0.00190436 -0.003804215 -0.005652579 -0.007363588 -0.008834643 -0.01016888
 -0.01137955 -0.0125551 -0.01372799 -0.01488847 -0.01604221 -0.01714676 -0.01819728 -0.01919447 -0.02013855 -0.02106196
 -0.02196484 -0.02286028 -0.02374421 -0.02459978 -0.02542685 -0.02621336 -0.02696793 -0.02770406 -0.02842783 -0.02915639
 -0.02988642 -0.03061956 -0.03135554 -0.03208948 -0.03283965 -0.03361414 -0.03442623 -0.03529852 -0.03615963 -0.03700534
 -0.03772883 -0.03830247 -0.03875865 -0.03909424 -0.03940536 -0.03969652 -0.04001084 -0.04034518 -0.04067785 -0.04100424
 -0.04128585 -0.0415273 -0.04172426 -0.04188219 -0.04201475 -0.04211551 -0.04218229 -0.0422035 -0.0421638 -0.0420622
 -0.04189142 -0.04165911 -0.04136739 -0.04102187 -0.04062514 -0.04017962 -0.03968764 -0.0391427 -0.03854628 -0.03787359
 -0.03712193 -0.03627985 -0.03534726 -0.03439115 -0.03341774 -0.03252469 -0.03170742 -0.03099147 -0.03036612 -0.02980728
 -0.02931176 -0.02886183 -0.02845571 -0.02808735 -0.02774377 -0.02741205 -0.02707239 -0.02670095 -0.0263036 -0.02586899
 -0.02543812 -0.02502601 -0.02464722 -0.0243128 -0.02399815 -0.02370179 -0.02339762 -0.02308246 -0.02274939 -0.02239803
 -0.02204185 -0.02168163 -0.02133214 -0.0209908 -0.02065262 -0.02031071 -0.01993862 -0.01953227 -0.01906563 -0.01854775
 -0.01798106 -0.01737562 -0.01674867 -0.0160898 -0.01539778 -0.01465901 -0.0138602 -0.01301612 -0.012124 -0.0112207
 -0.01031532 -0.009427978 -0.008565348 -0.007717571 -0.006884189 -0.006056762 -0.005234951 -0.004450144 -0.003705977 -0.003057537
 -0.002505168 -0.002078954 -0.001776015 -0.001600393 -0.001553851 -0.001641009 -0.001867906 -0.002247797 -0.00278024 -0.003475029
 -0.00431372 -0.005290568 -0.006373646 -0.007545383 -0.00878327 -0.01007465 -0.01141277 -0.01279782 -0.01420558 -0.01563758
 -0.01703289 -0.01838593 -0.01965243 -0.02082978 -0.02193282 -0.02296378 -0.02395766 -0.02491188 -0.02583016 -0.02670544
 -0.02751224 -0.02825195 -0.02891138 -0.02950431 -0.03004605 -0.03055063 -0.03104115 -0.0315209 -0.03200207 -0.03247603
 -0.03294266 -0.03338949 -0.03381132 -0.03420293 -0.03456046 -0.03489125 -0.03519497 -0.03548573 -0.03576527 -0.0360379
 -0.03630399 -0.03654533 -0.0367603 -0.03692116 -0.03702962 -0.03707991 -0.03707872 -0.03704695 -0.03698902 -0.03692669
 -0.0368587 -0.03679323 -0.03672607 -0.03665514 -0.03657818 -0.0364907 -0.0363986 -0.0363015 -0.03621335 -0.03613904
 -0.0360885 -0.03606655 -0.03606991 -0.0360994 -0.03614596 -0.03620861 -0.03628369 -0.03637097 -0.03647203 -0.03658673
 -0.0367141 -0.03685292 -0.03699609 -0.03714116 -0.03727596 -0.03739821 -0.03749587 -0.03756927 -0.03761298 -0.03763002
 -0.03762168 -0.03759087 -0.03753973 -0.03747199 -0.03738882 -0.03729786 -0.0372013 -0.03710796 -0.03702035 -0.03694434
 -0.03688114 -0.03683481 -0.03680594 -0.03679626 -0.03680592 -0.03682809 -0.03686196 -0.03689462 -0.03692612 -0.03694927
 -0.03696663 -0.03698342 -0.03700256 -0.0370342 -0.03707844 -0.03714097 -0.03721815 -0.03730896 -0.03740725 -0.0375085
 -0.0376061 -0.03769531 -0.0377722 -0.03783358 -0.03788067 -0.03791229 -0.03793505 -0.03794954 -0.03796319 -0.0379772
 -0.03799151 -0.03800623 -0.03801183 -0.0380078 -0.03798479 -0.03794372 -0.03788535 -0.03781193 -0.03773266 -0.03764797
 -0.03756452 -0.03747927 -0.03739036 -0.03729431 -0.03718534 -0.03706427 -0.03692873 -0.03678384 -0.03663182 -0.03647646
 -0.0363203 -0.03616274 -0.03600422 -0.03584295 -0.03567839 -0.03551165 -0.03534251 -0.03517536 -0.03501042 -0.0348544
 -0.0347076 -0.03457626 -0.03445976 -0.03435796 -0.03426868 -0.03418356 -0.03410118 -0.03401284 -0.03392076 -0.03382402
 -0.03372739 -0.03363639 -0.0335537 -0.03348414 -0.03342603 -0.03337995 -0.03334317 -0.03331423 -0.03329375 -0.03328154
 -0.03327919 -0.03328764 -0.03330282 -0.03332481 -0.03334494 -0.03336266 -0.0333748 -0.0333817 -0.03338873 -0.0333961
 -0.03340796 -0.03342327 -0.03343995 -0.03345738 -0.03347257 -0.0334865 -0.03349955 -0.03351263 -0.03352741 -0.03354306
 -0.03356029 -0.0335754 -0.03358738 -0.03359027 -0.03358102 -0.03355806 -0.03351876 -0.03347194 -0.03341796 -0.03336949
 -0.0333284 -0.03329728 -0.03327658 -0.03325565 -0.03323375 -0.03319686 -0.03314533 -0.03307371 -0.03298479 -0.03288604
 -0.03278067 -0.03268173 -0.03258796 -0.03250471 -0.03242533 -0.03234425 -0.03225496 -0.03215002 -0.03202617 -0.03188006
 -0.03170858 -0.03150994 -0.0312817 -0.03102194 -0.03073438 -0.03041842 -0.03008409 -0.02973214 -0.02937266 -0.02900634
 -0.02864028 -0.02827454 -0.02791085 -0.02754815 -0.02718027 -0.0268057 -0.02641483 -0.02600778 -0.0255794 -0.02513201
 -0.02466677 -0.0241874 -0.02369813 -0.02320397 -0.02271025 -0.02222097 -0.02173994 -0.02126894 -0.02080907 -0.02036302
 -0.01993154 -0.01951733 -0.01912191 -0.01874003 -0.01837184 -0.01800594 -0.01764154 -0.01727474 -0.01690584 -0.0165409
 -0.01617977 -0.01582533 -0.01547509 -0.01512127 -0.01476016 -0.0143784 -0.01397347 -0.01353357 -0.01306118 -0.01255232
 -0.01201731 -0.01146198 -0.01089957 -0.0103392 -0.009789826 -0.009257006 -0.008745657 -0.008258757 -0.007795523 -0.007357934
 -0.006932579 -0.006518926 -0.006097783 -0.005667723 -0.005222554 -0.004762734 -0.004297526 -0.003828416 -0.003369306 -0.002922537
 -0.002505248 -0.002118218 -0.001775502 -0.001468582 -0.001191083 -0.0009285229 -0.0006578468 -0.0003765285 -7.157245E-05 0.0002458828
 0.0005721787 0.0009004531 0.001225844 0.001549968 0.001872375 0.002194743 0.002516343 0.002844907 0.003180093 0.003541187
 0.003929439 0.004359209 0.0048303 0.005337627 0.005878864 0.006435593 0.007004844 0.007565597 0.008114553 0.008632963
 0.009117506 0.009554314 0.00993977 0.0102642 0.01052454 0.01071356 0.01083436 0.01088484 0.01087541 0.01080873
 0.01069701 0.01054295 0.01036021 0.01015034 0.009931781 0.00970668 0.00948882 0.009279443 0.009079481 0.008889055
 0.008709276 0.008541393 0.008396278 0.008273681 0.00817975 0.008110333 0.008056821 0.008016994 0.007981444 0.007953218
 0.007932825 0.007922135 0.007925049 0.007935847 0.007954963 0.00796755 0.007970231 0.007941289 0.00787422 0.007753461
 0.00757291 0.007339214 0.007050945 0.006731698 0.006382881 0.006025352 0.005659747 0.005295536 0.004931937 0.004568461
 0.004202649 0.003824188 0.003430679 0.003009434 0.002561571 0.002082874 0.001576282 0.00104403 0.0004880879 -9.020129E-05
 -0.0006857869 -0.001296343 -0.001914278 -0.00253493 -0.003157618 -0.003780282 -0.004408739 -0.005044242 -0.005687736 -0.006339667
 -0.006997727 -0.007661633 -0.008335264 -0.009018808 -0.009716608 -0.01042764 -0.0111464 -0.01187059 -0.0125881 -0.01329621
 -0.01398189 -0.01464215 -0.01526442 -0.01584968 -0.01639186 -0.0168996 -0.01737764 -0.01783595 -0.01828295 -0.01872153
 -0.01915543 -0.0195829 -0.020004 -0.02041758 -0.02082332 -0.02122118 -0.02161108 -0.02199392 -0.02236985 -0.02273799
 -0.023098 -0.02344139 -0.02376713 -0.0240624 -0.02432767 -0.02455785 -0.02475479 -0.02492138 -0.02505822 -0.02516717
 -0.02524987 -0.0253074 -0.02534647 -0.02537277 -0.0253937 -0.02541673 -0.02544174 -0.02547217 -0.02549924 -0.02552234
 -0.02552824 -0.02551425 -0.02547149 -0.02539747 -0.02529825 -0.02517367 -0.02504189 -0.02490371 -0.02477267 -0.02464834
 -0.02453275 -0.02442555 -0.02432622 -0.02423505 -0.02415308 -0.0240794 -0.02401284 -0.02395212 -0.02389494 -0.02384082
 -0.0237895 -0.02373769 -0.02368406 -0.02362333 -0.02355199 -0.02347045 -0.02337698 -0.02327867 -0.0231768 -0.02307541
 -0.02297574 -0.02287366 -0.02276905 -0.02265566 -0.02253337 -0.02240193 -0.02226263 -0.02212579 -0.02199352 -0.02188165
 -0.02178941 -0.02172476 -0.02168105 -0.02165011 -0.02162351 -0.02158564 -0.02153352 -0.02145719 -0.0213619 -0.02124698
 -0.02112155 -0.02098971 -0.02085665 -0.02072587 -0.02059416 -0.02046192 -0.02032293 -0.02017614 -0.0200204 -0.0198554
 -0.01968476 -0.0195087 -0.01933165 -0.01915421 -0.01898322 -0.0188197 -0.01867299 -0.01854153 -0.01842721 -0.01832419
 -0.01822222 -0.01811586 -0.01799211 -0.01785194 -0.01768998 -0.01751389 -0.01732605 -0.01713623 -0.01694951 -0.01677144
 -0.01660574 -0.01644992 -0.01630484 -0.01616281 -0.01602275 -0.01588091 -0.01573662 -0.01559548 -0.01545788 -0.01533347
 -0.01522194 -0.01512558 -0.01504153 -0.01495809 -0.01487196 -0.01476601 -0.01464181 -0.01449215 -0.01432552 -0.01414972
 -0.01397453 -0.01381323 -0.0136682 -0.01354739 -0.01344171 -0.01335068 -0.01325963 -0.01316319 -0.01305537 -0.01293243
 -0.01280273 -0.01266672 -0.01253318 -0.01240324 -0.01227309 -0.01214246 -0.01200258 -0.01185379 -0.01169552 -0.01152854
 -0.0113564 -0.01117908 -0.01099777 -0.01081335 -0.01062788 -0.01044291 -0.01026247 -0.01008456 -0.009909381 -0.009732876
 -0.009551152 -0.009365867 -0.00917477 -0.0089882 -0.008808002 -0.008646296 -0.008506683 -0.008392077 -0.008304811 -0.00823142
 -0.008171614 -0.008101541 -0.008020113 -0.007910632 -0.007773879 -0.007609767 -0.007420738 -0.007217737 -0.00700365 -0.00679297
 -0.00658688 -0.006396331 -0.006216899 -0.006047882 -0.00588225 -0.005710342 -0.005535427 -0.005353688 -0.005180102 -0.005021388
 -0.004885403 -0.004779477 -0.004690136 -0.004617757 -0.004538396 -0.00444848 -0.004335218 -0.004196428 -0.004043612 -0.003877633
 -0.003724871 -0.003585212 -0.003469683 -0.00337352 -0.003278648 -0.003181812 -0.003061282 -0.002922087 -0.002763683 -0.002593063
 -0.002421679 -0.00224949 -0.002081711 -0.001913353 -0.001742301 -0.001565408 -0.001379249 -0.001187842 -0.0009894463 -0.0007988909
 -0.0006180277 -0.0004641228 -0.000340912 -0.0002488818 -0.0001891773 -0.0001436747 -0.0001114294 -7.348928E-05 -2.985827E-05 2.710178E-05
 9.574393E-05 0.0001722629 0.0002546766 0.0003332598 0.0004107871 0.0004862329 0.0005683896 0.0006718551 0.0007964519 0.0009527717
 0.001121251 0.00129249 0.001448246 0.00157353 0.001674255 0.001747492 0.001808897 0.001861501 0.001914988 0.00197034
 0.002040191 0.002125604 0.002237665 0.002376538 0.00252905 0.002692909 0.00283888 0.002967449 0.003064559 0.00313512
 0.003186373 0.003224434 0.003264862 0.003313546 0.003387111 0.003484617 0.003613866 0.003763771 0.003928938 0.004100774
 0.004272641 0.004444614 0.004616178 0.004784483 0.004948621 0.00510746 0.0052591 0.005418696 0.005587525 0.005774861
 0.005980768 0.006184523 0.006384841 0.006558822 0.006710092 0.006845636 0.006969703 0.007101217 0.007238033 0.007384967
 0.007537938 0.007692733 0.00784686 0.007996577 0.008139389 0.008271936 0.008394593 0.008506733 0.008609155 0.008703757
 0.008782391 0.008843128 0.008882044 0.008895792 0.008905556 0.008912379 0.008942164 0.008995959 0.009072453 0.009170244
 0.009273286 0.009381672 0.009487999 0.009593083 0.009694818 0.009795779 0.009900146 0.01001086 0.01013855 0.01027197
 0.0104057 0.0105225 0.01060006 0.01065648 0.01068452 0.01074329 0.0108591 0.01103544 0.0112921 0.01153207
 0.01173981 0.01188114 0.01194804 0.01199237 0.0120166 0.01206928 0.01214996 0.01227192 0.01242878 0.01259543
 0.01276307 0.01288704 0.01296893 0.01298551 0.01295455 0.01289357 0.01281587 0.01274678 0.01267845 0.01261302
 0.01254173 0.01245684 0.01236809 0.01227484 0.01219601 0.01213484 0.01211012 0.01212595 0.01218746 0.01229747
 0.01242351 0.01256378 0.01266601 0.01273016 0.01273833 0.01269536 0.01261987 0.01251283 0.01238538 0.01223993
 0.01208052 0.01192642 0.01180938 0.01174297 0.01176466 0.01184517 0.01198007 0.01212534 0.01225505 0.01235124
 0.01239954 0.01240537 0.01236251 0.01230772 0.01224308 0.01222 0.01224621 0.01230712 0.01240187 0.01246109
 0.01248708 0.01248279 0.01246115 0.01250274 0.01260281 0.01279376 0.01305016 0.01332811 0.01361376 0.01386342
 0.01408071 0.01425241 0.01438785 0.01448745 0.01456755 0.01463734 0.0147048 0.01477914 0.01484219 0.01489073
 0.01491297 0.0149027 0.01488781 0.01486971 0.01488058 0.01492205 0.01499139 0.01508729 0.01519339 0.01530869
 0.01542157 0.01552787 0.01560699 0.01565595 0.0156538 0.0156103 0.01552837 0.01542646 0.01532519 0.01523953
 0.01519005 0.01517468 0.01520601 0.01524645 0.01528998 0.01528666 0.01521632 0.01508937 0.01489683 0.01471883
 0.01456197 0.01448595 0.01449409 0.01457172 0.01471491 0.01487205 0.01503866 0.01516299 0.01524393 0.01524582
 0.01517986 0.01505136 0.01487818 0.01469492 0.0145025 0.014316 0.01412919 0.01393567 0.01375191 0.01358365
 0.01344824 0.0133606 0.01329614 0.01325608 0.01319373 0.01310135 0.01295288 0.01274376 0.01247836 0.01215677
 0.01182156 0.01147702 0.01119223 0.01096527 0.01082613 0.01075772 0.01071619 0.01068646 0.01060634 0.01048303
 0.0102965 0.01006935 0.00981571 0.009564551 0.009339231 0.009170032 0.00908379 0.00907891 0.009170096 0.009307078
 0.009482936 0.009644999 0.009782217 0.009876654 0.009924966 0.00992717 0.009883117</values></Ydata></AB><ScSm><Ydata ylabel="Single channel"><values byteorder="INTEL" format="FLOAT32" numvalues="1814"> 0.07564311 0.07567373 0.07577612 0.07596634 0.07620713 0.07643159 0.0765904 0.07668038 0.07672127 0.07671562
 0.07666457 0.07662029 0.07667361 0.07686485 0.07712851 0.07733983 0.07741403 0.07737872 0.0773586 0.07745357
 0.07760301 0.07759973 0.07728454 0.0767301 0.07619613 0.07589054 0.07583974 0.0760384 0.07657438 0.07738322
 0.07797806 0.07780065 0.0769245 0.07607777 0.07583511 0.07606925 0.07629642 0.07623132 0.07586921 0.07538217
 0.07517888 0.07579203 0.07735173 0.0791582 0.0799378 0.07864447 0.07520177 0.0707482 0.06722929 0.06635508
 0.06838538 0.07177696 0.07434574 0.07501186 0.07431331 0.07330315 0.07242621 0.0716535 0.0711942 0.07152282
 0.07271663 0.07402219 0.07423857 0.07273087 0.07018767 0.06814791 0.06760586 0.06837897 0.06991497 0.07189358
 0.07339717 0.0724393 0.06791894 0.06209107 0.05955682 0.06288548 0.06987213 0.0757071 0.07725849 0.07479816
 0.07057933 0.06697777 0.06562579 0.06696418 0.07013192 0.07368769 0.07649785 0.07779649 0.07699172 0.0741785
 0.07063705 0.06820453 0.0681469 0.0706747 0.07490071 0.07890559 0.08060961 0.07931943 0.07619153 0.07300419
 0.07098514 0.07082593 0.07285454 0.0766785 0.08117314 0.08514797 0.08783463 0.08893875 0.08868729 0.08769079
 0.08648176 0.08543503 0.08510141 0.08586122 0.08703412 0.08714567 0.0855414 0.08326448 0.08197923 0.08225111
 0.08310013 0.08319047 0.08217632 0.08046752 0.07790557 0.073772 0.06843103 0.0637336 0.06116694 0.06073951
 0.06209546 0.06508286 0.06844389 0.0697408 0.06801988 0.06550515 0.06537731 0.06838806 0.072485 0.07533953
 0.07650305 0.07724704 0.07891417 0.08153424 0.08364311 0.08337653 0.08031748 0.07654318 0.0751594 0.07725394
 0.08085769 0.0833789 0.0843402 0.08508577 0.0864283 0.08738567 0.08619662 0.0824039 0.07799127 0.07617126
 0.07858999 0.08367604 0.08777275 0.08784258 0.08351621 0.07719032 0.07215808 0.07032667 0.07169557 0.0755986
 0.08143773 0.08803979 0.09336668 0.09565534 0.09470151 0.09175026 0.08807905 0.08381774 0.07863344 0.07370311
 0.07193961 0.07522532 0.08199425 0.08854358 0.09233986 0.09327199 0.0921886 0.089317 0.08452161 0.07885407
 0.07505481 0.0754175 0.07903261 0.08231561 0.08277238 0.08126959 0.08016719 0.0803559 0.08094014 0.08108813
 0.08120776 0.08226155 0.08440993 0.08666474 0.08786549 0.08774099 0.0869392 0.08626255 0.08593766 0.08545895
 0.08429764 0.08296982 0.08295766 0.08509038 0.08840516 0.09113708 0.09248147 0.09287417 0.0928186 0.09200288
 0.08976439 0.08635926 0.08346553 0.0829358 0.08500484 0.08815153 0.09067865 0.09192532 0.0920902 0.09161566
 0.09089316 0.09013841 0.08945714 0.08911988 0.08949099 0.09050798 0.09156889 0.09213778 0.09218352 0.09190643
 0.09135285 0.09049193 0.08949262 0.08873431 0.08853252 0.08889842 0.08958282 0.09030074 0.09083488 0.09099715
 0.09069778 0.09008509 0.08945279 0.08897328 0.0886469 0.0884902 0.08858978 0.08893301 0.08933251 0.08958639
 0.08963721 0.08953977 0.08934555 0.08906849 0.08873052 0.08840393 0.088203 0.08820669 0.0883647 0.08852588
 0.08860749 0.08867797 0.08880632 0.08890326 0.08881637 0.08854071 0.08823551 0.08804919 0.0880006 0.08801679
 0.08801182 0.08790495 0.08762047 0.08715419 0.08665815 0.08638327 0.08647862 0.08688027 0.08740993 0.08790764
 0.08825648 0.08839488 0.0883657 0.08827969 0.08818838 0.08804495 0.08780833 0.08754305 0.08739899 0.08749422
 0.08780625 0.08818303 0.08847155 0.0886158 0.08864211 0.08861908 0.0886379 0.08874421 0.08886498 0.08887679
 0.08876579 0.08865581 0.08866104 0.08875799 0.08882201 0.08877045 0.08865647 0.08861339 0.08870944 0.08888339
 0.08903179 0.08912504 0.08921617 0.0893525 0.08949677 0.08954516 0.0894386 0.08924446 0.08909181 0.08903523
 0.0890342 0.08905817 0.08913969 0.08930032 0.08948085 0.08958993 0.08960561 0.0895933 0.08961785 0.08966276
 0.08965537 0.08955846 0.08941202 0.08929008 0.08924042 0.08926294 0.08932192 0.08937016 0.08937349 0.08932344
 0.08923288 0.08912233 0.08900991 0.08891592 0.08887661 0.08893315 0.08908026 0.08922976 0.08925965 0.08912143
 0.08889166 0.08870227 0.08861928 0.08859485 0.08853552 0.08840121 0.08822933 0.08808029 0.08798331 0.08793014
 0.08789593 0.08786085 0.08783233 0.08785294 0.08796313 0.08813775 0.08827838 0.08829639 0.08819957 0.08807702
 0.0880095 0.08801544 0.08806836 0.0881355 0.08820662 0.08830372 0.08844744 0.08860426 0.08870206 0.08871724
 0.08871256 0.08877066 0.08892311 0.08915 0.08940102 0.08960454 0.08970787 0.08973497 0.08977206 0.08987767
 0.09003277 0.09018876 0.09033282 0.09048659 0.09066398 0.09085972 0.09107433 0.09132612 0.09162799 0.091961
 0.09227879 0.09254003 0.09274386 0.09294079 0.09320215 0.09356327 0.093991 0.09441069 0.09476905 0.09507157
 0.09536034 0.09566236 0.09597149 0.0962836 0.09662694 0.09703383 0.09749243 0.09795298 0.09838119 0.0987851
 0.09919002 0.09960713 0.100032 0.1004643 0.1009199 0.101416 0.1019357 0.1024211 0.1028197 0.1031377
 0.1034372 0.1037866 0.1042153 0.1046927 0.1051341 0.105461 0.1056853 0.1059124 0.1062314 0.10662
 0.1069958 0.1073398 0.1077197 0.1081878 0.1087006 0.1091618 0.1095229 0.1098216 0.1101269 0.110462
 0.1107834 0.1110355 0.1112194 0.1113932 0.111609 0.1118745 0.1121872 0.1125688 0.1130293 0.113519
 0.1139564 0.1142983 0.1145603 0.1147799 0.1149868 0.1151951 0.1154012 0.1155962 0.11579 0.1159998
 0.1162109 0.1163857 0.1165268 0.1166941 0.1169386 0.1172529 0.1176103 0.1180098 0.1184499 0.1188893
 0.1192872 0.1196711 0.1201113 0.120612 0.1210756 0.1214043 0.1216025 0.121747 0.1218909 0.1220501
 0.1222573 0.1225639 0.1229793 0.1234522 0.1239243 0.1243749 0.1248098 0.1252283 0.1256118 0.1259317
 0.1261657 0.126315 0.1264156 0.1265302 0.1267194 0.1270029 0.1273408 0.127661 0.1279111 0.1280747
 0.1281412 0.1280951 0.1279572 0.1278087 0.1277288 0.1277031 0.1276224 0.1273773 0.1269335 0.1263181
 0.1255652 0.1246994 0.1237638 0.1228413 0.1220375 0.1214401 0.1210974 0.1210357 0.1212766 0.1218125
 0.122565 0.1233937 0.1241546 0.1247363 0.1250439 0.1249948 0.1245662 0.1238338 0.1229372 0.1220124
 0.1211526 0.1203973 0.1197338 0.1191373 0.1186497 0.1184155 0.1186205 0.1193891 0.1207272 0.1225241
 0.1245787 0.1266485 0.1285308 0.1301351 0.1314873 0.1326628 0.1337238 0.1347149 0.1356801 0.1366418
 0.1375705 0.1384118 0.139149 0.1398139 0.1404361 0.1410064 0.1414915 0.1418652 0.1421297 0.1423238
 0.1424978 0.142666 0.1428026 0.1428925 0.1429628 0.1430441 0.1431183 0.1431225 0.1429939 0.142711
 0.1423239 0.1419736 0.1418766 0.1422553 0.1432348 0.1447729 0.1466792 0.1487133 0.1506716 0.1524068
 0.153823 0.1548973 0.1556952 0.1563288 0.1568917 0.157434 0.1579765 0.1585208 0.1590544 0.159564
 0.1600508 0.1605314 0.1610267 0.1615442 0.1620643 0.1625512 0.1629899 0.1634077 0.1638538 0.1643536
 0.1648857 0.1654036 0.1658858 0.1663555 0.1668383 0.1673134 0.1677329 0.1680852 0.1684131 0.1687712
 0.1691882 0.1696621 0.1701585 0.1706191 0.1710015 0.1713189 0.171625 0.1719585 0.172318 0.1726857
 0.1730537 0.1734213 0.1737837 0.1741408 0.1745091 0.1749032 0.1753018 0.1756535 0.1759286 0.1761563
 0.1763991 0.1766967 0.1770386 0.1773853 0.1777112 0.1780317 0.1783836 0.1787797 0.1791851 0.1795468
 0.1798432 0.1801002 0.1803606 0.1806472 0.1809574 0.1812804 0.1816078 0.1819301 0.182241 0.1825464
 0.1828595 0.1831829 0.1835046 0.1838152 0.1841201 0.1844312 0.184752 0.185075 0.1853951 0.1857237
 0.1860803 0.1864649 0.1868457 0.1871842 0.1874703 0.1877241 0.1879711 0.1882254 0.1884924 0.1887749
 0.1890719 0.1893772 0.189682 0.1899815 0.1902781 0.1905785 0.190884 0.191189 0.1914894 0.1917889
 0.1920964 0.1924185 0.1927537 0.193092 0.1934185 0.1937225 0.1940052 0.1942793 0.1945606 0.1948562
 0.1951583 0.1954522 0.1957314 0.1960032 0.1962792 0.1965646 0.1968577 0.1971543 0.197451 0.1977459
 0.1980382 0.1983271 0.1986115 0.1988918 0.1991716 0.1994565 0.1997491 0.2000431 0.2003279 0.2005998
 0.2008666 0.2011372 0.2014159 0.2017032 0.201998 0.2022939 0.2025813 0.2028554 0.2031192 0.2033802
 0.2036462 0.2039202 0.2041986 0.2044771 0.2047557 0.2050356 0.2053167 0.2056 0.2058865 0.2061728
 0.2064554 0.2067351 0.2070145 0.2072945 0.2075768 0.207863 0.2081517 0.2084419 0.2087367 0.2090377
 0.2093404 0.2096396 0.2099345 0.2102257 0.210512 0.2107899 0.2110554 0.2113096 0.2115607 0.2118145
 0.2120669 0.2123145 0.2125627 0.2128183 0.2130808 0.2133481 0.2136214 0.2139034 0.2141951 0.2144918
 0.2147835 0.2150644 0.2153398 0.2156165 0.2158939 0.2161707 0.216449 0.2167277 0.2170024 0.217273
 0.2175414 0.2178082 0.2180791 0.2183625 0.2186557 0.2189483 0.2192367 0.219524 0.21981 0.2200937
 0.2203733 0.220644 0.220906 0.2211715 0.2214481 0.2217294 0.222009 0.2222878 0.222564 0.2228333
 0.2230982 0.2233616 0.2236232 0.2238896 0.2241698 0.2244577 0.2247421 0.2250227 0.2252999 0.2255653
 0.2258185 0.2260718 0.2263312 0.2265945 0.2268611 0.2271264 0.2273823 0.2276315 0.2278782 0.2281017
 0.2282458 0.2281691 0.2275148 0.2255723 0.2212588 0.2133295 0.2008692 0.1838723 0.1634524 0.1414477
 0.1197359 0.09973952 0.08228971 0.06774466 0.05617613 0.0474849 0.04147131 0.03795793 0.03692076 0.03862603
 0.04377817 0.05310084 0.0657518 0.07792179 0.08432264 0.08236809 0.07464737 0.06656396 0.06185082 0.06077594
 0.06175131 0.06341466 0.06532302 0.06771 0.07099551 0.07530572 0.08044726 0.08642064 0.09366785 0.1025093
 0.1124741 0.1224981 0.1318377 0.1406506 0.149632 0.1591744 0.1689532 0.1782446 0.1865002 0.1936192
 0.1998337 0.2054565 0.2107071 0.2156875 0.220443 0.2249639 0.2290874 0.2324551 0.234681 0.2356411
 0.2356201 0.2351563 0.2347243 0.2345425 0.234625 0.234929 0.235425 0.2360916 0.2369053 0.2378356
 0.238838 0.2398651 0.2408859 0.2418819 0.242835 0.2437283 0.244551 0.2452968 0.2459645 0.2465623
 0.2471033 0.2476006 0.2480681 0.2485143 0.2489362 0.2493302 0.2497038 0.2500648 0.2504067 0.2507171
 0.2509941 0.2512453 0.2514789 0.2517004 0.2519124 0.2521178 0.2523261 0.2525492 0.2527884 0.253032
 0.2532673 0.2534893 0.2536995 0.253902 0.2540987 0.2542869 0.2544667 0.2546464 0.2548355 0.2550332
 0.2552328 0.2554339 0.2556404 0.2558503 0.2560565 0.2562532 0.2564408 0.2566258 0.2568161 0.2570139
 0.2572191 0.2574376 0.257673 0.2579139 0.2581438 0.2583593 0.2585671 0.2587734 0.2589844 0.2592051
 0.2594252 0.2596202 0.2597782 0.2599193 0.2600807 0.2602857 0.2605246 0.2607624 0.2609745 0.2611691
 0.2613693 0.2615812 0.2617881 0.2619704 0.262128 0.2622923 0.2625031 0.2627638 0.2630366 0.2632934
 0.2635428 0.2637999 0.2640638 0.2643296 0.2645861 0.2648003 0.2649432 0.2650421 0.2651842 0.265451
 0.2658391 0.2662522 0.2665872 0.2668279 0.2670349 0.2672697 0.2675526 0.2678491 0.2680544 0.268067
 0.2679484 0.2679414 0.2682452 0.2688176 0.2694482 0.269972 0.2703629 0.2706733 0.2709458 0.2711734
 0.2713104 0.2713254 0.271272 0.2713098 0.271598 0.2721291 0.2727154 0.2731799 0.2734966 0.2737235
 0.2739026 0.2740548 0.2741413 0.2740053 0.2735399 0.2729809 0.272842 0.2734173 0.2744485 0.2753989
 0.2759824 0.27631 0.2765861 0.2768562 0.2770658 0.2771111 0.2767232 0.275622 0.2740663 0.2730063
 0.2733007 0.2748562 0.2767856 0.2782902 0.279157 0.279574 0.2797959 0.2799718 0.2800273 0.2796675
 0.278712 0.2775381 0.2769843 0.2775735 0.2789237 0.2801605 0.2808127 0.2810566 0.2812405 0.2814947
 0.2816472 0.2811794 0.2795187 0.2768863 0.274722 0.2746693 0.2769656 0.2801538 0.2825288 0.283605
 0.2839681 0.2840093 0.283353 0.2815306 0.2786729 0.2754424 0.2728458 0.2721224 0.273921 0.2772469
 0.2800201 0.2811324 0.2813856 0.2821426 0.2836921 0.2852435 0.2859727 0.2856675 0.2845782 0.2829582
 0.2809505 0.2790251 0.2782246 0.2794139 0.28223 0.2852261 0.2872141 0.2881617 0.2885469 0.2879518
 0.2848003 0.2782603 0.2705898 0.2664834 0.2689152 0.276024 0.283115 0.2872724 0.2889335 0.2896615
 0.2900691 0.2896652 0.2871224 0.2809814 0.2719331 0.2642822 0.263042 0.2689684 0.2777016 0.2838461
 0.2846725 0.2804145 0.273266 0.2667009 0.2640572 0.2665206 0.2726164 0.2796626 0.2853776 0.2884944
 0.288738 0.2866914 0.2837367 0.2817194 0.2816208 0.2820955 0.2804835 0.2761759 0.2716424 0.2687954
 0.2660055 0.2610963 0.2561431 0.2560872 0.2623291 0.2704005 0.2749955 0.2753388 0.2741967 0.2728109
 0.268739 0.2593608 0.2468583 0.2382625 0.2393012 0.2484626 0.258364 0.2629867 0.2624453 0.2607714
 0.2605278 0.2602178 0.2564191 0.248271 0.2396733 0.2359864 0.238307 0.2424747 0.2439607 0.241464
 0.2352544 0.2256935 0.2158638 0.2124843 0.2201958 0.2358336 0.2509461 0.2587722 0.2566559 0.2444434
 0.2254148 0.2082783 0.2029143 0.2115001 0.2258543 0.234985 0.2337905 0.2238709 0.2088134 0.1918016
 0.1771327 0.1705631 0.1757999 0.1907717 0.2078308 0.2175648 0.2139418 0.1989864 0.1831744 0.177872
 0.1849884 0.1957092 0.2004128 0.1974083 0.1914413 0.1875502 0.1881735 0.1928757 0.1988184 0.203376
 0.2062125 0.2063018 0.1990788 0.1819359 0.1615521 0.1495261 0.1503225 0.1589151 0.1700724 0.1830752
 0.195787 0.2014046 0.1961434 0.1864675 0.1836374 0.1917508 0.204201 0.2117414 0.2116269 0.2081411
 0.2059018 0.2048915 0.202805 0.2004569 0.2019455 0.2090524 0.218174 0.2243512 0.2264241 0.2266031
 0.2267018 0.2267638 0.2263309 0.2252536 0.2236016 0.2217811 0.2204173 0.219641 0.2189658 0.2180279
 0.2165494 0.2132124 0.2059493 0.1948615 0.1840875 0.1785513 0.1787577 0.1810869 0.1831841 0.1853385
 0.1854398 0.177581 0.1598764 0.1408442 0.1332127 0.1416379 0.1592418 0.1754128 0.1838908 0.1832891
 0.1739474 0.1582311 0.1432295 0.1385664 0.1485375 0.1679558 0.1876813 0.2024976 0.2117514 0.2150087
 0.2111034 0.2013166 0.1907107 0.1852851 0.1883084 0.1988177 0.2119356 0.2201473 0.2169467 0.203272
 0.1904669 0.1919661 0.2091794 0.2291597 0.2391638 0.2396068 0.2389858 0.2406752 0.2411917 0.2394116
 0.2403369 0.2481602 0.2600446 0.2689111 0.2696586 0.2611788 0.2457 0.2292976 0.2203204 0.2227047
 0.231508 0.2382928 0.2393051 0.2349821 0.224949 0.2100959 0.1978766 0.1978232 0.2104793 0.2261319
 0.235849 0.2395998 0.2422212 0.2450911 0.2445001 0.2373245 0.2262704 0.2182046 0.2173509 0.2215688
 0.225922 0.2278867 0.2273968 0.2238783 0.2166029 0.2079403 0.2033982 0.2068383 0.2164863 0.2266165
 0.2326945 0.2342117 0.233289 0.2319473 0.2307535 0.2290181 0.2261771 0.2235783 0.2242192 0.2295006
 0.2369273 0.2426363 0.2458138 0.248973 0.2540087 0.2595781 0.2627293 0.262123 0.25931 0.2573874
 0.2585241 0.2622398 0.2657563 0.2663711 0.2640302 0.2616145 0.2622814 0.2664555 0.2717755 0.2757868
 0.2779467 0.279108 0.2800723 0.280908 0.280922 0.2791923 0.2758945 0.27309 0.2732697 0.2768694
 0.2818368 0.2857368 0.2877059 0.2883124 0.2882276 0.2875211 0.2860542 0.2841212 0.282465 0.2816947
 0.2818561 0.2825865 0.2835045 0.2843716 0.2850642 0.2855623 0.2859243 0.2862039 0.2864227 0.2866159
 0.2868127 0.2869603 0.2869744 0.2868972 0.2869139 0.2871451 0.2874877 0.2877207 0.2877016 0.2873812
 0.2866948 0.2855765 0.2840805 0.2823655 0.2805186 0.2785069 0.2764137 0.2746866 0.2739995 0.2747566
 0.2767223 0.2791661 0.2813599 0.2829347 0.2838745 0.2843269 0.2844685 0.2844523 0.2843747 0.2842577
 0.2840788 0.2838227 0.2835009 0.2831306 0.2827233 0.2823046 0.2819233 0.281616 0.2813655 0.2811069
 0.2807728 0.2803344 0.2798127 0.2792525 0.2786764 0.2780569 0.2773343 0.2764629 0.2754468 0.274343
 0.2732376 0.2722064 0.2712722 0.2703895 0.2694804 0.2684889 0.2673824 0.2661161 0.2646591 0.2630837
 0.2615667 0.2602486 0.2591147 0.2580411 0.2569121 0.255666 0.2542796 0.2527627 0.2511549 0.2494975
 0.2478103 0.2460955 0.2443508 0.2425711 0.2407477 0.2388697 0.2369274 0.23492 0.2328618 0.2307743
 0.2286518 0.2264227 0.2239489 0.2210786 0.2177003 0.2137572 0.2092501 0.2042589 0.1989474 0.193521
 0.1881745 0.1830686 0.1783338 0.1740833 0.1704198 0.1674209 0.1651199 0.1635171 0.162612 0.1624086
 0.1628985 0.1640482 0.1657865 0.1679876 0.1704777 0.1730723 0.1756043 0.1779405 0.1800197 0.181886
 0.1836572 0.1854299 0.1872143 0.1889558 0.1906027 0.1921305 0.1935134 0.1947111 0.1957054 0.1965205
 0.1971926 0.1977456 0.1982035 0.1985996 0.1989534 0.199261 0.1995147 0.1997267 0.1999361 0.2001995
 0.2005612 0.2010251 0.2015678 0.2021763 0.2028623 0.203643 0.2045198 0.2054763 0.2064939 0.207568
 0.2087029 0.2099018 0.2111799 0.212583 0.2141644 0.2159415 0.2178876 0.2199541 0.2220772 0.2241712
 0.2261325 0.227857 0.2292663 0.2303351 0.2310985 0.231624 0.2319759 0.232197 0.232308 0.2323194
 0.2322435 0.2320873 0.2318392 0.2314807 0.2310085 0.2304341 0.2297758 0.2290671 0.2283546 0.2276655
 0.2269898 0.2263038 0.2255962 0.2248704 0.224136 0.2234031 0.2226781 0.2219646 0.2212668 0.2205845
 0.2199091 0.2192226 0.2184922 0.21767 0.2167211 0.2156506 0.214484 0.2132303 0.21188 0.2104309
 0.2088962 0.2072922 0.2056278 0.203903 0.2021132 0.2002502 0.1982932 0.1962147 0.1940212 0.1917844
 0.1896076 0.1875606 0.1856553 0.1838671 0.1821664 0.1805421 0.1790062 0.1775649 0.1761962 0.174872
 0.1735916 0.1723726 0.1712223 0.1701343 0.1691075 0.168156 0.1673014 0.1665571 0.1659166 0.1653596
 0.1648661 0.1644255 0.1640447 0.1637563 0.1635915 0.1635309 0.163498 0.1634138 0.1632477 0.1630198
 0.1627741 0.1625481 0.1623511 0.1621692 0.1619868 0.1617859 0.1615206 0.1611081 0.1604492 0.1594637
 0.1581246 0.1564738 0.1546052 0.1526374 0.1507015 0.1489195 0.1473719 0.1460917 0.145083 0.1443157
 0.1437145 0.1431993 0.1427545 0.142443 0.1423441 0.1424583 0.1426576 0.1427616 0.1427025 0.1426007
 0.1426554 0.1429824 0.143558 0.1442641 0.1449595 0.1455413 0.145965 0.1462222 0.1463312 0.1463422
 0.1463044 0.14622 0.1460606 0.1458171 0.1455056 0.1451466 0.1447496 0.1442954 0.1437395 0.1430638
 0.142299 0.1414794 0.1406108 0.1396821 0.1386558 0.1374801 0.1361958 0.1350141 0.1342205 0.1340007
 0.1343537 0.1351124 0.1360525 0.1370289 0.1379595 0.1386628 0.1389025 0.138759 0.138821 0.1397612
 0.141688 0.1440267 0.146041 0.1473553 0.1479678 0.1479667 0.1474074 0.1463506 0.144828 0.1428097
 0.140315 0.1374764 0.134437 0.1313187 0.1283022 0.1255817 0.1232489 0.1213185 0.1197925 0.1187264
 0.1182642 0.1180411 0.1161915 0.1103287 0.1012055 0.09435577 0.09544548 0.103899 0.1132853 0.1181096
 0.1181956 0.1164572 0.1149351 0.1139698 0.1134696 0.1135539 0.1143261 0.11564 0.1171094 0.1183246
 0.1191102 0.1194981 0.1194439 0.1186036 0.1162805 0.1116619 0.1044895 0.09563828 0.08679657 0.07946788
 0.07431974 0.0712395 0.06965405 0.06885067 0.06833147 0.0680438 0.06827399 0.06931184 0.07120697 0.07379846
 0.07687101 0.0801674 0.0833097 0.08593211 0.08795291 0.08955697 0.09087844 0.09185047 0.09236734 0.0924344
 0.09213658 0.09157222 0.09083837 0.09000786 0.08908542 0.08801824 0.08681315 0.08565421 0.08481394 0.08439885
 0.08427152 0.08425477 0.08428766 0.08435261 0.08439595 0.08437382 0.08429624 0.08422999 0.08429979 0.0846096
 0.08511209 0.0856276 0.0860116 0.08624385 0.08637216 0.08640593 0.08624132 0.08574978 0.08502828 0.08441557
 0.08406368 0.08364686 0.08276485 0.08153793 0.08054236 0.08019841 0.08041243 0.08077797 0.08095288 0.08084492
 0.08060321 0.08052088 0.08083285 0.08145315</values></Ydata></ScSm><ScRf><Ydata ylabel="Single channel"><values byteorder="INTEL" format="FLOAT32" numvalues="1820"> 0.06064193 0.06080256 0.06089875 0.0609328 0.06093021 0.06093381 0.06098882 0.06111756 0.06130236 0.06149235
 0.06163559 0.06171358 0.06173863 0.06172185 0.06167182 0.06163007 0.06166765 0.06181733 0.06202378 0.06217933
 0.06221364 0.06215855 0.06212634 0.06219733 0.06231142 0.06229419 0.06202285 0.06156745 0.06114146 0.06090389
 0.06086197 0.0610048 0.06141194 0.0620489 0.06253204 0.0624013 0.06169712 0.06099847 0.06077747 0.06094386
 0.06110961 0.06103962 0.06073049 0.0603276 0.06016121 0.06065217 0.06189993 0.06334582 0.06396925 0.06292392
 0.06014339 0.05654784 0.05370907 0.05300126 0.05462787 0.05734708 0.05940536 0.05993526 0.05937005 0.05855862
 0.05785671 0.05723241 0.05684696 0.05708562 0.05802091 0.059053 0.05921513 0.05799549 0.05594999 0.05431594
 0.05388497 0.0545007 0.05571829 0.05728963 0.05848826 0.05772102 0.05409486 0.04940754 0.04734944 0.04999535
 0.05559249 0.0602832 0.06153989 0.05956884 0.0561825 0.05329761 0.05222156 0.05329227 0.05580802 0.05861966
 0.06083644 0.06185754 0.06120798 0.05895511 0.05611811 0.05416827 0.05412055 0.05614106 0.05951538 0.06270663
 0.06405351 0.06300417 0.06048573 0.05792359 0.05630288 0.05617695 0.05780526 0.06087084 0.0644722 0.06765576
 0.0698045 0.07067915 0.07045984 0.06964128 0.06866023 0.06781919 0.06754957 0.06814754 0.06907316 0.06915547
 0.06787 0.06604274 0.06500119 0.06520157 0.06586383 0.06591967 0.06509424 0.06372212 0.06168156 0.05839244
 0.05413369 0.05037888 0.0483207 0.04797159 0.04905079 0.05144269 0.05414815 0.05521474 0.05386386 0.05185632
 0.05172979 0.05409366 0.05732265 0.05956905 0.06047982 0.06106844 0.06240328 0.06450628 0.06620587 0.06600776
 0.06357279 0.06055826 0.05944765 0.06111283 0.06398165 0.06598404 0.06674162 0.06733434 0.0684172 0.06920733
 0.06829567 0.06531331 0.06183757 0.06042074 0.06236471 0.06641635 0.06967246 0.06972241 0.06627243 0.06123019
 0.05722264 0.05577434 0.05688794 0.06003556 0.06474368 0.070078 0.07440963 0.07631931 0.07562242 0.07329901
 0.07037812 0.06698149 0.06284699 0.05891223 0.05752195 0.06021141 0.06573713 0.07110977 0.07426354 0.07509063
 0.07427462 0.07200579 0.06817701 0.06363992 0.06062308 0.06100108 0.06404122 0.06681859 0.06728303 0.06612819
 0.06528497 0.06549789 0.0660466 0.06625152 0.06644625 0.06742314 0.06931524 0.07130449 0.07242264 0.07243039
 0.07185516 0.07136953 0.07117841 0.07087268 0.07001619 0.06904196 0.06918394 0.07111917 0.07402318 0.07641293
 0.07762693 0.07805124 0.07812019 0.07756299 0.07579933 0.07303211 0.07069133 0.0703712 0.072284 0.07512596
 0.07743083 0.07862543 0.07888761 0.07860832 0.0781284 0.07763322 0.07721109 0.0770853 0.0775568 0.07856955
 0.07961599 0.08024365 0.0804201 0.08030298 0.07992624 0.07927749 0.07852694 0.07801474 0.07800482 0.07848992
 0.07924674 0.08003268 0.08066197 0.08096002 0.08082916 0.08039311 0.07992916 0.07961775 0.07946995 0.07948852
 0.07973495 0.08019351 0.08069845 0.08106635 0.08123928 0.08126514 0.08119738 0.0810568 0.08086494 0.08068515
 0.08062135 0.08074501 0.08100539 0.08126249 0.08145058 0.08164616 0.08191158 0.08214389 0.08217965 0.08201126
 0.0818049 0.08171742 0.08176807 0.08188095 0.08197525 0.08198065 0.08182375 0.08149034 0.08111653 0.08094056
 0.0811123 0.08158597 0.08220451 0.08281176 0.08327532 0.08351481 0.08356375 0.08353482 0.08349019 0.08339708
 0.08322392 0.08303401 0.08296682 0.08313261 0.08351378 0.08396941 0.08434619 0.08457388 0.08466946 0.08471073
 0.08480593 0.08500467 0.08521785 0.08530042 0.08523349 0.08515666 0.08519937 0.08533372 0.08542098 0.08537669
 0.08526616 0.08523522 0.08535938 0.08558051 0.0857915 0.08595338 0.08611291 0.08631693 0.08652326 0.08661396
 0.08652026 0.08631928 0.08616041 0.08610603 0.08610742 0.08613247 0.08622921 0.08642818 0.08665124 0.08677856
 0.08678482 0.08676091 0.08679857 0.08688431 0.08692195 0.08684251 0.0866729 0.08650559 0.08642195 0.08644244
 0.08652504 0.08659717 0.08660075 0.08652619 0.08641127 0.0863037 0.08622655 0.08618867 0.08622128 0.08636805
 0.08661185 0.08683102 0.08687384 0.08669636 0.08641404 0.08620153 0.08613859 0.08615442 0.08611455 0.08594869
 0.08569451 0.08544011 0.08524647 0.08511899 0.08502905 0.08495294 0.08490238 0.08492195 0.08503774 0.08519453
 0.08526601 0.08515975 0.08490881 0.08463909 0.08445571 0.08438045 0.0843739 0.08438237 0.08437918 0.08438884
 0.08445033 0.0845404 0.08457404 0.08450741 0.08440013 0.08435363 0.08442581 0.08461122 0.08484626 0.0850195
 0.08504075 0.08493184 0.08481191 0.08477596 0.08482023 0.08489153 0.08496484 0.08504962 0.08515248 0.08526756
 0.08539873 0.08556728 0.08578861 0.08604561 0.08628925 0.08646987 0.08657889 0.08666676 0.086812 0.08705895
 0.08738014 0.08769986 0.08795595 0.08814431 0.08830859 0.08848883 0.08868821 0.0888963 0.08912688 0.089405
 0.08972342 0.09004197 0.09033257 0.09060283 0.09087385 0.09115465 0.09144345 0.09174614 0.09208735 0.0924902
 0.09293018 0.09332322 0.09358963 0.09373362 0.09384662 0.09403674 0.09435387 0.09475188 0.09510791 0.09531715
 0.09539972 0.09548809 0.0956816 0.09594621 0.09619221 0.09641676 0.09671214 0.09713475 0.09761418 0.09801266
 0.09825701 0.0983967 0.09853762 0.09872976 0.09892846 0.0990675 0.09914972 0.09923854 0.09937254 0.09953678
 0.09972844 0.09999563 0.1003709 0.1008004 0.1011836 0.1014675 0.1016688 0.1018228 0.1019435 0.102024
 0.1020531 0.1020418 0.1020423 0.1021103 0.1022362 0.1023454 0.1023883 0.1024005 0.1024543 0.1025861
 0.1027938 0.1030707 0.1033963 0.1037164 0.103986 0.1042351 0.1045403 0.1049093 0.1052392 0.1054265
 0.105484 0.1055034 0.1055359 0.1055722 0.1056235 0.105749 0.1059849 0.1062989 0.1066345 0.1069692
 0.1073107 0.1076586 0.1079822 0.1082294 0.1083571 0.1083687 0.1083248 0.1083148 0.1084103 0.1086317
 0.1089423 0.1092732 0.1095639 0.1097795 0.1098953 0.1098974 0.1098246 0.1097821 0.1098616 0.1100394
 0.1101845 0.1101734 0.109973 0.1096124 0.1091159 0.1084978 0.1078057 0.1071342 0.1065798 0.1061904
 0.1059708 0.1059334 0.1061234 0.1065664 0.1072033 0.1079041 0.1085492 0.1090653 0.1093819 0.1094097
 0.1091042 0.1085257 0.1078077 0.1070748 0.1063993 0.105796 0.1052298 0.1046626 0.1041355 0.1038014
 0.1038503 0.1043974 0.1054297 0.1068172 0.1083513 0.1098076 0.1110324 0.1120014 0.1127929 0.1134996
 0.1141692 0.1148217 0.1154827 0.1161621 0.116817 0.1173831 0.1178463 0.1182532 0.1186482 0.1190317
 0.1193781 0.1196672 0.1198998 0.1201012 0.1202966 0.120468 0.1205592 0.120542 0.1204548 0.1203539
 0.1202486 0.1200977 0.119852 0.1194907 0.1190497 0.1186457 0.1184621 0.1186736 0.1193457 0.1203933
 0.1216451 0.1229522 0.124226 0.125387 0.1263368 0.1270146 0.127456 0.1277627 0.1280273 0.1282984
 0.1285919 0.1289026 0.1292137 0.1295118 0.1297978 0.1300863 0.1303975 0.1307403 0.1310909 0.1314004
 0.1316422 0.1318517 0.132103 0.132439 0.1328286 0.1332008 0.1335228 0.1338276 0.1341519 0.1344715
 0.134727 0.1349064 0.1350667 0.1352761 0.1355646 0.1359197 0.1362963 0.1366287 0.1368732 0.1370468
 0.1372075 0.1373947 0.1376074 0.1378337 0.138074 0.138331 0.1385991 0.1388745 0.1391657 0.1394745
 0.1397729 0.1400172 0.1401922 0.1403318 0.140486 0.1406751 0.140883 0.1410862 0.1412827 0.1414975
 0.1417606 0.1420712 0.1423833 0.1426375 0.1428114 0.1429346 0.143057 0.1432124 0.1434092 0.1436376
 0.1438771 0.144104 0.1443045 0.1444868 0.1446735 0.1448804 0.1451033 0.1453262 0.1455388 0.1457421
 0.1459423 0.1461445 0.1463538 0.1465811 0.1468396 0.1471281 0.1474199 0.1476762 0.1478757 0.1480255
 0.1481486 0.1482692 0.1484067 0.148572 0.1487628 0.1489677 0.1491766 0.1493842 0.1495876 0.1497851
 0.1499778 0.1501722 0.1503769 0.1505953 0.1508248 0.1510603 0.1512966 0.1515258 0.151739 0.1519337
 0.152117 0.1522992 0.152488 0.152684 0.1528802 0.153067 0.1532426 0.1534166 0.1536015 0.1538027
 0.1540155 0.1542302 0.154438 0.1546363 0.1548284 0.155018 0.1552072 0.1553974 0.1555889 0.1557804
 0.1559698 0.1561563 0.1563422 0.1565336 0.1567363 0.1569478 0.157157 0.1573563 0.1575501 0.1577499
 0.1579612 0.1581777 0.1583872 0.1585813 0.1587606 0.1589318 0.1591043 0.1592885 0.1594908 0.1597076
 0.1599282 0.1601441 0.160352 0.1605525 0.1607512 0.1609578 0.1611753 0.161395 0.1616059 0.1618073
 0.1620079 0.162217 0.1624367 0.1626627 0.1628906 0.1631186 0.1633433 0.1635596 0.1637646 0.1639575
 0.1641352 0.1642982 0.1644578 0.1646252 0.164799 0.1649711 0.1651403 0.1653121 0.1654902 0.1656759
 0.165869 0.1660693 0.1662757 0.1664853 0.1666929 0.1668971 0.1671022 0.1673096 0.1675141 0.1677134
 0.1679122 0.168115 0.1683229 0.1685359 0.168749 0.168954 0.1691506 0.1693479 0.1695527 0.1697647
 0.1699822 0.1702018 0.1704158 0.1706212 0.1708229 0.1710247 0.1712265 0.1714293 0.1716348 0.1718428
 0.172055 0.1722733 0.1724942 0.1727131 0.1729292 0.1731392 0.1733379 0.1735301 0.1737299 0.1739435
 0.1741684 0.1744007 0.1746324 0.174852 0.1750583 0.1752609 0.1754657 0.175675 0.1758919 0.1761124
 0.1763277 0.1765392 0.1767514 0.1769478 0.1770776 0.1770218 0.1765009 0.1749679 0.1715886 0.1654013
 0.1556995 0.1424802 0.1266031 0.1094875 0.09259226 0.07703432 0.06347258 0.05218524 0.04321403 0.03646843
 0.03179295 0.02905706 0.02824501 0.02956037 0.0335499 0.04078351 0.05061885 0.06010181 0.0651136 0.06362407
 0.05763248 0.05134342 0.04767076 0.04682847 0.04758245 0.04887585 0.0503661 0.05223118 0.05479183 0.05814682
 0.06215514 0.06682654 0.07250247 0.07941867 0.0871992 0.09502053 0.1023138 0.1092043 0.1162287 0.1236892
 0.1313337 0.1386016 0.1450696 0.1506611 0.1555563 0.1599951 0.1641427 0.1680739 0.1718248 0.1753917
 0.1786471 0.1813045 0.1830594 0.1838217 0.1838234 0.1834878 0.1831811 0.1830691 0.1831628 0.1834305
 0.1838483 0.1843971 0.1850615 0.1858232 0.186648 0.187494 0.1883343 0.1891552 0.1899401 0.1906735
 0.191351 0.1919736 0.1925404 0.1930521 0.1935151 0.1939407 0.1943422 0.1947256 0.1950864 0.1954224
 0.1957443 0.1960615 0.1963681 0.1966499 0.1969005 0.1971239 0.1973318 0.1975396 0.1977551 0.1979738
 0.1981888 0.1983972 0.1985984 0.1987936 0.19899 0.1991937 0.1993999 0.1995993 0.1997923 0.1999865
 0.2001841 0.2003786 0.200565 0.2007486 0.2009417 0.2011485 0.2013584 0.2015575 0.2017445 0.2019268
 0.2021099 0.2022961 0.2024886 0.2026873 0.2028892 0.2030973 0.2033172 0.2035458 0.2037723 0.2039914
 0.2042053 0.2044188 0.2046365 0.2048583 0.2050695 0.2052483 0.2053915 0.2055268 0.2056918 0.205901
 0.2061351 0.2063608 0.2065621 0.2067504 0.2069445 0.207147 0.2073456 0.2075273 0.2076953 0.2078733
 0.2080864 0.2083307 0.2085786 0.208817 0.2090577 0.2093072 0.2095561 0.2097985 0.2100319 0.2102374
 0.2103952 0.2105243 0.2106884 0.2109478 0.2113017 0.2116779 0.2119957 0.2122359 0.2124421 0.212665
 0.2129272 0.2132041 0.2134085 0.2134519 0.2133787 0.2133878 0.2136523 0.214148 0.2147037 0.2151765
 0.2155373 0.2158276 0.2160857 0.216308 0.216454 0.2164944 0.216477 0.2165406 0.2168163 0.2172915
 0.2178099 0.2182318 0.2185408 0.2187814 0.2189793 0.2191472 0.2192575 0.2191896 0.2188596 0.2184579
 0.2183992 0.218918 0.2198017 0.2206163 0.2211343 0.2214463 0.221716 0.2219823 0.222205 0.2222983
 0.2220388 0.221196 0.2199847 0.2191839 0.2194923 0.2208215 0.2224333 0.2236778 0.2244065 0.224797
 0.2250555 0.2252789 0.2253895 0.2251523 0.2244351 0.2235498 0.2231743 0.2237324 0.2249136 0.2260002
 0.2265989 0.2268508 0.2270454 0.2272973 0.2274738 0.2271564 0.2258746 0.2237979 0.2220944 0.2221115
 0.2240556 0.2267427 0.2287735 0.2297382 0.2301083 0.2302077 0.2297388 0.2283238 0.2260665 0.2235028
 0.2214551 0.2209439 0.2225047 0.225319 0.2276766 0.2286704 0.2289635 0.2296748 0.2310376 0.2323994
 0.23308 0.2329047 0.2320873 0.2308484 0.2293063 0.2278322 0.2272676 0.2283235 0.2307151 0.2332622
 0.2349825 0.2358399 0.2362313 0.2358288 0.2333412 0.2280697 0.2218516 0.2185468 0.2206227 0.2265719
 0.2325348 0.2360942 0.237592 0.2383117 0.2387618 0.2385394 0.2365482 0.2315817 0.2242098 0.2179938
 0.2170837 0.2221041 0.2294446 0.2346435 0.2354465 0.2320415 0.226233 0.2208956 0.2188065 0.2209664
 0.2261635 0.2321673 0.2370678 0.2398042 0.2401499 0.2385886 0.2362649 0.2347183 0.2347764 0.2353208
 0.23413 0.230696 0.2270821 0.2248781 0.2227082 0.2187485 0.2147528 0.2148836 0.2203195 0.2272949
 0.2313418 0.2318172 0.231058 0.2300999 0.2268619 0.2191186 0.2087179 0.2016273 0.202719 0.2107174
 0.2193499 0.2235012 0.2232735 0.2221024 0.2221717 0.2221957 0.2192274 0.2125119 0.2054016 0.2025249
 0.2048402 0.2087696 0.2104084 0.2086168 0.2035978 0.1956546 0.1874853 0.1849591 0.1921317 0.2062537
 0.2199546 0.2273156 0.2259676 0.2157059 0.1993822 0.184727 0.1805645 0.1888653 0.2023413 0.2111714
 0.2107688 0.2025163 0.1895902 0.1748686 0.1623132 0.1572597 0.1631922 0.1782625 0.1953743 0.2056448
 0.2032609 0.1900542 0.1760203 0.1720951 0.1801173 0.1915404 0.1970275 0.1949422 0.1899188 0.186927
 0.1884407 0.1940566 0.2009037 0.2063257 0.2099862 0.2107811 0.2039509 0.1867913 0.1661962 0.1541304
 0.1551997 0.1642282 0.1758378 0.1893105 0.2024464 0.2081947 0.2026151 0.1923815 0.1891453 0.1971561
 0.2096028 0.2169621 0.2164369 0.212483 0.2098919 0.2086678 0.2064436 0.2040375 0.2056241 0.2130066
 0.2224921 0.2290136 0.2313849 0.2318575 0.2322797 0.2326904 0.2326089 0.2318743 0.2305567 0.2290673
 0.228041 0.2276167 0.2273068 0.2267433 0.2256314 0.2225733 0.2153713 0.2041086 0.1931306 0.1876131
 0.1880698 0.190673 0.1929375 0.1951688 0.1951619 0.1867269 0.1678708 0.1474898 0.1388995 0.1469718
 0.1645041 0.1804107 0.1882212 0.1866338 0.1761683 0.1593184 0.1432035 0.1373908 0.1461087 0.1641663
 0.1824677 0.1958518 0.2037641 0.2059381 0.2013464 0.1912407 0.1804553 0.1746739 0.1769223 0.1861928
 0.1978359 0.204832 0.2011914 0.1878521 0.1753426 0.1760843 0.1913955 0.2093543 0.2182042 0.2182879
 0.2174089 0.2187025 0.2190065 0.2172814 0.2180807 0.225249 0.236242 0.2446335 0.2457603 0.2385645
 0.2250333 0.2107182 0.2032978 0.206376 0.2153227 0.222271 0.2237265 0.2200975 0.2110317 0.197391
 0.1862263 0.1865343 0.1988233 0.2139243 0.2234142 0.2272873 0.2301306 0.2332279 0.2330203 0.2265261
 0.216356 0.2091065 0.2088336 0.2134944 0.2183778 0.2210748 0.2214769 0.2189235 0.2126209 0.2048746
 0.2011277 0.2052032 0.2153135 0.2257195 0.2318604 0.2331902 0.2317918 0.2296763 0.2274598 0.2245547
 0.2204889 0.2166165 0.2158708 0.219643 0.2255654 0.2299354 0.231955 0.234016 0.2379457 0.2424974
 0.2448746 0.2437839 0.2406561 0.2383847 0.2389986 0.2420543 0.2449701 0.2452322 0.2427932 0.2403436
 0.2408325 0.2446528 0.2495925 0.2533504 0.2554098 0.2565611 0.2575498 0.2584259 0.258516 0.2569435
 0.2538735 0.2512226 0.2512904 0.2544723 0.258881 0.2622957 0.2639562 0.2644162 0.264305 0.2636801
 0.2624027 0.2607289 0.2593187 0.2587089 0.2589266 0.2596291 0.2604627 0.2612229 0.2618231 0.2622586
 0.2625691 0.2627794 0.2628974 0.2629642 0.2630281 0.2630644 0.2630103 0.2629044 0.2629021 0.2630976
 0.2633961 0.2636148 0.2636424 0.2634302 0.2628978 0.2619707 0.260706 0.2592645 0.2577285 0.2560543
 0.2543067 0.2528964 0.2524484 0.2533354 0.2553334 0.2577562 0.2599186 0.2614808 0.2624466 0.2629709
 0.2632149 0.2633015 0.2633052 0.2632468 0.2631121 0.2628866 0.262578 0.2622109 0.2618137 0.2614167
 0.2610548 0.2607534 0.2605017 0.2602457 0.2599213 0.2594978 0.2589961 0.2584677 0.2579497 0.2574224
 0.2568128 0.2560514 0.2551357 0.2541399 0.2531723 0.2523119 0.2515611 0.2508488 0.2500952 0.2492692
 0.2483667 0.2473611 0.2462335 0.2450568 0.2439879 0.2431372 0.2424707 0.2418584 0.2411893 0.2404182
 0.2395426 0.2385803 0.2375618 0.2365102 0.2354245 0.2342916 0.2331018 0.2318437 0.2305038 0.2290812
 0.2275872 0.2260281 0.2244077 0.2227435 0.2210478 0.2192792 0.2173259 0.2150389 0.212279 0.2089496
 0.2050225 0.2005607 0.1957247 0.1907388 0.1858248 0.1811505 0.1768317 0.1729607 0.1696179 0.1668695
 0.1647724 0.1633731 0.1626931 0.1627258 0.1634524 0.1648419 0.1668282 0.1692984 0.1721067 0.1750897
 0.1780737 0.1808962 0.1834585 0.1857691 0.1879171 0.1899767 0.19194 0.1937496 0.1953688 0.1967952
 0.1980273 0.199056 0.199887 0.2005496 0.2010852 0.2015357 0.2019341 0.2022975 0.2026298 0.2029292
 0.2031935 0.2034243 0.2036307 0.2038261 0.2040233 0.2042335 0.2044708 0.2047571 0.2051202 0.2055751
 0.2061028 0.2066633 0.2072306 0.2078052 0.2083982 0.2090251 0.2097185 0.2105274 0.2114944 0.2126324
 0.2139163 0.2152906 0.2166855 0.2180283 0.2192435 0.2202606 0.2210329 0.2215472 0.2218192 0.2218858
 0.2217971 0.2215955 0.2213036 0.2209321 0.220492 0.2199926 0.2194391 0.2188366 0.2181908 0.2175066
 0.2167954 0.2160811 0.2153862 0.2147136 0.2140487 0.2133845 0.2127358 0.2121228 0.2115447 0.2109802
 0.210412 0.2098392 0.2092661 0.2086917 0.2081109 0.2075124 0.2068684 0.2061414 0.2053108 0.2043822
 0.2033682 0.2022696 0.2010831 0.199816 0.1984797 0.197071 0.1955728 0.193976 0.1922975 0.1905632
 0.1887722 0.1868922 0.1849114 0.1828862 0.1809179 0.1790823 0.1773928 0.1758209 0.1743312 0.1729028
 0.1715349 0.1702345 0.1690007 0.1678294 0.1667253 0.1656933 0.164722 0.1637941 0.1629106 0.1620951
 0.161374 0.1607534 0.1602155 0.1597394 0.1593238 0.1589816 0.1587262 0.1585709 0.1585196 0.1585418
 0.1585741 0.1585626 0.1584884 0.158362 0.1582149 0.1580877 0.1579999 0.1579387 0.1578844 0.157817
 0.1576879 0.1574103 0.1568889 0.1560521 0.1548718 0.1533742 0.1516333 0.1497615 0.1479039 0.1462092
 0.1447759 0.1436355 0.1427772 0.1421529 0.1416762 0.1412731 0.1409427 0.1407467 0.1407435 0.1409204
 0.1411649 0.1413268 0.1413547 0.1413553 0.1414973 0.1418853 0.1425181 0.143304 0.144101 0.1447898
 0.1453196 0.1456878 0.1459181 0.1460559 0.1461314 0.1461246 0.1460053 0.1457849 0.145502 0.1451857
 0.1448405 0.1444359 0.1439303 0.1433267 0.1426635 0.1419459 0.1411479 0.1402598 0.1392625 0.1381175
 0.1368807 0.1357751 0.1350726 0.1349295 0.1353314 0.1361213 0.1370962 0.1381332 0.1391573 0.139971
 0.1403201 0.1402814 0.1404458 0.1414938 0.1435533 0.146054 0.148227 0.1496644 0.1503717 0.1504611
 0.1499927 0.1490195 0.1475652 0.1455918 0.1431177 0.1402785 0.1372116 0.1340381 0.1309658 0.1282191
 0.1258899 0.1239769 0.1224747 0.1214394 0.1210249 0.1208668 0.1190396 0.1130677 0.103736 0.0967716
 0.09799673 0.1067691 0.1164521 0.1214286 0.1215601 0.1198515 0.1183717 0.1174265 0.1169043 0.1169544
 0.1177138 0.1190309 0.1204973 0.1216998 0.1224791 0.1228899 0.1228922 0.1220993 0.1197423 0.1149691
 0.107537 0.0983666 0.08921081 0.08164586 0.07637379 0.07325382 0.07166108 0.07084623 0.07029872 0.06998582
 0.07023076 0.07132509 0.0732848 0.07594772 0.07914089 0.08262108 0.08596736 0.08876473 0.09091428 0.0926099
 0.09400523 0.09504052 0.09559347 0.0956594 0.09534603 0.09477922 0.09405797 0.0932446 0.09233264 0.09124979
 0.08998914 0.08875092 0.08784353 0.08739987 0.08728115 0.08727503 0.08727773 0.08727409 0.08726311 0.08724229
 0.08721291 0.08720633 0.08731289 0.08761592 0.08807497 0.08853425 0.08885761 0.08902258 0.08909296 0.08909525
 0.08890665 0.08835961 0.08753373 0.08678187 0.08629155 0.08577487 0.08483779 0.0835671 0.08250719 0.08207832
 0.08220485 0.08250444 0.08266182 0.08258902 0.08240405 0.0823671 0.08270274 0.08332118 0.0837917 0.08374703
</values></Ydata></ScRf><Data_Parameters_AB><parameter name="DPF">1</parameter><parameter name="NPT">3497</parameter><parameter name="FXV">3996</parameter><parameter name="LXV">500</parameter><parameter name="CSF">1</parameter><parameter name="MXY">0.0225288681685925</parameter><parameter name="MNY">-0.116318486630917</parameter><parameter name="DAT">27/05/2022</parameter><parameter name="TIM">12:18:12.454 (GMT+2)</parameter><parameter name="DXU">WN</parameter></Data_Parameters_AB><AB__Qtest><MainReport name="Quality Test Report"><Header><Line><Legend>Test result ok/not ok [1/0]: </Legend><Value>0</Value></Line><Line><Legend>Method file: </Legend><Value>C:\Users\Public\Documents\Bruker\OPUS_8.2.28\QT\IRBT_v3_default.QT</Value></Line></Header><Matrix><Line><Legend></Legend><Legend>min</Legend><Legend>max</Legend><Legend>measured</Legend></Line><Line><Value>Absorption (X-Range 1):</Value><Value>0.400000</Value><Value>2.000000</Value><Value>0.114878</Value></Line><Line><Value>Noise (X-Range 4):</Value><Value></Value><Value>0.000300</Value><Value>0.000035</Value></Line><Line><Value>Signal/Noise (X-Range 2):</Value><Value>200.000000</Value><Value></Value><Value>52.600095</Value></Line><Line><Value>Signal/Noise (X-Range 3):</Value><Value>40.000000</Value><Value></Value><Value>35.499734</Value></Line><Line><Value>Water vapour (X-Range 5):</Value><Value></Value><Value>0.000300</Value><Value>0.000025</Value></Line><Line><Value>Signal/Water (X-Range 2):</Value><Value>100.000000</Value><Value></Value><Value>73.359467</Value></Line><Line><Value>Signal/Water (X-Range 3):</Value><Value>20.000000</Value><Value></Value><Value>49.510208</Value></Line><Line><Value>Fringes (X-Range 6):</Value><Value></Value><Value>0.000100</Value><Value>0.000054</Value></Line></Matrix></MainReport></AB__Qtest><Data_Parameters_ScSm><parameter name="DPF">1</parameter><parameter name="NPT">1814</parameter><parameter name="FXV">3996.33169228125</parameter><parameter name="LXV">499.541461535156</parameter><parameter name="CSF">1</parameter><parameter name="MXY">0.290069103240967</parameter><parameter name="MNY">0.0369207635521889</parameter><parameter name="DAT">27/05/2022</parameter><parameter name="TIM">12:18:12.454 (GMT+2)</parameter><parameter name="DXU">WN</parameter></Data_Parameters_ScSm><Data_Parameters_ScRf><parameter name="DPF">1</parameter><parameter name="NPT">1820</parameter><parameter name="FXV">4004.04661832813</parameter><parameter name="LXV">495.683998511719</parameter><parameter name="CSF">1</parameter><parameter name="MXY">0.264416217803955</parameter><parameter name="MNY">0.0282450132071972</parameter><parameter name="DAT">27/05/2022</parameter><parameter name="TIM">12:17:46.059 (GMT+2)</parameter><parameter name="DXU">WN</parameter></Data_Parameters_ScRf><Optic_Parameters_Rf><parameter name="APR">0</parameter><parameter name="APT">Open</parameter><parameter name="BMS">KBr</parameter><parameter name="DTC">RT-DLaTGS_IR-Biotyper [Microplate reader]</parameter><parameter name="HPF">0</parameter><parameter name="LPF">10.0</parameter><parameter name="LPV">4000</parameter><parameter name="PGR">0</parameter><parameter name="RCH">Module port</parameter><parameter name="RDX">0</parameter><parameter name="SRC">MIR</parameter><parameter name="VEL">10.0</parameter><parameter name="SON">Off</parameter></Optic_Parameters_Rf><Acquisition_Parameters_Rf><parameter name="ADT">1</parameter><parameter name="AQM">DD</parameter><parameter name="CFE">0</parameter><parameter name="COR">0</parameter><parameter name="DEL">0</parameter><parameter name="DLY">0</parameter><parameter name="HFW">8000</parameter><parameter name="LFW">0</parameter><parameter name="NSR">32</parameter><parameter name="PLF">AB</parameter><parameter name="RES">6</parameter><parameter name="RGN">-1</parameter><parameter name="STR">0</parameter><parameter name="TCL">MakeCompatibleScalar (0, {WSV=1.000000, ARV=0});</parameter><parameter name="TDL">37</parameter><parameter name="RPO">0</parameter></Acquisition_Parameters_Rf><FT_-_Parameters_Rf><parameter name="APF">B3</parameter><parameter name="HFQ">500</parameter><parameter name="LFQ">4000</parameter><parameter name="NLI">0</parameter><parameter name="PHR">24</parameter><parameter name="PHZ">ML</parameter><parameter name="SPZ">NO</parameter><parameter name="ZFF">1</parameter></FT_-_Parameters_Rf><Optic_Parameters_><parameter name="APR">0</parameter><parameter name="APT">Open</parameter><parameter name="BMS">KBr</parameter><parameter name="CHN">Module port</parameter><parameter name="DTC">RT-DLaTGS_IR-Biotyper [Microplate reader]</parameter><parameter name="HPF">0</parameter><parameter name="LPF">10.0</parameter><parameter name="LPV">4000</parameter><parameter name="PGN">0</parameter><parameter name="RDX">0</parameter><parameter name="SRC">MIR</parameter><parameter name="VEL">10.0</parameter><parameter name="SON">Off</parameter></Optic_Parameters_><FT_-_Parameters_><parameter name="APF">B3</parameter><parameter name="HFQ">500</parameter><parameter name="LFQ">4000</parameter><parameter name="NLI">0</parameter><parameter name="PHR">24</parameter><parameter name="PHZ">ML</parameter><parameter name="SPZ">NO</parameter><parameter name="ZFF">1</parameter></FT_-_Parameters_><Acquisition_Parameters_><parameter name="ADT">1</parameter><parameter name="AQM">DD</parameter><parameter name="CFE">0</parameter><parameter name="COR">0</parameter><parameter name="DEL">0</parameter><parameter name="DLY">0</parameter><parameter name="HFW">8000</parameter><parameter name="LFW">0</parameter><parameter name="NSS">32</parameter><parameter name="PLF">AB</parameter><parameter name="RES">6</parameter><parameter name="SOT">0</parameter><parameter name="TCL">MakeCompatibleScalar (0, {WSV=1.000000, ARV=0});</parameter><parameter name="TDL">37</parameter><parameter name="SPO">0</parameter><parameter name="SGN">-1</parameter></Acquisition_Parameters_><Instrument_Parameters_Rf><parameter name="HFL">15800.168544</parameter><parameter name="LFL">0</parameter><parameter name="LWN">15800.168544</parameter><parameter name="ABP">32197</parameter><parameter name="SSP">1</parameter><parameter name="ARG">2</parameter><parameter name="ASG">2</parameter><parameter name="ASS">32</parameter><parameter name="GFW">16</parameter><parameter name="GBW">16</parameter><parameter name="BFW">0</parameter><parameter name="BBW">0</parameter><parameter name="PKA">7267</parameter><parameter name="PKL">4996</parameter><parameter name="PRA">7452</parameter><parameter name="PRL">5001</parameter><parameter name="P2A">1</parameter><parameter name="P2L">1</parameter><parameter name="P2R">1</parameter><parameter name="P2K">1</parameter><parameter name="DAQ">0</parameter><parameter name="AG2">1</parameter><parameter name="SSM">1</parameter><parameter name="RSN">24958</parameter><parameter name="CRR">0</parameter><parameter name="SRT">1653653866.06</parameter><parameter name="DUR">19.635986328125</parameter><parameter name="TSC">27.9</parameter><parameter name="MVD">1.30293273925781</parameter><parameter name="AN1">0.225813601486466</parameter><parameter name="AN2">0</parameter><parameter name="VSN">2.485 Apr  4 2017</parameter><parameter name="SRN">0085</parameter><parameter name="CAM">0</parameter><parameter name="INS">IR-Biotyper</parameter><parameter name="FOC">69</parameter><parameter name="RDY">1</parameter><parameter name="ARS">32</parameter></Instrument_Parameters_Rf><Sample_Parameters_><parameter name="BLD"></parameter><parameter name="CNM">Admin</parameter><parameter name="CPY"></parameter><parameter name="DPM"></parameter><parameter name="EXP">IRBT_v3_32Scans.XPM</parameter><parameter name="LCT"></parameter><parameter name="SFM">Microplate, HTS-XT</parameter><parameter name="SNM">220527-1039(v.2)_GFG29M (D_7)_G10_b726a05b-5e10-4282-b13a-2c1d718a6e23.0</parameter><parameter name="XPP">C:\Users\Public\Documents\Bruker\OPUS_8.2.28\XPM</parameter><parameter name="IST">OK</parameter><parameter name="CPG">1252</parameter><parameter name="UID">8bb8419e-ae5f-4f4f-8003-6ec623395bad</parameter></Sample_Parameters_><Instrument_Parameters_><parameter name="HFL">15800.168544</parameter><parameter name="LFL">0</parameter><parameter name="LWN">15800.168544</parameter><parameter name="ABP">32197</parameter><parameter name="SSP">1</parameter><parameter name="ASG">2</parameter><parameter name="ARG">2</parameter><parameter name="ASS">32</parameter><parameter name="GFW">16</parameter><parameter name="GBW">16</parameter><parameter name="BFW">0</parameter><parameter name="BBW">0</parameter><parameter name="PKA">8370</parameter><parameter name="PKL">4988</parameter><parameter name="PRA">8645</parameter><parameter name="PRL">4993</parameter><parameter name="P2A">1</parameter><parameter name="P2L">1</parameter><parameter name="P2R">1</parameter><parameter name="P2K">1</parameter><parameter name="DAQ">0</parameter><parameter name="AG2">1</parameter><parameter name="SSM">1</parameter><parameter name="RSN">13105</parameter><parameter name="CRR">0</parameter><parameter name="SRT">1653653892.455</parameter><parameter name="DUR">19.635986328125</parameter><parameter name="TSC">27.9</parameter><parameter name="MVD">3.00846171379089</parameter><parameter name="AN1">0.225804787505556</parameter><parameter name="AN2">0</parameter><parameter name="VSN">2.485 Apr  4 2017</parameter><parameter name="SRN">0085</parameter><parameter name="CAM">0</parameter><parameter name="INS">IR-Biotyper</parameter><parameter name="FOC">69</parameter><parameter name="RDY">1</parameter></Instrument_Parameters_><History/></OPUSDataFile>
