<?xml version="1.0" encoding="UTF-8" ?>
<OPUSDataFile><AB><Ydata ylabel="Absorbance Units"><values byteorder="INTEL" format="FLOAT32" numvalues="3497"> -0.03104609 -0.0310336 -0.03101746 -0.03099739 -0.03097818 -0.03096006 -0.03094318 -0.03092751 -0.03091199 -0.0308977
 -0.0308908 -0.03089159 -0.03090577 -0.03092965 -0.03095766 -0.03098604 -0.03100404 -0.03101628 -0.03102216 -0.03103142
 -0.03105333 -0.0310875 -0.03113943 -0.0311943 -0.03124868 -0.03128837 -0.03130786 -0.03130703 -0.03128393 -0.03124961
 -0.03120449 -0.03116306 -0.03112615 -0.03110684 -0.0311052 -0.03112598 -0.03116726 -0.03122086 -0.03128393 -0.03134195
 -0.03139373 -0.03142909 -0.03144864 -0.03144852 -0.03143085 -0.03139491 -0.0313478 -0.03129287 -0.03124181 -0.03120243
 -0.0311792 -0.03117843 -0.03118769 -0.03120629 -0.03121697 -0.03121538 -0.03120228 -0.03117618 -0.03115673 -0.03114494
 -0.03115392 -0.03118259 -0.03121953 -0.03126238 -0.03128945 -0.03130351 -0.03130185 -0.0312912 -0.03128786 -0.03129236
 -0.03131513 -0.03134798 -0.03138576 -0.03142096 -0.03144516 -0.03145692 -0.03145361 -0.03143426 -0.03139787 -0.03134426
 -0.03127087 -0.03119106 -0.03110437 -0.03103861 -0.03099609 -0.03100201 -0.03105795 -0.03116902 -0.03133304 -0.03152393
 -0.03173428 -0.03190545 -0.03203284 -0.03206037 -0.03200646 -0.03188185 -0.0317186 -0.03157967 -0.03147184 -0.03143378
 -0.03144277 -0.0314959 -0.03156413 -0.0316289 -0.03167911 -0.03170295 -0.03171341 -0.03171111 -0.03171047 -0.03171561
 -0.0317229 -0.03173326 -0.03172995 -0.031712 -0.03167023 -0.0316058 -0.03153333 -0.03145647 -0.03140603 -0.03138275
 -0.03140865 -0.03147572 -0.03157859 -0.03170209 -0.03181732 -0.03191719 -0.03197867 -0.03201101 -0.0320144 -0.03199695
 -0.03196368 -0.03191759 -0.03185698 -0.0318007 -0.03175002 -0.03173663 -0.03176748 -0.0318533 -0.03199972 -0.03216114
 -0.03233575 -0.03241511 -0.03239837 -0.03224663 -0.03197967 -0.03171117 -0.03144718 -0.03127368 -0.03117555 -0.03115826
 -0.03120678 -0.03130092 -0.03142345 -0.03154941 -0.03165851 -0.03172461 -0.03174182 -0.03169284 -0.03160477 -0.03148048
 -0.03135768 -0.03124869 -0.03116582 -0.03111443 -0.03108713 -0.03108361 -0.03109882 -0.03113242 -0.03118369 -0.0312521
 -0.03133049 -0.03141651 -0.03149208 -0.0315541 -0.03158006 -0.03157092 -0.03151451 -0.03142115 -0.03129998 -0.03116805
 -0.03104964 -0.03095474 -0.03090228 -0.03088686 -0.03091248 -0.03096531 -0.03104111 -0.03112922 -0.03122631 -0.03132557
 -0.0314269 -0.03151541 -0.03159077 -0.03162576 -0.03161861 -0.03155541 -0.03143759 -0.03128738 -0.03110838 -0.03093602
 -0.03077009 -0.03062868 -0.03050915 -0.03041351 -0.03034062 -0.03028932 -0.0302595 -0.03025144 -0.03026245 -0.03029216
 -0.03033268 -0.03038113 -0.03042576 -0.03046144 -0.0304803 -0.0304773 -0.03045927 -0.0304246 -0.0303951 -0.03037294
 -0.03037393 -0.03039943 -0.03044202 -0.03050014 -0.0305464 -0.03057959 -0.03057541 -0.03053933 -0.0304777 -0.03040056
 -0.030338 -0.03029304 -0.030287 -0.03031265 -0.03037072 -0.03045061 -0.03054265 -0.03064288 -0.03074556 -0.03085264
 -0.03096556 -0.03107817 -0.03119155 -0.03128747 -0.03136283 -0.03140574 -0.03141413 -0.03138768 -0.03132635 -0.03122189
 -0.03107509 -0.0308958 -0.03069074 -0.03051346 -0.03036626 -0.03029217 -0.03027719 -0.03031153 -0.03037052 -0.03040407
 -0.03040107 -0.03031597 -0.03018287 -0.03001117 -0.02984464 -0.02971755 -0.02963425 -0.02960879 -0.02961786 -0.02965985
 -0.02970523 -0.02974844 -0.02977047 -0.02976746 -0.02974258 -0.02969553 -0.02964483 -0.02959147 -0.02955438 -0.02953281
 -0.02953314 -0.02954925 -0.02956182 -0.02956157 -0.0295089 -0.02941227 -0.02926253 -0.02908684 -0.02891911 -0.02876808
 -0.02865852 -0.02857264 -0.02850868 -0.02844383 -0.02836529 -0.02827209 -0.0281575 -0.02804598 -0.02794088 -0.02786124
 -0.02781178 -0.02777865 -0.02776196 -0.02771437 -0.02763402 -0.02748261 -0.02726735 -0.02702095 -0.02675454 -0.02653551
 -0.02635912 -0.02624848 -0.02619064 -0.0261739 -0.026185 -0.0262059 -0.02621827 -0.02620063 -0.02614014 -0.0260177
 -0.02584838 -0.02563307 -0.02538948 -0.02512738 -0.02483227 -0.024502 -0.02413044 -0.02371376 -0.02328305 -0.02283993
 -0.02241514 -0.02200947 -0.02163403 -0.02128874 -0.02097958 -0.02070507 -0.02046482 -0.02025226 -0.02004924 -0.01985145
 -0.01964019 -0.01942064 -0.0191948 -0.01895912 -0.01871802 -0.01844539 -0.01812246 -0.01774661 -0.01730101 -0.01683755
 -0.01636773 -0.01592888 -0.01553345 -0.01517572 -0.01485767 -0.01455735 -0.01427341 -0.01398945 -0.01370552 -0.0134261
 -0.01315252 -0.01290086 -0.01266494 -0.01243295 -0.01218624 -0.01186255 -0.01146199 -0.01094008 -0.01034672 -0.009729512
 -0.009125022 -0.008592387 -0.008116899 -0.007709277 -0.007339941 -0.006998798 -0.006665375 -0.006331134 -0.005988874 -0.005635407
 -0.005272056 -0.004898942 -0.004514457 -0.00411873 -0.003701567 -0.003262681 -0.002796232 -0.002304517 -0.001802207 -0.001292635
 -0.000798371 -0.0003196617 0.0001313243 0.000555802 0.0009488811 0.001316122 0.001659181 0.00199347 0.002333079 0.0026899
 0.003079972 0.003491802 0.003925859 0.004364565 0.004799615 0.005237148 0.00567609 0.006130586 0.006604629 0.007081049
 0.007559482 0.00800577 0.008419201 0.008792323 0.009127994 0.009445136 0.009746499 0.0100546 0.01036855 0.01069874
 0.01103997 0.01138727 0.01173623 0.01207677 0.01241325 0.01274297 0.01308074 0.01343429 0.01381689 0.01423938
 0.01469516 0.01518808 0.01569251 0.01620545 0.01669952 0.0171707 0.01760464 0.01799943 0.01836479 0.01870189
 0.01903849 0.0193758 0.01973676 0.02011937 0.02052822 0.02095843 0.02140008 0.0218463 0.02227991 0.02269491
 0.02307436 0.02342113 0.02372892 0.02401163 0.02427448 0.02453424 0.0247994 0.02508033 0.02538323 0.02570548
 0.02604912 0.0263999 0.02675619 0.02710854 0.02745572 0.02780453 0.02815536 0.02851778 0.02889043 0.02926656
 0.02964345 0.03000407 0.03034932 0.03067181 0.03097654 0.03126948 0.03155536 0.03184379 0.03213534 0.03243535
 0.03273849 0.03304342 0.03334395 0.03363541 0.03392088 0.03419874 0.03448056 0.03476886 0.03506857 0.03538173
 0.03569905 0.03602017 0.03633301 0.0366373 0.0369316 0.03721686 0.03750074 0.03778348 0.03807116 0.03836139
 0.03865072 0.038936 0.03920824 0.03946862 0.03971341 0.03994918 0.04018031 0.04041357 0.04065494 0.04090723
 0.04117408 0.0414524 0.04174446 0.04203486 0.04232265 0.04258457 0.0428166 0.04301195 0.0431686 0.04331468
 0.04345212 0.04362538 0.04383448 0.04410126 0.04441848 0.04476665 0.04513438 0.04547771 0.04579158 0.04604101
 0.04623715 0.04637638 0.04648311 0.04657873 0.04668273 0.04681748 0.04698119 0.04718222 0.04739983 0.04763109
 0.04785165 0.04805496 0.04823259 0.04838054 0.0485165 0.04864101 0.04878192 0.04894015 0.0491238 0.0493311
 0.04954869 0.04977656 0.05000708 0.05024319 0.05049159 0.05075031 0.05102072 0.05129455 0.05156059 0.05181354
 0.05204311 0.05225072 0.05243417 0.05259624 0.05273751 0.05286066 0.05296559 0.05305913 0.05314189 0.05322354
 0.05330548 0.05339335 0.05348783 0.05358873 0.05369608 0.05380958 0.05392976 0.05406149 0.05420524 0.054367
 0.05454435 0.05473435 0.05493158 0.05512287 0.05530658 0.05547199 0.0556278 0.05577709 0.05593242 0.05610616
 0.0562955 0.05650788 0.0567155 0.05691308 0.05707039 0.05717657 0.05723604 0.05724423 0.05724504 0.05724137
 0.05727158 0.05733661 0.05742682 0.05753867 0.0576332 0.05771132 0.05775484 0.05777224 0.05777994 0.05778498
 0.05781164 0.05785786 0.05793268 0.05802714 0.058136 0.05825082 0.05836236 0.05847244 0.05857669 0.05869017
 0.05881646 0.05896849 0.05915296 0.05935637 0.0595806 0.05978694 0.05997258 0.06010582 0.06018568 0.06021508
 0.06019695 0.06016047 0.06010778 0.06006486 0.06003065 0.06001423 0.0600163 0.06004156 0.06009368 0.0601823
 0.06030298 0.06045983 0.06063218 0.06080874 0.06096881 0.06109578 0.06119442 0.0612582 0.06131691 0.06137535
 0.06145877 0.06157348 0.06171468 0.06188378 0.06204851 0.06220711 0.06232413 0.06239989 0.06242192 0.06239638
 0.0623453 0.06227868 0.06224005 0.06223362 0.06229379 0.06240838 0.06257955 0.06278002 0.06298416 0.06316853
 0.06330461 0.06339569 0.06343055 0.06343946 0.06342801 0.06342804 0.06344841 0.06350226 0.0635932 0.06372087
 0.06388546 0.06408743 0.06432676 0.06460246 0.06491257 0.06523909 0.06557591 0.06588274 0.0661538 0.06634638
 0.06646588 0.06649718 0.06646325 0.06638811 0.0662998 0.06623934 0.06621286 0.06624486 0.0663068 0.0663958
 0.06646939 0.06651138 0.06650157 0.06642827 0.06630987 0.06614488 0.0659728 0.06579699 0.06564202 0.06550882
 0.06539027 0.06528505 0.06517519 0.06506284 0.06494884 0.06483857 0.06475132 0.06468705 0.06465958 0.06465505
 0.06466363 0.06465931 0.06461279 0.06450243 0.06429829 0.06400876 0.06362146 0.063183 0.06270183 0.06223337
 0.06179283 0.06140655 0.06108267 0.06081316 0.06059888 0.06041696 0.06026612 0.06011786 0.05997088 0.05979967
 0.05960711 0.05939309 0.05916527 0.0589511 0.05875006 0.05857975 0.0584229 0.05826147 0.0580797 0.05784796
 0.05757777 0.05726122 0.05693512 0.05661347 0.05633108 0.05610541 0.05594394 0.05585643 0.05581328 0.05581519
 0.05580655 0.05578277 0.0557004 0.05555747 0.05535859 0.05510746 0.05484721 0.05458024 0.05434347 0.05413198
 0.05394952 0.05378897 0.05363518 0.05348703 0.05333494 0.05318373 0.05303546 0.05289305 0.05276173 0.05263465
 0.05251164 0.05237949 0.05223282 0.05206664 0.05187648 0.05167489 0.05146222 0.05125634 0.05105933 0.05087526
 0.05070432 0.05053556 0.0503686 0.05019459 0.05001507 0.04983395 0.04965276 0.04947979 0.04931298 0.04915241
 0.04899415 0.04883122 0.04866362 0.04848791 0.04830743 0.0481245 0.04793862 0.04775106 0.04755726 0.0473548
 0.0471456 0.04692804 0.04671408 0.04650543 0.04630997 0.04612935 0.04595546 0.0457879 0.04560999 0.04542163
 0.04521557 0.04499411 0.04476593 0.04453395 0.04431318 0.04410383 0.04391476 0.0437423 0.04358533 0.04343839
 0.04329482 0.04315179 0.04300319 0.04285448 0.04270472 0.04256718 0.04244696 0.04235046 0.04228362 0.04222851
 0.04218569 0.04211993 0.04202787 0.04188735 0.04169717 0.04146659 0.04119783 0.04091992 0.04063552 0.04037469
 0.04013782 0.03994467 0.03978842 0.03966706 0.03956437 0.03945374 0.03932383 0.03914584 0.03893451 0.03868582
 0.0384348 0.03820032 0.03799975 0.03784935 0.03772845 0.0376367 0.0375457 0.03744817 0.0373491 0.03724655
 0.03717505 0.03713638 0.03715016 0.0372136 0.03729821 0.03739635 0.03744778 0.03745072 0.03736228 0.03719606
 0.03695833 0.03667216 0.03637822 0.03608923 0.03583889 0.03561906 0.03543512 0.0352742 0.03512784 0.03499899
 0.03488589 0.03479731 0.03473841 0.03469593 0.03467082 0.03463279 0.03457814 0.03449871 0.03439391 0.03429175
 0.03419381 0.03412934 0.0340952 0.03408856 0.03410347 0.03411596 0.03412569 0.034118 0.03409998 0.03407649
 0.03405394 0.03404456 0.0340423 0.03405164 0.0340487 0.03402447 0.0339523 0.03381636 0.03361941 0.03335228
 0.03306114 0.03274908 0.03247453 0.03224494 0.03207846 0.03197657 0.03189944 0.03184342 0.03174786 0.03161388
 0.03141379 0.0311591 0.03087412 0.03057332 0.030305 0.0300723 0.02990626 0.0297922 0.02972885 0.02969158
 0.02966132 0.0296191 0.02954702 0.02944573 0.02930772 0.02915435 0.02898813 0.02883376 0.02869735 0.0285809
 0.02848685 0.02838987 0.02828864 0.02816144 0.02800933 0.02784313 0.02766597 0.02750518 0.02735699 0.02722444
 0.02709697 0.02694807 0.02677683 0.02656459 0.02632877 0.02608112 0.02583965 0.02562578 0.02543894 0.02528593
 0.0251575 0.02504941 0.02496493 0.02490296 0.02487396 0.02488139 0.02491817 0.02498582 0.0250523 0.02511594
 0.02513809 0.02511792 0.02503463 0.0248919 0.02469971 0.0244664 0.02422691 0.02398919 0.02379081 0.02363309
 0.02353668 0.02349523 0.02351116 0.02357251 0.02367265 0.02379562 0.02393188 0.02406785 0.02419496 0.02431196
 0.02441523 0.0245159 0.02461481 0.02472386 0.02484411 0.02498535 0.02514811 0.02534962 0.02559103 0.02589417
 0.02625727 0.02668282 0.02716252 0.02766755 0.02818933 0.02868979 0.02917137 0.02961769 0.03004324 0.03045762
 0.03087593 0.03131507 0.03177907 0.03227664 0.03280057 0.03335137 0.03391697 0.03449572 0.03507222 0.03564517
 0.0361932 0.03671456 0.03718653 0.0376076 0.03796624 0.03826275 0.03850053 0.03868048 0.03880961 0.03888852
 0.03892055 0.03891124 0.03887194 0.03881732 0.03877623 0.03876263 0.03880791 0.03890864 0.03907612 0.03929152
 0.03954657 0.03982966 0.04013196 0.04045875 0.04080999 0.04119026 0.04160216 0.04203491 0.04248824 0.04294646
 0.04340855 0.04386633 0.04431954 0.04476373 0.04519855 0.04561862 0.04602515 0.04641927 0.04680375 0.04718805
 0.04756934 0.04795296 0.04831899 0.0486548 0.04891625 0.04907206 0.04906031 0.04883982 0.0483634 0.04759397
 0.04654844 0.04520822 0.04368048 0.04196936 0.0402383 0.03850292 0.03690248 0.03544719 0.0341863 0.03311757
 0.03220299 0.03143595 0.03075311 0.03015354 0.02960062 0.02909621 0.0286292 0.02819526 0.02778314 0.02738555
 0.02698704 0.02658974 0.02618799 0.02579285 0.02540979 0.02504449 0.02470155 0.02437854 0.02407446 0.02379308
 0.02353302 0.02331114 0.02312853 0.02300435 0.02293996 0.02294392 0.02301558 0.02314546 0.02332912 0.02353365
 0.02375128 0.02393354 0.02407621 0.02414055 0.02413485 0.02405202 0.0239125 0.02373618 0.02354593 0.0233669
 0.02321591 0.02310921 0.02305624 0.02306336 0.02313874 0.02328413 0.02351275 0.02382712 0.02423815 0.02475049
 0.0253366 0.02599685 0.02662033 0.0271971 0.02754359 0.02765192 0.02736687 0.02671034 0.02567138 0.02430973
 0.02276759 0.02110902 0.0195186 0.01801822 0.016719 0.01558874 0.01464281 0.01382765 0.01311496 0.01247028
 0.01187057 0.01130974 0.01078118 0.01028918 0.009834263 0.009415517 0.00903337 0.008681474 0.008359509 0.008060089
 0.007782745 0.00751915 0.007268661 0.007022088 0.006780018 0.006538433 0.006301449 0.006077379 0.005870929 0.005696463
 0.005551073 0.005440376 0.00534997 0.005270873 0.005186805 0.005083253 0.004959044 0.004806293 0.004644531 0.004475693
 0.004325379 0.00419974 0.004107318 0.004051599 0.004015114 0.003997227 0.003971025 0.003935816 0.003880169 0.003805979
 0.003722457 0.003630514 0.00354029 0.003447945 0.003348575 0.003237813 0.003103148 0.002948209 0.002769558 0.002580405
 0.002389704 0.002212138 0.002059405 0.001938981 0.001858359 0.001813324 0.001806855 0.001820352 0.001853065 0.001875852
 0.001885421 0.001859799 0.001796853 0.001698764 0.00156645 0.001420569 0.001262358 0.001110564 0.0009650114 0.0008344607
 0.0007190602 0.0006240812 0.0005487665 0.00049599 0.0004598866 0.0004352061 0.0004138405 0.0003851718 0.0003494058 0.0003011562
 0.0002514929 0.0002036117 0.0001668376 0.0001468237 0.0001365915 0.0001375686 0.0001302634 0.000112414 7.140455E-05 5.786798E-06
 -7.728179E-05 -0.0001769588 -0.0002743475 -0.00036914 -0.0004495707 -0.0005179219 -0.000577505 -0.0006309588 -0.000688086 -0.0007481074
 -0.0008154975 -0.000884963 -0.0009520376 -0.001010591 -0.001051911 -0.001077665 -0.001083193 -0.001082778 -0.001079751 -0.001091597
 -0.001125351 -0.001185021 -0.00127454 -0.001380374 -0.001502094 -0.001621244 -0.001736421 -0.001837366 -0.001923985 -0.001997775
 -0.002059763 -0.002118554 -0.002175003 -0.002237772 -0.002306093 -0.002382715 -0.002465483 -0.002551577 -0.002639368 -0.00272513
 -0.002809286 -0.002890608 -0.002970883 -0.003050895 -0.003131997 -0.003215502 -0.003299897 -0.003385867 -0.00346758 -0.003544322
 -0.003609702 -0.003662364 -0.003703355 -0.003732399 -0.003758946 -0.003783392 -0.003813149 -0.003847296 -0.003881897 -0.003915234
 -0.003936815 -0.003947482 -0.003942858 -0.003927799 -0.003908894 -0.003891901 -0.003887744 -0.003898349 -0.003930365 -0.003980441
 -0.004049429 -0.004130248 -0.004220718 -0.004313023 -0.004404473 -0.004490057 -0.004567959 -0.004638273 -0.004700515 -0.004758222
 -0.004811572 -0.004864464 -0.004917063 -0.004971806 -0.005028752 -0.005089546 -0.005154076 -0.005223106 -0.005295731 -0.005370212
 -0.005444689 -0.005514681 -0.005579066 -0.005633505 -0.005680538 -0.005720031 -0.005757525 -0.005796929 -0.005840604 -0.005891746
 -0.005946025 -0.006003141 -0.006057553 -0.006107381 -0.006153948 -0.006196744 -0.006242131 -0.006290609 -0.006345012 -0.006405305
 -0.006468283 -0.00653359 -0.006596628 -0.006657664 -0.006715356 -0.006770488 -0.006824728 -0.006878419 -0.006933421 -0.006988706
 -0.007044005 -0.007097274 -0.007146012 -0.007190365 -0.007228599 -0.007265179 -0.007301263 -0.007341955 -0.007390032 -0.007443657
 -0.00750408 -0.007561415 -0.007614592 -0.007655831 -0.007684106 -0.007703773 -0.007715248 -0.007730313 -0.007748815 -0.007774947
 -0.007806767 -0.007836916 -0.007864946 -0.007884387 -0.007899014 -0.007912997 -0.007930448 -0.007959911 -0.008000528 -0.008055412
 -0.008120046 -0.008192547 -0.00826883 -0.008346833 -0.008423232 -0.008496992 -0.008564288 -0.008624081 -0.008674574 -0.008715043
 -0.008748178 -0.00877401 -0.008797728 -0.008819548 -0.008842538 -0.008866513 -0.008891004 -0.00891586 -0.008939819 -0.008963581
 -0.008988511 -0.009015446 -0.009047485 -0.009083052 -0.009122322 -0.009160584 -0.009193484 -0.009217161 -0.009226696 -0.009223897
 -0.009207002 -0.009183815 -0.009155501 -0.009132122 -0.009115812 -0.009113958 -0.009128243 -0.009158839 -0.009206271 -0.009261182
 -0.00932302 -0.009379609 -0.009430988 -0.009472238 -0.0095047 -0.009532425 -0.009556036 -0.009580154 -0.009603134 -0.009623616
 -0.009640556 -0.009650812 -0.009657137 -0.009660645 -0.00966516 -0.009674592 -0.009687762 -0.009705875 -0.009724126 -0.00974063
 -0.009755 -0.009766121 -0.009779096 -0.009794626 -0.00981509 -0.009841022 -0.009867009 -0.009892778 -0.009912455 -0.009926501
 -0.009936768 -0.009944402 -0.009956348 -0.009972467 -0.009996381 -0.01002636 -0.01006034 -0.01009751 -0.01013538 -0.01017506
 -0.01021714 -0.01026135 -0.0103087 -0.01035527 -0.01039953 -0.01043839 -0.01046951 -0.01049635 -0.01051878 -0.01054289
 -0.01056996 -0.01059952 -0.0106319 -0.01066045 -0.01068492 -0.01070208 -0.0107126 -0.01072188 -0.01073075 -0.01074659
 -0.01076864 -0.01079885 -0.01083498 -0.01087331 -0.0109121 -0.01094703 -0.01097783 -0.01100218 -0.0110219 -0.01103701
 -0.01105096 -0.01106535 -0.01108267 -0.01110472 -0.01112961 -0.01115782 -0.01118381 -0.01120676 -0.01122367 -0.01123398
 -0.01124124 -0.01124569 -0.01125376 -0.01126557 -0.01128488 -0.01131115 -0.01134404 -0.01138212 -0.01142103 -0.01145902
 -0.01148982 -0.01151374 -0.01152738 -0.01153501 -0.01153921 -0.01154504 -0.01155773 -0.01157708 -0.01160557 -0.01163686
 -0.01166998 -0.01169735 -0.01171681 -0.01172556 -0.01172235 -0.01171131 -0.0116924 -0.01167417 -0.01165702 -0.01164705
 -0.01164399 -0.01164731 -0.01165644 -0.01166803 -0.01168208 -0.01169701 -0.01171273 -0.01172855 -0.01174376 -0.01175692
 -0.01176783 -0.01177524 -0.01178081 -0.01178516 -0.01179002 -0.01179647 -0.01180525 -0.01181704 -0.0118312 -0.01184795
 -0.01186517 -0.0118828 -0.01189768 -0.01190955 -0.01191627 -0.01191779 -0.01191609 -0.0119116 -0.01190965 -0.01191068
 -0.01192007 -0.01193698 -0.01196211 -0.01199302 -0.01202484 -0.01205569 -0.01207987 -0.01209878 -0.01211096 -0.01212062
 -0.01213041 -0.01214312 -0.01216185 -0.01218369 -0.01220938 -0.01223126 -0.01224776 -0.01225334 -0.01224614 -0.01223033
 -0.0122057 -0.0121836 -0.01216459 -0.01215607 -0.01215774 -0.01216817 -0.01218726 -0.0122131 -0.0122474 -0.01229458
 -0.01235668 -0.01244069 -0.01254662 -0.01267791 -0.01283294 -0.01301117 -0.0132115 -0.01343303 -0.01367501 -0.01393725
 -0.01421772 -0.01451607 -0.01482903 -0.01515524 -0.01549595 -0.01585042 -0.01622708 -0.01662686 -0.0170534 -0.01750661
 -0.01795993 -0.01840886 -0.01879465 -0.01911283 -0.01930708 -0.01937978 -0.01930774 -0.01909852 -0.01875113 -0.01828836
 -0.01773431 -0.01713612 -0.01655078 -0.01601679 -0.01558235 -0.01525825 -0.01506335 -0.01499277 -0.01505306 -0.01521841
 -0.01549326 -0.01580386 -0.01614516 -0.01641841 -0.01661202 -0.01669988 -0.0166807 -0.01660065 -0.01646183 -0.01630154
 -0.01611969 -0.01593422 -0.01574571 -0.01556627 -0.0153952 -0.01523647 -0.01509014 -0.01495739 -0.01484009 -0.01474259
 -0.01466015 -0.01459318 -0.01452891 -0.01446101 -0.01438072 -0.01428252 -0.01416733 -0.01403407 -0.01388661 -0.01372512
 -0.01355435 -0.01337431 -0.01319515 -0.01301745 -0.01285461 -0.01270702 -0.01258368 -0.01248374 -0.01240769 -0.01235334
 -0.01231424 -0.01228737 -0.01226293 -0.01223877 -0.0122068 -0.01216766 -0.01211811 -0.01206213 -0.01200113 -0.01194008
 -0.01188191 -0.01182972 -0.01178572 -0.01174918 -0.01172073 -0.01169694 -0.0116775 -0.01165888 -0.01164069 -0.01162143
 -0.01160101 -0.01157986 -0.01155819 -0.01153856 -0.01152129 -0.01150966 -0.01150346 -0.01150402 -0.01151024 -0.01152045
 -0.01153318 -0.01154534 -0.01155623 -0.01156354 -0.01156833 -0.01157022 -0.01157172 -0.0115745 -0.01157838 -0.01158484
 -0.01158782 -0.01158657 -0.01157409 -0.01154854 -0.01151071 -0.01146005 -0.0114048 -0.01134538 -0.01128972 -0.01123804
 -0.01119519 -0.01116114 -0.0111388 -0.01112726 -0.01112567 -0.01113157 -0.0111389 -0.0111458 -0.01114605 -0.01114042
 -0.01112698 -0.0111082 -0.01108548 -0.01106035 -0.01103427 -0.0110069 -0.01097856 -0.01094804 -0.0109148 -0.01087985
 -0.01084289 -0.01080823 -0.01077628 -0.01075 -0.01072957 -0.01071251 -0.01069871 -0.01068536 -0.01067322 -0.01066559
 -0.01066296 -0.01066992 -0.01068384 -0.01070155 -0.01071875 -0.01072641 -0.01072359 -0.01070432 -0.01067344 -0.01063166
 -0.01058687 -0.01054334 -0.01050664 -0.01048049 -0.01046441 -0.01045985 -0.01046051 -0.01046579 -0.01046933 -0.01047019
 -0.01046824 -0.01046342 -0.01046074 -0.01046033 -0.01046543 -0.01047541 -0.01048823 -0.01050315 -0.01051631 -0.01052789
 -0.01053636 -0.01054241 -0.01054688 -0.01054923 -0.01054922 -0.01054613 -0.01053875 -0.01052853 -0.01051524 -0.01050268
 -0.01049238 -0.01048602 -0.01048508 -0.01048588 -0.01048838 -0.01048681 -0.01048043 -0.01046749 -0.01044783 -0.01042637
 -0.01040356 -0.01038674 -0.01037578 -0.01037384 -0.01037956 -0.01038976 -0.010403 -0.01041397 -0.01042269 -0.01042653
 -0.01042693 -0.01042457 -0.01042061 -0.01041651 -0.01041183 -0.01040699 -0.01040024 -0.01039081 -0.01037838 -0.01036203
 -0.01034565 -0.01032939 -0.01031908 -0.01031565 -0.01031894 -0.01032902 -0.01033707 -0.0103426 -0.01033655 -0.01031995
 -0.01029407 -0.01026154 -0.01023302 -0.01020977 -0.0102013 -0.01020494 -0.01022147 -0.01024545 -0.01027107 -0.01029357
 -0.01030663 -0.01030955 -0.01029896 -0.01028021 -0.01025352 -0.01022775 -0.01020522 -0.01019193 -0.01019005 -0.01019652
 -0.01021183 -0.01022539 -0.01023661 -0.01023759 -0.01022864 -0.01021306 -0.0101923 -0.01017768 -0.01016944 -0.01017542
 -0.01019301 -0.0102202 -0.01025345 -0.01028544 -0.01031492 -0.01033722 -0.01035327 -0.0103623 -0.01036543 -0.01036277
 -0.01035636 -0.01034639 -0.01033696 -0.01032921 -0.0103256 -0.01032725 -0.01033127 -0.01033758 -0.01034237 -0.0103454
 -0.01034736 -0.01034837 -0.01035054 -0.01035334 -0.01035403 -0.01035211 -0.01034347 -0.01032988 -0.01031322 -0.01029649
 -0.01028637 -0.01028301 -0.01029018 -0.01030424 -0.01032344 -0.01034477 -0.01036533 -0.01038612 -0.01040674 -0.01042892
 -0.01045378 -0.01047827 -0.01050246 -0.01052053 -0.01053164 -0.0105349 -0.01053013 -0.01052347 -0.01051523 -0.01051127
 -0.01051119 -0.01051534 -0.01052279 -0.01053004 -0.0105368 -0.01054029 -0.01054133 -0.01053977 -0.01053725 -0.0105359
 -0.01053617 -0.01053992 -0.0105445 -0.01054901 -0.010551 -0.01054847 -0.01054361 -0.01053633 -0.01053032 -0.01052666
 -0.01052438 -0.01052362 -0.01052171 -0.01051843 -0.01051602 -0.01051466 -0.01051808 -0.01052565 -0.01053495 -0.010545
 -0.01054997 -0.01055095 -0.01054707 -0.01054136 -0.01053896 -0.01054142 -0.01055373 -0.01057311 -0.01059984 -0.01062826
 -0.01065494 -0.01067694 -0.01069136 -0.01070119 -0.01070627 -0.01071155 -0.01071822 -0.01072692 -0.01073799 -0.01074924
 -0.01076052 -0.01077211 -0.01078409 -0.01079823 -0.01081418 -0.01083052 -0.01084642 -0.01085781 -0.01086431 -0.01086272
 -0.01085352 -0.01083562 -0.01081085 -0.01078026 -0.01074764 -0.0107161 -0.01068965 -0.01067218 -0.01066335 -0.01066505
 -0.01067123 -0.01068099 -0.01068785 -0.01069011 -0.01068688 -0.01067767 -0.01066522 -0.01064973 -0.01063059 -0.01060772
 -0.01057895 -0.01054521 -0.01051161 -0.01047993 -0.01046121 -0.01045411 -0.01046211 -0.01047983 -0.01049875 -0.010516
 -0.0105228 -0.01052342 -0.01051821 -0.01051238 -0.0105105 -0.01051066 -0.0105142 -0.01051422 -0.0105087 -0.01049465
 -0.0104703 -0.01044091 -0.01040647 -0.01037598 -0.0103501 -0.01033267 -0.01032354 -0.01031889 -0.01031806 -0.01031435
 -0.01030795 -0.01029581 -0.01027916 -0.0102594 -0.01023819 -0.01021921 -0.01020352 -0.01019449 -0.01019094 -0.01019382
 -0.0101991 -0.0102046 -0.01020758 -0.01020565 -0.01020075 -0.01019275 -0.01018459 -0.01017706 -0.01017011 -0.0101639
 -0.01015718 -0.01014989 -0.01014102 -0.01013048 -0.01011642 -0.01009917 -0.01007959 -0.01005914 -0.01004462 -0.01003665
 -0.01004202 -0.01005656 -0.01007724 -0.01009624 -0.01010165 -0.01009025 -0.01005239 -0.009996452 -0.009922681 -0.009846181
 -0.00977386 -0.009713259 -0.009669579 -0.009636967 -0.009615812 -0.009595886 -0.00957565 -0.00955261 -0.009526336 -0.009502111
 -0.009480126 -0.009464081 -0.009453408 -0.009445408 -0.009439465 -0.009431251 -0.009421253 -0.009408304 -0.009393777 -0.009379687
 -0.009367056 -0.009358507 -0.00935309 -0.009351448 -0.009350665 -0.009349362 -0.009344633 -0.009334737 -0.009318837 -0.00929617
 -0.009267524 -0.009232797 -0.009193555 -0.009149823 -0.009104195 -0.009056765 -0.009012271 -0.008971034 -0.00893929 -0.008917183
 -0.00890927 -0.008914374 -0.008930814 -0.008955423 -0.00897916 -0.008998405 -0.00900132 -0.008988203 -0.008953065 -0.008901946
 -0.008837583 -0.008767041 -0.008695711 -0.008627105 -0.008564233 -0.008507399 -0.008457392 -0.008413158 -0.008374605 -0.008340957
 -0.008312143 -0.008287299 -0.008266364 -0.008248447 -0.00823355 -0.008222325 -0.008214593 -0.008210061 -0.008207051 -0.008198217
 -0.008181754 -0.008147136 -0.008097664 -0.008033599 -0.007961332 -0.007890346 -0.00782237 -0.007762725 -0.007710062 -0.007664606
 -0.007626442 -0.007596124 -0.007571776 -0.00755404 -0.007535824 -0.007515894 -0.007488911 -0.007453527 -0.007412699 -0.007366512
 -0.007318784 -0.00726951 -0.007216765 -0.007160302 -0.007096905 -0.007027206 -0.006951811 -0.006872549 -0.006794618 -0.006720037
 -0.006656189 -0.006601267 -0.006557844 -0.00651798 -0.006474897 -0.006423785 -0.006356501 -0.00628231 -0.006201979 -0.006128962
 -0.00606937 -0.006021848 -0.005988984 -0.005955239 -0.005918943 -0.005869109 -0.005804418 -0.00572988 -0.005645832 -0.00556095
 -0.005474452 -0.005383608 -0.005286804 -0.005173836 -0.005046913 -0.004905948 -0.004756455 -0.004610131 -0.004468236 -0.004338473
 -0.004217021 -0.004102946 -0.003992949 -0.003883989 -0.003776371 -0.003669422 -0.003564217 -0.003461121 -0.003360173 -0.003261973
 -0.003163198 -0.003064411 -0.002953641 -0.002830122 -0.002681929 -0.002509114 -0.002321105 -0.002119466 -0.001923085 -0.001730161
 -0.001543035 -0.001357482 -0.001162117 -0.0009548742 -0.0007257236 -0.0004759057 -0.000202157 9.137295E-05 0.0004029921 0.0007258654
 0.001054375 0.001386493 0.001716782 0.002058307 0.002412915 0.002796273 0.003214782 0.003658738 0.004129118 0.004602191
 0.005075954 0.005541869 0.005999625 0.006447853 0.006886037 0.007307627 0.007713879 0.008105597 0.008487631 0.008875895
 0.009271208 0.009685751 0.01011047 0.0105373 0.01096033 0.01136785 0.01176718 0.01215935 0.01255223 0.01295119
 0.01335465 0.01376371 0.01417309 0.01457913 0.01499498 0.01541783 0.01589925 0.01644288 0.01709328 0.01785009
 0.01865784 0.01950987 0.02031771 0.02108904 0.02181375 0.02250429 0.02319364 0.02388626 0.02460591 0.02535466
 0.0261407 0.02697783 0.02787508 0.02886562 0.0299733 0.03122343 0.03264926 0.03419806 0.03587558 0.03756117
 0.03922905 0.04080889 0.04228352 0.04365988 0.04493568 0.04615308 0.04731514 0.04849366 0.04969549 0.05102215
 0.05246353 0.05404192 0.05570788 0.05731041 0.05884122 0.06019282 0.06142444 0.06257772 0.06369632 0.06484638
 0.06602596 0.06725633 0.06851666 0.06980028 0.07109965 0.07241419 0.07372481 0.07503026 0.07629826 0.07752188
 0.0787048 0.07984655 0.08096065 0.08204652 0.08306341 0.08400698 0.08481666 0.08549604 0.0860303 0.08642716
 0.08670167 0.08686072 0.08692221 0.08689894 0.08681772 0.08668406 0.08651374 0.08630577 0.08605707 0.08579057
 0.0855137 0.08525342 0.08502723 0.08481551 0.0846239 0.08439098 0.08411119 0.08371962 0.08320841 0.0825773
 0.08182801 0.08105667 0.08026579 0.07952094 0.07881048 0.07810896 0.07740787 0.07666358 0.07588406 0.07505953
 0.07421439 0.07338062 0.07257438 0.07183059 0.07113419 0.07048716 0.06986785 0.06925981 0.06867573 0.06811032
 0.06760553 0.06717162 0.06682451 0.06657059 0.06638976 0.06628109 0.06622459 0.06621946 0.06626208 0.06635286
 0.0664949 0.06668752 0.06692898 0.06721772 0.06754773 0.06791822 0.06832457 0.06876671 0.06924231 0.06975219
 0.07029517 0.07087569 0.07149513 0.07216156 0.07287925 0.07365306 0.07448624 0.07537747 0.07632825 0.07733005
 0.0783841 0.07946483 0.08057129 0.08166398 0.08274096 0.08377503 0.0847661 0.08570621 0.08659209 0.08740366
 0.08813504 0.08875155 0.08926179 0.08966344 0.0899767 0.09023155 0.09043966 0.09062581 0.09078921 0.09093734
 0.09106494 0.09117303 0.09125007 0.0912943 0.09128781 0.09122139 0.09111327 0.09095972 0.09082606 0.09072021
 0.09063704 0.09057577 0.09047379 0.09033024 0.090114 0.08982988 0.08948731 0.08908975 0.08865941 0.08818255
 0.08765279 0.08702426 0.08622266 0.08522268 0.08393012 0.08246545 0.08087961 0.07929071 0.07780162 0.07635114
 0.07494027 0.07350659 0.07202198 0.0705344 0.06904297 0.06762727 0.06629696 0.06505443 0.06389943 0.06277384
 0.06167632 0.06057047 0.05946342 0.05837433 0.0573106 0.0563107 0.05536763 0.0544882 0.05365456 0.05284278
 0.05203908 0.05122181 0.05037824 0.04949921 0.04855486 0.04752768 0.04639871 0.04513161 0.04384279 0.04253793
 0.04139887 0.04047083 0.0397135 0.03913305 0.03858139 0.03805157 0.0374743 0.03685459 0.03622682 0.03559893
 0.03503627 0.03453054 0.03408827 0.03369778 0.0333303 0.03299417 0.03268582 0.0324263 0.03223969 0.03213183
 0.03211808 0.0321867 0.03233603 0.03255463 0.03283778 0.03317995 0.03357706 0.03403771 0.03455954 0.03517739
 0.03589465 0.03673409 0.03769628 0.03870236 0.0397436 0.04068889 0.04154124 0.04224907 0.04282419 0.04327897
 0.04362199 0.04387526 0.04405073 0.0441721 0.04425924 0.04433911 0.04443461 0.04457494 0.04475953 0.04500445
 0.04526887 0.04554042 0.04579608 0.04602381 0.04623898 0.04644224 0.04664763 0.04685719 0.04706761 0.04727878
 0.0474856 0.04768872 0.04789434 0.04810355 0.04832596 0.04856114 0.04881306 0.04907984 0.0493591 0.0496495
 0.04994619 0.0502535 0.05057213 0.05091276 0.05128348 0.0516921 0.05214646 0.0526436 0.05318518 0.0537628
 0.05437391 0.05501788 0.05569389 0.05640647 0.05715695 0.05793414 0.05873737 0.05952738 0.06030171 0.0610189
 0.06167943 0.06226559 0.062778 0.06321055 0.06356049 0.0638188 0.06398231 0.06404124 0.0639962 0.06384342
 0.06358662 0.06322726 0.06276885 0.06221367 0.06156335 0.06081732 0.05998306 0.05905683 0.05807476 0.05703701
 0.05601058 0.05500191 0.05405615 0.05317598 0.05235096 0.05157893 0.05082829 0.05009991 0.0493823 0.04867977
 0.04800307 0.04735158 0.04673166 0.04613475 0.04555028 0.04497025 0.0443799 0.04378041 0.04316548 0.04254646
 0.04192641 0.04131902 0.04073076 0.04016636 0.03963028 0.03911166 0.03861085 0.03810699 0.03759784 0.03707162
 0.03652754 0.03598515 0.03544735 0.03495898 0.03452035 0.03415849 0.033866 0.03363065 0.0334462 0.03329012
 0.03316436 0.03306177 0.03298673 0.03294315 0.03292939 0.03294795 0.03298849 0.03304785 0.03311209 0.03317533
 0.03322938 0.03327008 0.03329967 0.03331752 0.03332977 0.03333734 0.0333389 0.03333446 0.03331511 0.03328069
 0.03322629 0.0331535 0.0330689 0.03297539 0.03288679 0.03280507 0.03274237 0.03269789 0.03267626 0.03267431
 0.0326906 0.0327213 0.03276346 0.0328129 0.03286733 0.03292166 0.03297411 0.03301897 0.03305509 0.03307559
 0.03307934 0.03306068 0.03301846 0.03295579 0.03287273 0.03278308 0.03268756 0.03259936 0.03251752 0.03244302
 0.0323735 0.03230047 0.03222312 0.03213464 0.03203679 0.03192903 0.03181439 0.03169597 0.03157653 0.03145914
 0.03134572 0.03123768 0.03113748 0.03104573 0.0309666 0.03090137 0.03085206 0.03082 0.03079956 0.03079066
 0.03078379 0.03077835 0.0307721 0.03076549 0.03076551 0.0307724 0.03079177 0.03082233 0.03086189 0.03090985
 0.03096266 0.03102274 0.03109251 0.0311744 0.03127319 0.03138738 0.03151774 0.03166135 0.03181611 0.03198281
 0.03216106 0.03235301 0.03256005 0.03277856 0.03300897 0.03324216 0.03347747 0.03370575 0.03392644 0.03413156
 0.03432086 0.03448912 0.03463712 0.03476695 0.03488022 0.03498472 0.03508003 0.03517004 0.0352513 0.03531996
 0.03537251 0.03540298 0.03541013 0.03539097 0.03534545 0.03527321 0.03517297 0.0350446 0.0348854 0.03469404
 0.03447189 0.03421735 0.03394418 0.03365277 0.03336532 0.03308323 0.03281715 0.03256636 0.03232007 0.03207678
 0.03182023 0.03155236 0.03127117 0.03098122 0.0306932 0.03040946 0.03013954 0.02988222 0.02963984 0.02941045
 0.02919277 0.02898661 0.02879118 0.02860789 0.02843766 0.0282792 0.0281334 0.02799334 0.02785841 0.02772028
 0.0275778 0.02742806 0.02727072 0.02711041 0.02694779 0.026794 0.02664993 0.02652753 0.02642596 0.02634893
 0.02629396 0.02625541 0.02623468 0.02622939 0.02624767 0.02629836 0.02638783 0.02652706 0.02671022 0.02693949
 0.02719972 0.02748546 0.02778619 0.02809641 0.02841957 0.0287542 0.02911355 0.02949896 0.0299192 0.03037511
 0.030859 0.03136983 0.03188846 0.03241411 0.03293145 0.03344206 0.03394334 0.03443848 0.03493452 0.03543308
 0.03594209 0.03645657 0.03697556 0.03748831 0.03798458 0.03845974 0.03890568 0.03933084 0.03973678 0.04013039
 0.04051595 0.0408858 0.04123968 0.04156767 0.04186784 0.04214355 0.04239472 0.04263297 0.042859 0.04308445
 0.04331063 0.04355191 0.04381005 0.04410057 0.04442289 0.04478447 0.04518132 0.04561121 0.04606677 0.04653976
 0.04701965 0.04749472 0.04795831 0.04840036 0.04882899 0.04924287 0.04965944 0.05008446 0.05052316 0.05098001
 0.05143737 0.05189465 0.05232712 0.05273288 0.05310652 0.05344928 0.05378573 0.05411818 0.05447721 0.05485866
 0.0552642 0.05568363 0.05608961 0.0564783 0.05682727 0.05714462 0.05743046 0.05769607 0.05795088 0.0582038
 0.05846222 0.0587328 0.05902148 0.05932476 0.05964494 0.05996678 0.06028778 0.06059752 0.06089352 0.06118155
 0.06146162 0.06174847 0.06204279 0.06235759 0.06269239 0.06305141 0.06343097 0.0638197 0.06421123 0.06458315
 0.06493068 0.06523477 0.06549363 0.06569693 0.06584624 0.0659373 0.06597933 0.06597486 0.06593756 0.06587439
 0.06579071 0.06568998 0.06557033 0.06543046 0.06527874 0.06511483 0.0649583 0.06481046 0.06468348 0.06457741
 0.06449094 0.06442352 0.06437082 0.06433252 0.06430552 0.06428877 0.06427831 0.06427214 0.0642653 0.06425495
 0.06423524 0.06420505 0.06415966 0.06410465 0.06404113 0.0639771 0.06391795 0.06386098 0.06380828 0.06374713
 0.06367563 0.06358369 0.06346989 0.06332856 0.06315921 0.06295761 0.06272396 0.06246384 0.06217887 0.06188484
 0.06158153 0.06127726 0.06096906 0.06065205 0.06032616 0.05998807 0.05964105 0.05928922 0.05893151 0.05857016
 0.05819803 0.05781162 0.05740491 0.05697366 0.05651817 0.0560363 0.0555364 0.05501862 0.05449674 0.05397238
 0.05345526 0.05294631 0.05244618 0.05195479 0.05146962 0.05099062 0.05051637 0.05004698 0.04958201 0.04912201
 0.04866913 0.04822167 0.04778011 0.04733563 0.04687727 0.04639715 0.04587968 0.04533606 0.04476459 0.04419086
 0.04362727 0.04308309 0.04256711 0.04206328 0.04157042 0.04107197 0.0405651 0.04004712 0.03951752 0.03897869
 0.03843086 0.03787825 0.03732204 0.03677308 0.03623307 0.03571537 0.03522042 0.03475644 0.03432283 0.03392269
 0.03355407 0.03321648 0.03290574 0.03261831 0.03234972 0.03209637 0.03185496 0.03162412 0.0313985 0.03117739
 0.0309517 0.03071997 0.03047335 0.03021015 0.02992915 0.02962969 0.02932503 0.02901616 0.02872547 0.02845286
 0.02820896 0.02798994 0.02778416 0.02758877 0.02738771 0.0271849 0.02697976 0.02677834 0.02658955 0.0264144
 0.02625742 0.02611669 0.02599229 0.02588239 0.02578685 0.02570188 0.02562666 0.02555677 0.02549066 0.02542926
 0.02537207 0.02532493 0.02528823 0.02526632 0.02525927 0.02526688 0.02528839 0.02531801 0.02535422 0.02538695
 0.02541552 0.02543227 0.02543853 0.02543337 0.02541821 0.02539534 0.02536343 0.0253226 0.02526964 0.02520219
 0.02511903 0.02501689 0.02490415 0.02477964 0.02466527 0.02456426 0.02449852 0.02447246 0.02448722 0.02454389
 0.02462272 0.02472268 0.02482371 0.02492601 0.02502259 0.02511475 0.02520446 0.02529302 0.02538506 0.02548154
 0.02558658 0.02570052 0.0258256 0.02596142 0.02610907 0.02626569 0.02643141 0.02659791 0.02676287 0.02691496
 0.02704958 0.02716311 0.02725259 0.02732671 0.02738554 0.02744263 0.02749904 0.02756352 0.02763629 0.0277166
 0.02780357 0.02788909 0.02797291 0.02804872 0.02811881 0.02818627 0.02825428 0.02833147 0.02841759 0.028517
 0.02862523 0.02874051 0.02885605 0.02896745 0.02906815 0.02915332 0.0292224 0.02927182 0.0293143 0.02935004
 0.0294004 0.0294684 0.02956665 0.02969706 0.02985056 0.03002632 0.03020053 0.03037243 0.03052449 0.03065928
 0.03077915 0.03088801 0.03099977 0.03111433 0.03123935 0.03137018 0.03150375 0.0316353 0.03175877 0.03187231
 0.03197265 0.03206007 0.03213333 0.03219535 0.03224568 0.03229203 0.0323348 0.03238657 0.03244868 0.03253344
 0.03264226 0.0327758 0.03293364 0.03309804 0.03326738 0.03341882 0.03355327 0.0336622 0.03374937 0.03382156
 0.03388199 0.03394044 0.03399843 0.03406245 0.03413213 0.03421001 0.03429328 0.03438037 0.03447068 0.03456232
 0.03466047 0.03476687 0.03488318 0.03501157 0.03514272 0.03527582 0.03540197 0.03551995 0.03563383 0.03574399
 0.03586317 0.03599148 0.03613625 0.03629449 0.03645646 0.03661701 0.03675292 0.03686649 0.03694692 0.03700957
 0.03707279 0.03714618 0.0372526 0.03737507 0.0375112 0.03763778 0.03773817 0.03781865 0.03787454 0.03793006
 0.03799134 0.03806426 0.03815152 0.03824356 0.03833948 0.03843882 0.03854164 0.03865434 0.03877676 0.03890971
 0.03905231 0.03920146 0.0393548 0.03950476 0.03964642 0.03976478 0.03985947 0.03991969 0.03995828 0.03998135
 0.04000876 0.04005708 0.04013557 0.04025722 0.0404073 0.0405883 0.04076522 0.04093138 0.04105921 0.04114145
 0.04118551 0.04119014 0.04118865 0.0411826 0.04119692 0.04123083 0.04128565 0.04135936 0.04144191 0.04153362
 0.04162838 0.04173198 0.04185259 0.04199808 0.04218652 0.0424139 0.04268764 0.04298705 0.04330121 0.04361027
 0.0439013 0.04416584 0.04439893 0.0445949 0.04475071 0.04486911 0.04494791 0.04501045 0.04505823 0.04511447
 0.04518021 0.04525978 0.04535359 0.04546684 0.04560092 0.04576931 0.04596665 0.04618577 0.04641435 0.04662019
 0.04680087 0.04693508 0.04703577 0.04710826 0.04716467 0.04721761 0.04726613 0.04731509 0.04735308 0.04737779
 0.04737816 0.04734897 0.04729761 0.0472219 0.04715164 0.04708916 0.0470564 0.04705424 0.04707831 0.04712827
 0.04719857 0.04729068 0.0474114 0.04755874 0.04773093 0.04792278 0.04812197 0.04832548 0.0485246 0.04871505
 0.04888779 0.04904487 0.04917775 0.04931471 0.04946603 0.04965895 0.04991958 0.05019202 0.05047275 0.05068647
 0.05081149 0.05089362 0.05093347 0.05099937 0.05109416 0.05121235 0.05135011 0.05146007 0.05154471 0.05159105
 0.0516093 0.05163016 0.0516523 0.05169308 0.05173382 0.05175327 0.05173719 0.05165406 0.05152366 0.05134229
 0.05115709 0.05099406 0.05087159 0.05080983 0.05077471 0.05076159 0.05074427 0.05071401 0.05069405 0.0506858
 0.05070744 0.05075955 0.05081436 0.05087031 0.05089974 0.05090501 0.05088749 0.0508456 0.05077453 0.05067184
 0.05052165 0.05034357 0.05015737 0.04998977 0.04988742 0.04983304 0.04983572 0.04985189 0.04985634 0.04984093
 0.04979175 0.04973592 0.04967534 0.04964307 0.04964497 0.04969823 0.04980703 0.04994501 0.0501108 0.05026028
 0.05039419 0.05050905 0.0506071 0.05070207 0.05078819 0.05084815 0.0508866 0.0508979 0.05090798 0.05095891
 0.05105827 0.05124131 0.05147285 0.05173929 0.05200659 0.0522476 0.05246726 0.05266011 0.05284174 0.05301729
 0.05318357 0.05334196 0.05347856 0.05359207 0.05367347 0.05372233 0.05375377 0.05377069 0.05381564 0.05388682
 0.05400132 0.05414389 0.05426951 0.05436948 0.05439373 0.05436157 0.05427881 0.05417174 0.05407397 0.05399477
 0.05395215 0.05394686 0.05398677 0.05405887 0.05416631 0.05427011 0.05436063 0.05441589 0.05442626 0.05442284
 0.05440735 0.05441055 0.05443403 0.05445343 0.05446561 0.05442342 0.05432777 0.0541577 0.05392159 0.05363289
 0.05330846 0.0529916 0.05269923 0.05248239 0.05233545 0.05227885 0.0522803 0.05232576 0.05237645 0.05241035
 0.05239634 0.05231563 0.05216442 0.05192984 0.05166432 0.05137041 0.05112122 0.05092722 0.05078731 0.05070181
 0.05058878 0.05044608 0.0502216 0.04992472 0.04958468 0.04921002 0.04884796 0.04849645 0.04817349 0.04787531
 0.0476028 0.04735534 0.04713301 0.04693419 0.04675943 0.04660163 0.04646151 0.04631733 0.04616412 0.04597395
 0.04573475 0.04545362 0.04512346 0.04480635 0.04450645 0.044288 0.04415485</values></Ydata></AB><ScSm><Ydata ylabel="Single channel"><values byteorder="INTEL" format="FLOAT32" numvalues="1814"> 0.06561473 0.06561938 0.0656849 0.06583154 0.06603118 0.06622332 0.06635901 0.06643052 0.0664524 0.06642702
 0.06636005 0.06630518 0.06634695 0.06651694 0.06674583 0.06691147 0.06693698 0.06686062 0.06681397 0.06689434
 0.06703326 0.06702021 0.0666986 0.06614193 0.06560447 0.06528826 0.06521864 0.06538905 0.06588245 0.06663831
 0.06719314 0.06701171 0.06615771 0.06532267 0.06506033 0.06525711 0.0654531 0.06537525 0.06502376 0.06456605
 0.06437933 0.06494856 0.0663892 0.06805451 0.06876788 0.06756369 0.06437547 0.06025597 0.05699117 0.05614536
 0.057962 0.06104218 0.06339282 0.06401658 0.06339556 0.0624904 0.06169973 0.06097738 0.06050512 0.06073606
 0.06177104 0.06293219 0.06311372 0.06173123 0.05941781 0.05757324 0.05708492 0.05776997 0.05912758 0.06088765
 0.06225218 0.06145135 0.0574775 0.05230118 0.05000609 0.05291228 0.05910263 0.06429502 0.06565276 0.06338955
 0.0595458 0.05628993 0.0550867 0.05630061 0.05913873 0.06231026 0.06480713 0.06594918 0.06520806 0.0626644
 0.05946277 0.05726135 0.05721316 0.05951059 0.06334379 0.06697322 0.06851768 0.06734234 0.06448482 0.06155851
 0.05968389 0.05948691 0.0612665 0.06468847 0.0687573 0.07238628 0.07484099 0.07582314 0.07554032 0.07457376
 0.07343302 0.0724638 0.07215451 0.07284178 0.07391013 0.07401849 0.0725562 0.07045574 0.06923401 0.0694261
 0.07015783 0.07021122 0.06925939 0.06768691 0.06539264 0.06174552 0.0570334 0.05287203 0.05059406 0.05022366
 0.05142961 0.05405506 0.05699161 0.05809864 0.05653966 0.05429543 0.05420631 0.05694177 0.06064307 0.06319468
 0.0641869 0.06478153 0.0662117 0.06851882 0.07038771 0.07013741 0.06738563 0.06399214 0.06274745 0.06463578
 0.06788874 0.0701637 0.07101756 0.07166156 0.07283922 0.07367289 0.07257737 0.06914295 0.06515286 0.06348307
 0.06559676 0.07008009 0.07366964 0.07366981 0.06976565 0.06409357 0.05957565 0.05789836 0.05905515 0.06245519
 0.06757788 0.07339372 0.07809394 0.08010152 0.07922086 0.07654921 0.07322358 0.06937093 0.06470135 0.06024814
 0.05858649 0.06140462 0.06735016 0.0731554 0.07655115 0.0774013 0.0764439 0.07390334 0.06968966 0.06472656
 0.06139219 0.06168004 0.06479836 0.06761135 0.06792185 0.06647983 0.06537102 0.06541486 0.06585803 0.06597567
 0.06610626 0.06707107 0.06899754 0.07100937 0.07207274 0.0719351 0.07116941 0.07050626 0.07017217 0.0697282
 0.0686917 0.06749967 0.06746089 0.06932214 0.0722383 0.07463931 0.07580625 0.07613384 0.07607935 0.07535928
 0.07336248 0.07030187 0.06768156 0.06718026 0.06902823 0.07186572 0.07415925 0.07530321 0.07547063 0.07505811
 0.0744179 0.07374633 0.07314257 0.07285531 0.07321814 0.07417682 0.07518291 0.07574254 0.07581997 0.07559346
 0.07510504 0.07433005 0.0734286 0.07275319 0.07259746 0.07297589 0.07366068 0.07438567 0.07494353 0.07515313
 0.07492438 0.0743928 0.0738377 0.07342754 0.07316266 0.07305492 0.07318857 0.07355905 0.07399017 0.07428281
 0.07437535 0.07432132 0.07417695 0.07395945 0.07368512 0.07341485 0.07325527 0.07328832 0.0734765 0.0736823
 0.07382172 0.07394293 0.07409684 0.0742023 0.07413374 0.07390215 0.07365852 0.07353217 0.07352856 0.07357429
 0.07359567 0.07352921 0.07330691 0.07291444 0.07248236 0.07224436 0.07234703 0.07273637 0.07324633 0.07372642
 0.07406849 0.07421722 0.07421257 0.07415441 0.07408667 0.07396414 0.07375067 0.07351139 0.07339123 0.07350315
 0.07382476 0.07420839 0.07450368 0.07465437 0.07468718 0.07466988 0.07468794 0.07478473 0.07489936 0.07492471
 0.07484429 0.07475942 0.07476827 0.07485679 0.07492237 0.07489053 0.07480015 0.0747655 0.07485299 0.07501804
 0.07517201 0.0752803 0.07537514 0.07548851 0.07558979 0.07559924 0.07547803 0.07529405 0.07516125 0.07511958
 0.07512274 0.07514068 0.07520851 0.07535088 0.07551068 0.07559635 0.07558436 0.07553977 0.07553014 0.07554375
 0.07551157 0.0753965 0.07523608 0.07510071 0.07503264 0.07502705 0.07504976 0.0750619 0.07503672 0.0749671
 0.07486469 0.07474956 0.07463676 0.07453823 0.07448141 0.07450521 0.07461094 0.07472331 0.07473329 0.07459703
 0.07438262 0.07420816 0.07413273 0.07411185 0.07405698 0.07392684 0.07375386 0.07359572 0.07348372 0.07341573
 0.073374 0.07334143 0.07331945 0.07334016 0.07344069 0.07360617 0.07375252 0.07379378 0.07372551 0.0736234
 0.07356467 0.0735701 0.07361412 0.07366675 0.07372518 0.07381468 0.07394925 0.07409061 0.07417445 0.07418592
 0.07417979 0.0742206 0.07433459 0.07451604 0.07473084 0.07490863 0.07498445 0.07497033 0.07495165 0.07499742
 0.07510199 0.07522219 0.07533784 0.07545623 0.07558286 0.07571805 0.07587666 0.07608716 0.07636128 0.0766713
 0.07696095 0.07718152 0.07732897 0.07745546 0.0776372 0.07791559 0.07826338 0.07860924 0.07889848 0.07913356
 0.07935718 0.07959842 0.07984687 0.08008863 0.08034842 0.0806675 0.08104524 0.08143285 0.08178687 0.08210581
 0.08241285 0.08272537 0.08304878 0.08338842 0.08375837 0.08417017 0.08460368 0.08499874 0.08530013 0.08551572
 0.08571707 0.08598135 0.08633514 0.08673654 0.08709738 0.08734699 0.08750268 0.08766203 0.0879001 0.0881919
 0.08846512 0.0887094 0.08898853 0.08934632 0.08974162 0.09009342 0.09036755 0.09060185 0.09085347 0.09113251
 0.09139015 0.09157266 0.09168352 0.09178105 0.09191726 0.09210233 0.09233579 0.09263713 0.09301317 0.09341519
 0.09376577 0.09402449 0.0942045 0.09433864 0.09445568 0.09457757 0.09471172 0.09485058 0.09499089 0.0951369
 0.09527664 0.09538567 0.09547164 0.09558462 0.09576231 0.09599252 0.09624958 0.09653571 0.09685658 0.09718429
 0.09748739 0.09778729 0.09813748 0.09853591 0.09889801 0.09914182 0.09927188 0.09935278 0.09943132 0.09952605
 0.09966995 0.09990726 0.1002422 0.1006263 0.101006 0.1013601 0.1016921 0.1020036 0.1022825 0.1025068
 0.1026602 0.1027498 0.1028104 0.1028925 0.1030405 0.103267 0.1035396 0.1037998 0.1040037 0.1041337
 0.1041754 0.1041137 0.1039726 0.103829 0.1037484 0.103709 0.1036161 0.1033864 0.1029978 0.1024624
 0.1017873 0.1009837 0.1000995 0.09922401 0.09845273 0.09785205 0.09745599 0.09729168 0.09739254 0.09776779
 0.09835692 0.09903212 0.09965544 0.1001218 0.1003485 0.1002623 0.09983537 0.09912643 0.09826085 0.0973665
 0.09652799 0.09577295 0.09507741 0.0944065 0.0937866 0.09334092 0.0932387 0.09360941 0.09449999 0.09587584
 0.09762172 0.09954557 0.1014255 0.1030941 0.1044939 0.1056592 0.106658 0.107556 0.1084088 0.1092451
 0.1100481 0.1107778 0.1114205 0.112002 0.1125505 0.1130638 0.1135121 0.1138616 0.1141027 0.1142628
 0.1143811 0.1144671 0.1145007 0.1144801 0.1144403 0.1144102 0.1143676 0.1142472 0.1139825 0.1135407
 0.1129483 0.1123141 0.1118383 0.1117794 0.1123589 0.1136377 0.1154624 0.117539 0.1195706 0.1213476
 0.1227656 0.1238177 0.1245764 0.1251508 0.1256378 0.1260992 0.1265627 0.1270268 0.1274756 0.1278989
 0.1283016 0.1286964 0.1290962 0.1295062 0.1299126 0.1302883 0.1306197 0.1309279 0.1312552 0.1316286
 0.1320349 0.1324341 0.1328042 0.1331646 0.1335429 0.1339248 0.1342647 0.1345443 0.134796 0.1350662
 0.1353794 0.1357344 0.1361078 0.136458 0.1367528 0.1369994 0.137237 0.1374969 0.1377808 0.1380737
 0.1383637 0.1386485 0.1389323 0.1392256 0.1395401 0.139872 0.1401899 0.1404533 0.1406528 0.1408257
 0.1410237 0.1412675 0.1415363 0.1417961 0.1420366 0.142281 0.142561 0.1428809 0.1432054 0.1434891
 0.1437149 0.1439055 0.1440983 0.144316 0.1445582 0.1448146 0.1450756 0.1453336 0.1455849 0.1458328
 0.1460862 0.1463479 0.1466116 0.1468686 0.1471145 0.1473494 0.1475778 0.1478092 0.1480555 0.148327
 0.1486252 0.1489351 0.1492269 0.1494758 0.1496819 0.1498669 0.1500526 0.1502483 0.1504554 0.1506757
 0.1509114 0.1511614 0.1514198 0.151679 0.1519347 0.1521856 0.1524293 0.1526637 0.1528922 0.1531244
 0.1533694 0.1536309 0.1539051 0.1541809 0.154443 0.1546828 0.1549054 0.1551248 0.1553539 0.1555959
 0.1558417 0.1560774 0.1562977 0.156512 0.1567324 0.1569612 0.1571914 0.1574158 0.1576337 0.1578507
 0.158073 0.1583 0.1585259 0.1587469 0.1589652 0.1591862 0.1594149 0.1596535 0.1598991 0.1601436
 0.1603788 0.1606029 0.1608224 0.161047 0.1612817 0.1615213 0.1617559 0.1619793 0.1621925 0.1623997
 0.1626043 0.1628082 0.163013 0.1632208 0.163433 0.1636513 0.1638788 0.164117 0.1643596 0.1645975
 0.1648304 0.1650653 0.1653024 0.1655335 0.1657559 0.1659756 0.1661972 0.1664216 0.1666526 0.1668938
 0.1671414 0.1673849 0.1676166 0.1678378 0.1680565 0.1682781 0.1684979 0.1687082 0.1689093 0.1691069
 0.1693028 0.169498 0.1696983 0.1699091 0.1701281 0.1703475 0.1705618 0.1707736 0.170992 0.1712224
 0.1714583 0.1716913 0.1719203 0.1721477 0.1723722 0.1725942 0.1728172 0.1730408 0.1732633 0.1734889
 0.1737224 0.1739606 0.1741997 0.1744393 0.1746749 0.1748995 0.1751131 0.1753227 0.1755357 0.1757579
 0.1759894 0.1762206 0.1764442 0.1766666 0.1768946 0.1771229 0.1773461 0.1775679 0.1777917 0.1780158
 0.1782404 0.178465 0.178686 0.1789065 0.1791338 0.1793658 0.1795956 0.1798233 0.180051 0.180276
 0.1805 0.1807272 0.1809537 0.1811763 0.181402 0.1816359 0.1818711 0.182101 0.1823195 0.1825071
 0.1826221 0.1825573 0.1820264 0.1804509 0.17696 0.170577 0.1606107 0.1470896 0.1309027 0.1134856
 0.09629813 0.08045252 0.06660764 0.05505419 0.0458544 0.03893288 0.03413531 0.0313269 0.03049485 0.03185355
 0.03596081 0.04338836 0.05346847 0.06318031 0.06832299 0.06683141 0.06074902 0.05436365 0.05064438 0.04980517
 0.05057835 0.05187649 0.0533532 0.05520922 0.05779112 0.06119868 0.06526545 0.06998067 0.0756997 0.08269288
 0.09059465 0.09854989 0.1059505 0.1129187 0.1200256 0.1276095 0.1354241 0.1428843 0.149535 0.1552825
 0.160307 0.1648559 0.1691033 0.1731322 0.1769814 0.1806439 0.1839874 0.1867242 0.1885477 0.1893649
 0.1894084 0.1891063 0.1888268 0.1887328 0.1888313 0.189094 0.189507 0.1900575 0.1907218 0.191469
 0.192265 0.1930816 0.1939018 0.1947135 0.1955001 0.1962449 0.1969365 0.197568 0.1981386 0.198654
 0.1991218 0.1995467 0.1999358 0.2002999 0.2006479 0.2009849 0.2013144 0.2016361 0.2019433 0.2022257
 0.2024772 0.2026994 0.2029025 0.2030988 0.2032956 0.2034956 0.2037006 0.2039098 0.2041176 0.2043219
 0.2045287 0.204742 0.2049559 0.205163 0.205363 0.2055585 0.2057497 0.2059399 0.2061349 0.2063345
 0.206532 0.2067237 0.2069126 0.2071012 0.207289 0.2074765 0.2076687 0.2078695 0.2080767 0.2082827
 0.2084846 0.2086894 0.2089022 0.2091165 0.2093261 0.2095387 0.2097642 0.2099955 0.210216 0.2104205
 0.2106128 0.2107929 0.2109583 0.2111177 0.2112924 0.2114998 0.2117329 0.2119655 0.2121797 0.2123818
 0.2125839 0.212783 0.2129672 0.2131338 0.213299 0.2134939 0.2137421 0.2140298 0.2143144 0.2145711
 0.2148095 0.2150435 0.2152758 0.2155108 0.2157472 0.2159604 0.2161236 0.2162542 0.2164181 0.2166809
 0.2170484 0.2174491 0.2177933 0.2180519 0.2182674 0.2184992 0.2187783 0.219077 0.2192913 0.2193183
 0.2192129 0.2192043 0.2194842 0.2200185 0.2206135 0.2211146 0.2214956 0.2218036 0.2220776 0.2223105
 0.2224575 0.2224853 0.2224431 0.2224842 0.2227651 0.2232838 0.2238634 0.2243311 0.2246582 0.2249012
 0.2251036 0.2252845 0.2254031 0.2253101 0.2249047 0.2244081 0.2243036 0.2248733 0.2258814 0.2268219
 0.2274147 0.2277519 0.2280229 0.2282795 0.2284842 0.2285508 0.2282312 0.2272545 0.2258458 0.2248812
 0.2251664 0.2266239 0.228428 0.2298332 0.2306525 0.2310753 0.2313371 0.2315588 0.23166 0.2313718
 0.2305338 0.2294933 0.2290229 0.22961 0.2309066 0.2320991 0.2327384 0.2329819 0.2331608 0.2334114
 0.2335841 0.2332006 0.2317257 0.2293521 0.2273978 0.2273813 0.2295365 0.2325325 0.2347938 0.2358585
 0.2362573 0.2363511 0.2357948 0.2341601 0.2315862 0.2287098 0.2264531 0.2259009 0.2275918 0.2306139
 0.2331152 0.2341286 0.2343936 0.2351402 0.2366214 0.2381095 0.2388403 0.2386084 0.237646 0.2362051
 0.2344319 0.2327505 0.2320967 0.2332548 0.2358998 0.2387123 0.2405982 0.2415196 0.2419192 0.2414348
 0.2386396 0.2327572 0.2258103 0.2220677 0.2242788 0.2307983 0.2373528 0.2412461 0.2428477 0.2435888
 0.2440392 0.2437434 0.2414956 0.2360088 0.2279427 0.2211674 0.2201457 0.2255232 0.2333981 0.2389588
 0.239758 0.2359762 0.2295623 0.2236515 0.2212875 0.223581 0.2292197 0.2357591 0.241089 0.2440241
 0.2443007 0.2424566 0.239778 0.23798 0.2379709 0.2385077 0.2371349 0.2332746 0.2291835 0.2266459
 0.2242249 0.2199367 0.2156129 0.215697 0.2214608 0.2288654 0.2330917 0.2334248 0.2323949 0.2311847
 0.2276253 0.2193293 0.2082067 0.2005609 0.20157 0.209912 0.2189444 0.2232031 0.2227408 0.2211911
 0.2209168 0.2206056 0.2171356 0.2096511 0.201635 0.1979944 0.1998608 0.2035863 0.2050781 0.2030852
 0.1977914 0.1894811 0.1808516 0.1778789 0.1847871 0.198878 0.2126313 0.2198976 0.2181803 0.2073103
 0.1902532 0.1748317 0.1699293 0.1775668 0.1904618 0.198724 0.1977115 0.1888804 0.175545 0.1605758
 0.1476887 0.1418918 0.1464916 0.1597162 0.1747891 0.1833417 0.1800536 0.1667596 0.152722 0.1479719
 0.1542328 0.1637667 0.1680353 0.1654249 0.160055 0.1564351 0.1568345 0.1609159 0.1661276 0.170088
 0.172488 0.1724827 0.1661531 0.1512665 0.1336349 0.1232905 0.1240582 0.1316235 0.141591 0.1533793
 0.1649281 0.1700473 0.1654135 0.1569228 0.154669 0.1622393 0.173636 0.1805643 0.1806208 0.1777243
 0.1760632 0.1756106 0.1742547 0.1726992 0.1746157 0.1815686 0.1902516 0.196169 0.1983094 0.198714
 0.1990255 0.1992541 0.1989577 0.1979877 0.1964096 0.1946145 0.1932003 0.1922942 0.1914316 0.1902507
 0.1884821 0.1849418 0.1778099 0.167262 0.1570992 0.1517624 0.1516627 0.1534989 0.1551251 0.1568
 0.1566853 0.1495617 0.1337176 0.1165978 0.1093699 0.1161332 0.1308901 0.1443924 0.1512054 0.1501537
 0.1415828 0.1275961 0.1143224 0.1099809 0.1181713 0.1344332 0.1510358 0.1636094 0.1715564 0.1743749
 0.1710036 0.1625901 0.1535158 0.1488855 0.1514621 0.1604607 0.1717573 0.1788842 0.1762029 0.1645667
 0.1538694 0.1557191 0.1711769 0.1888799 0.1977999 0.19842 0.19815 0.199806 0.200267 0.1986711
 0.1996338 0.2069372 0.2179515 0.2262114 0.2270878 0.2196162 0.2058534 0.191283 0.1833923 0.1857006
 0.1937822 0.20009 0.201256 0.1976482 0.1889201 0.17587 0.1651545 0.1652807 0.1767392 0.1908707
 0.1997131 0.2032647 0.2058704 0.2087322 0.2084487 0.2021695 0.1923514 0.1852276 0.1846415 0.1886958
 0.1929586 0.1951234 0.1950473 0.1921312 0.1856902 0.1778997 0.1738062 0.1769568 0.1857419 0.1949079
 0.200259 0.2012882 0.1999405 0.1981132 0.1963789 0.1941415 0.1909132 0.1879613 0.1880475 0.1924384
 0.1988248 0.2036699 0.2062455 0.2088586 0.2132395 0.2181622 0.2209343 0.2203302 0.217762 0.2160626
 0.217219 0.2207827 0.2241889 0.2249424 0.222994 0.2210056 0.2218922 0.2260304 0.23121 0.2351364
 0.2372952 0.2384723 0.23941 0.2401695 0.2400922 0.2383003 0.2349682 0.2320829 0.2320533 0.2353274
 0.2399631 0.2436287 0.2454758 0.2460247 0.2459077 0.2451972 0.2437761 0.2419433 0.2404185 0.2397819
 0.2400647 0.2409027 0.2419105 0.2428441 0.2435829 0.2441186 0.2445173 0.2448293 0.2450652 0.2452514
 0.245421 0.2455414 0.245546 0.245475 0.2454969 0.2457244 0.2460645 0.2463125 0.2463388 0.2461048
 0.2455508 0.2446046 0.2433099 0.2418265 0.2402525 0.238548 0.2367471 0.2352141 0.2345498 0.2351407
 0.2368003 0.2388862 0.24075 0.2420682 0.24284 0.2432163 0.2433708 0.2434437 0.2435096 0.2435742
 0.2436138 0.2436204 0.243606 0.2435746 0.2435141 0.2434283 0.2433567 0.2433425 0.2433826 0.243423
 0.2433976 0.2432702 0.2430484 0.2427661 0.2424485 0.2420861 0.2416434 0.2410919 0.240436 0.2397114
 0.2389663 0.2382413 0.2375501 0.2368645 0.236124 0.2352701 0.2342676 0.2330956 0.2317604 0.2303378
 0.2289605 0.2277218 0.2266041 0.2255227 0.2244071 0.223221 0.221943 0.2205689 0.2191253 0.2176587
 0.2162048 0.2147652 0.2133085 0.2118004 0.2102351 0.2086326 0.2070104 0.2053668 0.2036909 0.2019728
 0.2001913 0.1982873 0.1961571 0.1936854 0.1907843 0.1874016 0.1835195 0.179184 0.1745376 0.1697955
 0.1651673 0.1607925 0.15674 0.1530592 0.1498249 0.147131 0.1450489 0.1436063 0.1428007 0.1426167
 0.1430329 0.1440204 0.1455293 0.1474675 0.1497001 0.1520699 0.1544188 0.1566142 0.1585939 0.1603931
 0.1621065 0.1638039 0.1654757 0.1670584 0.1685044 0.1698119 0.1709867 0.1720063 0.1728453 0.1735168
 0.1740632 0.1745204 0.1749061 0.1752312 0.175505 0.1757393 0.175952 0.1761596 0.1763702 0.1765907
 0.1768374 0.1771333 0.1774989 0.1779471 0.1784803 0.179092 0.1797701 0.1804979 0.1812582 0.1820452
 0.1828704 0.1837584 0.1847422 0.1858599 0.1871371 0.1885677 0.1901165 0.1917373 0.1933812 0.1949914
 0.1964963 0.1978184 0.1989092 0.1997773 0.2004668 0.2010096 0.2014173 0.2017088 0.2019144 0.2020555
 0.2021397 0.2021687 0.2021354 0.2020263 0.2018361 0.2015701 0.2012366 0.2008513 0.2004418 0.2000314
 0.1996255 0.1992256 0.1988466 0.1985082 0.1982092 0.1979187 0.1975993 0.1972448 0.1968837 0.1965416
 0.196209 0.1958472 0.1954069 0.194844 0.1941409 0.1933154 0.1923932 0.1913762 0.1902522 0.1890237
 0.1877103 0.1863313 0.1848988 0.1834212 0.1819037 0.1803399 0.1787025 0.1769582 0.17511 0.1732203
 0.171373 0.1696211 0.1679773 0.166434 0.1649726 0.1635724 0.1622258 0.1609359 0.1596992 0.1585039
 0.1573455 0.1562321 0.1551768 0.1541915 0.1532871 0.1524747 0.1517612 0.1511408 0.1505935 0.1501044
 0.1496744 0.1493046 0.1489898 0.1487416 0.1485903 0.1485404 0.1485416 0.1485217 0.1484368 0.148285
 0.148093 0.1478956 0.147717 0.1475636 0.1474248 0.147271 0.1470486 0.1466872 0.1461105 0.145252
 0.1440839 0.1426383 0.1409907 0.1392354 0.137485 0.1358606 0.1344531 0.1333005 0.132403 0.1317309
 0.1312191 0.1307954 0.1304334 0.1301715 0.1300742 0.130157 0.1303321 0.1304549 0.1304574 0.1304207
 0.1304961 0.130779 0.1312664 0.131881 0.1325118 0.1330641 0.1334927 0.1337899 0.133963 0.1340316
 0.1340182 0.13393 0.1337679 0.1335419 0.1332608 0.1329232 0.1325273 0.1320726 0.1315574 0.1309881
 0.1303674 0.1296692 0.1288632 0.1279543 0.1269538 0.1258492 0.1246806 0.1236197 0.1229076 0.1227141
 0.1230479 0.1237541 0.1246129 0.1254815 0.1262886 0.1268781 0.1270449 0.1268745 0.1269156 0.1277881
 0.1295889 0.1317819 0.1336716 0.1348905 0.1354353 0.135414 0.1349069 0.1339754 0.1326326 0.130835
 0.1285942 0.126031 0.1232815 0.1204684 0.1177688 0.1153613 0.1133182 0.1116335 0.1102869 0.1093125
 0.1088448 0.1085748 0.1068223 0.1014104 0.09302212 0.08672292 0.08770452 0.0954303 0.1039938 0.1083734
 0.1084505 0.1069143 0.1055872 0.1047108 0.1041905 0.1041943 0.10487 0.1060742 0.1074096 0.1084865
 0.1091725 0.1095269 0.1095093 0.1087877 0.1067117 0.102524 0.09596352 0.08781725 0.07964855 0.07286785
 0.06810795 0.06527287 0.06383847 0.06313926 0.06269245 0.06243189 0.06262358 0.06353941 0.06522132 0.06753163
 0.07031369 0.07336837 0.0763292 0.07879367 0.08064464 0.08207718 0.08326492 0.08415567 0.08461715 0.08462578
 0.08427151 0.08368492 0.08299178 0.08226609 0.08148374 0.08055263 0.07945354 0.07836412 0.07756473 0.07717652
 0.07706939 0.07705532 0.07705957 0.07707243 0.07706709 0.07702284 0.07695799 0.07693226 0.07704847 0.07738764
 0.07789449 0.07839037 0.07872926 0.07890076 0.07898737 0.07903458 0.07893758 0.07852446 0.07784145 0.07721382
 0.07683076 0.07641995 0.07560626 0.07450038 0.07365164 0.07344183 0.07373927 0.07413395 0.0743212 0.07424349
 0.07405145 0.07402624 0.07439473 0.07505661</values></Ydata></ScSm><ScRf><Ydata ylabel="Single channel"><values byteorder="INTEL" format="FLOAT32" numvalues="1820"> 0.06080354 0.0609667 0.06106206 0.06109229 0.06108743 0.06109527 0.06116156 0.06130301 0.06149323 0.06167599
 0.06180254 0.0618634 0.06187603 0.06184836 0.06178401 0.06172552 0.06174994 0.06189446 0.06210323 0.06226385
 0.06229945 0.06223798 0.06219523 0.06225969 0.06237236 0.06234548 0.06203934 0.06152432 0.06103566 0.06075589
 0.06070019 0.06085837 0.06131326 0.06201754 0.06254034 0.0623742 0.06157225 0.06078427 0.06053565 0.06072079
 0.06090268 0.06082252 0.06048564 0.06005481 0.05988352 0.06042404 0.06178454 0.06335713 0.06403145 0.06289443
 0.05988494 0.05600259 0.05293684 0.0521582 0.05388147 0.05677544 0.05896553 0.05952987 0.05893679 0.05809002
 0.05735532 0.05668254 0.05624171 0.05646122 0.05743886 0.05853762 0.0587137 0.05741353 0.05523348 0.05349346
 0.05302871 0.05366644 0.05493682 0.05658685 0.05786546 0.05711105 0.05338444 0.0485428 0.0464156 0.04916565
 0.0549809 0.05984275 0.06109967 0.0589644 0.0553599 0.05232239 0.05121824 0.05237541 0.05504068 0.05800488
 0.06032998 0.06138403 0.0606764 0.05828801 0.05529442 0.05324724 0.0532214 0.05538995 0.05898575 0.06237557
 0.06380399 0.06268751 0.06000167 0.05725393 0.05549344 0.05531264 0.05699553 0.06022482 0.06406005 0.06747869
 0.06979203 0.07072014 0.07045583 0.06954365 0.06846558 0.06755276 0.06726618 0.06791651 0.06891826 0.06901182
 0.06763236 0.06566494 0.06453462 0.0647343 0.06543132 0.06547749 0.06456992 0.06307708 0.06091085 0.05748496
 0.05307243 0.04918495 0.04706473 0.0467332 0.04788561 0.05037405 0.05314613 0.05418605 0.05272037 0.05062492
 0.05056658 0.05315853 0.05664183 0.05902925 0.05994517 0.06049026 0.06182694 0.06399383 0.06575407 0.06552696
 0.06295285 0.05978212 0.0586406 0.06044972 0.06353702 0.06569501 0.06651349 0.06714137 0.06827886 0.06909089
 0.06807859 0.06486412 0.06114356 0.05963048 0.06168649 0.06595723 0.06935899 0.0693592 0.06567849 0.06034844
 0.05612936 0.05460328 0.05576113 0.05905986 0.06402174 0.06966688 0.07426181 0.07628883 0.07554448 0.0730684
 0.06995606 0.066339 0.06193697 0.05773932 0.05623234 0.05905506 0.0649057 0.07062231 0.07400525 0.07492237
 0.07408884 0.07171345 0.06769681 0.06294416 0.05980121 0.06023251 0.06344983 0.06635354 0.06677477 0.06545569
 0.06446027 0.06460531 0.06515126 0.06538301 0.06564011 0.06674233 0.06881397 0.07097226 0.0721738 0.0721569
 0.0714961 0.07093916 0.07072801 0.07041647 0.06950416 0.06843235 0.06853662 0.07057554 0.07367972 0.07624437
 0.07754174 0.07798515 0.07804624 0.07742724 0.075489 0.07244676 0.06985953 0.06947546 0.07154343 0.07465232
 0.07719432 0.07852291 0.07881722 0.07850479 0.07796629 0.07740839 0.07692631 0.07676811 0.07727464 0.07838947
 0.07954508 0.08023345 0.08042521 0.08030744 0.07991441 0.07921216 0.0783739 0.07778096 0.07774401 0.07827042
 0.07911396 0.07999511 0.0806989 0.08103303 0.08089526 0.08042471 0.0799237 0.07958239 0.07940546 0.07940097
 0.07965384 0.08015916 0.08073051 0.08115406 0.08135858 0.08139525 0.08132371 0.08116883 0.080956 0.08075596
 0.08068456 0.0808219 0.08111138 0.08139658 0.08160284 0.0818122 0.08209418 0.08234279 0.08238465 0.08220648
 0.08197962 0.08187497 0.08192404 0.08204997 0.08215673 0.08215478 0.08196049 0.08156843 0.08114231 0.08094899
 0.08114523 0.08166707 0.08233298 0.082973 0.08345399 0.08370309 0.08376294 0.08374768 0.08370925 0.08360176
 0.08339131 0.08315575 0.08305934 0.08323036 0.08364728 0.08414669 0.08455458 0.08479587 0.08489347 0.08493105
 0.08501945 0.08520915 0.0854103 0.08547644 0.08538929 0.08529364 0.08532746 0.08546849 0.08557357 0.08554652
 0.08544572 0.08542082 0.0855533 0.08578456 0.08600302 0.08616807 0.08632772 0.08652931 0.08672932 0.0868091
 0.08670141 0.08648621 0.08631542 0.08625393 0.08625619 0.08629279 0.08641139 0.08663826 0.08688763 0.08703173
 0.08704259 0.08701634 0.08705056 0.08712979 0.08715201 0.08704952 0.08685832 0.08667874 0.08659419 0.08662385
 0.08672237 0.08681174 0.08682815 0.08675793 0.08663672 0.08651422 0.08642028 0.08636999 0.0863954 0.08653989
 0.08679037 0.08702818 0.0870946 0.08693226 0.08665039 0.08642998 0.08635905 0.08636662 0.08631323 0.08613072
 0.08586751 0.08561824 0.08543689 0.08531676 0.08522592 0.08514641 0.08509405 0.08511311 0.0852306 0.0853937
 0.08547281 0.08536749 0.08510866 0.08482943 0.08464219 0.08456729 0.08455925 0.0845633 0.08455934 0.0845781
 0.08465533 0.08475623 0.08478726 0.08470619 0.08457865 0.08450955 0.08456109 0.08473697 0.08497922 0.08516893
 0.0852017 0.08509439 0.08497404 0.08494404 0.08499921 0.08507843 0.08515187 0.08523057 0.0853245 0.08542918
 0.08555034 0.08571474 0.08594333 0.0862173 0.08647665 0.08665974 0.08675656 0.08682874 0.08696731 0.08721751
 0.08754244 0.08785979 0.08811098 0.08829908 0.08846836 0.08865219 0.0888475 0.08904477 0.08926611 0.08954567
 0.08987781 0.09021538 0.09052213 0.09080309 0.09108146 0.09136873 0.09166539 0.09198086 0.09234234 0.09276922
 0.09322657 0.09362115 0.09387463 0.0940025 0.09410653 0.09429568 0.09461337 0.09500699 0.09535094 0.09554166
 0.09560575 0.0956852 0.09588416 0.09616259 0.09641887 0.09664379 0.09693232 0.09734614 0.09781615 0.09820445
 0.09844062 0.09857832 0.09872417 0.09892392 0.09912691 0.09926304 0.09933639 0.09941711 0.09955152 0.09972662
 0.09993488 0.1002188 0.1006083 0.1010471 0.1014308 0.1017042 0.1018885 0.1020309 0.1021595 0.1022726
 0.1023482 0.1023759 0.1023903 0.1024462 0.1025472 0.1026348 0.1026675 0.1026789 0.1027353 0.1028702
 0.1030832 0.1033668 0.1036943 0.1040071 0.1042659 0.1045114 0.1048235 0.1052035 0.1055411 0.1057313
 0.1057886 0.105804 0.1058266 0.1058506 0.1058973 0.106034 0.1062938 0.1066328 0.106987 0.1073362
 0.1076929 0.1080531 0.108376 0.1086041 0.1087023 0.1086898 0.1086397 0.1086435 0.1087684 0.1090264
 0.1093676 0.1097087 0.1099848 0.110173 0.1102668 0.1102618 0.1101936 0.1101595 0.1102474 0.110434
 0.1105881 0.1105823 0.1103793 0.1100085 0.1095022 0.1088825 0.1081954 0.1075243 0.1069575 0.1065482
 0.1063145 0.1062772 0.1064766 0.1069295 0.1075752 0.1082901 0.1089594 0.1095048 0.1098447 0.1098797
 0.1095623 0.1089572 0.1082046 0.107435 0.1067279 0.1061062 0.1055396 0.1049856 0.1044758 0.1041561
 0.1042149 0.1047684 0.1058045 0.1071954 0.1087364 0.1102044 0.1114419 0.1124202 0.1132178 0.1139299
 0.1146025 0.1152498 0.1158963 0.1165595 0.117206 0.1177749 0.1182485 0.118667 0.1190698 0.1194544
 0.1197935 0.1200688 0.1202898 0.1204938 0.1207113 0.1209155 0.1210326 0.1210207 0.1209162 0.1207855
 0.1206509 0.1204776 0.1202133 0.1198351 0.1193848 0.1189858 0.1188193 0.1190492 0.1197318 0.1207816
 0.1220319 0.1233384 0.1246161 0.1257889 0.1267584 0.127455 0.1279013 0.1281946 0.1284368 0.128691
 0.1289789 0.1292911 0.1296021 0.1298922 0.1301635 0.130441 0.1307549 0.1311119 0.1314761 0.1317913
 0.1320356 0.1322513 0.1325115 0.1328554 0.1332524 0.1336337 0.1339647 0.1342748 0.1346013 0.1349221
 0.1351765 0.1353471 0.1354888 0.1356757 0.135948 0.1363028 0.1366949 0.137049 0.1373063 0.137476
 0.1376199 0.1377911 0.1380026 0.1382456 0.1385097 0.1387808 0.1390452 0.1393086 0.1395959 0.1399167
 0.1402334 0.1404834 0.1406424 0.1407551 0.1408943 0.1410935 0.1413271 0.1415494 0.1417463 0.1419505
 0.1422082 0.1425252 0.1428476 0.143105 0.1432723 0.1433863 0.1435063 0.1436673 0.1438673 0.1440856
 0.1443023 0.1445072 0.144701 0.1448928 0.1450924 0.1453005 0.1455082 0.1457085 0.1459043 0.1461037
 0.1463105 0.1465232 0.1467457 0.1469934 0.1472802 0.1475949 0.1478958 0.1481402 0.1483179 0.1484527
 0.1485767 0.1487112 0.1488656 0.1490423 0.1492397 0.1494518 0.1496694 0.1498831 0.150088 0.1502862
 0.1504824 0.15068 0.1508797 0.1510813 0.1512881 0.1515082 0.1517454 0.1519877 0.1522129 0.1524089
 0.1525845 0.1527591 0.1529468 0.1531483 0.1533526 0.1535475 0.1537324 0.1539175 0.1541084 0.1542996
 0.1544854 0.1546708 0.1548652 0.1550692 0.1552747 0.1554768 0.1556791 0.1558849 0.1560881 0.1562806
 0.1564638 0.1566465 0.1568335 0.1570231 0.1572132 0.157405 0.1576016 0.157806 0.1580192 0.1582366
 0.1584496 0.1586499 0.1588346 0.1590101 0.1591901 0.1593863 0.1596001 0.1598224 0.1600395 0.1602418
 0.1604316 0.1606221 0.1608229 0.1610311 0.1612412 0.1614543 0.161673 0.1618932 0.162108 0.162315
 0.1625186 0.1627265 0.1629438 0.1631679 0.1633917 0.1636116 0.1638273 0.1640371 0.1642398 0.1644359
 0.1646243 0.1648014 0.1649663 0.1651247 0.1652849 0.1654533 0.1656317 0.1658174 0.166008 0.1662043
 0.1664047 0.1666043 0.1668021 0.1670014 0.1672029 0.1674057 0.1676125 0.1678233 0.1680306 0.1682301
 0.168427 0.1686285 0.1688373 0.1690531 0.1692716 0.1694849 0.1696903 0.1698948 0.1701043 0.1703153
 0.1705196 0.1707121 0.1708972 0.1710898 0.1713021 0.1715299 0.171761 0.1719899 0.1722147 0.1724309
 0.1726379 0.1728421 0.173048 0.1732569 0.1734705 0.1736856 0.1738951 0.1741001 0.1743084 0.174521
 0.1747358 0.1749558 0.1751801 0.1753983 0.1756044 0.1758027 0.1759987 0.1761985 0.1764095 0.1766284
 0.1768416 0.177046 0.1772475 0.177436 0.1775659 0.1775169 0.1770002 0.1754546 0.1720354 0.1657875
 0.1560333 0.142806 0.1269839 0.1099758 0.09320877 0.07776709 0.06429029 0.05305436 0.04411006 0.03737738
 0.03270723 0.02997318 0.02916422 0.03048633 0.03448149 0.04171073 0.05152952 0.06099453 0.06600404 0.06453812
 0.05859254 0.05235879 0.04873689 0.04793161 0.04870357 0.04999275 0.05145855 0.05328969 0.05581922 0.05914312
 0.06309853 0.06767696 0.07323123 0.0800329 0.0877334 0.09550612 0.1027596 0.1096033 0.116578 0.1240011
 0.1316296 0.1388998 0.1453807 0.1509927 0.1559149 0.1603826 0.1645558 0.1685078 0.1722754 0.1758559
 0.1791255 0.1818064 0.1835991 0.1844091 0.1844575 0.1841596 0.1838778 0.1837769 0.1838679 0.1841223
 0.1845219 0.1850535 0.1857036 0.1864536 0.1872703 0.1881141 0.1889563 0.1897769 0.1905554 0.1912784
 0.1919464 0.1925646 0.1931345 0.1936574 0.1941363 0.1945756 0.194984 0.1953706 0.1957371 0.1960839
 0.1964179 0.1967424 0.1970452 0.1973104 0.1975405 0.1977558 0.197976 0.1982055 0.1984338 0.1986496
 0.1988532 0.1990534 0.1992557 0.1994587 0.1996608 0.1998609 0.2000571 0.2002486 0.2004376 0.2006255
 0.2008135 0.2010068 0.2012087 0.2014117 0.2016053 0.2017912 0.2019819 0.2021829 0.2023858 0.2025792
 0.2027633 0.2029485 0.2031422 0.2033416 0.2035417 0.2037455 0.2039583 0.2041768 0.204396 0.2046172
 0.2048402 0.2050581 0.2052693 0.2054826 0.2056982 0.2058964 0.2060586 0.2061951 0.2063436 0.206538
 0.206778 0.2070292 0.207257 0.2074553 0.2076399 0.2078252 0.2080123 0.2081926 0.2083624 0.2085395
 0.2087532 0.2090058 0.2092659 0.2095105 0.209747 0.2099845 0.2102176 0.2104454 0.210671 0.2108762
 0.2110344 0.2111596 0.2113211 0.2115892 0.2119637 0.2123609 0.2126869 0.2129203 0.2131112 0.2133176
 0.2135667 0.2138367 0.214036 0.214066 0.2139702 0.2139622 0.2142292 0.2147443 0.2153232 0.2158143
 0.2161867 0.2164833 0.2167473 0.2169777 0.2171277 0.2171583 0.2171181 0.217161 0.2174362 0.2179359
 0.2184924 0.2189469 0.219271 0.2195078 0.2196898 0.2198394 0.2199308 0.2198272 0.2194264 0.218935
 0.2188225 0.2193673 0.2203388 0.221241 0.2218037 0.222125 0.2223958 0.2226678 0.2228989 0.2229929
 0.2226953 0.2217394 0.2203564 0.2194139 0.2197012 0.2211387 0.2229217 0.2243255 0.2251565 0.2255793
 0.2258205 0.2260189 0.2261141 0.2258384 0.2250215 0.2240037 0.223552 0.2241497 0.2254486 0.2266382
 0.2272726 0.2275124 0.2276933 0.2279536 0.2281432 0.2277858 0.2263514 0.2240289 0.2221155 0.2221021
 0.2242151 0.2271491 0.2293646 0.2304123 0.2308129 0.2309217 0.2303984 0.2288107 0.2262841 0.223454
 0.2212522 0.2207578 0.222484 0.225507 0.2279948 0.2290081 0.2292885 0.2300449 0.2315162 0.2329842
 0.2337062 0.2334892 0.2325619 0.2311654 0.2294371 0.2277927 0.2271554 0.2283009 0.2309143 0.2337041
 0.2355959 0.2365471 0.2369811 0.2365305 0.2337896 0.2280044 0.2211792 0.2175197 0.2197281 0.226183
 0.232679 0.2365597 0.2381816 0.2389486 0.2394208 0.2391528 0.2369632 0.2315879 0.2236767 0.2170426
 0.2160827 0.2214288 0.2292315 0.2347518 0.2355816 0.2318951 0.2256103 0.2198223 0.2175333 0.2198325
 0.2254261 0.2319153 0.2372304 0.2402017 0.2405547 0.2388009 0.2362061 0.2344834 0.2345472 0.2351575
 0.2338629 0.2300909 0.2260947 0.2236552 0.2213472 0.2171975 0.2130187 0.2132186 0.2190587 0.2265274
 0.230839 0.231284 0.2303745 0.229283 0.2258559 0.2177197 0.2067719 0.1992902 0.2004446 0.2089238
 0.2181009 0.2225274 0.2222674 0.2209579 0.2209628 0.2209623 0.2178057 0.2106104 0.2028839 0.1995946
 0.2018954 0.2060904 0.208023 0.2064031 0.2013884 0.1932574 0.1847783 0.182081 0.1895098 0.2043268
 0.2188379 0.2267191 0.2253575 0.2145194 0.1972498 0.181707 0.1771973 0.1858517 0.200037 0.2093649
 0.2089395 0.2002616 0.1867959 0.1715821 0.1586292 0.1533971 0.1595514 0.1752313 0.1930194 0.2036184
 0.2010131 0.1871751 0.1725051 0.1683597 0.1766961 0.1886862 0.1945813 0.1925507 0.1873311 0.1841449
 0.1856943 0.1916267 0.1989071 0.2046841 0.2085709 0.209441 0.2023836 0.1846041 0.1632287 0.1505999
 0.1514637 0.1605661 0.1725293 0.1866684 0.2005246 0.2065613 0.2006654 0.1899295 0.186594 0.1950488
 0.2080858 0.2157139 0.215046 0.210812 0.208083 0.2068844 0.2047082 0.2023412 0.2040894 0.2118238
 0.22171 0.2284951 0.2309808 0.2315407 0.2320931 0.2326458 0.2326691 0.2319756 0.2306324 0.2290942
 0.2280752 0.2277491 0.2275832 0.2271453 0.2260897 0.2229295 0.2153563 0.2034771 0.1918732 0.1859726
 0.1862991 0.1888453 0.19104 0.1932529 0.1932315 0.1845262 0.1650002 0.1438288 0.134826 0.1430966
 0.161229 0.1777476 0.1859092 0.1843018 0.1734249 0.1558828 0.1391032 0.1330046 0.141905 0.1603777
 0.1790528 0.1926863 0.2007271 0.2028275 0.1978795 0.1872232 0.1759083 0.1697956 0.1719992 0.1815307
 0.1936156 0.2009081 0.1971024 0.1832204 0.1703488 0.1714342 0.1876921 0.2065535 0.2157886 0.2158772
 0.2149882 0.2162866 0.2163944 0.2143385 0.2151078 0.2228299 0.2347113 0.2437933 0.2450629 0.2374324
 0.223085 0.2079646 0.2002266 0.2036694 0.2133478 0.220886 0.2225458 0.2187549 0.2091892 0.194814
 0.1830731 0.1834174 0.1963655 0.2122792 0.2223156 0.2264796 0.2295973 0.2330002 0.2329004 0.226118
 0.2153876 0.2076744 0.2072957 0.2121572 0.2173228 0.2202191 0.2206728 0.2179707 0.2113016 0.2031122
 0.1991418 0.2034464 0.2141803 0.2252777 0.2318474 0.2332442 0.2316831 0.2293579 0.2269458 0.2237747
 0.2193026 0.2150172 0.2141346 0.218165 0.224524 0.2292001 0.2313443 0.2335426 0.2377447 0.2425801
 0.2450286 0.2437141 0.2402145 0.2376892 0.2383451 0.2416824 0.2448631 0.2451286 0.2424225 0.2396933
 0.2401813 0.2443259 0.2497029 0.2537889 0.25602 0.257257 0.2583007 0.2591903 0.2591763 0.2572858
 0.2537081 0.2506004 0.250562 0.2540591 0.2589839 0.2628342 0.264729 0.2652609 0.2651225 0.2643842
 0.2629048 0.2609911 0.2594039 0.2587541 0.2590595 0.2599139 0.2609076 0.2618059 0.2625061 0.2630004
 0.2633406 0.263566 0.263689 0.2637498 0.2637967 0.2638028 0.2637047 0.2635562 0.2635434 0.263776
 0.2641343 0.2643937 0.2644296 0.2642113 0.2636698 0.2627209 0.2614192 0.2599484 0.2584126 0.2567605
 0.2550284 0.2536126 0.2531548 0.2540558 0.2560982 0.2585718 0.2607641 0.2623284 0.2632794 0.2637862
 0.2640235 0.2641246 0.2641603 0.2641338 0.2640156 0.2637907 0.2634756 0.2631045 0.2627119 0.2623243
 0.2619618 0.2616375 0.2613472 0.2610598 0.2607282 0.2603191 0.2598363 0.2593144 0.2587832 0.2582301
 0.257602 0.2568505 0.2559736 0.2550199 0.2540645 0.2531749 0.2523717 0.2516133 0.2508357 0.2500066
 0.2491165 0.2481351 0.2470316 0.245857 0.2447558 0.2438528 0.2431467 0.2425313 0.2418928 0.2411619
 0.240311 0.2393517 0.2383268 0.2372748 0.2362004 0.2350848 0.233908 0.2326482 0.2312871 0.2298287
 0.228298 0.2267153 0.2250927 0.2234479 0.221786 0.2200522 0.2181188 0.2158269 0.2130386 0.209668
 0.2057036 0.2012264 0.1964052 0.1914531 0.1865695 0.1819086 0.1775886 0.1737089 0.1703517 0.1675819
 0.1654529 0.1640077 0.1632715 0.1632517 0.1639412 0.1653077 0.1672759 0.1697266 0.1725125 0.1754738
 0.1784476 0.181286 0.1838956 0.1862757 0.1884978 0.1906199 0.1926245 0.1944523 0.1960752 0.1975045
 0.1987464 0.1997887 0.2006336 0.2013171 0.2018882 0.2023812 0.2028107 0.2031807 0.2034902 0.2037392
 0.2039406 0.2041235 0.2043144 0.2045195 0.2047363 0.2049722 0.2052398 0.2055468 0.2059063 0.206336
 0.2068348 0.2073746 0.2079308 0.2085046 0.2091095 0.2097575 0.2104701 0.2112872 0.2122511 0.213378
 0.2146452 0.2160025 0.2173907 0.2187434 0.2199805 0.2210192 0.221801 0.222305 0.2225484 0.2225844
 0.2224844 0.2222986 0.2220364 0.2216904 0.2212619 0.2207571 0.2201777 0.2195312 0.2188376 0.2181191
 0.2173898 0.2166622 0.215953 0.2152728 0.2146173 0.2139756 0.2133458 0.2127321 0.2121313 0.2115331
 0.2109354 0.2103471 0.2097768 0.2092242 0.208682 0.2081291 0.2075233 0.2068165 0.2059857 0.2050423
 0.204005 0.2028766 0.2016531 0.2003441 0.1989691 0.1975375 0.1960443 0.1944859 0.1928673 0.1911857
 0.1894109 0.1875008 0.1854559 0.1833561 0.1813257 0.1794547 0.1777587 0.1762008 0.1747321 0.1733207
 0.1719618 0.1706667 0.1694383 0.1682678 0.1671507 0.1660903 0.1650861 0.1641321 0.1632328 0.1624111
 0.1616928 0.1610835 0.1605611 0.1600991 0.1596913 0.1593448 0.1590672 0.1588757 0.1587956 0.1588179
 0.1588756 0.1588885 0.1588259 0.1587148 0.1586007 0.1585099 0.1584383 0.1583707 0.1583007 0.1582154
 0.1580668 0.1577712 0.157234 0.1563762 0.1551667 0.1536439 0.1518998 0.1500527 0.1482385 0.1465875
 0.145176 0.1440188 0.1431082 0.1424225 0.1419058 0.1414897 0.1411485 0.1409204 0.1408738 0.1410317
 0.1413018 0.1415175 0.1415946 0.1416254 0.1417879 0.1421932 0.1428244 0.1435698 0.1443011 0.1449465
 0.1454871 0.1458969 0.1461466 0.1462583 0.1462852 0.1462455 0.1461308 0.145951 0.1457224 0.145444
 0.1451086 0.1447032 0.1442052 0.1436119 0.142947 0.1422195 0.1414175 0.1405313 0.1395297 0.1383639
 0.1370846 0.1359169 0.1351534 0.1349824 0.1354032 0.1362415 0.1372698 0.1383555 0.1394225 0.1402678
 0.1406282 0.1405788 0.1407174 0.1417347 0.1437649 0.1462411 0.1483995 0.1498402 0.1505724 0.1506991
 0.1502616 0.1493007 0.1478467 0.145876 0.1434062 0.140559 0.1374726 0.1342927 0.1312496 0.1285647
 0.1263142 0.1244854 0.1230607 0.122074 0.1216607 0.1214638 0.119591 0.1136 0.10428 0.09733137
 0.09854811 0.1072881 0.1169416 0.1219172 0.1220749 0.1203926 0.1189119 0.1179366 0.1173718 0.1173763
 0.1180818 0.1193404 0.1207629 0.1219434 0.122706 0.1230896 0.1230674 0.1222822 0.1199767 0.1152729
 0.1078792 0.09868045 0.08943462 0.08175667 0.0763893 0.07321231 0.07160269 0.07080274 0.07028529 0.06999631
 0.07024457 0.07132211 0.07325375 0.07588279 0.07903959 0.0824898 0.08582275 0.08862428 0.09078969 0.09251218
 0.09394838 0.09503368 0.09562846 0.09570374 0.09534991 0.09470803 0.09393322 0.09314014 0.0923092 0.09129743
 0.09004711 0.08877419 0.08783382 0.08738367 0.08728203 0.08730679 0.08734341 0.08736237 0.08735219 0.0873096
 0.08723882 0.08717501 0.08722128 0.08748376 0.0879391 0.08842914 0.08880061 0.08901305 0.08911744 0.08913104
 0.08892789 0.08835214 0.08750947 0.08676594 0.08627924 0.08570984 0.08466022 0.08329094 0.08222982 0.08190155
 0.08215633 0.08253463 0.08269097 0.08254421 0.08224039 0.08209482 0.08239865 0.08308244 0.08365546 0.08366606
</values></Ydata></ScRf><Data_Parameters_AB><parameter name="DPF">1</parameter><parameter name="NPT">3497</parameter><parameter name="FXV">3996</parameter><parameter name="LXV">500</parameter><parameter name="CSF">1</parameter><parameter name="MXY">0.0912943035364151</parameter><parameter name="MNY">-0.0324151106178761</parameter><parameter name="DAT">02/06/2022</parameter><parameter name="TIM">13:48:52.589 (GMT+2)</parameter><parameter name="DXU">WN</parameter></Data_Parameters_AB><AB__Qtest><MainReport name="Quality Test Report"><Header><Line><Legend>Test result ok/not ok [1/0]: </Legend><Value>0</Value></Line><Line><Legend>Method file: </Legend><Value>C:\Users\Public\Documents\Bruker\OPUS_8.2.28\QT\IRBT_v3_default.QT</Value></Line></Header><Matrix><Line><Legend></Legend><Legend>min</Legend><Legend>max</Legend><Legend>measured</Legend></Line><Line><Value>Absorption (X-Range 1):</Value><Value>0.400000</Value><Value>2.000000</Value><Value>0.097787</Value></Line><Line><Value>Noise (X-Range 4):</Value><Value></Value><Value>0.000300</Value><Value>0.000048</Value></Line><Line><Value>Signal/Noise (X-Range 2):</Value><Value>200.000000</Value><Value></Value><Value>49.293086</Value></Line><Line><Value>Signal/Noise (X-Range 3):</Value><Value>40.000000</Value><Value></Value><Value>21.909225</Value></Line><Line><Value>Water vapour (X-Range 5):</Value><Value></Value><Value>0.000300</Value><Value>0.000042</Value></Line><Line><Value>Signal/Water (X-Range 2):</Value><Value>100.000000</Value><Value></Value><Value>56.864182</Value></Line><Line><Value>Signal/Water (X-Range 3):</Value><Value>20.000000</Value><Value></Value><Value>25.274339</Value></Line><Line><Value>Fringes (X-Range 6):</Value><Value></Value><Value>0.000100</Value><Value>0.000067</Value></Line></Matrix></MainReport></AB__Qtest><Data_Parameters_ScSm><parameter name="DPF">1</parameter><parameter name="NPT">1814</parameter><parameter name="FXV">3996.33169228125</parameter><parameter name="LXV">499.541461535156</parameter><parameter name="CSF">1</parameter><parameter name="MXY">0.246338814496994</parameter><parameter name="MNY">0.0304948464035988</parameter><parameter name="DAT">02/06/2022</parameter><parameter name="TIM">13:48:52.589 (GMT+2)</parameter><parameter name="DXU">WN</parameter></Data_Parameters_ScSm><Data_Parameters_ScRf><parameter name="DPF">1</parameter><parameter name="NPT">1820</parameter><parameter name="FXV">4004.04661832813</parameter><parameter name="LXV">495.683998511719</parameter><parameter name="CSF">1</parameter><parameter name="MXY">0.265260875225067</parameter><parameter name="MNY">0.0291642192751169</parameter><parameter name="DAT">02/06/2022</parameter><parameter name="TIM">13:48:26.305 (GMT+2)</parameter><parameter name="DXU">WN</parameter></Data_Parameters_ScRf><Optic_Parameters_Rf><parameter name="APR">0</parameter><parameter name="APT">Open</parameter><parameter name="BMS">KBr</parameter><parameter name="DTC">RT-DLaTGS_IR-Biotyper [Microplate reader]</parameter><parameter name="HPF">0</parameter><parameter name="LPF">10.0</parameter><parameter name="LPV">4000</parameter><parameter name="PGR">0</parameter><parameter name="RCH">Module port</parameter><parameter name="RDX">0</parameter><parameter name="SRC">MIR</parameter><parameter name="VEL">10.0</parameter><parameter name="SON">Off</parameter></Optic_Parameters_Rf><Acquisition_Parameters_Rf><parameter name="ADT">1</parameter><parameter name="AQM">DD</parameter><parameter name="CFE">0</parameter><parameter name="COR">0</parameter><parameter name="DEL">0</parameter><parameter name="DLY">0</parameter><parameter name="HFW">8000</parameter><parameter name="LFW">0</parameter><parameter name="NSR">32</parameter><parameter name="PLF">AB</parameter><parameter name="RES">6</parameter><parameter name="RGN">-1</parameter><parameter name="STR">0</parameter><parameter name="TCL">MakeCompatibleScalar (0, {WSV=1.000000, ARV=0});</parameter><parameter name="TDL">37</parameter><parameter name="RPO">0</parameter></Acquisition_Parameters_Rf><FT_-_Parameters_Rf><parameter name="APF">B3</parameter><parameter name="HFQ">500</parameter><parameter name="LFQ">4000</parameter><parameter name="NLI">0</parameter><parameter name="PHR">24</parameter><parameter name="PHZ">ML</parameter><parameter name="SPZ">NO</parameter><parameter name="ZFF">1</parameter></FT_-_Parameters_Rf><Optic_Parameters_><parameter name="APR">0</parameter><parameter name="APT">Open</parameter><parameter name="BMS">KBr</parameter><parameter name="CHN">Module port</parameter><parameter name="DTC">RT-DLaTGS_IR-Biotyper [Microplate reader]</parameter><parameter name="HPF">0</parameter><parameter name="LPF">10.0</parameter><parameter name="LPV">4000</parameter><parameter name="PGN">0</parameter><parameter name="RDX">0</parameter><parameter name="SRC">MIR</parameter><parameter name="VEL">10.0</parameter><parameter name="SON">Off</parameter></Optic_Parameters_><FT_-_Parameters_><parameter name="APF">B3</parameter><parameter name="HFQ">500</parameter><parameter name="LFQ">4000</parameter><parameter name="NLI">0</parameter><parameter name="PHR">24</parameter><parameter name="PHZ">ML</parameter><parameter name="SPZ">NO</parameter><parameter name="ZFF">1</parameter></FT_-_Parameters_><Acquisition_Parameters_><parameter name="ADT">1</parameter><parameter name="AQM">DD</parameter><parameter name="CFE">0</parameter><parameter name="COR">0</parameter><parameter name="DEL">0</parameter><parameter name="DLY">0</parameter><parameter name="HFW">8000</parameter><parameter name="LFW">0</parameter><parameter name="NSS">32</parameter><parameter name="PLF">AB</parameter><parameter name="RES">6</parameter><parameter name="SOT">0</parameter><parameter name="TCL">MakeCompatibleScalar (0, {WSV=1.000000, ARV=0});</parameter><parameter name="TDL">37</parameter><parameter name="SPO">0</parameter><parameter name="SGN">-1</parameter></Acquisition_Parameters_><Instrument_Parameters_Rf><parameter name="HFL">15800.168544</parameter><parameter name="LFL">0</parameter><parameter name="LWN">15800.168544</parameter><parameter name="ABP">32197</parameter><parameter name="SSP">1</parameter><parameter name="ARG">2</parameter><parameter name="ASG">2</parameter><parameter name="ASS">32</parameter><parameter name="GFW">16</parameter><parameter name="GBW">16</parameter><parameter name="BFW">0</parameter><parameter name="BBW">0</parameter><parameter name="PKA">7269</parameter><parameter name="PKL">4996</parameter><parameter name="PRA">7455</parameter><parameter name="PRL">5001</parameter><parameter name="P2A">1</parameter><parameter name="P2L">1</parameter><parameter name="P2R">1</parameter><parameter name="P2K">1</parameter><parameter name="DAQ">0</parameter><parameter name="AG2">1</parameter><parameter name="SSM">1</parameter><parameter name="RSN">26257</parameter><parameter name="CRR">0</parameter><parameter name="SRT">1654177706.306</parameter><parameter name="DUR">19.6389923095703</parameter><parameter name="TSC">29.2</parameter><parameter name="MVD">0.221501350402832</parameter><parameter name="AN1">0.22582244874645</parameter><parameter name="AN2">0</parameter><parameter name="VSN">2.485 Apr  4 2017</parameter><parameter name="SRN">0085</parameter><parameter name="CAM">0</parameter><parameter name="INS">IR-Biotyper</parameter><parameter name="FOC">69</parameter><parameter name="RDY">1</parameter><parameter name="ARS">32</parameter></Instrument_Parameters_Rf><Sample_Parameters_><parameter name="BLD"></parameter><parameter name="CNM">Admin</parameter><parameter name="CPY"></parameter><parameter name="DPM"></parameter><parameter name="EXP">IRBT_v3_32Scans.XPM</parameter><parameter name="LCT"></parameter><parameter name="SFM">Microplate, HTS-XT</parameter><parameter name="SNM">220602-1248_JCG30M (D_2)_B9_71329a04-73ff-4a03-b188-eb675814af90.0</parameter><parameter name="XPP">C:\Users\Public\Documents\Bruker\OPUS_8.2.28\XPM</parameter><parameter name="IST">OK</parameter><parameter name="CPG">1252</parameter><parameter name="UID">1bd8d898-9c97-48d9-8651-b8c5dff9e3cb</parameter></Sample_Parameters_><Instrument_Parameters_><parameter name="HFL">15800.168544</parameter><parameter name="LFL">0</parameter><parameter name="LWN">15800.168544</parameter><parameter name="ABP">32197</parameter><parameter name="SSP">1</parameter><parameter name="ASG">2</parameter><parameter name="ARG">2</parameter><parameter name="ASS">32</parameter><parameter name="GFW">16</parameter><parameter name="GBW">16</parameter><parameter name="BFW">0</parameter><parameter name="BBW">0</parameter><parameter name="PKA">6978</parameter><parameter name="PKL">4988</parameter><parameter name="PRA">7253</parameter><parameter name="PRL">4993</parameter><parameter name="P2A">1</parameter><parameter name="P2L">1</parameter><parameter name="P2R">1</parameter><parameter name="P2K">1</parameter><parameter name="DAQ">0</parameter><parameter name="AG2">1</parameter><parameter name="SSM">1</parameter><parameter name="RSN">13754</parameter><parameter name="CRR">0</parameter><parameter name="SRT">1654177732.59</parameter><parameter name="DUR">19.6389923095703</parameter><parameter name="TSC">29.2</parameter><parameter name="MVD">0.457859545946121</parameter><parameter name="AN1">0.225851441642046</parameter><parameter name="AN2">0</parameter><parameter name="VSN">2.485 Apr  4 2017</parameter><parameter name="SRN">0085</parameter><parameter name="CAM">0</parameter><parameter name="INS">IR-Biotyper</parameter><parameter name="FOC">69</parameter><parameter name="RDY">1</parameter></Instrument_Parameters_><History/></OPUSDataFile>
