<?xml version="1.0" encoding="UTF-8" ?>
<OPUSDataFile><AB><Ydata ylabel="Absorbance Units"><values byteorder="INTEL" format="FLOAT32" numvalues="3497"> -0.03875009 -0.0387469 -0.03873589 -0.03871702 -0.03869119 -0.03865841 -0.03861513 -0.03856198 -0.0385053 -0.03844758
 -0.03840768 -0.03838544 -0.0383926 -0.03842216 -0.03846439 -0.03851158 -0.03854531 -0.03856637 -0.03856645 -0.03855502
 -0.0385361 -0.03851913 -0.03851082 -0.03851389 -0.03853192 -0.03856003 -0.03859853 -0.03863836 -0.03867827 -0.03871098
 -0.03873545 -0.03875054 -0.03875614 -0.03875506 -0.03874756 -0.03873732 -0.03872506 -0.03871617 -0.03871237 -0.03872309
 -0.03874827 -0.03879435 -0.03885562 -0.03892763 -0.03900022 -0.03905988 -0.03910106 -0.03911297 -0.03910109 -0.03906412
 -0.03901298 -0.03895144 -0.03888649 -0.03882051 -0.038757 -0.03869662 -0.03864288 -0.03859616 -0.03855886 -0.03853112
 -0.03851366 -0.03850666 -0.03851292 -0.03853233 -0.03856661 -0.03861348 -0.03866604 -0.03872148 -0.03876848 -0.0388089
 -0.0388402 -0.0388663 -0.03889295 -0.03891586 -0.03893608 -0.03894096 -0.0389224 -0.0388778 -0.03879986 -0.03870933
 -0.03860732 -0.03852469 -0.03846631 -0.03845417 -0.03849125 -0.0385869 -0.03874186 -0.0389473 -0.0392 -0.03945679
 -0.03970892 -0.03987817 -0.03996389 -0.03991107 -0.03974907 -0.03951717 -0.03925075 -0.0390338 -0.03886466 -0.03877964
 -0.03875041 -0.03876689 -0.03880327 -0.03884063 -0.03887217 -0.03888915 -0.03890014 -0.03890594 -0.03891277 -0.03892259
 -0.0389325 -0.03894252 -0.03894831 -0.03894958 -0.03894913 -0.03894803 -0.03896184 -0.03899224 -0.0390598 -0.03916131
 -0.03929992 -0.03946259 -0.03962102 -0.03976072 -0.03983995 -0.0398645 -0.03982025 -0.03973031 -0.03960972 -0.03947208
 -0.03932567 -0.03918928 -0.03906409 -0.03899674 -0.03899913 -0.03910444 -0.03932727 -0.03963178 -0.04002336 -0.04037117
 -0.04066839 -0.04073273 -0.04056805 -0.04019488 -0.0396467 -0.03916285 -0.03873873 -0.03848527 -0.03837289 -0.03838195
 -0.03849408 -0.03867486 -0.03890031 -0.03913647 -0.03934525 -0.03948203 -0.03953331 -0.03946488 -0.03933146 -0.03914088
 -0.03896082 -0.03881658 -0.03871384 -0.0386596 -0.038631 -0.03862484 -0.03864545 -0.03869283 -0.03878172 -0.03891054
 -0.03905859 -0.03921907 -0.03933591 -0.03940733 -0.03939181 -0.03930268 -0.03914966 -0.03895169 -0.0387453 -0.03854331
 -0.03837516 -0.03824691 -0.03817581 -0.03815393 -0.03818513 -0.03824751 -0.03833479 -0.03842595 -0.03851341 -0.03859052
 -0.0386557 -0.03870214 -0.0387303 -0.03871695 -0.0386606 -0.03854972 -0.03838615 -0.03819858 -0.03799089 -0.03780341
 -0.03763618 -0.03751062 -0.03742477 -0.03738554 -0.03738833 -0.03743126 -0.0375025 -0.03758938 -0.03767638 -0.0377463
 -0.03779025 -0.03779689 -0.03776887 -0.03770152 -0.03761237 -0.03750084 -0.03740368 -0.03732628 -0.03730128 -0.03733511
 -0.0374184 -0.0375515 -0.0376873 -0.03782328 -0.03791165 -0.03795443 -0.03793891 -0.03787443 -0.03779028 -0.03769426
 -0.03762355 -0.03757446 -0.03755881 -0.03756681 -0.0375883 -0.03762455 -0.03766827 -0.03773852 -0.03784581 -0.03799848
 -0.03821161 -0.03844722 -0.03870538 -0.03891588 -0.03906386 -0.03912129 -0.03907993 -0.03897314 -0.03880264 -0.03858628
 -0.03832546 -0.03803864 -0.03773478 -0.03748823 -0.03730224 -0.0372375 -0.03727345 -0.03739471 -0.03756445 -0.03770887
 -0.03780774 -0.0377907 -0.03770048 -0.03754359 -0.03737912 -0.03725241 -0.0371673 -0.03714247 -0.03714213 -0.03716213
 -0.03716345 -0.03713656 -0.03707046 -0.03696004 -0.03683577 -0.03669887 -0.03659606 -0.03652877 -0.03652476 -0.03657965
 -0.03668099 -0.03681527 -0.03692194 -0.03699071 -0.03695166 -0.03683225 -0.03664372 -0.0364288 -0.03625702 -0.03612093
 -0.03604691 -0.03598979 -0.03592889 -0.03583486 -0.03568177 -0.03549497 -0.03527026 -0.03506464 -0.03488962 -0.03477138
 -0.03471818 -0.03469631 -0.0347051 -0.0346679 -0.03458235 -0.03440024 -0.03413305 -0.03384032 -0.03353606 -0.03331559
 -0.03316933 -0.03312153 -0.03315452 -0.0332494 -0.03338779 -0.03354632 -0.03369109 -0.03378864 -0.03380444 -0.03369886
 -0.03349001 -0.03316836 -0.03278776 -0.03236461 -0.03191768 -0.03145238 -0.03097937 -0.03049813 -0.03004348 -0.02961793
 -0.0292368 -0.02889952 -0.0285899 -0.02830777 -0.02804306 -0.02779965 -0.02758921 -0.02741335 -0.02728528 -0.0271975
 -0.02714701 -0.02711413 -0.02708055 -0.02700785 -0.02685806 -0.02659909 -0.02618066 -0.02566257 -0.02504308 -0.02443694
 -0.0238857 -0.02341343 -0.02303768 -0.0227145 -0.02244105 -0.02217933 -0.02192616 -0.02167259 -0.02141923 -0.02118349
 -0.02096551 -0.02078017 -0.02061567 -0.02043565 -0.02021735 -0.01986778 -0.01940325 -0.01878989 -0.01810661 -0.01745028
 -0.01685398 -0.0163981 -0.0160348 -0.01576224 -0.01551923 -0.01527692 -0.01500712 -0.0146906 -0.01434528 -0.01397006
 -0.01359325 -0.0132202 -0.01284653 -0.01247309 -0.01206465 -0.01162017 -0.01112051 -0.01057057 -0.009999542 -0.009412812
 -0.008850863 -0.008310745 -0.007804058 -0.00732809 -0.006881933 -0.00646703 -0.00608774 -0.005736795 -0.005412145 -0.005098152
 -0.004783663 -0.004461986 -0.004129692 -0.003776104 -0.003402861 -0.002974347 -0.002482048 -0.001912878 -0.001257159 -0.0005883525
 9.012388E-05 0.0006840305 0.001191738 0.001602932 0.001924951 0.002211283 0.002466246 0.002738552 0.003022907 0.003331349
 0.003652853 0.00397026 0.004280637 0.004567146 0.004847843 0.005127884 0.005440069 0.005810325 0.006245774 0.006766966
 0.007325119 0.007913757 0.008476237 0.00899738 0.009463716 0.009869387 0.01023614 0.01056451 0.01089003 0.01121436
 0.01156715 0.01194739 0.01236119 0.01280486 0.01326539 0.01374068 0.01421846 0.01469787 0.01517311 0.01563992
 0.01609086 0.01652124 0.01692264 0.01729761 0.01764398 0.0179696 0.01827705 0.01857308 0.01885991 0.01914274
 0.01942221 0.019706 0.0199943 0.02030094 0.02062679 0.02098648 0.02138012 0.02180493 0.02225748 0.02270816
 0.02315346 0.02355959 0.02393091 0.02425997 0.02455812 0.02484403 0.02512556 0.0254234 0.02573402 0.02606365
 0.02639998 0.02673658 0.02706545 0.02737839 0.02768454 0.02798271 0.02829292 0.02861984 0.02897146 0.0293511
 0.02974425 0.03015042 0.03054822 0.03093686 0.03130617 0.03165685 0.03199082 0.03230866 0.03261378 0.03290636
 0.03318766 0.03345985 0.03372692 0.03399306 0.03426637 0.0345473 0.03484046 0.03514086 0.03544602 0.03575403
 0.03606258 0.03637474 0.03669316 0.0370094 0.03732444 0.03761591 0.03787985 0.03811203 0.03831045 0.03851041
 0.03871394 0.03896491 0.03926134 0.03960735 0.03999358 0.0403793 0.04075687 0.04107999 0.04135336 0.04156058
 0.0417189 0.04184438 0.0419534 0.04206967 0.04219496 0.04233875 0.0424938 0.04265744 0.04283046 0.04301147
 0.04320744 0.04342071 0.04364885 0.04389285 0.04413986 0.04438908 0.04462876 0.04485849 0.04507409 0.04527694
 0.04547602 0.04567535 0.04589909 0.04614893 0.04644621 0.04678146 0.04714905 0.04753136 0.04790095 0.04824701
 0.04854723 0.04880373 0.04901053 0.0491748 0.04929761 0.04938754 0.04944512 0.0494873 0.04951542 0.04955535
 0.0496104 0.04970026 0.04982724 0.04999096 0.05019104 0.05041148 0.05065137 0.05089624 0.05114599 0.05139361
 0.05163733 0.05186895 0.05208512 0.05227361 0.05243661 0.05256826 0.05268292 0.05278977 0.05290858 0.05305792
 0.05324084 0.0534702 0.05371605 0.05397515 0.05420648 0.0543975 0.05454335 0.05463794 0.05472061 0.05479413
 0.05488665 0.05499844 0.05510305 0.0551977 0.05524162 0.05524109 0.05520266 0.05513977 0.05509854 0.05508339
 0.05512878 0.05522467 0.05537336 0.05555849 0.05576615 0.05597995 0.05618381 0.05637113 0.05653034 0.0566785
 0.0568158 0.05697082 0.05715277 0.05736129 0.05760174 0.05783007 0.05804375 0.05819639 0.05828646 0.05831238
 0.05827828 0.05822404 0.05815243 0.0580992 0.05806096 0.05804433 0.05804861 0.05807259 0.05812415 0.05821636
 0.05834891 0.05853404 0.05874461 0.05896947 0.05917455 0.05933521 0.05945436 0.0595206 0.05957719 0.05963087
 0.05971804 0.05984802 0.06001074 0.06020788 0.06039259 0.0605625 0.06067364 0.06072721 0.06071502 0.06064557
 0.06055453 0.0604539 0.06040101 0.06039921 0.06048879 0.06065275 0.06089007 0.0611655 0.06144485 0.06169714
 0.06188483 0.06201155 0.06206148 0.062077 0.06206591 0.06207308 0.06211192 0.06219519 0.06232781 0.06250059
 0.06271289 0.06296302 0.06325091 0.06357934 0.06394549 0.06432492 0.06470856 0.0650371 0.06530397 0.06545158
 0.06549205 0.06541423 0.06525543 0.06506069 0.06487342 0.06475958 0.06472914 0.0648219 0.06499095 0.06523352
 0.06547128 0.06567845 0.06580014 0.06581419 0.06572514 0.06552556 0.0652719 0.06496715 0.0646754 0.06439962
 0.06416748 0.06397699 0.06381626 0.06368348 0.06356171 0.06345421 0.06336349 0.06329138 0.06324772 0.06322087
 0.06320313 0.06316862 0.0630886 0.06294235 0.06270068 0.06237295 0.06194852 0.06147024 0.06094646 0.06042573
 0.05992086 0.05945854 0.05904547 0.05868533 0.05837979 0.05811594 0.05789292 0.05767896 0.05747223 0.05723889
 0.05698353 0.05671001 0.05642956 0.056185 0.05597414 0.05582137 0.05569889 0.05557681 0.05542785 0.05520374
 0.05491596 0.05454705 0.05414942 0.05374018 0.05337509 0.0530806 0.05287166 0.05276448 0.05271265 0.05271697
 0.05269339 0.05263436 0.05248471 0.05224203 0.05192718 0.05154555 0.05116517 0.05078803 0.05046194 0.05018011
 0.0499453 0.04975043 0.04958063 0.04943343 0.04929964 0.049176 0.04905727 0.04893668 0.04880754 0.04866616
 0.04850706 0.04833651 0.04815417 0.04797162 0.04779195 0.04761995 0.04745781 0.04729841 0.04714149 0.04697785
 0.04680705 0.04662731 0.04643884 0.04624337 0.04604085 0.04583091 0.04561475 0.04539528 0.04517563 0.04496468
 0.04476322 0.0445779 0.04440391 0.04423892 0.04407769 0.04391506 0.04374968 0.04357953 0.04340468 0.04322504
 0.04303965 0.0428481 0.0426508 0.04244743 0.04224123 0.0420324 0.04182461 0.04161807 0.04141429 0.04121313
 0.04101322 0.04081417 0.04061297 0.04040963 0.04020232 0.03999183 0.03977907 0.03956452 0.03934945 0.03913359
 0.03891612 0.0386999 0.03848437 0.03828009 0.03808999 0.03793059 0.03780947 0.0377321 0.0377062 0.03770407
 0.03772693 0.03771677 0.03766877 0.03753416 0.03731032 0.03700108 0.03661128 0.03619955 0.03577336 0.03540679
 0.03509929 0.03489356 0.0347728 0.03472503 0.03472171 0.03471201 0.03467792 0.03457315 0.03441318 0.03418897
 0.03393835 0.03368042 0.03343457 0.03321642 0.03301286 0.03282265 0.03263792 0.03245347 0.03229673 0.03216889
 0.03210664 0.03211195 0.03218306 0.03231606 0.03246202 0.03261454 0.03271044 0.03274939 0.03269273 0.03255291
 0.03233505 0.0320622 0.03177311 0.03148452 0.0312348 0.03101602 0.03083823 0.03067765 0.03052235 0.03036309
 0.03019027 0.03001757 0.02984656 0.02968883 0.02954784 0.02941828 0.02929975 0.02919018 0.02908946 0.02901294
 0.02896123 0.02894783 0.02897011 0.02902003 0.02909335 0.02917056 0.02924996 0.02931828 0.02937492 0.02941395
 0.02943305 0.02942796 0.0293955 0.02933299 0.0292347 0.02909796 0.02891494 0.02867963 0.02839859 0.02806655
 0.02772266 0.02736929 0.02706046 0.02680295 0.02661476 0.02649733 0.02640812 0.02634348 0.02624156 0.02610494
 0.02591431 0.02568234 0.02544423 0.02520976 0.02502351 0.02487884 0.02478844 0.02473277 0.02469526 0.02465845
 0.02460188 0.0245205 0.02440325 0.02426134 0.02409307 0.02392379 0.02375873 0.02362004 0.02351515 0.02343305
 0.02337577 0.02329799 0.0231972 0.02304067 0.02283051 0.02258912 0.02232309 0.02208717 0.02187874 0.02172173
 0.02159986 0.02148549 0.0213664 0.02120467 0.02100986 0.02077423 0.02052148 0.02026817 0.02003065 0.01982384
 0.01964975 0.01951252 0.01941013 0.01934241 0.01930972 0.01931267 0.01934776 0.01941588 0.01949872 0.0195954
 0.01966956 0.01971902 0.01970402 0.01962619 0.01947179 0.01925134 0.01899344 0.01871299 0.01846144 0.01824497
 0.01810036 0.01801837 0.01800492 0.01804247 0.01811926 0.01822127 0.01833701 0.0184614 0.01858976 0.01872186
 0.01885697 0.01899462 0.01913408 0.01927859 0.01942711 0.01959905 0.01979534 0.02005095 0.02036688 0.02076592
 0.02124327 0.02178199 0.02237231 0.02296805 0.02356475 0.02412568 0.02465787 0.02515522 0.02562965 0.02609317
 0.02655351 0.02702106 0.02749896 0.02799078 0.02850081 0.02903122 0.02958564 0.03016742 0.03076766 0.03138862
 0.03199855 0.03259594 0.03313753 0.03362057 0.03401983 0.0343361 0.03457887 0.03475115 0.03487775 0.03495836
 0.03500379 0.03501419 0.03499031 0.03494477 0.03489489 0.03486362 0.03488705 0.03497401 0.03515014 0.03539509
 0.03570724 0.03605762 0.03643194 0.03682353 0.0372255 0.03765094 0.03810177 0.03858342 0.03909798 0.0396317
 0.04018402 0.04073222 0.04127508 0.04179083 0.0422792 0.04272573 0.04313429 0.04350952 0.04386042 0.04421289
 0.04457109 0.04496135 0.04536368 0.04577766 0.04614457 0.04643021 0.04654369 0.04642914 0.0460102 0.04523239
 0.0441075 0.04260704 0.04086796 0.03889524 0.03689642 0.03489226 0.03304728 0.03137382 0.02992027 0.02868411
 0.02762203 0.02672816 0.02594267 0.02526459 0.02466047 0.02412852 0.02365046 0.02321761 0.02280717 0.02241125
 0.02200845 0.0216037 0.02119162 0.02078633 0.02039518 0.02002573 0.01968413 0.01936726 0.01907504 0.018806
 0.01855851 0.01834154 0.01815492 0.01801713 0.0179292 0.01791328 0.0179696 0.01810548 0.01831527 0.01856702
 0.01884864 0.01909468 0.01929856 0.01940519 0.01942649 0.01935336 0.01921264 0.01903159 0.01883694 0.01866018
 0.01851802 0.018429 0.01839927 0.0184348 0.01853918 0.01871227 0.01896735 0.01930576 0.01974577 0.02029274
 0.02092533 0.02164464 0.02233023 0.02297082 0.02335704 0.02348003 0.02316311 0.02243271 0.02128245 0.01978133
 0.01809868 0.01630297 0.01460208 0.01301019 0.01163949 0.01044593 0.00943267 0.008545898 0.007751074 0.007025633
 0.006350166 0.005726533 0.005152286 0.004628962 0.004157266 0.003732922 0.003355719 0.003020781 0.002727924 0.002467504
 0.002238652 0.002025175 0.001826109 0.001626374 0.001426532 0.001219959 0.001009574 0.0007988635 0.0005923136 0.0003999122
 0.0002238521 7.327101E-05 -5.848385E-05 -0.0001712848 -0.0002803244 -0.0003947757 -0.0005245164 -0.0006794403 -0.0008483269 -0.001033669
 -0.00120574 -0.001359824 -0.001472324 -0.00153812 -0.001564359 -0.001550532 -0.001531544 -0.001509071 -0.001514862 -0.001547344
 -0.001610378 -0.001699946 -0.001800434 -0.001911663 -0.002024235 -0.002142167 -0.002269577 -0.002407025 -0.002559221 -0.002718793
 -0.002882122 -0.003039229 -0.003183076 -0.003307433 -0.0034075 -0.003482791 -0.003530679 -0.003559879 -0.003569576 -0.003580684
 -0.003595096 -0.003632892 -0.003695922 -0.003783894 -0.00389591 -0.004011285 -0.00412888 -0.004229726 -0.004315742 -0.00438461
 -0.004439466 -0.004487788 -0.004531121 -0.00457573 -0.004622126 -0.004673489 -0.004729721 -0.004793035 -0.004859013 -0.004927501
 -0.004988017 -0.005036292 -0.005064468 -0.005067119 -0.005052165 -0.00501779 -0.004988177 -0.0049657 -0.004970849 -0.00500566
 -0.005067188 -0.005154565 -0.005246973 -0.005343731 -0.005429238 -0.005505909 -0.005575723 -0.005641453 -0.005712949 -0.005788604
 -0.005871567 -0.005955281 -0.006032906 -0.006098064 -0.006140812 -0.006163553 -0.00616187 -0.006150219 -0.006132198 -0.006124727
 -0.006134249 -0.006166714 -0.006225474 -0.006304445 -0.006403815 -0.006512985 -0.006631353 -0.006747499 -0.00686082 -0.006960155
 -0.007045748 -0.007113385 -0.007165557 -0.007210595 -0.007251132 -0.007299824 -0.00735531 -0.007422111 -0.007494876 -0.00756841
 -0.007638421 -0.007698039 -0.007748679 -0.007788182 -0.007822455 -0.007852903 -0.007886464 -0.007925371 -0.007974341 -0.008035077
 -0.008107358 -0.008192051 -0.008281256 -0.008374724 -0.008458712 -0.008532598 -0.008585304 -0.008617387 -0.008627851 -0.008618629
 -0.008597199 -0.008565895 -0.008534607 -0.00850579 -0.008488427 -0.008484708 -0.008501721 -0.008538932 -0.008599818 -0.008678297
 -0.008773088 -0.008873801 -0.008975931 -0.009071379 -0.009155882 -0.009230007 -0.009292211 -0.009350685 -0.009406142 -0.009466051
 -0.009531224 -0.009600358 -0.009673158 -0.009741364 -0.009804685 -0.00985651 -0.009898102 -0.009931093 -0.009957927 -0.009986788
 -0.01001841 -0.01005934 -0.01010593 -0.01015681 -0.01020618 -0.01024727 -0.0102791 -0.01029733 -0.01030873 -0.01031464
 -0.01032283 -0.01033619 -0.01035784 -0.01038899 -0.01043008 -0.01048138 -0.01054229 -0.01061295 -0.01068889 -0.01076971
 -0.01084585 -0.01091677 -0.0109734 -0.01101626 -0.01104209 -0.01105333 -0.01105432 -0.01104937 -0.01104878 -0.0110561
 -0.01108195 -0.01112348 -0.01118374 -0.01125302 -0.01132642 -0.01139495 -0.01145216 -0.01149816 -0.01153051 -0.01155668
 -0.0115775 -0.01160029 -0.01162615 -0.01165898 -0.01169926 -0.0117473 -0.01180291 -0.01186031 -0.01191856 -0.01196658
 -0.01200453 -0.01202576 -0.01203416 -0.01203722 -0.01203974 -0.01205687 -0.01208577 -0.01213162 -0.01218239 -0.01222805
 -0.01226063 -0.01226794 -0.01226045 -0.01223691 -0.01221914 -0.01221451 -0.01223337 -0.01228178 -0.01234667 -0.01242846
 -0.01250261 -0.01256713 -0.01260777 -0.01262436 -0.01262458 -0.01261037 -0.01260257 -0.01260129 -0.01261941 -0.01265263
 -0.01269514 -0.01274228 -0.01278015 -0.01281084 -0.01282989 -0.01284494 -0.01286265 -0.01288607 -0.01292162 -0.0129616
 -0.01300527 -0.01304127 -0.01306498 -0.01307379 -0.01306498 -0.01304744 -0.01302145 -0.0129994 -0.01298232 -0.01297783
 -0.01298619 -0.01300828 -0.01304363 -0.01308867 -0.0131423 -0.01319785 -0.01325372 -0.01330142 -0.01334053 -0.01336504
 -0.01337819 -0.01338118 -0.01337947 -0.01337963 -0.0133829 -0.01339374 -0.01340618 -0.01341887 -0.01342578 -0.01342346
 -0.01341447 -0.01339773 -0.01338265 -0.01337033 -0.01336759 -0.01337529 -0.01339254 -0.01341921 -0.01344983 -0.0134842
 -0.01351832 -0.01355234 -0.01358496 -0.013616 -0.01364428 -0.0136693 -0.01368915 -0.01370433 -0.01371428 -0.01372107
 -0.01372667 -0.01373235 -0.01374022 -0.01374864 -0.01375742 -0.01376483 -0.01376951 -0.01377408 -0.01377843 -0.0137876
 -0.01380242 -0.01382492 -0.01385551 -0.01389147 -0.01393267 -0.01397539 -0.01401967 -0.01406481 -0.01411092 -0.01415857
 -0.01420687 -0.01425373 -0.01429739 -0.01433266 -0.01435988 -0.01437631 -0.01438573 -0.01439082 -0.01439502 -0.01440266
 -0.01441155 -0.01442252 -0.01443014 -0.01443214 -0.01442806 -0.01441629 -0.0144043 -0.01439259 -0.01439016 -0.01439806
 -0.01441759 -0.01444865 -0.01448187 -0.01451645 -0.01454052 -0.01455474 -0.0145555 -0.01454553 -0.01453151 -0.0145156
 -0.0145061 -0.0145024 -0.01450764 -0.01451922 -0.01453569 -0.01455486 -0.01457445 -0.01459434 -0.01461341 -0.01463403
 -0.01465671 -0.01468353 -0.01471573 -0.01475034 -0.01478761 -0.01482061 -0.01484871 -0.01486834 -0.01487939 -0.01488524
 -0.01488632 -0.01488858 -0.01489186 -0.01489872 -0.01490832 -0.01491933 -0.01493108 -0.01494135 -0.01495033 -0.01495732
 -0.01496264 -0.01496663 -0.01496876 -0.01496882 -0.01496621 -0.01496038 -0.01495187 -0.01494068 -0.01492754 -0.01491262
 -0.01489629 -0.01487831 -0.01486163 -0.01484636 -0.01483744 -0.01483506 -0.01483879 -0.01484797 -0.01485512 -0.01486025
 -0.01485858 -0.01485235 -0.01484641 -0.01484226 -0.0148466 -0.01485697 -0.01487301 -0.01489094 -0.01490602 -0.01491784
 -0.01492398 -0.01492711 -0.01492804 -0.01492853 -0.01492965 -0.01493087 -0.01493219 -0.01493335 -0.01493405 -0.01493645
 -0.01494065 -0.01494966 -0.01496361 -0.01498258 -0.01500636 -0.0150324 -0.01506129 -0.01509406 -0.01513298 -0.01518572
 -0.01525451 -0.01534842 -0.01546709 -0.01561439 -0.01578774 -0.01598512 -0.01620667 -0.01644944 -0.01672242 -0.01702703
 -0.0173791 -0.01778603 -0.01825053 -0.01878013 -0.01934118 -0.01993412 -0.02049519 -0.02101867 -0.02146178 -0.02182266
 -0.0221213 -0.02236072 -0.02258872 -0.0227952 -0.02295858 -0.02304913 -0.02294918 -0.02265535 -0.02207403 -0.02128835
 -0.02037015 -0.01943261 -0.01863792 -0.0180108 -0.0176321 -0.01745426 -0.01747713 -0.01764445 -0.01794183 -0.01830988
 -0.01873972 -0.01915137 -0.01953333 -0.01981911 -0.01999863 -0.02008452 -0.02007739 -0.0200292 -0.01994073 -0.0198358
 -0.01971281 -0.01957476 -0.01942157 -0.01925441 -0.01907454 -0.01888489 -0.01868775 -0.018489 -0.01828719 -0.0180847
 -0.01787437 -0.01764998 -0.01741221 -0.01715565 -0.01689853 -0.01664495 -0.01641342 -0.01621099 -0.01603683 -0.01589329
 -0.01576467 -0.01564993 -0.01553482 -0.01541859 -0.01529779 -0.0151732 -0.01505291 -0.01493797 -0.01483893 -0.01475479
 -0.01468825 -0.01463641 -0.01459411 -0.01455889 -0.01452462 -0.01449008 -0.01445169 -0.0144091 -0.01436033 -0.01430765
 -0.01425097 -0.01419519 -0.01414243 -0.01409398 -0.01405138 -0.01400963 -0.01396803 -0.01392394 -0.0138766 -0.01383219
 -0.01379105 -0.01376154 -0.01374343 -0.01373635 -0.01373896 -0.01374314 -0.01374854 -0.01374903 -0.01374652 -0.0137424
 -0.01373844 -0.01373897 -0.01374241 -0.01374953 -0.01375603 -0.01375859 -0.01375531 -0.01374364 -0.01372574 -0.01370164
 -0.01367408 -0.01364364 -0.01361254 -0.01358095 -0.01355229 -0.01352696 -0.01350637 -0.0134906 -0.01347421 -0.01345675
 -0.01343057 -0.01339624 -0.01335292 -0.01330232 -0.0132502 -0.01319725 -0.01314812 -0.01310229 -0.01306088 -0.01302362
 -0.01299055 -0.01296186 -0.01293801 -0.01291813 -0.0129023 -0.01288818 -0.01287519 -0.01286055 -0.01284326 -0.0128227
 -0.01279808 -0.01277374 -0.01274979 -0.01273339 -0.01272495 -0.0127264 -0.01273704 -0.01274866 -0.01275988 -0.01275775
 -0.01274287 -0.01270921 -0.01266111 -0.012605 -0.01254638 -0.01249788 -0.01246045 -0.0124418 -0.01243555 -0.01244013
 -0.01244706 -0.01245049 -0.01244859 -0.0124379 -0.01242539 -0.01241174 -0.01240499 -0.01240729 -0.01241771 -0.01243695
 -0.01245472 -0.01247048 -0.01247483 -0.01246798 -0.01245083 -0.01242457 -0.01239728 -0.01236897 -0.01234424 -0.01232165
 -0.01229963 -0.01227795 -0.01225492 -0.01223239 -0.01221204 -0.01219463 -0.01218226 -0.01217199 -0.01216322 -0.01215201
 -0.0121361 -0.0121161 -0.01209069 -0.01206702 -0.01204573 -0.01203479 -0.01203537 -0.01204809 -0.01207307 -0.01210197
 -0.01213427 -0.01216058 -0.01218116 -0.01219265 -0.01219606 -0.0121934 -0.01218504 -0.01217298 -0.01215691 -0.01213696
 -0.01211337 -0.01208596 -0.01205655 -0.012026 -0.01199745 -0.0119727 -0.01195427 -0.01194402 -0.01194095 -0.0119458
 -0.01195375 -0.01196432 -0.01197234 -0.01197705 -0.01197775 -0.01197434 -0.01196987 -0.01196439 -0.01195978 -0.01195543
 -0.01194843 -0.01193822 -0.01192047 -0.01189667 -0.01186743 -0.01183659 -0.01181081 -0.01179315 -0.01179093 -0.01180217
 -0.01182929 -0.01186452 -0.01190494 -0.01194229 -0.01197236 -0.01199224 -0.01199977 -0.01199762 -0.01198562 -0.01196828
 -0.01194593 -0.01192302 -0.01189982 -0.0118811 -0.01186697 -0.01186014 -0.01186001 -0.01186422 -0.01187172 -0.01187698
 -0.01188006 -0.01187791 -0.0118721 -0.0118638 -0.01185469 -0.01184761 -0.01184249 -0.01184058 -0.01184021 -0.01184091
 -0.01184101 -0.01183966 -0.0118363 -0.0118306 -0.01182247 -0.01181185 -0.01179865 -0.01178263 -0.01176674 -0.01175111
 -0.01174172 -0.01173864 -0.01174412 -0.01175717 -0.0117724 -0.01178889 -0.01179982 -0.01180593 -0.01180572 -0.01180011
 -0.01179027 -0.01177598 -0.01175664 -0.01173441 -0.01170949 -0.01168827 -0.01167463 -0.01167217 -0.01168482 -0.01170674
 -0.01173807 -0.0117688 -0.01179692 -0.01181822 -0.01183168 -0.01183994 -0.01184311 -0.01184425 -0.01184339 -0.01184067
 -0.01183603 -0.01182884 -0.01181949 -0.01180895 -0.01179797 -0.01178883 -0.01178225 -0.01178044 -0.0117839 -0.01179439
 -0.01181105 -0.01183453 -0.0118614 -0.01189051 -0.01191706 -0.01193862 -0.01195355 -0.01196032 -0.01196203 -0.01195872
 -0.01195513 -0.01195187 -0.01195092 -0.01195245 -0.01195609 -0.01196176 -0.01196837 -0.01197571 -0.01198191 -0.01198644
 -0.01198605 -0.01198082 -0.01196851 -0.01195123 -0.01193114 -0.01191139 -0.0118972 -0.01188906 -0.01189008 -0.01189679
 -0.01190797 -0.01192099 -0.01193384 -0.01194817 -0.01196412 -0.01198292 -0.01200562 -0.01202698 -0.0120468 -0.01205777
 -0.01205933 -0.01205116 -0.01203367 -0.01201441 -0.01199392 -0.01198004 -0.01197208 -0.011972 -0.01197777 -0.01198522
 -0.01199269 -0.01199464 -0.01199229 -0.01198415 -0.01197408 -0.01196498 -0.01195937 -0.01196041 -0.01196596 -0.01197642
 -0.01198743 -0.01199776 -0.01200522 -0.01200906 -0.01200941 -0.0120063 -0.011999 -0.01198748 -0.01196964 -0.01194549
 -0.01191495 -0.0118786 -0.01184049 -0.01180127 -0.01176604 -0.0117344 -0.01170796 -0.01168593 -0.01166729 -0.01165242
 -0.01164102 -0.01163458 -0.01163455 -0.01164118 -0.01165607 -0.01167531 -0.01169917 -0.01171813 -0.0117303 -0.01172544
 -0.01170053 -0.01165516 -0.01158786 -0.01151189 -0.01142785 -0.01135327 -0.01128869 -0.01124398 -0.01121829 -0.01121057
 -0.01121899 -0.01123559 -0.01125918 -0.01128198 -0.01130504 -0.01132649 -0.01134811 -0.01137275 -0.01139757 -0.0114227
 -0.01144017 -0.01144445 -0.01143297 -0.01140072 -0.01135866 -0.01130789 -0.01126216 -0.01122516 -0.01119853 -0.01118362
 -0.01117118 -0.01116068 -0.01114478 -0.01112359 -0.01110035 -0.01107606 -0.01106032 -0.0110527 -0.01105755 -0.01107161
 -0.01108881 -0.01110529 -0.01111076 -0.01110422 -0.01107936 -0.0110392 -0.01098292 -0.01091786 -0.01084694 -0.01078015
 -0.01072259 -0.01067931 -0.01065423 -0.01064149 -0.01064162 -0.01064224 -0.01064193 -0.01063207 -0.01061176 -0.01058277
 -0.01054554 -0.01051 -0.01047684 -0.01045658 -0.01044805 -0.0104529 -0.01046742 -0.0104824 -0.01049506 -0.01049495
 -0.01048369 -0.01045863 -0.01042349 -0.01038064 -0.01033304 -0.01028256 -0.01023313 -0.01018648 -0.01014645 -0.01011511
 -0.01009127 -0.01007558 -0.01006291 -0.01005262 -0.01004235 -0.01003178 -0.01002301 -0.01001617 -0.01001452 -0.01001805
 -0.01002893 -0.01004595 -0.01006628 -0.01008625 -0.01009462 -0.01008786 -0.01005172 -0.00999103 -0.009903464 -0.009802535
 -0.009699629 -0.009604576 -0.009528188 -0.009470037 -0.009433966 -0.009411518 -0.009402233 -0.00939319 -0.009381925 -0.009359101
 -0.0093224 -0.009275877 -0.009219238 -0.009170046 -0.009129141 -0.009112955 -0.009119933 -0.009146936 -0.009188425 -0.00921815
 -0.009232947 -0.009206695 -0.009148384 -0.009061453 -0.008958701 -0.008860856 -0.008769352 -0.008693765 -0.008629148 -0.008574252
 -0.008527732 -0.008488873 -0.008456488 -0.008431586 -0.008405698 -0.008377843 -0.008338454 -0.008285723 -0.008219264 -0.00813874
 -0.008050128 -0.007953789 -0.007856689 -0.007759344 -0.007669122 -0.007586158 -0.007515476 -0.007455868 -0.00740674 -0.007366389
 -0.007331421 -0.007300297 -0.00726968 -0.007238409 -0.007203537 -0.007166957 -0.00712862 -0.007091798 -0.007059726 -0.007026917
 -0.00699416 -0.006947577 -0.006883458 -0.006799347 -0.006692525 -0.006583779 -0.006474273 -0.006385032 -0.006316253 -0.006262538
 -0.006221473 -0.006169701 -0.006107124 -0.006019051 -0.005911181 -0.005792291 -0.00566748 -0.005553184 -0.005445523 -0.0053475
 -0.005250226 -0.005145221 -0.005029926 -0.004897291 -0.004757578 -0.004612554 -0.004474962 -0.004350855 -0.004238955 -0.004142636
 -0.004041811 -0.003935562 -0.003795838 -0.003619866 -0.003404226 -0.003149892 -0.002892063 -0.002631926 -0.00239695 -0.002181691
 -0.00197608 -0.001773576 -0.001548221 -0.001301114 -0.001019384 -0.0007137387 -0.0003926461 -6.749781E-05 0.0002455791 0.0005472265
 0.0008279152 0.001109339 0.001394344 0.00171855 0.002096807 0.002535552 0.003046341 0.003576434 0.004121486 0.00463116
 0.005099862 0.005533852 0.005933819 0.006324206 0.006704256 0.007075922 0.007438763 0.007788783 0.008132695 0.008488761
 0.008861875 0.009276494 0.009718199 0.01017924 0.01064052 0.01107548 0.01148966 0.01187628 0.01225236 0.01262556
 0.0130015 0.01338415 0.01377124 0.01415905 0.01456938 0.01499974 0.01551678 0.01612609 0.01686542 0.01773314
 0.01863064 0.0195511 0.02038474 0.02114577 0.02184479 0.02249804 0.02316176 0.02383742 0.02455352 0.0253088
 0.02610497 0.02696473 0.02789885 0.02896272 0.03019857 0.03163573 0.03332515 0.03516586 0.03715586 0.03911926
 0.04101255 0.04276404 0.04435206 0.04580894 0.0471338 0.04839111 0.04958535 0.05081604 0.0520923 0.05355201
 0.05517996 0.05699881 0.05894101 0.06079467 0.06255306 0.06407697 0.0654489 0.06673323 0.06798397 0.06928939
 0.07063986 0.07205805 0.07351503 0.07499945 0.07650372 0.07802817 0.07954505 0.08105184 0.0825067 0.08389925
 0.08524734 0.0865512 0.08784039 0.08911435 0.09031319 0.09143062 0.0923771 0.09316099 0.09377485 0.09423454
 0.0945891 0.09483806 0.0950055 0.09508161 0.09505432 0.09493922 0.09474263 0.09449312 0.0942122 0.09391798
 0.09362629 0.09333748 0.09305874 0.09276839 0.09246645 0.0921152 0.09171115 0.09121214 0.09061324 0.08990994
 0.08910328 0.08825769 0.08737541 0.08650612 0.08564251 0.08477211 0.08389092 0.08297627 0.08203749 0.08107991
 0.08012164 0.07919328 0.07830139 0.07746731 0.0766805 0.07593808 0.07523733 0.07457127 0.07395931 0.07340629
 0.07292689 0.07252868 0.07219689 0.07193115 0.07171231 0.07153808 0.07140971 0.07132736 0.07130336 0.07133761
 0.0714341 0.07159109 0.07180146 0.0720646 0.07237443 0.07273234 0.0731389 0.07359413 0.07409947 0.07465126
 0.07524651 0.07588188 0.07655279 0.07726218 0.07800868 0.07880171 0.079643 0.08054446 0.08150981 0.08254222
 0.08364536 0.08479577 0.0859931 0.08719391 0.08839609 0.08957116 0.09071832 0.09182431 0.09288108 0.09384117
 0.09469429 0.0953727 0.09589454 0.09625886 0.09650347 0.0966873 0.09682769 0.09697041 0.09710083 0.09722282
 0.09731955 0.09737881 0.09740893 0.09740478 0.0974004 0.09740162 0.09744018 0.09752864 0.09762013 0.09771382
 0.09773058 0.0976671 0.0975133 0.09727146 0.09696268 0.09658729 0.09615747 0.09567142 0.09513196 0.09453235
 0.09386763 0.09311098 0.09222332 0.09117523 0.08989716 0.08845121 0.08684971 0.08518309 0.08351756 0.08183419
 0.08013904 0.07841178 0.07663634 0.07487638 0.07313626 0.07148976 0.06994663 0.06850034 0.06715032 0.06584077
 0.06457096 0.06331253 0.06207146 0.06086539 0.05969913 0.05860097 0.05756427 0.05659226 0.05566714 0.05476471
 0.05386785 0.05294962 0.05200015 0.05100662 0.04995632 0.04883801 0.04765076 0.04637344 0.04509624 0.04382738
 0.04268964 0.04171503 0.04086674 0.04014796 0.03945637 0.03878721 0.03810148 0.0374026 0.03671816 0.03605111
 0.03543378 0.03486005 0.03432266 0.0338232 0.03335529 0.03293878 0.0326027 0.03235879 0.03223856 0.03222112
 0.03230313 0.0324586 0.03267138 0.03293379 0.03323856 0.03358912 0.03398191 0.03443828 0.03495643 0.03559233
 0.03635152 0.03726919 0.03834634 0.03947691 0.04064979 0.04169493 0.04261862 0.04336794 0.04395927 0.04442194
 0.04476139 0.04500109 0.04514797 0.0452138 0.04522897 0.04522045 0.04524214 0.04534859 0.04555238 0.04589703
 0.04628907 0.04670587 0.04707322 0.04735853 0.04758714 0.04775551 0.04791536 0.04807186 0.04824829 0.04844592
 0.0486518 0.04886479 0.04906613 0.04925795 0.04944155 0.04962255 0.0498209 0.05004021 0.05030112 0.05059769
 0.0509303 0.05129077 0.05166712 0.0520639 0.05247979 0.05292287 0.05339932 0.05390529 0.05444115 0.05500082
 0.05558024 0.05619143 0.05683428 0.05753133 0.05828623 0.05909122 0.05994585 0.06078982 0.0616198 0.06237622
 0.06306211 0.06366625 0.06419068 0.06463946 0.06500527 0.0652733 0.06543659 0.06547368 0.06539204 0.06518908
 0.06488092 0.06448151 0.06399348 0.06342517 0.06276262 0.06200047 0.06113718 0.06016377 0.05912477 0.05802049
 0.05692872 0.05585746 0.05485049 0.05391051 0.05302471 0.05219171 0.05138941 0.05061989 0.0498852 0.04918723
 0.04853679 0.0479272 0.04735045 0.04679439 0.04623542 0.04566699 0.0450705 0.04445102 0.04380378 0.04314397
 0.04247676 0.04181926 0.04117938 0.04056465 0.03998016 0.03941831 0.03887985 0.03834799 0.03782101 0.03728902
 0.03675136 0.03621854 0.03569228 0.03519811 0.03473696 0.03432754 0.03396833 0.03366355 0.03341187 0.03321286
 0.03306416 0.03296328 0.03290432 0.0328802 0.03288517 0.03291244 0.03295901 0.03302261 0.03309796 0.0331835
 0.03327201 0.03336104 0.03344866 0.03353433 0.03361733 0.0336984 0.03376467 0.03381547 0.03383007 0.03380841
 0.03374404 0.03364062 0.03351564 0.03337513 0.0332499 0.03314389 0.03308355 0.0330654 0.0330979 0.03316962
 0.03327182 0.03339208 0.03351804 0.03364145 0.03375508 0.03385351 0.03393359 0.03399106 0.03402395 0.03403198
 0.03401423 0.03397584 0.03391706 0.03384406 0.0337572 0.03365999 0.03355261 0.03343794 0.03331665 0.03319423
 0.03307126 0.03295346 0.03283954 0.03272985 0.03262164 0.03251001 0.0323945 0.03227143 0.03214496 0.03201631
 0.03189192 0.03177514 0.03167198 0.03158542 0.03151885 0.03147471 0.03144894 0.03144263 0.0314415 0.03144457
 0.03143634 0.0314158 0.03138084 0.03133247 0.0312848 0.03123945 0.03121411 0.03120794 0.03122781 0.03127061
 0.0313318 0.03140983 0.0314991 0.03160167 0.03171816 0.03184932 0.03199738 0.03215781 0.03232874 0.03250667
 0.03268836 0.03287873 0.03307821 0.03329263 0.0335243 0.03376727 0.03402187 0.03427367 0.03452185 0.0347563
 0.03497683 0.03517974 0.03536494 0.03552982 0.03567462 0.03579855 0.03590262 0.03598959 0.03605866 0.03611104
 0.03614211 0.03614676 0.03612185 0.0360613 0.03596979 0.03584712 0.03570192 0.03553838 0.03535815 0.0351632
 0.03494914 0.03471465 0.03446257 0.03419222 0.03391718 0.03363823 0.03336617 0.03310082 0.03284061 0.03258456
 0.03232525 0.03206284 0.03179386 0.03151968 0.03124152 0.03096168 0.03068423 0.03041201 0.03015018 0.02989997
 0.02966469 0.02944259 0.02923387 0.02903583 0.02884742 0.02866708 0.02849431 0.02832776 0.02816739 0.02801039
 0.02785666 0.02770183 0.02754563 0.02738518 0.02722084 0.02705765 0.02689732 0.02675395 0.02662854 0.02653337
 0.02646629 0.02642811 0.0264164 0.02642626 0.02645911 0.02651388 0.0265949 0.02670516 0.02684857 0.0270283
 0.02724621 0.02750463 0.02780041 0.02813425 0.02849736 0.02888839 0.02930052 0.02973256 0.0301849 0.03065754
 0.03114895 0.03165839 0.03217326 0.03269227 0.03319952 0.03369642 0.03417869 0.03465141 0.03512515 0.0356045
 0.03610409 0.03662136 0.03716151 0.03771343 0.03827049 0.0388208 0.03935494 0.0398686 0.04035757 0.04082221
 0.0412621 0.04167672 0.04206571 0.04243004 0.04276935 0.04308931 0.04339015 0.04368128 0.04396343 0.04425013
 0.04454251 0.04485581 0.04518953 0.04555059 0.04593603 0.04634111 0.04676457 0.04720121 0.04765302 0.04812097
 0.04860527 0.04910723 0.04962414 0.05015458 0.05069738 0.05125214 0.05181669 0.05239212 0.05296764 0.05354263
 0.05410118 0.05464137 0.05515355 0.05563679 0.05609473 0.05652818 0.05695277 0.0573695 0.0577943 0.05822461
 0.05865991 0.05909436 0.05951134 0.05990952 0.06027659 0.06061951 0.06094112 0.06125073 0.0615575 0.06186701
 0.06218606 0.06251349 0.06285208 0.06319232 0.06353249 0.06386323 0.06418109 0.06449124 0.06479298 0.06510212
 0.06541971 0.06575564 0.0661099 0.06648103 0.06686776 0.06726126 0.06765873 0.06804459 0.06841574 0.06875551
 0.06906362 0.06933185 0.06956108 0.06974944 0.06989709 0.0700023 0.07006925 0.07009878 0.07009846 0.07007223
 0.07002212 0.06994946 0.06985426 0.0697351 0.06960347 0.06945986 0.06932068 0.06918725 0.069063 0.06894786
 0.06883847 0.06873585 0.0686463 0.06857121 0.06852107 0.06849387 0.06849042 0.06850629 0.06853426 0.06856944
 0.0686038 0.06863109 0.06864344 0.0686361 0.06860306 0.06854572 0.06846206 0.06835923 0.06823816 0.06810778
 0.06797015 0.06782946 0.06768752 0.06753437 0.06736977 0.06717355 0.06694512 0.06667548 0.0663664 0.06602718
 0.06565963 0.06527605 0.06487738 0.06447133 0.06406069 0.06365505 0.06325381 0.06286352 0.06247228 0.06207322
 0.06165212 0.06119575 0.06070492 0.06017425 0.05961805 0.05903916 0.05844925 0.05785126 0.05724974 0.05664526
 0.0560431 0.05544347 0.05485656 0.05428288 0.05373182 0.05320267 0.05269474 0.05220585 0.05172595 0.05125424
 0.05078315 0.05031335 0.04984399 0.04937206 0.04889432 0.04840532 0.04789738 0.04737233 0.04682748 0.04627128
 0.04570739 0.04513877 0.04456731 0.04399206 0.04341191 0.04283421 0.04225939 0.04169711 0.04114841 0.04060876
 0.04007765 0.03954168 0.0390016 0.03845607 0.03790891 0.03737582 0.03686064 0.03638273 0.03594229 0.03555005
 0.0352012 0.03489529 0.03462328 0.03437829 0.03414883 0.03392684 0.03370121 0.03346448 0.03321368 0.03294431
 0.0326673 0.0323833 0.03210648 0.0318396 0.03158152 0.03133267 0.03108064 0.03082514 0.03056332 0.03029637
 0.03003348 0.02977489 0.02952638 0.0292873 0.02905805 0.02883972 0.02863494 0.02844383 0.02826876 0.02810609
 0.02795269 0.02780764 0.02766801 0.02753895 0.02742228 0.02732094 0.02723757 0.02716637 0.0271071 0.02705194
 0.02699953 0.02694858 0.02689871 0.0268548 0.02681707 0.02678995 0.026773 0.02676467 0.02676407 0.02676608
 0.02677061 0.02677542 0.02677926 0.02678031 0.02677315 0.02674935 0.02670592 0.02663289 0.02654289 0.02643742
 0.02634023 0.02626399 0.02621686 0.02620848 0.02621746 0.02624258 0.02625627 0.02625305 0.02623346 0.02619622
 0.02616943 0.02615433 0.02617291 0.02622361 0.02630219 0.02640626 0.02652179 0.02665 0.0267874 0.02693588
 0.02709834 0.02727393 0.0274627 0.02766366 0.02787694 0.02809836 0.02832837 0.02855267 0.02876553 0.02895489
 0.02911281 0.02924849 0.029361 0.02946922 0.02957674 0.02968344 0.02979003 0.02988235 0.02996005 0.03002161
 0.03006837 0.03011234 0.03015365 0.03019928 0.03024815 0.03029994 0.03035541 0.03041565 0.03048244 0.0305585
 0.03064577 0.03074668 0.03086369 0.03100028 0.03115379 0.0313265 0.03150494 0.03168652 0.03185605 0.03200869
 0.03214352 0.03225864 0.03236694 0.03246928 0.03257534 0.03268528 0.03279474 0.03290296 0.03300042 0.03308869
 0.0331691 0.03324617 0.03333469 0.03343653 0.03356494 0.03371342 0.0338803 0.03405376 0.03422134 0.03437603
 0.03450784 0.03461958 0.03470933 0.03478385 0.03484479 0.03489711 0.03494138 0.03498518 0.03502898 0.03508426
 0.03515224 0.0352346 0.03533109 0.03542746 0.03552368 0.0356117 0.03569595 0.03579399 0.03590954 0.03606651
 0.03625782 0.03648337 0.03672786 0.03696961 0.03719733 0.03739069 0.03754877 0.03766255 0.03774236 0.03778722
 0.03782 0.03784515 0.03789102 0.03796487 0.03808142 0.03824602 0.03844307 0.03867296 0.0388957 0.03910944
 0.0392833 0.03941956 0.03952681 0.03961081 0.03970582 0.03981194 0.03994879 0.0401099 0.04029083 0.04048687
 0.04069045 0.04089565 0.04109679 0.04128083 0.04143548 0.04155845 0.04163955 0.04170448 0.04175762 0.04182741
 0.04192406 0.04204354 0.0421886 0.04233409 0.04247792 0.04260797 0.04272391 0.0428323 0.04293378 0.04303765
 0.04314307 0.04325129 0.04335995 0.0434618 0.04355647 0.04363771 0.04371132 0.04378187 0.04385801 0.04395099
 0.04406369 0.04420305 0.04436409 0.04454836 0.04474268 0.04494599 0.04513491 0.04530473 0.04543635 0.0455247
 0.04557545 0.04558783 0.0455843 0.04556604 0.04555299 0.04554663 0.0455682 0.04562034 0.04572964 0.04589408
 0.04612464 0.04641022 0.04673461 0.04708363 0.04742995 0.04776346 0.04806248 0.04832699 0.04854685 0.04873746
 0.04890269 0.04905872 0.04921423 0.04936649 0.0495168 0.04965793 0.04978718 0.04991676 0.05004738 0.05019088
 0.05034765 0.05050975 0.05067722 0.05084697 0.05102123 0.05121301 0.05141847 0.05163452 0.05185081 0.05204058
 0.05220456 0.05232854 0.05242688 0.05251117 0.05258665 0.0526652 0.05273247 0.05278505 0.05280875 0.05279403
 0.05275184 0.05267797 0.05261325 0.05256188 0.0525638 0.0526247 0.05273531 0.05289474 0.05304854 0.05319534
 0.05329966 0.05336735 0.05341053 0.05343556 0.0534687 0.05351402 0.05359262 0.05370689 0.05387344 0.05408102
 0.05432537 0.05459241 0.05486325 0.05515543 0.05547164 0.05583294 0.05626607 0.05669173 0.05710244 0.05739861
 0.05755116 0.05762079 0.05760742 0.05761619 0.05765184 0.05774274 0.05788451 0.05803826 0.05819909 0.05831962
 0.05840252 0.05843052 0.05841115 0.05835133 0.05826005 0.05815317 0.0580387 0.05792949 0.0578345 0.05776278
 0.05772402 0.05772971 0.05776759 0.05784211 0.05791248 0.05796801 0.0579926 0.05797714 0.05796232 0.05795093
 0.05797624 0.05803955 0.05810969 0.05818366 0.05821478 0.0582066 0.05815466 0.05806469 0.05795487 0.05782477
 0.05768096 0.05752463 0.05735718 0.05718876 0.0570285 0.05689077 0.05678742 0.05673269 0.05674039 0.05680408
 0.0569316 0.05708168 0.05724739 0.05739144 0.05750481 0.05758732 0.05763764 0.05766645 0.05767435 0.05767538
 0.05767245 0.05770633 0.05777676 0.05790844 0.05808853 0.05828351 0.05848908 0.0586729 0.05885226 0.05904462
 0.05925199 0.05949193 0.05973524 0.05996273 0.06016245 0.06031443 0.06044986 0.06057454 0.06071739 0.0608901
 0.06108719 0.06131167 0.06153756 0.0617635 0.06195835 0.06212046 0.06223568 0.06230639 0.06235787 0.06239311
 0.06244542 0.06250811 0.0625755 0.06264053 0.06268036 0.06270168 0.062705 0.06269767 0.06268983 0.06268042
 0.06266974 0.06266318 0.06266443 0.06267402 0.06269798 0.0627117 0.06270915 0.062679 0.06261353 0.06255138
 0.06249508 0.06248127 0.0625119 0.06256346 0.06263252 0.06266705 0.06266942 0.06262325 0.06254112 0.06245767
 0.06238347 0.06236758 0.06239475 0.06247237 0.06255543 0.06259514 0.06256409 0.06241189 0.06217491 0.06185089
 0.06150455 0.06116261 0.06084917 0.06057933 0.06033533 0.06011739 0.05990216 0.0596874 0.05945713 0.05921037
 0.05894955 0.05867562 0.0584051 0.0581339 0.05784864 0.05753972 0.05715916 0.05671655 0.05620144 0.05564917
 0.05511579 0.05461724 0.05420157 0.05384592 0.05354499 0.0532876 0.05305738 0.0528839 0.05277459 0.05275212
 0.05283379 0.05297307 0.05317358 0.05332785 0.05342528 0.05340039 0.05324897</values></Ydata></AB><ScSm><Ydata ylabel="Single channel"><values byteorder="INTEL" format="FLOAT32" numvalues="1814"> 0.06677999 0.06678222 0.06684551 0.06699629 0.06720486 0.06740469 0.06754187 0.06760843 0.06762358 0.06759499
 0.06752823 0.06747217 0.06750931 0.06767602 0.06791003 0.06809086 0.06813528 0.06807092 0.06802186 0.06808698
 0.06820717 0.06818174 0.0678578 0.06730656 0.06677811 0.06647056 0.06640495 0.0665713 0.06705438 0.06780076
 0.06835102 0.06816572 0.06730439 0.06646381 0.06620462 0.06640835 0.06660292 0.06651199 0.06614247 0.06566657
 0.06546324 0.06602564 0.0674808 0.06917986 0.06992488 0.06872593 0.06550728 0.06133194 0.0580099 0.0571335
 0.05896176 0.06208399 0.0644745 0.06511152 0.06448054 0.06356069 0.06275898 0.06202441 0.06153803 0.06176433
 0.06281534 0.06400891 0.06421916 0.06284107 0.06050456 0.05862625 0.05811223 0.05878397 0.06013862 0.06191206
 0.06330802 0.06252961 0.05852813 0.05327309 0.05090795 0.05381806 0.06008738 0.06537268 0.0667789 0.06450728
 0.0606173 0.05730172 0.05605157 0.05725722 0.06013272 0.06336686 0.06592275 0.06710175 0.06636576 0.06379094
 0.06053204 0.05827557 0.05820452 0.06052328 0.06441081 0.06810005 0.06967907 0.06849763 0.0656019 0.06262688
 0.06071127 0.06049361 0.06228285 0.0657462 0.06987521 0.07356408 0.07606521 0.07707535 0.07680248 0.07583124
 0.07467446 0.07368144 0.07335214 0.07403979 0.07512939 0.07525475 0.07378057 0.07164632 0.07039991 0.07059491
 0.07134421 0.07140419 0.07043806 0.06883981 0.06651334 0.06281607 0.05802971 0.05379102 0.05146278 0.05107699
 0.05229149 0.05494158 0.05790946 0.05903133 0.05745545 0.05518527 0.0551042 0.05789519 0.06166764 0.06426502
 0.06526799 0.06586148 0.06730513 0.06964557 0.07155058 0.07131419 0.06853974 0.06510065 0.06382708 0.06573327
 0.06903633 0.07135063 0.07221165 0.07284764 0.07402445 0.07486032 0.07374565 0.07025568 0.06619172 0.06447648
 0.06661126 0.0711734 0.07484706 0.07488221 0.0709448 0.06519328 0.06059287 0.05886544 0.06001686 0.06345538
 0.06865851 0.0745847 0.07939058 0.08145787 0.08057701 0.0778688 0.07450288 0.07061224 0.0658879 0.06136113
 0.0596488 0.06248876 0.06852779 0.07444464 0.07791767 0.07879659 0.07783046 0.07525127 0.07096756 0.06591041
 0.06249253 0.06275469 0.06591853 0.06880528 0.06915969 0.06771633 0.06659086 0.06663418 0.06709567 0.06723298
 0.06737122 0.06833571 0.07026612 0.07228768 0.07335551 0.07321134 0.07243808 0.07177958 0.07146198 0.07102928
 0.0699773 0.06873886 0.0686495 0.07049543 0.07344535 0.07590383 0.07711527 0.07745992 0.07740545 0.07667997
 0.07466714 0.07156788 0.06889352 0.06835376 0.07020445 0.07307957 0.07541636 0.07658488 0.0767532 0.07632793
 0.07567416 0.07499159 0.07437243 0.07406233 0.07440425 0.07535361 0.07635902 0.07691856 0.07699636 0.07677456
 0.07629202 0.0755145 0.07459602 0.07389273 0.07370994 0.07407428 0.07476078 0.07549387 0.07605396 0.07625616
 0.07601508 0.07546987 0.07489692 0.07446012 0.07416169 0.07402229 0.07413357 0.07449099 0.07491516 0.0752081
 0.07531109 0.07527226 0.0751344 0.07490753 0.07461401 0.07432366 0.07414522 0.07416081 0.07433623 0.07453243
 0.07465528 0.07474676 0.07486692 0.0749504 0.07487783 0.07465324 0.07441671 0.07429233 0.07428902 0.07433906
 0.07436692 0.07429945 0.07406305 0.07364994 0.0732026 0.07295913 0.07305942 0.07343951 0.07392997 0.07438618
 0.07470813 0.07484251 0.07482567 0.07475583 0.07468005 0.07455593 0.07434444 0.07410359 0.07397254 0.07406406
 0.07436046 0.0747205 0.0749996 0.07514559 0.07518535 0.07518029 0.07520477 0.0752942 0.07538992 0.07539429
 0.07529734 0.07520026 0.07520124 0.07529111 0.07536936 0.07535258 0.07526583 0.07521746 0.07527912 0.07541592
 0.07554807 0.07564706 0.07574415 0.07586202 0.07596037 0.07596046 0.07583416 0.07565627 0.07553463 0.07549734
 0.07549387 0.07549845 0.0755496 0.07567298 0.07581665 0.07589698 0.07589005 0.07585105 0.07584008 0.07584772
 0.07581241 0.07570308 0.07555798 0.07543952 0.07537554 0.07535242 0.07534297 0.07532617 0.07528919 0.07522531
 0.07513411 0.07502116 0.07489581 0.07477625 0.07469933 0.07470729 0.0748004 0.07490651 0.07492387 0.07480951
 0.07461931 0.07445347 0.0743625 0.07430972 0.07422471 0.07408349 0.07392568 0.07380172 0.07372491 0.07367606
 0.07363252 0.07358538 0.07354908 0.07356511 0.07367263 0.07385299 0.07401813 0.07408181 0.07404086 0.07396912
 0.07393904 0.07396843 0.07403347 0.07410743 0.07418667 0.07429047 0.07442816 0.07456484 0.07464565 0.07466377
 0.07467663 0.0747454 0.0748852 0.07507561 0.07527951 0.07544428 0.07552847 0.07554962 0.0755774 0.07566214
 0.07579076 0.07592238 0.07604181 0.07616052 0.07628651 0.07641982 0.07657291 0.07677339 0.07703713 0.07734301
 0.07763676 0.07786583 0.07802362 0.07816465 0.07836609 0.07866442 0.07902701 0.0793824 0.07967725 0.07991295
 0.08013324 0.08037359 0.08062933 0.08088461 0.08115678 0.08148173 0.08185934 0.0822455 0.08260264 0.08293355
 0.08326182 0.08359943 0.08394183 0.08428653 0.08464828 0.08504701 0.08547302 0.0858748 0.08620104 0.08645391
 0.08668923 0.08696871 0.08731596 0.08769962 0.08804524 0.08829035 0.08845375 0.08863223 0.08889972 0.08922602
 0.08952662 0.08977824 0.09004287 0.09037616 0.09075235 0.09109882 0.09138075 0.09162882 0.09189041 0.09216928
 0.09241982 0.09259963 0.09272178 0.09284349 0.0930049 0.09320271 0.09343129 0.09371641 0.09407659 0.09447029
 0.09481819 0.09507384 0.09525031 0.09538838 0.09552352 0.09567451 0.09583962 0.09600507 0.0961651 0.0963204
 0.09645651 0.09655455 0.09663318 0.09674674 0.09692571 0.0971505 0.09739994 0.09768879 0.09802936 0.09838666
 0.09871388 0.09901956 0.09935543 0.09973212 0.1000856 0.1003463 0.1005104 0.1006203 0.1007079 0.1007971
 0.1009383 0.1011859 0.1015374 0.1019309 0.1023076 0.1026535 0.1029796 0.1032864 0.1035563 0.103769
 0.1039188 0.1040204 0.1041058 0.1042139 0.1043795 0.1046148 0.104892 0.1051545 0.1053536 0.1054682
 0.1054876 0.1054047 0.1052458 0.1050824 0.1049752 0.1049039 0.104776 0.1045078 0.1040783 0.1035081
 0.1028149 0.1020105 0.1011296 0.1002446 0.0994473 0.0988162 0.098401 0.09823288 0.09833499 0.09870327
 0.09927493 0.09993251 0.1005477 0.1010104 0.1012232 0.1011065 0.1006429 0.09990592 0.09902428 0.09811835
 0.0972633 0.09648169 0.09575199 0.09504914 0.09440826 0.09394874 0.09382555 0.0941605 0.09501277 0.09637558
 0.0981584 0.1001728 0.1021768 0.1039731 0.1054831 0.1067347 0.1077984 0.1087461 0.1096393 0.1105088
 0.1113362 0.1120806 0.1127312 0.1133171 0.113866 0.1143751 0.1148204 0.1151775 0.1154343 0.1156004
 0.1156999 0.1157492 0.1157515 0.1157199 0.1156854 0.1156643 0.1156259 0.1155026 0.1152295 0.1147767
 0.1141693 0.1135103 0.1129993 0.1129077 0.1134796 0.1147943 0.1166953 0.118864 0.1209754 0.1228088
 0.1242665 0.1253523 0.1261443 0.1267545 0.1272779 0.1277674 0.1282409 0.1286977 0.1291319 0.1295426
 0.1299393 0.1303362 0.130744 0.1311607 0.1315683 0.1319429 0.1322784 0.1325982 0.132939 0.1333203
 0.133726 0.1341207 0.1344878 0.1348473 0.1352212 0.1355911 0.1359152 0.136184 0.136436 0.1367181
 0.1370515 0.13743 0.1378236 0.1381871 0.1384879 0.138735 0.1389675 0.139217 0.1394863 0.1397635
 0.140042 0.1403238 0.140611 0.1409036 0.141205 0.1415156 0.1418168 0.1420773 0.1422871 0.1424755
 0.1426863 0.1429365 0.1432066 0.1434674 0.1437113 0.143961 0.1442454 0.1445655 0.1448856 0.145162
 0.1453809 0.1455673 0.1457603 0.1459817 0.1462272 0.1464807 0.146732 0.1469793 0.1472253 0.1474746
 0.1477294 0.1479861 0.1482375 0.1484817 0.1487232 0.1489674 0.1492149 0.149462 0.1497065 0.1499571
 0.1502301 0.1505288 0.1508284 0.1510943 0.1513152 0.1515087 0.1516978 0.1518938 0.152101 0.1523238
 0.1525647 0.1528192 0.1530761 0.1533239 0.1535584 0.1537862 0.1540172 0.1542555 0.1544968 0.1547358
 0.1549737 0.1552182 0.155475 0.1557401 0.1560014 0.1562492 0.156483 0.1567089 0.1569342 0.1571616
 0.1573877 0.1576068 0.157818 0.1580278 0.1582438 0.1584679 0.1586964 0.1589241 0.1591504 0.1593791
 0.1596107 0.1598368 0.1600501 0.1602574 0.1604741 0.1607044 0.160935 0.1611523 0.1613591 0.1615714
 0.1617994 0.1620376 0.162273 0.1625 0.1627232 0.1629494 0.1631792 0.163407 0.163626 0.1638367
 0.1640478 0.1642666 0.1644901 0.1647082 0.1649145 0.1651126 0.1653135 0.165528 0.1657583 0.165999
 0.1662447 0.1664922 0.1667356 0.1669687 0.1671922 0.167412 0.1676305 0.1678467 0.1680621 0.1682806
 0.1685071 0.168746 0.1689959 0.1692459 0.1694834 0.169704 0.1699106 0.1701074 0.1702985 0.1704853
 0.1706684 0.170854 0.1710511 0.1712606 0.1714761 0.1716941 0.1719146 0.1721373 0.1723631 0.172594
 0.1728262 0.173052 0.1732715 0.1734901 0.1737096 0.1739282 0.1741444 0.1743581 0.1745742 0.1748017
 0.1750402 0.1752753 0.175497 0.1757115 0.1759278 0.176148 0.1763715 0.1765971 0.1768222 0.1770493
 0.1772838 0.1775221 0.1777542 0.1779771 0.1781951 0.1784121 0.1786322 0.1788584 0.1790851 0.1793054
 0.1795212 0.1797359 0.1799486 0.1801617 0.1803796 0.1805981 0.1808124 0.1810267 0.1812444 0.181462
 0.1816831 0.1819147 0.1821496 0.1823748 0.1825925 0.1828122 0.183034 0.1832554 0.1834741 0.183673
 0.1838052 0.1837519 0.1832202 0.1816342 0.1781252 0.1717092 0.1616849 0.1480802 0.1317945 0.1142774
 0.09700006 0.08107958 0.06717066 0.05555302 0.04628266 0.03929077 0.03443598 0.03159038 0.03073717 0.03208063
 0.03617232 0.04359274 0.05369692 0.06347623 0.06870542 0.06727007 0.06118562 0.05475954 0.05100277 0.05015163
 0.05093206 0.05224225 0.05372905 0.05559266 0.05818059 0.06159546 0.06567425 0.07040575 0.07614118 0.08314991
 0.09107299 0.09906361 0.1065131 0.1135317 0.1206774 0.1282856 0.1361178 0.1435971 0.1502706 0.1560439
 0.1610979 0.1656804 0.1699626 0.1740216 0.1778923 0.181565 0.1849081 0.1876387 0.1894592 0.190281
 0.1903322 0.1900347 0.1897594 0.1896766 0.1897948 0.190076 0.1904947 0.1910365 0.1916862 0.1924229
 0.1932175 0.1940388 0.1948632 0.1956721 0.1964483 0.1971785 0.1978548 0.1984719 0.199032 0.1995445
 0.2000162 0.2004473 0.2008409 0.2012069 0.2015558 0.2018948 0.2022276 0.2025495 0.2028471 0.2031103
 0.2033424 0.2035565 0.2037661 0.2039782 0.2041901 0.2043951 0.2045957 0.2048036 0.2050246 0.2052501
 0.2054675 0.2056714 0.2058649 0.2060533 0.2062389 0.2064194 0.2065948 0.2067724 0.2069608 0.2071593
 0.2073599 0.2075596 0.2077614 0.207966 0.2081678 0.2083619 0.2085497 0.208737 0.2089263 0.2091138
 0.2093 0.2094974 0.2097178 0.2099553 0.2101926 0.2104207 0.2106394 0.2108484 0.2110513 0.2112575
 0.2114633 0.2116449 0.2117861 0.2119095 0.212063 0.2122737 0.2125211 0.2127617 0.2129731 0.213167
 0.213362 0.2135621 0.2137615 0.2139522 0.2141308 0.2143142 0.2145346 0.2148003 0.2150796 0.2153403
 0.2155802 0.2158096 0.2160349 0.2162646 0.2164983 0.2167079 0.2168636 0.2169854 0.2171469 0.2174174
 0.2177927 0.2181864 0.2185053 0.2187365 0.2189421 0.2191844 0.2194816 0.2197959 0.2200232 0.2200601
 0.2199534 0.2199279 0.2201851 0.2207065 0.2213054 0.2218227 0.2222231 0.222547 0.2228297 0.2230632
 0.2232042 0.2232235 0.223175 0.2232142 0.2234969 0.2240193 0.2246029 0.2250715 0.2253923 0.2256231
 0.2258136 0.2259876 0.2261029 0.2260059 0.2255952 0.2250945 0.2249888 0.2255551 0.2265488 0.2274635
 0.2280313 0.2283596 0.2286406 0.2289163 0.2291395 0.2292215 0.228914 0.2279424 0.2265297 0.2255576
 0.2258401 0.2273014 0.2291106 0.2305183 0.2313352 0.2317487 0.2319948 0.2322 0.2322889 0.2319916
 0.2311465 0.2301036 0.2296349 0.2302198 0.2315038 0.232678 0.2333069 0.2335562 0.2337538 0.234025
 0.234213 0.2338398 0.2323723 0.2299986 0.2280312 0.2279934 0.2301339 0.2331292 0.235394 0.2364513
 0.2368298 0.2369043 0.236344 0.2347174 0.232147 0.2292582 0.2269784 0.2264068 0.2280916 0.2311208
 0.2336373 0.23467 0.2349559 0.2357189 0.2372072 0.2386984 0.2394419 0.2392352 0.238294 0.2368501
 0.235046 0.233317 0.232614 0.2337355 0.2363675 0.2391922 0.2411057 0.2420577 0.2424846 0.242023
 0.2392422 0.2333552 0.226377 0.2225856 0.2247556 0.2312613 0.2378284 0.241747 0.243372 0.2441211
 0.2445562 0.244232 0.2419671 0.236485 0.228428 0.2216447 0.2206006 0.2259629 0.2338431 0.2394248
 0.2402484 0.2364825 0.2300672 0.2241367 0.2217419 0.2239999 0.2295991 0.2361 0.24141 0.2443583
 0.244672 0.2428614 0.2401938 0.2383935 0.2383922 0.2389532 0.237598 0.233726 0.2296046 0.2270516
 0.2246402 0.2203596 0.2160164 0.2160691 0.2218271 0.2292648 0.2335375 0.2338967 0.2328652 0.2316451
 0.2280853 0.2197906 0.2086475 0.2009518 0.2019048 0.2102135 0.2192371 0.223484 0.222983 0.2213748
 0.2210535 0.2207303 0.2172725 0.2097868 0.2017319 0.1980337 0.1998675 0.2036053 0.2051345 0.2031773
 0.1979126 0.1896284 0.1810124 0.1780301 0.1849172 0.1990007 0.2127704 0.2200659 0.2183743 0.2075122
 0.1904271 0.1749349 0.169948 0.1775365 0.1904352 0.1987193 0.1977054 0.1888472 0.1754775 0.1604624
 0.1474887 0.1415502 0.1459745 0.1590279 0.1739655 0.1824384 0.179125 0.1658199 0.1517176 0.1468151
 0.1528783 0.1622442 0.1664048 0.1637212 0.158277 0.1545535 0.1547987 0.1586817 0.1636869 0.1674519
 0.1696648 0.1695289 0.1632301 0.1485582 0.131179 0.1209476 0.1216609 0.1290941 0.1389061 0.1505199
 0.1619356 0.1670697 0.1626096 0.1543142 0.1521314 0.1596462 0.1709831 0.1779485 0.1781254 0.1753506
 0.1737687 0.1733793 0.1720961 0.170588 0.1724735 0.1793325 0.1879386 0.1938494 0.1960319 0.1964796
 0.1968189 0.1970688 0.1967877 0.1958187 0.1942272 0.1924128 0.1909795 0.1900566 0.1891793 0.1879774
 0.1861735 0.1825972 0.1754634 0.1649588 0.1548447 0.1495186 0.1494049 0.1512442 0.1528859 0.1545568
 0.1544527 0.1474465 0.1318332 0.1149131 0.1076958 0.114278 0.1287999 0.1421423 0.1489113 0.1479293
 0.1395368 0.1257924 0.1127168 0.1084315 0.1165469 0.1327114 0.1492887 0.1619196 0.1699743 0.1729359
 0.1697379 0.1614996 0.152561 0.1480081 0.150616 0.1596285 0.1709597 0.1781749 0.1756265 0.1641046
 0.1534428 0.1552661 0.1707162 0.1884775 0.1974865 0.1981705 0.19794 0.1996512 0.2001888 0.1986457
 0.1995995 0.2068461 0.2178015 0.2260328 0.2269144 0.2194654 0.2057126 0.1911032 0.1831123 0.1852956
 0.1932832 0.1995478 0.2007062 0.1971241 0.1884651 0.175495 0.1647958 0.1648425 0.1761863 0.1902534
 0.1990993 0.2026711 0.2052715 0.2081183 0.2078531 0.2016336 0.191875 0.1847662 0.1841513 0.1881656
 0.1924002 0.1945504 0.1944746 0.1915782 0.1851666 0.1773886 0.1732746 0.1763809 0.1851171 0.1942415
 0.1995656 0.2005939 0.1992736 0.1974852 0.1957825 0.1935717 0.1903794 0.1874725 0.1875996 0.1920249
 0.1984486 0.2033329 0.2059345 0.2085509 0.2129197 0.2178276 0.2205887 0.2199824 0.2174266 0.215758
 0.2169604 0.2205768 0.2240312 0.2248166 0.222879 0.2208944 0.2218045 0.2259967 0.2312346 0.2351858
 0.2373299 0.2384815 0.2394086 0.240168 0.2400798 0.2382514 0.2348572 0.2318982 0.2318088 0.2350586
 0.2397053 0.2433923 0.2452395 0.2457518 0.2455727 0.2448005 0.2433325 0.241462 0.2399 0.2392326
 0.2395053 0.2403575 0.2413976 0.2423748 0.2431619 0.2437372 0.2441537 0.2444639 0.2446993 0.2449059
 0.2451152 0.2452723 0.2452885 0.2452003 0.245192 0.2453992 0.2457442 0.246022 0.2460874 0.2458791
 0.2453247 0.2443596 0.2430449 0.2415494 0.239971 0.2382732 0.2364928 0.2349793 0.2343078 0.2348583
 0.2364665 0.2385145 0.2403615 0.2416802 0.2424634 0.2428516 0.2430102 0.2430845 0.2431621 0.2432514
 0.2433178 0.243343 0.2433374 0.2433081 0.2432477 0.2431645 0.2430997 0.2430934 0.2431386 0.2431812
 0.243161 0.2430477 0.242849 0.2425941 0.242304 0.2419668 0.2415419 0.2409955 0.2403313 0.2395923
 0.2388376 0.2381158 0.2374409 0.2367776 0.2360591 0.2352298 0.2342576 0.2331098 0.2317704 0.230309
 0.2288818 0.2276118 0.2264872 0.2254036 0.2242747 0.2230705 0.2217869 0.2204237 0.2189901 0.2175068
 0.215997 0.2144763 0.212947 0.211402 0.2098323 0.208228 0.2065774 0.2048734 0.203121 0.2013293
 0.1994868 0.1975368 0.1953761 0.1928834 0.1899559 0.1865287 0.1825912 0.1782107 0.173541 0.168783
 0.1641213 0.159687 0.1555687 0.1518487 0.1486192 0.1459592 0.1439064 0.1424649 0.141634 0.1414161
 0.1418055 0.1427779 0.1442771 0.1461987 0.1483965 0.1507133 0.1530057 0.1551594 0.157116 0.1588987
 0.1605906 0.1622624 0.1639121 0.1654765 0.1669009 0.1681795 0.1693238 0.1703223 0.1711573 0.1718415
 0.1724095 0.1728848 0.173275 0.1735894 0.173844 0.1740577 0.1742512 0.1744449 0.1746552 0.1748907
 0.1751544 0.1754529 0.1758096 0.1762582 0.176818 0.1774812 0.1782219 0.1790064 0.1798061 0.1806223
 0.1814901 0.1824468 0.183509 0.1846896 0.1860125 0.1874904 0.1890977 0.1907763 0.1924604 0.1940877
 0.1955936 0.1969129 0.1980057 0.1988811 0.1995816 0.2001418 0.2005762 0.2008966 0.2011201 0.2012596
 0.2013255 0.2013317 0.2012881 0.2011915 0.2010299 0.2007926 0.2004771 0.2000962 0.1996788 0.1992608
 0.1988705 0.1985152 0.1981767 0.1978311 0.1974784 0.1971392 0.1968205 0.1965042 0.1961702 0.1958136
 0.1954365 0.1950338 0.1945826 0.1940418 0.1933729 0.1925675 0.1916461 0.1906309 0.1895309 0.1883468
 0.1870815 0.1857431 0.1843392 0.18287 0.181335 0.1797399 0.1780809 0.1763307 0.1744736 0.1725602
 0.1706973 0.1689679 0.1673756 0.1658682 0.1644015 0.1629736 0.1616049 0.1602994 0.1590401 0.157815
 0.1566326 0.155511 0.1544635 0.1534925 0.1525898 0.1517519 0.1509962 0.1503464 0.1497995 0.149327
 0.1489064 0.1485344 0.1482213 0.1479891 0.1478569 0.147807 0.14778 0.1477175 0.1475977 0.1474314
 0.1472435 0.1470584 0.1468909 0.1467464 0.146622 0.146491 0.1462905 0.1459378 0.1453561 0.1444868
 0.143308 0.1418538 0.1402002 0.138438 0.1366718 0.1350226 0.1335954 0.1324427 0.131559 0.13089
 0.1303518 0.1298791 0.1294743 0.1292029 0.1291348 0.1292629 0.1294625 0.1295642 0.1295111 0.1294235
 0.129482 0.1297733 0.1302584 0.1308338 0.1313941 0.1318738 0.1322558 0.1325423 0.1327305 0.1328213
 0.1328219 0.1327325 0.1325531 0.1322978 0.1319884 0.1316459 0.1312855 0.1308956 0.1304341 0.1298715
 0.1292104 0.1284551 0.1276077 0.1266877 0.1257005 0.1246177 0.1234694 0.1224314 0.121748 0.1215709
 0.1218794 0.122509 0.1232628 0.1240361 0.1247872 0.1253706 0.1255721 0.1254527 0.1255306 0.1264012
 0.1281541 0.1302696 0.1320849 0.1332606 0.1337972 0.1337877 0.1332965 0.1323757 0.1310351 0.1292369
 0.1270099 0.1244888 0.1217988 0.1190303 0.1163361 0.113902 0.1118288 0.1101368 0.1088147 0.1078832
 0.1074465 0.1071748 0.105408 0.100012 0.09167074 0.08538969 0.08631268 0.09393759 0.1024321 0.1067905
 0.1068434 0.1052504 0.1038734 0.1030051 0.102543 0.1025983 0.1032757 0.1044353 0.1057103 0.1067352
 0.107382 0.1077031 0.1076534 0.1069084 0.1048392 0.1007126 0.09427248 0.08628055 0.07826515 0.0716189
 0.06696968 0.06420691 0.06278931 0.06206257 0.0615833 0.06131348 0.06151292 0.06243323 0.06410611 0.06639002
 0.06912124 0.07209772 0.074965 0.07734302 0.07913614 0.08055092 0.08175392 0.08266486 0.0831207 0.0830925
 0.08269283 0.08207448 0.08136411 0.0806281 0.07984515 0.07893053 0.07786173 0.07680799 0.07604998 0.0757113
 0.07564816 0.07564689 0.07562354 0.0755924 0.07556389 0.07553148 0.07549088 0.07546407 0.07553317 0.07578993
 0.07621378 0.07666568 0.07702154 0.07726007 0.07742663 0.07752955 0.07745346 0.07704888 0.07639468 0.07582124
 0.07548591 0.07508884 0.07427283 0.07318918 0.07239492 0.0722405 0.07256921 0.07297462 0.07316012 0.07305976
 0.07281052 0.07269792 0.07298154 0.07360519</values></Ydata></ScSm><ScRf><Ydata ylabel="Single channel"><values byteorder="INTEL" format="FLOAT32" numvalues="1820"> 0.06080581 0.06095924 0.06105264 0.06108499 0.0610797 0.06108289 0.061146 0.06129294 0.06149779 0.06169596
 0.06182853 0.06188323 0.06188464 0.06185116 0.06179164 0.06174535 0.06178052 0.06192741 0.06213102 0.0622859
 0.06231998 0.06225942 0.06221634 0.06227905 0.06239019 0.06236107 0.06204942 0.06152553 0.0610287 0.06074712
 0.06069845 0.06086731 0.06132673 0.06202563 0.06254172 0.06237983 0.06159364 0.06081966 0.06057072 0.06074248
 0.06090888 0.06081809 0.06047353 0.06003473 0.05985619 0.06039205 0.06174932 0.063318 0.06398786 0.06284801
 0.05984001 0.05596488 0.0529099 0.0521405 0.05386958 0.05677003 0.05897081 0.05954674 0.05896046 0.05811536
 0.0573807 0.05670667 0.05625967 0.05646609 0.05742668 0.05851009 0.05867771 0.05737908 0.05520983 0.0534845
 0.05303147 0.05367502 0.05494669 0.0565939 0.05786318 0.05709327 0.05335178 0.04850363 0.04638022 0.04914093
 0.05496992 0.05984556 0.06111247 0.05897937 0.05536773 0.05231594 0.05119531 0.05233959 0.05500095 0.05797251
 0.06031182 0.06137701 0.06067064 0.05827709 0.05528066 0.05323607 0.0532141 0.05538426 0.05898055 0.06237255
 0.06380677 0.06270048 0.06002729 0.05728944 0.05553164 0.05534686 0.05702345 0.06024807 0.06408007 0.06749195
 0.06979032 0.07069845 0.0704208 0.0695121 0.06845351 0.06756513 0.06729483 0.06794578 0.06893452 0.06901106
 0.06762028 0.06565034 0.06452329 0.06472825 0.06543165 0.06548718 0.06459278 0.06311172 0.06094532 0.05750176
 0.05306295 0.04915833 0.04703965 0.04672178 0.04788683 0.05037948 0.05314675 0.05417449 0.05269266 0.05058407
 0.05052212 0.05311906 0.05660831 0.05899747 0.05991465 0.06046857 0.06182361 0.06401011 0.06578014 0.06554952
 0.06296484 0.05978517 0.05863952 0.0604457 0.06352642 0.06567524 0.06648937 0.06712335 0.06827351 0.0690947
 0.06808244 0.06486156 0.06113373 0.05961584 0.06167055 0.06594257 0.06934461 0.06933999 0.06564952 0.06031068
 0.05609064 0.05457345 0.05574657 0.05906228 0.06404007 0.06969824 0.07430187 0.07633372 0.07559112 0.07311042
 0.06998171 0.0663389 0.06191497 0.05771179 0.05621487 0.05905176 0.06491156 0.0706323 0.07401848 0.07493815
 0.07410197 0.07171611 0.0676852 0.06292109 0.05977131 0.06019713 0.06340823 0.06630684 0.06672581 0.06540626
 0.06441139 0.06456024 0.06511533 0.06535861 0.06562258 0.06672213 0.06878413 0.07093456 0.072138 0.07213308
 0.07148677 0.07093751 0.07072321 0.07040101 0.06947802 0.06840181 0.06850986 0.07055932 0.07367858 0.07625926
 0.07756749 0.07801179 0.07806675 0.07744274 0.07550475 0.07246526 0.06987983 0.06949617 0.07156168 0.07466146
 0.07718731 0.07849957 0.07878703 0.07848208 0.07796107 0.07741959 0.07694378 0.07678315 0.0772886 0.07841023
 0.07957593 0.08026735 0.08045074 0.08031917 0.07991786 0.07921901 0.07839169 0.07780661 0.07776724 0.07828358
 0.07911743 0.07999379 0.08069634 0.08103059 0.08089422 0.08042502 0.0799216 0.07957267 0.0793874 0.07938003
 0.07963626 0.08014571 0.08071708 0.08113927 0.08134977 0.0814041 0.08135514 0.08121637 0.08100826 0.08080408
 0.08072376 0.0808517 0.08113673 0.0814245 0.08163466 0.08184069 0.08210917 0.08233859 0.08236451 0.0821822
 0.0819641 0.08187081 0.08192106 0.08203696 0.08213515 0.08213927 0.08196628 0.08159859 0.08118569 0.08098949
 0.08117335 0.08168422 0.08234777 0.08299464 0.08348627 0.0837405 0.08379236 0.08375598 0.0836914 0.08356433
 0.08334991 0.08312727 0.08305271 0.0832427 0.08366798 0.08416431 0.08456157 0.08479126 0.08488217 0.08491866
 0.08500763 0.08519721 0.08540037 0.08547455 0.08540154 0.08532099 0.08536287 0.08549958 0.08559139 0.08555157
 0.08544454 0.08541861 0.08555274 0.08578856 0.08601427 0.08618665 0.08635211 0.08655819 0.08676064 0.08683962
 0.0867305 0.08651798 0.08635374 0.08629531 0.08629049 0.08631139 0.08641362 0.08663075 0.08687899 0.08702791
 0.08704534 0.08702479 0.08706349 0.08714573 0.0871685 0.08706535 0.08687663 0.08670377 0.08662383 0.08664943
 0.08673826 0.086822 0.08684236 0.08678383 0.08667697 0.08656529 0.08647314 0.08641708 0.08643825 0.08658545
 0.08683892 0.08706972 0.08711827 0.08693583 0.08664092 0.08641963 0.08636145 0.08639202 0.08636305 0.08619668
 0.08593669 0.08568028 0.08548795 0.08535717 0.0852542 0.08515766 0.08508629 0.08509231 0.08520672 0.08537322
 0.0854591 0.085365 0.08512073 0.08485174 0.08466443 0.08458329 0.08457164 0.08457674 0.0845727 0.08458702
 0.08466084 0.08476594 0.08480652 0.08473125 0.08460259 0.08453265 0.08458884 0.08476631 0.08499351 0.08515251
 0.08515751 0.08504242 0.08493279 0.08491796 0.08498403 0.08507276 0.08515814 0.08524586 0.08533604 0.08542336
 0.08552535 0.08568157 0.0859139 0.08619432 0.08645599 0.08663889 0.08673686 0.0868109 0.08694987 0.08720148
 0.08753383 0.08786385 0.08812609 0.08831938 0.0884916 0.08868111 0.08888295 0.08908194 0.08929983 0.08957718
 0.08991262 0.09025538 0.09056298 0.09083946 0.09111178 0.09139314 0.09168154 0.09198473 0.09233478 0.09276012
 0.09322995 0.09364334 0.09390643 0.09402491 0.09410639 0.09427647 0.09459145 0.0949987 0.09536344 0.09557295
 0.09564969 0.09573482 0.09593235 0.09620355 0.09645136 0.0966713 0.09695805 0.09736955 0.09783805 0.09823303
 0.09848661 0.09864326 0.09879786 0.0989945 0.09918853 0.09931237 0.09936728 0.0994237 0.09953475 0.09969418
 0.09989501 0.1001767 0.1005689 0.1010198 0.1014271 0.101728 0.1019294 0.1020688 0.1021782 0.1022702
 0.1023341 0.1023598 0.1023748 0.1024261 0.1025141 0.1025845 0.1026072 0.1026271 0.1027101 0.1028755
 0.1031074 0.1033964 0.103726 0.1040459 0.1043143 0.1045638 0.1048706 0.105238 0.1055614 0.1057408
 0.1057927 0.1058083 0.105838 0.1058764 0.1059397 0.1060842 0.106336 0.1066557 0.1069894 0.1073223
 0.1076666 0.1080192 0.108345 0.1085898 0.1087126 0.1087203 0.1086781 0.1086806 0.1088007 0.1090521
 0.1093837 0.1097152 0.1099862 0.1101722 0.1102614 0.1102496 0.1101822 0.1101649 0.1102799 0.1104874
 0.1106447 0.1106275 0.11041 0.1100303 0.1095227 0.1089067 0.1082242 0.1075563 0.1069932 0.1065919
 0.1063699 0.1063405 0.1065383 0.1069806 0.10761 0.1083046 0.1089521 0.1094804 0.1098115 0.1098437
 0.1095243 0.1089193 0.1081769 0.1074323 0.1067558 0.1061523 0.1055792 0.1049984 0.1044567 0.104113
 0.1041602 0.104714 0.1057613 0.1071708 0.1087281 0.1102009 0.111433 0.1124045 0.113198 0.1139046
 0.1145694 0.1152164 0.1158777 0.1165641 0.1172275 0.1177998 0.1182685 0.118681 0.1190789 0.119459
 0.1197954 0.1200718 0.1202948 0.120496 0.120705 0.1209018 0.1210188 0.1210128 0.120916 0.1207927
 0.1206657 0.1205011 0.1202463 0.1198763 0.1194302 0.1190314 0.1188637 0.1190915 0.1197686 0.1208081
 0.1220483 0.123352 0.1246334 0.1258054 0.1267592 0.1274308 0.1278606 0.1281585 0.1284223 0.1287022
 0.1290106 0.1293363 0.1296559 0.1299526 0.1302295 0.1305068 0.1308088 0.1311438 0.1314866 0.1317906
 0.1320326 0.1322457 0.1325 0.1328427 0.1332521 0.133656 0.1340041 0.1343126 0.1346204 0.1349191
 0.1351615 0.1353349 0.1354886 0.1356865 0.1359615 0.1363102 0.1366935 0.1370425 0.1373021 0.1374811
 0.1376411 0.1378339 0.1380645 0.1383111 0.1385585 0.1388042 0.1390484 0.1392972 0.1395692 0.1398768
 0.1401941 0.1404626 0.1406481 0.1407823 0.1409314 0.1411293 0.1413538 0.1415645 0.1417526 0.1419539
 0.142213 0.1425321 0.1428567 0.1431196 0.1432962 0.1434168 0.1435327 0.1436794 0.1438655 0.1440793
 0.1442994 0.1445083 0.1447049 0.1449037 0.1451183 0.1453461 0.1455726 0.1457855 0.1459821 0.1461671
 0.1463507 0.1465457 0.1467631 0.147012 0.1472981 0.1476103 0.1479101 0.1481527 0.1483238 0.1484495
 0.1485689 0.1487067 0.1488684 0.1490489 0.1492415 0.1494429 0.1496522 0.1498654 0.1500755 0.1502775
 0.1504736 0.1506728 0.1508838 0.1511067 0.1513344 0.1515626 0.1517912 0.1520148 0.1522225 0.1524107
 0.1525909 0.1527806 0.1529899 0.1532135 0.1534311 0.1536214 0.1537831 0.1539386 0.1541123 0.1543092
 0.1545168 0.1547199 0.1549122 0.1550974 0.1552835 0.1554763 0.1556755 0.1558751 0.156069 0.1562591
 0.1564557 0.1566658 0.1568817 0.1570869 0.1572734 0.1574502 0.1576359 0.1578434 0.1580675 0.1582882
 0.1584909 0.1586801 0.1588692 0.1590619 0.1592526 0.1594386 0.1596265 0.159824 0.1600311 0.1602405
 0.1604465 0.1606488 0.1608484 0.1610451 0.1612438 0.161454 0.1616775 0.1619032 0.1621189 0.1623238
 0.1625279 0.1627403 0.1629605 0.16318 0.1633938 0.1636069 0.1638248 0.1640424 0.1642497 0.1644446
 0.1646323 0.164817 0.1649981 0.1651732 0.1653445 0.1655208 0.1657075 0.1658987 0.1660851 0.1662663
 0.1664473 0.1666289 0.1668119 0.1670024 0.1672045 0.1674137 0.1676226 0.167828 0.1680331 0.1682442
 0.1684617 0.1686757 0.1688783 0.1690764 0.1692822 0.1694978 0.1697175 0.1699364 0.17015 0.1703564
 0.170559 0.1707622 0.170965 0.1711664 0.1713685 0.1715714 0.171775 0.1719814 0.1721903 0.1723974
 0.1726033 0.1728131 0.1730248 0.173233 0.1734391 0.1736473 0.173858 0.1740729 0.1742951 0.1745199
 0.174738 0.1749472 0.1751515 0.1753578 0.1755753 0.1758027 0.1760233 0.1762275 0.1764272 0.1766357
 0.1768493 0.1770623 0.1772726 0.1774639 0.1775878 0.1775254 0.1769935 0.1754392 0.1720209 0.1657775
 0.1560237 0.1427928 0.1269707 0.10997 0.09321099 0.07776645 0.06427354 0.05301971 0.04407151 0.03735305
 0.03270143 0.02997153 0.02914895 0.03045509 0.03444784 0.04168666 0.05151246 0.06097403 0.06597625 0.06450809
 0.05856412 0.05232897 0.04870096 0.04788778 0.04865063 0.04992864 0.05138372 0.05320754 0.05573251 0.05905624
 0.06302455 0.06763417 0.07322718 0.0800554 0.08776028 0.09552096 0.1027573 0.1095852 0.1165464 0.1239573
 0.1315763 0.1388408 0.1453177 0.1509238 0.1558398 0.1603087 0.1644932 0.1684602 0.1722398 0.1758287
 0.179103 0.1817802 0.1835594 0.1843552 0.1844009 0.1841141 0.1838506 0.1837685 0.1838775 0.1841497
 0.1845667 0.1851121 0.1857667 0.1865063 0.1872971 0.1881073 0.1889218 0.189734 0.1905277 0.1912806
 0.1919767 0.1926089 0.193179 0.1936955 0.1941665 0.1945968 0.1949944 0.1953707 0.1957291 0.1960655
 0.1963809 0.1966847 0.1969846 0.1972784 0.1975544 0.1977996 0.1980142 0.1982153 0.1984198 0.1986287
 0.198834 0.1990331 0.199232 0.1994386 0.1996551 0.1998747 0.2000874 0.2002912 0.200491 0.2006868
 0.2008742 0.2010571 0.2012489 0.2014572 0.2016743 0.2018856 0.2020805 0.2022583 0.2024269 0.2025967
 0.2027746 0.2029627 0.2031599 0.2033621 0.203569 0.2037879 0.2040227 0.2042612 0.2044873 0.2047004
 0.2049093 0.2051152 0.2053174 0.2055222 0.2057314 0.2059281 0.2060932 0.2062327 0.206378 0.2065549
 0.2067596 0.2069688 0.2071693 0.2073693 0.207579 0.2077943 0.2080014 0.2081881 0.208356 0.2085311
 0.2087498 0.2090164 0.2092939 0.2095488 0.2097817 0.2100068 0.2102318 0.2104657 0.2107077 0.2109254
 0.21108 0.2111878 0.2113302 0.2115865 0.2119552 0.21235 0.2126801 0.2129273 0.2131365 0.213358
 0.2136183 0.2138989 0.2141074 0.2141399 0.2140366 0.214016 0.2142747 0.2147924 0.2153824 0.2158846
 0.2162613 0.2165524 0.2168004 0.2170087 0.2171402 0.2171619 0.2171174 0.2171541 0.2174238 0.2179253
 0.2184885 0.2189482 0.2192754 0.2195194 0.2197156 0.2198815 0.2199821 0.2198747 0.2194589 0.2189505
 0.21883 0.2193793 0.2203614 0.2212703 0.2218315 0.222147 0.222413 0.2226818 0.222908 0.2229954
 0.2226935 0.221738 0.2203544 0.2194057 0.219684 0.221117 0.2229006 0.2243052 0.2251387 0.2255737
 0.2258369 0.2260531 0.2261485 0.2258562 0.225017 0.2239798 0.2235159 0.2241133 0.2254297 0.2266547
 0.2273317 0.227603 0.2277908 0.2280335 0.2281934 0.2278081 0.2263535 0.2240196 0.2221048 0.2221025
 0.2242363 0.2271903 0.2294134 0.2304558 0.2308457 0.2309422 0.230405 0.2288078 0.2262855 0.2234712
 0.2212812 0.2207831 0.2224946 0.2255026 0.2279808 0.2289893 0.2292705 0.2300358 0.2315246 0.2330136
 0.2337504 0.2335366 0.2326041 0.2312016 0.2294715 0.2278292 0.2271932 0.2283337 0.2309352 0.2337112
 0.2355919 0.2365329 0.2369569 0.2365026 0.233769 0.2279969 0.2211808 0.2175256 0.2197389 0.2261994
 0.2326945 0.2365623 0.2381629 0.2389108 0.2393761 0.2391158 0.2369395 0.2315674 0.2236414 0.2169833
 0.216007 0.2213525 0.2291682 0.2347118 0.2355733 0.2319188 0.2256529 0.2198661 0.2175692 0.2198628
 0.2254535 0.2319364 0.2372411 0.2402051 0.2405598 0.2388142 0.2362235 0.2344901 0.2345282 0.235114
 0.2338187 0.2300774 0.2261255 0.2237163 0.2214096 0.2172339 0.2130106 0.2131596 0.2189593 0.2264116
 0.2307309 0.2311983 0.2303171 0.2292553 0.2258538 0.2177358 0.2068005 0.1993301 0.200496 0.208985
 0.2181685 0.2225967 0.2223349 0.221022 0.2210187 0.2209975 0.2178072 0.2105818 0.2028503 0.1995833
 0.2019113 0.2061152 0.2080367 0.2064013 0.2013788 0.1932464 0.1847678 0.182072 0.1895036 0.204322
 0.2188313 0.2267111 0.2253524 0.2145182 0.1972474 0.1816987 0.177186 0.1858441 0.2000328 0.2093538
 0.2089089 0.2002055 0.1867186 0.1714964 0.1585535 0.1533471 0.1595333 0.1752417 0.1930493 0.2036532
 0.201034 0.1871679 0.1724705 0.1683133 0.1766595 0.188677 0.1946052 0.1925977 0.1873826 0.1841895
 0.1857322 0.1916589 0.1989276 0.2046873 0.2085612 0.2094296 0.2023759 0.1845945 0.1632046 0.1505499
 0.1513872 0.1604783 0.1724562 0.186634 0.2005365 0.2066059 0.2007162 0.1899669 0.1866202 0.1950809
 0.2081329 0.2157672 0.2150904 0.2108408 0.208097 0.2068836 0.2046919 0.2023151 0.2040673 0.2118186
 0.2217254 0.228524 0.2310129 0.2315703 0.2321209 0.232674 0.2326962 0.2319998 0.2306574 0.2291269
 0.2281145 0.2277819 0.2275955 0.2271341 0.226062 0.2228957 0.2153294 0.2034723 0.1918986 0.1860195
 0.1863492 0.1888865 0.191072 0.1932776 0.1932435 0.1845185 0.1649776 0.1438101 0.134828 0.1431189
 0.1612601 0.1777821 0.185948 0.1843345 0.1734282 0.155845 0.1390423 0.1329509 0.1418714 0.1603535
 0.1790238 0.192652 0.2006955 0.2028018 0.1978529 0.1871855 0.1758521 0.1697169 0.1718998 0.1814247
 0.193529 0.2008628 0.197098 0.1832365 0.1703656 0.1714469 0.1877037 0.2065609 0.2157855 0.2158656
 0.2149765 0.2162736 0.2163644 0.2142815 0.2150378 0.2227754 0.2346918 0.2438099 0.245106 0.237489
 0.22314 0.2080044 0.2002453 0.2036694 0.2133351 0.2208653 0.22252 0.2187248 0.2091512 0.1947615
 0.1830065 0.1833511 0.1963175 0.2122511 0.2222897 0.2264395 0.2295441 0.232945 0.2328481 0.2260641
 0.2153273 0.2076108 0.2072403 0.2121215 0.2173072 0.220211 0.220656 0.2179368 0.2112538 0.2030611
 0.199097 0.2034088 0.2141438 0.2252406 0.2318155 0.2332186 0.2316531 0.2293143 0.2268968 0.2237365
 0.2192762 0.214987 0.2140893 0.2181093 0.2244645 0.229133 0.2312679 0.2334733 0.2377068 0.2425779
 0.2450382 0.2437059 0.2401773 0.2376328 0.2382867 0.2416351 0.2448322 0.2451145 0.2424244 0.2397078
 0.2401997 0.2443379 0.2497045 0.2537831 0.2560091 0.2572405 0.2582812 0.2591783 0.2591822 0.2573095
 0.2537396 0.2506299 0.2505862 0.254077 0.2589893 0.2628152 0.2646798 0.2651936 0.2650651 0.2643625
 0.2629231 0.2610274 0.2594234 0.2587335 0.2590052 0.2598588 0.2608835 0.261816 0.2625265 0.2630046
 0.2633194 0.2635267 0.2636471 0.2637234 0.2638001 0.2638381 0.263761 0.2636186 0.2636015 0.2638246
 0.2641711 0.2644161 0.2644348 0.2641994 0.2636461 0.2626929 0.261392 0.2599265 0.2584041 0.2567735
 0.2550637 0.2536598 0.2531965 0.2540762 0.256096 0.2585676 0.2607868 0.2623911 0.2633698 0.2638798
 0.2640992 0.2641682 0.2641657 0.2641093 0.263984 0.2637778 0.2634945 0.2631482 0.2627593 0.2623594
 0.2619899 0.2616785 0.2614104 0.2611322 0.2607924 0.2603746 0.2598966 0.2593878 0.2588636 0.2583064
 0.2576696 0.2569104 0.2560243 0.255052 0.2540687 0.2531566 0.2523553 0.2516269 0.2508891 0.2500833
 0.2491876 0.24818 0.2470494 0.2458624 0.2447662 0.2438772 0.2431819 0.2425636 0.2419033 0.241138
 0.2402576 0.2392878 0.2382704 0.2372316 0.2361655 0.2350518 0.2338756 0.2326269 0.2312951 0.229872
 0.2283563 0.2267591 0.2251124 0.2234541 0.2217818 0.220021 0.2180452 0.2157192 0.2129255 0.2095813
 0.2056657 0.2012447 0.1964689 0.1915382 0.1866485 0.1819583 0.177596 0.17368 0.1703142 0.1675666
 0.1654689 0.1640409 0.1633072 0.1632895 0.1639857 0.1653578 0.1673297 0.1697876 0.1725847 0.1755541
 0.1785283 0.1813595 0.1839521 0.1863028 0.1884916 0.1905955 0.1926086 0.1944628 0.1961076 0.1975417
 0.1987797 0.1998265 0.2006879 0.2013865 0.2019601 0.2024474 0.2028743 0.2032507 0.203578 0.2038563
 0.2040862 0.2042748 0.2044399 0.2046041 0.2047871 0.2050048 0.2052681 0.2055836 0.2059588 0.2064001
 0.2068989 0.2074325 0.2079867 0.2085688 0.2091908 0.2098556 0.2105735 0.2113822 0.2123317 0.2134458
 0.2147049 0.2160604 0.2174535 0.2188123 0.220046 0.2210681 0.2218306 0.2223334 0.2226061 0.2226872
 0.2226109 0.2224006 0.2220761 0.2216657 0.2211982 0.2206818 0.2201059 0.2194678 0.2187867 0.2180896
 0.217393 0.2167028 0.2160227 0.2153567 0.2147048 0.2140637 0.2134316 0.2128077 0.2121921 0.2115871
 0.2109962 0.210415 0.2098323 0.2092445 0.2086593 0.2080736 0.2074545 0.2067534 0.2059384 0.2050072
 0.2039726 0.2028449 0.2016305 0.2003375 0.1989755 0.19755 0.1960601 0.194501 0.1928651 0.1911396
 0.1893073 0.1873616 0.1853332 0.1832966 0.1813346 0.1794936 0.1777762 0.1761654 0.174644 0.1732029
 0.1718433 0.1705649 0.1693531 0.1681943 0.1670952 0.1660666 0.1650984 0.1641719 0.1632884 0.1624693
 0.1617351 0.1610949 0.1605442 0.160068 0.1596513 0.1592909 0.1590004 0.1588091 0.1587436 0.158791
 0.1588849 0.1589431 0.1589196 0.1588222 0.1586929 0.1585703 0.1584653 0.1583728 0.1582938 0.1582211
 0.1581032 0.1578418 0.1573257 0.1564708 0.1552528 0.1537177 0.1519561 0.150077 0.1482075 0.1464804
 0.1449935 0.1437976 0.1429093 0.1422966 0.1418609 0.1414939 0.1411637 0.1409306 0.1408823 0.1410419
 0.1413116 0.1415273 0.14161 0.1416459 0.1417986 0.142175 0.1427727 0.1435011 0.1442375 0.1448957
 0.1454403 0.1458474 0.1461039 0.146242 0.1463081 0.1463022 0.1461962 0.1459906 0.145716 0.1454058
 0.1450775 0.1447087 0.1442475 0.1436722 0.1430056 0.1422632 0.1414423 0.1405464 0.1395511 0.138401
 0.1371347 0.135973 0.1352115 0.1350444 0.1354784 0.1363404 0.1373863 0.138457 0.1394704 0.140252
 0.1405788 0.1405416 0.1407215 0.1417795 0.1438306 0.1463058 0.1484545 0.1498919 0.1506305 0.150764
 0.1503264 0.1493607 0.1479006 0.1459189 0.1434316 0.1405713 0.1374916 0.134342 0.1313375 0.1286753
 0.1264136 0.1245421 0.1230639 0.1220334 0.1215938 0.1213884 0.1195229 0.1135452 0.1042284 0.09727152
 0.09848998 0.1072611 0.1169613 0.1219596 0.122092 0.1203548 0.1188279 0.1178321 0.117262 0.1172673
 0.1179878 0.1192817 0.1207467 0.1219562 0.1227217 0.1230824 0.1230227 0.1222028 0.119874 0.1151543
 0.1077522 0.09856334 0.08934669 0.08169834 0.07634401 0.07316738 0.07156038 0.07077358 0.07027657 0.07000256
 0.07024604 0.07130045 0.07321167 0.07584244 0.07902125 0.08249784 0.08584766 0.08864984 0.09080271 0.09251487
 0.09395774 0.09505981 0.09565931 0.09572116 0.0953538 0.09470822 0.09392078 0.09308794 0.09220865 0.0911788
 0.08995534 0.08873683 0.08785773 0.08746295 0.08739157 0.08739799 0.08736765 0.08730788 0.08725589 0.08722876
 0.08720568 0.08717696 0.08722885 0.08749602 0.08798987 0.0885437 0.08895707 0.08915816 0.08921908 0.08920564
 0.0890131 0.08846169 0.08762573 0.08687291 0.08638456 0.08582624 0.08477816 0.08338383 0.08228189 0.08191907
 0.08215094 0.08250636 0.08263896 0.08249459 0.08224608 0.08218589 0.08253595 0.08318555 0.08368579 0.08365996
</values></Ydata></ScRf><Data_Parameters_AB><parameter name="DPF">1</parameter><parameter name="NPT">3497</parameter><parameter name="FXV">3996</parameter><parameter name="LXV">500</parameter><parameter name="CSF">1</parameter><parameter name="MXY">0.0977305769920349</parameter><parameter name="MNY">-0.0407327301800251</parameter><parameter name="DAT">02/06/2022</parameter><parameter name="TIM">13:56:12.898 (GMT+2)</parameter><parameter name="DXU">WN</parameter></Data_Parameters_AB><AB__Qtest><MainReport name="Quality Test Report"><Header><Line><Legend>Test result ok/not ok [1/0]: </Legend><Value>0</Value></Line><Line><Legend>Method file: </Legend><Value>C:\Users\Public\Documents\Bruker\OPUS_8.2.28\QT\IRBT_v3_default.QT</Value></Line></Header><Matrix><Line><Legend></Legend><Legend>min</Legend><Legend>max</Legend><Legend>measured</Legend></Line><Line><Value>Absorption (X-Range 1):</Value><Value>0.400000</Value><Value>2.000000</Value><Value>0.107141</Value></Line><Line><Value>Noise (X-Range 4):</Value><Value></Value><Value>0.000300</Value><Value>0.000041</Value></Line><Line><Value>Signal/Noise (X-Range 2):</Value><Value>200.000000</Value><Value></Value><Value>66.618811</Value></Line><Line><Value>Signal/Noise (X-Range 3):</Value><Value>40.000000</Value><Value></Value><Value>28.181679</Value></Line><Line><Value>Water vapour (X-Range 5):</Value><Value></Value><Value>0.000300</Value><Value>0.000084</Value></Line><Line><Value>Signal/Water (X-Range 2):</Value><Value>100.000000</Value><Value></Value><Value>32.610004</Value></Line><Line><Value>Signal/Water (X-Range 3):</Value><Value>20.000000</Value><Value></Value><Value>13.794972</Value></Line><Line><Value>Fringes (X-Range 6):</Value><Value></Value><Value>0.000100</Value><Value>0.000055</Value></Line></Matrix></MainReport></AB__Qtest><Data_Parameters_ScSm><parameter name="DPF">1</parameter><parameter name="NPT">1814</parameter><parameter name="FXV">3996.33169228125</parameter><parameter name="LXV">499.541461535156</parameter><parameter name="CSF">1</parameter><parameter name="MXY">0.246087402105331</parameter><parameter name="MNY">0.0307371653616428</parameter><parameter name="DAT">02/06/2022</parameter><parameter name="TIM">13:56:12.898 (GMT+2)</parameter><parameter name="DXU">WN</parameter></Data_Parameters_ScSm><Data_Parameters_ScRf><parameter name="DPF">1</parameter><parameter name="NPT">1820</parameter><parameter name="FXV">4004.04661832813</parameter><parameter name="LXV">495.683998511719</parameter><parameter name="CSF">1</parameter><parameter name="MXY">0.265193551778793</parameter><parameter name="MNY">0.0291489511728287</parameter><parameter name="DAT">02/06/2022</parameter><parameter name="TIM">13:55:46.220 (GMT+2)</parameter><parameter name="DXU">WN</parameter></Data_Parameters_ScRf><Optic_Parameters_Rf><parameter name="APR">0</parameter><parameter name="APT">Open</parameter><parameter name="BMS">KBr</parameter><parameter name="DTC">RT-DLaTGS_IR-Biotyper [Microplate reader]</parameter><parameter name="HPF">0</parameter><parameter name="LPF">10.0</parameter><parameter name="LPV">4000</parameter><parameter name="PGR">0</parameter><parameter name="RCH">Module port</parameter><parameter name="RDX">0</parameter><parameter name="SRC">MIR</parameter><parameter name="VEL">10.0</parameter><parameter name="SON">Off</parameter></Optic_Parameters_Rf><Acquisition_Parameters_Rf><parameter name="ADT">1</parameter><parameter name="AQM">DD</parameter><parameter name="CFE">0</parameter><parameter name="COR">0</parameter><parameter name="DEL">0</parameter><parameter name="DLY">0</parameter><parameter name="HFW">8000</parameter><parameter name="LFW">0</parameter><parameter name="NSR">32</parameter><parameter name="PLF">AB</parameter><parameter name="RES">6</parameter><parameter name="RGN">-1</parameter><parameter name="STR">0</parameter><parameter name="TCL">MakeCompatibleScalar (0, {WSV=1.000000, ARV=0});</parameter><parameter name="TDL">37</parameter><parameter name="RPO">0</parameter></Acquisition_Parameters_Rf><FT_-_Parameters_Rf><parameter name="APF">B3</parameter><parameter name="HFQ">500</parameter><parameter name="LFQ">4000</parameter><parameter name="NLI">0</parameter><parameter name="PHR">24</parameter><parameter name="PHZ">ML</parameter><parameter name="SPZ">NO</parameter><parameter name="ZFF">1</parameter></FT_-_Parameters_Rf><Optic_Parameters_><parameter name="APR">0</parameter><parameter name="APT">Open</parameter><parameter name="BMS">KBr</parameter><parameter name="CHN">Module port</parameter><parameter name="DTC">RT-DLaTGS_IR-Biotyper [Microplate reader]</parameter><parameter name="HPF">0</parameter><parameter name="LPF">10.0</parameter><parameter name="LPV">4000</parameter><parameter name="PGN">0</parameter><parameter name="RDX">0</parameter><parameter name="SRC">MIR</parameter><parameter name="VEL">10.0</parameter><parameter name="SON">Off</parameter></Optic_Parameters_><FT_-_Parameters_><parameter name="APF">B3</parameter><parameter name="HFQ">500</parameter><parameter name="LFQ">4000</parameter><parameter name="NLI">0</parameter><parameter name="PHR">24</parameter><parameter name="PHZ">ML</parameter><parameter name="SPZ">NO</parameter><parameter name="ZFF">1</parameter></FT_-_Parameters_><Acquisition_Parameters_><parameter name="ADT">1</parameter><parameter name="AQM">DD</parameter><parameter name="CFE">0</parameter><parameter name="COR">0</parameter><parameter name="DEL">0</parameter><parameter name="DLY">0</parameter><parameter name="HFW">8000</parameter><parameter name="LFW">0</parameter><parameter name="NSS">32</parameter><parameter name="PLF">AB</parameter><parameter name="RES">6</parameter><parameter name="SOT">0</parameter><parameter name="TCL">MakeCompatibleScalar (0, {WSV=1.000000, ARV=0});</parameter><parameter name="TDL">37</parameter><parameter name="SPO">0</parameter><parameter name="SGN">-1</parameter></Acquisition_Parameters_><Instrument_Parameters_Rf><parameter name="HFL">15800.168544</parameter><parameter name="LFL">0</parameter><parameter name="LWN">15800.168544</parameter><parameter name="ABP">32197</parameter><parameter name="SSP">1</parameter><parameter name="ARG">2</parameter><parameter name="ASG">2</parameter><parameter name="ASS">32</parameter><parameter name="GFW">16</parameter><parameter name="GBW">16</parameter><parameter name="BFW">0</parameter><parameter name="BBW">0</parameter><parameter name="PKA">7271</parameter><parameter name="PKL">4996</parameter><parameter name="PRA">7458</parameter><parameter name="PRL">5001</parameter><parameter name="P2A">1</parameter><parameter name="P2L">1</parameter><parameter name="P2R">1</parameter><parameter name="P2K">1</parameter><parameter name="DAQ">0</parameter><parameter name="AG2">1</parameter><parameter name="SSM">1</parameter><parameter name="RSN">26273</parameter><parameter name="CRR">0</parameter><parameter name="SRT">1654178146.221</parameter><parameter name="DUR">19.6379852294922</parameter><parameter name="TSC">29.2</parameter><parameter name="MVD">0.276323467493057</parameter><parameter name="AN1">0.22585137501609</parameter><parameter name="AN2">0</parameter><parameter name="VSN">2.485 Apr  4 2017</parameter><parameter name="SRN">0085</parameter><parameter name="CAM">0</parameter><parameter name="INS">IR-Biotyper</parameter><parameter name="FOC">69</parameter><parameter name="RDY">1</parameter><parameter name="ARS">32</parameter></Instrument_Parameters_Rf><Sample_Parameters_><parameter name="BLD"></parameter><parameter name="CNM">Admin</parameter><parameter name="CPY"></parameter><parameter name="DPM"></parameter><parameter name="EXP">IRBT_v3_32Scans.XPM</parameter><parameter name="LCT"></parameter><parameter name="SFM">Microplate, HTS-XT</parameter><parameter name="SNM">220602-1248_JCG30M (D_2)_B11_f59d02d1-3021-4877-bc0c-9040fe418692.0</parameter><parameter name="XPP">C:\Users\Public\Documents\Bruker\OPUS_8.2.28\XPM</parameter><parameter name="IST">OK</parameter><parameter name="CPG">1252</parameter><parameter name="UID">9dc06532-f34c-46d3-bd78-5727d338658f</parameter></Sample_Parameters_><Instrument_Parameters_><parameter name="HFL">15800.168544</parameter><parameter name="LFL">0</parameter><parameter name="LWN">15800.168544</parameter><parameter name="ABP">32197</parameter><parameter name="SSP">1</parameter><parameter name="ASG">2</parameter><parameter name="ARG">2</parameter><parameter name="ASS">32</parameter><parameter name="GFW">16</parameter><parameter name="GBW">16</parameter><parameter name="BFW">0</parameter><parameter name="BBW">0</parameter><parameter name="PKA">6994</parameter><parameter name="PKL">4988</parameter><parameter name="PRA">7290</parameter><parameter name="PRL">4993</parameter><parameter name="P2A">1</parameter><parameter name="P2L">1</parameter><parameter name="P2R">1</parameter><parameter name="P2K">1</parameter><parameter name="DAQ">0</parameter><parameter name="AG2">1</parameter><parameter name="SSM">1</parameter><parameter name="RSN">13762</parameter><parameter name="CRR">0</parameter><parameter name="SRT">1654178172.898</parameter><parameter name="DUR">19.6379852294922</parameter><parameter name="TSC">29.2</parameter><parameter name="MVD">0.515549302101135</parameter><parameter name="AN1">0.225829075286966</parameter><parameter name="AN2">0</parameter><parameter name="VSN">2.485 Apr  4 2017</parameter><parameter name="SRN">0085</parameter><parameter name="CAM">0</parameter><parameter name="INS">IR-Biotyper</parameter><parameter name="FOC">69</parameter><parameter name="RDY">1</parameter></Instrument_Parameters_><History/></OPUSDataFile>
