<?xml version="1.0" encoding="UTF-8" ?>
<OPUSDataFile><AB><Ydata ylabel="Absorbance Units"><values byteorder="INTEL" format="FLOAT32" numvalues="3497"> -0.03232927 -0.03237046 -0.03238809 -0.03238141 -0.0323614 -0.03232861 -0.03229257 -0.03225333 -0.03221329 -0.03217285
 -0.03213497 -0.03210149 -0.03208055 -0.03207336 -0.03208778 -0.03212148 -0.03217592 -0.03224396 -0.03231981 -0.03239322
 -0.03245458 -0.03249733 -0.03251306 -0.0325086 -0.03248212 -0.03245151 -0.0324208 -0.03240241 -0.03240043 -0.03240901
 -0.03242871 -0.03244275 -0.03245024 -0.032441 -0.03241573 -0.0323803 -0.03233702 -0.03230253 -0.03227769 -0.03227568
 -0.03229291 -0.03232902 -0.03237652 -0.03242342 -0.03246377 -0.03248456 -0.03248824 -0.03247076 -0.03244155 -0.03240462
 -0.03236666 -0.03233217 -0.03229912 -0.03226786 -0.03223544 -0.03220033 -0.03216944 -0.03214287 -0.03213285 -0.03214007
 -0.03216574 -0.03220884 -0.03225539 -0.03230486 -0.03234588 -0.03238136 -0.03241625 -0.03245234 -0.03249766 -0.03254931
 -0.03260588 -0.03266509 -0.03272352 -0.03278072 -0.03283845 -0.03288573 -0.03292013 -0.03292207 -0.03288013 -0.03279818
 -0.03266859 -0.03253434 -0.03239926 -0.0323108 -0.03227502 -0.03230866 -0.03241308 -0.03257165 -0.0327813 -0.03299896
 -0.03321766 -0.03337176 -0.03345945 -0.03342959 -0.0333061 -0.03311484 -0.03289267 -0.03271783 -0.03259751 -0.03257881
 -0.03263152 -0.0327535 -0.03289585 -0.03303156 -0.03312771 -0.03315859 -0.03314195 -0.03307217 -0.03299854 -0.03292963
 -0.03288978 -0.03288471 -0.03289307 -0.03291399 -0.03291854 -0.03290766 -0.03288947 -0.03286825 -0.03287698 -0.03291412
 -0.03299497 -0.03310755 -0.03323177 -0.03335432 -0.03343998 -0.03349248 -0.03349872 -0.03347695 -0.03343975 -0.03339361
 -0.03334577 -0.03329707 -0.03324378 -0.03321091 -0.03320091 -0.03325065 -0.03336979 -0.03355998 -0.03382795 -0.03409806
 -0.03436695 -0.03448112 -0.03444044 -0.03420734 -0.03380986 -0.03341862 -0.03303959 -0.03278922 -0.0326458 -0.03261341
 -0.03267237 -0.03279543 -0.0329589 -0.03312865 -0.0332768 -0.03336586 -0.0333931 -0.03333677 -0.03324011 -0.03311308
 -0.03299635 -0.03290785 -0.03283957 -0.03279404 -0.03275 -0.03270378 -0.03266417 -0.03263137 -0.03262768 -0.03265272
 -0.03270416 -0.03277805 -0.03284679 -0.03290889 -0.0329432 -0.0329528 -0.03293556 -0.03289279 -0.03282415 -0.03273471
 -0.03262617 -0.03251532 -0.032416 -0.03234123 -0.0323049 -0.03230258 -0.0323371 -0.03239642 -0.03247781 -0.03257387
 -0.032684 -0.03279693 -0.03291324 -0.03300148 -0.03305988 -0.03305621 -0.03299095 -0.0328682 -0.03269258 -0.03249636
 -0.03228318 -0.03208327 -0.03189898 -0.03175149 -0.03164106 -0.03158027 -0.03156095 -0.03158187 -0.03162461 -0.031675
 -0.03171518 -0.03172915 -0.03171462 -0.03166363 -0.03159294 -0.03150291 -0.03142089 -0.03135145 -0.03131467 -0.03131424
 -0.03134897 -0.03141925 -0.03150745 -0.03161233 -0.03171137 -0.0318037 -0.03187104 -0.03191587 -0.03193613 -0.03193889
 -0.03194116 -0.03194815 -0.03197895 -0.03202939 -0.03210365 -0.0321915 -0.03228391 -0.03237952 -0.03247327 -0.03257277
 -0.03268331 -0.032796 -0.03291386 -0.03300474 -0.03306237 -0.0330723 -0.03303054 -0.03295336 -0.03284181 -0.03269
 -0.03249782 -0.03225708 -0.03197561 -0.03170513 -0.03145241 -0.0312782 -0.03116944 -0.03112767 -0.03112728 -0.03112022
 -0.03109807 -0.03102018 -0.03092018 -0.03081261 -0.03072688 -0.03069269 -0.03069496 -0.03073861 -0.03078977 -0.03084053
 -0.03086552 -0.03085735 -0.0308135 -0.03073117 -0.03063161 -0.03051572 -0.03041479 -0.03033014 -0.03028693 -0.03028287
 -0.03031853 -0.03038299 -0.03043444 -0.03046054 -0.03039774 -0.03026516 -0.0300601 -0.02982431 -0.02961695 -0.02944236
 -0.02933354 -0.02925476 -0.02919607 -0.02912102 -0.02900712 -0.02885582 -0.02865746 -0.02844988 -0.02823838 -0.0280518
 -0.02789657 -0.02775965 -0.02764136 -0.02749206 -0.02731023 -0.02706417 -0.02676215 -0.02644935 -0.02613463 -0.02588337
 -0.02568662 -0.0255543 -0.02547371 -0.02542734 -0.02540387 -0.02538735 -0.02535499 -0.02528425 -0.02515181 -0.0249299
 -0.02463481 -0.02426211 -0.02384869 -0.02340785 -0.02294289 -0.02245624 -0.02194708 -0.02141358 -0.02087968 -0.02034696
 -0.01982827 -0.01932356 -0.01882754 -0.0183414 -0.01787127 -0.01742009 -0.0170054 -0.01662453 -0.01628075 -0.01596666
 -0.015671 -0.0153862 -0.015104 -0.01480182 -0.01446283 -0.01405226 -0.01353158 -0.01292771 -0.01222828 -0.01152265
 -0.01083914 -0.01020948 -0.009649951 -0.009129903 -0.008648262 -0.00817188 -0.007698037 -0.007219555 -0.006737339 -0.006274455
 -0.005831815 -0.005433332 -0.005066983 -0.004702071 -0.004311427 -0.003794197 -0.003160013 -0.002356652 -0.001465287 -0.0005763987
 0.0002676747 0.0009793537 0.001603228 0.002136948 0.002641315 0.003146373 0.00367077 0.004232988 0.004799095 0.005365989
 0.005902017 0.006399181 0.006880822 0.007346807 0.007862105 0.008428792 0.009083811 0.009819716 0.01059655 0.01140468
 0.01217847 0.01292164 0.01360957 0.01425306 0.01486085 0.01544172 0.01600968 0.01657277 0.01714447 0.01772416
 0.01831821 0.01891322 0.01950194 0.02008725 0.02066282 0.02126345 0.02189682 0.02257563 0.02330818 0.0240341
 0.02475027 0.02539051 0.02595426 0.02644891 0.02688059 0.02730127 0.02771352 0.02815811 0.02862851 0.02913005
 0.02964952 0.03016305 0.03066489 0.03113116 0.03158017 0.03201392 0.03246927 0.03297362 0.03353792 0.03418476
 0.03486743 0.03558011 0.03626891 0.03691918 0.03751999 0.03806629 0.03857699 0.03905271 0.03952021 0.03998079
 0.04045702 0.04094885 0.04146632 0.04200805 0.04257366 0.0431613 0.0437674 0.04438665 0.0450093 0.04562582
 0.04621872 0.04678417 0.04730943 0.04780418 0.04826984 0.04871856 0.04915754 0.04958765 0.05001183 0.05042206
 0.05081625 0.05119456 0.05155486 0.05191771 0.05228397 0.05268338 0.05311678 0.05359485 0.05411433 0.05465383
 0.05520864 0.0557453 0.05626431 0.05674834 0.05720378 0.05763443 0.05804705 0.05845406 0.05885448 0.05925429
 0.0596429 0.06001431 0.06036387 0.06068259 0.06099169 0.06129213 0.06161883 0.06198092 0.06238809 0.06284562
 0.06332607 0.06382828 0.06431711 0.06479138 0.06523737 0.06565664 0.06605678 0.0664389 0.06681275 0.0671764
 0.06752899 0.06786913 0.06819152 0.06850145 0.06880247 0.06910339 0.06941491 0.06973916 0.07008186 0.07043853
 0.07080877 0.07118794 0.07157675 0.07196135 0.07234158 0.07269043 0.07300345 0.07327109 0.07349065 0.07370068
 0.07390377 0.07416007 0.07446848 0.07484915 0.07529033 0.07574985 0.07621472 0.07662138 0.07697282 0.07723905
 0.0774434 0.07760398 0.07774485 0.0778999 0.0780691 0.07826582 0.07847261 0.07868217 0.07889173 0.07909559
 0.079311 0.07954074 0.07979666 0.08008202 0.08038999 0.0807207 0.08105838 0.0814022 0.08173726 0.08206383
 0.08237679 0.08267921 0.08298304 0.08329037 0.0836167 0.083955 0.08430094 0.08464147 0.08495466 0.0852374
 0.08547533 0.0856805 0.08585598 0.08601435 0.08616374 0.0863049 0.08643986 0.08656613 0.08668161 0.08679651
 0.08691081 0.08704318 0.08719533 0.08737367 0.0875781 0.08779678 0.08802908 0.08826409 0.08850307 0.08874793
 0.0889971 0.0892493 0.08949665 0.08972128 0.0899205 0.09007715 0.09020859 0.09032112 0.09044388 0.09060159
 0.09080166 0.09106207 0.09134838 0.09165768 0.09194156 0.09218638 0.09237972 0.09251446 0.09262367 0.09270923
 0.0928019 0.09290231 0.09299751 0.09308483 0.09313133 0.09314058 0.09310985 0.09305067 0.0929969 0.09295638
 0.09296404 0.09301526 0.09312092 0.09326658 0.09344271 0.09363546 0.0938305 0.09402711 0.09421787 0.09441946
 0.09463537 0.09488036 0.09516273 0.09546292 0.09578358 0.09606773 0.09631123 0.09646711 0.09653408 0.09652483
 0.09644498 0.09635486 0.09625629 0.09619211 0.09615451 0.09613881 0.09614396 0.0961602 0.09620322 0.09629431
 0.09643817 0.09665813 0.09691961 0.09721135 0.09748667 0.09771446 0.09789127 0.0980017 0.09808917 0.09815909
 0.09825325 0.09838068 0.09854362 0.09874457 0.09894886 0.09915453 0.09931694 0.09943607 0.09949137 0.09949046
 0.09945785 0.09940585 0.09938734 0.09940558 0.0994982 0.09964925 0.09985629 0.1000904 0.1003217 0.1005293
 0.1006847 0.1007954 0.1008522 0.1008891 0.1009136 0.100959 0.1010351 0.1011529 0.1013158 0.1015211
 0.1017684 0.1020604 0.1023971 0.1027817 0.1032117 0.1036668 0.1041383 0.1045717 0.104957 0.1052298
 0.1053962 0.1054277 0.1053598 0.1052258 0.105075 0.1049751 0.1049419 0.1050215 0.1051641 0.105368
 0.1055492 0.1056779 0.1057066 0.1056115 0.1054204 0.1051286 0.1048111 0.1044735 0.1041743 0.1039159
 0.1037035 0.1035348 0.1033857 0.1032567 0.1031379 0.1030339 0.1029574 0.1029074 0.1028928 0.1028983
 0.1029099 0.1029018 0.1028436 0.1027144 0.1024862 0.1021615 0.1017273 0.1012191 0.10064 0.1000444
 0.09944366 0.0988827 0.09837065 0.09792475 0.09754856 0.097228 0.09696212 0.09671184 0.09647496 0.09621193
 0.09592634 0.09561373 0.09528452 0.09497249 0.09467991 0.09443444 0.09421773 0.09401657 0.09380741 0.09355539
 0.09326194 0.09290888 0.09253162 0.09213836 0.09177482 0.09145997 0.09121431 0.09105169 0.09094545 0.09089829
 0.09084648 0.09078515 0.09066015 0.09046894 0.09020974 0.08988649 0.08954304 0.08918276 0.08884797 0.08853518
 0.08825574 0.08800363 0.08777042 0.08755356 0.08734578 0.0871454 0.08694927 0.08675265 0.08655122 0.08634175
 0.08611958 0.08589111 0.08565584 0.08542717 0.08520869 0.08500615 0.08482252 0.08464636 0.08447748 0.08429714
 0.0841044 0.08389076 0.08365693 0.08340854 0.08314693 0.08288208 0.08261462 0.08235158 0.08209348 0.08184484
 0.08160592 0.08137965 0.08116423 0.08096005 0.08076163 0.08056641 0.08036569 0.08015466 0.07992672 0.07967737
 0.07940871 0.07911896 0.07881933 0.07851089 0.07820485 0.07790252 0.07760768 0.07732057 0.07704078 0.07676841
 0.07650506 0.07625061 0.07600623 0.07576951 0.0755337 0.07529496 0.07504003 0.07476985 0.07447732 0.07417245
 0.0738616 0.07355865 0.07327607 0.07302226 0.07280563 0.07262644 0.07248849 0.07238188 0.0723087 0.07223965
 0.07217351 0.07206477 0.07190893 0.07167684 0.07136693 0.07099824 0.07057515 0.07015581 0.06974477 0.06939941
 0.0691169 0.0689223 0.06880061 0.06873494 0.06869997 0.06864852 0.06856301 0.06839876 0.06817199 0.06787284
 0.06754611 0.06721412 0.06690203 0.06663053 0.06637871 0.0661457 0.06590868 0.06565864 0.0654254 0.06520868
 0.06506951 0.06501114 0.06505073 0.06518299 0.06534757 0.06553434 0.06565161 0.06569976 0.06562573 0.06544875
 0.06518287 0.06485584 0.06452009 0.06418845 0.06390037 0.06364273 0.06341929 0.06321166 0.06300708 0.0628089
 0.0626134 0.0624358 0.06228195 0.06214631 0.06203071 0.06191291 0.06178976 0.06166308 0.06153281 0.06143407
 0.06136777 0.06135748 0.06139743 0.0614663 0.06155626 0.06162583 0.06167685 0.06169038 0.06167801 0.06165067
 0.06161637 0.06159249 0.06157 0.06155316 0.06151389 0.06144055 0.061305 0.06108948 0.06079988 0.06042602
 0.06002464 0.05959948 0.05922364 0.05890625 0.05867279 0.05852526 0.05841691 0.05834334 0.05823183 0.05808382
 0.05786757 0.05759554 0.05729434 0.05697689 0.05668941 0.05643195 0.05622831 0.05606541 0.0559392 0.05583284
 0.05573239 0.05562487 0.05549882 0.05535072 0.05517394 0.05498111 0.054772 0.05456955 0.05437873 0.05420507
 0.05405156 0.05389109 0.05372226 0.05351683 0.05327621 0.05301411 0.05273585 0.05248417 0.05225602 0.05206691
 0.05190188 0.05173087 0.05154659 0.0513172 0.05105871 0.05077396 0.05048801 0.05022402 0.04999078 0.04980186
 0.04964914 0.04953199 0.04944506 0.04938544 0.04935854 0.04936527 0.04940757 0.04948733 0.04958413 0.04969708
 0.04978116 0.04983402 0.04981142 0.04971629 0.04954092 0.04929703 0.04902173 0.04872815 0.04846783 0.04824457
 0.04808987 0.04799635 0.04796939 0.04799545 0.04806701 0.04816882 0.04829087 0.04842262 0.04855644 0.04869359
 0.04883173 0.04898057 0.049141 0.04932246 0.04952531 0.04976381 0.05003864 0.050379 0.05078636 0.0512898
 0.0518858 0.05256953 0.0533308 0.05412891 0.05495663 0.05577361 0.05658351 0.05737326 0.05815178 0.05892456
 0.05969857 0.06048036 0.06127713 0.0620934 0.06293789 0.06381614 0.0647281 0.06567843 0.06664584 0.06763089
 0.06859189 0.06952596 0.07038662 0.07117093 0.07184781 0.07241713 0.07287307 0.07321765 0.07345995 0.07360261
 0.0736568 0.07363164 0.07354877 0.07343163 0.0733261 0.07325968 0.07328674 0.0734116 0.07366253 0.07401286
 0.07445722 0.07496586 0.07552337 0.07612357 0.07676072 0.07744191 0.07816892 0.07893755 0.07974871 0.08058393
 0.08144229 0.08229996 0.08315536 0.08398134 0.08477658 0.08551642 0.08620474 0.08683997 0.08743375 0.08801589
 0.08859164 0.08919457 0.08979479 0.09038857 0.09089129 0.0912496 0.09134335 0.09109233 0.09041258 0.08923501
 0.08759817 0.08547254 0.08304523 0.08032699 0.07757894 0.07482744 0.07228084 0.06995457 0.06792291 0.06618316
 0.06469104 0.06343659 0.06233294 0.06137434 0.06049319 0.05968853 0.05892522 0.05820176 0.05750055 0.05681902
 0.05614602 0.05548409 0.05482946 0.05419257 0.05357764 0.05299522 0.05245149 0.05194797 0.05148645 0.05106491
 0.05068162 0.0503464 0.05005855 0.04984508 0.04970754 0.04967226 0.04973873 0.04990193 0.05015429 0.05044401
 0.05075948 0.05102605 0.05124009 0.05134961 0.05136875 0.05129315 0.05115242 0.05097692 0.05080176 0.0506646
 0.0505945 0.05061915 0.05075131 0.0510038 0.05137375 0.05186209 0.05246818 0.05319164 0.05403792 0.05501204
 0.05607154 0.05721698 0.05827261 0.05922218 0.05976438 0.05988665 0.05933533 0.05814938 0.05632344 0.05395826
 0.05130235 0.04845737 0.04572776 0.04314294 0.04087539 0.03887501 0.03716228 0.03566514 0.03434387 0.03315816
 0.03208017 0.03110129 0.03021501 0.02941595 0.02870427 0.02806295 0.02749127 0.02696408 0.02647986 0.02601376
 0.02556495 0.02511875 0.0246763 0.02423802 0.02380664 0.02339298 0.02299974 0.02263997 0.02231392 0.02202984
 0.02178205 0.02156899 0.02137869 0.021201 0.02102493 0.02083985 0.02064455 0.02043403 0.02021832 0.01999793
 0.01978764 0.01959054 0.01941457 0.01926231 0.01912312 0.01899682 0.01885987 0.01871165 0.01854084 0.01835011
 0.01815423 0.01795561 0.01777436 0.01760618 0.0174506 0.01730065 0.01714131 0.01697346 0.01679023 0.01659968
 0.01640684 0.01621718 0.0160355 0.01586427 0.01570437 0.01556222 0.01544021 0.01534077 0.01526737 0.0152022
 0.01514503 0.0150653 0.01496068 0.01481834 0.01463898 0.01444113 0.01422752 0.01402802 0.01384236 0.01368622
 0.01355555 0.01344802 0.0133586 0.01327706 0.01319991 0.01311773 0.01303138 0.0129364 0.01284112 0.01274827
 0.01266834 0.0126085 0.01256625 0.01254608 0.01252447 0.012499 0.0124428 0.01235093 0.01222228 0.01205564
 0.01188107 0.01170021 0.01154507 0.0114143 0.011313 0.01123639 0.01116633 0.01110031 0.0110209 0.01093098
 0.0108269 0.01071467 0.01060009 0.01048935 0.01039045 0.01030573 0.01024103 0.01018911 0.01015078 0.01010947
 0.01006102 0.009991664 0.009896817 0.009777332 0.009631612 0.0094745 0.009306769 0.009144676 0.00898873 0.008845974
 0.008715665 0.008595404 0.008484042 0.008375397 0.008268879 0.008159522 0.008047717 0.007931304 0.007812465 0.007692496
 0.007575281 0.00746505 0.007363599 0.007274491 0.00719381 0.007121461 0.007050992 0.006980117 0.006906581 0.006829111
 0.006750137 0.006669748 0.006590511 0.006512622 0.006437495 0.006365238 0.006297936 0.006235731 0.006181001 0.006133308
 0.006092576 0.006057078 0.006022534 0.005986104 0.005940353 0.005883409 0.005808897 0.005718596 0.005610914 0.00549113
 0.005361656 0.005227991 0.005092808 0.004960536 0.00483273 0.004713291 0.004603518 0.004503866 0.004415161 0.004330781
 0.004250418 0.004165532 0.004075928 0.003980142 0.003879152 0.003780518 0.003685017 0.003600944 0.003526594 0.003462265
 0.003403929 0.003344012 0.003279328 0.003201226 0.003111813 0.003008571 0.002898738 0.002785501 0.002676779 0.002577249
 0.002489834 0.002417154 0.002356034 0.002307014 0.002262314 0.002221303 0.00217561 0.002124495 0.002064207 0.00199478
 0.00191987 0.001840148 0.001763024 0.001688555 0.001621517 0.001560249 0.001503039 0.001446882 0.001385091 0.001315589
 0.001231688 0.001135754 0.001026017 0.0009103133 0.0007923214 0.0006808634 0.000581226 0.0004966932 0.0004304588 0.0003778138
 0.0003391238 0.0003051888 0.0002750904 0.0002403987 0.0002003348 0.000151242 9.309091E-05 2.814022E-05 -4.315214E-05 -0.0001159129
 -0.0001898558 -0.0002611023 -0.0003296767 -0.0003936438 -0.0004531564 -0.0005073591 -0.000557075 -0.0006024903 -0.0006460557 -0.0006898271
 -0.0007366941 -0.000789191 -0.0008488813 -0.0009172735 -0.0009942186 -0.00108056 -0.001173049 -0.001272022 -0.001369474 -0.001464747
 -0.001548705 -0.001620375 -0.001678826 -0.001724285 -0.001766513 -0.001806137 -0.001853385 -0.001907191 -0.001968512 -0.002034743
 -0.002098372 -0.002158254 -0.002207559 -0.002248781 -0.002281715 -0.002311277 -0.002342506 -0.002377731 -0.002421364 -0.002469309
 -0.002521267 -0.002571619 -0.002617703 -0.002660167 -0.002698125 -0.002736704 -0.0027768 -0.002818854 -0.002863151 -0.002904975
 -0.002944206 -0.002980579 -0.003014674 -0.003052242 -0.003093044 -0.003139696 -0.003189927 -0.003238074 -0.003282638 -0.003316632
 -0.003342861 -0.003361395 -0.003377828 -0.003398231 -0.003424695 -0.003461795 -0.00350521 -0.003554601 -0.003604062 -0.003651138
 -0.003694679 -0.003733725 -0.003770293 -0.003804764 -0.003836508 -0.003865612 -0.003888795 -0.003905972 -0.003917204 -0.003922978
 -0.003927792 -0.003932309 -0.003941979 -0.003957313 -0.003982663 -0.00401828 -0.00406711 -0.004128196 -0.004202405 -0.00428585
 -0.004376053 -0.004466692 -0.004553048 -0.004629961 -0.004693174 -0.004742816 -0.004776923 -0.004802034 -0.004818591 -0.004835419
 -0.00485385 -0.004878946 -0.004911412 -0.004950179 -0.00499515 -0.005042386 -0.005091746 -0.005140246 -0.005188169 -0.005235364
 -0.005282135 -0.005329652 -0.005377297 -0.005424735 -0.005470328 -0.005511416 -0.00554726 -0.005575266 -0.005598085 -0.005616012
 -0.005633902 -0.005654185 -0.00567983 -0.005712866 -0.005751941 -0.005797388 -0.005845993 -0.005897366 -0.005949268 -0.006001484
 -0.006052744 -0.006102955 -0.006149981 -0.006193677 -0.006231623 -0.00626405 -0.006290521 -0.006312035 -0.006331237 -0.006349512
 -0.006371082 -0.00639669 -0.006429759 -0.006468889 -0.006514606 -0.006563286 -0.006612627 -0.006659829 -0.00670224 -0.006741404
 -0.006776813 -0.006812375 -0.006849268 -0.006887672 -0.006928233 -0.00696627 -0.007001451 -0.007030073 -0.007052009 -0.007068382
 -0.007079574 -0.00709003 -0.007099872 -0.007112437 -0.007126743 -0.007141793 -0.007155779 -0.007163851 -0.007166162 -0.007159426
 -0.007148495 -0.007136273 -0.007129405 -0.00713475 -0.007151916 -0.00718456 -0.0072226 -0.007263951 -0.007298694 -0.007323183
 -0.007338178 -0.007342572 -0.007344925 -0.007345967 -0.007350076 -0.007357421 -0.00736552 -0.007374407 -0.007383342 -0.007393091
 -0.007407777 -0.007427131 -0.007453069 -0.007483468 -0.007514209 -0.007544794 -0.007571906 -0.007598002 -0.007625043 -0.007653105
 -0.007684247 -0.007713254 -0.007738078 -0.007754887 -0.007760722 -0.007759517 -0.007750981 -0.0077426 -0.007735498 -0.00773391
 -0.007738394 -0.007749628 -0.007767661 -0.007792525 -0.007824292 -0.007863612 -0.007910871 -0.007968122 -0.008036346 -0.008119407
 -0.008218919 -0.008340051 -0.008484398 -0.008656612 -0.008857425 -0.009089246 -0.009352424 -0.009647466 -0.009976024 -0.01033829
 -0.01073836 -0.01117797 -0.0116585 -0.01218197 -0.01274079 -0.01333575 -0.01394731 -0.01457468 -0.01519005 -0.01579186
 -0.01634816 -0.01685745 -0.01729432 -0.01765572 -0.01791768 -0.01806677 -0.01804747 -0.01784549 -0.01738168 -0.01670254
 -0.01582075 -0.01484908 -0.01391613 -0.01308892 -0.01246833 -0.01204171 -0.01183301 -0.01179963 -0.01193743 -0.01218925
 -0.0125496 -0.01293161 -0.01332509 -0.01364204 -0.01387122 -0.01399827 -0.01402238 -0.0139818 -0.01387811 -0.01373923
 -0.01356643 -0.01337989 -0.01318261 -0.01299624 -0.01282081 -0.01266909 -0.01253428 -0.01241376 -0.01229476 -0.01216261
 -0.01200831 -0.01181648 -0.01159734 -0.011348 -0.01109445 -0.01084572 -0.01061667 -0.01041437 -0.01023404 -0.01007638
 -0.009932475 -0.009801739 -0.009675716 -0.009553903 -0.009423981 -0.009286027 -0.009135772 -0.00897634 -0.008822894 -0.00867865
 -0.008564176 -0.008476896 -0.008422395 -0.008393703 -0.008382378 -0.008382981 -0.008386162 -0.00838975 -0.008389153 -0.008384122
 -0.008373325 -0.008357413 -0.008336417 -0.008310634 -0.008280301 -0.008244486 -0.008202744 -0.008156984 -0.008106963 -0.008060355
 -0.008017568 -0.007986374 -0.007966612 -0.007958874 -0.007961847 -0.007968421 -0.007977481 -0.007981133 -0.007979815 -0.007970241
 -0.00795432 -0.007933732 -0.007909784 -0.007885057 -0.007858658 -0.007830628 -0.007800373 -0.007766726 -0.007732721 -0.007698682
 -0.007669284 -0.007646193 -0.007629597 -0.007620336 -0.007613196 -0.007607893 -0.00759851 -0.00758472 -0.007564373 -0.007537704
 -0.007506987 -0.007472814 -0.007439829 -0.007408229 -0.00738136 -0.007358609 -0.007340252 -0.007325538 -0.007313366 -0.007303286
 -0.007294614 -0.007286396 -0.007277939 -0.007267762 -0.007254687 -0.007238661 -0.007218908 -0.007197951 -0.007175963 -0.007156573
 -0.007140432 -0.007129507 -0.007124214 -0.007123253 -0.007126575 -0.00712954 -0.007131888 -0.007128774 -0.007120627 -0.007107161
 -0.007089686 -0.00707298 -0.007057356 -0.007046605 -0.007038702 -0.007032221 -0.007024822 -0.00701247 -0.006996359 -0.006975412
 -0.006953436 -0.006932382 -0.006914149 -0.006900348 -0.006889564 -0.006881915 -0.006875086 -0.006868767 -0.0068611 -0.006851893
 -0.006839503 -0.00682382 -0.006806167 -0.006786853 -0.006770628 -0.006757488 -0.006750195 -0.006747669 -0.006747249 -0.006748476
 -0.006748318 -0.006748377 -0.006750226 -0.006754481 -0.006763506 -0.00677419 -0.006785343 -0.006792802 -0.006793118 -0.006787147
 -0.006773234 -0.006758236 -0.006743453 -0.006734584 -0.006733525 -0.006737461 -0.006746755 -0.006752022 -0.006752728 -0.006744494
 -0.006727905 -0.006710494 -0.006693298 -0.006687308 -0.006691222 -0.006706899 -0.006730773 -0.006755026 -0.006777476 -0.006790217
 -0.006794713 -0.006788928 -0.006776795 -0.006760619 -0.0067439 -0.006729309 -0.006718257 -0.00671212 -0.006710154 -0.006712602
 -0.006717673 -0.006725288 -0.006732764 -0.006739863 -0.006744132 -0.006745405 -0.006743728 -0.006739333 -0.006735791 -0.006733268
 -0.006734853 -0.006739929 -0.006747902 -0.006758024 -0.006767886 -0.006777804 -0.00678706 -0.006796611 -0.006807581 -0.006819819
 -0.006834165 -0.006848342 -0.006861751 -0.006871071 -0.00687481 -0.006871315 -0.006859363 -0.006841158 -0.006816528 -0.006790057
 -0.0067621 -0.006737045 -0.00671517 -0.006699343 -0.006689609 -0.006687212 -0.006691802 -0.006701843 -0.006716843 -0.00673398
 -0.006753387 -0.006773989 -0.006796089 -0.006820192 -0.006845219 -0.006870289 -0.006893912 -0.006914284 -0.006931512 -0.006945172
 -0.006955631 -0.006963476 -0.006966518 -0.00696414 -0.00695545 -0.006939295 -0.00692224 -0.006904451 -0.006896443 -0.006898913
 -0.006914746 -0.006943434 -0.006977021 -0.007014672 -0.007046707 -0.00707364 -0.007092325 -0.007103681 -0.007108698 -0.007107309
 -0.007099482 -0.007085975 -0.007066848 -0.007045288 -0.00702342 -0.00700524 -0.006993956 -0.00699049 -0.006996564 -0.00700932
 -0.007028803 -0.007050142 -0.007072696 -0.00709175 -0.007106615 -0.007115861 -0.007119318 -0.007119508 -0.007116633 -0.007114111
 -0.007112211 -0.007114092 -0.00712043 -0.007135549 -0.007159883 -0.007197746 -0.007246646 -0.007305586 -0.007368479 -0.007427795
 -0.007478542 -0.00751277 -0.007532286 -0.007534369 -0.007527468 -0.007513731 -0.007501701 -0.00749439 -0.00749505 -0.007505147
 -0.007522647 -0.007547709 -0.007575886 -0.007606955 -0.007635139 -0.007660163 -0.007676588 -0.007684893 -0.00768509 -0.007678942
 -0.007673655 -0.007669943 -0.007674375 -0.007684083 -0.00769726 -0.007710574 -0.007717887 -0.007721221 -0.007719023 -0.007717536
 -0.007720598 -0.007730163 -0.007749306 -0.007772232 -0.007798329 -0.007820941 -0.007838188 -0.007850314 -0.007856689 -0.007863876
 -0.007872252 -0.007887178 -0.007908563 -0.007934964 -0.007965454 -0.00799292 -0.008016692 -0.008029765 -0.008033331 -0.008025986
 -0.008011421 -0.007995049 -0.007981034 -0.007977364 -0.007984379 -0.008006419 -0.008038175 -0.008078652 -0.00812022 -0.008159808
 -0.008191603 -0.008213266 -0.008222551 -0.008218234 -0.00820276 -0.008175866 -0.008144544 -0.008109238 -0.008074691 -0.008040867
 -0.008006472 -0.007971454 -0.007934188 -0.007896096 -0.007861999 -0.007833462 -0.007817727 -0.007813822 -0.007823979 -0.00784502
 -0.007874196 -0.007908033 -0.007943162 -0.007975622 -0.008002757 -0.008020028 -0.008024712 -0.008015359 -0.007989801 -0.007954293
 -0.007908545 -0.007865269 -0.007825783 -0.007800075 -0.007789062 -0.007791508 -0.007806847 -0.00782352 -0.007840799 -0.007847399
 -0.007844416 -0.007829675 -0.007806048 -0.007779786 -0.007753613 -0.00773593 -0.007726531 -0.007729996 -0.007740876 -0.00775737
 -0.00777044 -0.00777374 -0.007763006 -0.007733114 -0.007690697 -0.007635469 -0.007579134 -0.007523729 -0.007477514 -0.007441817
 -0.007419812 -0.007411884 -0.007416319 -0.007432857 -0.00745614 -0.00748588 -0.007517417 -0.007550844 -0.007584435 -0.007617657
 -0.007648603 -0.007675757 -0.007695489 -0.007706646 -0.007706064 -0.00769392 -0.007668815 -0.007632795 -0.007585555 -0.007532982
 -0.007476801 -0.007423865 -0.007377054 -0.007337331 -0.007306133 -0.007277416 -0.007250655 -0.007220854 -0.007187455 -0.007154074
 -0.00712112 -0.00709769 -0.007083599 -0.007082544 -0.007092149 -0.007104731 -0.007117357 -0.007117065 -0.007104903 -0.00707526
 -0.00703428 -0.006987649 -0.006940242 -0.006899735 -0.006864271 -0.006835478 -0.006808739 -0.006781629 -0.006754527 -0.006726354
 -0.006701821 -0.006681938 -0.006668203 -0.006661388 -0.006656727 -0.006654002 -0.006647151 -0.006636145 -0.00662171 -0.006604608
 -0.006591609 -0.006582337 -0.0065798 -0.006580884 -0.006578824 -0.00657035 -0.006544923 -0.00650418 -0.006444407 -0.006372563
 -0.006293066 -0.006213155 -0.006138501 -0.006073661 -0.006022376 -0.005984761 -0.005962759 -0.005949522 -0.005944803 -0.005938159
 -0.005928119 -0.005909502 -0.005881582 -0.005849694 -0.005814301 -0.005786245 -0.005765175 -0.005754529 -0.005750955 -0.005741696
 -0.005723767 -0.005679597 -0.005614576 -0.005529239 -0.005433307 -0.005341345 -0.005255698 -0.005184604 -0.005124588 -0.005075512
 -0.005035085 -0.005002411 -0.004975587 -0.004954843 -0.004934179 -0.004913209 -0.00488277 -0.004841752 -0.004783321 -0.00470672
 -0.004612889 -0.004502276 -0.004386558 -0.004266881 -0.004158389 -0.00406043 -0.00397871 -0.003910659 -0.003851759 -0.003800467
 -0.003751999 -0.003704989 -0.003656713 -0.003603306 -0.003539439 -0.003465262 -0.003376893 -0.003284228 -0.003190753 -0.003103464
 -0.003027348 -0.002954693 -0.002885497 -0.002808061 -0.002720048 -0.002623127 -0.002517004 -0.002411793 -0.002307591 -0.002203011
 -0.002096283 -0.001971176 -0.001827505 -0.001653395 -0.001455102 -0.001244203 -0.001026907 -0.0008234257 -0.0006297605 -0.000449952
 -0.0002757831 -9.869759E-05 7.992174E-05 0.0002642533 0.0004425749 0.0006094935 0.0007614685 0.0008929707 0.001019972 0.001142075
 0.001289273 0.001464614 0.001696806 0.001989215 0.002334539 0.002731115 0.003128286 0.003525329 0.00389091 0.004233888
 0.004576941 0.004931341 0.005343588 0.005814431 0.006372327 0.00700031 0.007690759 0.008417517 0.009152524 0.009880138
 0.01057694 0.01125451 0.01190678 0.01256954 0.01325472 0.01397682 0.0147483 0.01552433 0.01630191 0.01703357
 0.01771417 0.01834867 0.0189376 0.01950033 0.02003568 0.02053919 0.02101086 0.02144494 0.0218497 0.02224643
 0.02264266 0.02306837 0.02351392 0.0239798 0.02445218 0.02491271 0.025369 0.0258183 0.02627712 0.0267546
 0.0272522 0.02777344 0.02831003 0.02885621 0.02943435 0.03004081 0.03075377 0.03157983 0.03256142 0.03369647
 0.03486448 0.0360576 0.03714607 0.03814728 0.03907649 0.03995324 0.04084606 0.04175759 0.04272448 0.0437456
 0.044826 0.04598872 0.04724468 0.0486536 0.05025898 0.05209928 0.05423269 0.05655317 0.05906455 0.06155613
 0.06397928 0.0662298 0.06827958 0.07015564 0.07185555 0.07345636 0.07496336 0.07649538 0.07806312 0.07982816
 0.08177434 0.08393611 0.08623654 0.08844067 0.09053583 0.09235609 0.0939915 0.09550507 0.09696101 0.09845687
 0.09999099 0.1015943 0.1032417 0.1049268 0.1066389 0.1083797 0.1101109 0.1118283 0.1134815 0.1150581
 0.1165781 0.1180416 0.1194823 0.1208994 0.122226 0.1234546 0.1244826 0.1253185 0.1259474 0.1263881
 0.1266922 0.1268683 0.1269599 0.1269661 0.1269001 0.1267694 0.1265823 0.1263562 0.1261051 0.1258423
 0.1255811 0.1253137 0.1250451 0.1247427 0.1244035 0.1239858 0.1234838 0.1228658 0.1221269 0.1212881
 0.1203514 0.1193933 0.118414 0.1174456 0.1164787 0.1154817 0.1144499 0.1133487 0.1121873 0.1109619
 0.1096989 0.1084334 0.1071894 0.1060097 0.1048876 0.1038347 0.1028292 0.1018584 0.1009274 0.1000296
 0.0992001 0.09844702 0.09778454 0.09721845 0.09672862 0.09631379 0.09595863 0.09566274 0.09543473 0.09527578
 0.09520194 0.09521157 0.09530587 0.09548028 0.09572137 0.0960253 0.09637678 0.0967759 0.09721481 0.0976992
 0.09823047 0.09881841 0.09946978 0.1001927 0.1009927 0.1018741 0.1028388 0.1038921 0.1050368 0.1062701
 0.1075957 0.1089767 0.1104122 0.111839 0.1132542 0.1146133 0.1159157 0.1171413 0.118284 0.1193008
 0.1201851 0.1208837 0.1214171 0.1217966 0.1220586 0.1222652 0.1224318 0.1226026 0.1227636 0.1229187
 0.1230525 0.1231541 0.1232305 0.1232761 0.123325 0.1233795 0.1234929 0.1236783 0.1239244 0.1242351
 0.1245224 0.1247821 0.1249667 0.1250776 0.1251118 0.1250717 0.1249664 0.1247972 0.1245766 0.1242954
 0.1239536 0.1235075 0.1228996 0.1220735 0.1209178 0.1195005 0.1178167 0.1159972 0.1141278 0.112202
 0.1102341 0.1082078 0.106105 0.1040174 0.1019522 0.1000115 0.09820908 0.096535 0.09498844 0.09348974
 0.09203796 0.09059345 0.08916545 0.08778489 0.08645603 0.08521619 0.08404729 0.08293096 0.08184198 0.08073078
 0.07959101 0.07839663 0.07715151 0.07585743 0.07449528 0.07305776 0.07152256 0.06985365 0.06816643 0.06646337
 0.06494495 0.06365921 0.06257485 0.06170001 0.06087466 0.06009123 0.05926585 0.05840315 0.05752825 0.05665005
 0.05583313 0.05507238 0.05438264 0.05375889 0.05319008 0.05269198 0.05228331 0.05197969 0.05181187 0.05176615
 0.05184427 0.05202484 0.05229502 0.05265057 0.05308546 0.05360766 0.05421397 0.05493378 0.05576575 0.056779
 0.0579814 0.05940128 0.06103893 0.06272437 0.06444208 0.06594814 0.06725211 0.06828095 0.06905817 0.06962468
 0.06999408 0.07021107 0.07029416 0.07028287 0.07021289 0.07013063 0.07008038 0.07011651 0.07023952 0.07048158
 0.07076204 0.0710577 0.07131785 0.07151718 0.07168528 0.07182161 0.07196664 0.07212515 0.07230627 0.07251056
 0.0727201 0.07293408 0.07313696 0.07333045 0.07351585 0.0736961 0.07388266 0.07407553 0.07428187 0.07449656
 0.07471246 0.07493168 0.07514791 0.07538244 0.07564678 0.07596508 0.0763568 0.0768203 0.0773641 0.07795995
 0.07860245 0.0792719 0.07996245 0.08068138 0.08142913 0.08221009 0.08302437 0.0838342 0.08463601 0.08537319
 0.08604636 0.08663066 0.08712861 0.08753803 0.08785558 0.08807313 0.08818538 0.08817817 0.08805449 0.08781011
 0.08745562 0.08699828 0.08644398 0.08579925 0.08506035 0.08422568 0.08329855 0.08227285 0.08118896 0.08004668
 0.07892235 0.07782319 0.07680225 0.07586268 0.07500002 0.0742121 0.0734698 0.07277184 0.07209698 0.07144465
 0.07080285 0.07016867 0.06953023 0.06888316 0.06821503 0.06752382 0.0668016 0.06605104 0.06526958 0.06446707
 0.06364482 0.06282238 0.06200556 0.06121448 0.06045724 0.05973345 0.05904699 0.05837199 0.05770667 0.05702567
 0.05632747 0.05562092 0.05490916 0.05423657 0.05360568 0.05305574 0.05258251 0.05219204 0.05187839 0.05163031
 0.05144468 0.05131222 0.05122954 0.05119047 0.05118965 0.05122216 0.05128067 0.05136156 0.05145452 0.05155606
 0.05165512 0.05174863 0.05182855 0.05189326 0.05193748 0.05196049 0.05195925 0.05193355 0.05188453 0.0518127
 0.05172418 0.05162077 0.0515152 0.05141137 0.05133002 0.05127406 0.05126271 0.05129176 0.05136468 0.05147163
 0.05160258 0.05175062 0.05190754 0.05206821 0.05223013 0.0523816 0.05251918 0.05262886 0.05270553 0.0527465
 0.05274945 0.05272327 0.05266844 0.05259395 0.05250034 0.05239357 0.05227412 0.05214939 0.05202007 0.05189442
 0.05177254 0.05165963 0.05155446 0.05145715 0.05136542 0.05127553 0.05118596 0.05109265 0.05099746 0.05089961
 0.05080401 0.0507126 0.05063089 0.0505612 0.05050745 0.05047117 0.05045372 0.05045597 0.05047527 0.05051173
 0.05055927 0.05061757 0.05068079 0.05074874 0.05081743 0.05088681 0.05095409 0.05101991 0.05108414 0.05114965
 0.05122241 0.05130691 0.05141368 0.05154464 0.0517078 0.05189833 0.05211628 0.0523529 0.05260289 0.0528622
 0.05312696 0.05340083 0.05368382 0.05398061 0.05429241 0.05461923 0.05496151 0.05531501 0.05567957 0.05604519
 0.05641086 0.05675972 0.0570905 0.05738618 0.05764723 0.05786584 0.05804433 0.05818435 0.05828818 0.05836022
 0.0584024 0.05841869 0.05841003 0.0583794 0.05832393 0.05824382 0.05813285 0.05798845 0.05780743 0.05758711
 0.05733356 0.05704635 0.05673828 0.05641052 0.0560735 0.05572797 0.05537554 0.05501603 0.0546462 0.05426647
 0.05387769 0.05348128 0.05308335 0.05268447 0.05228959 0.05189763 0.05150885 0.05112258 0.05073771 0.05035521
 0.04997512 0.04959971 0.04923005 0.0488685 0.04851629 0.04817441 0.04784342 0.04752332 0.04721386 0.04691747
 0.04663396 0.0463705 0.04612747 0.04591305 0.04572745 0.04557513 0.0454556 0.0453681 0.04531156 0.04528126
 0.04527675 0.04529369 0.04533437 0.04540019 0.04549505 0.04562485 0.04579028 0.04599473 0.04623501 0.04650976
 0.04681807 0.04715785 0.04753516 0.04795014 0.04841325 0.04892642 0.04949649 0.05012542 0.05080526 0.05153594
 0.05229044 0.05306702 0.05383393 0.05459105 0.05532151 0.05602772 0.05670995 0.05737076 0.05801646 0.05864934
 0.05927562 0.05989835 0.06052379 0.06115335 0.06179151 0.06243445 0.06308331 0.06372694 0.06436329 0.06497528
 0.06555851 0.0660985 0.06659101 0.06703497 0.0674289 0.06778444 0.06810208 0.06839772 0.06867253 0.06894678
 0.0692227 0.06952607 0.06985775 0.07023615 0.07065801 0.07112453 0.07163137 0.07217164 0.0727417 0.07333644
 0.07394742 0.07456757 0.07518531 0.07579028 0.07638169 0.07695359 0.07752183 0.07808855 0.0786717 0.07927646
 0.07990256 0.08055241 0.08120186 0.08184976 0.08246455 0.08304566 0.08358275 0.08407872 0.08454981 0.08499768
 0.08543893 0.08587037 0.08629113 0.08670007 0.08709278 0.08747447 0.08785009 0.08822333 0.08860039 0.08897857
 0.08935851 0.08973555 0.09010834 0.0904719 0.09082454 0.09116325 0.09148584 0.09180056 0.09210697 0.0924245
 0.09275434 0.09311305 0.0935009 0.09392204 0.09437489 0.09485145 0.09534796 0.09584603 0.09634029 0.09680789
 0.09724379 0.09762947 0.09795964 0.09822018 0.09840869 0.09851565 0.09854955 0.09851032 0.09841444 0.09826905
 0.09808344 0.09786109 0.0976086 0.09732444 0.09703518 0.09674177 0.0964859 0.09627066 0.09611622 0.09602185
 0.09596816 0.09595143 0.09593433 0.09591607 0.09587181 0.0958069 0.09572165 0.09562472 0.09553339 0.09545038
 0.09538954 0.0953407 0.09530193 0.09525676 0.09519389 0.09510521 0.0949821 0.09483257 0.09465525 0.09446807
 0.09427481 0.09408373 0.09389808 0.09370127 0.09349266 0.09324784 0.09296657 0.09264833 0.09229544 0.09192698
 0.09154186 0.09114589 0.0907352 0.09029973 0.08984245 0.08936287 0.08886836 0.08837096 0.0878678 0.08736394
 0.08684429 0.08630212 0.08572254 0.08509614 0.08442066 0.08368985 0.08292382 0.08212162 0.08132474 0.08053733
 0.07979604 0.07910436 0.07846446 0.07787523 0.0773083 0.07676125 0.07620202 0.07563097 0.07503116 0.0744072
 0.07376163 0.07310197 0.07244388 0.07179166 0.0711595 0.07054231 0.0699428 0.0693477 0.06875136 0.06813755
 0.06749825 0.06682231 0.06610274 0.06534501 0.06454677 0.06372977 0.0628961 0.06206392 0.06123488 0.06041329
 0.05959954 0.05879956 0.05801485 0.0572609 0.05653788 0.05585551 0.05521104 0.05460122 0.05402471 0.05347701
 0.05295886 0.05247039 0.05200961 0.05157539 0.05116407 0.05077293 0.05040009 0.05004494 0.04970333 0.04937577
 0.0490501 0.04872504 0.04838537 0.04802881 0.04764801 0.04724189 0.04681825 0.04637798 0.04594117 0.04550873
 0.04509765 0.04470606 0.044335 0.0439817 0.04363785 0.04330419 0.04297727 0.04266112 0.04235968 0.04207648
 0.04181651 0.04158082 0.04137244 0.04118812 0.04102852 0.04088517 0.04075598 0.0406334 0.04051464 0.04040152
 0.04029313 0.04019983 0.04012225 0.04006981 0.04004262 0.04003941 0.04005843 0.04008459 0.04011604 0.04013514
 0.04014383 0.04013766 0.04012155 0.04010404 0.04008608 0.04007389 0.040063 0.04005146 0.04003537 0.04001142
 0.03997819 0.03993454 0.03987901 0.03981025 0.03973064 0.03963878 0.03954739 0.0394568 0.03938711 0.03933975
 0.03933107 0.03936148 0.03943299 0.03954385 0.03968035 0.03984034 0.04000622 0.04017828 0.04034833 0.04051757
 0.0406851 0.04085039 0.04101118 0.04117035 0.04132808 0.04149243 0.04167033 0.04186137 0.04207065 0.04228131
 0.0424891 0.04268206 0.04285416 0.0430182 0.04317424 0.04334227 0.04352453 0.04371702 0.04391894 0.04410435
 0.04427242 0.04440379 0.04450152 0.04456855 0.04461048 0.04464481 0.04467629 0.04472278 0.04478598 0.04487681
 0.04499163 0.04513273 0.04529024 0.0454591 0.04562946 0.04579423 0.04595366 0.046105 0.04625706 0.04641167
 0.04657224 0.04674038 0.04690803 0.0470748 0.04723231 0.04738036 0.04751945 0.04764988 0.04777502 0.04789437
 0.04800694 0.04811279 0.04821062 0.04830291 0.04839418 0.04848622 0.04858487 0.04868685 0.04879102 0.04889462
 0.04899285 0.04909341 0.04919739 0.04931619 0.04945616 0.04961199 0.04978614 0.04995683 0.05012111 0.05026738
 0.05039389 0.05050833 0.05061107 0.05071035 0.0508063 0.05090214 0.05099948 0.05110796 0.0512286 0.05137169
 0.05153204 0.05170415 0.05188268 0.05205554 0.05222615 0.05239293 0.05256167 0.05273766 0.05291839 0.05310449
 0.05329126 0.05347673 0.05366089 0.053844 0.05402314 0.05419903 0.05435897 0.05450206 0.05461675 0.0547029
 0.05476863 0.05481662 0.05487614 0.05494882 0.05506052 0.05520583 0.05538241 0.0555827 0.05578776 0.0559985
 0.0562078 0.05641964 0.05663918 0.05685769 0.05707287 0.05727024 0.05743977 0.0575833 0.05769696 0.05779607
 0.05788366 0.05796809 0.0580513 0.05813337 0.05821434 0.05829635 0.05837956 0.05846853 0.05856365 0.05867034
 0.05878893 0.05892516 0.0590765 0.05923967 0.05940853 0.05956818 0.05971569 0.05983825 0.05994172 0.06002522
 0.06010115 0.06017597 0.06026481 0.06037676 0.06051975 0.0607015 0.06090935 0.06114449 0.06137984 0.0616119
 0.06182164 0.06200685 0.06216257 0.06228868 0.0623907 0.06247089 0.06255291 0.06264061 0.0627682 0.06293321
 0.06314734 0.0634028 0.0636861 0.06399806 0.06433249 0.06469641 0.06509958 0.06553177 0.0659961 0.06645803
 0.0669051 0.06729994 0.06762545 0.06786977 0.06802185 0.06811243 0.0681412 0.068162 0.06817981 0.06822231
 0.06829066 0.0683793 0.06848864 0.06862097 0.06877823 0.06897558 0.06920676 0.06946214 0.06972951 0.0699751
 0.07019843 0.07038262 0.07053555 0.07066225 0.07075974 0.07082864 0.07086161 0.07085163 0.07080833 0.07073017
 0.07064065 0.07054318 0.07046283 0.07040317 0.07038488 0.07041115 0.07047635 0.07057983 0.0706789 0.07077207
 0.0708247 0.07084378 0.07084639 0.07084358 0.07088209 0.07096306 0.07111728 0.07132676 0.07158378 0.07185493
 0.07210024 0.07230408 0.07242965 0.07251836 0.07256967 0.07266533 0.07284447 0.07310595 0.07347325 0.07382694
 0.07414728 0.07439789 0.07457018 0.07471739 0.07484176 0.07497191 0.07510594 0.07523163 0.07534705 0.07543501
 0.07549763 0.07553168 0.07554291 0.07554182 0.07553407 0.07553715 0.07554147 0.07554757 0.07553322 0.0754768
 0.07538281 0.07523937 0.07508801 0.07494046 0.07482644 0.07475915 0.0747283 0.0747355 0.07475805 0.07479371
 0.07483289 0.07487511 0.07492281 0.07497633 0.07504233 0.07511806 0.07519521 0.07526451 0.07528853 0.07526527
 0.07516293 0.07500686 0.07482053 0.07463054 0.07448525 0.07436516 0.07427404 0.07418141 0.07406359 0.07393701
 0.07379784 0.07368307 0.07360141 0.07357311 0.07360318 0.07369655 0.07385542 0.0740604 0.0743104 0.07456741
 0.07483095 0.07508412 0.07532872 0.07556744 0.07579874 0.07601576 0.07622252 0.07642084 0.07662492 0.0768615
 0.07712979 0.07744667 0.07778379 0.07812656 0.0784491 0.0787302 0.07897194 0.07916715 0.07933729 0.07948447
 0.07963493 0.07979459 0.07996796 0.08015876 0.08032186 0.08045492 0.0805055 0.08047649 0.08038598 0.08024426
 0.08012281 0.08002046 0.07997441 0.07996982 0.07999097 0.08002584 0.08004784 0.080053 0.08002242 0.07997056
 0.07989335 0.0798346 0.07981611 0.07986734 0.08001473 0.08022027 0.08048636 0.08074072 0.08097159 0.08113904
 0.08123712 0.08126044 0.08120848 0.08109401 0.08092016 0.08072936 0.08052547 0.08035681 0.08021611 0.08010605
 0.08001231 0.07989924 0.07976735 0.07959554 0.07940584 0.07921197 0.07904028 0.07892131 0.07885031 0.07884657
 0.07884759 0.07884126 0.07875307 0.07855488 0.07824714 0.07781856 0.07734074 0.07681926 0.07630847 0.07581161
 0.07533692 0.07488453 0.07445874 0.07405942 0.07369076 0.07334799 0.0730142 0.07268994 0.07236414 0.07204916
 0.07176293 0.0715071 0.07129639 0.07111071 0.07094149 0.07076526 0.07056794 0.07033288 0.07004824 0.06971741
 0.06933098 0.06894104 0.0685505 0.06823198 0.06799562 0.06784298 0.0677746</values></Ydata></AB><ScSm><Ydata ylabel="Single channel"><values byteorder="INTEL" format="FLOAT32" numvalues="1814"> 0.06578502 0.06578811 0.0658491 0.06599261 0.06619315 0.06638798 0.06652276 0.06658924 0.06660903 0.06658991
 0.06653152 0.06647567 0.06650439 0.06666115 0.06689145 0.06707617 0.06712655 0.06706413 0.06701221 0.06707392
 0.06719495 0.06717527 0.06685816 0.06630968 0.06577774 0.0654628 0.06539044 0.06555364 0.06603646 0.06678358
 0.06733771 0.06716423 0.06632027 0.06548987 0.06522514 0.06541663 0.06560871 0.06553041 0.06518263 0.06473157
 0.06454964 0.06511731 0.0665523 0.06821528 0.06893352 0.06773773 0.06455573 0.06043849 0.05717298 0.05632478
 0.05814023 0.0612259 0.06359178 0.06423485 0.06362469 0.06271364 0.06190487 0.06116633 0.060691 0.06093176
 0.06198111 0.06315397 0.06334174 0.06195804 0.0596336 0.05777065 0.05726547 0.05794295 0.05930195 0.06106788
 0.06244155 0.06165376 0.05769331 0.05252475 0.05023053 0.05313494 0.05932422 0.06451596 0.0658738 0.06361386
 0.0597752 0.05651899 0.05530542 0.05650517 0.05933627 0.06251148 0.06501804 0.06617041 0.06543675 0.06289372
 0.05968425 0.05747161 0.0574158 0.05971029 0.06354177 0.06717017 0.06871708 0.06754795 0.06469668 0.06177365
 0.0599006 0.0597075 0.06149533 0.06492651 0.06899856 0.07262199 0.07506862 0.07605017 0.0757767 0.07482024
 0.07367779 0.0726916 0.07235914 0.07302982 0.07409257 0.07420154 0.07274218 0.07065076 0.06944819 0.06966363
 0.07041058 0.07046582 0.06950778 0.06792745 0.06562413 0.06196468 0.05723794 0.0530637 0.05077828 0.05040535
 0.05160822 0.05422458 0.05714697 0.05824128 0.0566758 0.05443094 0.05434498 0.05708601 0.06079359 0.06334978
 0.06434412 0.0649392 0.06636824 0.06867196 0.07053642 0.07028399 0.06753296 0.0641386 0.06288765 0.06476751
 0.06801587 0.07029016 0.07114038 0.07177126 0.07292571 0.07373147 0.07261093 0.06915705 0.06514663 0.06344803
 0.06552614 0.0699764 0.07354236 0.07352933 0.06961961 0.06394385 0.05941676 0.05771968 0.05884326 0.06219486
 0.06725521 0.07300051 0.07762888 0.07957053 0.0786387 0.07593609 0.07259749 0.06874596 0.064087 0.05963564
 0.05793503 0.06065679 0.06646921 0.07214485 0.07544106 0.07622507 0.07523032 0.07268284 0.06849377 0.06356279
 0.0602157 0.06041216 0.063394 0.06609966 0.06636481 0.06490202 0.06374985 0.06373136 0.0641291 0.06422584
 0.06432234 0.0652009 0.06699415 0.06886937 0.06983251 0.06963805 0.06883869 0.06814054 0.06776367 0.06728532
 0.06623468 0.06502263 0.06490885 0.06662637 0.06937591 0.07164536 0.0727305 0.07300244 0.07290418 0.07217362
 0.07022826 0.06726211 0.06470148 0.06415275 0.06585193 0.0685124 0.07066563 0.07172007 0.07183361 0.07138874
 0.0707297 0.07004638 0.06942765 0.06910323 0.06938993 0.07024214 0.07114486 0.07163243 0.07167295 0.07143581
 0.07095639 0.0702024 0.06931803 0.06863637 0.06844106 0.06875314 0.06936048 0.0700087 0.07049812 0.07066081
 0.07042032 0.06990646 0.06937116 0.06895834 0.06866494 0.06851191 0.06859057 0.06890111 0.06927411 0.06951725
 0.06957217 0.06949231 0.06933203 0.06910661 0.06883048 0.06855865 0.06838636 0.0683887 0.06853643 0.06870627
 0.06881484 0.06889716 0.06899955 0.06905734 0.0689659 0.06873734 0.06850384 0.06837849 0.06836911 0.06841303
 0.06843624 0.06836409 0.0681247 0.0677131 0.06726746 0.06701492 0.06708941 0.06743193 0.0678823 0.06830239
 0.06859803 0.06872187 0.06870952 0.06865012 0.06858305 0.06846723 0.06826777 0.06803913 0.0679095 0.06798322
 0.06824525 0.06856641 0.06881532 0.06894664 0.06898449 0.06897902 0.06899224 0.06905761 0.06912808 0.06911986
 0.06902522 0.06893471 0.06893414 0.06901145 0.06907508 0.06905316 0.06897245 0.06893251 0.06899628 0.06912693
 0.06924444 0.06931789 0.06937938 0.06946021 0.0695333 0.06952935 0.0694183 0.06926098 0.06915183 0.06912025
 0.06912673 0.06914632 0.06920349 0.06931352 0.06943231 0.06949295 0.06947907 0.06943919 0.06942249 0.06941618
 0.06936426 0.06924144 0.06908576 0.06895787 0.06888901 0.06887059 0.06887317 0.06886576 0.06882747 0.068753
 0.06865115 0.06853628 0.06841851 0.06830704 0.06822594 0.06821027 0.06826475 0.06833133 0.06832423 0.06820846
 0.06803322 0.06788149 0.06779204 0.06773563 0.06766149 0.06755371 0.0674367 0.06733899 0.06726792 0.06721607
 0.06717395 0.06713554 0.06710854 0.06712416 0.06721573 0.06737097 0.06751932 0.06759024 0.06758066 0.06754906
 0.06754984 0.06759281 0.0676578 0.06772567 0.06779829 0.06789905 0.06804163 0.068193 0.06829497 0.06833415
 0.06836189 0.06843526 0.06856866 0.06874564 0.06893577 0.06909126 0.06917128 0.06919033 0.06921355 0.06928962
 0.06940987 0.06954031 0.06966768 0.06980003 0.06994243 0.07009374 0.07026233 0.07046729 0.07071774 0.07099538
 0.07125947 0.07147275 0.07163264 0.07178391 0.07199208 0.07229115 0.07265215 0.07300474 0.07329389 0.07352155
 0.07373399 0.07396792 0.07421838 0.07446916 0.07473667 0.07505447 0.07542035 0.07579155 0.07613658 0.07646494
 0.07679912 0.07714074 0.07747651 0.07780663 0.07815471 0.07854454 0.07896514 0.07936542 0.07969478 0.07994991
 0.08017798 0.08043885 0.08076291 0.08112674 0.08146092 0.08170505 0.08187469 0.08205681 0.08231806 0.0826337
 0.0829315 0.08318953 0.08345596 0.08377448 0.08412443 0.08444859 0.08472024 0.08496539 0.08522408 0.08550006
 0.08575246 0.08593918 0.0860665 0.08618448 0.08633334 0.08651502 0.08672643 0.08698992 0.08732101 0.08768308
 0.08800805 0.08825608 0.088434 0.08856928 0.0886914 0.08882648 0.0889833 0.08914986 0.08931403 0.08947231
 0.08961234 0.08971715 0.08980165 0.08991571 0.09009279 0.09032121 0.09058054 0.09087472 0.09120574 0.09154426
 0.09186278 0.09218289 0.09254856 0.0929497 0.09330904 0.09356107 0.09371494 0.09382167 0.09391326 0.09400852
 0.09415108 0.09439068 0.09472638 0.09510303 0.095467 0.0958024 0.09611344 0.09639682 0.09663918 0.09682938
 0.09696661 0.09706271 0.09714288 0.09724335 0.09739965 0.09762302 0.09788437 0.09813027 0.09831773 0.09842488
 0.09843436 0.09833452 0.09815112 0.09795233 0.09779094 0.09764345 0.09742455 0.09706184 0.09654142 0.09588515
 0.09510869 0.0942198 0.09325067 0.09227574 0.09139009 0.09067167 0.09016715 0.08990963 0.08993165 0.09023984
 0.09077404 0.09140734 0.09199437 0.09241316 0.09256938 0.09239805 0.0918934 0.09112908 0.09022604 0.08929488
 0.08840364 0.08757558 0.08679955 0.08606177 0.08539546 0.08490206 0.08471698 0.08495936 0.08570991 0.08699809
 0.0887657 0.09083699 0.09295808 0.09490211 0.09655724 0.09792875 0.09908241 0.1000981 0.1010478 0.1019697
 0.1028494 0.1036492 0.1043596 0.1050077 0.1056178 0.1061845 0.1066801 0.1070707 0.1073342 0.107481
 0.1075487 0.1075658 0.1075386 0.1074801 0.1074265 0.1073967 0.1073481 0.1071923 0.10685 0.1062915
 0.1055497 0.1047353 0.1040609 0.1038341 0.1043603 0.1057723 0.1079168 0.1104182 0.112874 0.1150119
 0.1167207 0.1180101 0.118965 0.1197013 0.1203201 0.1208863 0.121433 0.121971 0.1224957 0.1229989
 0.1234786 0.1239395 0.1243899 0.1248359 0.1252704 0.125674 0.1260366 0.1263787 0.1267415 0.1271496
 0.1275885 0.1280205 0.1284265 0.1288234 0.1292316 0.1296341 0.12999 0.1302868 0.1305603 0.1308601
 0.1312127 0.1316112 0.1320205 0.1323937 0.132705 0.1329726 0.1332369 0.1335203 0.1338164 0.1341125
 0.1344076 0.134705 0.1350036 0.1353028 0.135611 0.1359352 0.1362613 0.1365569 0.1368041 0.1370214
 0.1372453 0.1374957 0.1377628 0.1380257 0.1382794 0.1385436 0.1388442 0.1391812 0.1395194 0.1398179
 0.1400661 0.1402869 0.14051 0.1407511 0.1410133 0.1412933 0.1415802 0.1418588 0.1421221 0.1423788
 0.1426418 0.1429142 0.1431883 0.1434548 0.1437098 0.1439553 0.1441965 0.1444382 0.1446859 0.1449519
 0.1452505 0.1455784 0.1459051 0.1461941 0.1464341 0.1466426 0.1468446 0.147055 0.147279 0.147519
 0.1477754 0.1480432 0.1483126 0.1485757 0.1488307 0.1490812 0.1493327 0.1495908 0.1498573 0.1501268
 0.1503918 0.1506532 0.1509194 0.1511942 0.1514696 0.1517328 0.1519786 0.1522117 0.1524414 0.1526746
 0.1529116 0.1531505 0.1533923 0.1536403 0.1538939 0.1541474 0.1543932 0.1546276 0.154853 0.1550766
 0.1553041 0.1555371 0.1557749 0.1560165 0.1562593 0.156501 0.1567422 0.1569853 0.1572309 0.1574805
 0.1577356 0.1579918 0.1582385 0.1584723 0.1587022 0.158939 0.1591831 0.159425 0.1596555 0.1598751
 0.1600947 0.1603246 0.1605649 0.1608081 0.1610471 0.1612783 0.1615021 0.1617237 0.1619518 0.1621913
 0.1624393 0.1626878 0.1629287 0.1631612 0.1633926 0.1636285 0.1638661 0.1641032 0.1643451 0.1645969
 0.1648525 0.1651005 0.1653357 0.1655605 0.1657801 0.1659975 0.1662134 0.1664303 0.1666526 0.1668797
 0.1671027 0.1673159 0.1675232 0.1677316 0.1679455 0.1681684 0.1684002 0.1686356 0.16887 0.1691034
 0.1693355 0.1695653 0.1697953 0.1700284 0.1702621 0.1704938 0.1707243 0.1709559 0.1711904 0.1714303
 0.1716746 0.1719176 0.1721572 0.1723959 0.1726323 0.1728645 0.1730979 0.1733378 0.1735824 0.1738287
 0.1740754 0.174316 0.1745449 0.174768 0.1749943 0.175225 0.17546 0.1756992 0.1759327 0.1761487
 0.1763534 0.1765653 0.1767928 0.1770294 0.1772642 0.1774915 0.1777166 0.1779484 0.1781844 0.1784161
 0.1786476 0.1788881 0.1791318 0.1793697 0.1796055 0.1798405 0.1800639 0.1802724 0.1804751 0.1806663
 0.1808017 0.180762 0.1802589 0.1787293 0.1753184 0.1690514 0.1592261 0.1458602 0.1298402 0.112602
 0.09560037 0.07993238 0.06623988 0.05480439 0.04568855 0.03882182 0.0340564 0.03126562 0.03044145 0.03179171
 0.03585654 0.04319558 0.05315746 0.06276888 0.06787601 0.06642047 0.06040882 0.05408635 0.05040549 0.04958429
 0.05035994 0.05164613 0.05310021 0.05493005 0.05748806 0.06087425 0.06491436 0.06958506 0.07523452 0.08213868
 0.08994768 0.09782378 0.105168 0.1120931 0.1191451 0.1266436 0.1343515 0.1417097 0.1482805 0.1539703
 0.1589546 0.1634781 0.1677087 0.1717174 0.1755348 0.1791543 0.1824505 0.1851449 0.186941 0.1877521
 0.1878051 0.187512 0.1872277 0.1871172 0.1872007 0.187456 0.1878619 0.188399 0.1890511 0.1897999
 0.1906109 0.1914413 0.1922609 0.1930553 0.1938146 0.19453 0.1951964 0.195812 0.1963791 0.1969026
 0.1973834 0.1978202 0.19822 0.1985967 0.1989596 0.1993095 0.1996454 0.1999638 0.2002584 0.2005261
 0.2007709 0.2009973 0.2012082 0.2014106 0.2016137 0.2018218 0.2020334 0.2022439 0.2024476 0.2026416
 0.2028299 0.2030194 0.203213 0.2034112 0.2036146 0.2038207 0.2040231 0.2042184 0.2044086 0.204596
 0.2047835 0.2049763 0.205177 0.205381 0.2055821 0.2057795 0.2059761 0.2061738 0.2063729 0.2065706
 0.2067643 0.2069578 0.2071596 0.2073736 0.2075971 0.2078252 0.2080497 0.2082618 0.2084658 0.2086775
 0.2088976 0.2091021 0.2092717 0.2094211 0.2095887 0.2098 0.2100429 0.2102804 0.2104897 0.2106812
 0.2108774 0.2110839 0.2112892 0.2114804 0.2116569 0.2118414 0.2120676 0.2123407 0.2126262 0.2128926
 0.213142 0.213385 0.21362 0.2138492 0.2140792 0.2142965 0.2144727 0.2146132 0.2147795 0.2150422
 0.2154061 0.2157927 0.2161144 0.2163568 0.2165723 0.2168147 0.2171055 0.2174173 0.2176489 0.2176898
 0.2175818 0.2175559 0.2178249 0.2183754 0.2190128 0.2195618 0.2199752 0.2202947 0.2205675 0.2207966
 0.2209424 0.2209736 0.2209407 0.2209957 0.2212883 0.2218106 0.2223887 0.2228591 0.2231972 0.2234516
 0.2236544 0.223825 0.2239361 0.2238488 0.2234572 0.2229695 0.2228647 0.2234284 0.224427 0.2253568
 0.2259434 0.2262832 0.2265629 0.2268305 0.2270504 0.2271399 0.2268514 0.2259108 0.2245364 0.2235913
 0.2238704 0.2253003 0.2270726 0.2284562 0.2292634 0.2296775 0.2299357 0.2301673 0.230293 0.2300325
 0.2292118 0.2281718 0.2276841 0.2282401 0.2295054 0.2306871 0.2313479 0.231635 0.2318558 0.232128
 0.2323018 0.2319148 0.2304496 0.2281012 0.2261697 0.2261504 0.2282705 0.2312152 0.2334329 0.2344749
 0.2348713 0.2349778 0.2344441 0.2328345 0.2302804 0.2274184 0.2251759 0.2246392 0.2263413 0.2293675
 0.2318681 0.232878 0.2331348 0.2338665 0.2353316 0.2368149 0.2375601 0.2373512 0.236398 0.234942
 0.2331426 0.2314403 0.2307708 0.2319089 0.2345309 0.2373303 0.2392201 0.2401557 0.2405704 0.2401045
 0.237343 0.2315104 0.224609 0.2208799 0.223062 0.2295256 0.2360267 0.2398919 0.2414941 0.24225
 0.2427085 0.242406 0.2401535 0.234689 0.2266718 0.2199341 0.2188983 0.224211 0.2320125 0.2375339
 0.238342 0.2346042 0.2282428 0.2223663 0.2199983 0.2222421 0.2277953 0.2342409 0.2395028 0.2424149
 0.2427056 0.240887 0.2382191 0.2364043 0.2363581 0.2368592 0.235469 0.2316082 0.2275212 0.2249888
 0.2225804 0.2183044 0.213957 0.213949 0.2195661 0.2268264 0.2309568 0.2312385 0.2301719 0.228932
 0.2253728 0.217118 0.2060338 0.1983393 0.1991651 0.207234 0.2159949 0.2200222 0.2193211 0.2174584
 0.216793 0.2160919 0.212337 0.2046987 0.1965657 0.1927226 0.1942907 0.1977297 0.1990473 0.1970185
 0.1918329 0.1837712 0.1754225 0.1725421 0.1792063 0.1928034 0.2060517 0.2129963 0.211229 0.2005976
 0.1839605 0.168851 0.163846 0.1709327 0.1831231 0.1908835 0.1897232 0.1810425 0.16804 0.1534618
 0.1408238 0.1348655 0.1387255 0.1507469 0.1645527 0.1722759 0.1689203 0.156191 0.1427333 0.1379203
 0.1433923 0.1519649 0.1556794 0.1530126 0.1477867 0.1441826 0.1442857 0.1477797 0.1523249 0.155729
 0.1577048 0.1575207 0.1516471 0.1380347 0.1219274 0.1124525 0.1131263 0.1200314 0.1291394 0.1399128
 0.1505037 0.1552852 0.1511924 0.1435598 0.1416089 0.1486723 0.1593082 0.1659122 0.1662402 0.1638646
 0.162632 0.162507 0.1615219 0.1603258 0.1623417 0.1690471 0.1773804 0.183149 0.185386 0.1859703
 0.1864248 0.1867614 0.1865676 0.1857018 0.1842269 0.182516 0.1811342 0.1801996 0.1792706 0.1779986
 0.1761297 0.1725785 0.1656839 0.1556424 0.1460136 0.140948 0.1408378 0.1425907 0.1441567 0.145734
 0.1456207 0.1389951 0.1242642 0.108305 0.1014592 0.1075412 0.1210155 0.1333305 0.1394679 0.1383608
 0.1303475 0.1173679 0.1050624 0.1010188 0.1086054 0.1237699 0.1393973 0.1514022 0.1591447 0.1620937
 0.1592424 0.1516546 0.1434058 0.139261 0.1418287 0.1504255 0.1612406 0.168218 0.1660076 0.1553388
 0.1455106 0.1475153 0.1624009 0.1794235 0.1881143 0.1889153 0.1888638 0.190641 0.1912636 0.1898818
 0.1908721 0.1978424 0.2083 0.2160853 0.2167772 0.209447 0.1960461 0.1817826 0.1737842 0.1754557
 0.1826977 0.1884252 0.1894529 0.1860962 0.1779787 0.1657824 0.155725 0.1558322 0.1666291 0.179998
 0.1884133 0.1918207 0.1942919 0.1969818 0.1967185 0.1908294 0.1816219 0.1749627 0.1744792 0.1783834
 0.1824763 0.1845543 0.1844791 0.1817096 0.1756206 0.1682602 0.1643766 0.1673195 0.1755874 0.184236
 0.1893091 0.1903312 0.1891368 0.1875024 0.1859484 0.1839049 0.1809183 0.1781942 0.1783487 0.1825834
 0.1887064 0.1933461 0.1957941 0.1982495 0.2023907 0.2070838 0.2097772 0.2093048 0.207014 0.2055977
 0.2069191 0.2105112 0.2139144 0.2147701 0.2130611 0.2113394 0.2123784 0.2165172 0.221617 0.2254628
 0.227562 0.2286869 0.2295696 0.2302746 0.2301685 0.2284137 0.2251892 0.2224084 0.2223787 0.2255212
 0.2299662 0.2334682 0.2352003 0.2356536 0.2354458 0.2346681 0.2332188 0.2313834 0.2298548 0.2292017
 0.2294603 0.2302726 0.2312572 0.2321742 0.2329051 0.2334339 0.2338151 0.234095 0.2342929 0.2344502
 0.2346097 0.2347367 0.2347506 0.2346723 0.2346559 0.2348145 0.2350718 0.2352472 0.2352276 0.2349743
 0.2344176 0.2334757 0.2321836 0.2306916 0.2290978 0.2273809 0.2255911 0.2240726 0.2233716 0.2238289
 0.225261 0.2270743 0.2286808 0.229799 0.2304378 0.2307315 0.2308298 0.2308611 0.2309058 0.2309798
 0.2310573 0.2311145 0.2311505 0.2311735 0.2311881 0.231209 0.2312727 0.2314093 0.2315998 0.2317788
 0.2318819 0.2318876 0.2318188 0.2317136 0.2315886 0.2314174 0.2311456 0.2307296 0.2301679 0.2295022
 0.2287934 0.2280912 0.227406 0.2267005 0.2259198 0.2250299 0.2240138 0.2228389 0.2214769 0.2199758
 0.2184674 0.2170642 0.2157744 0.2145322 0.2132734 0.2119583 0.2105659 0.2091034 0.2076032 0.2060897
 0.2045609 0.2030078 0.2014358 0.1998603 0.1982898 0.1967194 0.1951351 0.1935212 0.1918649 0.1901554
 0.1883743 0.1864742 0.1843666 0.1819437 0.1791177 0.1758397 0.1721004 0.1679448 0.1634923 0.158924
 0.1544336 0.1501777 0.1462583 0.1427428 0.1396938 0.137173 0.1352193 0.1338413 0.133037 0.1328078
 0.1331517 0.1340486 0.1354436 0.1372367 0.1392911 0.1414579 0.1435931 0.145574 0.14734 0.1489275
 0.1504437 0.1519801 0.1535424 0.155064 0.1564783 0.1577634 0.158917 0.1599192 0.1607419 0.1613879
 0.1618997 0.1623317 0.1627207 0.1630749 0.1633822 0.1636341 0.1638454 0.1640516 0.1642878 0.164568
 0.1648827 0.1652223 0.1656008 0.1660489 0.1665865 0.1672146 0.1679262 0.168705 0.1695241 0.1703655
 0.1712411 0.1721884 0.1732547 0.1744782 0.1758641 0.1773758 0.1789629 0.1805934 0.1822449 0.1838757
 0.1854177 0.1867956 0.1879567 0.1888914 0.1896318 0.1902304 0.1907358 0.191179 0.1915681 0.1919022
 0.1921882 0.192431 0.1926119 0.1927026 0.1926967 0.1926079 0.1924471 0.1922254 0.1919679 0.1916986
 0.1914215 0.1911334 0.1908465 0.1905876 0.1903762 0.1902054 0.1900437 0.1898603 0.1896496 0.1894217
 0.1891747 0.1888839 0.1885101 0.1880178 0.1873935 0.1866514 0.1858116 0.1848767 0.1838378 0.182693
 0.1814528 0.180135 0.1787573 0.1773289 0.175847 0.1743026 0.17268 0.1709625 0.1691627 0.1673417
 0.1655785 0.1639189 0.1623638 0.1608928 0.159482 0.1581136 0.1567812 0.1554857 0.1542304 0.1530242
 0.1518766 0.1507849 0.1497392 0.1487464 0.1478294 0.1470042 0.1462699 0.1456193 0.1450456 0.1445427
 0.1441067 0.1437332 0.1434194 0.143176 0.1430228 0.1429578 0.142936 0.1428905 0.1427727 0.1425789
 0.1423505 0.1421433 0.1419866 0.1418716 0.1417677 0.1416336 0.141415 0.1410502 0.1404763 0.1396325
 0.1384828 0.137051 0.1354192 0.1336959 0.1319952 0.1304282 0.1290774 0.127975 0.1271079 0.1264324
 0.1258879 0.1254239 0.125033 0.1247579 0.1246559 0.1247303 0.1248824 0.1249677 0.1249324 0.1248739
 0.1249461 0.1252318 0.1257078 0.1262804 0.1268348 0.1272877 0.1276154 0.1278315 0.127956 0.1280087
 0.1280011 0.1279271 0.1277799 0.1275688 0.1273035 0.1269822 0.1266039 0.1261705 0.1256789 0.1251272
 0.1245123 0.1238132 0.123008 0.1220998 0.1210895 0.1199647 0.1187857 0.1177444 0.1170717 0.1168921
 0.11717 0.1177491 0.1184492 0.1191689 0.1198548 0.1203593 0.1204888 0.1203238 0.1203718 0.1211999
 0.1228895 0.1249404 0.1267078 0.1278472 0.1283489 0.1283097 0.1278065 0.1269011 0.125613 0.1239138
 0.1218239 0.1194491 0.1168894 0.1142316 0.1116367 0.1092981 0.1073249 0.1057402 0.1045201 0.103662
 0.103255 0.1029938 0.1013072 0.09616345 0.08821552 0.08224048 0.08314005 0.09041888 0.09850568 0.1026457
 0.1027075 0.1012276 0.09994671 0.09911431 0.09863807 0.09865156 0.09928048 0.100407 0.1016756 0.1027011
 0.1033211 0.1035881 0.1035044 0.1027956 0.1008476 0.09691835 0.09073597 0.08303319 0.07529387 0.06887153
 0.06438145 0.06172902 0.06039937 0.05975083 0.05932983 0.05907813 0.05924154 0.06007127 0.06161641 0.06376445
 0.06637029 0.06922933 0.07198234 0.07425629 0.07595624 0.07727206 0.07836406 0.07918024 0.07959542 0.07958783
 0.07924844 0.07871182 0.07809906 0.07746379 0.07676063 0.07589583 0.07486463 0.07385091 0.07311819 0.07276119
 0.07263759 0.07256983 0.07250837 0.07247193 0.072455 0.07244039 0.07242459 0.07242667 0.07251807 0.07278894
 0.07323032 0.07370123 0.07404664 0.07421726 0.07427535 0.07428724 0.07419033 0.07384163 0.07328038 0.07279299
 0.07253108 0.07221753 0.07149559 0.07047693 0.06968208 0.06947029 0.06972778 0.07008969 0.07028712 0.07026958
 0.0701629 0.07019787 0.0705605 0.07116765</values></Ydata></ScSm><ScRf><Ydata ylabel="Single channel"><values byteorder="INTEL" format="FLOAT32" numvalues="1820"> 0.06082978 0.06098998 0.06107637 0.06109139 0.06106839 0.06106091 0.06111917 0.06126082 0.0614575 0.06164934
 0.06178382 0.06184858 0.06185964 0.06182478 0.06175001 0.06168348 0.06170771 0.06186056 0.06208181 0.06225356
 0.06229557 0.062236 0.06219424 0.06226274 0.06238233 0.06236085 0.06205452 0.06153361 0.06103662 0.06075045
 0.06069334 0.06085404 0.06131085 0.06201382 0.06253502 0.06237189 0.0615772 0.06079321 0.06053755 0.06070558
 0.06087048 0.06078214 0.06044403 0.06001153 0.0598368 0.0603772 0.06174273 0.06332036 0.06399521 0.06285679
 0.05985094 0.055981 0.05293303 0.0521699 0.05390181 0.05679889 0.05898917 0.05955097 0.0589535 0.05810468
 0.05737257 0.05670382 0.05626481 0.05648387 0.05745887 0.0585508 0.05871655 0.05740765 0.05522379 0.05348274
 0.05301698 0.05365401 0.05492412 0.05657136 0.05784258 0.05708012 0.05335242 0.04852003 0.04640771 0.04916944
 0.05498796 0.05984616 0.06109857 0.05896401 0.05536661 0.05233597 0.05122825 0.05236811 0.05501252 0.05796844
 0.06030481 0.06138165 0.06069496 0.05831855 0.05532731 0.05327233 0.05322858 0.05537559 0.05895775 0.06234902
 0.06379172 0.06269486 0.06002605 0.05728628 0.05552216 0.05533015 0.05700228 0.06022693 0.06406321 0.06748369
 0.0697954 0.07071953 0.07045506 0.06955147 0.06848837 0.06758849 0.06730524 0.06794795 0.06893606 0.06901674
 0.06762911 0.06565805 0.06452632 0.06472412 0.06541649 0.06545553 0.06454227 0.06304854 0.06088474 0.05746131
 0.05305217 0.04917248 0.04706368 0.0467414 0.04789723 0.05038606 0.05316111 0.05420955 0.052756 0.05066992
 0.05061007 0.053186 0.05664554 0.05901556 0.05993033 0.06048834 0.0618417 0.06401974 0.06578191 0.06554922
 0.06296796 0.05979489 0.05865701 0.06047045 0.06355721 0.06571017 0.06652413 0.06715135 0.06829163 0.06910912
 0.06810579 0.0649026 0.06118883 0.05967034 0.06170959 0.06596237 0.06935407 0.06935187 0.06567127 0.06034355
 0.0561334 0.05462321 0.05579691 0.05910344 0.0640631 0.0696997 0.07428548 0.07630825 0.07556676 0.07309614
 0.06998312 0.06635544 0.06193874 0.05773143 0.05622266 0.05904701 0.06489771 0.0706131 0.07399856 0.0749255
 0.0741052 0.07173689 0.06771509 0.06294848 0.0597917 0.0602154 0.06343137 0.06633631 0.06675719 0.0654342
 0.06443307 0.06457463 0.06512167 0.06535815 0.06562198 0.06673194 0.06881054 0.07097256 0.07217585 0.07216424
 0.07151513 0.07097092 0.07076496 0.07044912 0.06952892 0.06845133 0.06855191 0.07058637 0.07368501 0.0762458
 0.07754411 0.07799461 0.07806735 0.07745913 0.07552439 0.07247695 0.06988116 0.06949091 0.07155488 0.0746579
 0.07719085 0.07850973 0.07879633 0.07847936 0.0779406 0.07738727 0.07691339 0.07676475 0.07728158 0.07840854
 0.0795783 0.08027904 0.08047459 0.08034796 0.07993752 0.07921872 0.07837147 0.07777757 0.07774571 0.0782817
 0.0791364 0.08002502 0.08072899 0.08105731 0.08091179 0.08043426 0.07992782 0.07958306 0.07940538 0.07940333
 0.07966155 0.08017265 0.080745 0.08116032 0.08134867 0.08136898 0.08128981 0.08113974 0.08094057 0.08075454
 0.08069013 0.08082654 0.08111183 0.08139415 0.08159953 0.08180781 0.08208488 0.08232179 0.08234745 0.08215789
 0.08193312 0.08184183 0.08190357 0.0820325 0.08213598 0.08213517 0.08195196 0.08157578 0.08116186 0.08097464
 0.0811746 0.08170038 0.08236828 0.08300427 0.08347361 0.08370699 0.08375467 0.08373683 0.08370437 0.08360618
 0.08340642 0.08318397 0.08309998 0.08327508 0.08368453 0.08417097 0.08456983 0.08480994 0.08491031 0.08494756
 0.08502962 0.08521156 0.08541247 0.08549128 0.08542553 0.08534764 0.08538425 0.08551218 0.08559695 0.08555059
 0.08543396 0.08539754 0.08552499 0.08575711 0.0859776 0.08614322 0.08630538 0.08651493 0.08672538 0.08681034
 0.08669919 0.08647738 0.08630528 0.08624905 0.08625656 0.08629349 0.08641069 0.08664042 0.08689902 0.08705649
 0.08708024 0.08706024 0.08709028 0.08715826 0.08717001 0.08706248 0.08687088 0.08669293 0.08660935 0.08663575
 0.08672465 0.08680038 0.08680514 0.08673078 0.08661442 0.08650217 0.08641791 0.08637287 0.086399 0.0865415
 0.08678922 0.08702572 0.08709346 0.08693422 0.08665523 0.08643546 0.08636187 0.08636472 0.08630867 0.08612853
 0.08586986 0.08562091 0.08543257 0.08530028 0.08519644 0.08510728 0.08505114 0.08507016 0.08518675 0.08534884
 0.0854353 0.08535112 0.08511916 0.08485691 0.08466893 0.08458167 0.08456035 0.08455396 0.08453856 0.0845426
 0.08460815 0.08471078 0.08476026 0.08470662 0.08460447 0.08455151 0.08460519 0.0847657 0.08497956 0.08514392
 0.08517048 0.08507584 0.08497079 0.0849445 0.08499352 0.08506896 0.08514773 0.08523517 0.08533147 0.08543096
 0.08554789 0.08571558 0.08595001 0.08622153 0.08646777 0.08663747 0.08673161 0.086812 0.08696352 0.08723078
 0.08758068 0.0879271 0.08819801 0.08838678 0.08854204 0.08870827 0.08888739 0.08906848 0.0892745 0.08954555
 0.0898799 0.09022649 0.09054138 0.09082507 0.09110072 0.09138112 0.09166858 0.0919759 0.09233408 0.09276387
 0.09322896 0.09363322 0.09389417 0.09402289 0.09412088 0.09430345 0.0946229 0.09502956 0.09539136 0.09559445
 0.09566067 0.09573521 0.09592634 0.09619374 0.09643554 0.09664793 0.09693304 0.09735362 0.09783624 0.09823949
 0.09849144 0.09864298 0.0987967 0.09899651 0.09919329 0.09932002 0.09938322 0.09945296 0.09957263 0.0997277
 0.09991597 0.1001901 0.1005851 0.1010393 0.1014389 0.1017234 0.1019142 0.1020597 0.1021886 0.1023008
 0.1023742 0.1023948 0.1023962 0.1024373 0.1025268 0.1026078 0.102638 0.1026505 0.1027106 0.1028486
 0.1030613 0.1033428 0.1036717 0.1039947 0.1042727 0.1045403 0.1048674 0.1052483 0.105574 0.1057481
 0.1057941 0.1058054 0.1058274 0.1058502 0.1058949 0.1060296 0.1062881 0.1066273 0.1069837 0.1073346
 0.1076887 0.1080436 0.108366 0.108603 0.1087157 0.1087139 0.1086654 0.1086638 0.1087806 0.10903
 0.1093631 0.1096989 0.1099743 0.1101632 0.1102543 0.1102441 0.1101753 0.1101508 0.1102541 0.1104513
 0.1106046 0.110591 0.1103813 0.110008 0.1094998 0.1088753 0.1081812 0.1075039 0.1069352 0.1065301
 0.1063042 0.1062719 0.1064684 0.1069114 0.1075435 0.1082435 0.1088982 0.1094308 0.1097592 0.1097837
 0.1094607 0.1088626 0.1081351 0.1074051 0.1067373 0.1061382 0.1055707 0.1049988 0.1044668 0.1041303
 0.1041814 0.1047349 0.1057751 0.1071707 0.1087136 0.1101783 0.1114085 0.112379 0.1131717 0.1138839
 0.1145646 0.1152294 0.115896 0.1165708 0.1172169 0.1177788 0.1182458 0.118662 0.1190699 0.1194684
 0.1198264 0.1201165 0.1203414 0.1205378 0.1207395 0.1209224 0.1210133 0.1209744 0.1208529 0.1207247
 0.120612 0.1204714 0.1202402 0.1198856 0.1194421 0.1190343 0.1188544 0.1190775 0.1197611 0.1208122
 0.1220586 0.123358 0.1246286 0.1257934 0.1267494 0.1274282 0.1278625 0.1281595 0.1284208 0.1286983
 0.1290004 0.1293121 0.1296133 0.1298963 0.1301724 0.1304627 0.1307842 0.1311359 0.1314892 0.1318022
 0.1320582 0.132289 0.132555 0.1328919 0.1332736 0.1336364 0.133949 0.1342456 0.1345683 0.1348964
 0.135168 0.135364 0.1355328 0.135737 0.1360094 0.1363517 0.1367311 0.1370792 0.1373361 0.1375062
 0.137652 0.1378302 0.1380515 0.1382983 0.138554 0.1388086 0.1390575 0.1393113 0.1395947 0.1399149
 0.1402301 0.1404748 0.1406278 0.1407409 0.1408876 0.1410929 0.1413244 0.1415398 0.1417312 0.1419309
 0.1421804 0.1424876 0.1428086 0.1430798 0.1432708 0.1434042 0.143527 0.1436743 0.1438576 0.1440706
 0.1442943 0.144507 0.1446995 0.1448844 0.1450836 0.1453052 0.1455374 0.1457619 0.1459707 0.1461681
 0.1463626 0.146561 0.1467716 0.1470094 0.147288 0.1475969 0.1478937 0.1481321 0.1483006 0.1484254
 0.1485414 0.1486713 0.1488262 0.1490098 0.1492147 0.1494256 0.1496313 0.1498332 0.1500392 0.1502514
 0.1504629 0.1506667 0.1508638 0.1510603 0.1512627 0.1514785 0.1517131 0.1519608 0.1522024 0.1524205
 0.1526143 0.1527977 0.1529857 0.1531811 0.1533736 0.1535516 0.1537172 0.1538867 0.154076 0.1542864
 0.154506 0.1547188 0.1549163 0.1551003 0.1552795 0.1554618 0.1556517 0.1558509 0.1560578 0.1562684
 0.1564779 0.156682 0.1568776 0.1570655 0.1572515 0.1574418 0.1576379 0.1578376 0.1580378 0.1582365
 0.1584341 0.1586319 0.1588299 0.1590265 0.1592216 0.1594182 0.1596207 0.1598304 0.1600406 0.1602417
 0.1604329 0.160625 0.1608267 0.1610356 0.1612467 0.1614606 0.1616788 0.1618971 0.16211 0.1623155
 0.1625157 0.1627174 0.1629293 0.1631542 0.1633869 0.1636201 0.1638482 0.1640673 0.1642745 0.1644662
 0.164639 0.1647957 0.1649496 0.1651137 0.1652912 0.1654785 0.1656708 0.1658622 0.1660498 0.1662375
 0.1664306 0.1666277 0.1668245 0.1670198 0.1672147 0.1674131 0.1676212 0.1678379 0.1680522 0.168255
 0.1684483 0.1686385 0.1688308 0.16903 0.169238 0.1694524 0.1696713 0.1698925 0.1701073 0.1703086
 0.1705028 0.1707023 0.1709118 0.1711273 0.1713418 0.1715484 0.1717474 0.1719499 0.1721632 0.1723824
 0.172603 0.1728274 0.1730535 0.1732731 0.1734821 0.1736827 0.17388 0.1740824 0.1742958 0.1745154
 0.1747352 0.1749577 0.1751829 0.175403 0.1756163 0.1758301 0.1760457 0.1762588 0.1764689 0.1766761
 0.1768781 0.1770797 0.1772851 0.1774776 0.1776067 0.1775535 0.1770348 0.1754965 0.172097 0.1658754
 0.1561405 0.1429144 0.1270784 0.1100559 0.09328318 0.07783905 0.06435357 0.05310328 0.04414816 0.03741366
 0.03274685 0.03001393 0.02920047 0.03051581 0.03450916 0.04174528 0.05157487 0.06104664 0.06605755 0.06459348
 0.05865391 0.05242784 0.04881192 0.04801003 0.0487815 0.0500641 0.05151788 0.05333542 0.05585414 0.05917546
 0.06314278 0.0677471 0.07332886 0.08014449 0.08784115 0.09559935 0.1028367 0.1096686 0.1166393 0.1240665
 0.1317023 0.1389742 0.1454428 0.1510268 0.1559133 0.160352 0.1645109 0.1684599 0.172229 0.1758131
 0.1790866 0.1817649 0.1835451 0.1843408 0.1843863 0.1840985 0.1838305 0.1837403 0.1838432 0.1841176
 0.1845439 0.1850982 0.1857569 0.1865005 0.1873027 0.1881305 0.1889576 0.1897664 0.1905396 0.1912632
 0.1919321 0.1925468 0.1931117 0.1936343 0.1941193 0.1945662 0.1949777 0.1953615 0.195723 0.196065
 0.1963938 0.1967136 0.1970176 0.1972949 0.1975436 0.1977724 0.1979924 0.1982104 0.198428 0.1986442
 0.1988592 0.1990724 0.1992814 0.1994861 0.1996879 0.1998863 0.2000802 0.2002748 0.200475 0.2006752
 0.2008656 0.2010493 0.2012381 0.2014352 0.2016316 0.201822 0.2020125 0.2022133 0.2024248 0.2026339
 0.2028257 0.2030012 0.2031765 0.2033639 0.2035628 0.2037681 0.2039789 0.2041942 0.2044116 0.2046296
 0.2048446 0.2050522 0.2052565 0.2054671 0.2056799 0.2058726 0.2060306 0.206169 0.2063234 0.2065183
 0.2067465 0.2069788 0.2071968 0.2074079 0.207626 0.2078491 0.2080605 0.2082455 0.2084066 0.2085709
 0.2087736 0.2090196 0.209278 0.2095225 0.2097563 0.2099895 0.2102243 0.2104644 0.2107055 0.2109166
 0.2110648 0.2111692 0.2113069 0.2115527 0.2119099 0.2123007 0.2126365 0.2128942 0.2131143 0.2133453
 0.2136129 0.2138992 0.2141135 0.21415 0.2140459 0.2140219 0.2142811 0.2148018 0.2153857 0.2158668
 0.2162202 0.2165075 0.2167767 0.2170144 0.2171628 0.2171828 0.2171266 0.2171517 0.2174155 0.2179196
 0.2184917 0.2189577 0.2192822 0.2195191 0.2197132 0.2198828 0.2199866 0.2198813 0.2194722 0.2189772
 0.2188673 0.2194118 0.2203721 0.2212564 0.2218086 0.2221362 0.2224227 0.2227003 0.2229144 0.2229762
 0.2226526 0.221693 0.2203258 0.2194041 0.2197038 0.221141 0.2229142 0.2243074 0.2251375 0.2255739
 0.2258355 0.2260463 0.2261379 0.225848 0.2250188 0.2239973 0.2235458 0.2241357 0.2254153 0.2265871
 0.227223 0.2274887 0.2277068 0.2279954 0.2281926 0.2278254 0.2263786 0.2240566 0.2221612 0.2221753
 0.2243127 0.2272601 0.2294745 0.2305069 0.2308811 0.2309566 0.2303985 0.2287829 0.2262447 0.2234183
 0.2212217 0.2207238 0.2224449 0.225474 0.2279778 0.2290026 0.2292832 0.2300364 0.2315101 0.2329848
 0.2337107 0.2334927 0.2325635 0.2311685 0.2294461 0.2278095 0.2271788 0.2283267 0.2309359 0.2337119
 0.2355803 0.2365057 0.2369253 0.2364834 0.2337737 0.228029 0.2212377 0.217598 0.2198124 0.226262
 0.232744 0.2366049 0.2382066 0.2389585 0.2394229 0.2391535 0.2369668 0.2315969 0.2236912 0.2170579
 0.2160914 0.2214263 0.2292212 0.2347451 0.2355916 0.2319287 0.225661 0.2198739 0.2175745 0.2198686
 0.2254708 0.2319716 0.2372874 0.2402491 0.2405947 0.2388424 0.2362505 0.2345221 0.2345701 0.2351628
 0.2338611 0.2300997 0.2261284 0.2237157 0.2214236 0.2172741 0.2130807 0.2132542 0.2190619 0.2265042
 0.2308097 0.2312737 0.2303931 0.2293171 0.2258836 0.2177348 0.2067884 0.1993247 0.2004994 0.2089875
 0.2181602 0.2225772 0.2223142 0.2210146 0.2210347 0.2210375 0.2178626 0.2106386 0.2028947 0.1996083
 0.2019195 0.2061144 0.2080351 0.2064074 0.2014011 0.1932917 0.184836 0.1821549 0.1895855 0.2043859
 0.2188699 0.2267333 0.2253769 0.2145609 0.1973138 0.1817816 0.1772671 0.185903 0.2000626 0.2093695
 0.2089365 0.2002641 0.1868113 0.1716121 0.1586709 0.1534433 0.1595947 0.1752696 0.1930563 0.2036564
 0.2010503 0.1872103 0.1725418 0.1684021 0.1767443 0.1887357 0.1946245 0.1925803 0.1873468 0.1841578
 0.185716 0.1916565 0.1989352 0.2047095 0.208607 0.2095023 0.2024691 0.1846954 0.1633011 0.1506374
 0.1514719 0.1605707 0.1725586 0.1867356 0.2006221 0.2066679 0.200758 0.1899979 0.1866492 0.195114
 0.2081742 0.2158191 0.2151512 0.2109039 0.2081545 0.2069325 0.2047359 0.2023576 0.2041039 0.2118416
 0.2217333 0.2285235 0.2310105 0.2315699 0.2321314 0.2327101 0.2327619 0.2320739 0.2307053 0.2291298
 0.228083 0.2277412 0.2275634 0.2271167 0.2260613 0.2229105 0.2153476 0.2034714 0.1918633 0.1859598
 0.1862974 0.1888732 0.1911035 0.1933371 0.1933126 0.1845937 0.1650655 0.1439104 0.1349287 0.1432062
 0.16133 0.1778399 0.1860036 0.1844013 0.1735188 0.1559585 0.1391574 0.133042 0.1419323 0.1603995
 0.179068 0.1926897 0.2007172 0.2028118 0.197868 0.1872212 0.1759183 0.1698208 0.1720397 0.181579
 0.1936625 0.2009523 0.197151 0.18328 0.1704167 0.1715002 0.1877501 0.2066087 0.2158503 0.2159458
 0.2150521 0.2163323 0.2164193 0.2143557 0.2151382 0.2228871 0.2347943 0.2438937 0.2451738 0.2375486
 0.2232024 0.2080842 0.2003536 0.2038004 0.2134674 0.220979 0.222609 0.2187942 0.2092087 0.1948133
 0.183053 0.183386 0.1963395 0.2122756 0.2223395 0.2265225 0.2296462 0.2330445 0.2329346 0.2261441
 0.2154155 0.2077124 0.2073388 0.2121899 0.2173348 0.2202167 0.2206722 0.2179844 0.2113309 0.2031492
 0.1991735 0.2034567 0.2141564 0.2252211 0.231777 0.2331846 0.2316465 0.2293404 0.2269372 0.2237689
 0.2192959 0.215004 0.2141111 0.2181395 0.2245151 0.229222 0.2313967 0.2336146 0.237821 0.2426406
 0.2450542 0.2437042 0.2401923 0.2376797 0.2383496 0.2416805 0.2448391 0.2450887 0.2423875 0.2396764
 0.2401782 0.2443271 0.2497086 0.2538069 0.2560515 0.2572945 0.2583376 0.2592288 0.2592248 0.2573514
 0.2537875 0.2506769 0.2506151 0.2540785 0.2589715 0.2627953 0.2646713 0.2651985 0.2650735 0.2643619
 0.2629144 0.2610284 0.2594528 0.2587947 0.2590863 0.2599401 0.2609444 0.2618425 0.2625176 0.2629708
 0.2632747 0.2634801 0.2635979 0.2636644 0.2637302 0.26377 0.2637095 0.2635839 0.2635707 0.2637915
 0.2641478 0.2644235 0.2644826 0.2642754 0.2637258 0.26276 0.2614458 0.25997 0.2584333 0.2567853
 0.2550668 0.2536722 0.2532315 0.2541361 0.2561746 0.2586536 0.2608675 0.2624549 0.2634065 0.2638789
 0.2640556 0.2640958 0.2640984 0.2640759 0.2639826 0.2637817 0.2634843 0.263128 0.2627415 0.2623462
 0.2619781 0.261674 0.2614266 0.2611724 0.2608395 0.2604018 0.2598878 0.2593472 0.2588056 0.2582373
 0.2575823 0.256798 0.2558984 0.2549466 0.2540192 0.2531686 0.2523947 0.2516479 0.2508733 0.2500492
 0.2491636 0.2481729 0.2470409 0.2458317 0.244713 0.2438245 0.2431588 0.2425881 0.2419764 0.2412449
 0.240371 0.2393782 0.2383204 0.2372431 0.2361538 0.235035 0.233867 0.2326286 0.2312982 0.2298664
 0.2283395 0.2267319 0.2250696 0.2233887 0.2216997 0.2199444 0.2179978 0.2157101 0.2129445 0.2096052
 0.2056691 0.2012129 0.196408 0.1914692 0.1865909 0.181918 0.1775663 0.1736477 0.1702666 0.1675011
 0.1653988 0.1639856 0.1632738 0.1632669 0.1639587 0.1653194 0.167279 0.1697269 0.1725226 0.1755077
 0.1785115 0.1813693 0.1839729 0.186324 0.1885163 0.1906307 0.1926538 0.1945108 0.1961479 0.197558
 0.1987533 0.1997536 0.2005932 0.2013098 0.2019256 0.2024464 0.202878 0.2032359 0.2035407 0.2038052
 0.2040309 0.2042219 0.204397 0.2045832 0.2047995 0.2050495 0.2053249 0.205625 0.2059732 0.2063999
 0.2069038 0.2074484 0.2080039 0.2085723 0.2091692 0.2098073 0.210506 0.211299 0.2122243 0.2133096
 0.2145596 0.2159425 0.2173828 0.2187733 0.2200037 0.2209952 0.2217233 0.2222089 0.222489 0.2225944
 0.2225416 0.2223383 0.2220011 0.2215687 0.2210846 0.220566 0.2200052 0.2193982 0.2187548 0.2180842
 0.2173898 0.2166829 0.2159858 0.2153151 0.2146689 0.214034 0.2134009 0.2127711 0.2121528 0.2115518
 0.2109677 0.2103947 0.2098272 0.2092615 0.2086914 0.2081006 0.2074594 0.2067346 0.2059067 0.2049748
 0.2039459 0.2028245 0.2016173 0.2003364 0.1989895 0.1975698 0.1960685 0.1944907 0.1928501 0.1911468
 0.1893559 0.1874497 0.1854372 0.1833831 0.1813778 0.1794912 0.177754 0.1761663 0.174703 0.1733228
 0.171992 0.1706993 0.1694461 0.1682403 0.1670978 0.1660314 0.1650334 0.1640875 0.1632003 0.1624042
 0.1617236 0.1611458 0.1606306 0.1601476 0.1596994 0.1593086 0.1590008 0.1588041 0.1587392 0.1587865
 0.1588773 0.1589339 0.1589128 0.1588151 0.1586771 0.1585505 0.1584684 0.1584246 0.1583843 0.1583006
 0.1581207 0.1577832 0.1572138 0.1563382 0.1551261 0.1536202 0.151907 0.1500812 0.1482556 0.1465635
 0.145108 0.1439313 0.143031 0.1423687 0.1418665 0.1414514 0.1411155 0.1409163 0.1409176 0.1411176
 0.1414039 0.1416091 0.1416574 0.1416466 0.141762 0.142132 0.142759 0.1435319 0.1442956 0.1449464
 0.1454611 0.1458422 0.1460887 0.1462206 0.1462689 0.1462384 0.1461229 0.1459359 0.145694 0.1454018
 0.1450635 0.1446741 0.1442078 0.1436463 0.1429909 0.1422388 0.1413905 0.1404638 0.1394458 0.13829
 0.1370423 0.1359181 0.1351928 0.135039 0.1354544 0.1362705 0.1372641 0.1383132 0.1393671 0.1402422
 0.1406609 0.1406579 0.1408032 0.141793 0.1437845 0.146228 0.1483674 0.1498041 0.1505407 0.1506704
 0.1502341 0.1492804 0.1478392 0.1458745 0.1434009 0.1405556 0.1374873 0.1343298 0.1312943 0.1285988
 0.1263275 0.1244766 0.1230408 0.1220681 0.1216908 0.1215261 0.1196562 0.1136365 0.1042756 0.09729937
 0.09851975 0.1072916 0.1169795 0.121966 0.1221113 0.1204136 0.118926 0.1179452 0.1173758 0.1173939
 0.1181406 0.1194431 0.1208741 0.1220187 0.1227223 0.1230431 0.1229626 0.1221435 0.1198574 0.1152249
 0.1079078 0.098743 0.08948529 0.08178376 0.07640673 0.07322915 0.07161345 0.07080325 0.07028271 0.06999656
 0.07023965 0.07130047 0.07321914 0.07585445 0.07903603 0.08251759 0.08587602 0.08868892 0.09085125 0.09256259
 0.09398231 0.09504101 0.09560285 0.09566237 0.09533194 0.09473926 0.09399334 0.09317596 0.09228741 0.09124072
 0.09001289 0.08879909 0.08790198 0.08744565 0.08729933 0.0872806 0.08730696 0.08734761 0.08736307 0.08732651
 0.08724407 0.08717005 0.08722322 0.08751035 0.08799206 0.08848624 0.08882842 0.08899394 0.08906242 0.08906414
 0.08886081 0.08827503 0.08740459 0.08663265 0.08614728 0.08562145 0.08463408 0.08330703 0.0822509 0.08190294
 0.08213426 0.08249757 0.08265258 0.08252299 0.08225749 0.08216197 0.08250222 0.08318667 0.0837352 0.08373313
</values></Ydata></ScRf><Data_Parameters_AB><parameter name="DPF">1</parameter><parameter name="NPT">3497</parameter><parameter name="FXV">3996</parameter><parameter name="LXV">500</parameter><parameter name="CSF">1</parameter><parameter name="MXY">0.126966089010239</parameter><parameter name="MNY">-0.0344811193645</parameter><parameter name="DAT">02/06/2022</parameter><parameter name="TIM">13:45:14.052 (GMT+2)</parameter><parameter name="DXU">WN</parameter></Data_Parameters_AB><AB__Qtest><MainReport name="Quality Test Report"><Header><Line><Legend>Test result ok/not ok [1/0]: </Legend><Value>0</Value></Line><Line><Legend>Method file: </Legend><Value>C:\Users\Public\Documents\Bruker\OPUS_8.2.28\QT\IRBT_v3_default.QT</Value></Line></Header><Matrix><Line><Legend></Legend><Legend>min</Legend><Legend>max</Legend><Legend>measured</Legend></Line><Line><Value>Absorption (X-Range 1):</Value><Value>0.400000</Value><Value>2.000000</Value><Value>0.135189</Value></Line><Line><Value>Noise (X-Range 4):</Value><Value></Value><Value>0.000300</Value><Value>0.000067</Value></Line><Line><Value>Signal/Noise (X-Range 2):</Value><Value>200.000000</Value><Value></Value><Value>52.473869</Value></Line><Line><Value>Signal/Noise (X-Range 3):</Value><Value>40.000000</Value><Value></Value><Value>23.325050</Value></Line><Line><Value>Water vapour (X-Range 5):</Value><Value></Value><Value>0.000300</Value><Value>0.000052</Value></Line><Line><Value>Signal/Water (X-Range 2):</Value><Value>100.000000</Value><Value></Value><Value>67.644958</Value></Line><Line><Value>Signal/Water (X-Range 3):</Value><Value>20.000000</Value><Value></Value><Value>30.068720</Value></Line><Line><Value>Fringes (X-Range 6):</Value><Value></Value><Value>0.000100</Value><Value>0.000058</Value></Line></Matrix></MainReport></AB__Qtest><Data_Parameters_ScSm><parameter name="DPF">1</parameter><parameter name="NPT">1814</parameter><parameter name="FXV">3996.33169228125</parameter><parameter name="LXV">499.541461535156</parameter><parameter name="CSF">1</parameter><parameter name="MXY">0.242708459496498</parameter><parameter name="MNY">0.0304414518177509</parameter><parameter name="DAT">02/06/2022</parameter><parameter name="TIM">13:45:14.052 (GMT+2)</parameter><parameter name="DXU">WN</parameter></Data_Parameters_ScSm><Data_Parameters_ScRf><parameter name="DPF">1</parameter><parameter name="NPT">1820</parameter><parameter name="FXV">4004.04661832813</parameter><parameter name="LXV">495.683998511719</parameter><parameter name="CSF">1</parameter><parameter name="MXY">0.265198528766632</parameter><parameter name="MNY">0.0292004719376564</parameter><parameter name="DAT">02/06/2022</parameter><parameter name="TIM">13:44:46.967 (GMT+2)</parameter><parameter name="DXU">WN</parameter></Data_Parameters_ScRf><Optic_Parameters_Rf><parameter name="APR">0</parameter><parameter name="APT">Open</parameter><parameter name="BMS">KBr</parameter><parameter name="DTC">RT-DLaTGS_IR-Biotyper [Microplate reader]</parameter><parameter name="HPF">0</parameter><parameter name="LPF">10.0</parameter><parameter name="LPV">4000</parameter><parameter name="PGR">0</parameter><parameter name="RCH">Module port</parameter><parameter name="RDX">0</parameter><parameter name="SRC">MIR</parameter><parameter name="VEL">10.0</parameter><parameter name="SON">Off</parameter></Optic_Parameters_Rf><Acquisition_Parameters_Rf><parameter name="ADT">1</parameter><parameter name="AQM">DD</parameter><parameter name="CFE">0</parameter><parameter name="COR">0</parameter><parameter name="DEL">0</parameter><parameter name="DLY">0</parameter><parameter name="HFW">8000</parameter><parameter name="LFW">0</parameter><parameter name="NSR">32</parameter><parameter name="PLF">AB</parameter><parameter name="RES">6</parameter><parameter name="RGN">-1</parameter><parameter name="STR">0</parameter><parameter name="TCL">MakeCompatibleScalar (0, {WSV=1.000000, ARV=0});</parameter><parameter name="TDL">37</parameter><parameter name="RPO">0</parameter></Acquisition_Parameters_Rf><FT_-_Parameters_Rf><parameter name="APF">B3</parameter><parameter name="HFQ">500</parameter><parameter name="LFQ">4000</parameter><parameter name="NLI">0</parameter><parameter name="PHR">24</parameter><parameter name="PHZ">ML</parameter><parameter name="SPZ">NO</parameter><parameter name="ZFF">1</parameter></FT_-_Parameters_Rf><Optic_Parameters_><parameter name="APR">0</parameter><parameter name="APT">Open</parameter><parameter name="BMS">KBr</parameter><parameter name="CHN">Module port</parameter><parameter name="DTC">RT-DLaTGS_IR-Biotyper [Microplate reader]</parameter><parameter name="HPF">0</parameter><parameter name="LPF">10.0</parameter><parameter name="LPV">4000</parameter><parameter name="PGN">0</parameter><parameter name="RDX">0</parameter><parameter name="SRC">MIR</parameter><parameter name="VEL">10.0</parameter><parameter name="SON">Off</parameter></Optic_Parameters_><FT_-_Parameters_><parameter name="APF">B3</parameter><parameter name="HFQ">500</parameter><parameter name="LFQ">4000</parameter><parameter name="NLI">0</parameter><parameter name="PHR">24</parameter><parameter name="PHZ">ML</parameter><parameter name="SPZ">NO</parameter><parameter name="ZFF">1</parameter></FT_-_Parameters_><Acquisition_Parameters_><parameter name="ADT">1</parameter><parameter name="AQM">DD</parameter><parameter name="CFE">0</parameter><parameter name="COR">0</parameter><parameter name="DEL">0</parameter><parameter name="DLY">0</parameter><parameter name="HFW">8000</parameter><parameter name="LFW">0</parameter><parameter name="NSS">32</parameter><parameter name="PLF">AB</parameter><parameter name="RES">6</parameter><parameter name="SOT">0</parameter><parameter name="TCL">MakeCompatibleScalar (0, {WSV=1.000000, ARV=0});</parameter><parameter name="TDL">37</parameter><parameter name="SPO">0</parameter><parameter name="SGN">-1</parameter></Acquisition_Parameters_><Instrument_Parameters_Rf><parameter name="HFL">15800.168544</parameter><parameter name="LFL">0</parameter><parameter name="LWN">15800.168544</parameter><parameter name="ABP">32197</parameter><parameter name="SSP">1</parameter><parameter name="ARG">2</parameter><parameter name="ASG">2</parameter><parameter name="ASS">32</parameter><parameter name="GFW">16</parameter><parameter name="GBW">16</parameter><parameter name="BFW">0</parameter><parameter name="BBW">0</parameter><parameter name="PKA">7268</parameter><parameter name="PKL">4996</parameter><parameter name="PRA">7457</parameter><parameter name="PRL">5001</parameter><parameter name="P2A">1</parameter><parameter name="P2L">1</parameter><parameter name="P2R">1</parameter><parameter name="P2K">1</parameter><parameter name="DAQ">0</parameter><parameter name="AG2">1</parameter><parameter name="SSM">1</parameter><parameter name="RSN">26249</parameter><parameter name="CRR">0</parameter><parameter name="SRT">1654177486.968</parameter><parameter name="DUR">19.6389923095703</parameter><parameter name="TSC">29.2</parameter><parameter name="MVD">0.177531704306602</parameter><parameter name="AN1">0.225845982491052</parameter><parameter name="AN2">0</parameter><parameter name="VSN">2.485 Apr  4 2017</parameter><parameter name="SRN">0085</parameter><parameter name="CAM">0</parameter><parameter name="INS">IR-Biotyper</parameter><parameter name="FOC">69</parameter><parameter name="RDY">1</parameter><parameter name="ARS">32</parameter></Instrument_Parameters_Rf><Sample_Parameters_><parameter name="BLD"></parameter><parameter name="CNM">Admin</parameter><parameter name="CPY"></parameter><parameter name="DPM"></parameter><parameter name="EXP">IRBT_v3_32Scans.XPM</parameter><parameter name="LCT"></parameter><parameter name="SFM">Microplate, HTS-XT</parameter><parameter name="SNM">220602-1248_JCG30M (D_2)_B8_55557eac-dd96-432d-ae11-cd5f48ecb3ab.0</parameter><parameter name="XPP">C:\Users\Public\Documents\Bruker\OPUS_8.2.28\XPM</parameter><parameter name="IST">OK</parameter><parameter name="CPG">1252</parameter><parameter name="UID">7fdc97b0-7f3e-4d2d-9fca-58ee72666ee6</parameter></Sample_Parameters_><Instrument_Parameters_><parameter name="HFL">15800.168544</parameter><parameter name="LFL">0</parameter><parameter name="LWN">15800.168544</parameter><parameter name="ABP">32197</parameter><parameter name="SSP">1</parameter><parameter name="ASG">2</parameter><parameter name="ARG">2</parameter><parameter name="ASS">32</parameter><parameter name="GFW">16</parameter><parameter name="GBW">16</parameter><parameter name="BFW">0</parameter><parameter name="BBW">0</parameter><parameter name="PKA">6762</parameter><parameter name="PKL">4988</parameter><parameter name="PRA">7033</parameter><parameter name="PRL">4993</parameter><parameter name="P2A">1</parameter><parameter name="P2L">1</parameter><parameter name="P2R">1</parameter><parameter name="P2K">1</parameter><parameter name="DAQ">0</parameter><parameter name="AG2">1</parameter><parameter name="SSM">1</parameter><parameter name="RSN">13750</parameter><parameter name="CRR">0</parameter><parameter name="SRT">1654177514.053</parameter><parameter name="DUR">19.6379852294922</parameter><parameter name="TSC">29.2</parameter><parameter name="MVD">0.470272928476334</parameter><parameter name="AN1">0.225854950884785</parameter><parameter name="AN2">0</parameter><parameter name="VSN">2.485 Apr  4 2017</parameter><parameter name="SRN">0085</parameter><parameter name="CAM">0</parameter><parameter name="INS">IR-Biotyper</parameter><parameter name="FOC">69</parameter><parameter name="RDY">1</parameter></Instrument_Parameters_><History/></OPUSDataFile>
