<?xml version="1.0" encoding="UTF-8" ?>
<OPUSDataFile><AB><Ydata ylabel="Absorbance Units"><values byteorder="INTEL" format="FLOAT32" numvalues="3497"> -0.08328208 -0.08323123 -0.08316645 -0.08308697 -0.0830034 -0.0829163 -0.08283706 -0.08276653 -0.08271831 -0.08269242
 -0.08269744 -0.08273023 -0.0827856 -0.08285794 -0.08293138 -0.08300325 -0.08306111 -0.08310785 -0.08314181 -0.08316682
 -0.08318629 -0.08319949 -0.08320733 -0.08320706 -0.08319689 -0.0831794 -0.083154 -0.08312813 -0.08310272 -0.08308405
 -0.08307283 -0.08307224 -0.08308246 -0.08310544 -0.08314086 -0.08318613 -0.08323939 -0.08328865 -0.08333205 -0.08335513
 -0.08336057 -0.08334579 -0.08331814 -0.08328871 -0.08326196 -0.08324885 -0.0832459 -0.08325431 -0.08326891 -0.08328678
 -0.08330641 -0.08332768 -0.08334546 -0.08335983 -0.08335897 -0.08334012 -0.08330207 -0.08324307 -0.0831838 -0.08312532
 -0.08309384 -0.08308943 -0.0831196 -0.08318096 -0.08325719 -0.08334505 -0.08342373 -0.08349385 -0.08354602 -0.08358348
 -0.08360688 -0.08362053 -0.08362938 -0.08363689 -0.08364829 -0.08366209 -0.08368042 -0.08369543 -0.08370508 -0.0837018
 -0.0836822 -0.08364816 -0.08359834 -0.08354412 -0.0834861 -0.0834382 -0.0834012 -0.08338556 -0.08339153 -0.0834254
 -0.08348633 -0.08357479 -0.0836859 -0.08380412 -0.08392119 -0.08400704 -0.08406316 -0.08407493 -0.08405655 -0.0840188
 -0.08397289 -0.08393398 -0.08389857 -0.08387066 -0.08383816 -0.0837955 -0.08374263 -0.08367548 -0.08361296 -0.08355745
 -0.08352405 -0.08351576 -0.0835239 -0.0835482 -0.08356588 -0.08357686 -0.08357436 -0.0835617 -0.08355654 -0.08356106
 -0.08359503 -0.08365312 -0.08373476 -0.08382802 -0.08391205 -0.0839804 -0.08401408 -0.0840214 -0.08400203 -0.08396673
 -0.08392211 -0.08387224 -0.08381861 -0.08376913 -0.08372355 -0.08370078 -0.0837027 -0.08375242 -0.08385394 -0.08400694
 -0.0842123 -0.08438547 -0.08452017 -0.08449584 -0.08432744 -0.08404913 -0.08368553 -0.08335135 -0.08304857 -0.08283996
 -0.08271549 -0.08269008 -0.08274249 -0.08285838 -0.08300629 -0.0831568 -0.08328736 -0.0833736 -0.0834201 -0.08342096
 -0.08339381 -0.08334254 -0.08327713 -0.08319934 -0.08311793 -0.08303325 -0.08296143 -0.08290347 -0.08286982 -0.0828599
 -0.0828658 -0.08288587 -0.08290455 -0.08292302 -0.08293795 -0.08295059 -0.08296578 -0.0829757 -0.08296999 -0.08293979
 -0.08286513 -0.08275736 -0.08261348 -0.08246339 -0.08232118 -0.08221485 -0.08216078 -0.08216414 -0.08223418 -0.08234361
 -0.08249225 -0.08263581 -0.08277002 -0.08285952 -0.08290184 -0.08287995 -0.0827946 -0.08265536 -0.08246675 -0.08226322
 -0.08204809 -0.08185352 -0.08167746 -0.08153117 -0.08141062 -0.08131406 -0.08123794 -0.08117901 -0.08112954 -0.08108334
 -0.08103105 -0.08096286 -0.08088414 -0.08079181 -0.08070488 -0.08062915 -0.08057059 -0.08053308 -0.0805034 -0.08048006
 -0.08045871 -0.08043875 -0.08043508 -0.08044816 -0.0804885 -0.08055289 -0.08062547 -0.08070108 -0.08074875 -0.08077099
 -0.08075566 -0.08071444 -0.08066239 -0.08060849 -0.08057234 -0.08055031 -0.08054698 -0.08055376 -0.0805637 -0.08058286
 -0.08061001 -0.08065995 -0.0807397 -0.08084168 -0.0809694 -0.08108739 -0.08119288 -0.08125343 -0.08126704 -0.08119995
 -0.08105095 -0.08079196 -0.08043134 -0.08000956 -0.07954342 -0.07912235 -0.07875329 -0.07850297 -0.07836095 -0.07834989
 -0.07842791 -0.07855897 -0.07869083 -0.07875729 -0.07875953 -0.07867224 -0.07853566 -0.07836076 -0.07817566 -0.07799216
 -0.07781452 -0.07764579 -0.0774814 -0.07732071 -0.07716586 -0.07701688 -0.07687991 -0.07675537 -0.07665087 -0.07656702
 -0.07651439 -0.07648896 -0.07648549 -0.07648829 -0.0764517 -0.07636888 -0.07619707 -0.07596222 -0.07567973 -0.07537214
 -0.07506987 -0.07476678 -0.07446941 -0.07416269 -0.07383955 -0.07349987 -0.07314008 -0.07277396 -0.07240381 -0.0720378
 -0.07167862 -0.0713136 -0.07094255 -0.07053182 -0.07008079 -0.06957518 -0.06902213 -0.06846837 -0.06791834 -0.06741954
 -0.06696102 -0.06653655 -0.06613801 -0.06574756 -0.06536192 -0.06497581 -0.06457005 -0.06413165 -0.06362911 -0.06303371
 -0.0623497 -0.06156504 -0.06071945 -0.05982364 -0.05889498 -0.05793827 -0.05696154 -0.05596518 -0.05496731 -0.05396954
 -0.05296851 -0.0519635 -0.05093748 -0.04989241 -0.04883434 -0.04776766 -0.04671555 -0.04567713 -0.04466256 -0.04366729
 -0.04268993 -0.04172028 -0.04075474 -0.03975541 -0.03869259 -0.03752359 -0.03619282 -0.03475641 -0.03320987 -0.03166666
 -0.03016958 -0.02873059 -0.02736447 -0.02602387 -0.02470396 -0.02338084 -0.02205209 -0.02072213 -0.0193918 -0.01808102
 -0.01678904 -0.01552694 -0.01427981 -0.01299602 -0.0116507 -0.01012977 -0.008467433 -0.00665051 -0.004780845 -0.003005558
 -0.001334423 0.0001477881 0.001537647 0.002868054 0.00422426 0.005661099 0.007179908 0.008804016 0.01045618 0.01212628
 0.01374996 0.01531325 0.01683437 0.018312 0.01982524 0.02137665 0.02301241 0.02472336 0.02645889 0.0282097
 0.02990379 0.03155096 0.03314061 0.03468722 0.03621423 0.03772802 0.03924536 0.04077153 0.04231916 0.04388319
 0.04546795 0.04705352 0.04862716 0.05019723 0.05175611 0.05335326 0.05500099 0.05670789 0.05848357 0.06024801
 0.06199631 0.06366488 0.06525399 0.06679267 0.0682874 0.06980298 0.07134011 0.0729406 0.07459164 0.07628424
 0.07799431 0.07966641 0.08129922 0.08285303 0.08437935 0.08590623 0.08749152 0.08919912 0.09099117 0.09288365
 0.09476523 0.09659723 0.09835123 0.1000061 0.101621 0.1032011 0.1047883 0.1063869 0.1079995 0.1096256
 0.111255 0.1128867 0.1145089 0.1161224 0.117723 0.1193164 0.1209161 0.1225273 0.1241686 0.1258368
 0.127538 0.1292588 0.1309914 0.1327178 0.134423 0.1361001 0.1377381 0.1393542 0.1409499 0.1425457
 0.1441485 0.1457518 0.1473562 0.1489476 0.1505246 0.1520972 0.1536659 0.1552422 0.1568246 0.1584029
 0.1599784 0.16155 0.1631214 0.1647081 0.1663009 0.1678912 0.1694647 0.1709919 0.1724825 0.1739293
 0.1753625 0.1768011 0.1782602 0.1797567 0.1812733 0.182813 0.1843352 0.1858332 0.1872716 0.1886421
 0.1899537 0.191205 0.1924471 0.193682 0.1949438 0.1962305 0.1975375 0.1988646 0.200209 0.2015711
 0.2029557 0.2043498 0.2057315 0.2070872 0.2083832 0.2096294 0.2108206 0.211975 0.2131052 0.2142153
 0.2153083 0.2163923 0.2174674 0.2185542 0.2196592 0.220781 0.2219229 0.2230549 0.2241752 0.2252592
 0.2263062 0.2273098 0.2282716 0.2291991 0.2300972 0.2309929 0.2318914 0.2328246 0.2337871 0.2347862
 0.2358093 0.2368416 0.2378756 0.2388994 0.2399078 0.2408952 0.2418561 0.2427856 0.2436859 0.2445561
 0.2454007 0.2462206 0.2470174 0.2477897 0.2485558 0.2493165 0.2501031 0.2509162 0.2517495 0.2525977
 0.2534075 0.2541781 0.2548741 0.2555079 0.2560979 0.2566563 0.2572186 0.2577852 0.2583739 0.2589757
 0.2595893 0.2602037 0.2608088 0.261406 0.2619903 0.2625793 0.2631795 0.2637927 0.2644249 0.2650436
 0.2656451 0.2662054 0.266721 0.2672104 0.2676745 0.268139 0.2686026 0.2690614 0.2695127 0.2699402
 0.2703431 0.270711 0.2710444 0.2713362 0.2715946 0.2718246 0.2720442 0.272275 0.2725237 0.2728072
 0.2731056 0.2734163 0.2737139 0.2739881 0.2742315 0.2744391 0.274621 0.2747772 0.2749233 0.2750608
 0.2751942 0.2753234 0.275431 0.2755161 0.2755622 0.2755736 0.2755618 0.2755327 0.2755121 0.2754986
 0.2755028 0.2755191 0.275544 0.2755711 0.2755944 0.2756048 0.2755923 0.2755583 0.2754945 0.275431
 0.2753739 0.2753553 0.2753893 0.2754561 0.2755604 0.2756315 0.2756641 0.2756014 0.2754417 0.2751959
 0.2748699 0.2745271 0.2741695 0.2738444 0.2735415 0.2732516 0.2729689 0.2726692 0.272372 0.2720943
 0.2718574 0.2716999 0.2715987 0.2715578 0.2715252 0.2714721 0.271385 0.2712457 0.271092 0.2709292
 0.2707858 0.27067 0.2705662 0.270475 0.2703584 0.2702146 0.2700112 0.2697495 0.2694232 0.2690419
 0.2686455 0.2682496 0.2679271 0.2676806 0.2675598 0.2675368 0.2675996 0.2677018 0.2677913 0.267839
 0.2678009 0.2676921 0.2675013 0.2672763 0.267029 0.2667995 0.2665995 0.2664464 0.2663426 0.2663081
 0.2663438 0.2664868 0.2667384 0.2671113 0.2675979 0.2681336 0.2687003 0.2691703 0.2695349 0.2696882
 0.2696566 0.2694318 0.2690747 0.2686679 0.2682659 0.2679651 0.267763 0.2677024 0.267716 0.2677908
 0.2678392 0.2678291 0.2677054 0.2674444 0.2670549 0.2665288 0.2659369 0.2652829 0.2646513 0.2640461
 0.2635055 0.2630268 0.2625933 0.2622019 0.2618254 0.2614675 0.2611255 0.2608042 0.2605177 0.2602543
 0.2600132 0.2597536 0.2594398 0.2590207 0.2584421 0.2576981 0.2567553 0.2556878 0.2545028 0.2533084
 0.252131 0.2510336 0.2500326 0.2491272 0.2483202 0.2475777 0.2468976 0.2462261 0.24556 0.2448429
 0.2440805 0.2432673 0.2424218 0.2416048 0.2408204 0.2401195 0.2394671 0.2388365 0.2381847 0.2374453
 0.2366262 0.2356967 0.2347271 0.2337376 0.2328072 0.2319722 0.2312542 0.2306758 0.2301725 0.2297455
 0.2292774 0.228758 0.2281046 0.2273137 0.226406 0.2253894 0.2243587 0.2233181 0.222343 0.2214238
 0.2205694 0.219767 0.2189915 0.2182385 0.2174903 0.2167477 0.2160058 0.2152636 0.2145188 0.2137709
 0.213018 0.212265 0.2115128 0.2107681 0.2100336 0.2093069 0.2085896 0.2078637 0.2071282 0.2063609
 0.2055606 0.2047203 0.2038414 0.2029386 0.2020148 0.2010939 0.2001777 0.1992853 0.1984161 0.1975791
 0.1967701 0.1959883 0.195224 0.194468 0.1937087 0.192934 0.1921402 0.1913202 0.1904824 0.1896281
 0.1887657 0.1878994 0.1870233 0.1861378 0.1852305 0.1842995 0.1833463 0.1823711 0.1813931 0.1804136
 0.179452 0.1785077 0.1775883 0.1766918 0.1758169 0.1749608 0.1741177 0.1732848 0.1724544 0.1716267
 0.1707973 0.1699723 0.1691525 0.1683519 0.1675748 0.1668421 0.1661628 0.1655474 0.1650072 0.1645054
 0.1640455 0.1635356 0.1629687 0.1622626 0.161413 0.1604279 0.1593156 0.1581788 0.1570286 0.1559853
 0.1550441 0.1542612 0.1536049 0.1530384 0.152515 0.1519417 0.1512977 0.1505097 0.1496208 0.1486281
 0.147613 0.1466213 0.1456893 0.1448512 0.144067 0.1433336 0.1426113 0.1418862 0.1411946 0.1405358
 0.1399856 0.139548 0.1392373 0.1390459 0.1388852 0.1387407 0.1384804 0.1381045 0.1375331 0.1367969
 0.1359189 0.1349475 0.1339737 0.1330204 0.1321589 0.1313611 0.1306313 0.12993 0.1292289 0.1285359
 0.1278426 0.1271848 0.1265758 0.1260059 0.1254806 0.1249455 0.1243941 0.1238137 0.1232035 0.1226238
 0.1220773 0.1216204 0.1212456 0.1209384 0.120686 0.1204331 0.1201772 0.1198833 0.1195592 0.1192036
 0.1188206 0.1184187 0.1179871 0.1175257 0.1170077 0.1164199 0.1157408 0.1149516 0.1140771 0.1131084
 0.1121321 0.1111569 0.1102775 0.1095072 0.1088619 0.1083433 0.107864 0.1074173 0.1068891 0.1062829
 0.1055575 0.1047342 0.1038656 0.1029731 0.1021377 0.1013589 0.1006771 0.1000697 0.09952869 0.09902586
 0.09853638 0.09804213 0.09752377 0.09698485 0.09641793 0.09584992 0.09528515 0.09474992 0.09425317 0.09377933
 0.09333079 0.09284836 0.09232876 0.09173324 0.09106494 0.09035979 0.08962588 0.08893594 0.08828413 0.0876929
 0.08714053 0.08658261 0.08601129 0.085385 0.08472807 0.08404981 0.08338029 0.0827514 0.08216506 0.08163323
 0.08114245 0.08068644 0.08027186 0.07989639 0.07958313 0.07933802 0.07915886 0.07904942 0.07895898 0.07888506
 0.0787525 0.07855902 0.07825487 0.0778464 0.07734381 0.07676246 0.07616236 0.07555793 0.07501467 0.07453745
 0.07416467 0.07389251 0.07373285 0.07367524 0.07371849 0.07384275 0.07404019 0.07428458 0.07456573 0.07486132
 0.07516395 0.07546024 0.07574585 0.07602088 0.07628257 0.07656235 0.07686151 0.07724788 0.07772461 0.07835358
 0.07912876 0.08004794 0.08109284 0.08219517 0.08333945 0.08445063 0.08553002 0.08654378 0.08750507 0.08841656
 0.08928934 0.09013351 0.09095541 0.09176017 0.09255487 0.0933431 0.09413019 0.09492061 0.09570401 0.09648256
 0.09722352 0.09792533 0.09854384 0.09907636 0.09948818 0.09977867 0.09993405 0.09995597 0.09984654 0.09960982
 0.09925697 0.09880202 0.09827632 0.09771316 0.09717789 0.09670944 0.09638478 0.09621033 0.09622762 0.09639491
 0.09670387 0.09710502 0.09757237 0.09809734 0.09866842 0.09931134 0.1000295 0.1008387 0.1017433 0.1027242
 0.1037811 0.1048604 0.1059576 0.1069981 0.1079796 0.1088436 0.1096014 0.1102579 0.1108413 0.1114233
 0.1120286 0.1127455 0.1135505 0.1144839 0.115416 0.1162997 0.1168799 0.1170233 0.1164702 0.1150613
 0.1127683 0.1094976 0.1055749 0.1010058 0.09630815 0.0915335 0.08708926 0.08300579 0.07941306 0.07630645
 0.07360628 0.07129972 0.06926424 0.06749623 0.06592142 0.06453406 0.06328875 0.06216569 0.06111149 0.06010767
 0.05910535 0.05811206 0.05711187 0.05613592 0.05519707 0.05432143 0.05352457 0.05281094 0.05218569 0.05164237
 0.05117999 0.05079721 0.05049288 0.05027744 0.0501514 0.05012941 0.05021029 0.05037902 0.05062481 0.0508698
 0.05109675 0.05119171 0.05115441 0.05091564 0.05050975 0.04995746 0.04931267 0.04864816 0.04800625 0.0474484
 0.04699203 0.0466648 0.04646732 0.04640481 0.04647825 0.04668539 0.04704498 0.04755861 0.04825347 0.04913881
 0.05016964 0.05134774 0.05243962 0.05342317 0.05388719 0.05381472 0.05285936 0.05107743 0.04847321 0.0451896
 0.0415874 0.03780503 0.03427188 0.03101353 0.02825896 0.0259088 0.02396642 0.02229834 0.02082225 0.0194651
 0.0181712 0.01693909 0.01575572 0.01464364 0.01360588 0.01265383 0.01179013 0.01100959 0.01031233 0.009680376
 0.009112384 0.008583728 0.008092927 0.007617476 0.007157211 0.006698119 0.006243609 0.005793828 0.005356186 0.004944986
 0.004563284 0.004225576 0.003917513 0.003636092 0.003354176 0.003052583 0.002721269 0.002344118 0.001950935 0.001542259
 0.001167034 0.00083632 0.0005689914 0.000372222 0.0002109487 8.390538E-05 -6.352412E-05 -0.0002324579 -0.000440497 -0.0006826933
 -0.0009290542 -0.001177841 -0.001401187 -0.001611378 -0.001825899 -0.002059513 -0.00235335 -0.002699638 -0.003112852 -0.00355919
 -0.004016387 -0.004450562 -0.004832551 -0.005151828 -0.005393405 -0.005571977 -0.005684739 -0.005765748 -0.005817848 -0.005886175
 -0.005976368 -0.006118153 -0.006314702 -0.006554794 -0.006836656 -0.007121362 -0.007407836 -0.007668918 -0.007908146 -0.008126252
 -0.008326449 -0.008518897 -0.008702223 -0.008878617 -0.009045883 -0.009201168 -0.009345582 -0.009479143 -0.009602985 -0.009718978
 -0.009823485 -0.009915381 -0.009991816 -0.01004919 -0.01009913 -0.01014066 -0.01020093 -0.01028303 -0.01040657 -0.01057383
 -0.01077219 -0.011 -0.01122005 -0.01143122 -0.01160577 -0.01174833 -0.01186254 -0.01195624 -0.01205383 -0.01215771
 -0.01228681 -0.01243209 -0.01259151 -0.01275058 -0.01289344 -0.01301713 -0.01311008 -0.01319205 -0.01326561 -0.01335947
 -0.01348406 -0.01364961 -0.0138629 -0.01410581 -0.01437843 -0.01465023 -0.01491905 -0.01516423 -0.01538542 -0.01558106
 -0.01575288 -0.01591343 -0.01606444 -0.01622046 -0.01638109 -0.0165537 -0.01673462 -0.01692113 -0.01710789 -0.01728635
 -0.01745411 -0.0176038 -0.01774193 -0.01786836 -0.01799635 -0.01813199 -0.01828247 -0.01845354 -0.01863579 -0.01882969
 -0.01901758 -0.01919697 -0.01936007 -0.01950574 -0.01964252 -0.0197709 -0.01990191 -0.02003439 -0.02016434 -0.02028866
 -0.02039009 -0.02046967 -0.02051833 -0.02054597 -0.02056568 -0.02058994 -0.02064258 -0.02072586 -0.02085338 -0.02101351
 -0.02120476 -0.0214102 -0.02162216 -0.02182954 -0.02202681 -0.02221219 -0.022384 -0.02254567 -0.02269768 -0.0228402
 -0.02297338 -0.02309358 -0.02320082 -0.02329694 -0.02338306 -0.02346997 -0.02355783 -0.02365408 -0.02375606 -0.02385908
 -0.02396263 -0.02406157 -0.02416155 -0.0242683 -0.02438593 -0.02452339 -0.02467263 -0.02483365 -0.02499026 -0.02513466
 -0.02525884 -0.02535672 -0.02543556 -0.02549442 -0.02554911 -0.02560125 -0.02566427 -0.02573946 -0.02583117 -0.02593933
 -0.02605855 -0.02618787 -0.02631683 -0.02644494 -0.02656387 -0.02667508 -0.02677779 -0.02687515 -0.02697306 -0.02707357
 -0.02718288 -0.02729901 -0.0274231 -0.02755027 -0.02767767 -0.02780195 -0.02792031 -0.02803357 -0.02814115 -0.02824564
 -0.02834761 -0.02844791 -0.02854707 -0.02864207 -0.02873286 -0.02881353 -0.0288839 -0.02894147 -0.02898715 -0.02902708
 -0.02906323 -0.029108 -0.02916219 -0.02923547 -0.02932557 -0.0294334 -0.02955437 -0.0296828 -0.02981453 -0.02994319
 -0.03006769 -0.03018519 -0.0302968 -0.03040271 -0.0305027 -0.03059717 -0.03068356 -0.03076086 -0.03083064 -0.0308922
 -0.03095471 -0.03101875 -0.03109348 -0.03117912 -0.03127484 -0.03137975 -0.0314852 -0.03159101 -0.03169153 -0.03178784
 -0.03188079 -0.03197012 -0.03205636 -0.03213724 -0.03220941 -0.03227223 -0.03232242 -0.03236478 -0.03240035 -0.03243727
 -0.0324796 -0.03253219 -0.03259826 -0.03267578 -0.03276563 -0.03286071 -0.03296048 -0.03305713 -0.03314997 -0.03323422
 -0.03330972 -0.03337638 -0.03343455 -0.03348746 -0.0335355 -0.03358223 -0.03362782 -0.03367442 -0.03372237 -0.03377329
 -0.03382765 -0.03388712 -0.03395103 -0.03401994 -0.03409128 -0.03416395 -0.03423446 -0.03430096 -0.03436119 -0.03441375
 -0.03445894 -0.0344961 -0.03452883 -0.03455706 -0.0345878 -0.03462158 -0.03466381 -0.03471461 -0.03477133 -0.03483323
 -0.03489168 -0.03494688 -0.03499457 -0.03503714 -0.03507958 -0.03512398 -0.0351778 -0.03524002 -0.0353131 -0.03539324
 -0.03547788 -0.03556311 -0.0356453 -0.03572291 -0.03579361 -0.03585998 -0.03592195 -0.03598393 -0.0360473 -0.03611232
 -0.03617984 -0.0362434 -0.03630257 -0.03635131 -0.03638947 -0.03641889 -0.03644039 -0.03646267 -0.03648634 -0.03651932
 -0.03656083 -0.03661301 -0.03667411 -0.03674163 -0.0368139 -0.03688746 -0.03696124 -0.03703304 -0.03710211 -0.03716706
 -0.03722836 -0.03728515 -0.03734086 -0.03739595 -0.03745521 -0.03752019 -0.03759123 -0.03766929 -0.03774767 -0.03782607
 -0.03789607 -0.03795731 -0.03800641 -0.03804384 -0.03807312 -0.03809516 -0.03811642 -0.03813737 -0.03816312 -0.03819303
 -0.03822825 -0.03826784 -0.03831077 -0.0383568 -0.03840527 -0.03845635 -0.03851048 -0.03856599 -0.03862298 -0.03867694
 -0.03872674 -0.0387676 -0.0387978 -0.0388172 -0.03882476 -0.03882817 -0.03882772 -0.03883485 -0.03885005 -0.03887719
 -0.03891531 -0.03895584 -0.03899746 -0.03902792 -0.03904879 -0.03905758 -0.03905886 -0.03906141 -0.0390681 -0.03908841
 -0.03911909 -0.03916176 -0.03920836 -0.0392536 -0.03929209 -0.03931869 -0.03933549 -0.0393414 -0.03934217 -0.03933889
 -0.0393354 -0.03933237 -0.03933222 -0.03933511 -0.03934497 -0.03936198 -0.03938749 -0.03942096 -0.03945729 -0.03949565
 -0.03952871 -0.03955695 -0.03957768 -0.03959278 -0.03960473 -0.03961569 -0.03963019 -0.03964892 -0.03967529 -0.03970614
 -0.0397415 -0.03977437 -0.03980128 -0.03981763 -0.03981983 -0.03981186 -0.0397931 -0.03977282 -0.03975238 -0.03973741
 -0.03972876 -0.0397252 -0.03972667 -0.03972946 -0.03973361 -0.03973793 -0.0397434 -0.03975431 -0.03977224 -0.03980443
 -0.0398523 -0.0399222 -0.04001562 -0.04013669 -0.04028868 -0.04047549 -0.04070261 -0.04097497 -0.0412967 -0.04167195
 -0.04209924 -0.0425797 -0.04310783 -0.04368206 -0.04430166 -0.04496593 -0.0456792 -0.04644273 -0.04724608 -0.04808819
 -0.0489138 -0.04971509 -0.05038811 -0.05092447 -0.05122018 -0.05128195 -0.05107087 -0.05061189 -0.04993174 -0.04907464
 -0.04810888 -0.04709623 -0.04612647 -0.04524154 -0.04450238 -0.04391798 -0.04350827 -0.04327032 -0.04321044 -0.04330986
 -0.04357634 -0.04393134 -0.04437369 -0.04476392 -0.04508786 -0.04527564 -0.04532384 -0.04528219 -0.04515434 -0.04499819
 -0.04481161 -0.04461083 -0.04439429 -0.04416411 -0.04392335 -0.04367993 -0.04343661 -0.04320255 -0.04297479 -0.0427541
 -0.0425357 -0.04231513 -0.04209299 -0.04186734 -0.04164369 -0.04142363 -0.04121076 -0.04100626 -0.04081173 -0.04062747
 -0.0404552 -0.04029526 -0.04014617 -0.04000783 -0.03987398 -0.03974452 -0.03961596 -0.03948923 -0.03936782 -0.03925247
 -0.03914803 -0.0390535 -0.03896912 -0.03889353 -0.03882452 -0.03876164 -0.03870331 -0.03865021 -0.0386023 -0.03856048
 -0.03852551 -0.03849685 -0.03847521 -0.03845654 -0.03844043 -0.03842147 -0.0383985 -0.03837035 -0.03833645 -0.03830209
 -0.03826753 -0.03824076 -0.03822197 -0.03821599 -0.03822186 -0.0382371 -0.03825978 -0.03828188 -0.03830234 -0.03831416
 -0.038319 -0.03831608 -0.03830818 -0.03829827 -0.03828773 -0.03827865 -0.03827127 -0.03826625 -0.03826346 -0.03826332
 -0.03826406 -0.03826562 -0.038265 -0.03826162 -0.03825443 -0.03824307 -0.03822999 -0.03821532 -0.03820335 -0.03819432
 -0.03819255 -0.038198 -0.03821305 -0.03823672 -0.03826747 -0.03830305 -0.038338 -0.03836942 -0.03839033 -0.03839882
 -0.03838924 -0.0383637 -0.03832015 -0.03826731 -0.03820815 -0.03815317 -0.0381076 -0.03807417 -0.03805584 -0.03804525
 -0.03804198 -0.03803743 -0.03803046 -0.03801956 -0.0380046 -0.03799044 -0.03797738 -0.03797055 -0.03796968 -0.03797613
 -0.03798888 -0.03800513 -0.0380239 -0.03804137 -0.03805739 -0.03807006 -0.03807959 -0.03808564 -0.03808799 -0.03808631
 -0.03808062 -0.03807027 -0.03805765 -0.038043 -0.03803039 -0.03802085 -0.0380173 -0.03802067 -0.0380301 -0.03804573
 -0.0380643 -0.03808566 -0.03810806 -0.03813157 -0.03815673 -0.03818346 -0.03821176 -0.03824106 -0.03826926 -0.03829606
 -0.03831952 -0.03834001 -0.03835729 -0.03837172 -0.03838346 -0.03839333 -0.03840136 -0.03841039 -0.03842176 -0.03843819
 -0.03846171 -0.03849059 -0.03852547 -0.03856058 -0.03859504 -0.03862498 -0.03864966 -0.03867063 -0.03868793 -0.03870596
 -0.03872481 -0.03874658 -0.03877075 -0.03879492 -0.03881874 -0.0388391 -0.03885698 -0.03887286 -0.03888848 -0.03890715
 -0.03892957 -0.03895834 -0.03899198 -0.03903065 -0.03907136 -0.03911281 -0.0391518 -0.03918666 -0.03921625 -0.03923928
 -0.03925943 -0.03927673 -0.03929722 -0.03932166 -0.03935208 -0.03938865 -0.03942765 -0.03946882 -0.03950767 -0.03954447
 -0.03957842 -0.03961034 -0.03964297 -0.0396768 -0.0397147 -0.03975592 -0.0398008 -0.03984766 -0.03989442 -0.03994076
 -0.03998515 -0.04002975 -0.04007542 -0.04012364 -0.04017594 -0.0402296 -0.04028475 -0.04033609 -0.04038259 -0.04042201
 -0.04045366 -0.04048121 -0.04050483 -0.04053083 -0.04055938 -0.04059413 -0.04063439 -0.04067791 -0.04072368 -0.04076656
 -0.04080673 -0.04084141 -0.04087289 -0.04090346 -0.0409359 -0.0409748 -0.0410206 -0.04107616 -0.04113792 -0.04120527
 -0.04127301 -0.04133877 -0.04140037 -0.04145629 -0.04150862 -0.04155741 -0.04160509 -0.04165209 -0.04169799 -0.04174279
 -0.04178459 -0.04182338 -0.04185863 -0.04189064 -0.04192097 -0.04195045 -0.04198301 -0.04201934 -0.0420637 -0.04211492
 -0.04217399 -0.04223682 -0.04229918 -0.04235709 -0.0424049 -0.04244357 -0.04247057 -0.04249316 -0.04251311 -0.04253795
 -0.0425706 -0.04261235 -0.04266448 -0.04272214 -0.04278504 -0.04284795 -0.0429105 -0.04297015 -0.04302684 -0.04307911
 -0.04312713 -0.04317093 -0.04321117 -0.04325039 -0.04328899 -0.04332968 -0.04337163 -0.04341425 -0.04345781 -0.04350145
 -0.04354849 -0.04360153 -0.04366256 -0.04373482 -0.04381404 -0.04390011 -0.04398583 -0.04406906 -0.04414634 -0.0442165
 -0.04427987 -0.04433626 -0.04438712 -0.0444325 -0.04447611 -0.04451826 -0.04456478 -0.04461542 -0.04467179 -0.0447325
 -0.04479279 -0.04485207 -0.0449057 -0.04495565 -0.04500316 -0.04505043 -0.04510158 -0.04515503 -0.0452117 -0.04526713
 -0.04531854 -0.04536445 -0.04540266 -0.04543711 -0.04546814 -0.04550068 -0.04553606 -0.04557438 -0.04561611 -0.04565673
 -0.04569599 -0.04573036 -0.04576001 -0.0457879 -0.04581482 -0.04584825 -0.04588795 -0.04593774 -0.04599498 -0.04605497
 -0.04611496 -0.04616693 -0.04621217 -0.04624811 -0.04627953 -0.04630977 -0.04634202 -0.04637983 -0.04642197 -0.04646921
 -0.04651817 -0.04656803 -0.04661679 -0.04666384 -0.04670923 -0.04675305 -0.04679431 -0.04683305 -0.04686395 -0.04688673
 -0.04689531 -0.0468905 -0.04687446 -0.04684958 -0.04682706 -0.04680775 -0.04680065 -0.04680277 -0.04681306 -0.04682807
 -0.04684204 -0.0468558 -0.04686734 -0.04688053 -0.04689752 -0.04691967 -0.04694922 -0.04698153 -0.04701632 -0.04704692
 -0.04707166 -0.04708917 -0.04709859 -0.04710585 -0.04711126 -0.04712098 -0.04713503 -0.04715265 -0.04717302 -0.04718937
 -0.04720135 -0.04720326 -0.04719657 -0.04718154 -0.04716161 -0.04714298 -0.04712881 -0.04712642 -0.0471349 -0.0471576
 -0.04718746 -0.04722205 -0.0472529 -0.0472752 -0.04728698 -0.04728562 -0.04727709 -0.04726166 -0.04724721 -0.04723473
 -0.04722853 -0.047229 -0.04723699 -0.0472525 -0.04727576 -0.04730641 -0.04734256 -0.04738278 -0.04742031 -0.04745353
 -0.04747355 -0.04748212 -0.04747735 -0.04746411 -0.0474483 -0.04743231 -0.04742125 -0.04741266 -0.0474061 -0.04740056
 -0.04739454 -0.04739178 -0.04739317 -0.04740094 -0.04741661 -0.04743484 -0.04745567 -0.04746937 -0.04747519 -0.0474688
 -0.04745035 -0.04742482 -0.04739283 -0.04736173 -0.04733108 -0.04730265 -0.04727601 -0.0472502 -0.04722692 -0.04720904
 -0.04719751 -0.04719645 -0.04720082 -0.04720877 -0.04721206 -0.04720439 -0.04718313 -0.04714413 -0.0470935 -0.04703126
 -0.04696733 -0.04690343 -0.04684714 -0.04679998 -0.04676187 -0.04673307 -0.04670703 -0.04668363 -0.04666103 -0.04664025
 -0.04662886 -0.04662681 -0.04663945 -0.04666285 -0.04668967 -0.04671469 -0.04672344 -0.04671615 -0.04668515 -0.04663837
 -0.04657963 -0.04651764 -0.04645985 -0.04640812 -0.04636669 -0.04632809 -0.04629169 -0.04624776 -0.04619335 -0.04612884
 -0.04605291 -0.04597784 -0.04590425 -0.04584579 -0.04580284 -0.04578116 -0.04577915 -0.04578835 -0.04580446 -0.0458037
 -0.04578419 -0.04572487 -0.0456346 -0.04551909 -0.04539024 -0.04526802 -0.04515459 -0.04505916 -0.04497996 -0.04491773
 -0.04487293 -0.04484733 -0.04483537 -0.04483835 -0.04483879 -0.04483436 -0.04480683 -0.04475284 -0.04466953 -0.04455596
 -0.04442632 -0.04428161 -0.04414291 -0.04401051 -0.04389696 -0.04379974 -0.04371444 -0.0436384 -0.04356102 -0.043483
 -0.0434013 -0.04331585 -0.04322672 -0.04312979 -0.04301969 -0.04289871 -0.04276377 -0.0426282 -0.04249784 -0.04237904
 -0.04227761 -0.04218215 -0.04209226 -0.04199254 -0.0418804 -0.04175229 -0.04160745 -0.04145372 -0.04129148 -0.04112858
 -0.04096437 -0.04079669 -0.04062407 -0.04043694 -0.04023782 -0.04002786 -0.03981273 -0.03960667 -0.03940645 -0.03921632
 -0.03902398 -0.03881786 -0.03859381 -0.0383416 -0.03807556 -0.0377984 -0.03752643 -0.03726692 -0.03702066 -0.03679117
 -0.03656266 -0.03633519 -0.03607962 -0.03579355 -0.03546178 -0.03508487 -0.03469228 -0.03428618 -0.03390042 -0.03352988
 -0.03316921 -0.03281124 -0.03243066 -0.03202751 -0.03158851 -0.03111991 -0.03062416 -0.0301085 -0.02958042 -0.02904549
 -0.02851311 -0.02797307 -0.02742928 -0.02684673 -0.0262142 -0.02551352 -0.024732 -0.02390966 -0.0230498 -0.02218773
 -0.02132798 -0.02044958 -0.01955171 -0.0186167 -0.01764799 -0.01667217 -0.01568823 -0.01471146 -0.01372553 -0.01268746
 -0.01158984 -0.01038407 -0.009105564 -0.007780017 -0.006447377 -0.005166308 -0.003925013 -0.002736562 -0.001571662 -0.0004164352
 0.000734507 0.001886187 0.003034512 0.004170801 0.005345137 0.006552776 0.0079362 0.00950715 0.01135148 0.01346646
 0.01566285 0.01792728 0.02004526 0.02204608 0.0239581 0.02581401 0.02773149 0.02971112 0.03180908 0.03401694
 0.03633123 0.03878783 0.04139694 0.04426204 0.0474545 0.05104713 0.05513917 0.0595658 0.0643375 0.06911123
 0.0738098 0.07825413 0.08239814 0.08627182 0.0898698 0.09331306 0.09661094 0.09998862 0.1034695 0.1073924
 0.1117233 0.1165366 0.1216612 0.1265746 0.1312465 0.1353025 0.1389439 0.1423099 0.1455447 0.1488668
 0.152273 0.1558326 0.1594903 0.1632317 0.1670344 0.1709029 0.1747542 0.1785799 0.1822659 0.1857847
 0.1891746 0.1924353 0.1956421 0.1987942 0.2017631 0.204536 0.2069219 0.2089459 0.2106232 0.2120042
 0.2132633 0.2144024 0.2155294 0.216575 0.2174645 0.2182006 0.2187333 0.2191586 0.2195365 0.2199059
 0.2203175 0.2207132 0.2210881 0.2213762 0.2215578 0.2216217 0.221561 0.2214019 0.2211455 0.220823
 0.2204355 0.2199833 0.2194633 0.2188455 0.218128 0.2172842 0.2163178 0.2152199 0.2140106 0.2127176
 0.2113828 0.2100774 0.2088339 0.207713 0.2067237 0.2058827 0.205216 0.204734 0.2044775 0.2044696
 0.2046969 0.2051657 0.2058243 0.2066628 0.2076795 0.208872 0.210274 0.2118864 0.2137107 0.2157441
 0.217957 0.2203486 0.2229009 0.2256162 0.228491 0.2315299 0.2347362 0.2381246 0.2417164 0.2455266
 0.2495833 0.253878 0.2584186 0.2631763 0.2681389 0.2732866 0.2786089 0.2841037 0.2897747 0.2955901
 0.3015566 0.3075538 0.3135741 0.3194827 0.3252749 0.3309831 0.3366196 0.342355 0.3481503 0.3539225
 0.3595629 0.3646385 0.3691724 0.3729682 0.3761815 0.3789934 0.3814304 0.3836185 0.3854497 0.3868707
 0.3878475 0.3883572 0.3883615 0.3878998 0.3866715 0.3846204 0.3814852 0.37714 0.3721866 0.3666571
 0.3611945 0.3558238 0.3504156 0.3449565 0.3392521 0.3333301 0.3272458 0.3210203 0.314786 0.3084654
 0.3020047 0.2952014 0.2876687 0.2794369 0.2701865 0.2606539 0.2513029 0.2425575 0.2349094 0.2278838
 0.2214193 0.2151274 0.2088607 0.2026904 0.196596 0.1907782 0.1852615 0.1800262 0.1750702 0.1702176
 0.1654656 0.160718 0.1559953 0.1513544 0.1468168 0.1424886 0.1383622 0.1344784 0.1308078 0.1273255
 0.1240006 0.120802 0.1176767 0.1146036 0.1114566 0.1081754 0.1046432 0.1007343 0.09673238 0.09262926
 0.08897611 0.08589983 0.08334788 0.08134492 0.07948188 0.07773946 0.07588708 0.07393494 0.07192311 0.06987459
 0.06794449 0.06611931 0.06443595 0.06286823 0.06136032 0.0599349 0.05859226 0.0573866 0.05638654 0.05559624
 0.05505083 0.05470612 0.05454567 0.05454699 0.05469258 0.05500022 0.05546446 0.05613893 0.05702464 0.05821647
 0.05972575 0.06158583 0.06379683 0.0661216 0.06853823 0.07070364 0.07263069 0.07421374 0.07548435 0.07649627
 0.07726135 0.07782403 0.07820547 0.07843742 0.07859232 0.07874007 0.07899524 0.07947985 0.0802116 0.0812766
 0.08248258 0.08377746 0.0850324 0.08618531 0.08730407 0.08838728 0.0895269 0.0907345 0.09201799 0.09337788
 0.09474805 0.09612664 0.09746556 0.09877743 0.1001007 0.1014638 0.1029846 0.1046803 0.1066628 0.108897
 0.1113786 0.1140683 0.1168994 0.1199162 0.1231239 0.1265858 0.1303551 0.1343971 0.1387228 0.1432392
 0.1479093 0.1527651 0.1577845 0.1631897 0.169001 0.1753703 0.1823049 0.1894737 0.1968345 0.2037527
 0.2102299 0.2159506 0.220957 0.2252533 0.2288159 0.2316094 0.2335568 0.2345062 0.2344426 0.2332613
 0.2310644 0.227875 0.2238503 0.2190705 0.2136659 0.207693 0.2012525 0.1943532 0.1871916 0.1797723
 0.1724541 0.1652709 0.1584837 0.152108 0.1460849 0.1404015 0.134863 0.1294792 0.1242011 0.1190679
 0.1142021 0.1096094 0.105379 0.1014598 0.09781233 0.09438204 0.09109021 0.08791184 0.08480082 0.08175593
 0.07876122 0.07583563 0.0729795 0.07022283 0.06757528 0.0650437 0.06263459 0.06031578 0.05808507 0.05591178
 0.05379406 0.05175795 0.04980895 0.04802755 0.04641676 0.04503937 0.04388516 0.04295255 0.04222729 0.04167482
 0.04128709 0.04103606 0.04091804 0.04092049 0.04103583 0.0412613 0.0415685 0.04195264 0.04235196 0.04275215
 0.04307067 0.0432894 0.04332963 0.04317666 0.04277806 0.04212449 0.041223 0.04007334 0.03875597 0.03727752
 0.03574453 0.03416263 0.03261738 0.03111397 0.02971643 0.02842745 0.02728869 0.02629125 0.02544207 0.02472327
 0.02411729 0.02361025 0.02318547 0.02283592 0.02255443 0.02233489 0.02217499 0.02206543 0.0220061 0.02197682
 0.02197713 0.02197099 0.02195543 0.02189598 0.02179044 0.02163187 0.02142168 0.02117896 0.02090552 0.02062259
 0.02032902 0.0200329 0.0197299 0.01941475 0.01908127 0.0187168 0.01831754 0.01787254 0.01738569 0.01685441
 0.01629001 0.01569629 0.0150877 0.01446939 0.01385524 0.01324964 0.01266109 0.01209227 0.01154228 0.01101142
 0.01049648 0.00999724 0.00951757 0.009058041 0.008627908 0.008227668 0.007864557 0.007539378 0.007257964 0.007023002
 0.006843076 0.006722373 0.006672151 0.006693855 0.00679577 0.006970924 0.007219253 0.007525185 0.007881225 0.008272619
 0.008691789 0.009132051 0.009591008 0.01006238 0.01054625 0.01102758 0.01150529 0.01196289 0.01239928 0.01280785
 0.01318888 0.01354537 0.01387879 0.01419914 0.01450903 0.01482383 0.01514461 0.01548379 0.015836 0.01619996
 0.01656424 0.01691571 0.01724348 0.0175342 0.01778246 0.01798103 0.0181305 0.01822863 0.01828079 0.0182869
 0.01825679 0.01819145 0.01810237 0.01799081 0.01786505 0.01772573 0.0175738 0.01740909 0.01722843 0.01703219
 0.01682109 0.0165961 0.016362 0.01611817 0.01586608 0.01560325 0.01532573 0.01503241 0.01472029 0.01438949
 0.01403981 0.01366937 0.01327783 0.01286102 0.01241732 0.01194379 0.01143907 0.01090301 0.01033469 0.009739366
 0.009116796 0.00847955 0.007828304 0.00717794 0.006529003 0.005891279 0.005264879 0.004655079 0.004062372 0.003491755
 0.002943181 0.002419902 0.001919511 0.001439929 0.0009773278 0.0005262178 8.415421E-05 -0.0003536999 -0.0007851138 -0.001211683
 -0.00162532 -0.002024664 -0.002397618 -0.002741225 -0.00304481 -0.0033053 -0.003521674 -0.003692207 -0.003832864 -0.003944268
 -0.00405551 -0.004167823 -0.004304823 -0.004464751 -0.004648466 -0.004850883 -0.00505306 -0.005250356 -0.005421027 -0.005563905
 -0.005665777 -0.0057309 -0.005757651 -0.005755179 -0.005729828 -0.005690956 -0.005645902 -0.005599293 -0.005554488 -0.005513838
 -0.005478417 -0.005450294 -0.005430784 -0.005415477 -0.005404875 -0.005385205 -0.005355711 -0.005301784 -0.005222865 -0.005109347
 -0.004960935 -0.004770982 -0.00453914 -0.004260474 -0.003934733 -0.003558808 -0.003132559 -0.002653461 -0.00212395 -0.001543995
 -0.0009219246 -0.0002633409 0.0004208444 0.001123025 0.001835485 0.002554219 0.003271897 0.003986808 0.004689185 0.005376815
 0.006044937 0.006692147 0.007323612 0.007939491 0.008548195 0.009150067 0.009751369 0.01035188 0.01095368 0.01155519
 0.01215087 0.01273992 0.01331493 0.0138823 0.01444786 0.01502365 0.01562759 0.01626623 0.01695302 0.01768459
 0.0184635 0.01928244 0.02014 0.02102658 0.02194019 0.02286989 0.02381372 0.02476289 0.02571659 0.02666498
 0.02760745 0.02853251 0.0294401 0.03032988 0.03120329 0.03207234 0.03293543 0.03379421 0.03464196 0.03546136
 0.03624757 0.03698396 0.03766822 0.03829376 0.03885115 0.03933229 0.03972309 0.04001069 0.04019474 0.04026807
 0.04025044 0.04014373 0.03997449 0.03974709 0.03948383 0.03918698 0.03887795 0.03855783 0.0382579 0.03798052
 0.03777019 0.0376295 0.03759959 0.03767941 0.03788644 0.03821829 0.03867569 0.03926119 0.03998105 0.04083441
 0.04183086 0.04294411 0.04416671 0.04543717 0.0467273 0.04795503 0.04908594 0.05004337 0.0507995 0.05130816
 0.05155318 0.05153337 0.05124399 0.0507197 0.04996184 0.04902067 0.04789952 0.04665808 0.04530229 0.0439025
 0.04246691 0.04106653 0.03970831 0.03844767 0.03728645 0.03625601 0.03534862 0.03457098 0.03390296 0.03333466
 0.032832 0.03237848 0.03192573 0.03145592 0.03091225 0.03027721 0.02950517 0.02858322 0.02749591 0.02623756
 0.02482673 0.02326326 0.02159628 0.0198294 0.01803337 0.01621272 0.01443515 0.01270193 0.01105449 0.009491595
 0.008031322 0.006671194 0.005417223 0.004260912 0.003195655 0.002208498 0.001284023 0.0004185177 -0.0003968167 -0.00115443
 -0.001851949 -0.002487963 -0.00305938 -0.003577416 -0.004042828 -0.004469741 -0.004859251 -0.005227459 -0.005575232 -0.005925009
 -0.006277686 -0.006648566 -0.00703602 -0.007434324 -0.007840564 -0.008238371 -0.00862767 -0.008999041 -0.009355753 -0.009698588
 -0.01003335 -0.01036708 -0.01070679 -0.01106181 -0.01143481 -0.01183184 -0.01224713 -0.01268106 -0.01312273 -0.01356976
 -0.01401098 -0.01444425 -0.01485984 -0.01525625 -0.01562807 -0.01597469 -0.01629675 -0.01659441 -0.01687184 -0.01712933
 -0.01737121 -0.01759718 -0.01780874 -0.01800415 -0.01817929 -0.01833268 -0.01845822 -0.01855886 -0.01863527 -0.01869255
 -0.01873737 -0.01876753 -0.01878642 -0.01878115 -0.01874853 -0.01867246 -0.01854768 -0.01836332 -0.01811546 -0.01780424
 -0.01742797 -0.01700002 -0.01652069 -0.01601371 -0.01548079 -0.01495529 -0.01444162 -0.01398907 -0.0136047 -0.01334789
 -0.01322007 -0.01326042 -0.01345607 -0.01380487 -0.01428259 -0.01485903 -0.01550628 -0.01619144 -0.01688522 -0.01756241
 -0.01819592 -0.01876823 -0.01926356 -0.01967275 -0.01999377 -0.02022402 -0.02036904 -0.02042884 -0.02041112 -0.02031622
 -0.02015423 -0.01992581 -0.01964444 -0.01931144 -0.01894355 -0.01854252 -0.0181252 -0.01769266 -0.0172569 -0.01681751
 -0.01637992 -0.01594163 -0.01550273 -0.0150572 -0.01459983 -0.01412473 -0.01362417 -0.01310332 -0.01255864 -0.01201161
 -0.01146615 -0.01094716 -0.01046115 -0.01001829 -0.009621926 -0.009264315 -0.008945392 -0.008651856 -0.008383192 -0.008132652
 -0.007900434 -0.007686197 -0.007488994 -0.007305353 -0.007131674 -0.00695653 -0.006774816 -0.006571501 -0.006342012 -0.006073493
 -0.005764538 -0.005407677 -0.005008305 -0.004566271 -0.004091801 -0.003590256 -0.003065275 -0.002520434 -0.001949734 -0.001351533
 -0.0007268304 -7.34224E-05 0.0005864911 0.001251997 0.001891017 0.002502292 0.003069859 0.003595763 0.004090934 0.004559457
 0.005026631 0.005494086 0.005980623 0.006483761 0.007007789 0.00754881 0.008103306 0.008667865 0.009238485 0.00981128
 0.01038271 0.01094977 0.01150971 0.01206318 0.0126098 0.01315056 0.01368559 0.01421532 0.01473924 0.01526342
 0.01578817 0.01632174 0.01686426 0.01741123 0.01796132 0.01849963 0.01902662 0.01953627 0.02003125 0.02051747
 0.02099505 0.02146741 0.02193305 0.02239029 0.0228408 0.02328497 0.02372647 0.02416719 0.02461215 0.02506265
 0.0255279 0.02601096 0.02651858 0.02705446 0.02761101 0.02818876 0.02877086 0.0293559 0.02993406 0.03050505
 0.03107144 0.03163372 0.03219829 0.03276418 0.03333038 0.0338947 0.0344483 0.03499315 0.03552726 0.03605774
 0.03659604 0.03714146 0.03770214 0.03826101 0.03880938 0.03933267 0.03981847 0.04027292 0.04069422 0.04109523
 0.04147922 0.04184952 0.0422067 0.04255469 0.04289357 0.04323283 0.0435728 0.04391445 0.04425699 0.0445925
 0.04492101 0.04523848 0.04554562 0.04584214 0.04612939 0.04640858 0.04668441 0.04696438 0.04725147 0.04755343
 0.04786496 0.048184 0.0485085 0.04883472 0.0491711 0.0495213 0.04988361 0.05026094 0.05063372 0.05099897
 0.05134832 0.05167993 0.05200846 0.05233463 0.05267194 0.05302027 0.05338242 0.05375879 0.05415308 0.05456604
 0.05500161 0.05546101 0.05594707 0.05646491 0.05702475 0.05762591 0.05827744 0.05895829 0.05966026 0.06035418
 0.06102233 0.06165334 0.06223749 0.06278204 0.06328612 0.0637619 0.06421078 0.06464302 0.06505963 0.06546608
 0.06586271 0.06625482 0.06664378 0.06704609 0.06746269 0.06790958 0.0683815 0.06887169 0.06937104 0.06985696
 0.07032299 0.07075201 0.07113498 0.07145745 0.07171066 0.07187901 0.07197576 0.07199765 0.07197983 0.07193296
 0.07188241 0.07183577 0.0718056 0.07179289 0.07182025 0.07188955 0.07201973 0.07221146 0.07245488 0.07274821
 0.07306995 0.07341834 0.07377487 0.07413584 0.07447719 0.07480174 0.07510011 0.07538629 0.07568122 0.07598434
 0.07630552 0.07663318 0.07694686 0.07729084 0.07766268 0.07817423 0.07888155 0.07977051 0.08087881 0.08198339
 0.08304783 0.08399351 0.08480255 0.08558319 0.08634029 0.0871613 0.088042 0.08897009 0.0899283 0.09082185
 0.09163221 0.09224605 0.09266238 0.09281638 0.09273446 0.09242577 0.09192282 0.09126385 0.0904688 0.08955675
 0.08856192 0.08749638 0.08641959 0.08535271 0.0843403 0.08339719 0.08254086 0.08177503 0.08111576 0.08056558
 0.0801245 0.07979204 0.07951313 0.07928113 0.07900278 0.07867406 0.07822096 0.07765225 0.07695083 0.07614338
 0.07527807 0.07438213 0.0735285 0.0727028 0.07192395 0.07115121 0.0703475 0.06952848 0.06868225 0.06786741
 0.06710752 0.066415 0.06579847 0.06524854 0.06475959 0.06437141 0.064087 0.06394062 0.0639337 0.064023
 0.06420468 0.06441804 0.06466667 0.06494019 0.0652438 0.06559094 0.06598072 0.066419 0.06690007 0.06742048
 0.06796747 0.06852543 0.06908715 0.06963603 0.07019124 0.07075691 0.07135437 0.07199798 0.07267227 0.07337893
 0.07408716 0.07479162 0.07548007 0.07615093 0.07679685 0.07741737 0.07800664 0.07856604 0.07911336 0.0796473
 0.08017585 0.08068439 0.08112517 0.08148992 0.08172631 0.08185887 0.08190063 0.08188198 0.08184846 0.08179636
 0.0817396 0.08166139 0.08155198 0.08141667 0.08125342 0.08107664 0.08089127 0.08069597 0.08049249 0.08026751
 0.08001973 0.07974247 0.07943539 0.07911555 0.07878446 0.07846786 0.07816249 0.07786229 0.07756288 0.07723913
 0.07690426 0.07657434 0.07626738 0.07602903 0.07584208 0.07571202 0.07559846 0.0754678 0.07530762 0.07509996
 0.07485327 0.0745723 0.07423971 0.07385425 0.07338969 0.0728379 0.07221382 0.07151594 0.07079192 0.0700443
 0.06930456 0.06857092 0.06782876 0.06707286 0.06626018 0.06539753 0.06447527 0.06352714 0.06262457 0.06180058
 0.06115297 0.06066174 0.06035473 0.06016657 0.060059 0.05997266 0.05986543 0.05970648 0.0594702 0.05916797
 0.0587893 0.0583989 0.05800406 0.05766502 0.05739194 0.05716333 0.05697843</values></Ydata></AB><ScSm><Ydata ylabel="Single channel"><values byteorder="INTEL" format="FLOAT32" numvalues="1814"> 0.0738726 0.07386587 0.07393208 0.07409781 0.07433014 0.07455765 0.0747202 0.07480466 0.07482736 0.07479395
 0.07471149 0.07463834 0.07467029 0.07484886 0.07510361 0.07529937 0.07534322 0.07526723 0.07521299 0.07529204
 0.0754327 0.07540084 0.07502231 0.07438475 0.0737787 0.07342932 0.07335867 0.07355674 0.07411931 0.07497788
 0.07560461 0.07539288 0.0744202 0.07347559 0.07318507 0.07341313 0.07363489 0.07354442 0.07314658 0.07263029
 0.07242092 0.07307172 0.07471775 0.07661846 0.07742258 0.07602619 0.07236607 0.0676627 0.06396304 0.06304045
 0.06514627 0.06866441 0.07132535 0.07201329 0.07129318 0.07025678 0.06934733 0.06850936 0.06795792 0.06821875
 0.06940746 0.07074156 0.07095088 0.06937161 0.06673591 0.06464174 0.06408979 0.06486337 0.06639775 0.06839488
 0.0699461 0.069034 0.06452111 0.05866122 0.05608787 0.0594038 0.0664046 0.07223712 0.07371882 0.07112595
 0.06678137 0.06312867 0.06180402 0.06320159 0.06641584 0.06998818 0.07278677 0.0740511 0.07318787 0.07028991
 0.06665605 0.06416851 0.06413288 0.06675653 0.07110468 0.0751976 0.07691579 0.07556289 0.07232311 0.06901258
 0.06688927 0.06666456 0.0686819 0.07255932 0.07716317 0.08125991 0.0840178 0.08510405 0.08476238 0.08365189
 0.08234198 0.08122405 0.08086082 0.08163424 0.08283398 0.08293428 0.08125514 0.07886924 0.07749704 0.07772861
 0.07855374 0.07858919 0.07747868 0.07567034 0.0730528 0.06891771 0.06359987 0.05892248 0.05637503 0.05597147
 0.05732635 0.06024313 0.06346297 0.06460518 0.06278817 0.06027807 0.06024627 0.06337972 0.06753768 0.07034601
 0.07138867 0.07200904 0.07359608 0.07617547 0.07824995 0.07792976 0.07480265 0.07097317 0.06956849 0.07167006
 0.0752778 0.07776792 0.07865679 0.07930852 0.08054972 0.08138819 0.08005551 0.07611388 0.07156733 0.06961463
 0.07186411 0.0767234 0.08056156 0.08040833 0.07595173 0.06957353 0.06448279 0.06250509 0.06360993 0.06713913
 0.07251982 0.07862557 0.08348429 0.08539194 0.08416342 0.08101267 0.07718117 0.07281715 0.06761401 0.06264848
 0.06060994 0.06325264 0.06914445 0.07486043 0.07804254 0.07857259 0.07724035 0.07430373 0.06969625 0.06435962
 0.06067191 0.06061557 0.06339908 0.06589811 0.06591497 0.06417558 0.06274067 0.06243788 0.06255025 0.06236476
 0.06217546 0.06274822 0.0642139 0.06576152 0.06642342 0.06596342 0.06491978 0.06397279 0.0633347 0.0626089
 0.06135061 0.05994057 0.05955572 0.0608757 0.06314282 0.06494218 0.06562474 0.06554395 0.06512374 0.0641487
 0.06210317 0.05915023 0.0565547 0.05575504 0.0569653 0.05902932 0.06063204 0.06125662 0.06105934 0.06038687
 0.05954131 0.0586839 0.05788459 0.05733048 0.05728082 0.05769238 0.058139 0.05824037 0.05796768 0.05745622
 0.05674673 0.05583418 0.05484526 0.05404348 0.05364249 0.05363793 0.05384705 0.05408003 0.05420248 0.05408382
 0.05364392 0.05297346 0.0522843 0.05171762 0.05128796 0.0509962 0.05087668 0.0509091 0.0509719 0.05093109
 0.05074588 0.0504642 0.05014075 0.04979142 0.04942104 0.04906487 0.04878667 0.04862899 0.04856128 0.04849941
 0.04840259 0.04831803 0.04828331 0.04822659 0.04803741 0.04771279 0.04736469 0.04709619 0.0469234 0.04680322
 0.04668322 0.04651348 0.04624664 0.04587352 0.04547535 0.04520181 0.04515585 0.04531362 0.0455694 0.04581581
 0.04596847 0.04598314 0.04588663 0.04574655 0.04559238 0.04540312 0.04517205 0.04494758 0.04481021 0.04481907
 0.04496206 0.04515423 0.04530366 0.04537246 0.04537159 0.04533747 0.04532451 0.04536692 0.04542769 0.04543185
 0.04536297 0.04528648 0.0452696 0.04530908 0.04534418 0.04532773 0.04528117 0.0452742 0.04534733 0.04547166
 0.04559236 0.04568801 0.04577426 0.04586644 0.04595023 0.04598899 0.04596691 0.04592028 0.0459046 0.04593612
 0.0459931 0.04606638 0.04617209 0.04631211 0.04645222 0.04655067 0.04659943 0.04663071 0.04667971 0.0467419
 0.04677955 0.04677237 0.04674355 0.04672996 0.0467445 0.04677577 0.04680877 0.04683517 0.04685086 0.04685343
 0.04684334 0.04682366 0.04679553 0.0467582 0.04672068 0.04670682 0.04673347 0.04678229 0.04680715 0.04677673
 0.04670595 0.04664019 0.04660874 0.04659852 0.04657881 0.04654418 0.04651878 0.04652136 0.04654483 0.0465725
 0.0465968 0.04661855 0.0466462 0.04670285 0.04681649 0.04698844 0.04717906 0.04733875 0.04745231 0.04754525
 0.04765018 0.04777752 0.04791826 0.04806425 0.04822125 0.04840183 0.04860325 0.04879753 0.04895753 0.04909227
 0.04923953 0.04942308 0.04963543 0.04986062 0.05008874 0.05030545 0.05049404 0.05065866 0.05082723 0.05102121
 0.05123483 0.05145068 0.05166414 0.05188301 0.05211254 0.05235228 0.05260635 0.05288688 0.0532028 0.05354662
 0.0538926 0.05421117 0.05449343 0.05476538 0.05507109 0.05543445 0.05583772 0.05623847 0.05660621 0.05694389
 0.05727655 0.05762108 0.05797282 0.05832659 0.05870018 0.0591189 0.05957928 0.0600467 0.06049221 0.06091706
 0.06133793 0.06176282 0.0621886 0.06261296 0.06304023 0.06347509 0.06391381 0.06434521 0.06476229 0.06517033
 0.06558053 0.06600092 0.06643467 0.06687669 0.0673051 0.0676914 0.06803566 0.06838029 0.0687668 0.06918398
 0.06958194 0.06993659 0.07027553 0.0706355 0.07101989 0.07141159 0.07180841 0.07222368 0.07265811 0.07308662
 0.07347415 0.07380029 0.0740738 0.07432866 0.0746011 0.07490913 0.07525679 0.07564804 0.0760774 0.07651184
 0.07690547 0.07723643 0.07751576 0.07776722 0.07801731 0.0782962 0.07862127 0.07897851 0.07933286 0.0796527
 0.07992171 0.08014929 0.08038116 0.0806742 0.08104227 0.08144578 0.08184735 0.08225331 0.08268325 0.08312589
 0.0835557 0.0839797 0.0844308 0.08491039 0.08536805 0.08575219 0.08605908 0.08631827 0.08655669 0.08680133
 0.08709432 0.08746953 0.0879169 0.08839129 0.08885245 0.08928221 0.08967236 0.09001637 0.0903145 0.09057629
 0.09081379 0.09103438 0.0912426 0.09144908 0.09167071 0.09191218 0.09214969 0.09234405 0.09247017 0.09252264
 0.09249617 0.09238203 0.09219186 0.09196604 0.09173708 0.09148809 0.09116273 0.09071642 0.09014755 0.08947974
 0.08873096 0.08791201 0.08705167 0.08621207 0.0854723 0.08489645 0.08452275 0.08438405 0.08452114 0.08495149
 0.08561954 0.08639164 0.08710608 0.08762486 0.08785206 0.08773892 0.08729619 0.08659366 0.08572985 0.0847967
 0.08386589 0.08298703 0.08218245 0.08145481 0.08082039 0.08033627 0.08008922 0.08017469 0.08070838 0.08183456
 0.08365241 0.08608395 0.08883007 0.09150302 0.09382896 0.09573935 0.09730823 0.09864581 0.09984113 0.1009474
 0.10198 0.1029312 0.1037969 0.1045849 0.105298 0.105921 0.1064307 0.1068108 0.107063 0.1072129
 0.1073047 0.1073841 0.1074862 0.1076344 0.1078324 0.1080456 0.1081978 0.1082014 0.1079936 0.1075515
 0.1068946 0.1061092 0.1054075 0.1051558 0.1057673 0.1074605 0.1100654 0.1130833 0.1159699 0.1183918
 0.1202777 0.1217151 0.1228389 0.123769 0.1245842 0.1253224 0.1260001 0.126628 0.1272156 0.1277718
 0.1283075 0.1288328 0.1293543 0.1298736 0.1303878 0.130889 0.1313705 0.1318335 0.1322883 0.1327468
 0.133213 0.1336789 0.1341355 0.1345858 0.1350414 0.1355038 0.1359595 0.1363971 0.1368179 0.1372303
 0.1376433 0.1380633 0.1384869 0.1388979 0.1392812 0.1396377 0.1399818 0.1403267 0.1406772 0.1410313
 0.141383 0.1417249 0.1420545 0.14238 0.1427163 0.1430683 0.1434185 0.1437408 0.1440285 0.1443022
 0.1445875 0.1448893 0.1451932 0.1454861 0.145775 0.1460845 0.1464353 0.1468199 0.1472033 0.1475526
 0.1478649 0.1481636 0.1484718 0.1487933 0.1491198 0.1494467 0.1497768 0.1501117 0.1504484 0.1507826
 0.151113 0.1514415 0.1517701 0.1520981 0.1524214 0.1527348 0.1530392 0.1533424 0.1536533 0.1539772
 0.1543139 0.1546554 0.1549873 0.1552987 0.1555906 0.1558716 0.1561459 0.1564125 0.1566741 0.1569403
 0.157218 0.1575058 0.1577995 0.158098 0.1583989 0.1586974 0.1589939 0.1592972 0.1596124 0.1599297
 0.1602357 0.160531 0.160827 0.1611271 0.1614231 0.161708 0.1619848 0.1622619 0.1625447 0.1628317
 0.1631156 0.1633911 0.1636639 0.1639461 0.1642395 0.1645319 0.1648118 0.1650809 0.1653494 0.1656231
 0.1658993 0.1661732 0.1664449 0.1667197 0.1670016 0.1672895 0.1675793 0.1678673 0.1681502 0.168426
 0.1686964 0.1689675 0.169246 0.169534 0.1698271 0.1701173 0.1703998 0.1706738 0.1709393 0.1711971
 0.1714518 0.1717098 0.1719744 0.1722438 0.1725148 0.1727846 0.1730524 0.1733195 0.1735859 0.1738496
 0.1741127 0.1743821 0.1746611 0.1749459 0.1752303 0.1755095 0.1757801 0.1760445 0.1763105 0.176585
 0.1768681 0.1771546 0.1774351 0.1777004 0.1779512 0.1781983 0.1784499 0.178705 0.1789592 0.1792095
 0.1794533 0.1796928 0.1799355 0.1801851 0.1804361 0.1806825 0.1809239 0.1811655 0.1814144 0.1816752
 0.1819443 0.1822146 0.1824829 0.1827481 0.18301 0.1832745 0.1835499 0.1838331 0.1841119 0.1843809
 0.1846437 0.1849051 0.1851689 0.1854367 0.1857045 0.1859691 0.1862362 0.1865101 0.1867841 0.1870494
 0.1873038 0.1875463 0.1877788 0.1880113 0.1882541 0.1885076 0.1887668 0.1890263 0.1892791 0.1895242
 0.1897694 0.1900174 0.1902606 0.190497 0.190734 0.1909741 0.1912161 0.1914649 0.1917219 0.1919799
 0.1922358 0.1924932 0.1927506 0.1930057 0.1932629 0.1935201 0.1937646 0.1939928 0.1942088 0.1944003
 0.1945206 0.1944449 0.1938599 0.1921461 0.1883724 0.1814912 0.1707646 0.1562406 0.1389005 0.1203032
 0.1020095 0.08518693 0.07051276 0.05827842 0.04854101 0.04121622 0.03613729 0.03315846 0.03226489 0.03368513
 0.03801235 0.04585255 0.0564966 0.06674366 0.07214801 0.07053293 0.06407548 0.05732183 0.05340731 0.05254233
 0.0533741 0.05475051 0.05630752 0.05825911 0.06097389 0.06456104 0.06884941 0.07383342 0.07989208 0.08730704
 0.09568259 0.1041108 0.1119549 0.1193533 0.126913 0.1349876 0.1433094 0.1512531 0.1583365 0.1644677
 0.1698462 0.1747366 0.1793176 0.1836681 0.1878223 0.1917689 0.195365 0.1983044 0.2002647 0.2011516
 0.201212 0.2008957 0.2005941 0.2004893 0.2005988 0.2008914 0.201344 0.2019408 0.2026637 0.203485
 0.2043639 0.2052637 0.2061667 0.2070619 0.2079287 0.2087435 0.2094928 0.2101708 0.2107768 0.2113187
 0.2118108 0.2122664 0.2126963 0.2131078 0.2135027 0.21388 0.2142419 0.2145908 0.2149221 0.215228
 0.2155055 0.2157585 0.2159972 0.2162325 0.2164669 0.2166951 0.2169165 0.2171416 0.2173791 0.2176269
 0.2178794 0.2181342 0.2183883 0.218637 0.2188785 0.2191129 0.2193391 0.2195574 0.2197729 0.2199917
 0.2202178 0.2204532 0.2206964 0.2209401 0.2211755 0.2214006 0.2216219 0.2218493 0.2220878 0.2223337
 0.2225826 0.2228408 0.2231162 0.2234011 0.2236776 0.2239408 0.2242003 0.2244621 0.2247247 0.2249862
 0.2252424 0.2254829 0.2257014 0.2259089 0.2261308 0.2263894 0.2266812 0.2269765 0.2272495 0.2275044
 0.22776 0.228021 0.2282744 0.2285085 0.2287288 0.2289633 0.229245 0.2295755 0.2299226 0.2302601
 0.2305855 0.2308979 0.2311943 0.2314889 0.231793 0.2320758 0.2322909 0.23245 0.232641 0.2329574
 0.233408 0.2338986 0.2343167 0.2346301 0.2348918 0.2351708 0.2355034 0.2358667 0.236154 0.2362481
 0.2361936 0.2362304 0.2365729 0.2371958 0.2378935 0.2384947 0.2389678 0.2393656 0.2397303 0.2400455
 0.240252 0.2403147 0.2403009 0.2403912 0.2407584 0.2413941 0.242097 0.2426712 0.2430799 0.2433847
 0.2436364 0.2438601 0.2440154 0.2439428 0.2435323 0.2430238 0.2429451 0.2436017 0.2447294 0.2457762
 0.2464514 0.2468693 0.2472302 0.2475702 0.2478362 0.2479379 0.2476139 0.2465747 0.2450712 0.2440662
 0.2444412 0.2461023 0.2481322 0.2497067 0.2506238 0.2511008 0.2514058 0.2516731 0.2518058 0.2514988
 0.2505808 0.2494493 0.2489605 0.2496412 0.2510979 0.2524359 0.2531679 0.25347 0.2537039 0.2540119
 0.2542205 0.2538006 0.2521715 0.2495611 0.2474316 0.2474496 0.2498552 0.25317 0.2556601 0.2568258
 0.2572586 0.2573615 0.2567567 0.2549666 0.2521384 0.2489801 0.2465201 0.2459545 0.2478616 0.2512221
 0.2539946 0.2551277 0.255452 0.2563192 0.2579852 0.2596299 0.2604133 0.2601233 0.2590307 0.2574261
 0.2554746 0.2536326 0.2529166 0.2541852 0.2570843 0.26017 0.2622473 0.263275 0.2637276 0.2631941
 0.260103 0.2536052 0.2459359 0.2418063 0.2442471 0.2514355 0.2586555 0.2629416 0.2647047 0.2655135
 0.2659849 0.2656167 0.2630934 0.2570167 0.2481229 0.2406582 0.2395084 0.2453758 0.2539842 0.2600619
 0.2609277 0.2567773 0.2497379 0.2432375 0.24061 0.2430741 0.2491957 0.2563089 0.2621168 0.2653197
 0.26561 0.2635586 0.2605673 0.2585229 0.2584368 0.2589542 0.2573752 0.2530643 0.2485101 0.2456779
 0.2429824 0.2382365 0.2334391 0.2334481 0.2396524 0.2476418 0.2521514 0.2523901 0.251119 0.2496463
 0.2456255 0.2364586 0.2242146 0.2157317 0.2166288 0.2254816 0.2350925 0.2395228 0.2388151 0.2369141
 0.2363915 0.2358267 0.2318394 0.2234973 0.214543 0.2102658 0.2119089 0.2155495 0.2167498 0.2141514
 0.2080055 0.198666 0.1889672 0.1851651 0.1916829 0.2056901 0.2193156 0.2261524 0.223657 0.2117318
 0.1934555 0.1767909 0.1707508 0.177396 0.1893625 0.1966334 0.1945269 0.1845886 0.1702512 0.1543882
 0.1405277 0.1333432 0.1358524 0.1463016 0.1583755 0.1644818 0.1599539 0.1465303 0.1323945 0.1263203
 0.1298781 0.1364701 0.1387479 0.1352576 0.129461 0.1251221 0.1240484 0.1259311 0.1287553 0.1306269
 0.1312944 0.130247 0.1246829 0.1129259 0.09922113 0.09100953 0.09116098 0.09644999 0.1035346 0.1119362
 0.1201757 0.1237555 0.1202254 0.113856 0.1120309 0.1174374 0.12576 0.1309483 0.1312035 0.1293361
 0.1283652 0.128228 0.1273146 0.1260682 0.1271457 0.1317177 0.1373947 0.1408809 0.1414207 0.1405161
 0.1393927 0.138081 0.1362787 0.1338879 0.1309418 0.1276931 0.1245583 0.1216572 0.1187179 0.1155327
 0.1119922 0.1075188 0.1012042 0.09320821 0.08562229 0.08090495 0.07936701 0.07923126 0.0792226 0.07941709
 0.07896207 0.07526134 0.06743664 0.0592999 0.05662553 0.06158853 0.07113358 0.08040519 0.08634907 0.08798189
 0.08509584 0.07871367 0.07267341 0.07241998 0.08050942 0.09413695 0.1082095 0.1197554 0.1281559 0.1326894
 0.1323081 0.1277944 0.1225413 0.1206497 0.1245062 0.1336693 0.1448275 0.1524793 0.1516531 0.1429935
 0.1351806 0.138498 0.1538556 0.1710488 0.1802073 0.1818677 0.1827831 0.1854256 0.186824 0.1861922
 0.1879025 0.1955225 0.2065295 0.2147415 0.2157034 0.2084469 0.1949127 0.180344 0.1719233 0.1731103
 0.1798667 0.185164 0.185848 0.18226 0.1740426 0.1618033 0.1515492 0.1511074 0.1610124 0.1733504
 0.1807726 0.1832187 0.1846639 0.1862919 0.185122 0.1785888 0.168777 0.1611122 0.1589521 0.1606124
 0.1621634 0.1615659 0.1588055 0.1536108 0.1455483 0.1362658 0.1295633 0.1281887 0.1311667 0.1348932
 0.1365498 0.1360093 0.134858 0.1344779 0.1351359 0.1361935 0.1370865 0.1385702 0.1425826 0.1499786
 0.158865 0.1664141 0.1720825 0.1777643 0.1847992 0.1920175 0.1970327 0.1987766 0.1985604 0.1990364
 0.2021093 0.2073837 0.212413 0.2147777 0.2143874 0.2137772 0.2157595 0.2206935 0.2264003 0.2306169
 0.2328545 0.2339247 0.2346012 0.2350076 0.2346066 0.232686 0.2295789 0.22737 0.2284649 0.2331996
 0.2394477 0.2446825 0.247909 0.2495821 0.2503411 0.2502882 0.2493235 0.2477636 0.2463667 0.2457633
 0.2460401 0.2468979 0.2480094 0.2491415 0.2501324 0.2509233 0.2515633 0.2521275 0.2526733 0.2532652
 0.2539403 0.2546345 0.2552377 0.255763 0.2563776 0.2572015 0.2581323 0.2589383 0.2594625 0.2596418
 0.259387 0.2586005 0.2573219 0.2557226 0.2539137 0.2518771 0.249691 0.2477792 0.2467956 0.247155
 0.2486643 0.2506445 0.2524038 0.253583 0.2541524 0.2542456 0.2540498 0.2537504 0.2534713 0.2532422
 0.2530336 0.2528167 0.2525892 0.2523614 0.2521414 0.2519445 0.251805 0.2517538 0.2517825 0.2518391
 0.2518626 0.2518222 0.2517346 0.2516506 0.2516145 0.2516267 0.2516421 0.2516008 0.2514647 0.2512446
 0.2509976 0.2507831 0.2506081 0.2504216 0.2501708 0.2498436 0.2494394 0.2489184 0.248232 0.2474146
 0.2465969 0.2458984 0.2453337 0.2448378 0.2443394 0.2437801 0.2431072 0.2422924 0.2413496 0.2403135
 0.2392083 0.2380416 0.2368118 0.2355112 0.2341293 0.232659 0.231096 0.2294351 0.227671 0.2257976
 0.2237932 0.221595 0.2190963 0.2161794 0.2127503 0.2087533 0.204187 0.1991373 0.1937831 0.188346
 0.1830239 0.1779622 0.1732626 0.1690094 0.1652889 0.16218 0.1597252 0.1579219 0.156748 0.1561881
 0.1562357 0.1568763 0.1580624 0.1596976 0.161649 0.1637702 0.1659074 0.1679118 0.169692 0.171263
 0.1727239 0.174174 0.1756504 0.1771376 0.1786085 0.1800376 0.1813827 0.1825858 0.183607 0.1844369
 0.1850668 0.1854687 0.1856164 0.1855047 0.1851397 0.184537 0.1837526 0.1829116 0.182194 0.1817794
 0.1817833 0.1822301 0.1830771 0.1842559 0.1856849 0.1872584 0.1888491 0.1903408 0.1916669 0.1928253
 0.1938619 0.1948591 0.1959456 0.1972851 0.1990169 0.2011964 0.2037866 0.2066776 0.2096996 0.2126495
 0.2153403 0.2176483 0.2195328 0.2210256 0.2221874 0.2230625 0.2236724 0.2240423 0.2242111 0.2242247
 0.2241326 0.2239805 0.223791 0.2235581 0.2232668 0.222912 0.2225064 0.2220871 0.2217036 0.2213855
 0.221121 0.2208735 0.2206136 0.2203347 0.2200436 0.2197415 0.2194192 0.2190687 0.2186861 0.2182599
 0.2177737 0.2172197 0.2165875 0.2158411 0.214933 0.2138379 0.2125513 0.2110663 0.2093822 0.2075396
 0.205632 0.20378 0.2020858 0.2005919 0.1992684 0.19803 0.1967603 0.1953443 0.1937195 0.1919115
 0.1900079 0.1880953 0.1862193 0.1843831 0.1825691 0.1807705 0.1790103 0.1773201 0.1757088 0.1741602
 0.1726544 0.1711819 0.16975 0.1683845 0.1671214 0.1659916 0.1650116 0.1641785 0.1634714 0.162863
 0.162328 0.1618404 0.1613812 0.1609607 0.1606083 0.1603205 0.1600378 0.159687 0.1592337 0.158697
 0.1581301 0.1575887 0.1571018 0.1566652 0.1562547 0.1558297 0.1553254 0.1546569 0.1537382 0.1525064
 0.1509477 0.1491064 0.1470647 0.1449229 0.1428007 0.1408263 0.139098 0.1376621 0.1365197 0.1356286
 0.1349053 0.1342664 0.1336874 0.1332151 0.1329149 0.1327873 0.132722 0.1325659 0.1322694 0.1319421
 0.1317479 0.131776 0.1320128 0.132376 0.1327517 0.1330448 0.1332167 0.1332717 0.1332275 0.1331093
 0.1329376 0.1327087 0.132409 0.1320443 0.1316294 0.1311691 0.1306618 0.1301006 0.1294684 0.1287579
 0.1279829 0.1271524 0.1262571 0.1252823 0.1242024 0.1229907 0.1217009 0.1205219 0.1196926 0.1193566
 0.1194949 0.1199529 0.1205407 0.121145 0.1217054 0.1220718 0.1220461 0.1217054 0.1215654 0.1222132
 0.1237435 0.1256485 0.1272658 0.128245 0.1285834 0.1283876 0.1277436 0.1267243 0.1253547 0.1235934
 0.1214401 0.1189967 0.1163788 0.1136837 0.1110625 0.1086856 0.1066375 0.1049279 0.1035548 0.1025698
 0.1020942 0.1017954 0.1000618 0.09486269 0.08685935 0.08077668 0.08143559 0.08833438 0.09598818 0.09972626
 0.09943117 0.09762774 0.09608716 0.09512164 0.09467279 0.09485576 0.09575567 0.09722455 0.09888986 0.1003473
 0.1014006 0.102052 0.1022549 0.1017218 0.09988897 0.09610452 0.09015694 0.08275583 0.0753061 0.06910765
 0.06478806 0.0622943 0.06113192 0.06065337 0.06039362 0.06028625 0.06057145 0.06150086 0.06312795 0.0653393
 0.0679827 0.07085137 0.07359587 0.07585755 0.07754441 0.07882746 0.07983617 0.08050311 0.08071875 0.08049163
 0.07992956 0.07916537 0.07831971 0.07746308 0.07657773 0.07558828 0.07448784 0.07344641 0.07272193 0.07242014
 0.07240807 0.07248888 0.07256646 0.07262322 0.07265577 0.07267196 0.07268795 0.07273693 0.072905 0.07327689
 0.07380512 0.07431489 0.07466657 0.07485771 0.07497291 0.0750614 0.07503992 0.07476662 0.07428621 0.073873
 0.07366273 0.07339021 0.07273731 0.07184139 0.0712058 0.07114285 0.07149506 0.07187811 0.07203184 0.07193573
 0.071753 0.07175009 0.07214153 0.07284604</values></Ydata></ScSm><ScRf><Ydata ylabel="Single channel"><values byteorder="INTEL" format="FLOAT32" numvalues="1820"> 0.06072506 0.06087654 0.06096368 0.06098842 0.06097999 0.06098869 0.06106459 0.0612246 0.06143551 0.06163137
 0.06175854 0.06180999 0.06180889 0.06176715 0.06169097 0.06162596 0.06165098 0.06180172 0.06201895 0.06218718
 0.06222617 0.06216053 0.06210636 0.06215758 0.06226158 0.06223239 0.06192627 0.06140765 0.06090952 0.0606181
 0.06055482 0.06071291 0.06117441 0.06188893 0.06242185 0.06226204 0.06146027 0.06066527 0.06040287 0.06057167
 0.06074311 0.06066369 0.06033337 0.05990421 0.05972701 0.06026219 0.06162583 0.06320734 0.06388642 0.06274397
 0.05972191 0.05582624 0.05274915 0.05196144 0.05368128 0.05658169 0.05878541 0.05936227 0.05877639 0.05793366
 0.05720023 0.05652185 0.05606894 0.05627896 0.05725691 0.05835996 0.0585317 0.05721585 0.05502025 0.05327591
 0.05281622 0.05345998 0.05473589 0.05639528 0.05768442 0.05692947 0.05318323 0.04831202 0.04616746 0.04892844
 0.05477694 0.05966999 0.06093556 0.05878719 0.05516373 0.0521135 0.05100368 0.05215857 0.05482424 0.05779292
 0.06012567 0.06118534 0.06047545 0.05807656 0.05506966 0.05301137 0.05297919 0.05515135 0.05876748 0.06219083
 0.06364829 0.06253912 0.05983728 0.05706189 0.05527533 0.05508008 0.05676699 0.06001928 0.06388715 0.06733304
 0.06965832 0.07058546 0.07031891 0.06941264 0.06834754 0.06744662 0.06716636 0.06782003 0.06882396 0.0689127
 0.06751349 0.06551376 0.06435306 0.06453712 0.06523151 0.0652764 0.0643623 0.06285975 0.06068174 0.0572382
 0.05280185 0.04889189 0.04675788 0.04642171 0.04757651 0.05007339 0.0528554 0.05389768 0.05242348 0.05031846
 0.05026219 0.05286729 0.05636194 0.05875175 0.05967069 0.06023423 0.06160549 0.06380652 0.06558029 0.06533681
 0.06272382 0.05951289 0.05835251 0.0601711 0.06328317 0.06546447 0.06630124 0.06694807 0.06810477 0.06892653
 0.0679068 0.06467143 0.0609301 0.05941059 0.06147965 0.06577371 0.06918924 0.06917661 0.06545745 0.06008483
 0.05584399 0.0543244 0.05550659 0.05883621 0.06383277 0.06951462 0.07414109 0.07618701 0.07544639 0.07295868
 0.06981803 0.06615549 0.06169685 0.05744817 0.05591802 0.05875736 0.06465471 0.07042532 0.07385162 0.0747931
 0.07395978 0.07155789 0.06749557 0.06269757 0.05953056 0.05996582 0.06320107 0.06611362 0.06652528 0.06519167
 0.06419615 0.06435825 0.06492272 0.06515998 0.06541254 0.06651449 0.06859702 0.07076968 0.07197934 0.07196474
 0.07130641 0.07075319 0.07054233 0.07022277 0.06929301 0.0682007 0.06829625 0.07035059 0.07348979 0.0760915
 0.07741763 0.07788666 0.07797498 0.07737197 0.07541826 0.07232901 0.0696915 0.06928419 0.07135996 0.07449017
 0.07705343 0.07840224 0.07871547 0.07841419 0.07787269 0.07729721 0.07679071 0.07661751 0.07713532 0.07828882
 0.07949081 0.08020849 0.08040106 0.08026083 0.07983564 0.07910427 0.078247 0.07764634 0.07761153 0.07814859
 0.07900944 0.07991019 0.08062921 0.08096885 0.08082782 0.08035194 0.07984845 0.07950559 0.0793247 0.07931549
 0.07956664 0.08007261 0.08064388 0.0810666 0.08127217 0.08131288 0.08124848 0.08110416 0.08090313 0.08070999
 0.08063781 0.08077356 0.08106962 0.08136839 0.08158454 0.08179268 0.0820633 0.08229494 0.0823199 0.08213253
 0.08190841 0.08181272 0.08186701 0.08199173 0.08209594 0.08209446 0.0819045 0.08152049 0.08110449 0.08091827
 0.08111465 0.08163337 0.082302 0.08295491 0.08345185 0.08370651 0.08375448 0.08371641 0.08365816 0.08354331
 0.08333789 0.0831144 0.08303297 0.08322048 0.08365351 0.08416353 0.08457127 0.08480184 0.0848846 0.08491077
 0.08499565 0.08519087 0.08540581 0.08549092 0.08542074 0.08532896 0.08534522 0.08545218 0.08552533 0.08548537
 0.08539171 0.08538298 0.08553089 0.08577205 0.08599173 0.08614799 0.086293 0.08648145 0.0866752 0.08675621
 0.08665478 0.08644746 0.08628332 0.08622439 0.08622202 0.08624506 0.08634466 0.08655624 0.08680375 0.08696283
 0.08699923 0.08699687 0.08704343 0.08712155 0.08713445 0.08702191 0.08682614 0.08664988 0.08657339 0.0866081
 0.08670212 0.0867783 0.08678177 0.08670901 0.0865977 0.08648858 0.08640092 0.08634955 0.08637615 0.08652993
 0.08679117 0.0870301 0.08708613 0.08691102 0.08662321 0.08640355 0.0863336 0.08633937 0.08628659 0.0861134
 0.08586549 0.0856262 0.0854416 0.08530805 0.08520085 0.08510345 0.08503018 0.08503065 0.08514285 0.08531804
 0.08541894 0.08533461 0.08509122 0.08482099 0.08463566 0.08455765 0.08454721 0.08455162 0.08454371 0.08454625
 0.08459961 0.08468525 0.08472133 0.08466171 0.08455958 0.08451055 0.08457154 0.08474097 0.08496078 0.08512472
 0.08514634 0.08504709 0.08493984 0.08491211 0.08495815 0.08502805 0.08509876 0.08517814 0.08527196 0.08537831
 0.08550739 0.08568391 0.08592045 0.08619187 0.08644079 0.08661503 0.08671167 0.08679062 0.08693627 0.087192
 0.08752576 0.08785798 0.08812569 0.0883268 0.08850562 0.08869515 0.0888848 0.08905783 0.08924223 0.08948971
 0.08980843 0.09015124 0.09047315 0.09077064 0.09106196 0.09135643 0.09165514 0.091969 0.0923249 0.09274097
 0.09318478 0.09356983 0.093823 0.09395869 0.09407388 0.09427385 0.09460101 0.09500249 0.0953515 0.09554258
 0.09560173 0.09567265 0.09586179 0.09612978 0.09637536 0.09659055 0.09687051 0.09727491 0.09773509 0.09811927
 0.09836386 0.09852195 0.09869154 0.09890832 0.09911652 0.0992483 0.09931467 0.09939042 0.09951954 0.0996846
 0.09988046 0.1001582 0.1005531 0.1010072 0.1014113 0.1017061 0.1019058 0.1020475 0.1021554 0.1022387
 0.1022937 0.1023194 0.1023445 0.1024109 0.1025137 0.1025941 0.1026177 0.1026271 0.1026919 0.1028378
 0.1030519 0.1033235 0.1036373 0.1039492 0.1042243 0.1044943 0.1048248 0.1052059 0.1055264 0.1056917
 0.1057298 0.1057386 0.105765 0.1057972 0.1058511 0.1059891 0.1062425 0.1065707 0.1069157 0.1072608
 0.1076165 0.1079742 0.1082902 0.1085097 0.1086048 0.1085979 0.1085564 0.1085606 0.1086714 0.1089052
 0.1092246 0.1095591 0.1098473 0.1100563 0.1101639 0.1101587 0.1100838 0.1100477 0.110142 0.1103387
 0.1104992 0.1104919 0.1102796 0.109897 0.109382 0.1087587 0.1080719 0.1074048 0.1068478 0.1064534
 0.1062328 0.1061982 0.10639 0.1068325 0.1074697 0.1081747 0.1088285 0.1093554 0.1096792 0.1097045
 0.1093857 0.1087892 0.1080552 0.1073108 0.1066279 0.1060205 0.1054523 0.1048815 0.1043453 0.1039961
 0.1040306 0.1045754 0.1056251 0.1070458 0.1086159 0.1101007 0.1113458 0.11233 0.1131294 0.1138311
 0.1144842 0.1151189 0.1157703 0.1164483 0.1171054 0.1176752 0.1181443 0.1185583 0.1189581 0.1193397
 0.1196745 0.1199442 0.1201618 0.1203684 0.120593 0.1208016 0.1209144 0.120894 0.1207903 0.1206777
 0.1205724 0.1204269 0.1201839 0.1198212 0.1193771 0.118969 0.1187806 0.1189886 0.1196602 0.1207068
 0.1219511 0.1232452 0.1245118 0.1256832 0.1266581 0.1273592 0.1278089 0.1281115 0.1283706 0.1286407
 0.1289352 0.1292473 0.1295601 0.1298585 0.1301392 0.130416 0.130715 0.1310522 0.1314068 0.1317289
 0.13199 0.1322212 0.1324894 0.1328319 0.1332181 0.133583 0.1338993 0.1342018 0.134528 0.1348521
 0.1351106 0.1352862 0.1354341 0.1356262 0.1358998 0.1362495 0.1366318 0.1369774 0.137236 0.1374196
 0.1375851 0.1377752 0.1379934 0.1382262 0.1384657 0.1387084 0.1389512 0.1392006 0.1394754 0.1397844
 0.1400973 0.1403571 0.1405344 0.1406633 0.1408104 0.1410111 0.1412441 0.1414649 0.1416583 0.1418585
 0.1421144 0.1424313 0.1427522 0.1430053 0.1431701 0.1432881 0.1434173 0.1435862 0.1437889 0.1440056
 0.1442212 0.1444295 0.1446334 0.1448434 0.1450678 0.1453012 0.1455256 0.145728 0.1459136 0.1460988
 0.1462947 0.1464999 0.1467109 0.1469391 0.1472049 0.1475079 0.1478099 0.1480617 0.1482462 0.1483842
 0.1485066 0.1486319 0.1487679 0.1489208 0.1490967 0.1492978 0.1495176 0.1497416 0.1499598 0.1501735
 0.1503876 0.1505993 0.1508015 0.1509944 0.1511907 0.1514064 0.1516455 0.1518915 0.152119 0.1523152
 0.1524899 0.1526642 0.1528534 0.1530559 0.1532551 0.1534369 0.1536074 0.153786 0.1539814 0.1541823
 0.1543748 0.1545593 0.1547492 0.1549568 0.1551823 0.1554124 0.1556304 0.1558287 0.1560118 0.1561904
 0.1563728 0.1565615 0.156753 0.1569457 0.1571445 0.1573532 0.1575665 0.157775 0.1579755 0.1581715
 0.1583657 0.1585566 0.1587447 0.1589367 0.1591402 0.1593542 0.1595673 0.1597685 0.1599558 0.1601358
 0.1603187 0.1605121 0.1607164 0.1609253 0.161136 0.1613512 0.1615714 0.1617903 0.1620029 0.1622092
 0.1624129 0.1626205 0.1628398 0.1630721 0.1633082 0.1635363 0.1637513 0.1639558 0.164155 0.1643509
 0.1645399 0.1647187 0.1648908 0.1650625 0.1652361 0.165411 0.1655876 0.1657684 0.1659566 0.1661546
 0.1663595 0.1665637 0.1667632 0.1669598 0.1671548 0.1673483 0.1675422 0.1677384 0.1679366 0.1681373
 0.1683405 0.1685423 0.1687404 0.1689412 0.1691527 0.1693742 0.1695998 0.1698234 0.17004 0.1702486
 0.1704555 0.1706648 0.170873 0.1710798 0.171291 0.1715068 0.1717183 0.171919 0.1721134 0.1723142
 0.1725335 0.1727678 0.172995 0.1731989 0.1733885 0.1735823 0.1737865 0.1739987 0.1742175 0.1744386
 0.1746567 0.1748707 0.1750805 0.175287 0.1754978 0.1757197 0.1759458 0.1761655 0.1763779 0.1765856
 0.1767905 0.1769989 0.1772105 0.1774003 0.1775167 0.1774471 0.1769101 0.1753417 0.1718853 0.1655745
 0.1557301 0.1423975 0.126478 0.1094017 0.09260404 0.07716339 0.06370617 0.05249624 0.04357693 0.03686475
 0.03220881 0.02948186 0.02867291 0.02998602 0.03395709 0.041142 0.05090246 0.06031562 0.06530127 0.06384464
 0.05792806 0.05172548 0.04812757 0.04733609 0.04810964 0.04938971 0.05084224 0.05265989 0.05517333 0.05847907
 0.06242427 0.06700896 0.07258007 0.07939319 0.08708777 0.09483573 0.1020533 0.1088648 0.1158271 0.1232658
 0.1309327 0.1382501 0.1447752 0.1504251 0.1553829 0.1598891 0.1641048 0.1681018 0.171917 0.1755479
 0.1788662 0.1815842 0.1833946 0.1842037 0.1842421 0.1839356 0.1836534 0.1835622 0.1836708 0.1839456
 0.1843635 0.1849099 0.1855711 0.1863264 0.1871405 0.1879761 0.1888104 0.1896264 0.1904018 0.1911191
 0.1917773 0.1923861 0.1929557 0.1934927 0.1939929 0.1944465 0.1948551 0.1952358 0.1956041 0.1959621
 0.1963046 0.1966256 0.1969194 0.1971841 0.1974238 0.197646 0.197861 0.1980795 0.198304 0.1985253
 0.1987353 0.1989379 0.1991418 0.1993502 0.1995607 0.1997706 0.1999775 0.2001812 0.2003832 0.2005838
 0.2007812 0.2009736 0.201159 0.201337 0.201513 0.2016984 0.2018989 0.2021056 0.2023038 0.2024885
 0.2026696 0.2028607 0.2030647 0.2032707 0.2034701 0.2036703 0.2038853 0.2041155 0.2043475 0.2045713
 0.2047855 0.2049918 0.2051948 0.2053998 0.205604 0.2057929 0.2059557 0.2061028 0.2062626 0.2064577
 0.2066811 0.206902 0.2071012 0.2072918 0.2074954 0.2077104 0.2079146 0.2080915 0.2082505 0.2084263
 0.2086524 0.2089239 0.2092005 0.2094533 0.2096865 0.2099105 0.2101284 0.2103506 0.210583 0.2107982
 0.2109572 0.2110711 0.2112164 0.2114704 0.2118335 0.212221 0.2125434 0.2127862 0.2129995 0.213232
 0.2135006 0.2137801 0.2139814 0.2140076 0.2139044 0.2138916 0.2141626 0.2146894 0.2152812 0.2157839
 0.2161684 0.216474 0.2167318 0.2169342 0.2170421 0.2170321 0.2169655 0.2170027 0.2172927 0.2178178
 0.2183944 0.2188546 0.2191733 0.219402 0.2195779 0.2197246 0.2198163 0.2197146 0.219314 0.2188213
 0.2187105 0.219264 0.2202493 0.2211641 0.2217336 0.2220553 0.2223207 0.222579 0.222785 0.2228457
 0.2225155 0.2215348 0.2201356 0.2191874 0.2194818 0.2209362 0.2227363 0.2241525 0.224998 0.2254461
 0.2257209 0.2259478 0.2260529 0.2257651 0.2249222 0.2238765 0.2234046 0.223992 0.2252892 0.2264832
 0.2271261 0.2273776 0.2275749 0.2278555 0.2280611 0.2277006 0.2262358 0.223868 0.2219251 0.2219225
 0.2240826 0.2270701 0.2293151 0.2303599 0.2307326 0.2307947 0.2302125 0.228573 0.2260251 0.2232036
 0.221014 0.2205166 0.2222326 0.2252506 0.2277334 0.2287335 0.229005 0.2297773 0.2312885 0.2327944
 0.2335286 0.2332965 0.2323415 0.2309167 0.2291643 0.2275059 0.2268766 0.2280575 0.2307222 0.2335558
 0.235469 0.2364229 0.2368542 0.2363964 0.2336237 0.2277669 0.220854 0.2171464 0.2193767 0.2258937
 0.2324376 0.236332 0.2379575 0.238744 0.2392469 0.2389912 0.236766 0.2313028 0.2232859 0.2165834
 0.2156252 0.2210289 0.2289028 0.234472 0.2353107 0.23159 0.2252396 0.2193865 0.2170718 0.2194038
 0.2250702 0.2316302 0.2369847 0.2399645 0.2403103 0.2385431 0.2359334 0.2342019 0.2342645 0.2348655
 0.2335377 0.2297208 0.2257011 0.2232716 0.2209797 0.2168216 0.2126181 0.2128115 0.2186743 0.2261677
 0.2304816 0.2309194 0.2300193 0.22895 0.225519 0.2173251 0.2062858 0.1987366 0.1998921 0.2084319
 0.2176768 0.2221336 0.2218673 0.2205483 0.2205575 0.2205504 0.2173376 0.2100361 0.202204 0.1988657
 0.2011833 0.2054254 0.2073959 0.2057875 0.200755 0.192582 0.1840603 0.1813612 0.1888578 0.2037982
 0.2184393 0.2264062 0.2250557 0.2141451 0.1967428 0.1810701 0.1765058 0.1852036 0.1994804 0.2088721
 0.2084423 0.1997041 0.1861579 0.170869 0.1578594 0.1526061 0.1587966 0.1745689 0.192462 0.2031142
 0.2004735 0.1865322 0.171758 0.1675754 0.1759605 0.1880386 0.1939916 0.1919547 0.1866882 0.1834698
 0.1850402 0.1910389 0.1983895 0.2042145 0.208136 0.2090335 0.2019675 0.1841144 0.1626199 0.149877
 0.1506654 0.1597472 0.1717662 0.1860391 0.2000439 0.2061479 0.200206 0.1893848 0.1860301 0.1945608
 0.2076999 0.2153706 0.2146687 0.2103775 0.2076212 0.2064258 0.2042547 0.2018899 0.2036626 0.2114561
 0.2214127 0.22825 0.2307656 0.2313452 0.2319135 0.2324774 0.2325079 0.2318206 0.2304866 0.228969
 0.2279863 0.2277002 0.2275584 0.2271253 0.226067 0.2228949 0.2152783 0.203316 0.1916219 0.1856655
 0.1859741 0.1885089 0.1906815 0.1928717 0.1928266 0.1840656 0.164434 0.1431423 0.1340666 0.1423365
 0.1605118 0.1770747 0.1852606 0.1836479 0.1727259 0.1551057 0.1382561 0.1321405 0.1410756 0.1595905
 0.1782802 0.1919051 0.199929 0.2020025 0.1970097 0.1862978 0.1749322 0.1687821 0.1709687 0.1805192
 0.1926619 0.2000125 0.1962066 0.1822579 0.1693257 0.1704422 0.1868247 0.2058209 0.2151321 0.2152514
 0.214393 0.2157162 0.2158008 0.2136842 0.2144362 0.222243 0.2342727 0.2434737 0.244771 0.2370733
 0.2226019 0.2073686 0.1995984 0.2031005 0.2128657 0.2204469 0.2220891 0.2182361 0.2085701 0.194072
 0.1822465 0.1826141 0.195693 0.2117667 0.2219146 0.2261326 0.229286 0.2327215 0.2326198 0.225771
 0.2149332 0.2071332 0.2067283 0.2116153 0.2168255 0.2197646 0.2202481 0.2175479 0.2108438 0.2026027
 0.1986087 0.2029465 0.2137547 0.2249263 0.2315409 0.2329482 0.2313677 0.2289995 0.2265295 0.2232935
 0.2187542 0.2144136 0.2135191 0.217601 0.2240486 0.2287949 0.2309697 0.2331913 0.2374437 0.2423392
 0.2448077 0.2434517 0.2398801 0.2373041 0.2379611 0.2413431 0.2445754 0.2448605 0.242132 0.2393657
 0.2398426 0.24402 0.2494569 0.2535981 0.2558591 0.257102 0.2581437 0.2590375 0.2590251 0.2571049
 0.253455 0.2502716 0.2502122 0.253756 0.2587495 0.2626417 0.2645511 0.2650996 0.2649926 0.2642828
 0.2628055 0.2608603 0.2592213 0.2585237 0.25881 0.2596856 0.260731 0.2616839 0.2624134 0.2629035
 0.2632217 0.2634292 0.2635494 0.2636208 0.2636839 0.2637024 0.2636043 0.2634423 0.2634123 0.2636375
 0.2640063 0.2642905 0.2643512 0.2641433 0.2635938 0.2626293 0.2613202 0.2598561 0.2583314 0.2566791
 0.254932 0.2534986 0.2530333 0.2539358 0.2559807 0.2584589 0.2606636 0.2622459 0.263208 0.2637113
 0.263935 0.2640223 0.2640512 0.2640245 0.2639066 0.2636791 0.2633626 0.2629948 0.2626032 0.2622069
 0.261836 0.261525 0.2612749 0.2610331 0.2607255 0.2603116 0.2598069 0.2592584 0.2587008 0.2581261
 0.2574872 0.2567347 0.2558576 0.2548996 0.2539406 0.2530531 0.2522544 0.2514982 0.2507228 0.249899
 0.2490131 0.248028 0.2469148 0.2457369 0.2446489 0.2437715 0.2430862 0.2424705 0.2418083 0.2410435
 0.2401671 0.2392004 0.2381845 0.2371498 0.2360921 0.2349882 0.2338194 0.23257 0.2312252 0.2297865
 0.2282754 0.2267143 0.2251156 0.2234852 0.2218095 0.22003 0.2180409 0.2157137 0.2129247 0.2095805
 0.205651 0.2011997 0.1963859 0.1914245 0.1865259 0.1818538 0.1775245 0.1736297 0.1702535 0.1674747
 0.1653587 0.1639437 0.1632366 0.1632279 0.1639068 0.1652502 0.1671989 0.1696442 0.1724358 0.1754049
 0.1783869 0.1812365 0.1838506 0.1862108 0.1883888 0.1904693 0.1924606 0.1943047 0.1959585 0.1974216
 0.1986926 0.1997488 0.2005858 0.2012492 0.2018067 0.2022988 0.2027287 0.2030953 0.203416 0.2037084
 0.2039673 0.2041788 0.2043514 0.2045168 0.2047044 0.2049282 0.205193 0.2055053 0.2058762 0.2063129
 0.2068066 0.2073379 0.2078966 0.2084855 0.2091059 0.2097587 0.2104657 0.2112747 0.2122312 0.2133484
 0.2146053 0.2159633 0.2173669 0.2187297 0.2199448 0.2209307 0.2216635 0.2221582 0.2224375 0.2225281
 0.2224653 0.2222804 0.2219935 0.2216232 0.2211868 0.2206887 0.2201253 0.2195025 0.2188362 0.2181378
 0.2174144 0.2166805 0.2159578 0.2152614 0.2145883 0.2139249 0.2132662 0.2126248 0.2120179 0.2114455
 0.2108915 0.2103406 0.2097873 0.2092294 0.2086608 0.2080689 0.2074281 0.2067046 0.2058776 0.2049559
 0.203957 0.2028739 0.2016814 0.2003744 0.198982 0.1975335 0.1960295 0.1944551 0.1928064 0.1910856
 0.1892796 0.1873672 0.1853575 0.183312 0.1813198 0.1794526 0.177738 0.1761604 0.1746793 0.1732611
 0.1719004 0.170609 0.1693878 0.168225 0.1671155 0.1660648 0.1650747 0.1641382 0.1632528 0.1624324
 0.1617031 0.1610802 0.1605535 0.1600985 0.159698 0.1593457 0.1590482 0.1588383 0.1587559 0.1587917
 0.1588705 0.158911 0.1588846 0.1588079 0.158705 0.1585905 0.1584741 0.1583677 0.1582817 0.1582006
 0.1580633 0.157775 0.1572365 0.1563718 0.1551575 0.1536364 0.1518926 0.1500297 0.1481786 0.1464816
 0.1450366 0.1438767 0.1429991 0.1423692 0.1419047 0.1415174 0.1411846 0.1409624 0.1409296 0.1411008
 0.1413694 0.141565 0.1416148 0.1416233 0.1417691 0.142156 0.1427688 0.1435102 0.1442579 0.1449249
 0.1454735 0.145882 0.146142 0.1462827 0.1463421 0.1463216 0.146212 0.1460296 0.1457918 0.1454946
 0.1451313 0.1446943 0.1441685 0.1435581 0.1428885 0.142164 0.1413698 0.1404984 0.1395196 0.1383812
 0.1371328 0.1360025 0.1352754 0.1351202 0.1355225 0.1363154 0.1372913 0.1383369 0.1393885 0.1402427
 0.140622 0.1405874 0.1407376 0.1417694 0.1438108 0.146283 0.1484236 0.1498417 0.1505481 0.1506503
 0.1502102 0.1492793 0.147856 0.1458688 0.1433333 0.1404202 0.1373053 0.1341226 0.1310736 0.1283762
 0.1261172 0.1242839 0.122853 0.1218627 0.1214542 0.12126 0.1193668 0.1133286 0.1039611 0.0970051
 0.09827227 0.1070915 0.1167955 0.12176 0.1218717 0.1201644 0.1187012 0.1177563 0.1172039 0.1172132
 0.1179447 0.1192518 0.1207202 0.1219294 0.1227046 0.1230818 0.1230284 0.1222005 0.1198667 0.1151577
 0.1077708 0.09858422 0.08935802 0.0816983 0.07632856 0.07312709 0.07149701 0.07070427 0.07021314 0.0699415
 0.07018737 0.07125942 0.0731988 0.0758443 0.07901695 0.0824893 0.08586182 0.08871117 0.0909097 0.09264048
 0.09406659 0.09512718 0.09568106 0.09570926 0.0953234 0.0946724 0.0938959 0.09309031 0.09223519 0.0911996
 0.08994003 0.08868539 0.08779389 0.0874041 0.08734365 0.08737649 0.08739721 0.08738498 0.08732702 0.08722861
 0.0871211 0.08706084 0.08714555 0.08746137 0.08796862 0.08849394 0.08886497 0.08903599 0.0890854 0.08907337
 0.08888857 0.08834486 0.08750735 0.08673415 0.0862051 0.08559778 0.084516 0.08312789 0.08208129 0.08180529
 0.08212017 0.08252428 0.08265465 0.08245127 0.08210431 0.08196199 0.08230972 0.08304521 0.0836601 0.0837132
</values></Ydata></ScRf><Data_Parameters_AB><parameter name="DPF">1</parameter><parameter name="NPT">3497</parameter><parameter name="FXV">3996</parameter><parameter name="LXV">500</parameter><parameter name="CSF">1</parameter><parameter name="MXY">0.388361543416977</parameter><parameter name="MNY">-0.0845201686024666</parameter><parameter name="DAT">01/06/2022</parameter><parameter name="TIM">11:17:41.739 (GMT+2)</parameter><parameter name="DXU">WN</parameter></Data_Parameters_AB><AB__Qtest><MainReport name="Quality Test Report"><Header><Line><Legend>Test result ok/not ok [1/0]: </Legend><Value>0</Value></Line><Line><Legend>Method file: </Legend><Value>C:\Users\Public\Documents\Bruker\OPUS_8.2.28\QT\IRBT_v3_default.QT</Value></Line></Header><Matrix><Line><Legend></Legend><Legend>min</Legend><Legend>max</Legend><Legend>measured</Legend></Line><Line><Value>Absorption (X-Range 1):</Value><Value>0.400000</Value><Value>2.000000</Value><Value>0.282218</Value></Line><Line><Value>Noise (X-Range 4):</Value><Value></Value><Value>0.000300</Value><Value>0.000050</Value></Line><Line><Value>Signal/Noise (X-Range 2):</Value><Value>200.000000</Value><Value></Value><Value>116.120683</Value></Line><Line><Value>Signal/Noise (X-Range 3):</Value><Value>40.000000</Value><Value></Value><Value>58.591211</Value></Line><Line><Value>Water vapour (X-Range 5):</Value><Value></Value><Value>0.000300</Value><Value>0.000080</Value></Line><Line><Value>Signal/Water (X-Range 2):</Value><Value>100.000000</Value><Value></Value><Value>72.686388</Value></Line><Line><Value>Signal/Water (X-Range 3):</Value><Value>20.000000</Value><Value></Value><Value>36.675495</Value></Line><Line><Value>Fringes (X-Range 6):</Value><Value></Value><Value>0.000100</Value><Value>0.000077</Value></Line></Matrix></MainReport></AB__Qtest><Data_Parameters_ScSm><parameter name="DPF">1</parameter><parameter name="NPT">1814</parameter><parameter name="FXV">3996.33169228125</parameter><parameter name="LXV">499.541461535156</parameter><parameter name="CSF">1</parameter><parameter name="MXY">0.265984892845154</parameter><parameter name="MNY">0.0322648882865906</parameter><parameter name="DAT">01/06/2022</parameter><parameter name="TIM">11:17:41.739 (GMT+2)</parameter><parameter name="DXU">WN</parameter></Data_Parameters_ScSm><Data_Parameters_ScRf><parameter name="DPF">1</parameter><parameter name="NPT">1820</parameter><parameter name="FXV">4004.04661832813</parameter><parameter name="LXV">495.683998511719</parameter><parameter name="CSF">1</parameter><parameter name="MXY">0.265099585056305</parameter><parameter name="MNY">0.0286729149520397</parameter><parameter name="DAT">01/06/2022</parameter><parameter name="TIM">11:17:16.032 (GMT+2)</parameter><parameter name="DXU">WN</parameter></Data_Parameters_ScRf><Optic_Parameters_Rf><parameter name="APR">0</parameter><parameter name="APT">Open</parameter><parameter name="BMS">KBr</parameter><parameter name="DTC">RT-DLaTGS_IR-Biotyper [Microplate reader]</parameter><parameter name="HPF">0</parameter><parameter name="LPF">10.0</parameter><parameter name="LPV">4000</parameter><parameter name="PGR">0</parameter><parameter name="RCH">Module port</parameter><parameter name="RDX">0</parameter><parameter name="SRC">MIR</parameter><parameter name="VEL">10.0</parameter><parameter name="SON">Off</parameter></Optic_Parameters_Rf><Acquisition_Parameters_Rf><parameter name="ADT">1</parameter><parameter name="AQM">DD</parameter><parameter name="CFE">0</parameter><parameter name="COR">0</parameter><parameter name="DEL">0</parameter><parameter name="DLY">0</parameter><parameter name="HFW">8000</parameter><parameter name="LFW">0</parameter><parameter name="NSR">32</parameter><parameter name="PLF">AB</parameter><parameter name="RES">6</parameter><parameter name="RGN">-1</parameter><parameter name="STR">0</parameter><parameter name="TCL">MakeCompatibleScalar (0, {WSV=1.000000, ARV=0});</parameter><parameter name="TDL">37</parameter><parameter name="RPO">0</parameter></Acquisition_Parameters_Rf><FT_-_Parameters_Rf><parameter name="APF">B3</parameter><parameter name="HFQ">500</parameter><parameter name="LFQ">4000</parameter><parameter name="NLI">0</parameter><parameter name="PHR">24</parameter><parameter name="PHZ">ML</parameter><parameter name="SPZ">NO</parameter><parameter name="ZFF">1</parameter></FT_-_Parameters_Rf><Optic_Parameters_><parameter name="APR">0</parameter><parameter name="APT">Open</parameter><parameter name="BMS">KBr</parameter><parameter name="CHN">Module port</parameter><parameter name="DTC">RT-DLaTGS_IR-Biotyper [Microplate reader]</parameter><parameter name="HPF">0</parameter><parameter name="LPF">10.0</parameter><parameter name="LPV">4000</parameter><parameter name="PGN">0</parameter><parameter name="RDX">0</parameter><parameter name="SRC">MIR</parameter><parameter name="VEL">10.0</parameter><parameter name="SON">Off</parameter></Optic_Parameters_><FT_-_Parameters_><parameter name="APF">B3</parameter><parameter name="HFQ">500</parameter><parameter name="LFQ">4000</parameter><parameter name="NLI">0</parameter><parameter name="PHR">24</parameter><parameter name="PHZ">ML</parameter><parameter name="SPZ">NO</parameter><parameter name="ZFF">1</parameter></FT_-_Parameters_><Acquisition_Parameters_><parameter name="ADT">1</parameter><parameter name="AQM">DD</parameter><parameter name="CFE">0</parameter><parameter name="COR">0</parameter><parameter name="DEL">0</parameter><parameter name="DLY">0</parameter><parameter name="HFW">8000</parameter><parameter name="LFW">0</parameter><parameter name="NSS">32</parameter><parameter name="PLF">AB</parameter><parameter name="RES">6</parameter><parameter name="SOT">0</parameter><parameter name="TCL">MakeCompatibleScalar (0, {WSV=1.000000, ARV=0});</parameter><parameter name="TDL">37</parameter><parameter name="SPO">0</parameter><parameter name="SGN">-1</parameter></Acquisition_Parameters_><Instrument_Parameters_Rf><parameter name="HFL">15800.168544</parameter><parameter name="LFL">0</parameter><parameter name="LWN">15800.168544</parameter><parameter name="ABP">32197</parameter><parameter name="SSP">1</parameter><parameter name="ARG">2</parameter><parameter name="ASG">2</parameter><parameter name="ASS">32</parameter><parameter name="GFW">16</parameter><parameter name="GBW">16</parameter><parameter name="BFW">0</parameter><parameter name="BBW">0</parameter><parameter name="PKA">7303</parameter><parameter name="PKL">4996</parameter><parameter name="PRA">7478</parameter><parameter name="PRL">5001</parameter><parameter name="P2A">1</parameter><parameter name="P2L">1</parameter><parameter name="P2R">1</parameter><parameter name="P2K">1</parameter><parameter name="DAQ">0</parameter><parameter name="AG2">1</parameter><parameter name="SSM">1</parameter><parameter name="RSN">25875</parameter><parameter name="CRR">0</parameter><parameter name="SRT">1654082236.032</parameter><parameter name="DUR">19.6389923095703</parameter><parameter name="TSC">29.1</parameter><parameter name="MVD">0.480592876672745</parameter><parameter name="AN1">0.225810759686023</parameter><parameter name="AN2">0</parameter><parameter name="VSN">2.485 Apr  4 2017</parameter><parameter name="SRN">0085</parameter><parameter name="CAM">0</parameter><parameter name="INS">IR-Biotyper</parameter><parameter name="FOC">69</parameter><parameter name="RDY">1</parameter><parameter name="ARS">32</parameter></Instrument_Parameters_Rf><Sample_Parameters_><parameter name="BLD"></parameter><parameter name="CNM">Admin</parameter><parameter name="CPY"></parameter><parameter name="DPM"></parameter><parameter name="EXP">IRBT_v3_32Scans.XPM</parameter><parameter name="LCT"></parameter><parameter name="SFM">Microplate, HTS-XT</parameter><parameter name="SNM">220601-1028(v.3)_JMJ44M (D_2)_D3_9f9d2d73-af65-462d-bf35-4df7630229f7.0</parameter><parameter name="XPP">C:\Users\Public\Documents\Bruker\OPUS_8.2.28\XPM</parameter><parameter name="IST">OK</parameter><parameter name="CPG">1252</parameter><parameter name="UID">f24cfdca-abea-46df-9f48-4e93ad0221fe</parameter></Sample_Parameters_><Instrument_Parameters_><parameter name="HFL">15800.168544</parameter><parameter name="LFL">0</parameter><parameter name="LWN">15800.168544</parameter><parameter name="ABP">32197</parameter><parameter name="SSP">1</parameter><parameter name="ASG">2</parameter><parameter name="ARG">2</parameter><parameter name="ASS">32</parameter><parameter name="GFW">16</parameter><parameter name="GBW">16</parameter><parameter name="BFW">0</parameter><parameter name="BBW">0</parameter><parameter name="PKA">6948</parameter><parameter name="PKL">4988</parameter><parameter name="PRA">7258</parameter><parameter name="PRL">4993</parameter><parameter name="P2A">1</parameter><parameter name="P2L">1</parameter><parameter name="P2R">1</parameter><parameter name="P2K">1</parameter><parameter name="DAQ">0</parameter><parameter name="AG2">1</parameter><parameter name="SSM">1</parameter><parameter name="RSN">13563</parameter><parameter name="CRR">0</parameter><parameter name="SRT">1654082261.739</parameter><parameter name="DUR">19.6389923095703</parameter><parameter name="TSC">29</parameter><parameter name="MVD">0.230471596121788</parameter><parameter name="AN1">0.225786422287395</parameter><parameter name="AN2">0</parameter><parameter name="VSN">2.485 Apr  4 2017</parameter><parameter name="SRN">0085</parameter><parameter name="CAM">0</parameter><parameter name="INS">IR-Biotyper</parameter><parameter name="FOC">69</parameter><parameter name="RDY">1</parameter></Instrument_Parameters_><History/></OPUSDataFile>
