<?xml version="1.0" encoding="UTF-8" ?>
<OPUSDataFile><AB><Ydata ylabel="Absorbance Units"><values byteorder="INTEL" format="FLOAT32" numvalues="3497"> -0.04528943 -0.04529586 -0.04529856 -0.04529864 -0.04527881 -0.04523821 -0.04517609 -0.04509402 -0.04501131 -0.04493022
 -0.04487465 -0.04484309 -0.04484451 -0.04487288 -0.04491886 -0.04497736 -0.04503523 -0.0450923 -0.0451431 -0.04518964
 -0.04523246 -0.045271 -0.04530518 -0.0453341 -0.04535661 -0.04537587 -0.045392 -0.04541006 -0.0454312 -0.04545597
 -0.04548482 -0.04551344 -0.04554163 -0.04556709 -0.04558995 -0.04561177 -0.04563219 -0.04565036 -0.0456646 -0.04566788
 -0.04566035 -0.04563697 -0.04560357 -0.0455664 -0.04553289 -0.04551529 -0.0455134 -0.04553318 -0.04556518 -0.04560649
 -0.04564788 -0.04568532 -0.04571363 -0.0457312 -0.04573315 -0.04571793 -0.04568649 -0.0456378 -0.04558739 -0.04553609
 -0.04550536 -0.0454952 -0.04551133 -0.04555073 -0.04559765 -0.04565044 -0.04569372 -0.04573043 -0.04576039 -0.04578571
 -0.04581089 -0.04583378 -0.04585312 -0.04586869 -0.04587829 -0.04588755 -0.04589933 -0.0459162 -0.04594215 -0.04596701
 -0.04598957 -0.04599819 -0.04598895 -0.04596912 -0.0459376 -0.04592176 -0.04592308 -0.0459686 -0.04605805 -0.0461952
 -0.04637459 -0.04656679 -0.0467637 -0.04691829 -0.04703097 -0.04707573 -0.04706538 -0.04700886 -0.04691913 -0.04681481
 -0.04670304 -0.04659532 -0.04649497 -0.04640663 -0.04633157 -0.04627038 -0.0462272 -0.0462019 -0.04620483 -0.0462382
 -0.04630579 -0.04640991 -0.04652892 -0.04666185 -0.04676902 -0.04684971 -0.04688415 -0.04687705 -0.04684656 -0.04679962
 -0.04677241 -0.0467659 -0.04680446 -0.046876 -0.04697378 -0.04707976 -0.04716668 -0.04723388 -0.04726872 -0.04728527
 -0.04729164 -0.04728458 -0.04726792 -0.04722244 -0.04713951 -0.04702962 -0.04688684 -0.04677071 -0.04668476 -0.04670285
 -0.04683018 -0.04704497 -0.04733689 -0.04753359 -0.04763848 -0.04757873 -0.04738867 -0.04716392 -0.04691993 -0.04674519
 -0.04663209 -0.04661099 -0.04665992 -0.04676783 -0.0469075 -0.04705283 -0.04718802 -0.04729546 -0.04737564 -0.04742465
 -0.04744682 -0.04744266 -0.04741499 -0.04736371 -0.04729513 -0.04720931 -0.04711832 -0.04702284 -0.04693671 -0.04686065
 -0.04680745 -0.04677762 -0.04678241 -0.04681901 -0.04688597 -0.04697336 -0.04705659 -0.04712599 -0.0471502 -0.04713478
 -0.04706985 -0.04697575 -0.04686423 -0.04675615 -0.04666688 -0.04660674 -0.04658521 -0.04659705 -0.04664483 -0.04671072
 -0.0467922 -0.04687606 -0.04696055 -0.0470404 -0.04711539 -0.04716865 -0.04719914 -0.04718582 -0.047131 -0.04703829
 -0.04691336 -0.04677993 -0.04664157 -0.04651912 -0.0464135 -0.04633623 -0.04628543 -0.046266 -0.04626743 -0.04628504
 -0.04630275 -0.04630796 -0.04629898 -0.04626891 -0.04623444 -0.04619898 -0.04617348 -0.04616175 -0.04615886 -0.0461645
 -0.04617641 -0.04619437 -0.04622235 -0.04625999 -0.04630148 -0.04634532 -0.0463769 -0.04639782 -0.04640559 -0.04640489
 -0.04640736 -0.046414 -0.04643352 -0.04646074 -0.04649384 -0.04652503 -0.0465453 -0.0465559 -0.04654995 -0.04654925
 -0.04655887 -0.04660401 -0.04669806 -0.04682585 -0.04699297 -0.04713738 -0.04725191 -0.04730508 -0.04729381 -0.04724063
 -0.0471461 -0.04702052 -0.04686348 -0.04667206 -0.04645462 -0.04624051 -0.04604303 -0.04591487 -0.04585507 -0.0458982
 -0.04600492 -0.04614614 -0.04627257 -0.04631988 -0.04630046 -0.04619496 -0.04605489 -0.04589664 -0.04575663 -0.04565024
 -0.04558482 -0.04556695 -0.04557595 -0.04561184 -0.04563908 -0.04565538 -0.0456356 -0.04558 -0.04549299 -0.04537877
 -0.04526927 -0.04516702 -0.0451044 -0.04507001 -0.0450538 -0.04503656 -0.04497224 -0.04486782 -0.0447085 -0.04451992
 -0.04432186 -0.04412453 -0.04394314 -0.04376759 -0.04359826 -0.0434214 -0.04323211 -0.04302761 -0.04280544 -0.04257356
 -0.04233186 -0.04209481 -0.04186317 -0.04165661 -0.04147582 -0.04133508 -0.04123105 -0.04114804 -0.04107897 -0.04098463
 -0.04086485 -0.04069643 -0.0404894 -0.04024873 -0.03999028 -0.03973581 -0.03949678 -0.03929552 -0.03912077 -0.03897948
 -0.03883278 -0.03866824 -0.03845061 -0.03816525 -0.03780481 -0.03736326 -0.03685685 -0.03628555 -0.03567603 -0.03503003
 -0.03436688 -0.03368768 -0.03300949 -0.03233538 -0.03169622 -0.03109445 -0.03056102 -0.03008706 -0.02966746 -0.02928617
 -0.02890741 -0.0285315 -0.02814117 -0.02775039 -0.02737392 -0.02699545 -0.02662016 -0.02619359 -0.02568766 -0.02509438
 -0.02439666 -0.02364667 -0.02285081 -0.02205242 -0.02125844 -0.02048186 -0.01972436 -0.01897858 -0.01824428 -0.01751523
 -0.0167933 -0.01608965 -0.01540661 -0.01476359 -0.01415381 -0.0135749 -0.01300501 -0.01240067 -0.01175093 -0.01101499
 -0.01021717 -0.009359841 -0.00848229 -0.007607711 -0.006767741 -0.005986334 -0.005257792 -0.00459227 -0.003942294 -0.003300201
 -0.002633776 -0.001935973 -0.001215678 -0.0004729266 0.0002794212 0.001041287 0.001814663 0.002599807 0.003399987 0.004214055
 0.005039436 0.005873558 0.006709497 0.007542009 0.00835758 0.009154049 0.00991986 0.01066462 0.01139162 0.01211349
 0.01284117 0.01357452 0.01431699 0.01506248 0.01580917 0.01655632 0.01730347 0.01805089 0.01879857 0.0195465
 0.02029459 0.02104703 0.02180374 0.02256201 0.02332055 0.02406664 0.02480133 0.02552092 0.0262305 0.02694355
 0.02766093 0.02839329 0.02913224 0.02987184 0.03060273 0.03131238 0.03200139 0.03266199 0.03331324 0.03395898
 0.03462436 0.03532099 0.03604658 0.03680602 0.03756998 0.03833532 0.03908246 0.03980924 0.04052207 0.04122128
 0.04191519 0.04260288 0.04327898 0.04394431 0.04459872 0.04524572 0.04589726 0.04655102 0.04720942 0.04786591
 0.04851063 0.04914502 0.04976554 0.0503792 0.05098982 0.05160096 0.05221434 0.05283478 0.05346407 0.0541052
 0.05476121 0.05541879 0.05607739 0.05671821 0.05733934 0.05794281 0.05852918 0.05911493 0.05969971 0.06028789
 0.06087776 0.06146278 0.06204438 0.06262269 0.06320109 0.06378691 0.06438079 0.06498844 0.06560399 0.06622672
 0.06684271 0.06744273 0.06801775 0.06855689 0.06907559 0.06957335 0.07007845 0.07059854 0.07113828 0.07170115
 0.07226636 0.07283248 0.07338806 0.07393308 0.07447515 0.07501442 0.07555614 0.07609826 0.07663378 0.07716133
 0.07767244 0.07816906 0.07864959 0.07912006 0.0795873 0.08005791 0.08054174 0.0810387 0.08155351 0.08207787
 0.08261032 0.08314001 0.08366442 0.08417128 0.0846578 0.08511498 0.08553953 0.08594387 0.08632761 0.08672904
 0.08714989 0.08762097 0.08813958 0.08869747 0.08928709 0.08986946 0.09043932 0.09095903 0.09143233 0.09184519
 0.09221274 0.09254808 0.09286893 0.09319936 0.09354218 0.09390951 0.09428809 0.09467397 0.09506012 0.09544117
 0.09582587 0.09621505 0.0966168 0.09703338 0.097459 0.0978938 0.09832267 0.09874499 0.09914985 0.09953877
 0.09991928 0.1002953 0.1006908 0.1011053 0.1015531 0.1020239 0.1025046 0.1029834 0.1034362 0.1038619
 0.1042491 0.1046053 0.1049318 0.1052352 0.1055182 0.1057873 0.1060437 0.1062991 0.1065554 0.1068242
 0.107108 0.1074069 0.1077216 0.1080409 0.1083643 0.1086845 0.1090029 0.1093288 0.1096633 0.1100193
 0.1103911 0.11077 0.1111459 0.1114908 0.1118057 0.1120743 0.1123173 0.1125471 0.1127878 0.1130636
 0.1133742 0.1137319 0.1141046 0.1144869 0.1148432 0.1151619 0.1154419 0.1156787 0.1159054 0.1161246
 0.1163583 0.1166067 0.1168493 0.1170833 0.1172741 0.1174242 0.117527 0.1175911 0.1176381 0.1176758
 0.1177309 0.1178065 0.1179203 0.1180664 0.1182477 0.1184506 0.1186639 0.1188876 0.1191122 0.1193673
 0.1196596 0.120015 0.1204477 0.1209264 0.1214549 0.1219471 0.1223967 0.1227339 0.1229568 0.1230754
 0.1230972 0.1230979 0.1230817 0.1231124 0.1231803 0.1232871 0.1234239 0.1235671 0.1237282 0.1239137
 0.1241362 0.1244211 0.1247428 0.1250986 0.1254401 0.1257367 0.1259857 0.1261681 0.1263469 0.1265308
 0.1267766 0.1270993 0.1274771 0.1279126 0.1283201 0.1286956 0.1289681 0.1291406 0.1292139 0.129202
 0.129173 0.1291412 0.1291901 0.1293186 0.1295718 0.1299236 0.1303622 0.1308435 0.1313198 0.1317564
 0.1321079 0.132381 0.1325583 0.1326896 0.1327835 0.132896 0.133041 0.1332496 0.1335282 0.1338885
 0.1343322 0.1348641 0.1354842 0.136176 0.1369341 0.1376996 0.1384605 0.1391245 0.1396843 0.1400605
 0.1402705 0.1403001 0.1402015 0.1400387 0.1398721 0.139795 0.1398187 0.1399978 0.1402617 0.1406032
 0.1409124 0.1411508 0.141251 0.1411821 0.1409662 0.1405956 0.140157 0.1396562 0.1391744 0.1387152
 0.1383024 0.1379335 0.1375881 0.1372653 0.1369486 0.1366428 0.1363558 0.1360888 0.1358537 0.1356349
 0.1354213 0.1351785 0.1348695 0.1344608 0.1339109 0.1332233 0.1323775 0.1314301 0.1303881 0.1293295
 0.1282724 0.1272702 0.1263344 0.1254825 0.1247181 0.1240309 0.1234201 0.1228429 0.1222953 0.1217161
 0.121108 0.120448 0.1197524 0.1190637 0.1183906 0.1177824 0.1172162 0.116683 0.116148 0.1155634
 0.1149312 0.114225 0.1134988 0.1127669 0.112093 0.1115062 0.1110252 0.1106684 0.1103863 0.1101802
 0.1099584 0.1097134 0.1093732 0.1089344 0.1083975 0.1077682 0.1071106 0.106431 0.1057987 0.1052104
 0.1046946 0.1042394 0.1038343 0.1034671 0.103114 0.1027693 0.1024162 0.1020588 0.1016933 0.1013293
 0.1009713 0.1006237 0.100291 0.09996543 0.09964757 0.09932174 0.09898592 0.09862733 0.09824418 0.09783605
 0.09740297 0.09695875 0.09650448 0.09605746 0.0956173 0.09519133 0.09477735 0.0943718 0.09397304 0.09357575
 0.09317897 0.0927799 0.09237539 0.09196152 0.09153448 0.0910887 0.09062747 0.0901486 0.08966497 0.08918065
 0.08870446 0.08824144 0.08778275 0.08732874 0.08686274 0.08638254 0.08588838 0.08538029 0.08487897 0.08438502
 0.08391336 0.08346087 0.08301806 0.08258071 0.08212807 0.08166163 0.08117305 0.08066912 0.08015715 0.07964169
 0.07913174 0.07862561 0.0781232 0.07762802 0.07713655 0.07667212 0.07623973 0.07586785 0.07556982 0.07533046
 0.07515699 0.07497012 0.07476469 0.07445653 0.07404117 0.07351495 0.07288513 0.07223929 0.07158694 0.07103106
 0.07056544 0.0702302 0.06999878 0.0698348 0.06970535 0.06953986 0.06932578 0.06901338 0.06863038 0.06817432
 0.06769739 0.06722805 0.06679352 0.06641626 0.06607702 0.065776 0.06548946 0.06520962 0.06495535 0.06472602
 0.06456556 0.0644763 0.06446718 0.06453358 0.06462104 0.06472024 0.06474718 0.06470193 0.06453336 0.0642623
 0.06390671 0.06349785 0.06309763 0.06271491 0.06239205 0.06210025 0.06183178 0.06155859 0.06125426 0.06093945
 0.06060988 0.06031309 0.06006433 0.0598697 0.0597372 0.05962443 0.05952754 0.05942226 0.05930706 0.0592089
 0.05912944 0.05910053 0.05911746 0.05916943 0.05924803 0.05931602 0.05937281 0.05939631 0.05939525 0.05937432
 0.05934043 0.05930771 0.0592659 0.05921841 0.05913276 0.05899471 0.05877343 0.05844694 0.05803221 0.05751842
 0.0569861 0.05644256 0.05597897 0.05560785 0.05534733 0.05519921 0.05508511 0.05499896 0.05483685 0.05460247
 0.05425968 0.05382829 0.05335898 0.05286986 0.05243362 0.05204633 0.05173873 0.05148753 0.05127947 0.0510907
 0.05089726 0.05068805 0.05044769 0.05018449 0.04989416 0.04960352 0.049318 0.04905999 0.0488379 0.04863354
 0.04844856 0.04822827 0.04796957 0.04764143 0.04724677 0.04682047 0.04636919 0.04595556 0.04557407 0.04524203
 0.04494106 0.04463274 0.04431043 0.04393823 0.04353779 0.0431168 0.04270507 0.04233272 0.04200541 0.0417386
 0.04151425 0.04132812 0.04116939 0.04103211 0.04092469 0.04084818 0.04080668 0.04080261 0.04081189 0.04083343
 0.04082323 0.04077975 0.04067086 0.04050004 0.04027051 0.0399912 0.03969535 0.03939169 0.03911818 0.03887823
 0.0386948 0.03856682 0.03850207 0.0384975 0.03855405 0.03866597 0.03883183 0.03904209 0.03929402 0.03957634
 0.03988609 0.04021391 0.04055677 0.04091613 0.04128985 0.04170532 0.04216373 0.04271763 0.04336908 0.04416057
 0.04508664 0.04613763 0.04729944 0.04851467 0.04977304 0.05101781 0.05225292 0.05345755 0.05464461 0.05582121
 0.05699818 0.05818604 0.05939332 0.06062495 0.06189527 0.06320913 0.06458322 0.0660248 0.06753299 0.06911299
 0.07073049 0.07238542 0.07401561 0.07561769 0.07711764 0.07851092 0.07971967 0.08073931 0.08149803 0.08199978
 0.08221027 0.08215948 0.08188974 0.08146337 0.08099656 0.08055901 0.08028173 0.08019665 0.08038346 0.08081385
 0.08150107 0.08238482 0.08344486 0.0846385 0.08594714 0.08736791 0.08889516 0.09055085 0.09233665 0.09427048
 0.09635376 0.09858117 0.1009516 0.1034447 0.1060622 0.1088031 0.1116777 0.1147256 0.117956 0.1214234
 0.1251023 0.1290065 0.133017 0.1370577 0.1408456 0.1441921 0.1466642 0.1479831 0.1478097 0.1458806
 0.1423192 0.1370101 0.1306362 0.1232439 0.1157283 0.1081862 0.1012575 0.09499094 0.08957181 0.08499148
 0.08110491 0.077887 0.07510404 0.07274242 0.07062885 0.06875719 0.06702852 0.0654337 0.0639131 0.06246059
 0.06104224 0.0596672 0.05832911 0.0570475 0.05583252 0.05469597 0.05364636 0.05268265 0.05180547 0.05101563
 0.05031151 0.04970713 0.0492029 0.04882116 0.04856339 0.0484444 0.04846296 0.04860188 0.04885206 0.04914568
 0.04946867 0.04972599 0.04991663 0.04998061 0.04994643 0.04982824 0.04967623 0.04955361 0.04950821 0.04960017
 0.0498613 0.05032502 0.05101017 0.05192731 0.05310225 0.05453401 0.05629048 0.05837622 0.06089732 0.06387495
 0.06729403 0.07116342 0.07506111 0.07893844 0.08189719 0.08388075 0.08400057 0.08235131 0.07876004 0.07352123
 0.06728162 0.06034778 0.05358446 0.04710374 0.04142328 0.0364452 0.03227541 0.02873685 0.02575546 0.02319389
 0.02097984 0.01903537 0.01732831 0.01580735 0.01446003 0.01324835 0.01216681 0.01119249 0.01032364 0.009542612
 0.008848101 0.008217105 0.007647617 0.007113969 0.006615357 0.006133961 0.00567197 0.005225576 0.004798457 0.004396895
 0.004019745 0.003671351 0.003340054 0.003019545 0.002693149 0.002347501 0.001978308 0.001575555 0.001161291 0.0007362037
 0.0003364732 -2.977491E-05 -0.0003478039 -0.0006119732 -0.0008505282 -0.001064457 -0.001299678 -0.001557091 -0.001850991 -0.002176753
 -0.002505863 -0.002835747 -0.003137126 -0.003418494 -0.003686563 -0.003952864 -0.004245714 -0.004561153 -0.00491058 -0.005272678
 -0.005633518 -0.005973683 -0.006274805 -0.006535989 -0.006749689 -0.006931081 -0.007080625 -0.007222285 -0.007359087 -0.007517644
 -0.007701766 -0.007925036 -0.008189222 -0.008479845 -0.008795398 -0.009104205 -0.009405624 -0.009679465 -0.009928327 -0.01015265
 -0.01035457 -0.0105405 -0.01071032 -0.01086594 -0.01100907 -0.01114152 -0.01126803 -0.01139369 -0.0115207 -0.01165329
 -0.01178664 -0.01192002 -0.01204788 -0.01216654 -0.01228255 -0.01239449 -0.01252262 -0.01266933 -0.01284762 -0.01305922
 -0.0132878 -0.01353174 -0.01375566 -0.01395946 -0.01412387 -0.0142546 -0.01436522 -0.01446204 -0.0145712 -0.01469113
 -0.0148335 -0.01498811 -0.01514693 -0.01529995 -0.01543273 -0.01554803 -0.01563892 -0.01572608 -0.01581477 -0.01592838
 -0.01607713 -0.01626277 -0.01649052 -0.01673595 -0.01699753 -0.01724816 -0.01748552 -0.0177025 -0.0178994 -0.01808701
 -0.01826618 -0.01844868 -0.01863381 -0.01882512 -0.01902072 -0.01921756 -0.01941323 -0.01960189 -0.01978165 -0.01994671
 -0.02009895 -0.02023625 -0.02036662 -0.0204937 -0.02062607 -0.02076948 -0.02092395 -0.02109214 -0.02126492 -0.02144114
 -0.02161252 -0.02177749 -0.02193536 -0.02208586 -0.02223262 -0.02237569 -0.02251563 -0.02265162 -0.02277731 -0.02289166
 -0.0229856 -0.02306111 -0.02311694 -0.02316049 -0.0232046 -0.02325707 -0.02333543 -0.02343856 -0.02357429 -0.02373066
 -0.02390331 -0.02407948 -0.02425168 -0.0244161 -0.02456897 -0.02471533 -0.02485511 -0.02499579 -0.0251384 -0.02528698
 -0.02544205 -0.02560101 -0.0257636 -0.02592335 -0.02607999 -0.0262283 -0.02636871 -0.02650012 -0.02662376 -0.02674185
 -0.02685688 -0.02697436 -0.02709682 -0.0272308 -0.02737505 -0.0275325 -0.02769564 -0.0278617 -0.02802075 -0.0281674
 -0.028297 -0.02840577 -0.02849841 -0.02857404 -0.02864465 -0.0287113 -0.02878592 -0.0288696 -0.02896642 -0.02907634
 -0.02919488 -0.02932154 -0.02944998 -0.02958056 -0.02971129 -0.0298434 -0.02997957 -0.03012052 -0.03026943 -0.03042532
 -0.03058876 -0.03075704 -0.03092813 -0.03109899 -0.0312669 -0.03143062 -0.0315887 -0.03174171 -0.0318894 -0.0320331
 -0.03217299 -0.03231035 -0.03244542 -0.03257845 -0.03270954 -0.03283735 -0.03296183 -0.03308195 -0.03319785 -0.03331046
 -0.03341984 -0.03352691 -0.03363128 -0.03373171 -0.03382922 -0.0339241 -0.03402044 -0.03412376 -0.03423763 -0.03436918
 -0.03451453 -0.03467535 -0.03484016 -0.03500445 -0.0351591 -0.03529884 -0.0354265 -0.03554057 -0.03565273 -0.03576438
 -0.03588339 -0.0360109 -0.03614141 -0.03627449 -0.03639762 -0.03651101 -0.0366104 -0.03669853 -0.03678612 -0.03687547
 -0.03698083 -0.03709851 -0.03722947 -0.03736544 -0.03749429 -0.0376129 -0.03771102 -0.03779714 -0.0378725 -0.03794925
 -0.03803456 -0.03813076 -0.03824174 -0.03835871 -0.03848087 -0.03859869 -0.03871037 -0.03881387 -0.03890864 -0.03899955
 -0.03908693 -0.03917834 -0.03927405 -0.03938006 -0.0394955 -0.03962018 -0.03975158 -0.03988233 -0.04001002 -0.04012577
 -0.04022977 -0.04031796 -0.04039311 -0.0404562 -0.04051047 -0.04055788 -0.04060227 -0.04064494 -0.04069194 -0.04074503
 -0.04081008 -0.04088916 -0.04098228 -0.04109045 -0.04120612 -0.04132898 -0.04144824 -0.04156339 -0.041667 -0.0417595
 -0.04184149 -0.04191462 -0.04198708 -0.04206022 -0.04214317 -0.04223451 -0.04233639 -0.04244518 -0.04255636 -0.04266792
 -0.04277561 -0.04288048 -0.04298181 -0.04308147 -0.04318021 -0.04327904 -0.04337844 -0.0434789 -0.04358075 -0.04368337
 -0.04378691 -0.04388912 -0.04398983 -0.04408781 -0.04418306 -0.04427733 -0.04437083 -0.04446643 -0.04456398 -0.04466438
 -0.04476723 -0.04487164 -0.04497758 -0.04508466 -0.04519281 -0.04530238 -0.04541157 -0.04551961 -0.04562217 -0.04571589
 -0.04579835 -0.045866 -0.04592431 -0.0459729 -0.04602335 -0.04607823 -0.04614463 -0.04622464 -0.04631482 -0.04641534
 -0.04651704 -0.0466195 -0.04671698 -0.04680976 -0.04689825 -0.04698324 -0.04706883 -0.04715535 -0.04724624 -0.04734077
 -0.0474392 -0.0475403 -0.04764215 -0.04774439 -0.04784606 -0.04794675 -0.04804652 -0.04814302 -0.04823553 -0.04832084
 -0.04839712 -0.04846529 -0.04852419 -0.04858163 -0.04863821 -0.04870294 -0.04877691 -0.04886098 -0.04895508 -0.04905007
 -0.04914534 -0.04923093 -0.04930742 -0.04937247 -0.04942758 -0.04947604 -0.04951927 -0.04956129 -0.04960432 -0.04965302
 -0.04970982 -0.04977997 -0.04986121 -0.04995532 -0.05005367 -0.05015287 -0.05024541 -0.05032724 -0.05039834 -0.05045744
 -0.05050916 -0.05055392 -0.05059573 -0.05063496 -0.05067445 -0.05071436 -0.05075654 -0.05080092 -0.05084734 -0.05089573
 -0.05094553 -0.05099713 -0.05105167 -0.05110914 -0.05117051 -0.05123451 -0.05129984 -0.05136482 -0.05142688 -0.05148613
 -0.05154148 -0.05159483 -0.05164712 -0.05169867 -0.05175054 -0.05179913 -0.05184394 -0.05188137 -0.05191017 -0.05193395
 -0.05195252 -0.05197635 -0.05200596 -0.05204929 -0.05210599 -0.05217494 -0.05225508 -0.05233982 -0.05242921 -0.05251896
 -0.05261201 -0.05271123 -0.05282312 -0.05295761 -0.05312253 -0.05333024 -0.05358383 -0.05389106 -0.05424652 -0.05465037
 -0.05509407 -0.055574 -0.05608798 -0.05663337 -0.05721895 -0.05784507 -0.05852428 -0.05925844 -0.06004579 -0.06088581
 -0.06173444 -0.06258472 -0.06334636 -0.06401069 -0.06448151 -0.06476046 -0.06479725 -0.06460936 -0.06420179 -0.06361345
 -0.0628972 -0.06210661 -0.06131779 -0.06056559 -0.05989927 -0.05933244 -0.05888069 -0.05856052 -0.0583788 -0.05835465
 -0.05850111 -0.05878705 -0.05922153 -0.05967535 -0.06013928 -0.06049189 -0.06072726 -0.06085291 -0.06087426 -0.06085784
 -0.06080463 -0.06075444 -0.06070148 -0.0606474 -0.06058637 -0.06050413 -0.0604029 -0.06027827 -0.06013838 -0.0599919
 -0.05984006 -0.05968904 -0.05952958 -0.05935842 -0.05916877 -0.05895517 -0.05872508 -0.05847689 -0.05823125 -0.05799024
 -0.05777536 -0.0575892 -0.05743902 -0.0573252 -0.05723477 -0.05716662 -0.05710292 -0.05704454 -0.05698714 -0.05693262
 -0.05688606 -0.05684661 -0.05681534 -0.05678963 -0.05676559 -0.05674197 -0.05671567 -0.05668709 -0.05665532 -0.05662172
 -0.056586 -0.0565521 -0.05652063 -0.0564976 -0.05648471 -0.05648489 -0.05649934 -0.05652522 -0.05656268 -0.05660458
 -0.05665053 -0.05669324 -0.05673266 -0.05676563 -0.05679303 -0.05681802 -0.056842 -0.05687181 -0.05690755 -0.05695371
 -0.05700734 -0.05706654 -0.05712637 -0.05718062 -0.05722603 -0.05725703 -0.05727611 -0.05728171 -0.05728191 -0.05727883
 -0.05728009 -0.05728834 -0.05730549 -0.05733265 -0.05736657 -0.05740719 -0.05744968 -0.05749378 -0.05753617 -0.0575769
 -0.05761545 -0.05765201 -0.05768767 -0.05772207 -0.05775481 -0.05778483 -0.05780937 -0.05782807 -0.0578385 -0.05784262
 -0.0578409 -0.05783755 -0.05783571 -0.05783894 -0.05785068 -0.05786978 -0.05789756 -0.05792784 -0.05795969 -0.05798668
 -0.05800744 -0.05802 -0.05802382 -0.05802136 -0.05801274 -0.05800258 -0.05799119 -0.05798371 -0.05798019 -0.0579838
 -0.05799387 -0.05800976 -0.05803055 -0.05805371 -0.05807884 -0.05810416 -0.05812984 -0.05815529 -0.05818109 -0.05820739
 -0.05823511 -0.05826544 -0.05829641 -0.05832845 -0.0583559 -0.05837712 -0.05838984 -0.05839248 -0.05839212 -0.05838903
 -0.05839285 -0.05840414 -0.05842368 -0.05845094 -0.05847859 -0.05850621 -0.05852753 -0.05854329 -0.05855263 -0.05855695
 -0.05855885 -0.05856007 -0.05856457 -0.05857365 -0.05859093 -0.05861506 -0.05864702 -0.05868247 -0.05871962 -0.0587542
 -0.05878396 -0.05880767 -0.05882426 -0.05883548 -0.05884127 -0.05884462 -0.05884567 -0.05884863 -0.05885373 -0.05886583
 -0.0588849 -0.05891217 -0.05894658 -0.05898246 -0.05901857 -0.05904657 -0.05906778 -0.05908027 -0.05908786 -0.05909641
 -0.05910768 -0.05912719 -0.05915174 -0.05918132 -0.05921064 -0.05923643 -0.05925676 -0.05926929 -0.0592774 -0.05928079
 -0.05928627 -0.0592948 -0.05931211 -0.05933921 -0.0593751 -0.0594198 -0.05946524 -0.059511 -0.05954926 -0.05958057
 -0.05960427 -0.05962158 -0.05963698 -0.05965056 -0.05966503 -0.05967929 -0.05969214 -0.05970409 -0.0597143 -0.05972629
 -0.0597427 -0.05976592 -0.05979937 -0.05983891 -0.05988479 -0.0599286 -0.0599678 -0.05999901 -0.06002042 -0.06003736
 -0.06005001 -0.06006494 -0.0600826 -0.06010329 -0.06012674 -0.0601486 -0.06016889 -0.06018523 -0.06019855 -0.06021112
 -0.06022369 -0.06023958 -0.06025826 -0.0602806 -0.06030529 -0.06033095 -0.060357 -0.06038248 -0.06040742 -0.06043145
 -0.06045527 -0.06047875 -0.06050372 -0.0605305 -0.06056107 -0.06059605 -0.06063485 -0.06067761 -0.0607215 -0.06076634
 -0.06081093 -0.06085531 -0.06089995 -0.06094458 -0.06098766 -0.06102869 -0.06106436 -0.06109545 -0.06112195 -0.06114542
 -0.06116896 -0.06119248 -0.06121739 -0.06124232 -0.06126603 -0.0612893 -0.06131153 -0.06133604 -0.06136429 -0.06139728
 -0.06143634 -0.06147736 -0.06152013 -0.06155923 -0.06159387 -0.06162303 -0.06164653 -0.06166814 -0.06168809 -0.06171091
 -0.06173645 -0.06176621 -0.06179953 -0.06183479 -0.0618713 -0.06190644 -0.06194006 -0.06197049 -0.06199834 -0.06202332
 -0.06204707 -0.06207035 -0.06209594 -0.0621256 -0.06216127 -0.062205 -0.06225388 -0.06230839 -0.06236117 -0.06241078
 -0.06245378 -0.06248912 -0.06252192 -0.06255242 -0.06258552 -0.0626209 -0.06265315 -0.06268156 -0.06269774 -0.0627036
 -0.06270165 -0.06269561 -0.0626974 -0.06270684 -0.06273043 -0.06276289 -0.06280025 -0.06283828 -0.06287091 -0.06289963
 -0.06292298 -0.0629453 -0.06296822 -0.06299388 -0.06302341 -0.06305636 -0.06309282 -0.06313224 -0.06317458 -0.06321935
 -0.06326657 -0.06331438 -0.06336265 -0.06340906 -0.06345368 -0.06349598 -0.06353613 -0.06357483 -0.06361157 -0.06364568
 -0.06367587 -0.06369913 -0.06371553 -0.06372304 -0.06372476 -0.06372181 -0.0637195 -0.0637211 -0.06373047 -0.06375087
 -0.06378012 -0.06381956 -0.06385987 -0.06390004 -0.06393002 -0.06394818 -0.06395277 -0.06394339 -0.06392831 -0.06390809
 -0.06389377 -0.06388537 -0.0638891 -0.06390347 -0.06392626 -0.06395507 -0.0639824 -0.06400718 -0.06402334 -0.06403263
 -0.06403437 -0.0640318 -0.06402709 -0.06402387 -0.06402463 -0.06403252 -0.06405048 -0.06407549 -0.06410898 -0.06413901
 -0.06416383 -0.0641735 -0.06416582 -0.06414521 -0.0641116 -0.06407829 -0.06404574 -0.06402232 -0.06400748 -0.06400145
 -0.0640033 -0.06400969 -0.06401946 -0.06402778 -0.06403422 -0.06403487 -0.06403214 -0.06402683 -0.06402311 -0.06402555
 -0.06403484 -0.0640543 -0.06407764 -0.06410414 -0.06412418 -0.06413466 -0.06413082 -0.06411023 -0.06407848 -0.06403533
 -0.06399279 -0.06395166 -0.06392024 -0.06389861 -0.06388685 -0.06388465 -0.06388982 -0.06390203 -0.06391941 -0.0639405
 -0.06396047 -0.06397794 -0.06398719 -0.06399024 -0.06398724 -0.06398064 -0.06397377 -0.06396446 -0.06395239 -0.06393521
 -0.06391054 -0.06388274 -0.06385224 -0.06382433 -0.06380087 -0.0637796 -0.06376086 -0.06373801 -0.06371056 -0.06367641
 -0.06363565 -0.06359094 -0.06354234 -0.06349165 -0.06343856 -0.06338228 -0.06332368 -0.06326407 -0.06320621 -0.06315567
 -0.06311477 -0.06308974 -0.06307864 -0.06308328 -0.06309693 -0.06311693 -0.06313478 -0.06314646 -0.06314598 -0.06313017
 -0.06309948 -0.0630525 -0.06299747 -0.06293499 -0.06287368 -0.06281428 -0.06275769 -0.06270388 -0.06265023 -0.06259774
 -0.06255231 -0.06251615 -0.06250311 -0.06251219 -0.06255088 -0.06260964 -0.06267642 -0.06273686 -0.06276481 -0.06275848
 -0.06270257 -0.06261439 -0.06249865 -0.06237556 -0.06225603 -0.0621474 -0.06205518 -0.06197516 -0.06190735 -0.06184782
 -0.06179603 -0.06175046 -0.06171103 -0.06167414 -0.06163971 -0.0616068 -0.06157632 -0.06155609 -0.06154564 -0.06154936
 -0.06156132 -0.06156756 -0.06156226 -0.06152528 -0.06146078 -0.06136413 -0.06124606 -0.06111385 -0.06097859 -0.06084872
 -0.06073294 -0.06063817 -0.06056391 -0.06051362 -0.06047385 -0.0604436 -0.06040565 -0.06035744 -0.06029113 -0.06020569
 -0.06010519 -0.05999005 -0.05986983 -0.05974497 -0.05962339 -0.05950461 -0.05939051 -0.05928081 -0.05917519 -0.05907476
 -0.0589823 -0.05889656 -0.05881922 -0.0587424 -0.05865984 -0.05856419 -0.05844639 -0.05831183 -0.05815823 -0.05800136
 -0.05784518 -0.05770206 -0.05757656 -0.05746627 -0.05737294 -0.05727734 -0.05717822 -0.05705943 -0.0569209 -0.05676991
 -0.0566076 -0.05644871 -0.05628963 -0.05612188 -0.055941 -0.05572602 -0.05548383 -0.05521677 -0.05493544 -0.05465756
 -0.05438326 -0.05412028 -0.05386211 -0.05360586 -0.05334944 -0.05309007 -0.05283175 -0.05257458 -0.05232468 -0.05208368
 -0.05185375 -0.05163735 -0.05141541 -0.05118753 -0.05091432 -0.05059461 -0.05021631 -0.04978285 -0.04932 -0.04882852
 -0.04832648 -0.04780916 -0.04727195 -0.04671096 -0.04611588 -0.045486 -0.04481494 -0.04410657 -0.04336042 -0.04258617
 -0.04179163 -0.04097756 -0.04015194 -0.03928941 -0.03838486 -0.03741349 -0.03636352 -0.03525965 -0.03410142 -0.03293232
 -0.0317564 -0.03058133 -0.0294075 -0.02823491 -0.0270665 -0.02592903 -0.02482485 -0.0237811 -0.02279355 -0.02186388
 -0.02098687 -0.0201541 -0.01935897 -0.01859199 -0.01783963 -0.01708606 -0.01632087 -0.01553161 -0.01471674 -0.01387138
 -0.01300152 -0.0121068 -0.01119893 -0.0102818 -0.00935434 -0.008420793 -0.007439501 -0.006408089 -0.005278527 -0.004050755
 -0.002767667 -0.001435313 -0.0001322729 0.001149872 0.002409668 0.003660227 0.004941392 0.006256863 0.007630501 0.009067818
 0.01057683 0.01218908 0.01392423 0.01584957 0.01801271 0.02046876 0.02327991 0.02637005 0.02975545 0.03323358
 0.03676513 0.04021159 0.04354349 0.0467426 0.04980296 0.05276924 0.05564554 0.05854154 0.06147027 0.06461217
 0.06795205 0.07154395 0.07529948 0.0789572 0.08249825 0.08572488 0.0887433 0.09162556 0.09445242 0.09734273
 0.1002993 0.1033605 0.1065084 0.1097399 0.1130554 0.1164672 0.119912 0.1233872 0.1267873 0.1300913
 0.1332958 0.1363982 0.1394292 0.1423872 0.1451719 0.1477723 0.1500397 0.1519779 0.1535326 0.154704
 0.1554611 0.1558102 0.1557144 0.1552716 0.1546025 0.1537959 0.1530099 0.1522082 0.1514032 0.1505855
 0.1497396 0.1489169 0.1481456 0.14739 0.1466701 0.1458096 0.144796 0.143411 0.1416284 0.1394514
 0.1368865 0.134285 0.1316546 0.1292203 0.1269368 0.1246906 0.1224473 0.1200275 0.1174569 0.1146811
 0.1117922 0.1088997 0.1060771 0.1034638 0.1010147 0.09875391 0.09658276 0.09444161 0.09233756 0.0902377
 0.08827462 0.08647713 0.0849067 0.08358713 0.08243877 0.08145776 0.08056421 0.07975533 0.07903665 0.07841171
 0.07792103 0.07756085 0.07733335 0.07723075 0.07722749 0.07732374 0.07750669 0.0777815 0.07814906 0.07861748
 0.07919087 0.07988942 0.08072392 0.08172404 0.08290348 0.08429287 0.08589967 0.08776774 0.08990633 0.09235586
 0.09513161 0.09818558 0.1015224 0.1049652 0.1085031 0.1118844 0.115088 0.1178131 0.1200401 0.1214852
 0.1221907 0.1221165 0.1213695 0.1201517 0.1185585 0.1167976 0.1149778 0.1132755 0.1117867 0.1106547
 0.109846 0.1093974 0.1091926 0.1091954 0.1093462 0.1096132 0.1100479 0.110656 0.1114641 0.1124806
 0.1136064 0.114837 0.1161121 0.1174344 0.1188134 0.1202504 0.1217576 0.1233277 0.1249557 0.1266065
 0.128248 0.1297314 0.1308818 0.1314088 0.130879 0.129315 0.1264876 0.1228692 0.1186652 0.114098
 0.1092881 0.1043199 0.09919277 0.094187 0.08933557 0.08490106 0.08091997 0.07736045 0.07422009 0.07129303
 0.06857345 0.06592663 0.06336563 0.06089145 0.05851564 0.0562835 0.05418141 0.05220637 0.05033033 0.04850844
 0.04672383 0.04494708 0.04315495 0.04134234 0.03942337 0.03736238 0.0350647 0.03243118 0.02968931 0.02682806
 0.02431894 0.02226732 0.02065384 0.01950204 0.01847101 0.01754469 0.01652435 0.01541938 0.01427081 0.01309987
 0.01205146 0.01111472 0.01032819 0.009673355 0.009111833 0.008672919 0.008376136 0.008274442 0.008443183 0.008880957
 0.009621987 0.01061394 0.01184189 0.01325519 0.01483454 0.01654336 0.01836844 0.02029886 0.02233005 0.0244741
 0.02673667 0.02905081 0.0314119 0.03359456 0.03558932 0.03721014 0.03847114 0.03935659 0.03988122 0.04007891
 0.03997001 0.03960465 0.03902621 0.03832145 0.03752618 0.03670718 0.03589559 0.03512139 0.03444729 0.03391927
 0.03354977 0.03337202 0.03329364 0.03330044 0.0333137 0.03331552 0.03329283 0.03324079 0.03318946 0.03314031
 0.03312806 0.03315233 0.03321954 0.03332551 0.03345113 0.03359137 0.03371986 0.03383262 0.03390614 0.03394298
 0.03393181 0.03389099 0.03382869 0.03378334 0.03377834 0.03386717 0.03408238 0.03446038 0.03502955 0.0357677
 0.03668255 0.03770546 0.03882947 0.03998692 0.04117142 0.04233202 0.04346568 0.04453065 0.04552584 0.04642543
 0.04723111 0.04793932 0.04855157 0.04907229 0.04949908 0.0498292 0.05005843 0.0501775 0.05018754 0.05008455
 0.04987588 0.04956746 0.04915939 0.04865727 0.04804432 0.04731559 0.04645858 0.04546097 0.04436392 0.04316358
 0.04196307 0.04077152 0.03966611 0.03865137 0.03771662 0.03685836 0.03602662 0.03522211 0.03442258 0.03363474
 0.03287325 0.03213692 0.03143603 0.03075231 0.03006489 0.02934793 0.02856398 0.02769874 0.02672195 0.02565369
 0.02448556 0.02327924 0.02205052 0.02086409 0.01974313 0.01870001 0.01774509 0.0168371 0.01597364 0.01511282
 0.01425217 0.01340134 0.01256462 0.01180225 0.0111172 0.01056105 0.01012573 0.009811847 0.009606072 0.009478302
 0.009417449 0.009393252 0.009397305 0.009408589 0.009423599 0.009431842 0.009436912 0.009437316 0.009439629 0.009446157
 0.009460496 0.009484706 0.009516327 0.009556004 0.009595606 0.009634704 0.009663173 0.00968042 0.009679534 0.009660476
 0.009620499 0.009560918 0.009486319 0.00940156 0.009324772 0.009263689 0.009246514 0.009275954 0.009372232 0.00952578
 0.009737259 0.009985844 0.01025832 0.01053007 0.01078477 0.01100602 0.01118172 0.01131511 0.01140223 0.011463
 0.01149963 0.01153014 0.01155702 0.01158451 0.01161303 0.01163762 0.01165795 0.01166852 0.01166939 0.01165817
 0.01163529 0.01160116 0.01155601 0.01150073 0.01143519 0.01135864 0.01127354 0.01118083 0.01108742 0.0109981
 0.01092102 0.01086205 0.0108253 0.01081418 0.01082775 0.0108671 0.01092687 0.01100679 0.01109918 0.01120302
 0.01131617 0.0114384 0.0115765 0.01173065 0.01190584 0.0121006 0.01230816 0.012527 0.01274626 0.01296909
 0.01319597 0.01343488 0.01369926 0.01399539 0.01433744 0.01472355 0.01515865 0.0156335 0.01614507 0.0166835
 0.01724431 0.01782188 0.01841404 0.01901769 0.01963232 0.02025408 0.0208828 0.02151251 0.02214287 0.02276601
 0.0233815 0.02398172 0.02456654 0.02513165 0.0256765 0.02619788 0.02669281 0.02715308 0.02757443 0.02794511
 0.02826479 0.02852713 0.02873716 0.02889689 0.02901047 0.02908216 0.02910899 0.02909143 0.02902368 0.02890318
 0.02873209 0.02850889 0.02824719 0.02794798 0.02762478 0.02727856 0.02690979 0.02651809 0.02609571 0.02564342
 0.02516155 0.02465318 0.02413014 0.02359518 0.02306106 0.02252893 0.02200659 0.02149381 0.02099461 0.02050446
 0.02002252 0.01953976 0.01905041 0.01855018 0.01803418 0.01750937 0.01697602 0.01644351 0.01591406 0.01538913
 0.01486925 0.01435217 0.01383766 0.01333217 0.01283684 0.01237054 0.01193521 0.01155359 0.01122567 0.01096459
 0.01076683 0.01063095 0.01055157 0.01051925 0.01052887 0.01057089 0.0106412 0.01073189 0.01084541 0.01097752
 0.01114415 0.01134831 0.01161174 0.01194231 0.01234573 0.01282727 0.01336549 0.0139602 0.01457576 0.01521003
 0.01583276 0.01644297 0.0170233 0.01757408 0.01808799 0.01856685 0.01901207 0.0194287 0.01982879 0.02021996
 0.02062155 0.02103704 0.02148092 0.02194599 0.02243314 0.02292845 0.02342478 0.02391011 0.02437816 0.02482176
 0.02523725 0.02562406 0.02598018 0.02631612 0.0266319 0.0269464 0.02726074 0.02759204 0.0279411 0.02832144
 0.02873388 0.02919137 0.02969342 0.03024595 0.03084591 0.03148823 0.03217095 0.03288764 0.03363935 0.03442569
 0.0352453 0.0360988 0.03697881 0.03788256 0.03879974 0.0397268 0.0406521 0.04157251 0.04247709 0.04336304
 0.04422643 0.04506576 0.04588821 0.04669398 0.04749731 0.04829894 0.04911403 0.049941 0.05077981 0.05162142
 0.05243149 0.05319753 0.0538648 0.05443742 0.05488921 0.05525143 0.0555482 0.05581865 0.05610568 0.05643049
 0.05682041 0.0572727 0.05779504 0.05836979 0.0589949 0.05964983 0.0603302 0.06102542 0.06173304 0.06245659
 0.06319606 0.06395959 0.06474705 0.0655572 0.06638701 0.06721557 0.06803685 0.06881475 0.06954573 0.07020037
 0.07078223 0.07128438 0.07171105 0.07206669 0.07234887 0.07255662 0.07268874 0.0727417 0.07272434 0.07263777
 0.07249583 0.07230121 0.0720697 0.07180273 0.07152343 0.07123388 0.07095806 0.07069785 0.07046386 0.07025613
 0.07007295 0.06991347 0.06977158 0.06964534 0.06952362 0.06940457 0.06927573 0.06914072 0.06899888 0.06885839
 0.06872988 0.06861815 0.0685318 0.06847064 0.06843728 0.06842934 0.06844813 0.06848454 0.06853941 0.06858996
 0.06863485 0.06863943 0.06860077 0.06848186 0.06828002 0.06796924 0.06754909 0.06701565 0.0663707 0.06562539
 0.06478148 0.06385038 0.06283621 0.06175281 0.06061099 0.05943602 0.05823901 0.05704612 0.05585866 0.05468808
 0.05352804 0.05237771 0.05123179 0.05008769 0.04894279 0.04779549 0.04664627 0.04549442 0.04434453 0.04319697
 0.0420562 0.04092253 0.03979922 0.03868675 0.03759506 0.03652525 0.03549162 0.03449276 0.03353152 0.03260306
 0.03169559 0.03080514 0.02991812 0.02903423 0.02814652 0.027259 0.02637107 0.0254924 0.02462786 0.02378762
 0.0229783 0.02220085 0.02145806 0.02074267 0.02005409 0.01938444 0.01873313 0.01809062 0.01745634 0.01681814
 0.01617578 0.01552636 0.01487172 0.01422512 0.01358894 0.01298092 0.01240115 0.01185932 0.01135358 0.01088529
 0.01045152 0.01004933 0.009675386 0.009325928 0.008997889 0.008689608 0.00839464 0.008111843 0.007828543 0.007541572
 0.007238633 0.006916185 0.006571298 0.00620262 0.005815272 0.005409345 0.004993985 0.004569789 0.004148821 0.003731367
 0.003325752 0.002930637 0.002544241 0.002165684 0.001790139 0.001420854 0.00106066 0.0007157398 0.0003946041 0.0001043584
 -0.0001464003 -0.000350356 -0.0004995327 -0.0005931204 -0.0006254794 -0.0006116854 -0.0005520576 -0.0004734989 -0.0003807477 -0.0002958335
 -0.0002227709 -0.000167551 -0.000131295 -0.0001056603 -9.006324E-05 -7.139151E-05 -4.933307E-05 -1.576111E-05 2.918017E-05 8.850585E-05
 0.0001633716 0.0002589018 0.0003756252 0.000519191 0.0006836387 0.0008656033 0.00105292 0.001233716 0.001397357 0.001533698
 0.001636587 0.00170031 0.00172465 0.001705558 0.001658163 0.00158126 0.001509754 0.001446671 0.001428943 0.001459913
 0.001554566 0.001712928 0.001923996 0.002185671 0.002475557 0.002792359 0.003117844 0.003453232 0.003792603 0.004137784
 0.004490735 0.004849714 0.005215038 0.005579339 0.005937061 0.00627854 0.006595272 0.006883488 0.007136838 0.007365212
 0.007568461 0.007764467 0.007958217 0.008152938 0.008351914 0.008532247 0.008692584 0.008810532 0.008886024 0.008933624
 0.008957615 0.009003041 0.009071059 0.009193627 0.009362846 0.009572646 0.009813837 0.01006305 0.01032062 0.01057637
 0.01083561 0.01110309 0.01137297 0.01164632 0.01190554 0.01214146 0.01234808 0.01251737 0.01266931 0.01280482
 0.01295178 0.01311485 0.01330323 0.01351871 0.01374852 0.01399184 0.01422869 0.01445873 0.01466968 0.01486358
 0.01504236 0.01521046 0.01538178 0.01556024 0.01576145 0.01598431 0.01623594 0.01650778 0.01679579 0.01708742
 0.01737302 0.01764489 0.01789532 0.01812834 0.01834226 0.01854822 0.01874774 0.01895213 0.0191631 0.01938774
 0.01962708 0.01987745 0.02013841 0.02039504 0.02064736 0.02088816 0.02112077 0.02135874 0.02160257 0.02186431
 0.02213438 0.02239918 0.02264986 0.02286339 0.02304901 0.02320363 0.02334922 0.0235006 0.02366989 0.02386956
 0.02409184 0.02433852 0.0245932 0.02485245 0.02510672 0.02535369 0.02559417 0.025828 0.02605715 0.02628171
 0.02650219 0.02671964 0.02694389 0.02717703 0.02743617 0.02771924 0.02802993 0.02836268 0.02870651 0.02906069
 0.02942058 0.02978374 0.03015162 0.03050474 0.030832 0.03111312 0.03132891 0.03149609 0.03160924 0.03171764
 0.03183107 0.03198292 0.03218212 0.03241865 0.03269361 0.03297187 0.03325177 0.03350639 0.03373673 0.03394211
 0.0341255 0.03430211 0.03447214 0.03464387 0.03481664 0.03499087 0.03517161 0.03536633 0.03557913 0.03582007
 0.03608081 0.03635986 0.03664565 0.03693095 0.03721402 0.03749287 0.03776738 0.03803726 0.03830188 0.03855969
 0.03882398 0.03909555 0.03938933 0.03970565 0.04003194 0.04036709 0.04069147 0.04101098 0.04134351 0.04169979
 0.04212533 0.04262099 0.043214 0.0438919 0.04465022 0.04547133 0.046337 0.0472309 0.04813994 0.04904179
 0.04993363 0.05075774 0.05150672 0.05208245 0.05245952 0.05258728 0.05244176 0.05211945 0.05162085 0.05113212
 0.05066216 0.05033182 0.05013709 0.05008128 0.05015337 0.05029948 0.05051335 0.0507462 0.05099978 0.051254
 0.05151363 0.05178114 0.05204923 0.05231686 0.05256021 0.05276107 0.05290677 0.05297984 0.05300223 0.05297389
 0.05293093 0.0528817 0.05284777 0.05283365 0.05284806 0.05289239 0.05296657 0.05307051 0.0531947 0.05333912
 0.05350016 0.05367898 0.05388203 0.05410619 0.05434629 0.05459541 0.05483499 0.05506304 0.05526813 0.05545186
 0.05561025 0.05575012 0.05586768 0.05599446 0.05613964 0.05634787 0.05664969 0.05700784 0.05743185 0.05780769
 0.05811332 0.05833171 0.05845651 0.05853959 0.05858324 0.05861401 0.05863153 0.05863921 0.05863764 0.05863254
 0.05862445 0.05861861 0.05861417 0.05861117 0.05861034 0.0586134 0.05861926 0.05862746 0.05863672 0.0586435
 0.05865575 0.05867686 0.05871167 0.05876581 0.05882574 0.05888837 0.05894879 0.05900348 0.05907303 0.05916018
 0.05926098 0.05937483 0.05944449 0.05946751 0.05939406 0.05923109 0.05898884 0.05867933 0.05834765 0.0580013
 0.05767946 0.05738258 0.05713199 0.05691449 0.05672584 0.05654857 0.05636108 0.05617809 0.05599501 0.05585156
 0.05576508 0.05574103 0.05578998 0.05587316 0.05598779 0.05609133 0.05617895 0.05623327 0.05625356 0.05627242
 0.05629498 0.05639553 0.05657162 0.05685495 0.05722462 0.05762428 0.05804224 0.05841694 0.05876603 0.05909178
 0.05940761 0.05973595 0.06006286 0.06038441 0.06069016 0.06096971 0.0612333 0.0614828 0.06172442 0.06196029
 0.06219131 0.06241653 0.06264826 0.06288789 0.06313922 0.06340238 0.06365578 0.06389839 0.06411073 0.06429445
 0.06444969 0.06457731 0.06468029 0.06475831 0.06481142 0.06484095 0.06484887 0.0648366 0.0648032 0.06475975
 0.06471009 0.06467687 0.06467723 0.06470846 0.06478135 0.06485227 0.06491236 0.0649318 0.06490076 0.06483649
 0.06473893 0.06463481 0.06452557 0.06442764 0.06434199 0.06428832 0.06426304 0.06425994 0.06426668 0.06423265
 0.06415891 0.06401465 0.06382687 0.06362677 0.06343163 0.0632804 0.06315649 0.06306126 0.06297276 0.0628768
 0.06277099 0.06265142 0.06251974 0.06237873 0.06221295 0.06202361 0.06177248 0.06145636 0.06104032 0.06052233
 0.05993416 0.05928282 0.0586705 0.05809884 0.05763611 0.05726411 0.05695463 0.05669114 0.05641446 0.05613431
 0.05583865 0.05554485 0.05527206 0.05501971 0.05479588 0.0545894 0.05439702 0.05420795 0.05401662 0.05382047
 0.05361438 0.05341845 0.05323359 0.0530884 0.05298699 0.0529278 0.05291093</values></Ydata></AB><ScSm><Ydata ylabel="Single channel"><values byteorder="INTEL" format="FLOAT32" numvalues="1814"> 0.06778134 0.06778288 0.06784677 0.06799697 0.06820773 0.06841576 0.06856278 0.06863332 0.06864463 0.06860917
 0.06853971 0.06849004 0.06854141 0.06872237 0.06896344 0.06914482 0.06918934 0.0691288 0.06908851 0.06916738
 0.06930217 0.06928235 0.06894922 0.06838165 0.06784358 0.06753831 0.0674831 0.06766697 0.06817643 0.06894962
 0.06951055 0.06931543 0.06843838 0.0675894 0.06732693 0.06752732 0.06772227 0.06763832 0.06727619 0.06680508
 0.06661415 0.06720655 0.06870067 0.07042387 0.07115877 0.06991433 0.06663427 0.06241512 0.05909854 0.05828243
 0.06019257 0.06336798 0.06575882 0.06636286 0.06569957 0.06476073 0.06394716 0.06320852 0.06273797 0.06300333
 0.06409743 0.06530694 0.06548789 0.06405017 0.06166346 0.0597739 0.05928425 0.05999878 0.06140742 0.06323031
 0.06462167 0.06374288 0.05958964 0.05425545 0.05196683 0.05505656 0.06147392 0.06679189 0.06813595 0.06577624
 0.0618254 0.0585015 0.05729665 0.05857466 0.06151156 0.06477758 0.06733742 0.06849011 0.06769431 0.06504864
 0.06175021 0.05950804 0.05949268 0.06188267 0.06583165 0.06954674 0.07110453 0.06987363 0.06693226 0.06393281
 0.06202075 0.06184397 0.06370953 0.06725816 0.07145074 0.07517117 0.07767802 0.07867883 0.07839368 0.07741344
 0.07624717 0.07524545 0.07492049 0.0756249 0.07671906 0.07682052 0.07531357 0.07317092 0.07194757 0.0721709
 0.07292277 0.07295665 0.07195926 0.07033348 0.06795873 0.06417982 0.05931531 0.05504328 0.05271826 0.05234757
 0.05359816 0.05631207 0.05932548 0.06042538 0.05878733 0.05649244 0.05645431 0.0593096 0.06311072 0.06569581
 0.0666847 0.06729876 0.06879936 0.07120005 0.07312106 0.07283019 0.06996138 0.06646198 0.0652061 0.0671726
 0.07051051 0.07281438 0.07365565 0.0742944 0.07548428 0.07630374 0.07512128 0.07154115 0.0674288 0.06574462
 0.06795777 0.07256967 0.07620691 0.07611965 0.07203032 0.06617126 0.06154285 0.059843 0.0610325 0.06449354
 0.06969042 0.07556528 0.08026953 0.0822085 0.08120884 0.07840638 0.07495436 0.07096875 0.06616061 0.06160272
 0.05990861 0.0627449 0.06868888 0.07442538 0.07769641 0.07840143 0.07729536 0.07460146 0.07024018 0.06516518
 0.06176976 0.06201354 0.06504985 0.06773567 0.0679253 0.06640923 0.06525238 0.0652291 0.06557432 0.06558259
 0.0656018 0.06643867 0.06820581 0.0700365 0.07092902 0.07066001 0.069805 0.06907135 0.06866172 0.06813692
 0.06703255 0.06578685 0.065671 0.06738745 0.07009552 0.0722809 0.0732726 0.07346378 0.07328859 0.07247108
 0.07043965 0.06742059 0.06485757 0.06432902 0.06601757 0.06861249 0.07066967 0.07163483 0.07168126 0.07118893
 0.0704966 0.06978993 0.06915582 0.06882081 0.06908898 0.06989836 0.07073309 0.07114168 0.07110087 0.07077968
 0.07022168 0.0694142 0.06851198 0.06783497 0.06763746 0.0679152 0.06845312 0.06901686 0.06943035 0.06953418
 0.0692464 0.0686882 0.06810725 0.06765091 0.06732398 0.06714647 0.06719407 0.06745367 0.06776243 0.06794642
 0.0679566 0.06784208 0.06764933 0.06738922 0.06707534 0.06676392 0.06655091 0.0665087 0.06660335 0.06671013
 0.06675114 0.0667724 0.06682929 0.06685576 0.06673577 0.06647089 0.06619194 0.06601644 0.06595473 0.06594463
 0.0659156 0.06580034 0.06553361 0.06511017 0.0646579 0.06438854 0.06442713 0.06471984 0.0651194 0.06549583
 0.06575388 0.06584092 0.06578854 0.06568383 0.06556638 0.06539859 0.06515178 0.06488596 0.06472889 0.06477723
 0.06500696 0.06528677 0.06548982 0.06557489 0.06556717 0.06551915 0.06549813 0.06554015 0.06559354 0.06556548
 0.06544182 0.06531417 0.06527498 0.06531748 0.06535108 0.06530491 0.0652077 0.0651553 0.06520164 0.06530739
 0.06540027 0.06545222 0.06548316 0.06551251 0.06552144 0.06546474 0.06532788 0.06516393 0.065045 0.06498539
 0.06494923 0.06492462 0.06494189 0.06501311 0.0650944 0.06512506 0.06508724 0.0650143 0.06494454 0.06487722
 0.06478301 0.06465116 0.06450851 0.06439017 0.06430745 0.06424758 0.06419127 0.06412487 0.06404217 0.06394163
 0.06382436 0.06369226 0.06354503 0.06338574 0.06323765 0.06314263 0.06312034 0.06313107 0.06310012 0.06298652
 0.06281869 0.06266023 0.06254765 0.06246586 0.0623806 0.062284 0.06219961 0.06215008 0.06213553 0.0621428
 0.06215951 0.06217819 0.06220584 0.0622754 0.06242626 0.06265521 0.06289817 0.06308154 0.06319063 0.06327389
 0.06338508 0.06353714 0.06370847 0.06387742 0.06404835 0.06424721 0.06448334 0.06471908 0.06490105 0.0650248
 0.06514198 0.06530012 0.06550464 0.0657379 0.06597669 0.06618528 0.06633246 0.06643204 0.06653843 0.06668849
 0.06686924 0.06705026 0.06722398 0.06740037 0.06758174 0.06776427 0.06795856 0.0681912 0.06848009 0.06881116
 0.06913929 0.06941617 0.06963048 0.06982718 0.07007729 0.0704174 0.07081801 0.07121174 0.0715513 0.07184202
 0.07212237 0.07241847 0.07272683 0.07304354 0.07338955 0.07378636 0.07421932 0.07465009 0.07506005 0.07545981
 0.07586159 0.07626429 0.07666603 0.07707503 0.07750352 0.0779531 0.07840455 0.07882424 0.07918952 0.07950918
 0.07981718 0.08015034 0.08052831 0.08093475 0.08131301 0.08160736 0.08182828 0.08205536 0.08235182 0.08269337
 0.08301053 0.08328617 0.08357287 0.08391467 0.08428896 0.08464065 0.08494763 0.08523265 0.0855238 0.0858202
 0.08609332 0.08631446 0.08648361 0.08663213 0.08679438 0.08698533 0.08721371 0.08749737 0.08783919 0.08819821
 0.08851366 0.08875601 0.08893573 0.08907567 0.08920136 0.08934537 0.08952954 0.08974504 0.08996508 0.09016593
 0.09032957 0.09045388 0.09057466 0.09074768 0.09099075 0.09127124 0.09156442 0.09188901 0.09226189 0.09265181
 0.0930155 0.09336266 0.09374294 0.09416559 0.09456873 0.09488492 0.09511021 0.095287 0.09544866 0.09561619
 0.0958284 0.09612732 0.09650971 0.09692448 0.09732303 0.09769127 0.09803313 0.09834579 0.09861779 0.09883912
 0.09900792 0.09913342 0.09923854 0.09935957 0.09953277 0.09976597 0.1000206 0.1002344 0.1003663 0.1004064
 0.1003466 0.1001719 0.09989508 0.09957413 0.09926136 0.0989407 0.09853725 0.09798805 0.09728498 0.09645009
 0.09549595 0.09442688 0.09326944 0.09208682 0.09095997 0.08995964 0.08914296 0.08857691 0.08834696 0.08851154
 0.0890319 0.08975405 0.09046558 0.09096669 0.09110723 0.09080932 0.09009178 0.0890609 0.08784838 0.08655013
 0.08521473 0.08385588 0.08245479 0.08097747 0.0794304 0.07790674 0.07657566 0.07565403 0.07541265 0.07615817
 0.07809268 0.08110775 0.08473047 0.08833529 0.09145966 0.09395804 0.09592518 0.09753764 0.09895087 0.1002584
 0.1014827 0.1026051 0.1036148 0.1045278 0.105361 0.106108 0.1067418 0.1072292 0.1075519 0.1077269
 0.1078028 0.107827 0.107825 0.1078103 0.1077845 0.1077144 0.107522 0.107113 0.1064134 0.1053783
 0.1039837 0.1022562 0.1003958 0.09892088 0.09860215 0.1000553 0.1032667 0.1075293 0.1118824 0.1156317
 0.1185352 0.1206696 0.1222351 0.1234351 0.124421 0.1252801 0.1260538 0.1267599 0.1274064 0.1280009
 0.1285549 0.1290834 0.1296034 0.1301294 0.1306614 0.1311813 0.1316733 0.1321447 0.1326225 0.1331288
 0.1336595 0.1341859 0.1346845 0.1351627 0.1356423 0.1361197 0.1365656 0.1369666 0.1373449 0.1377338
 0.1381526 0.138604 0.1390729 0.1395259 0.1399324 0.1402916 0.1406313 0.1409788 0.1413402 0.1417065
 0.1420695 0.1424269 0.1427797 0.143135 0.1435064 0.1438989 0.1442905 0.1446435 0.1449426 0.1452116
 0.1454878 0.1457877 0.1461014 0.1464112 0.1467134 0.1470263 0.1473744 0.147762 0.1481622 0.1485374
 0.1488681 0.1491636 0.1494494 0.149748 0.1500696 0.1504123 0.1507665 0.1511203 0.1514642 0.1517964
 0.1521218 0.152446 0.1527703 0.1530906 0.1534034 0.1537104 0.1540167 0.1543251 0.1546374 0.1549603
 0.1553032 0.1556634 0.1560197 0.1563475 0.156636 0.1568928 0.157135 0.1573819 0.1576473 0.157935
 0.1582397 0.1585527 0.1588678 0.1591829 0.1594974 0.1598101 0.1601217 0.1604371 0.1607606 0.161088
 0.1614092 0.1617215 0.1620325 0.1623478 0.1626626 0.1629707 0.1632732 0.1635756 0.1638823 0.1641944
 0.1645091 0.1648216 0.1651309 0.16544 0.1657507 0.1660607 0.1663683 0.1666745 0.1669814 0.1672893
 0.1675966 0.1679007 0.1682009 0.1684993 0.1688005 0.16911 0.1694295 0.1697513 0.1700619 0.1703552
 0.1706412 0.1709361 0.1712462 0.1715646 0.1718818 0.1721938 0.1725019 0.172807 0.1731041 0.1733885
 0.1736638 0.1739402 0.1742239 0.174514 0.1748066 0.1750987 0.1753915 0.1756917 0.1760063 0.1763337
 0.1766662 0.1769962 0.1773181 0.1776265 0.1779191 0.1781986 0.1784728 0.1787533 0.1790501 0.1793635
 0.1796837 0.1800015 0.1803128 0.1806166 0.1809146 0.1812103 0.1815048 0.1817963 0.1820828 0.1823606
 0.1826262 0.1828858 0.1831544 0.1834387 0.1837319 0.1840264 0.1843225 0.1846236 0.1849311 0.1852435
 0.1855563 0.1858649 0.186167 0.1864605 0.1867447 0.1870272 0.18732 0.1876249 0.1879346 0.1882441
 0.1885519 0.1888554 0.1891559 0.1894601 0.1897717 0.1900902 0.190415 0.1907395 0.1910517 0.1913475
 0.1916345 0.1919211 0.1922131 0.1925159 0.192825 0.1931252 0.1934104 0.1936894 0.1939708 0.1942578
 0.194554 0.1948577 0.1951587 0.1954517 0.1957388 0.1960181 0.1962881 0.1965588 0.1968419 0.1971387
 0.1974468 0.1977626 0.1980752 0.1983761 0.1986691 0.1989585 0.1992405 0.1995136 0.199775 0.2000066
 0.2001661 0.2001354 0.199595 0.1979035 0.1941004 0.1871086 0.1761664 0.1613125 0.1435393 0.1244373
 0.1056119 0.08827406 0.07313145 0.06049073 0.0504188 0.04284128 0.0375962 0.0345336 0.033634 0.03513861
 0.03967819 0.04788853 0.05901065 0.06968179 0.07527182 0.07355095 0.06682324 0.05982354 0.05578987 0.05492042
 0.05580689 0.05726075 0.05891112 0.06098101 0.06384943 0.06762686 0.07213578 0.07736942 0.08371438 0.09145424
 0.1001781 0.1089569 0.1171471 0.1248954 0.1328129 0.1412431 0.1499042 0.1581639 0.1655351 0.1719155
 0.1774983 0.1825572 0.18729 0.1917904 0.1960981 0.2002002 0.2039471 0.2070175 0.209071 0.210006
 0.2100836 0.2097815 0.2095122 0.2094592 0.2096301 0.2099866 0.2105033 0.2111619 0.2119413 0.2128143
 0.2137453 0.2147022 0.2156675 0.2166259 0.2175498 0.2184101 0.2191936 0.2199036 0.2205515 0.2211512
 0.2217103 0.2222299 0.2227145 0.2231732 0.2236092 0.2240204 0.2244103 0.2247856 0.225144 0.2254758
 0.225778 0.2260575 0.2263253 0.226591 0.2268588 0.2271247 0.2273821 0.2276301 0.227876 0.228128
 0.2283884 0.2286513 0.2289082 0.2291562 0.2293984 0.229638 0.2298761 0.2301158 0.2303598 0.2306051
 0.2308472 0.2310857 0.2313218 0.2315541 0.2317838 0.2320163 0.2322558 0.2325021 0.2327524 0.2330028
 0.2332524 0.2335074 0.2337726 0.2340401 0.2343007 0.2345599 0.234828 0.2351001 0.235363 0.2356138
 0.2358558 0.2360847 0.2362948 0.2364965 0.2367176 0.2369815 0.23728 0.2375754 0.2378383 0.2380771
 0.238318 0.2385698 0.23882 0.2390537 0.239271 0.2394981 0.2397706 0.2400924 0.2404276 0.2407462
 0.2410507 0.2413523 0.2416544 0.2419633 0.242276 0.2425575 0.2427718 0.242941 0.2431468 0.2434651
 0.243896 0.2443573 0.244757 0.2450743 0.2453558 0.2456538 0.2459912 0.2463404 0.2465982 0.246657
 0.2465746 0.2466028 0.2469564 0.2475988 0.2483103 0.2489128 0.2493724 0.2497419 0.2500713 0.2503596
 0.2505574 0.2506238 0.2506149 0.2507059 0.2510656 0.2516781 0.2523426 0.25288 0.2532704 0.253571
 0.2538154 0.254023 0.2541638 0.2540866 0.2536786 0.2531742 0.2531025 0.2537739 0.254924 0.2559935
 0.2566818 0.2571008 0.2574578 0.2577966 0.2580636 0.2581589 0.2578123 0.2567392 0.2552093 0.2541998
 0.2545849 0.2562514 0.2582774 0.2598537 0.2607881 0.2612867 0.2615991 0.2618557 0.2619692 0.2616414
 0.2607017 0.2595523 0.2590564 0.2597381 0.2611938 0.2625276 0.2632636 0.2635844 0.2638443 0.264174
 0.2643918 0.2639605 0.2622961 0.2596399 0.2574801 0.2574987 0.2599255 0.2632596 0.2657589 0.2669331
 0.267379 0.2674886 0.266874 0.2650609 0.2621993 0.2589912 0.2564747 0.2558788 0.2578017 0.2612003
 0.2639936 0.2651181 0.2654205 0.2662691 0.2679253 0.2695684 0.2703554 0.2700683 0.268969 0.2673389
 0.2653452 0.263465 0.2627433 0.2640523 0.2670224 0.270173 0.2722788 0.2732971 0.2737215 0.2731492
 0.2699957 0.2634133 0.2556811 0.2515651 0.2540983 0.2613995 0.2686923 0.272999 0.2747538 0.2755474
 0.2760079 0.2756318 0.2730756 0.2669005 0.2578577 0.2502932 0.2491887 0.2552283 0.2640154 0.2701676
 0.2709753 0.2666747 0.2594665 0.2528549 0.250218 0.2527612 0.2589968 0.2662084 0.2720769 0.2753014
 0.275579 0.2734892 0.2704559 0.2683917 0.2683074 0.2688117 0.2671765 0.2627913 0.2581912 0.255334
 0.2525711 0.2476972 0.2427936 0.2428088 0.2491121 0.2571893 0.2617159 0.2619361 0.2606602 0.2591754
 0.2550587 0.2456787 0.2331884 0.2245771 0.2255305 0.2345262 0.2442033 0.248552 0.2476637 0.2455553
 0.2448124 0.2439757 0.2396417 0.2309242 0.2216491 0.2171265 0.2185309 0.221876 0.2227453 0.2198426
 0.2134532 0.203969 0.1943166 0.1908354 0.1979038 0.2125186 0.2266469 0.2338198 0.2314815 0.2195359
 0.2011739 0.1846321 0.17916 0.186761 0.1997516 0.2078232 0.206207 0.1964794 0.1820992 0.1660214
 0.1520334 0.1451783 0.1486837 0.1606358 0.1742256 0.1812588 0.1766952 0.1624907 0.1476594 0.141776
 0.1463901 0.1541061 0.1568738 0.1532266 0.1470517 0.1424941 0.1415322 0.143801 0.1470461 0.1491948
 0.1500133 0.1488913 0.1426339 0.1294537 0.1143268 0.105702 0.1066703 0.113443 0.1222743 0.132706
 0.1429665 0.1477429 0.1442556 0.1376938 0.1368034 0.1446108 0.1558028 0.1631087 0.1644517 0.163293
 0.1632501 0.1641408 0.1640127 0.1636375 0.1665319 0.1741401 0.1832867 0.1897115 0.1924658 0.1934628
 0.1942335 0.1947979 0.1947597 0.1939765 0.1924964 0.1906825 0.1890793 0.1877534 0.1861962 0.1839925
 0.1808378 0.1756913 0.1671356 0.1557689 0.145492 0.1405391 0.1411517 0.1440157 0.1468668 0.1496379
 0.1502995 0.1438142 0.1286904 0.1121759 0.1049387 0.1108128 0.124029 0.1358078 0.1410823 0.1389053
 0.1298222 0.116003 0.1032587 0.09923355 0.1073075 0.1235052 0.1407816 0.1548964 0.1647858 0.1694731
 0.1677507 0.1607738 0.1528922 0.1491945 0.1525281 0.1622508 0.1743398 0.1823036 0.1803807 0.1693992
 0.1594681 0.1624367 0.179261 0.1981549 0.207824 0.2089145 0.2091245 0.2112761 0.2120438 0.2105127
 0.211446 0.2186669 0.229331 0.2367349 0.2362421 0.2270851 0.2115692 0.1954078 0.1862681 0.1877429
 0.19539 0.2016499 0.203153 0.2001664 0.1921267 0.1796687 0.1694689 0.1701393 0.1821793 0.1968318
 0.2060699 0.2099288 0.2128098 0.2158937 0.2156986 0.2093476 0.1994084 0.1923062 0.1919954 0.196503
 0.201199 0.2035928 0.2034427 0.200143 0.1931152 0.1847427 0.1802737 0.1833181 0.1921727 0.2014384
 0.2068302 0.2078336 0.2064222 0.2045148 0.2026906 0.2003627 0.1970735 0.1941438 0.1943828 0.1990413
 0.2057178 0.2107858 0.2135196 0.2162979 0.2208895 0.2260355 0.2290087 0.2286233 0.2263917 0.2252192
 0.2270617 0.2313402 0.2353443 0.2365111 0.2348372 0.233099 0.2342941 0.2387743 0.2442239 0.2482767
 0.2504518 0.25163 0.2526218 0.253483 0.2534842 0.2516673 0.2482028 0.2451802 0.2451291 0.2485194
 0.2533241 0.2571137 0.258997 0.2594924 0.2592354 0.2583014 0.2565983 0.254483 0.2527401 0.2519771
 0.2522 0.2529983 0.2539594 0.2548352 0.2555085 0.2559728 0.2563022 0.2565635 0.2567829 0.2569835
 0.2571674 0.2572572 0.2571616 0.2569388 0.2568012 0.2568887 0.2570929 0.2571743 0.2569921 0.2565291
 0.2557485 0.2545733 0.2530169 0.2512096 0.2492423 0.2470951 0.244834 0.2428445 0.2417299 0.2418715
 0.2430853 0.2447401 0.246196 0.2471264 0.2475244 0.2475452 0.2473772 0.2471706 0.247 0.2468711
 0.2467679 0.2466914 0.246654 0.2466575 0.2466962 0.2467845 0.2469575 0.247231 0.2475679 0.2478933
 0.2481371 0.2482681 0.2483092 0.2483214 0.2483545 0.248401 0.2484029 0.2482987 0.2480599 0.2476969
 0.2472453 0.2467407 0.246189 0.2455584 0.244813 0.2439481 0.2429686 0.2418368 0.2404942 0.2389621
 0.2373801 0.235902 0.2345764 0.2333519 0.2321592 0.2309517 0.2296948 0.2283665 0.2269669 0.2255092
 0.2240043 0.2224615 0.220893 0.2193061 0.2176912 0.2160246 0.2142844 0.2124627 0.2105627 0.2085837
 0.2065044 0.2042661 0.2017691 0.1988998 0.1955665 0.1917188 0.1873572 0.1825569 0.1774775 0.1723255
 0.1672884 0.1624979 0.1580433 0.1540184 0.1505456 0.1477405 0.1456479 0.1442264 0.1434001 0.1431165
 0.1433604 0.1441271 0.1453812 0.1470325 0.1489465 0.1509765 0.1529868 0.15487 0.1565795 0.1581518
 0.1596786 0.1612335 0.1628164 0.1643698 0.1658404 0.1672082 0.1684538 0.1695369 0.1704317 0.1711613
 0.1717734 0.1723018 0.1727677 0.1731918 0.1735819 0.1739209 0.1741832 0.1743595 0.1744705 0.1745647
 0.1747034 0.1749421 0.1753279 0.1759049 0.176709 0.1777485 0.1789887 0.1803582 0.1817845 0.1832336
 0.1847119 0.1862362 0.1878246 0.189512 0.1913428 0.1933365 0.1954708 0.1976922 0.1999253 0.2020793
 0.2040673 0.2058314 0.2073539 0.2086463 0.209724 0.2105935 0.2112648 0.2117672 0.2121386 0.2124095
 0.2126032 0.2127373 0.2128121 0.2128083 0.2127048 0.2124952 0.2121951 0.2118407 0.2114723 0.2111097
 0.2107525 0.2104037 0.2100817 0.2098064 0.2095799 0.2093816 0.2091838 0.2089749 0.2087608 0.2085409
 0.2082909 0.2079697 0.2075285 0.206921 0.2061287 0.205177 0.2041102 0.202953 0.2017091 0.2003804
 0.1989733 0.1974908 0.1959275 0.1942697 0.1925068 0.190645 0.1887028 0.1866985 0.1846613 0.1826455
 0.1807065 0.1788639 0.1771037 0.1754054 0.1737563 0.1721499 0.1705847 0.1690567 0.1675594 0.1661006
 0.1647115 0.1634254 0.1622495 0.1611671 0.1601617 0.1592391 0.1584276 0.1577466 0.157174 0.156658
 0.1561633 0.1556932 0.1552761 0.1549441 0.1547149 0.1545728 0.1544698 0.1543507 0.1541773 0.1539392
 0.1536601 0.1533864 0.1531555 0.152973 0.1528154 0.1526349 0.1523601 0.151909 0.1512063 0.1501963
 0.1488618 0.1472414 0.145422 0.1435138 0.1416363 0.1399023 0.1383911 0.1371342 0.1361255 0.1353301
 0.1346937 0.1341718 0.1337572 0.1334785 0.1333716 0.1334268 0.1335426 0.1335693 0.1334486 0.1332883
 0.1332664 0.1334813 0.1339046 0.1344259 0.134921 0.1353121 0.1355889 0.1357745 0.135887 0.1359324
 0.135901 0.1357668 0.1355193 0.1351864 0.1348076 0.1344054 0.1339855 0.1335303 0.1329944 0.1323399
 0.1315693 0.1307064 0.1297737 0.1287849 0.1277172 0.1265199 0.1252251 0.1240291 0.1232014 0.1229042
 0.1230966 0.1235714 0.1241011 0.124586 0.1250125 0.1252606 0.1251405 0.1247673 0.1247455 0.1257282
 0.1277611 0.1301884 0.1322168 0.1334668 0.1339814 0.1339114 0.1333496 0.1323561 0.1309532 0.1291208
 0.1268869 0.1243598 0.1216404 0.1188257 0.1160958 0.1136499 0.1115771 0.1098753 0.1085211 0.1075459
 0.1070815 0.1068176 0.1050867 0.09973969 0.09145708 0.08523274 0.0861742 0.09375758 0.1021906 0.1065401
 0.106664 0.1051774 0.1038776 0.1030273 0.102533 0.1025308 0.1031504 0.1042735 0.105545 0.106591
 0.1072567 0.1075688 0.1074805 0.1066947 0.10462 0.1005429 0.09419479 0.08630141 0.07835792 0.07174696
 0.06711099 0.06436266 0.06297007 0.06226324 0.06177585 0.06147106 0.06163711 0.06254855 0.0642287 0.06650792
 0.06920313 0.07211889 0.07493201 0.0772962 0.07911676 0.08055856 0.08174357 0.08259082 0.08297558 0.08290121
 0.08248258 0.0818605 0.08115393 0.08042194 0.07962935 0.078684 0.07757879 0.07650889 0.07575934 0.07542958
 0.0753551 0.07533118 0.07529773 0.07527754 0.07527198 0.0752663 0.0752546 0.07525508 0.07534486 0.075618
 0.0760577 0.07651573 0.07685064 0.0770378 0.07714066 0.07719196 0.07709479 0.07671134 0.07612077 0.07563509
 0.07538165 0.07503566 0.07422975 0.07312182 0.07229029 0.0721077 0.0724212 0.07281455 0.07299563 0.07292408
 0.07274661 0.07270864 0.0730066 0.07356694</values></Ydata></ScSm><ScRf><Ydata ylabel="Single channel"><values byteorder="INTEL" format="FLOAT32" numvalues="1820"> 0.06079172 0.06094432 0.06103901 0.06107402 0.06106943 0.06106924 0.06112767 0.061274 0.06148522 0.06169443
 0.06183698 0.06189505 0.06189045 0.0618427 0.06176673 0.06171073 0.06174813 0.06190518 0.06211769 0.06227506
 0.06230733 0.06224512 0.06220244 0.06226778 0.06238505 0.06236845 0.06207677 0.06157542 0.06109359 0.06081194
 0.0607511 0.06090727 0.06136202 0.06206268 0.06258056 0.06241816 0.0616314 0.06085751 0.06060757 0.06077757
 0.06094572 0.0608637 0.06053315 0.06010675 0.05993136 0.06045754 0.0617964 0.06334921 0.06401791 0.06289677
 0.05992291 0.05608628 0.05306052 0.05229904 0.05401082 0.05687924 0.05905367 0.05962384 0.05904981 0.05822044
 0.05749379 0.05682002 0.05637144 0.05657808 0.05754014 0.05862577 0.05879894 0.05751101 0.05535327 0.05363256
 0.05317497 0.05380946 0.05507243 0.05671364 0.05798418 0.05722947 0.05351716 0.04869996 0.04659071 0.04933649
 0.05512557 0.05995693 0.06119996 0.05907537 0.05549628 0.05247971 0.0513766 0.05251291 0.05514808 0.05808993
 0.06040817 0.06146763 0.06077365 0.05840676 0.05543781 0.0534057 0.05337439 0.05551825 0.05908211 0.06244691
 0.06386799 0.0627657 0.06011002 0.05739577 0.05565868 0.05548228 0.05714849 0.06034475 0.06413959 0.06752012
 0.06980632 0.07072517 0.07047154 0.06958482 0.06853646 0.06764533 0.06736293 0.06799951 0.06898154 0.06906709
 0.06770135 0.06576295 0.06465688 0.06485698 0.06553112 0.06555456 0.06464908 0.06318393 0.06105162 0.05765149
 0.05325803 0.04938753 0.04727924 0.04694863 0.04808956 0.05055879 0.05331401 0.0543507 0.05289682 0.05081364
 0.05074887 0.0533113 0.05675773 0.05912238 0.06003807 0.06059512 0.0619378 0.06409569 0.06584048 0.06560987
 0.06305394 0.05991133 0.05878376 0.06058021 0.06363995 0.06577715 0.06659012 0.06721891 0.06835401 0.06916451
 0.06816512 0.0649823 0.06129608 0.05979441 0.06182773 0.06605703 0.06942759 0.06942555 0.06576794 0.06046914
 0.05627542 0.05476521 0.05592905 0.05921903 0.06415348 0.06976047 0.07432598 0.07634864 0.07562383 0.07317318
 0.0700743 0.06645937 0.06206438 0.05788558 0.05639243 0.05920211 0.06501435 0.07069228 0.07405877 0.07498282
 0.07416686 0.07181178 0.06781985 0.06309289 0.05995797 0.06036352 0.06353553 0.06641409 0.06685533 0.06558573
 0.06463362 0.06479703 0.06534257 0.06556626 0.06580765 0.0668796 0.06890625 0.07101749 0.07218921 0.07217275
 0.07153878 0.07101502 0.07082303 0.0705141 0.06960163 0.06853524 0.06864211 0.07067081 0.07375808 0.07631386
 0.07761439 0.07806359 0.07812551 0.07750711 0.07558092 0.07256687 0.07001223 0.06964315 0.07169481 0.0747641
 0.07726651 0.07857508 0.07887113 0.07856913 0.07803598 0.07747684 0.07699589 0.07684691 0.0773657 0.0784869
 0.07963995 0.08031932 0.08049894 0.0803688 0.07996741 0.07926612 0.07844086 0.07786793 0.07784463 0.07836676
 0.07919064 0.08005252 0.08075129 0.08109501 0.08097143 0.0805091 0.08000594 0.07965499 0.07946779 0.07945706
 0.07970655 0.08020663 0.0807678 0.08117765 0.08137077 0.08140497 0.08134286 0.08120656 0.08101466 0.08082901
 0.08075719 0.08087847 0.08114625 0.08141723 0.08162101 0.08183303 0.08211428 0.08235541 0.08238594 0.08219947
 0.08197349 0.08187821 0.08193684 0.08206481 0.08216807 0.0821673 0.08198587 0.08161269 0.08119748 0.08099994
 0.08118491 0.08170252 0.0823762 0.08302906 0.08351864 0.08376776 0.08381918 0.08378942 0.08373503 0.08361705
 0.08340715 0.08318251 0.08310001 0.08328018 0.08369952 0.08419706 0.08460019 0.08483302 0.08491892 0.08494505
 0.085027 0.08521841 0.08542964 0.08551133 0.08544071 0.08535845 0.08540012 0.0855435 0.08564706 0.08561492
 0.08550318 0.08546016 0.08557083 0.08578262 0.08598767 0.08614588 0.08630508 0.08651204 0.08672193 0.08681439
 0.08672056 0.0865183 0.08635738 0.08630098 0.08630164 0.08632799 0.08642969 0.08664083 0.08688428 0.08703379
 0.08705447 0.08703396 0.0870668 0.08713974 0.08715463 0.08704776 0.08685894 0.08668938 0.08661837 0.08665858
 0.08676085 0.08684783 0.08685923 0.08678567 0.08666554 0.08654758 0.08645872 0.08641388 0.08644768 0.08660348
 0.08686306 0.08710203 0.08716032 0.08698414 0.08668816 0.08645794 0.08638446 0.08639759 0.08635597 0.08618571
 0.08592781 0.08567344 0.08548027 0.08534802 0.08524676 0.08515576 0.08509041 0.08510051 0.08522004 0.08539762
 0.08549847 0.08541373 0.08516611 0.08488456 0.08468577 0.08460209 0.08459723 0.08461182 0.08461046 0.0846153
 0.08467147 0.08476172 0.08479896 0.08473188 0.0846156 0.08455346 0.08460841 0.08477932 0.08500501 0.08517529
 0.08519917 0.08509497 0.08497811 0.0849444 0.08499563 0.08508146 0.08517008 0.08525898 0.08534995 0.08544587
 0.08556493 0.08573569 0.08596899 0.0862372 0.08648293 0.08665542 0.08675306 0.08683722 0.08699319 0.08726142
 0.08760133 0.08792415 0.08816618 0.08833578 0.08849094 0.08867182 0.0888688 0.08906537 0.08928689 0.0895734
 0.0899166 0.09026203 0.09057146 0.09085256 0.09112802 0.09140527 0.09168321 0.09197533 0.09231637 0.09273335
 0.09319446 0.09360069 0.09386149 0.09398527 0.09408077 0.09427088 0.0946048 0.09502213 0.09538478 0.09558255
 0.09564345 0.09571439 0.09590363 0.09617345 0.09642468 0.09665056 0.096945 0.09736452 0.09783772 0.09823185
 0.09848289 0.09864272 0.09880805 0.09901532 0.09921139 0.09933043 0.09938423 0.09945009 0.09957723 0.0997518
 0.09996434 0.1002551 0.1006508 0.1010939 0.1014821 0.1017635 0.1019567 0.1021003 0.1022156 0.1023045
 0.1023561 0.1023694 0.102382 0.102446 0.1025584 0.1026533 0.1026867 0.1026962 0.1027515 0.1028833
 0.1030877 0.1033623 0.1036896 0.1040131 0.1042873 0.1045471 0.1048697 0.1052517 0.1055787 0.1057505
 0.1057938 0.1058083 0.1058415 0.1058778 0.1059298 0.1060636 0.1063185 0.1066561 0.1070097 0.1073523
 0.1076938 0.1080342 0.1083398 0.1085612 0.1086685 0.1086776 0.108648 0.108659 0.1087751 0.1090132
 0.1093304 0.1096526 0.1099239 0.1101207 0.1102242 0.1102184 0.1101422 0.1101058 0.1102025 0.1104014
 0.1105603 0.1105503 0.1103408 0.1099669 0.109459 0.108834 0.1081377 0.1074591 0.1068924 0.1064918
 0.1062722 0.1062509 0.106465 0.1069259 0.1075662 0.1082607 0.1089003 0.1094151 0.1097265 0.1097366
 0.1094014 0.1087917 0.1080509 0.1073082 0.1066346 0.1060392 0.1054788 0.1049082 0.1043681 0.1040181
 0.1040585 0.1046117 0.1056636 0.1070754 0.1086301 0.110101 0.1113378 0.1123185 0.1131204 0.113835
 0.1145114 0.1151702 0.1158348 0.1165124 0.1171622 0.1177257 0.1181927 0.1186077 0.1190106 0.1193989
 0.119746 0.1200306 0.1202559 0.1204555 0.1206626 0.120856 0.1209647 0.120948 0.1208446 0.1207205
 0.1205936 0.1204263 0.1201698 0.1198016 0.1193566 0.1189523 0.1187737 0.1189952 0.1196799 0.1207413
 0.1220074 0.1233285 0.1246141 0.1257827 0.1267338 0.1274068 0.1278412 0.1281432 0.128406 0.1286766
 0.1289715 0.1292898 0.1296148 0.1299267 0.1302184 0.1305022 0.1308028 0.131136 0.1314835 0.1317991
 0.1320553 0.1322828 0.1325505 0.1328999 0.1332986 0.1336702 0.133977 0.1342571 0.1345619 0.1348753
 0.1351333 0.1353157 0.1354774 0.1356885 0.1359776 0.1363316 0.136706 0.1370361 0.1372752 0.1374383
 0.1375877 0.1377725 0.137998 0.1382479 0.1385109 0.1387796 0.1390455 0.1393093 0.1395891 0.1398973
 0.1402056 0.1404543 0.1406139 0.1407259 0.1408657 0.1410696 0.1413094 0.1415357 0.1417336 0.1419374
 0.1421945 0.1425118 0.1428363 0.1430978 0.1432708 0.1433913 0.1435157 0.1436753 0.1438679 0.144078
 0.1442927 0.1445055 0.1447165 0.1449319 0.1451561 0.1453822 0.1455964 0.1457924 0.1459769 0.1461625
 0.1463557 0.1465555 0.1467635 0.1469944 0.1472672 0.1475773 0.147883 0.1481335 0.1483111 0.1484395
 0.1485567 0.14869 0.1488478 0.1490243 0.1492092 0.1493971 0.1495901 0.1497925 0.1500046 0.1502212
 0.1504336 0.1506366 0.1508331 0.1510307 0.1512369 0.1514588 0.1516991 0.1519477 0.1521851 0.1523997
 0.1525978 0.1527922 0.152989 0.1531855 0.1533747 0.1535528 0.1537241 0.1538982 0.1540801 0.1542677
 0.1544576 0.1546492 0.154844 0.1550439 0.1552483 0.1554541 0.1556594 0.1558673 0.1560796 0.1562903
 0.1564896 0.1566738 0.1568483 0.1570233 0.1572068 0.1573993 0.157596 0.1577971 0.1580088 0.1582317
 0.1584518 0.1586518 0.15883 0.1590037 0.1591909 0.1593905 0.1595875 0.1597736 0.1599558 0.1601445
 0.1603443 0.1605556 0.1607745 0.1609923 0.1612032 0.1614122 0.1616278 0.1618506 0.1620748 0.1622961
 0.162514 0.1627286 0.1629398 0.1631465 0.1633499 0.1635559 0.1637705 0.1639916 0.1642086 0.1644122
 0.1646018 0.1647846 0.1649663 0.1651441 0.1653121 0.1654739 0.1656418 0.165823 0.166014 0.1662095
 0.1664075 0.1666074 0.1668091 0.1670126 0.1672147 0.1674114 0.1676049 0.1678026 0.1680101 0.1682272
 0.1684475 0.1686611 0.168865 0.1690668 0.1692731 0.1694809 0.1696855 0.1698879 0.1700916 0.1702999
 0.1705142 0.1707301 0.1709412 0.1711493 0.171361 0.1715727 0.1717768 0.1719768 0.172181 0.1723896
 0.1725999 0.1728143 0.1730327 0.1732479 0.1734539 0.1736507 0.1738442 0.1740441 0.1742548 0.1744687
 0.1746782 0.1748879 0.1751055 0.1753321 0.1755661 0.1758028 0.1760314 0.1762477 0.1764605 0.1766748
 0.1768843 0.1770867 0.1772848 0.1774678 0.1775933 0.1775419 0.1770189 0.1754581 0.172019 0.1657548
 0.1559872 0.1427389 0.1268826 0.1098377 0.09304839 0.07760435 0.06413408 0.05289941 0.04394753 0.03720495
 0.03252855 0.02978986 0.0289726 0.03028478 0.03427645 0.04150872 0.05132491 0.06077483 0.06576896 0.06430497
 0.05837864 0.05216532 0.04855276 0.04774573 0.04850819 0.04978153 0.05122816 0.05304206 0.0555603 0.05888218
 0.06284968 0.06745584 0.07304537 0.07987601 0.08759112 0.09536657 0.1026186 0.1094624 0.1164389 0.1238626
 0.13149 0.1387607 0.1452456 0.1508599 0.1557778 0.1602408 0.1644206 0.1683932 0.172183 0.1757726
 0.1790331 0.1816923 0.1834626 0.1842598 0.1843077 0.1840148 0.183737 0.1836419 0.1837509 0.1840421
 0.1844918 0.1850703 0.185745 0.186487 0.1872695 0.1880715 0.1888829 0.1896912 0.1904709 0.191198
 0.1918662 0.1924818 0.1930512 0.1935759 0.1940529 0.1944834 0.1948811 0.1952656 0.1956439 0.1960105
 0.1963609 0.1966926 0.1969986 0.1972721 0.1975151 0.1977372 0.1979489 0.1981576 0.1983649 0.1985705
 0.1987785 0.1989927 0.1992089 0.1994191 0.1996239 0.1998297 0.2000392 0.2002507 0.200461 0.2006641
 0.2008537 0.2010333 0.201214 0.2014032 0.2016007 0.2018039 0.2020084 0.202206 0.2023898 0.2025633
 0.2027404 0.2029346 0.2031446 0.2033541 0.203552 0.2037478 0.2039576 0.2041807 0.2044041 0.2046208
 0.2048296 0.2050274 0.2052159 0.2054053 0.205599 0.2057855 0.2059556 0.20612 0.2063026 0.2065149
 0.2067424 0.2069584 0.2071531 0.2073416 0.2075388 0.2077417 0.2079386 0.2081233 0.2082995 0.2084854
 0.2087062 0.2089643 0.209232 0.2094857 0.2097284 0.2099685 0.2102054 0.2104409 0.2106731 0.2108761
 0.2110208 0.2111261 0.2112663 0.2115125 0.2118637 0.2122422 0.2125659 0.2128192 0.2130418 0.2132725
 0.2135282 0.2137917 0.2139831 0.2140112 0.2139201 0.2139204 0.2141963 0.2147191 0.2153035 0.2157981
 0.2161732 0.2164703 0.2167251 0.2169315 0.2170511 0.217062 0.2170199 0.2170686 0.2173468 0.2178497
 0.218417 0.2188865 0.2192177 0.2194498 0.2196244 0.2197738 0.2198732 0.2197832 0.2194008 0.2189287
 0.2188254 0.2193601 0.2203074 0.2211876 0.2217424 0.2220676 0.2223448 0.2226184 0.2228445 0.2229295
 0.2226259 0.2216766 0.2203174 0.2194092 0.2197252 0.2211715 0.2229384 0.2243075 0.225102 0.2255054
 0.2257494 0.2259587 0.2260572 0.2257785 0.2249642 0.2239525 0.2234928 0.2240595 0.2253236 0.226506
 0.2271726 0.2274654 0.2276897 0.2279654 0.2281463 0.2277754 0.2263439 0.2240463 0.222162 0.2221542
 0.224241 0.2271394 0.2293382 0.2303919 0.2307994 0.2308978 0.2303564 0.2287712 0.226283 0.2235089
 0.221342 0.2208355 0.2225088 0.2254677 0.2279089 0.2289034 0.2291847 0.2299459 0.2314175 0.2328862
 0.2336207 0.2334327 0.2325427 0.2311795 0.2294735 0.2278386 0.2271951 0.2283192 0.2309071 0.233681
 0.2355666 0.2365096 0.2369338 0.236493 0.2338011 0.2280975 0.2213509 0.2177265 0.219909 0.2262988
 0.2327349 0.236587 0.2382023 0.2389612 0.2394152 0.2391314 0.2369501 0.2316228 0.2237873 0.2172134
 0.2162566 0.2215506 0.2292883 0.2347708 0.2356029 0.2319548 0.2257337 0.2200139 0.2177688 0.2200655
 0.2256078 0.2320169 0.237257 0.2401871 0.2405384 0.2388081 0.23624 0.234529 0.2345847 0.2351866
 0.2339142 0.2302007 0.2262673 0.2238648 0.221577 0.2174554 0.2133016 0.213484 0.2192531 0.2266395
 0.2309115 0.2313734 0.2305086 0.2294593 0.2260706 0.2179879 0.2071071 0.1996672 0.2007997 0.2092032
 0.218305 0.2226999 0.22245 0.2211606 0.2211692 0.2211578 0.2180045 0.2108574 0.2032186 0.2000093
 0.2023379 0.2065092 0.2084015 0.2067534 0.2017348 0.1936304 0.1852013 0.1825388 0.1899388 0.2046538
 0.2190353 0.2268251 0.2254536 0.2146939 0.1975628 0.1821583 0.1777184 0.1863466 0.2004493 0.2097143
 0.2092931 0.2006747 0.1872834 0.1721353 0.159235 0.1540255 0.1601438 0.175731 0.1934239 0.2039889
 0.2014278 0.1876737 0.1730677 0.1689275 0.1772155 0.1891411 0.1949903 0.1929432 0.187731 0.1845642
 0.1861213 0.1920278 0.1992525 0.2049682 0.2088059 0.2096532 0.2026244 0.1849354 0.1636724 0.1511173
 0.151997 0.1610789 0.1729952 0.1870567 0.2008316 0.2068418 0.2009943 0.1903264 0.1870048 0.1954064
 0.2083748 0.2159741 0.2153242 0.2111218 0.2084054 0.2071959 0.2049993 0.2026062 0.2043129 0.2119927
 0.2218357 0.2286065 0.2310917 0.2316397 0.2321685 0.2327048 0.2327261 0.232037 0.2306989 0.2291677
 0.2281522 0.2278133 0.2276129 0.2271273 0.2260286 0.2228529 0.2153158 0.2035287 0.1920403 0.1862283
 0.186597 0.1891611 0.1913727 0.1935996 0.1935927 0.1849362 0.1655167 0.14447 0.1355303 0.1437596
 0.1617785 0.1781822 0.1862802 0.1846762 0.1738632 0.1564244 0.1397443 0.1336885 0.1425557 0.1609546
 0.1795646 0.1931587 0.2011811 0.2032946 0.1984072 0.1878426 0.176602 0.1705062 0.1726658 0.1821181
 0.1941287 0.201395 0.1976353 0.1838469 0.1710427 0.1721031 0.1882515 0.2069967 0.2161737 0.2162547
 0.2153639 0.2166544 0.2167716 0.2147434 0.2155138 0.223169 0.2349324 0.2439108 0.2451525 0.2375889
 0.2233752 0.2083878 0.2007025 0.2040853 0.2136418 0.2210839 0.2227172 0.2189572 0.209458 0.1951671
 0.1834888 0.1838274 0.1967013 0.2125242 0.2224956 0.2266136 0.2296789 0.2330301 0.2329211 0.2261988
 0.2155712 0.2079398 0.2075777 0.2123993 0.2175075 0.2203612 0.2208005 0.2181202 0.2115115 0.2034004
 0.1994757 0.2037449 0.2143649 0.2253341 0.231833 0.2332332 0.2317089 0.2294099 0.2270103 0.2238647
 0.2194435 0.2152093 0.2143385 0.2183322 0.2246394 0.2292857 0.2314246 0.2336148 0.2377876 0.2425827
 0.2450069 0.2437019 0.2402374 0.2377434 0.238399 0.2417034 0.2448491 0.2451157 0.2424542 0.2397738
 0.240264 0.2443568 0.2496695 0.2537165 0.2559302 0.2571495 0.2581709 0.2590524 0.2590637 0.2572361
 0.2537387 0.2506898 0.2506556 0.2541019 0.25895 0.2627289 0.2645774 0.2650987 0.2649878 0.2643034
 0.2628787 0.2609928 0.259394 0.2587061 0.2589781 0.2598298 0.2608489 0.2617717 0.2624656 0.2629188
 0.2632082 0.2634041 0.263534 0.2636307 0.2637207 0.2637529 0.2636501 0.2634724 0.2634262 0.2636379
 0.2639919 0.2642556 0.264293 0.2640698 0.2635258 0.2625884 0.2613106 0.2598639 0.2583472 0.256715
 0.2550054 0.2536017 0.2531285 0.253984 0.2559726 0.2584199 0.2606351 0.2622585 0.2632672 0.2637985
 0.2640194 0.2640754 0.2640569 0.2639841 0.263836 0.2636003 0.2632942 0.2629481 0.2625854 0.2622235
 0.2618857 0.2615919 0.2613312 0.2610564 0.260714 0.2602794 0.2597656 0.25921 0.2586484 0.2580856
 0.2574825 0.256781 0.25595 0.2550161 0.2540575 0.2531586 0.2523511 0.2515938 0.2508212 0.2499979
 0.2491055 0.2481048 0.246971 0.2457763 0.2446789 0.2437952 0.2431035 0.2424887 0.2418436 0.2411057
 0.2402466 0.2392761 0.2382427 0.237191 0.2361225 0.2350094 0.2338302 0.2325724 0.2312231 0.2297773
 0.2282479 0.2266596 0.2250417 0.2234156 0.2217657 0.2200144 0.2180376 0.2157051 0.2129069 0.209562
 0.2056384 0.2011866 0.1963566 0.191368 0.1864423 0.1817508 0.1774173 0.173544 0.1702165 0.1674939
 0.1654142 0.1640051 0.1632852 0.1632615 0.1639307 0.1652697 0.1672133 0.1696461 0.1724209 0.1753818
 0.1783693 0.1812237 0.1838291 0.1861757 0.1883555 0.1904581 0.1924767 0.1943361 0.1959853 0.1974244
 0.1986597 0.1996838 0.200508 0.2011793 0.2017525 0.2022561 0.2026947 0.2030723 0.2034022 0.2036908
 0.20393 0.2041149 0.2042664 0.2044242 0.2046184 0.2048518 0.2051137 0.2054095 0.2057717 0.2062263
 0.2067529 0.2072996 0.2078392 0.2083916 0.208988 0.2096405 0.2103567 0.2111675 0.2121202 0.213242
 0.2145142 0.2158837 0.2172864 0.2186491 0.2198827 0.2209024 0.2216633 0.2221672 0.2224399 0.2225152
 0.2224335 0.2222343 0.2219467 0.2215878 0.2211641 0.220673 0.2201117 0.2194863 0.2188087 0.2180912
 0.2173507 0.2166149 0.2159122 0.2152519 0.2146176 0.2139851 0.213348 0.2127187 0.2121075 0.21151
 0.2109193 0.2103374 0.2097669 0.2092007 0.2086243 0.2080206 0.2073678 0.2066435 0.2058355 0.2049423
 0.2039576 0.2028648 0.2016547 0.2003424 0.1989555 0.197511 0.1960095 0.1944459 0.1928151 0.1911074
 0.189306 0.187398 0.1853954 0.1833512 0.1813459 0.1794538 0.1777156 0.1761322 0.1746728 0.1732966
 0.1719747 0.1706943 0.1694507 0.1682478 0.1671007 0.1660211 0.1650065 0.164053 0.1631701 0.1623704
 0.1616549 0.1610167 0.1604546 0.1599752 0.1595815 0.1592642 0.159017 0.1588586 0.1588129 0.158856
 0.1589098 0.1589044 0.1588244 0.1586967 0.1585598 0.158446 0.1583687 0.1583185 0.1582759 0.1582129
 0.1580786 0.1577945 0.1572669 0.156411 0.15519 0.1536456 0.1518828 0.1500319 0.1482265 0.14658
 0.1451591 0.1439909 0.143086 0.1424188 0.1419105 0.1414852 0.1411419 0.1409469 0.1409635 0.1411772
 0.1414614 0.1416445 0.1416636 0.1416349 0.1417494 0.1421249 0.1427514 0.1435145 0.1442673 0.1449181
 0.1454478 0.145847 0.1460977 0.1462207 0.1462668 0.1462538 0.1461625 0.1459821 0.1457235 0.1454103
 0.1450668 0.1446849 0.1442182 0.1436389 0.1429614 0.1422016 0.1413653 0.1404614 0.1394633 0.1383156
 0.137067 0.1359474 0.1352397 0.1351065 0.1355302 0.1363401 0.1373177 0.1383406 0.1393575 0.1401971
 0.1406036 0.1406203 0.1407998 0.1418107 0.143802 0.1462408 0.1483833 0.149817 0.1505249 0.150611
 0.1501507 0.1492095 0.1477964 0.145844 0.1433567 0.1404825 0.1373834 0.1341988 0.1311424 0.1284376
 0.1261747 0.1243476 0.1229345 0.1219628 0.1215615 0.1213661 0.1194786 0.1134604 0.1041155 0.09716544
 0.09841648 0.1072164 0.1169269 0.1219302 0.1220825 0.1203813 0.1188898 0.1179141 0.1173476 0.1173475
 0.1180612 0.1193513 0.1208206 0.1220479 0.1228439 0.1232332 0.1231796 0.122336 0.1199684 0.1152175
 0.1078033 0.09862022 0.08942126 0.08179258 0.07644546 0.07325447 0.07161568 0.07078995 0.07025238 0.06993955
 0.07015449 0.07120015 0.07312276 0.07577371 0.07896602 0.08244336 0.08579561 0.08862839 0.09084803 0.09263317
 0.09411031 0.09519036 0.09573375 0.09574451 0.09536287 0.09475288 0.09403567 0.09326531 0.09240112 0.09133882
 0.09007115 0.08882762 0.08794232 0.08754277 0.08746053 0.08746025 0.08744077 0.08740412 0.08736107 0.08731329
 0.087267 0.08725575 0.08736052 0.08765271 0.08809513 0.08854782 0.08888103 0.08906104 0.08914056 0.08915111
 0.08898062 0.08845884 0.08765061 0.08689371 0.08635916 0.08574487 0.08467588 0.08330885 0.08225942 0.08194425
 0.08220451 0.08257159 0.08270663 0.08255488 0.08227992 0.08217244 0.08247312 0.0830998 0.08361723 0.08363785
</values></Ydata></ScRf><Data_Parameters_AB><parameter name="DPF">1</parameter><parameter name="NPT">3497</parameter><parameter name="FXV">3996</parameter><parameter name="LXV">500</parameter><parameter name="CSF">1</parameter><parameter name="MXY">0.155810207128525</parameter><parameter name="MNY">-0.0647972524166107</parameter><parameter name="DAT">31/05/2022</parameter><parameter name="TIM">14:38:51.078 (GMT+2)</parameter><parameter name="DXU">WN</parameter></Data_Parameters_AB><AB__Qtest><MainReport name="Quality Test Report"><Header><Line><Legend>Test result ok/not ok [1/0]: </Legend><Value>0</Value></Line><Line><Legend>Method file: </Legend><Value>C:\Users\Public\Documents\Bruker\OPUS_8.2.28\QT\IRBT_v3_default.QT</Value></Line></Header><Matrix><Line><Legend></Legend><Legend>min</Legend><Legend>max</Legend><Legend>measured</Legend></Line><Line><Value>Absorption (X-Range 1):</Value><Value>0.400000</Value><Value>2.000000</Value><Value>0.219984</Value></Line><Line><Value>Noise (X-Range 4):</Value><Value></Value><Value>0.000300</Value><Value>0.000043</Value></Line><Line><Value>Signal/Noise (X-Range 2):</Value><Value>200.000000</Value><Value></Value><Value>142.991890</Value></Line><Line><Value>Signal/Noise (X-Range 3):</Value><Value>40.000000</Value><Value></Value><Value>48.089614</Value></Line><Line><Value>Water vapour (X-Range 5):</Value><Value></Value><Value>0.000300</Value><Value>0.000112</Value></Line><Line><Value>Signal/Water (X-Range 2):</Value><Value>100.000000</Value><Value></Value><Value>55.432287</Value></Line><Line><Value>Signal/Water (X-Range 3):</Value><Value>20.000000</Value><Value></Value><Value>18.642437</Value></Line><Line><Value>Fringes (X-Range 6):</Value><Value></Value><Value>0.000100</Value><Value>0.000062</Value></Line></Matrix></MainReport></AB__Qtest><Data_Parameters_ScSm><parameter name="DPF">1</parameter><parameter name="NPT">1814</parameter><parameter name="FXV">3996.33169228125</parameter><parameter name="LXV">499.541461535156</parameter><parameter name="CSF">1</parameter><parameter name="MXY">0.276007860898972</parameter><parameter name="MNY">0.0336339995265007</parameter><parameter name="DAT">31/05/2022</parameter><parameter name="TIM">14:38:51.078 (GMT+2)</parameter><parameter name="DXU">WN</parameter></Data_Parameters_ScSm><Data_Parameters_ScRf><parameter name="DPF">1</parameter><parameter name="NPT">1820</parameter><parameter name="FXV">4004.04661832813</parameter><parameter name="LXV">495.683998511719</parameter><parameter name="CSF">1</parameter><parameter name="MXY">0.265098661184311</parameter><parameter name="MNY">0.0289725996553898</parameter><parameter name="DAT">31/05/2022</parameter><parameter name="TIM">14:38:23.859 (GMT+2)</parameter><parameter name="DXU">WN</parameter></Data_Parameters_ScRf><Optic_Parameters_Rf><parameter name="APR">0</parameter><parameter name="APT">Open</parameter><parameter name="BMS">KBr</parameter><parameter name="DTC">RT-DLaTGS_IR-Biotyper [Microplate reader]</parameter><parameter name="HPF">0</parameter><parameter name="LPF">10.0</parameter><parameter name="LPV">4000</parameter><parameter name="PGR">0</parameter><parameter name="RCH">Module port</parameter><parameter name="RDX">0</parameter><parameter name="SRC">MIR</parameter><parameter name="VEL">10.0</parameter><parameter name="SON">Off</parameter></Optic_Parameters_Rf><Acquisition_Parameters_Rf><parameter name="ADT">1</parameter><parameter name="AQM">DD</parameter><parameter name="CFE">0</parameter><parameter name="COR">0</parameter><parameter name="DEL">0</parameter><parameter name="DLY">0</parameter><parameter name="HFW">8000</parameter><parameter name="LFW">0</parameter><parameter name="NSR">32</parameter><parameter name="PLF">AB</parameter><parameter name="RES">6</parameter><parameter name="RGN">-1</parameter><parameter name="STR">0</parameter><parameter name="TCL">MakeCompatibleScalar (0, {WSV=1.000000, ARV=0});</parameter><parameter name="TDL">37</parameter><parameter name="RPO">0</parameter></Acquisition_Parameters_Rf><FT_-_Parameters_Rf><parameter name="APF">B3</parameter><parameter name="HFQ">500</parameter><parameter name="LFQ">4000</parameter><parameter name="NLI">0</parameter><parameter name="PHR">24</parameter><parameter name="PHZ">ML</parameter><parameter name="SPZ">NO</parameter><parameter name="ZFF">1</parameter></FT_-_Parameters_Rf><Optic_Parameters_><parameter name="APR">0</parameter><parameter name="APT">Open</parameter><parameter name="BMS">KBr</parameter><parameter name="CHN">Module port</parameter><parameter name="DTC">RT-DLaTGS_IR-Biotyper [Microplate reader]</parameter><parameter name="HPF">0</parameter><parameter name="LPF">10.0</parameter><parameter name="LPV">4000</parameter><parameter name="PGN">0</parameter><parameter name="RDX">0</parameter><parameter name="SRC">MIR</parameter><parameter name="VEL">10.0</parameter><parameter name="SON">Off</parameter></Optic_Parameters_><FT_-_Parameters_><parameter name="APF">B3</parameter><parameter name="HFQ">500</parameter><parameter name="LFQ">4000</parameter><parameter name="NLI">0</parameter><parameter name="PHR">24</parameter><parameter name="PHZ">ML</parameter><parameter name="SPZ">NO</parameter><parameter name="ZFF">1</parameter></FT_-_Parameters_><Acquisition_Parameters_><parameter name="ADT">1</parameter><parameter name="AQM">DD</parameter><parameter name="CFE">0</parameter><parameter name="COR">0</parameter><parameter name="DEL">0</parameter><parameter name="DLY">0</parameter><parameter name="HFW">8000</parameter><parameter name="LFW">0</parameter><parameter name="NSS">32</parameter><parameter name="PLF">AB</parameter><parameter name="RES">6</parameter><parameter name="SOT">0</parameter><parameter name="TCL">MakeCompatibleScalar (0, {WSV=1.000000, ARV=0});</parameter><parameter name="TDL">37</parameter><parameter name="SPO">0</parameter><parameter name="SGN">-1</parameter></Acquisition_Parameters_><Instrument_Parameters_Rf><parameter name="HFL">15800.168544</parameter><parameter name="LFL">0</parameter><parameter name="LWN">15800.168544</parameter><parameter name="ABP">32197</parameter><parameter name="SSP">1</parameter><parameter name="ARG">2</parameter><parameter name="ASG">2</parameter><parameter name="ASS">32</parameter><parameter name="GFW">16</parameter><parameter name="GBW">16</parameter><parameter name="BFW">0</parameter><parameter name="BBW">0</parameter><parameter name="PKA">7264</parameter><parameter name="PKL">4996</parameter><parameter name="PRA">7450</parameter><parameter name="PRL">5001</parameter><parameter name="P2A">1</parameter><parameter name="P2L">1</parameter><parameter name="P2R">1</parameter><parameter name="P2K">1</parameter><parameter name="DAQ">0</parameter><parameter name="AG2">1</parameter><parameter name="SSM">1</parameter><parameter name="RSN">25821</parameter><parameter name="CRR">0</parameter><parameter name="SRT">1654007903.86</parameter><parameter name="DUR">19.6389923095703</parameter><parameter name="TSC">29.1</parameter><parameter name="MVD">0.204235777258873</parameter><parameter name="AN1">0.22580837090234</parameter><parameter name="AN2">0</parameter><parameter name="VSN">2.485 Apr  4 2017</parameter><parameter name="SRN">0085</parameter><parameter name="CAM">0</parameter><parameter name="INS">IR-Biotyper</parameter><parameter name="FOC">69</parameter><parameter name="RDY">1</parameter><parameter name="ARS">32</parameter></Instrument_Parameters_Rf><Sample_Parameters_><parameter name="BLD"></parameter><parameter name="CNM">Admin</parameter><parameter name="CPY"></parameter><parameter name="DPM"></parameter><parameter name="EXP">IRBT_v3_32Scans.XPM</parameter><parameter name="LCT"></parameter><parameter name="SFM">Microplate, HTS-XT</parameter><parameter name="SNM">220531-1301_JMJ44M (D_1)_B12_6b62db90-d8f2-4d52-aedd-64128d8697bf.0</parameter><parameter name="XPP">C:\Users\Public\Documents\Bruker\OPUS_8.2.28\XPM</parameter><parameter name="IST">OK</parameter><parameter name="CPG">1252</parameter><parameter name="UID">684b2439-0292-4a36-8c6d-228081b08b6c</parameter></Sample_Parameters_><Instrument_Parameters_><parameter name="HFL">15800.168544</parameter><parameter name="LFL">0</parameter><parameter name="LWN">15800.168544</parameter><parameter name="ABP">32197</parameter><parameter name="SSP">1</parameter><parameter name="ASG">2</parameter><parameter name="ARG">2</parameter><parameter name="ASS">32</parameter><parameter name="GFW">16</parameter><parameter name="GBW">16</parameter><parameter name="BFW">0</parameter><parameter name="BBW">0</parameter><parameter name="PKA">7233</parameter><parameter name="PKL">4988</parameter><parameter name="PRA">7493</parameter><parameter name="PRL">4993</parameter><parameter name="P2A">1</parameter><parameter name="P2L">1</parameter><parameter name="P2R">1</parameter><parameter name="P2K">1</parameter><parameter name="DAQ">0</parameter><parameter name="AG2">1</parameter><parameter name="SSM">1</parameter><parameter name="RSN">13536</parameter><parameter name="CRR">0</parameter><parameter name="SRT">1654007931.078</parameter><parameter name="DUR">19.6379852294922</parameter><parameter name="TSC">29.2</parameter><parameter name="MVD">0.226728856563568</parameter><parameter name="AN1">0.22580374915842</parameter><parameter name="AN2">0</parameter><parameter name="VSN">2.485 Apr  4 2017</parameter><parameter name="SRN">0085</parameter><parameter name="CAM">0</parameter><parameter name="INS">IR-Biotyper</parameter><parameter name="FOC">69</parameter><parameter name="RDY">1</parameter></Instrument_Parameters_><History/></OPUSDataFile>
