<?xml version="1.0" encoding="UTF-8" ?>
<OPUSDataFile><AB><Ydata ylabel="Absorbance Units"><values byteorder="INTEL" format="FLOAT32" numvalues="3497"> -0.08137474 -0.08141211 -0.08144899 -0.08148637 -0.08150923 -0.08151684 -0.08150481 -0.0814739 -0.08143196 -0.08138108
 -0.08133783 -0.08130289 -0.08128846 -0.08129142 -0.08131087 -0.08134294 -0.08138041 -0.08142274 -0.08146713 -0.08151209
 -0.08155761 -0.08159584 -0.08162328 -0.08163215 -0.08161724 -0.08158171 -0.08152334 -0.08145754 -0.08138542 -0.08132591
 -0.08128099 -0.08126261 -0.08127151 -0.08130412 -0.0813592 -0.08141981 -0.08148474 -0.08153774 -0.08157979 -0.08160546
 -0.08161672 -0.08161502 -0.08160288 -0.08158387 -0.0815628 -0.08154599 -0.08153792 -0.08154581 -0.0815662 -0.08160152
 -0.08163914 -0.08167579 -0.08169889 -0.08170355 -0.08168915 -0.08165302 -0.08161148 -0.08156517 -0.08153642 -0.08152651
 -0.0815449 -0.08159049 -0.08165081 -0.08172347 -0.08178731 -0.08184256 -0.08187854 -0.08189752 -0.08189922 -0.08188652
 -0.081862 -0.08183327 -0.08180863 -0.08179748 -0.08181306 -0.0818499 -0.08191401 -0.08197831 -0.08203492 -0.08206078
 -0.08204465 -0.08199666 -0.08191364 -0.08183133 -0.08175231 -0.08171089 -0.08170918 -0.08176411 -0.08187457 -0.08203194
 -0.08222967 -0.08242559 -0.08261034 -0.082723 -0.08276863 -0.08272237 -0.08260958 -0.08246068 -0.08229685 -0.08215713
 -0.08204397 -0.08197491 -0.08193677 -0.08192925 -0.08193222 -0.08193697 -0.08193532 -0.08192053 -0.08190715 -0.08189581
 -0.08190503 -0.08193805 -0.08198851 -0.08205631 -0.08211425 -0.08216217 -0.08219127 -0.08220566 -0.08222819 -0.08225982
 -0.08231998 -0.08239833 -0.08248061 -0.0825545 -0.08258706 -0.08258808 -0.08255065 -0.08250278 -0.08246914 -0.08245436
 -0.08247421 -0.08250208 -0.08253017 -0.08254325 -0.08253023 -0.08251582 -0.08249981 -0.08252411 -0.08259461 -0.08272135
 -0.08290594 -0.08306362 -0.08318831 -0.08316156 -0.08299897 -0.08274107 -0.08241079 -0.08212076 -0.08186907 -0.08170818
 -0.08162473 -0.081623 -0.08168146 -0.08178067 -0.08189216 -0.08198613 -0.08204633 -0.08204939 -0.08201341 -0.08193629
 -0.08185185 -0.08177089 -0.08170206 -0.08165016 -0.0816035 -0.0815606 -0.08152198 -0.08148742 -0.08147603 -0.08148851
 -0.08154019 -0.08162841 -0.08174562 -0.08188471 -0.08201567 -0.08213149 -0.08219765 -0.08221632 -0.08217166 -0.08207916
 -0.08194877 -0.08180013 -0.08165272 -0.08151845 -0.08140949 -0.08132999 -0.08128419 -0.08127304 -0.08129876 -0.08135488
 -0.08144287 -0.081541 -0.08164836 -0.08173402 -0.08179609 -0.08181205 -0.08178187 -0.08170331 -0.08157867 -0.08142094
 -0.08123375 -0.0810363 -0.08083407 -0.0806499 -0.08048844 -0.08037022 -0.08029094 -0.08025733 -0.08025253 -0.08026635
 -0.08028096 -0.0802803 -0.08026599 -0.08023182 -0.0801966 -0.08016448 -0.0801476 -0.08015022 -0.08016736 -0.0801993
 -0.08023722 -0.08028064 -0.08032262 -0.08036242 -0.08038737 -0.08039655 -0.08037551 -0.08032759 -0.08025587 -0.08016913
 -0.08009139 -0.08002853 -0.0800044 -0.08001351 -0.08006198 -0.08013316 -0.08021434 -0.08029597 -0.08036404 -0.08043339
 -0.08050581 -0.08059828 -0.0807213 -0.08085493 -0.08100115 -0.08111408 -0.08118821 -0.08120271 -0.08115589 -0.08103893
 -0.08085142 -0.0805802 -0.08023211 -0.07984471 -0.0794322 -0.07907266 -0.07877065 -0.07858206 -0.07849287 -0.0785129
 -0.07860277 -0.07871961 -0.07882906 -0.07887708 -0.07888059 -0.07883034 -0.07876169 -0.07869007 -0.0786254 -0.07857741
 -0.07852634 -0.07847117 -0.07838798 -0.07827248 -0.07812756 -0.07795268 -0.0777747 -0.07759511 -0.07744199 -0.07731539
 -0.07723221 -0.07718638 -0.07716756 -0.07715951 -0.077112 -0.07701997 -0.07684187 -0.07660525 -0.07632732 -0.07603373
 -0.07575709 -0.07549684 -0.07526467 -0.07504404 -0.07483166 -0.07461122 -0.07437603 -0.07412466 -0.07385429 -0.07357751
 -0.07329569 -0.07301592 -0.07273921 -0.07244834 -0.07214203 -0.07179278 -0.07140343 -0.07098033 -0.07052984 -0.07008308
 -0.06963992 -0.06921513 -0.06880728 -0.06842103 -0.06805361 -0.06770899 -0.06736782 -0.06701964 -0.06663357 -0.06618354
 -0.06566814 -0.06507703 -0.06443106 -0.06373829 -0.06299105 -0.06218856 -0.06132654 -0.06040124 -0.0594484 -0.05846998
 -0.05750019 -0.05653979 -0.05559879 -0.05467702 -0.05377947 -0.05290438 -0.05204936 -0.05120828 -0.05036186 -0.0495096
 -0.0486408 -0.04775961 -0.04687549 -0.04596623 -0.04502261 -0.04400373 -0.04286712 -0.04164347 -0.04032244 -0.03899082
 -0.03767947 -0.03640213 -0.03517078 -0.03395168 -0.03274116 -0.03152627 -0.03030545 -0.02908992 -0.02788059 -0.02669739
 -0.02553916 -0.02441341 -0.02330574 -0.02216556 -0.02096728 -0.01959801 -0.01808469 -0.01640058 -0.01464347 -0.01294503
 -0.01132807 -0.00988096 -0.008527173 -0.007246424 -0.005968874 -0.004651478 -0.003290883 -0.001870387 -0.000437423 0.001000109
 0.002416481 0.003803474 0.005194888 0.006591688 0.008053067 0.009579835 0.01118034 0.01284571 0.01450864 0.01616551
 0.01776061 0.01930704 0.02081382 0.02229048 0.02376129 0.02522477 0.02668657 0.02815021 0.02962071 0.03110048
 0.03259589 0.03409481 0.03558924 0.03708832 0.03858609 0.04012888 0.04172857 0.04339181 0.04512785 0.0468563
 0.04857218 0.05021366 0.05178101 0.05330376 0.05478698 0.05628531 0.057797 0.05934549 0.06092121 0.06251168
 0.06410418 0.06566507 0.06719694 0.06867968 0.07014822 0.07162405 0.07314515 0.07475399 0.0764268 0.07817439
 0.07992563 0.08165673 0.0833456 0.08497961 0.08658338 0.08815888 0.08972038 0.09126915 0.09280954 0.09434193
 0.0958747 0.09740797 0.09894586 0.1004888 0.1020393 0.1036001 0.1051816 0.1067821 0.1084058 0.1100435
 0.1116844 0.1133228 0.1149484 0.1165631 0.1181654 0.1197576 0.1213404 0.1229159 0.1244852 0.1260473
 0.127603 0.1291452 0.1306724 0.1321884 0.133693 0.1352062 0.1367284 0.1382624 0.1398058 0.1413372
 0.1428595 0.144373 0.1458843 0.1474186 0.1489672 0.1505281 0.1520838 0.1536039 0.1550936 0.156541
 0.1579718 0.1594011 0.1608399 0.1623025 0.1637698 0.165243 0.1666862 0.168092 0.1694389 0.1707195
 0.1719616 0.1731651 0.1743929 0.1756469 0.1769534 0.178307 0.1796744 0.1810523 0.182408 0.1837454
 0.1850608 0.1863529 0.1876171 0.1888513 0.1900465 0.1912147 0.1923641 0.1935051 0.1946505 0.1957933
 0.1969316 0.1980662 0.1991933 0.2003331 0.2014909 0.2026687 0.2038703 0.2050658 0.2062535 0.2074011
 0.2085074 0.2095557 0.2105477 0.2114894 0.2123881 0.2132801 0.2141714 0.2151024 0.216064 0.2170593
 0.2180725 0.2190799 0.2200802 0.2210623 0.2220338 0.2229989 0.2239551 0.2249034 0.2258361 0.2267502
 0.2276438 0.2285157 0.2293676 0.2301991 0.2310188 0.2318272 0.2326388 0.2334539 0.2342721 0.2350917
 0.2358961 0.2366857 0.2374526 0.2381985 0.2389251 0.2396317 0.2403151 0.240981 0.2416333 0.2422855
 0.242956 0.2436428 0.2443549 0.2450717 0.2457839 0.2464853 0.2471692 0.2478496 0.2485304 0.2492094
 0.2498887 0.2505457 0.2511784 0.2517793 0.2523485 0.2529003 0.253435 0.2539617 0.2544782 0.2549781
 0.2554596 0.2559129 0.2563412 0.2567444 0.2571319 0.2575173 0.2579072 0.2583167 0.2587354 0.2591634
 0.2595817 0.25998 0.2603517 0.2606911 0.2610029 0.2612866 0.2615489 0.2617896 0.2620226 0.262249
 0.2624787 0.2627117 0.2629285 0.263127 0.2632764 0.2633819 0.2634501 0.263493 0.2635524 0.2636307
 0.2637565 0.2639167 0.264106 0.264308 0.2645027 0.2646848 0.2648398 0.2649852 0.2651207 0.2652821
 0.2654828 0.265738 0.2660609 0.2664079 0.2667796 0.2670959 0.2673503 0.2674911 0.267517 0.2674428
 0.2672742 0.267071 0.2668363 0.2666185 0.2664126 0.2662251 0.2660561 0.2659034 0.2657846 0.2657267
 0.2657352 0.2658393 0.265995 0.2661877 0.2663593 0.2664679 0.2665215 0.2665018 0.2664832 0.2664796
 0.266541 0.2666833 0.2668693 0.2671 0.2672831 0.2674143 0.2674238 0.2673159 0.2670991 0.2667899
 0.2664729 0.2661642 0.2659627 0.265864 0.2659145 0.2660827 0.2663488 0.2666678 0.2669875 0.2672752
 0.2674855 0.2676259 0.2676799 0.2676966 0.2676859 0.2676976 0.2677465 0.2678489 0.2680092 0.2682304
 0.2685124 0.2688763 0.2693234 0.2698711 0.2705141 0.2712122 0.2719479 0.2726134 0.2731937 0.2735761
 0.2737773 0.2737631 0.2735936 0.2733358 0.2730569 0.2728595 0.2727548 0.2727987 0.2729246 0.273124
 0.273303 0.2734285 0.2734422 0.2733203 0.2730649 0.2726681 0.2721842 0.2716155 0.2710347 0.2704453
 0.2698923 0.2693748 0.2688972 0.2684577 0.2680485 0.2676714 0.2673302 0.2670229 0.2667545 0.2665045
 0.2662539 0.2659598 0.2655746 0.2650558 0.2643507 0.2634639 0.2623687 0.2611406 0.2597891 0.2584201
 0.2570582 0.2557751 0.2545872 0.2535093 0.252546 0.2516684 0.2508747 0.2501027 0.2493486 0.2485463
 0.2477015 0.2468047 0.245873 0.244962 0.2440742 0.2432527 0.2424652 0.241684 0.2408747 0.2399795
 0.2390142 0.2379577 0.2368803 0.2358062 0.2348067 0.2339168 0.2331519 0.2325326 0.2319948 0.2315396
 0.23105 0.2305162 0.2298483 0.2290422 0.2281097 0.2270592 0.2259902 0.2249101 0.2239149 0.222996
 0.2221795 0.2214456 0.2207639 0.2201173 0.2194661 0.2188032 0.2181053 0.2173748 0.2166049 0.2158048
 0.2149753 0.214132 0.2132782 0.2124341 0.2116049 0.2108034 0.2100342 0.2092871 0.2085625 0.207834
 0.2071002 0.2063446 0.2055679 0.2047736 0.2039631 0.2031447 0.2023187 0.2014892 0.2006576 0.1998294
 0.1990051 0.1981899 0.1973774 0.1965637 0.1957404 0.1948979 0.1940388 0.19316 0.1922723 0.1913802
 0.1904842 0.1895872 0.1886769 0.1877512 0.1868067 0.1858416 0.1848752 0.1839085 0.1829654 0.1820455
 0.1811513 0.1802795 0.1794121 0.178548 0.1776716 0.1767868 0.175894 0.174998 0.174107 0.1732216
 0.172345 0.1714767 0.1706133 0.1697667 0.1689368 0.1681534 0.1674274 0.1667766 0.1662159 0.1657027
 0.1652405 0.1647294 0.1641611 0.1634583 0.1626168 0.1616548 0.16058 0.1594893 0.1583912 0.1573853
 0.1564674 0.1556823 0.1550062 0.1544143 0.1538677 0.1532931 0.1526675 0.1519246 0.1510967 0.1501745
 0.1492326 0.1483106 0.1474465 0.1466743 0.145955 0.1452871 0.144625 0.1439541 0.1433067 0.1426812
 0.1421592 0.141745 0.1414628 0.141305 0.1411868 0.1410931 0.1408903 0.1405777 0.1400738 0.1394066
 0.1385939 0.1376797 0.1367442 0.1358117 0.1349473 0.1341367 0.1333914 0.1326876 0.1320093 0.1313645
 0.13075 0.1301868 0.1296859 0.1292232 0.1288015 0.1283575 0.1278838 0.1273608 0.1267873 0.1262261
 0.1256812 0.1252266 0.1248562 0.1245748 0.1243664 0.1241761 0.1239944 0.1237697 0.1235066 0.1231888
 0.1228272 0.1224304 0.122 0.1215466 0.1210482 0.1205 0.1198691 0.1191357 0.1183088 0.1173739
 0.1164192 0.1154504 0.114583 0.1138322 0.1132292 0.1127768 0.11238 0.1120307 0.111592 0.1110674
 0.1104013 0.1096183 0.1087753 0.1078976 0.1070783 0.1063163 0.1056575 0.1050735 0.104552 0.1040598
 0.1035655 0.1030514 0.1024957 0.101907 0.1012779 0.100644 0.1000109 0.09941629 0.09887131 0.09836633
 0.09790538 0.09742042 0.09690777 0.09631117 0.0956336 0.09490405 0.09413307 0.09340524 0.0927164 0.09210325
 0.09153979 0.0909797 0.09040727 0.08976553 0.08907772 0.08834278 0.08760153 0.08688948 0.08622268 0.08562313
 0.08508097 0.08459596 0.08416381 0.08378173 0.08345736 0.08319309 0.08298365 0.08283087 0.0827013 0.08259328
 0.08245397 0.08228067 0.08202285 0.08168265 0.08124297 0.08071736 0.08014177 0.07953779 0.07897515 0.07846869
 0.07807705 0.07779812 0.07765573 0.07763194 0.07772429 0.07790355 0.07815643 0.07845061 0.07877113 0.07909806
 0.07942102 0.07974439 0.08006433 0.08040962 0.08078075 0.08122519 0.08174559 0.08239492 0.08317418 0.08410966
 0.08519405 0.08639809 0.08770719 0.08905176 0.09042207 0.0917569 0.09306031 0.09430967 0.09551814 0.09669188
 0.09784371 0.09898552 0.1001272 0.1012768 0.1024417 0.1036275 0.1048326 0.1060617 0.1072894 0.1085168
 0.1096917 0.1108103 0.1118148 0.1127013 0.1134322 0.1140066 0.1144086 0.114638 0.1146836 0.1145489
 0.1142327 0.1137575 0.113166 0.1125076 0.1118794 0.1113332 0.1109747 0.1108145 0.1109075 0.1112095
 0.1117162 0.1123687 0.1131408 0.1140051 0.114947 0.1159681 0.117067 0.1182452 0.1195039 0.1208311
 0.1222262 0.1236636 0.125141 0.1266208 0.1281017 0.1295536 0.1309842 0.1324031 0.1338268 0.1353049
 0.1368395 0.1384764 0.1401556 0.1418645 0.1434242 0.144734 0.1454941 0.1455251 0.1445664 0.1424316
 0.1391725 0.134696 0.1294713 0.1235237 0.1175064 0.1114889 0.1059445 0.1009093 0.09650779 0.09273278
 0.08946353 0.08668343 0.08422553 0.08208375 0.08014978 0.07841918 0.07683063 0.07537167 0.07399372 0.07268677
 0.07141563 0.07018868 0.06899732 0.06786451 0.0668011 0.0658238 0.06494374 0.06416082 0.06347807 0.06288769
 0.06238841 0.06197697 0.06165218 0.06142129 0.06128461 0.06125458 0.06133022 0.0614996 0.06175277 0.06201975
 0.06228272 0.06243103 0.06246015 0.06229241 0.06195664 0.0614588 0.06085264 0.06020254 0.05955945 0.05898737
 0.05851726 0.0581845 0.05800156 0.05797937 0.05812862 0.05844814 0.0589756 0.05971316 0.06072309 0.06201911
 0.0635778 0.06540415 0.06720667 0.06895422 0.07006951 0.07052178 0.06977814 0.06790756 0.06485153 0.06080362
 0.05621868 0.05129064 0.04659346 0.04217818 0.03836595 0.03505412 0.03227376 0.02988087 0.02779425 0.02593148
 0.02423625 0.02268833 0.02127296 0.01998117 0.01881086 0.01774685 0.01678766 0.01591903 0.01514015 0.01443269
 0.01379513 0.01319994 0.01264536 0.01210514 0.01157947 0.01105387 0.01053215 0.01001515 0.009510777 0.009034102
 0.008589565 0.008193874 0.007833158 0.007506419 0.007183777 0.006845274 0.006477542 0.006062306 0.005629986 0.005180216
 0.00476646 0.004400533 0.004104188 0.003885343 0.003707037 0.003568079 0.003405892 0.003218794 0.002978174 0.002689045
 0.002375585 0.002042123 0.001723153 0.00141091 0.001103891 0.0007889545 0.0004370837 5.102723E-05 -0.0003840905 -0.0008426288
 -0.001310347 -0.001756637 -0.002157763 -0.002499728 -0.002767239 -0.002972194 -0.003109938 -0.003218168 -0.003299859 -0.003405113
 -0.003540581 -0.003734532 -0.003990251 -0.004289479 -0.004630071 -0.004966099 -0.005296538 -0.005591294 -0.005854367 -0.006086417
 -0.006291891 -0.006483516 -0.006662649 -0.006837093 -0.007008266 -0.007181267 -0.007356239 -0.007537534 -0.007716453 -0.007891003
 -0.008046729 -0.008174906 -0.008275458 -0.00834198 -0.008401156 -0.008455121 -0.008537266 -0.008653203 -0.008809212 -0.009006863
 -0.009220694 -0.009449302 -0.009664629 -0.009867896 -0.0100551 -0.01023007 -0.01040757 -0.01058892 -0.01078697 -0.01099697
 -0.01121797 -0.01143984 -0.01164954 -0.01183817 -0.01199001 -0.01211082 -0.01219374 -0.01226702 -0.01233821 -0.01243966
 -0.01258502 -0.01277946 -0.01303021 -0.01330839 -0.01361252 -0.01390774 -0.01419117 -0.01444961 -0.01468319 -0.01490096
 -0.01510426 -0.01530774 -0.01551135 -0.01572308 -0.01594096 -0.0161641 -0.01638967 -0.0166117 -0.01682879 -0.01703598
 -0.01723476 -0.01742489 -0.01760758 -0.01778417 -0.01795292 -0.01811305 -0.01826447 -0.01840532 -0.01854432 -0.0186821
 -0.01883055 -0.01899187 -0.01916673 -0.01935575 -0.01954526 -0.0197345 -0.01990867 -0.02006791 -0.02020658 -0.02032599
 -0.02042819 -0.02051569 -0.02059541 -0.02067201 -0.0207573 -0.02085531 -0.0209775 -0.02112195 -0.02129235 -0.02148126
 -0.02168564 -0.02189774 -0.02211393 -0.02232751 -0.0225361 -0.02273418 -0.02291973 -0.02309337 -0.02325421 -0.02341133
 -0.02356532 -0.02372384 -0.02388695 -0.02405263 -0.02422026 -0.02438353 -0.02454264 -0.02469508 -0.02484157 -0.02498292
 -0.02511942 -0.02525189 -0.0253808 -0.02550691 -0.02563114 -0.02575469 -0.02587789 -0.02600154 -0.02612484 -0.02624782
 -0.02636907 -0.026488 -0.02660468 -0.02671856 -0.02683311 -0.02694846 -0.02706994 -0.02719809 -0.02733395 -0.02747733
 -0.0276213 -0.02776532 -0.02790117 -0.02802965 -0.02814971 -0.02826333 -0.02837586 -0.02848832 -0.02860547 -0.02872687
 -0.02885395 -0.02898584 -0.02912235 -0.0292624 -0.02940612 -0.0295496 -0.02969196 -0.02982707 -0.02995256 -0.030066
 -0.03016545 -0.03025698 -0.03034069 -0.03042602 -0.0305138 -0.03060736 -0.0307067 -0.03080868 -0.0309133 -0.03101926
 -0.03112726 -0.0312404 -0.03135839 -0.03148263 -0.03161103 -0.03173995 -0.03186807 -0.03199125 -0.03211126 -0.03222794
 -0.03234435 -0.03246325 -0.03258378 -0.0327073 -0.03282811 -0.03294455 -0.03305344 -0.03315272 -0.03324845 -0.03334086
 -0.0334382 -0.03354145 -0.03364785 -0.03375705 -0.03385723 -0.03394861 -0.03402745 -0.0340964 -0.03416637 -0.0342389
 -0.03432565 -0.03442325 -0.03453096 -0.034644 -0.0347544 -0.03486175 -0.03496176 -0.03505854 -0.03515353 -0.03525014
 -0.03535088 -0.03545519 -0.03556392 -0.03567363 -0.03578399 -0.03589101 -0.03599417 -0.03609023 -0.03617886 -0.03625873
 -0.03632984 -0.03639401 -0.03645174 -0.0365081 -0.03656379 -0.03662503 -0.03669185 -0.03676814 -0.03685242 -0.03694423
 -0.03704045 -0.03713671 -0.03723022 -0.03731608 -0.03739456 -0.03746362 -0.03752696 -0.0375858 -0.03764305 -0.03770052
 -0.03775658 -0.03781139 -0.03786213 -0.03790809 -0.03795061 -0.0379896 -0.03802962 -0.03807081 -0.03811423 -0.03815952
 -0.03820321 -0.03824565 -0.03828616 -0.03832684 -0.03837386 -0.03842864 -0.0384983 -0.03858007 -0.03867424 -0.03877452
 -0.03887481 -0.0389705 -0.03905566 -0.03913132 -0.03919541 -0.03925394 -0.03930784 -0.03936417 -0.03942466 -0.0394933
 -0.03957125 -0.03965705 -0.03975088 -0.03984719 -0.03994568 -0.04004 -0.04012983 -0.04020948 -0.0402788 -0.04033339
 -0.04037457 -0.04040286 -0.04042221 -0.04044041 -0.0404621 -0.04049808 -0.0405488 -0.04062028 -0.04070633 -0.04080582
 -0.04090892 -0.04101065 -0.0411049 -0.04118756 -0.04126114 -0.0413246 -0.04138647 -0.04144796 -0.04151367 -0.04158438
 -0.04165608 -0.04172854 -0.04179539 -0.04185683 -0.04191244 -0.04196297 -0.04201228 -0.04206014 -0.04210788 -0.0421547
 -0.04219921 -0.04224174 -0.04228199 -0.04232095 -0.04236004 -0.04239831 -0.04243587 -0.04247068 -0.04250126 -0.04252842
 -0.04255138 -0.04257466 -0.04259909 -0.04262795 -0.04266218 -0.04270002 -0.04274144 -0.04278364 -0.04282648 -0.04287015
 -0.0429146 -0.04296013 -0.0430057 -0.04304622 -0.04308071 -0.04310234 -0.04311314 -0.04311323 -0.04310711 -0.04310203
 -0.04309976 -0.04310608 -0.04311731 -0.04313297 -0.04314856 -0.0431609 -0.04317064 -0.04317655 -0.04318359 -0.04319255
 -0.04320772 -0.04323003 -0.04326017 -0.04329849 -0.04334157 -0.0433892 -0.04343523 -0.0434793 -0.04351517 -0.04354288
 -0.04355904 -0.0435646 -0.04356053 -0.04354841 -0.0435321 -0.04351271 -0.04349392 -0.04347517 -0.04345737 -0.04343931
 -0.04341989 -0.04340008 -0.04337937 -0.04336147 -0.04334741 -0.04334021 -0.04334123 -0.04334916 -0.04336438 -0.04338223
 -0.04340243 -0.04342002 -0.04343477 -0.04344432 -0.04344906 -0.04345161 -0.04345327 -0.0434619 -0.04347928 -0.04351521
 -0.04357089 -0.0436537 -0.04376393 -0.04390513 -0.04407723 -0.04428115 -0.04451765 -0.04478677 -0.04509168 -0.04543275
 -0.045817 -0.04624629 -0.0467281 -0.04726464 -0.0478594 -0.04851415 -0.04922314 -0.04998719 -0.05078353 -0.05161059
 -0.05241429 -0.05318874 -0.05385216 -0.0543985 -0.05475224 -0.0549124 -0.05483534 -0.05452457 -0.05395331 -0.05316025
 -0.05217189 -0.05108084 -0.04999352 -0.04898019 -0.04813296 -0.04745917 -0.04698866 -0.04670103 -0.04659871 -0.04664892
 -0.04685293 -0.04713934 -0.04750483 -0.04783777 -0.04812692 -0.04831174 -0.04838924 -0.04838864 -0.04831321 -0.04820969
 -0.04807806 -0.04794236 -0.04779946 -0.04765219 -0.04749627 -0.04732291 -0.04713096 -0.046914 -0.04667474 -0.04641381
 -0.04613343 -0.04583417 -0.04552177 -0.04519587 -0.04487375 -0.04455983 -0.04427293 -0.04401987 -0.04380235 -0.0436233
 -0.04346703 -0.04333265 -0.04320399 -0.0430802 -0.0429571 -0.04283512 -0.04271864 -0.04260745 -0.04250263 -0.04240334
 -0.0423065 -0.04221307 -0.04212333 -0.04203944 -0.041966 -0.04190154 -0.04184756 -0.04179817 -0.04174896 -0.04169733
 -0.04163871 -0.04158038 -0.04152296 -0.0414768 -0.04144543 -0.04142988 -0.04143196 -0.04144114 -0.04145682 -0.04146785
 -0.04147364 -0.04147255 -0.04146513 -0.04145768 -0.04145046 -0.04144878 -0.04145144 -0.04145716 -0.04146456 -0.04146922
 -0.04147198 -0.04147179 -0.04147107 -0.04147249 -0.04147656 -0.04148522 -0.04149594 -0.04150803 -0.04151895 -0.04152727
 -0.04153319 -0.04153625 -0.04153837 -0.04153995 -0.04154113 -0.0415422 -0.04153961 -0.04153319 -0.04151866 -0.04149614
 -0.04146563 -0.04142806 -0.04138879 -0.04134851 -0.0413127 -0.04128103 -0.04125531 -0.04123521 -0.04122059 -0.04121219
 -0.04121091 -0.04121708 -0.04123218 -0.04125313 -0.04127986 -0.04130537 -0.04132753 -0.04133986 -0.04133972 -0.04132731
 -0.04130143 -0.04127013 -0.04123386 -0.04120181 -0.04117449 -0.04115343 -0.04113821 -0.04112325 -0.04110828 -0.04108822
 -0.04106446 -0.04103887 -0.04101383 -0.040996 -0.04098653 -0.04099106 -0.0410074 -0.04103627 -0.04107222 -0.04111178
 -0.04114912 -0.04118008 -0.0412018 -0.0412118 -0.04121138 -0.04119982 -0.04118189 -0.04115777 -0.04113461 -0.04111305
 -0.0410991 -0.04109314 -0.04109609 -0.04110761 -0.04112291 -0.04114164 -0.0411591 -0.0411757 -0.04119057 -0.04120399
 -0.04121644 -0.04122756 -0.04123657 -0.04124413 -0.04125005 -0.04125692 -0.04126681 -0.04128112 -0.04130198 -0.04132669
 -0.04135529 -0.04138308 -0.041409 -0.04142924 -0.04144295 -0.04144845 -0.04144527 -0.04143585 -0.04142028 -0.04140642
 -0.0413947 -0.04139331 -0.04140162 -0.04142045 -0.04144803 -0.0414783 -0.04151037 -0.0415388 -0.04156426 -0.04158532
 -0.04160323 -0.04161885 -0.04163335 -0.04164802 -0.04166345 -0.04168067 -0.04169833 -0.04171637 -0.0417325 -0.04174568
 -0.04175694 -0.04176587 -0.0417769 -0.04179049 -0.04180884 -0.04183213 -0.0418566 -0.04188197 -0.04190334 -0.04192101
 -0.04193446 -0.04194456 -0.04195432 -0.04196407 -0.0419761 -0.04199035 -0.04200735 -0.04202797 -0.04205344 -0.04208444
 -0.0421231 -0.04216574 -0.04221245 -0.04225441 -0.04228808 -0.04230844 -0.04231189 -0.04230536 -0.04228839 -0.04227528
 -0.04226762 -0.04227315 -0.0422925 -0.04232182 -0.04236059 -0.04240028 -0.04244066 -0.04247613 -0.04250699 -0.04253124
 -0.04254949 -0.0425618 -0.04256975 -0.04257558 -0.04258195 -0.04259304 -0.04261007 -0.04263641 -0.04266893 -0.04270757
 -0.04274682 -0.04278403 -0.04281784 -0.04284647 -0.04287497 -0.04290386 -0.04293794 -0.04297819 -0.04302215 -0.04306978
 -0.04311309 -0.04315183 -0.0431806 -0.04320026 -0.04321321 -0.04322138 -0.04323337 -0.0432503 -0.04328018 -0.04332084
 -0.04337325 -0.04343203 -0.04349126 -0.04354668 -0.04359182 -0.04362807 -0.0436535 -0.04367378 -0.04369082 -0.04370807
 -0.04372732 -0.04374736 -0.04376819 -0.04378869 -0.04380844 -0.04383078 -0.04385589 -0.04388773 -0.04392617 -0.04396939
 -0.04401669 -0.04406222 -0.04410608 -0.04414534 -0.04418094 -0.04421425 -0.04424498 -0.04427356 -0.04429884 -0.044319
 -0.04433505 -0.04434644 -0.04435672 -0.0443676 -0.04438215 -0.04440215 -0.04442858 -0.04446208 -0.0445027 -0.0445508
 -0.04460446 -0.04466386 -0.04472323 -0.04478225 -0.04483402 -0.04487841 -0.04491289 -0.04493813 -0.0449573 -0.0449711
 -0.04498415 -0.0449964 -0.04500995 -0.04502481 -0.04504139 -0.0450613 -0.04508632 -0.04511869 -0.04516173 -0.04521393
 -0.04527694 -0.04534305 -0.04541045 -0.04546969 -0.04551711 -0.04555108 -0.04556962 -0.0455813 -0.04558649 -0.04559609
 -0.0456109 -0.04563355 -0.04566374 -0.04569556 -0.04572842 -0.04575517 -0.04577611 -0.04578825 -0.04579283 -0.04579106
 -0.04578509 -0.04577893 -0.04577487 -0.04577759 -0.04578754 -0.0458073 -0.04583457 -0.04586903 -0.04590748 -0.04594874
 -0.04598999 -0.04603068 -0.04606686 -0.0460979 -0.04612004 -0.0461325 -0.04613672 -0.04613264 -0.04612682 -0.04611949
 -0.04611523 -0.04611358 -0.0461135 -0.04611445 -0.04611346 -0.04611099 -0.04610655 -0.04610102 -0.04609596 -0.04609151
 -0.04608864 -0.04608678 -0.04608588 -0.04608513 -0.0460843 -0.04608196 -0.04607756 -0.04606967 -0.04605749 -0.04604169
 -0.04602196 -0.04600151 -0.04598058 -0.04596255 -0.0459477 -0.04593709 -0.04593066 -0.04592722 -0.04592616 -0.04592304
 -0.04591688 -0.04590083 -0.04587545 -0.04583727 -0.04579066 -0.04574123 -0.04569446 -0.04566059 -0.0456399 -0.04563818
 -0.04564749 -0.04566605 -0.04568255 -0.04569152 -0.04568761 -0.04566678 -0.04563484 -0.04559125 -0.0455481 -0.04550675
 -0.04547511 -0.04545394 -0.04544214 -0.04543947 -0.04544085 -0.04544627 -0.04545355 -0.04546274 -0.04547339 -0.04548441
 -0.0454929 -0.04549729 -0.04549323 -0.04548009 -0.04545482 -0.04541899 -0.04537184 -0.04531866 -0.04526148 -0.04520758
 -0.04516112 -0.04512366 -0.04509777 -0.0450766 -0.0450597 -0.04503869 -0.04501228 -0.04497797 -0.04493542 -0.04488775
 -0.04483518 -0.04478184 -0.04472779 -0.04467534 -0.04462444 -0.04457583 -0.04453014 -0.04448923 -0.04445421 -0.04442891
 -0.04441167 -0.04440332 -0.04439786 -0.04439067 -0.044376 -0.04434805 -0.04430725 -0.04425142 -0.04418634 -0.04411283
 -0.04403728 -0.04396112 -0.04388788 -0.04381849 -0.04375102 -0.04368545 -0.04361776 -0.04354811 -0.04348107 -0.04341794
 -0.04337164 -0.04334163 -0.04333413 -0.04334413 -0.04336217 -0.04338144 -0.0433839 -0.04336786 -0.04332146 -0.04325212
 -0.04316111 -0.04305938 -0.04295455 -0.04285211 -0.04275735 -0.04266768 -0.04258376 -0.04250073 -0.0424173 -0.04233333
 -0.0422484 -0.04216565 -0.04208523 -0.04201045 -0.04194157 -0.04188444 -0.04183881 -0.04180717 -0.04178604 -0.04176229
 -0.04173109 -0.04166953 -0.0415815 -0.04146118 -0.04132036 -0.04117263 -0.04102597 -0.04089253 -0.04077587 -0.04068197
 -0.04061063 -0.0405653 -0.04053595 -0.0405225 -0.0405062 -0.04048376 -0.04044009 -0.04037247 -0.04027661 -0.04015169
 -0.04000416 -0.03983479 -0.03966098 -0.03948384 -0.03932112 -0.03917107 -0.03903567 -0.03891177 -0.03879047 -0.03867238
 -0.03855456 -0.03843831 -0.03832609 -0.03821317 -0.03809608 -0.03797106 -0.03783261 -0.03768663 -0.03753409 -0.03738129
 -0.03723163 -0.03708209 -0.03693295 -0.03677887 -0.03661881 -0.03645347 -0.03628269 -0.03611168 -0.03594059 -0.03577185
 -0.03560427 -0.03542937 -0.03524501 -0.03503494 -0.03480243 -0.03454681 -0.03427606 -0.0340081 -0.03374141 -0.03348402
 -0.03322493 -0.03295476 -0.0326713 -0.03236667 -0.03205455 -0.0317387 -0.03143133 -0.03113855 -0.03085896 -0.03059502
 -0.03033304 -0.03007345 -0.02978679 -0.02947093 -0.02910272 -0.02868238 -0.02823333 -0.02775855 -0.02729651 -0.02684341
 -0.02640235 -0.02596723 -0.02552018 -0.02506168 -0.02458401 -0.02409011 -0.02358172 -0.02305871 -0.02252143 -0.02197011
 -0.02140793 -0.02082447 -0.02022197 -0.01956678 -0.01884791 -0.01804758 -0.0171528 -0.01620671 -0.01521277 -0.01421059
 -0.01320513 -0.01217514 -0.01111974 -0.01001947 -0.008878169 -0.007725393 -0.006560802 -0.005404817 -0.004240379 -0.00302471
 -0.001750179 -0.0003664154 0.001087381 0.002581088 0.00407136 0.005492623 0.00686158 0.008164239 0.009441878 0.01071306
 0.0119935 0.01329381 0.01460846 0.01593148 0.0172969 0.01869882 0.02026172 0.02199541 0.02398521 0.02622877
 0.02855263 0.03094326 0.03319082 0.03532317 0.03736298 0.03934474 0.04138786 0.04349717 0.04573842 0.04810604
 0.05060421 0.05327122 0.05611909 0.05926288 0.06277924 0.06675973 0.07131865 0.07628155 0.08166659 0.08708216
 0.09244174 0.09753537 0.1023093 0.1068004 0.111003 0.1150551 0.1189671 0.1229774 0.1271096 0.1317102
 0.1367417 0.1422675 0.1481107 0.1537204 0.1590734 0.1637926 0.1680959 0.1721471 0.1760976 0.1801855
 0.1843978 0.1888042 0.1933363 0.1979713 0.2026882 0.2074913 0.2122952 0.2170929 0.2217534 0.2262465
 0.2306063 0.234832 0.2389991 0.2431058 0.2469929 0.2506443 0.2538266 0.2565642 0.2588505 0.260729
 0.2623428 0.2636874 0.2648261 0.2657286 0.2663537 0.2667478 0.2669296 0.2669788 0.2669587 0.2669089
 0.2668704 0.2668311 0.2668042 0.2667302 0.2666041 0.2663484 0.2659527 0.2653559 0.2645488 0.2635575
 0.2623849 0.2611507 0.2598544 0.2585424 0.2571972 0.2557529 0.2542002 0.2524667 0.250575 0.2485213
 0.2463719 0.2442163 0.242118 0.2401819 0.2384158 0.2368561 0.2354954 0.23433 0.2333865 0.2326722
 0.2322087 0.2320075 0.2320449 0.2323196 0.2328063 0.2335021 0.2344069 0.2355205 0.2368407 0.2383658
 0.2400771 0.2419727 0.2440322 0.2462561 0.2486335 0.2511689 0.2538642 0.25673 0.2597811 0.2630292
 0.2664914 0.2701752 0.2740912 0.2782419 0.2826323 0.2872583 0.2921206 0.2972127 0.3025371 0.3080669
 0.3138075 0.3196599 0.3256193 0.3315507 0.3374483 0.3432852 0.3490655 0.3548497 0.3605974 0.3661492
 0.3714227 0.3760275 0.380012 0.3832609 0.3859254 0.3882079 0.3901435 0.3918658 0.3933002 0.3944233
 0.3952089 0.3956473 0.3956929 0.3953721 0.3944414 0.392847 0.3904264 0.3870852 0.3833344 0.3792077
 0.3751422 0.3711542 0.3670597 0.3628486 0.358341 0.3535645 0.3485787 0.3434044 0.3381764 0.3328148
 0.3272711 0.3213151 0.3145331 0.3068979 0.2980045 0.2886028 0.2791162 0.270074 0.2620142 0.2545157
 0.2475452 0.240735 0.2339422 0.2272777 0.2207276 0.2145174 0.2086759 0.2031638 0.1979778 0.1929067
 0.187947 0.1829835 0.1780382 0.1731676 0.1683935 0.1638248 0.1594513 0.1553094 0.1513687 0.147599
 0.1439754 0.1404703 0.1370374 0.133665 0.1302175 0.1266371 0.1227795 0.1185038 0.1141046 0.1095634
 0.1055063 0.1020733 0.09923571 0.09702446 0.09498861 0.09310683 0.0911097 0.08900813 0.08683689 0.08462325
 0.0825442 0.08058646 0.07880002 0.07715417 0.07558772 0.07412348 0.07275736 0.07155108 0.07058001 0.06985307
 0.06941292 0.0692111 0.06923193 0.06944518 0.06983104 0.07040098 0.07114677 0.07212352 0.07333053 0.07487852
 0.07678019 0.07908152 0.08178294 0.08461165 0.08754129 0.09016322 0.09249134 0.09439094 0.09590055 0.097081
 0.09795188 0.09857769 0.09898569 0.09922722 0.09937314 0.09950019 0.09971585 0.100136 0.1007832 0.1017405
 0.1028357 0.1040254 0.1051838 0.1062539 0.1072864 0.1082787 0.1093048 0.1103745 0.1114867 0.1126416
 0.1137775 0.114893 0.1159484 0.1169546 0.1179472 0.1189496 0.1200603 0.1212958 0.1227515 0.1244067
 0.1262705 0.1283203 0.1305163 0.1329012 0.135487 0.1383348 0.1414935 0.1449459 0.1487078 0.152702
 0.1569012 0.1613164 0.165928 0.1709047 0.1762617 0.1821207 0.1884878 0.1950872 0.2018834 0.2083434
 0.2144674 0.2199849 0.224929 0.2292946 0.2330564 0.2361703 0.2385605 0.2400789 0.2406961 0.2403008
 0.2389596 0.2366701 0.2335533 0.2296622 0.2251139 0.2199527 0.2142839 0.2081169 0.2016435 0.194869
 0.1881341 0.1814701 0.1751359 0.1691468 0.1634651 0.1580791 0.1528141 0.1476784 0.1426256 0.137693
 0.1329968 0.1285447 0.1244272 0.1205982 0.117028 0.113664 0.1104348 0.1073105 0.1042441 0.1012271
 0.09823836 0.09529702 0.09240054 0.08958873 0.08687268 0.08426907 0.08178625 0.07939694 0.07709952 0.07486682
 0.07269721 0.07061904 0.06863734 0.06682815 0.06519292 0.06378251 0.06258623 0.0615938 0.06079315 0.06015032
 0.05966012 0.05929963 0.05906647 0.05895162 0.05894777 0.05905275 0.0592406 0.05950695 0.05979582 0.06009395
 0.06032781 0.06048031 0.06048626 0.06033251 0.05998208 0.05942781 0.0586799 0.05773845 0.05666303 0.05545815
 0.05419673 0.05288297 0.05157618 0.05028319 0.04905853 0.04791012 0.04688632 0.0459846 0.04522578 0.04459448
 0.04408214 0.04367275 0.04335105 0.04310683 0.04293226 0.04281627 0.04275552 0.04273283 0.04274535 0.04277109
 0.0428075 0.04282982 0.04283596 0.04280131 0.04272435 0.04258784 0.042392 0.04213516 0.04182064 0.04146671
 0.04107851 0.04068544 0.04028828 0.03990616 0.03953096 0.03915849 0.03877902 0.03837752 0.03795431 0.03750286
 0.03703186 0.03654435 0.036047 0.03554337 0.03503526 0.03452338 0.03401022 0.03349566 0.03298616 0.03248202
 0.03199204 0.03151672 0.0310649 0.03063703 0.03024053 0.02987618 0.02955182 0.02926965 0.0290414 0.02887001
 0.02876873 0.02873857 0.028788 0.02891451 0.02911955 0.02939713 0.02974441 0.03015193 0.03061511 0.03112259
 0.03167021 0.03224629 0.03284836 0.03346268 0.03408749 0.03470742 0.03532076 0.03591673 0.03649455 0.0370529
 0.03759208 0.03811636 0.03862593 0.03912449 0.03961112 0.04008495 0.04054339 0.04097993 0.04139198 0.04177189
 0.04211922 0.04243091 0.04270595 0.0429442 0.04313942 0.04328859 0.0433855 0.04342534 0.04341245 0.04334536
 0.04323767 0.04309125 0.04291718 0.04271697 0.04249525 0.0422524 0.04199047 0.04170945 0.04140965 0.04109057
 0.04074932 0.04038532 0.03999455 0.03957744 0.03913261 0.03866193 0.03816742 0.03765216 0.03712024 0.03657491
 0.0360201 0.03545787 0.03489112 0.03431807 0.03374042 0.0331487 0.03254232 0.03190582 0.03123601 0.03052558
 0.02977201 0.02898943 0.02817832 0.02736775 0.02655903 0.02577603 0.02501848 0.02429633 0.02360846 0.02295608
 0.02233798 0.02175207 0.02119689 0.02066903 0.02016745 0.01968962 0.01923484 0.01880198 0.0183898 0.01799696
 0.01762402 0.01726928 0.01694062 0.01663845 0.01637615 0.0161566 0.01598563 0.01586562 0.015782 0.01573434
 0.01569169 0.0156526 0.01558989 0.01550469 0.01539008 0.01525076 0.01510009 0.01494471 0.01480768 0.01469435
 0.014626 0.01460083 0.01462805 0.01469514 0.01479624 0.01491601 0.01504315 0.01517131 0.01529498 0.01541399
 0.01552856 0.01563245 0.01572522 0.01579753 0.0158474 0.01587909 0.01589236 0.01591206 0.01594019 0.01601278
 0.016132 0.0163308 0.01660877 0.01698356 0.01745034 0.01800721 0.01864591 0.01935208 0.02011681 0.02092427
 0.0217665 0.0226317 0.02351495 0.02440975 0.02531587 0.02623177 0.02715844 0.02809672 0.02904318 0.02999817
 0.03095314 0.03190759 0.03285083 0.03378217 0.03469269 0.0355823 0.03644958 0.03729523 0.03812395 0.03893532
 0.03973022 0.04050763 0.04126362 0.04200154 0.04272367 0.04343853 0.04415671 0.04488718 0.04564017 0.04642442
 0.04724744 0.04811569 0.04903609 0.05000041 0.05101097 0.05204296 0.0530925 0.05414032 0.05518287 0.05622
 0.0572514 0.05828195 0.05931158 0.06033872 0.06136269 0.06237841 0.06338435 0.06437331 0.06534059 0.06627182
 0.06715923 0.06798346 0.06873561 0.0693975 0.06996164 0.0704145 0.07075555 0.07097875 0.07109298 0.07109896
 0.07101 0.07082775 0.07057182 0.07024252 0.06987707 0.06947741 0.06909589 0.06873593 0.0684426 0.06821739
 0.06808382 0.06804146 0.06809825 0.06825413 0.06851255 0.06887552 0.06934929 0.06993782 0.0706527 0.07149264
 0.07246681 0.07355423 0.07474898 0.0760036 0.0772968 0.07856321 0.07977746 0.0808707 0.08182243 0.08257245
 0.08310706 0.08338641 0.08340294 0.08314785 0.0826191 0.08184575 0.08083112 0.0796405 0.07828131 0.0768379
 0.0753183 0.07380011 0.07228924 0.07084094 0.06945787 0.06817155 0.06697847 0.06588982 0.06489173 0.06398039
 0.0631291 0.06232677 0.06153236 0.06073172 0.05987472 0.05894581 0.05790639 0.05674447 0.05545387 0.0540302
 0.05249756 0.05085666 0.0491469 0.04737088 0.04557651 0.04376771 0.04199673 0.04026635 0.038618 0.03704874
 0.0355742 0.03418449 0.03286976 0.03161807 0.0304086 0.0292373 0.02809044 0.02697701 0.02589807 0.02486398
 0.02388244 0.02294732 0.02206112 0.02120364 0.02037178 0.01954887 0.01873231 0.01791483 0.01709578 0.01626977
 0.01543653 0.01459114 0.01373396 0.01286543 0.01198678 0.01110356 0.01021675 0.009332194 0.008449438 0.007570648
 0.006694237 0.005818045 0.004943653 0.004069754 0.003204404 0.002352116 0.001519275 0.0007119757 -7.605475E-05 -0.0008442345
 -0.001604698 -0.002360908 -0.003113052 -0.003862721 -0.004596414 -0.005313394 -0.006000042 -0.006655897 -0.007275035 -0.007857816
 -0.008404305 -0.008915213 -0.009393427 -0.009839872 -0.01025854 -0.01065021 -0.01101811 -0.01136299 -0.01168782 -0.01199103
 -0.01227384 -0.01252943 -0.0127549 -0.01294133 -0.01308365 -0.01317841 -0.01322347 -0.01321831 -0.01316346 -0.01305253
 -0.01288502 -0.01265309 -0.0123555 -0.0120034 -0.01159859 -0.01118477 -0.01076775 -0.01041426 -0.01012924 -0.009972867
 -0.00994125 -0.01005866 -0.0103089 -0.01067508 -0.01113534 -0.01165396 -0.01221398 -0.0127877 -0.01336461 -0.01393269
 -0.01447849 -0.01499705 -0.01546512 -0.01587625 -0.0162078 -0.01645258 -0.01660773 -0.01667023 -0.01665883 -0.01657443
 -0.01643781 -0.01624975 -0.0160191 -0.01574602 -0.01543478 -0.0150872 -0.01471357 -0.01431647 -0.01390889 -0.0134917
 -0.01307314 -0.01265187 -0.01222974 -0.01180447 -0.01137427 -0.01093843 -0.01049453 -0.01004767 -0.009598006 -0.009155943
 -0.008724594 -0.008311323 -0.007918808 -0.007546494 -0.007194763 -0.006860822 -0.00654426 -0.006248589 -0.00597417 -0.00573123
 -0.005519754 -0.005345415 -0.005205072 -0.005088587 -0.004989913 -0.004886045 -0.004772949 -0.004630685 -0.004460661 -0.00425608
 -0.004020877 -0.003757024 -0.003465909 -0.003149788 -0.002806538 -0.002435789 -0.002035419 -0.001603166 -0.001145194 -0.0006603345
 -0.0001667037 0.0003343263 0.0008216359 0.001293294 0.00173964 0.002160556 0.002562109 0.002945874 0.003327882 0.003710158
 0.004111306 0.004531005 0.004979734 0.005452011 0.005942515 0.006444479 0.00694503 0.007443289 0.007933411 0.008417459
 0.008896749 0.009367397 0.009828882 0.01027433 0.01069989 0.01110889 0.01149913 0.01188848 0.01227812 0.01268984
 0.01312569 0.01359507 0.01409796 0.01462143 0.0151631 0.01569555 0.01621733 0.01670633 0.01716413 0.01758362
 0.01796795 0.01831884 0.01864206 0.01894354 0.01923604 0.01953181 0.01984738 0.02019854 0.02059169 0.02103735
 0.02152193 0.02204596 0.02258475 0.02313264 0.02367638 0.02421168 0.02474904 0.0252886 0.02584855 0.02642939
 0.02702976 0.0276472 0.02825746 0.02885883 0.02942815 0.02997001 0.03048414 0.0309808 0.0314814 0.0319924
 0.0325366 0.03310338 0.03369559 0.03428632 0.03485798 0.035392 0.03587079 0.03630358 0.03668641 0.03704544
 0.03738522 0.03772658 0.03807384 0.0384315 0.03880097 0.03916896 0.0395347 0.03987961 0.0402045 0.04050948
 0.04079799 0.04108895 0.04138146 0.04168384 0.04199049 0.04229191 0.04258826 0.04287484 0.0431557 0.04343492
 0.0437104 0.04398018 0.04424841 0.04451155 0.04479346 0.04510204 0.04545034 0.04584825 0.04626592 0.04670248
 0.04711522 0.04749943 0.04784891 0.04816379 0.04847059 0.04877071 0.04908799 0.04942176 0.04978024 0.05016391
 0.05057734 0.05102448 0.05151632 0.05205467 0.05265146 0.05329351 0.05397783 0.05467397 0.05536192 0.0560133
 0.05660836 0.05713609 0.05758698 0.05796595 0.0582686 0.05852372 0.05873097 0.05894643 0.05917458 0.05945964
 0.0598034 0.06020344 0.06065762 0.06114221 0.06165729 0.0621931 0.06274811 0.06331588 0.06388661 0.06443692
 0.06495731 0.06542171 0.06583072 0.06617505 0.06645898 0.06668451 0.06684925 0.0669532 0.06699143 0.06695893
 0.06686783 0.06671397 0.06654297 0.06635711 0.06622191 0.06614351 0.06616128 0.06627686 0.06647807 0.0667615
 0.06708718 0.06745205 0.06781916 0.06818897 0.0685411 0.06888299 0.06922159 0.06956141 0.0699194 0.07027663
 0.0706209 0.07093231 0.071176 0.07139914 0.0715924 0.07189023 0.07234477 0.07300784 0.07393263 0.07493497
 0.07599478 0.07697645 0.07786033 0.07867775 0.07942981 0.08016119 0.08087037 0.08155597 0.08221129 0.08280305
 0.0833208 0.08371312 0.08397337 0.08405671 0.08397546 0.08372591 0.0833298 0.08281144 0.0821778 0.08143956
 0.08060466 0.07966965 0.07867841 0.07763595 0.07661621 0.07563438 0.07475433 0.07399052 0.07335613 0.07285674
 0.0724428 0.07211158 0.07178719 0.07146683 0.07109633 0.07067507 0.0701727 0.06958722 0.06889072 0.06809301
 0.06718992 0.06622282 0.06524859 0.06431264 0.06349592 0.06278919 0.0622235 0.06173781 0.06131213 0.06088943
 0.06044231 0.05995324 0.0594069 0.05883686 0.05824177 0.05768573 0.05717441 0.05675078 0.05641725 0.05619216
 0.05607722 0.05610134 0.05626189 0.05656719 0.0569983 0.05749631 0.05804424 0.05856863 0.05907864 0.0595548
 0.06001506 0.06047417 0.06093778 0.06141268 0.06190779 0.0624254 0.06298668 0.06360064 0.06427579 0.06501944
 0.06581288 0.06665631 0.06751782 0.06839453 0.06926274 0.0701212 0.07097819 0.07183564 0.07272492 0.07363898
 0.07456224 0.07546998 0.07626723 0.07694025 0.07740001 0.07767311 0.07775798 0.07769441 0.07752924 0.07727795
 0.07696518 0.07660156 0.07619117 0.07576825 0.07534357 0.07494998 0.07460152 0.07429237 0.07402812 0.07376263
 0.07349318 0.07316817 0.07278478 0.07233702 0.07182898 0.07131187 0.07078889 0.07030775 0.06986076 0.0694451
 0.06905495 0.06867229 0.0683031 0.06795107 0.0676165 0.06730396 0.06700398 0.06670941 0.06641802 0.06612988
 0.06583302 0.06553167 0.06517781 0.06476117 0.06424402 0.06361175 0.06290268 0.06211591 0.06133427 0.06056226
 0.05982913 0.05913037 0.05841268 0.05767145 0.05684532 0.05594941 0.05499605 0.0540207 0.05311412 0.05229591
 0.05165209 0.05114733 0.05078491 0.05049911 0.0502376 0.04996452 0.04964024 0.04927661 0.04886477 0.04844091
 0.04800992 0.04761152 0.04725309 0.04695691 0.04672769 0.0465473 0.04641492</values></Ydata></AB><ScSm><Ydata ylabel="Single channel"><values byteorder="INTEL" format="FLOAT32" numvalues="1814"> 0.07357451 0.07357918 0.07366315 0.07384495 0.0740836 0.07430305 0.0744462 0.07451028 0.07452263 0.07449352
 0.07442656 0.07437153 0.07441552 0.07459663 0.07484734 0.07503784 0.07507871 0.07500312 0.07495205 0.07503552
 0.07518035 0.07515134 0.07477296 0.07413286 0.0735255 0.07318059 0.07311758 0.07331779 0.07387323 0.07472284
 0.07534929 0.07514796 0.07418914 0.07325433 0.07296862 0.07319842 0.07341615 0.07331036 0.07288828 0.07235147
 0.07213509 0.07278851 0.07443689 0.07633785 0.07714783 0.07577008 0.07213968 0.06746557 0.06377932 0.06284681
 0.06492729 0.06842081 0.07106777 0.07175183 0.07103395 0.07000363 0.06910251 0.06827356 0.06773102 0.0679996
 0.06919377 0.07053317 0.0707518 0.06918412 0.06655289 0.06445131 0.06388962 0.06466366 0.06620599 0.06820449
 0.06974749 0.06883311 0.06433712 0.05850391 0.05594473 0.05925401 0.06624101 0.07206883 0.07355471 0.07096334
 0.0666115 0.06294665 0.06161072 0.06300095 0.06621437 0.06979258 0.07259877 0.07386892 0.07301536 0.07013848
 0.06653281 0.06406508 0.06403011 0.06663933 0.07097184 0.07505854 0.07677919 0.07542954 0.0721899 0.06887929
 0.0667573 0.066532 0.06854568 0.07242101 0.07702844 0.08113368 0.08390271 0.08500102 0.08466944 0.08356498
 0.08225842 0.08114333 0.08078348 0.08156276 0.08277354 0.08288848 0.08122037 0.07883489 0.07745139 0.07766689
 0.07848366 0.07852711 0.07743669 0.07564731 0.07303943 0.0689075 0.06359251 0.05891885 0.05637284 0.05596659
 0.05731805 0.06023732 0.06346904 0.06462789 0.0628223 0.06031148 0.06027037 0.06339907 0.06756972 0.07040916
 0.07148908 0.0721375 0.07373678 0.0763173 0.07839067 0.07807186 0.07494769 0.0711216 0.06972261 0.07183349
 0.07545274 0.07795624 0.07886271 0.07953654 0.08080097 0.08166119 0.08034909 0.07642806 0.07190426 0.06998054
 0.0722688 0.07717527 0.08106066 0.08094032 0.07649083 0.07009935 0.06499839 0.06303714 0.06419071 0.06779049
 0.07325108 0.07943863 0.08437575 0.0863506 0.08516939 0.08204235 0.07821152 0.07382423 0.06857854 0.06358072
 0.0615689 0.06432205 0.07037631 0.07624328 0.07952295 0.08009766 0.07877558 0.0758196 0.07115696 0.06574516
 0.06201352 0.06198797 0.06485738 0.06742856 0.06746139 0.06570678 0.06427637 0.06401357 0.06417607 0.06402631
 0.06386536 0.06448357 0.06601779 0.06763284 0.06833213 0.06787506 0.06682022 0.06587066 0.06524245 0.06452125
 0.0632454 0.06180919 0.0614294 0.06280765 0.06516086 0.06702904 0.06774528 0.06767727 0.06726024 0.06626555
 0.06416145 0.06112893 0.05848466 0.05770648 0.05899667 0.06115209 0.06282081 0.06347741 0.06328517 0.0626016
 0.06173925 0.06086434 0.06004903 0.05949042 0.05945951 0.05990633 0.06038134 0.0604927 0.06022281 0.05971754
 0.05900888 0.05807773 0.05705436 0.0562228 0.05581399 0.05582389 0.05605719 0.05631038 0.05644077 0.0563152
 0.0558572 0.0551673 0.05446721 0.05389928 0.05347054 0.05317544 0.05304931 0.05307695 0.05314054 0.05310793
 0.05293825 0.05267382 0.05235769 0.05199601 0.05159519 0.05120292 0.05089589 0.0507208 0.05064172 0.0505673
 0.05045601 0.05035999 0.05031816 0.05025253 0.05004819 0.04970848 0.0493555 0.04909175 0.04892112 0.04879078
 0.04864988 0.04845493 0.04816153 0.04776241 0.04734397 0.04705916 0.04700516 0.04714986 0.04738964 0.04762656
 0.04777671 0.04778407 0.04766865 0.04750557 0.04733146 0.04711852 0.04685093 0.04658379 0.04641437 0.04640812
 0.04654443 0.04672851 0.04686461 0.04691227 0.04688092 0.04681197 0.04676861 0.04678721 0.04682582 0.04680675
 0.04671632 0.0466221 0.0465907 0.0466188 0.04664551 0.04661823 0.04654942 0.04650639 0.0465383 0.0466269
 0.04671794 0.04678096 0.04682508 0.04686909 0.04690581 0.04690041 0.04683556 0.04675015 0.04670551 0.04671766
 0.04675518 0.0467979 0.0468592 0.04694803 0.04704048 0.04710036 0.04711562 0.04710747 0.04710348 0.04710559
 0.04709366 0.04705819 0.04701437 0.04698139 0.04696281 0.04695 0.04693349 0.04690783 0.04687171 0.04682518
 0.04676747 0.04669858 0.04662047 0.04653695 0.04645867 0.04640473 0.04638599 0.04638468 0.04636298 0.04629748
 0.046202 0.04611404 0.04605835 0.04602485 0.04598544 0.04593061 0.04587997 0.04585659 0.04586401 0.04589106
 0.04592495 0.0459568 0.04599003 0.04605029 0.0461719 0.04636046 0.04657591 0.04676523 0.04691033 0.04703556
 0.04717217 0.04732813 0.04749258 0.04765864 0.04783674 0.04804452 0.0482801 0.0485095 0.04869632 0.04884512
 0.04899838 0.04918899 0.04941463 0.04965654 0.04989765 0.05011931 0.05030761 0.05047368 0.05064859 0.05084848
 0.05105993 0.05126541 0.0514682 0.05168291 0.05191454 0.05215954 0.05242124 0.05271187 0.05303813 0.05338764
 0.05372817 0.0540252 0.05427302 0.05451161 0.05480021 0.05516652 0.05558477 0.05600251 0.05638337 0.05672767
 0.05706089 0.05740432 0.05775866 0.05811933 0.05849874 0.05891667 0.05937045 0.05983265 0.06028003 0.06071164
 0.06113801 0.06156579 0.0619963 0.06243004 0.06286895 0.06331528 0.06376607 0.06420898 0.06462932 0.06502414
 0.06540768 0.06580227 0.06622351 0.06666548 0.06709561 0.06747653 0.06780665 0.06813095 0.06849485 0.06889217
 0.06927752 0.06962734 0.06996547 0.07032375 0.0707012 0.07107671 0.07144646 0.07182921 0.07223658 0.07265066
 0.07303232 0.07335044 0.07360606 0.07383239 0.07407014 0.07434469 0.07466735 0.07504354 0.07546177 0.07588118
 0.07625346 0.07656075 0.07682078 0.07706109 0.07730536 0.07757618 0.0778864 0.07822482 0.07856098 0.07886222
 0.07910852 0.07931112 0.07952291 0.07980336 0.08016066 0.08055029 0.08093959 0.08134393 0.08178446 0.08224243
 0.08268562 0.0831205 0.08358088 0.08406675 0.08452725 0.08491405 0.08522642 0.08549237 0.0857356 0.08598384
 0.08628418 0.08667378 0.08713941 0.08762807 0.08809355 0.0885198 0.08890824 0.08926049 0.08957375 0.08984569
 0.09008161 0.09029467 0.09049834 0.0907036 0.09092136 0.09115335 0.09137703 0.09155458 0.09166084 0.09168781
 0.09162176 0.09144223 0.09115849 0.09082469 0.09049326 0.09015729 0.08975542 0.08923171 0.08857638 0.08781064
 0.08695294 0.0860146 0.08502407 0.08404323 0.0831549 0.0824341 0.08193282 0.08169119 0.08174968 0.08212648
 0.08276999 0.08354276 0.0842649 0.08477521 0.08496232 0.0847729 0.08422247 0.08339507 0.08240934 0.0813719
 0.08035328 0.07938397 0.0784564 0.07754776 0.07667017 0.07590464 0.07538031 0.07523882 0.07563877 0.07676084
 0.07872245 0.08142725 0.08451749 0.08753091 0.09013978 0.09226077 0.09398364 0.09544475 0.09675434 0.09797331
 0.09911075 0.1001481 0.1010769 0.1019082 0.1026492 0.1032882 0.1038049 0.1041861 0.1044352 0.1045772
 0.1046548 0.1047118 0.1047844 0.1049012 0.1050736 0.1052707 0.1054139 0.1054066 0.1051731 0.1046765
 0.1039169 0.1029529 0.101979 0.1014023 0.1017599 0.1034179 0.1062686 0.1097383 0.1131341 0.1160049
 0.1182365 0.1199223 0.1212141 0.1222514 0.1231366 0.1239288 0.1246544 0.1253238 0.1259456 0.1265336
 0.1271053 0.1276719 0.1282317 0.1287763 0.1293002 0.1298041 0.1302922 0.1307704 0.1312453 0.1317238
 0.1322106 0.1327042 0.1332002 0.1336972 0.1341933 0.1346778 0.1351367 0.1355698 0.1359929 0.1364215
 0.1368599 0.1373038 0.1377438 0.1381665 0.1385624 0.1389357 0.1393003 0.1396662 0.1400332 0.1403961
 0.1407544 0.1411127 0.1414739 0.1418378 0.1422059 0.1425793 0.1429476 0.1432889 0.1435907 0.143869
 0.144157 0.1444754 0.1448146 0.1451516 0.1454799 0.1458183 0.146188 0.1465845 0.146979 0.147344
 0.1476739 0.1479826 0.1482881 0.1486034 0.1489372 0.1492927 0.1496625 0.1500282 0.1503754 0.1507081
 0.151043 0.1513882 0.1517363 0.1520764 0.1524076 0.152738 0.1530733 0.1534109 0.1537467 0.1540844
 0.1544339 0.154797 0.1551585 0.1554967 0.1558026 0.156086 0.1563635 0.156647 0.156942 0.1572514
 0.1575747 0.1579062 0.1582374 0.1585621 0.158878 0.1591849 0.1594854 0.1597861 0.1600941 0.1604109
 0.1607337 0.1610614 0.1613951 0.1617313 0.1620593 0.1623698 0.1626632 0.1629504 0.1632432 0.1635438
 0.1638432 0.1641327 0.1644166 0.1647091 0.1650161 0.1653264 0.1656235 0.1659031 0.1661749 0.1664518
 0.1667393 0.1670349 0.1673342 0.1676339 0.1679308 0.1682228 0.1685125 0.1688051 0.1691023 0.169401
 0.1697 0.1700011 0.1703044 0.1706056 0.1709001 0.1711872 0.1714695 0.1717511 0.1720341 0.1723189
 0.1726051 0.1728894 0.1731685 0.1734441 0.1737233 0.1740109 0.1743038 0.1745961 0.1748835 0.175166
 0.1754486 0.1757374 0.1760315 0.1763229 0.1766058 0.1768826 0.1771597 0.1774428 0.1777326 0.1780227
 0.1783061 0.1785833 0.17886 0.1791385 0.1794167 0.1796918 0.1799608 0.180221 0.1804737 0.1807225
 0.1809703 0.1812199 0.1814746 0.1817345 0.1819985 0.1822674 0.1825387 0.1828037 0.1830589 0.1833113
 0.1835686 0.1838337 0.1841086 0.184393 0.1846798 0.1849626 0.1852431 0.1855256 0.1858093 0.1860909
 0.1863674 0.1866384 0.1869076 0.1871781 0.1874477 0.1877147 0.1879823 0.1882504 0.1885136 0.1887731
 0.1890359 0.1892991 0.1895536 0.1898006 0.1900496 0.190304 0.1905613 0.1908182 0.1910706 0.1913188
 0.1915667 0.1918123 0.1920493 0.1922825 0.1925229 0.1927697 0.193017 0.193269 0.193529 0.1937886
 0.19404 0.1942835 0.1945187 0.1947489 0.1949848 0.1952294 0.1954739 0.1957138 0.1959464 0.196151
 0.1962769 0.1961984 0.1955985 0.1938515 0.1900202 0.1830541 0.1722143 0.1575485 0.1400392 0.121252
 0.1027624 0.08575546 0.07092192 0.05855913 0.04872739 0.04134397 0.0362378 0.03325319 0.03236733 0.03380837
 0.03817429 0.04607364 0.05678973 0.06710031 0.07253323 0.07090035 0.06439473 0.05759408 0.05365545 0.0527888
 0.05362867 0.05501426 0.05658155 0.05854622 0.06127483 0.06487429 0.06917653 0.07418313 0.08027765 0.08774148
 0.09617758 0.1046773 0.1126007 0.1200797 0.1277168 0.1358674 0.1442676 0.1522913 0.1594494 0.1656404
 0.1710587 0.1759741 0.1805772 0.1849582 0.1891552 0.1931549 0.19681 0.1998068 0.2018119 0.2027212
 0.2027797 0.202446 0.2021249 0.2020101 0.202123 0.2024277 0.2028928 0.2034964 0.2042228 0.2050513
 0.2059455 0.2068627 0.2077724 0.2086573 0.2095044 0.2103053 0.2110562 0.2117512 0.2123852 0.2129615
 0.2134871 0.2139651 0.2144001 0.2148024 0.215184 0.2155528 0.2159118 0.2162559 0.2165733 0.2168591
 0.217122 0.2173766 0.2176318 0.2178884 0.2181386 0.2183715 0.2185843 0.2187891 0.2190023 0.2192311
 0.2194727 0.2197188 0.2199604 0.2201929 0.2204187 0.2206414 0.2208629 0.2210848 0.221308 0.2215312
 0.2217552 0.2219833 0.2222131 0.2224342 0.2226427 0.222849 0.2230676 0.2233041 0.2235528 0.2238024
 0.2240485 0.2242991 0.2245611 0.2248232 0.2250689 0.2253006 0.2255344 0.2257771 0.2260255 0.2262774
 0.2265265 0.2267555 0.2269536 0.2271369 0.2273422 0.2275956 0.2278857 0.2281701 0.2284183 0.2286411
 0.2288696 0.229116 0.2293667 0.2296025 0.2298198 0.2300415 0.2303007 0.2306023 0.2309164 0.2312189
 0.231513 0.2318035 0.2320856 0.2323639 0.2326438 0.2329016 0.2331014 0.2332561 0.2334448 0.2337529
 0.2341879 0.2346599 0.2350627 0.2353688 0.2356304 0.2359089 0.2362315 0.2365691 0.2368152 0.2368619
 0.2367682 0.2367836 0.2371206 0.2377442 0.2384381 0.2390218 0.2394578 0.2398009 0.2401082 0.2403838
 0.2405782 0.2406474 0.2406402 0.2407224 0.2410605 0.2416488 0.242299 0.2428305 0.2432114 0.2434958
 0.2437328 0.2439581 0.2441353 0.2440861 0.2436749 0.2431369 0.2430185 0.2436468 0.2447635 0.2458052
 0.2464629 0.2468404 0.2471473 0.2474425 0.2476888 0.2477906 0.2474686 0.2464223 0.2449037 0.2438779
 0.2442254 0.2458573 0.2478702 0.2494481 0.2503756 0.2508462 0.2511178 0.2513385 0.2514323 0.2511013
 0.2501642 0.2490058 0.2484813 0.2491271 0.2505589 0.2518839 0.2526098 0.2529048 0.2531212 0.2533956
 0.2535587 0.2530949 0.2514355 0.2488075 0.2466614 0.2466536 0.2490233 0.2523001 0.2547611 0.2559112
 0.2563364 0.2564288 0.2558044 0.2539855 0.2511216 0.2479248 0.2454286 0.2448296 0.2467025 0.2500266
 0.2527626 0.2538563 0.2541304 0.254936 0.2565416 0.2581434 0.2589118 0.2586328 0.2575629 0.2559709
 0.254007 0.2521291 0.2513657 0.2525878 0.2554491 0.2585055 0.2605539 0.2615439 0.2619516 0.2613832
 0.2582867 0.2518152 0.2441786 0.2400511 0.2424459 0.2495572 0.2567016 0.2609302 0.2626503 0.2634241
 0.2638684 0.2634804 0.260946 0.2548792 0.2460246 0.2386068 0.2374663 0.24328 0.2517927 0.2577789
 0.2585897 0.2544233 0.24739 0.2408957 0.238255 0.2406736 0.2467146 0.2537271 0.2594428 0.2625846
 0.2628464 0.2607865 0.2577946 0.2557453 0.25564 0.2561282 0.2545302 0.2502169 0.2456544 0.2427915
 0.2400678 0.2353304 0.230559 0.2305466 0.236654 0.2445187 0.248937 0.2491227 0.2478012 0.246273
 0.2422368 0.2331422 0.2210349 0.21265 0.2135093 0.2221963 0.2316195 0.2359359 0.2351935 0.2332812
 0.2327324 0.2321413 0.2281701 0.2198973 0.2110069 0.206701 0.2081962 0.2116313 0.2126482 0.209929
 0.2037443 0.1944558 0.1848341 0.1809853 0.1872212 0.2007696 0.2139423 0.2204816 0.2179017 0.2061208
 0.1881708 0.1718254 0.1658379 0.1721782 0.1836739 0.1906034 0.1884335 0.1786705 0.1646473 0.1491471
 0.1355662 0.1283856 0.1304782 0.140133 0.1512863 0.1566956 0.1519613 0.1388034 0.1250243 0.1189106
 0.1218909 0.1277033 0.129429 0.1257291 0.1198786 0.1153986 0.1139382 0.1151782 0.1172589 0.1184504
 0.1185373 0.1171106 0.1117289 0.1009549 0.08861614 0.08133422 0.08159712 0.08646989 0.09297534 0.1007028
 0.1082937 0.1116693 0.1086455 0.1031294 0.1018103 0.1070891 0.1150188 0.1201007 0.1207158 0.1194323
 0.1189795 0.1192516 0.1187589 0.1179605 0.1193644 0.1240429 0.1297196 0.1332974 0.1340891 0.1335224
 0.1327508 0.131799 0.1303746 0.1283773 0.1258461 0.1230362 0.1203364 0.1178253 0.1152146 0.1122985
 0.1089633 0.1046339 0.09844236 0.09061024 0.08324979 0.07877579 0.07745012 0.07749763 0.07766345 0.07800723
 0.07765203 0.07402439 0.06627226 0.05814355 0.05527411 0.05975699 0.06859933 0.07710423 0.08236958 0.08351956
 0.08042322 0.07410242 0.06821987 0.06792035 0.07559187 0.08856863 0.1020425 0.1131894 0.1213679 0.1258391
 0.1256005 0.1214188 0.1165371 0.1148619 0.1186707 0.1275567 0.1383766 0.1458731 0.1452669 0.1371599
 0.1298914 0.1333459 0.1483676 0.1650987 0.1740396 0.1757458 0.1767449 0.1794007 0.180824 0.1802581
 0.1819312 0.1892717 0.1998128 0.2075725 0.2082714 0.2010144 0.1876991 0.1733714 0.1649238 0.1656923
 0.1718528 0.1767202 0.1772842 0.1738394 0.1660056 0.1543474 0.1446051 0.1442501 0.1537793 0.1656286
 0.1727924 0.175236 0.1767747 0.178537 0.1776524 0.1716496 0.1625347 0.1555342 0.1538797 0.1559357
 0.1578918 0.1577479 0.1554429 0.1506719 0.1430232 0.1341698 0.1278841 0.1268398 0.1299969 0.1337421
 0.1352857 0.1345173 0.1330162 0.132171 0.132295 0.1328162 0.1332118 0.1342179 0.1377107 0.1445189
 0.1528105 0.1598477 0.1650997 0.1703936 0.1770242 0.1838639 0.1886121 0.1902414 0.190019 0.1904927
 0.1934762 0.1985693 0.2034173 0.2057086 0.2053666 0.2048241 0.2067732 0.2115578 0.2170912 0.2212046
 0.2234311 0.2245538 0.2253166 0.2258287 0.2255535 0.2237804 0.2207976 0.2185778 0.2194261 0.2237011
 0.2294236 0.234218 0.2371405 0.2386096 0.2392192 0.2390609 0.2380385 0.236454 0.2350374 0.2344052
 0.2346447 0.2354521 0.2364962 0.237564 0.2385312 0.2393506 0.2400386 0.240624 0.2411407 0.2416557
 0.2422201 0.2427872 0.2432675 0.2436873 0.2442105 0.2449435 0.245778 0.2464882 0.2469246 0.2470266
 0.2467071 0.2458704 0.2445529 0.2429226 0.2410952 0.2390586 0.236878 0.2349407 0.2338611 0.23404
 0.2353047 0.2370143 0.2385105 0.2394625 0.2398735 0.2399033 0.2397287 0.2394886 0.2392659 0.2390879
 0.2389434 0.2388114 0.2386849 0.2385716 0.2384818 0.2384295 0.2384435 0.238551 0.2387431 0.2389694
 0.2391728 0.2393264 0.2394438 0.2395612 0.2397043 0.2398652 0.2400101 0.240103 0.2401233 0.2400735
 0.2399823 0.2398897 0.2398106 0.2397127 0.2395405 0.2392583 0.2388513 0.2382956 0.2375722 0.2367292
 0.2358885 0.2351556 0.2345427 0.2339947 0.2334529 0.2328691 0.2321935 0.2313888 0.2304495 0.2293946
 0.2282499 0.227035 0.2257575 0.2244182 0.2230245 0.2215861 0.2200938 0.2185133 0.2168099 0.2149649
 0.2129566 0.2107287 0.2081911 0.2052514 0.2018352 0.1978865 0.1933875 0.1884059 0.1831136 0.177738
 0.1724903 0.1675235 0.1629345 0.1587933 0.1551714 0.1521384 0.1497334 0.1479571 0.1467921 0.1462196
 0.1462205 0.1467693 0.1478205 0.1492891 0.1510509 0.1529631 0.1548788 0.1566632 0.1582402 0.1596372
 0.1609605 0.1623102 0.1637142 0.1651396 0.1665468 0.167912 0.1692014 0.1703547 0.1713157 0.1720657
 0.1726109 0.1729511 0.1730737 0.1729647 0.1726167 0.1720412 0.171291 0.1704704 0.1697227 0.169196
 0.1690053 0.1692107 0.1698236 0.1708198 0.172138 0.1736759 0.1753005 0.1768796 0.178325 0.1796236
 0.1808266 0.1820165 0.1832943 0.1847806 0.186584 0.1887517 0.1912496 0.1939789 0.1967989 0.1995512
 0.2020925 0.2043268 0.2062213 0.2077973 0.2090953 0.2101461 0.210979 0.2116379 0.2121676 0.2125949
 0.2129406 0.2132329 0.2134926 0.2137191 0.2139035 0.2140459 0.2141597 0.2142674 0.2143854 0.2145051
 0.2146022 0.2146716 0.2147373 0.214821 0.2149121 0.2149732 0.2149691 0.2148899 0.2147474 0.2145545
 0.2143118 0.2140051 0.2135994 0.2130432 0.2122991 0.2113668 0.2102595 0.2089697 0.2074828 0.2058206
 0.2040637 0.2023297 0.2007223 0.1992797 0.1979611 0.1966777 0.1953324 0.1938457 0.1921818 0.1903668
 0.1884735 0.186578 0.1847268 0.1829273 0.1811619 0.1794199 0.1777153 0.17607 0.1744897 0.172966
 0.1714924 0.1700683 0.1686997 0.1674036 0.1662023 0.1651127 0.1641475 0.1633182 0.162626 0.1620526
 0.1615649 0.1611278 0.1607247 0.1603727 0.1601018 0.1599059 0.1597229 0.1594713 0.1591066 0.1586466
 0.1581567 0.1577041 0.1573159 0.1569758 0.1566479 0.1562878 0.1558361 0.1552165 0.1543473 0.1531661
 0.1516614 0.1498813 0.1479067 0.1458285 0.1437535 0.1418033 0.1400833 0.138657 0.1375392 0.136687
 0.1360101 0.1354252 0.1349079 0.1344897 0.1342157 0.134087 0.1340167 0.1338688 0.1335855 0.1332611
 0.1330649 0.1331045 0.1333677 0.1337486 0.1341155 0.1343862 0.1345489 0.1346147 0.1345836 0.1344638
 0.1342774 0.1340322 0.1337217 0.1333507 0.1329314 0.132467 0.1319557 0.1313906 0.1307551 0.130041
 0.1292621 0.1284304 0.127538 0.126565 0.1254779 0.1242523 0.1229539 0.1217784 0.1209605 0.1206396
 0.1207954 0.1212643 0.121843 0.1224219 0.1229652 0.123341 0.1233456 0.1230456 0.1229674 0.1237142
 0.1253643 0.1273619 0.1290113 0.1299722 0.1302728 0.1300377 0.1293581 0.1283089 0.1269089 0.1251063
 0.1229057 0.1204346 0.1178283 0.1151727 0.1125818 0.1101938 0.1080957 0.1063363 0.1049485 0.1039755
 0.103505 0.1031873 0.1014082 0.09613342 0.08804655 0.08193929 0.08268172 0.08973601 0.09753644 0.101379
 0.1011698 0.09944925 0.09797066 0.09703191 0.09658514 0.09675981 0.09764165 0.09908289 0.1007247 0.1021761
 0.1032334 0.1038801 0.1040731 0.1035482 0.101739 0.09794568 0.09191403 0.08436818 0.07676542 0.07043683
 0.06600453 0.06340668 0.06215924 0.06162883 0.06134956 0.06124708 0.06156373 0.06255609 0.0642627 0.06653823
 0.06921533 0.07210588 0.07488564 0.07719623 0.07892898 0.08024888 0.08129117 0.08198372 0.08219794 0.08193314
 0.08131047 0.08047625 0.07954095 0.07855784 0.07752274 0.07640683 0.07524327 0.07420627 0.07353196 0.07330033
 0.07335855 0.07349964 0.0736311 0.07374534 0.07384281 0.07392633 0.07400379 0.0740999 0.07429709 0.07469012
 0.07525154 0.07581623 0.07623236 0.07647724 0.07662636 0.07673177 0.07671259 0.0764228 0.07590656 0.07545466
 0.07523071 0.07498176 0.07436996 0.07350019 0.07286446 0.07279442 0.07316408 0.0736063 0.07384743 0.07382935
 0.07368513 0.07368259 0.07405331 0.07472095</values></Ydata></ScSm><ScRf><Ydata ylabel="Single channel"><values byteorder="INTEL" format="FLOAT32" numvalues="1820"> 0.06073084 0.06089681 0.06099403 0.06102107 0.06100498 0.06099878 0.061059 0.06120778 0.06141331 0.06160836
 0.06173693 0.06179065 0.06179338 0.0617582 0.06169043 0.06163318 0.0616639 0.0618196 0.06204356 0.06222039
 0.06226578 0.06220085 0.06214438 0.06219626 0.06230412 0.06227579 0.06196453 0.06143961 0.06093967 0.06065026
 0.06058836 0.06074551 0.06120552 0.06191913 0.06244994 0.06228543 0.06147927 0.06068604 0.06043422 0.06061812
 0.06080046 0.06072015 0.06037544 0.05992426 0.0597281 0.0602565 0.06162714 0.06322326 0.06391445 0.06277275
 0.05973724 0.0558202 0.0527273 0.0519416 0.05368225 0.05661039 0.05883358 0.0594146 0.0588212 0.05796733
 0.05722461 0.05653986 0.05608224 0.05628873 0.05726513 0.05836885 0.05854177 0.05722614 0.05503097 0.05328982
 0.05283556 0.0534818 0.05475195 0.05639882 0.05767775 0.05692323 0.05318742 0.04832848 0.04619125 0.04895404
 0.05480139 0.0596917 0.06095234 0.05879629 0.05516456 0.05211102 0.0510075 0.05217658 0.05485681 0.0578346
 0.06017131 0.0612326 0.06052162 0.05811577 0.05509574 0.05302425 0.05298703 0.055164 0.05878703 0.06221133
 0.06366523 0.06255603 0.05986082 0.05709349 0.05530962 0.05510876 0.05678365 0.06002517 0.06389491 0.06735998
 0.06971127 0.07065383 0.07038403 0.06946144 0.06837708 0.06746034 0.06716952 0.06781612 0.06881327 0.06889595
 0.067498 0.06551266 0.06437498 0.06457751 0.06527627 0.06531379 0.06438957 0.06287888 0.06069267 0.05723922
 0.05279512 0.04888524 0.04675905 0.04643224 0.04759241 0.05009054 0.05287217 0.05391301 0.05243548 0.05032607
 0.05026625 0.05286894 0.05636112 0.05874763 0.05966186 0.06021945 0.06158667 0.06379031 0.06557445 0.06534502
 0.06274526 0.05954553 0.05839429 0.06021906 0.06333374 0.06551354 0.06634245 0.0669733 0.06811025 0.06891808
 0.0678954 0.06466235 0.06091848 0.05938977 0.06145249 0.06575397 0.0691913 0.06920378 0.06549899 0.0601232
 0.05586574 0.05432639 0.05549417 0.05881797 0.063817 0.06950731 0.07414234 0.07618956 0.07544153 0.07294507
 0.06980217 0.06614347 0.06168871 0.05744154 0.05591349 0.05875776 0.06466119 0.07043597 0.0738625 0.07480018
 0.07396096 0.07155368 0.06748683 0.06268377 0.05951191 0.05994585 0.06318413 0.06609996 0.06650899 0.06516314
 0.06414816 0.0642935 0.06485622 0.06511041 0.06538792 0.06650665 0.06859098 0.07075727 0.07196256 0.07194826
 0.07129171 0.07074035 0.07053301 0.0702184 0.06929322 0.06820569 0.0683083 0.07037172 0.07352062 0.07613181
 0.0774634 0.07792644 0.07799552 0.07737064 0.07540609 0.07232083 0.06969605 0.06930436 0.07139704 0.07454334
 0.07711531 0.07845937 0.07875646 0.07843824 0.07788941 0.07731897 0.07682528 0.07666431 0.07718453 0.07832628
 0.07950975 0.0802175 0.08041747 0.08029462 0.07988153 0.07914918 0.07828191 0.07767049 0.07762937 0.07816653
 0.07903326 0.07994142 0.08066353 0.08100021 0.08085432 0.08037642 0.07987405 0.07953207 0.07934922 0.07933766
 0.07959247 0.08011106 0.08069775 0.08113017 0.08133904 0.0813819 0.08131871 0.08116876 0.08095346 0.08074476
 0.08066478 0.08080292 0.08110717 0.08141405 0.08163464 0.08184161 0.08210455 0.08232345 0.08233602 0.08214345
 0.08192454 0.0818411 0.08190569 0.08203036 0.08212429 0.0821113 0.08191596 0.08153006 0.08110879 0.08091416
 0.08110593 0.08162744 0.08230277 0.08296172 0.08346456 0.08372912 0.08379218 0.08376873 0.08371543 0.08359092
 0.08336557 0.08312264 0.08303104 0.08321828 0.08365487 0.08416704 0.08457591 0.08481002 0.08489935 0.08493046
 0.08501181 0.08519289 0.08538922 0.08546082 0.08538721 0.08530121 0.08533089 0.08545716 0.08554932 0.0855187
 0.08542018 0.08539696 0.08553019 0.085765 0.08599019 0.08616149 0.08632518 0.08653066 0.0867357 0.08681899
 0.08671103 0.0864944 0.08632549 0.08626822 0.08627056 0.08629878 0.08640334 0.0866168 0.08685859 0.08700427
 0.08702616 0.08701578 0.08706379 0.08715106 0.08717623 0.08707376 0.08688215 0.08670357 0.0866195 0.08664332
 0.08672682 0.08679716 0.08680061 0.08673084 0.08662295 0.08651866 0.08643854 0.08639438 0.0864204 0.08656131
 0.08680342 0.08703043 0.08708881 0.08692308 0.08663933 0.08641516 0.08634041 0.0863508 0.08631264 0.0861533
 0.08590508 0.08564848 0.08544125 0.08529452 0.08518851 0.08510209 0.08504353 0.08505785 0.08517899 0.08535697
 0.08545761 0.08537228 0.08512478 0.08484526 0.08464977 0.08456714 0.08455803 0.08456641 0.08456685 0.08458758
 0.0846656 0.08476614 0.08479241 0.0847014 0.08456608 0.0845009 0.08456641 0.08475114 0.08498433 0.08515233
 0.08516842 0.08506039 0.08495063 0.08493258 0.08499853 0.08509086 0.08517841 0.08526316 0.08534822 0.08543403
 0.08553906 0.08569954 0.08593658 0.08622352 0.08649019 0.08666967 0.08675566 0.08681878 0.08695702 0.08721784
 0.08756214 0.08790027 0.08816487 0.08835657 0.08852373 0.08870114 0.08888147 0.08905496 0.0892538 0.08952428
 0.08986322 0.09021525 0.09053434 0.09082094 0.09109882 0.09138145 0.0916711 0.09197955 0.09233665 0.09276348
 0.09322546 0.09362873 0.093892 0.09402473 0.0941236 0.09429911 0.09460437 0.09499767 0.09535518 0.09556288
 0.0956341 0.09570748 0.09589495 0.09616494 0.0964179 0.09664312 0.09693496 0.09735405 0.09782884 0.09822042
 0.09846045 0.09860323 0.09875171 0.09894881 0.09914773 0.0992853 0.09936626 0.09945302 0.09958263 0.09973928
 0.09992187 0.100186 0.1005734 0.1010302 0.101442 0.101738 0.1019283 0.1020595 0.1021685 0.1022639
 0.1023274 0.1023471 0.1023571 0.1024138 0.1025201 0.1026138 0.1026517 0.1026693 0.1027338 0.1028752
 0.10309 0.1033724 0.1037007 0.104019 0.1042878 0.1045468 0.1048738 0.1052629 0.1055947 0.1057637
 0.1057963 0.1057994 0.1058279 0.1058667 0.1059217 0.1060513 0.1062933 0.1066148 0.1069576 0.107299
 0.1076467 0.1079985 0.1083212 0.1085644 0.1086901 0.1087032 0.1086617 0.1086542 0.1087568 0.1089943
 0.1093248 0.1096674 0.1099516 0.110142 0.1102224 0.1101937 0.1101104 0.1100848 0.1102008 0.1104186
 0.1105926 0.1105909 0.1103779 0.10999 0.1094692 0.1088449 0.1081621 0.1074985 0.1069374 0.1065307
 0.1062971 0.1062581 0.1064534 0.1068982 0.107531 0.1082299 0.1088836 0.1094169 0.109748 0.1097756
 0.10945 0.1088374 0.1080827 0.107322 0.1066352 0.1060387 0.1054898 0.104935 0.1044057 0.1040612
 0.1041081 0.1046714 0.1057313 0.1071422 0.1086854 0.1101404 0.1113663 0.1123459 0.1131506 0.1138604
 0.1145212 0.115163 0.1158187 0.1164967 0.1171518 0.1177234 0.1182015 0.1186288 0.1190406 0.1194298
 0.1197683 0.1200395 0.120255 0.1204543 0.1206691 0.1208722 0.1209875 0.1209729 0.1208697 0.1207482
 0.1206293 0.1204725 0.1202214 0.1198501 0.1193959 0.1189794 0.118787 0.1189944 0.1196707 0.1207337
 0.1220074 0.1233327 0.1246147 0.1257756 0.1267198 0.1273879 0.1278189 0.1281205 0.1283878 0.128668
 0.1289731 0.1292945 0.1296118 0.1299109 0.1301953 0.1304806 0.1307866 0.1311221 0.131466 0.1317738
 0.1320231 0.1322499 0.1325223 0.1328757 0.1332785 0.1336634 0.1339958 0.1343004 0.1346109 0.1349095
 0.1351457 0.1353094 0.1354555 0.1356539 0.1359394 0.1362997 0.1366819 0.1370135 0.1372514 0.1374183
 0.1375784 0.1377752 0.1380065 0.1382514 0.1384982 0.1387435 0.1389872 0.1392411 0.1395282 0.1398534
 0.1401765 0.140436 0.1406105 0.1407428 0.1408968 0.1410962 0.141314 0.1415133 0.1416938 0.1418979
 0.1421706 0.142506 0.1428379 0.1430926 0.143252 0.1433609 0.1434779 0.1436325 0.143823 0.1440357
 0.1442538 0.144462 0.1446555 0.1448451 0.1450466 0.1452661 0.1454984 0.1457332 0.1459595 0.1461703
 0.1463695 0.1465705 0.1467869 0.1470288 0.1473023 0.1475976 0.1478813 0.1481155 0.148289 0.1484219
 0.1485438 0.1486772 0.1488359 0.1490224 0.1492258 0.1494318 0.1496343 0.1498351 0.150035 0.1502326
 0.1504291 0.150629 0.1508367 0.1510523 0.151274 0.1515027 0.1517396 0.151977 0.1521983 0.1523937
 0.1525721 0.1527535 0.1529494 0.1531545 0.1533533 0.1535358 0.153707 0.1538823 0.1540734 0.1542792
 0.1544889 0.1546913 0.1548838 0.1550738 0.1552698 0.1554706 0.1556685 0.1558593 0.1560464 0.1562334
 0.1564215 0.15661 0.1568003 0.1569975 0.1572054 0.1574187 0.1576274 0.1578309 0.1580388 0.158254
 0.158464 0.1586579 0.158841 0.1590271 0.1592215 0.1594162 0.1596013 0.159778 0.1599575 0.1601497
 0.1603566 0.1605743 0.1607965 0.1610159 0.1612287 0.1614355 0.1616378 0.1618371 0.1620375 0.1622433
 0.1624553 0.1626738 0.1629004 0.1631332 0.1633642 0.1635881 0.163809 0.164033 0.1642578 0.1644714
 0.1646612 0.1648278 0.1649869 0.1651546 0.1653352 0.1655229 0.1657097 0.165889 0.1660613 0.1662347
 0.1664159 0.1666052 0.1668048 0.1670182 0.1672376 0.1674464 0.1676385 0.1678221 0.1680091 0.1682062
 0.1684137 0.1686237 0.1688289 0.169031 0.1692357 0.1694428 0.1696509 0.1698609 0.1700729 0.1702852
 0.1704986 0.1707142 0.1709304 0.1711481 0.1713669 0.1715793 0.1717786 0.1719697 0.1721614 0.1723574
 0.1725631 0.1727849 0.1730164 0.1732439 0.1734616 0.1736719 0.1738777 0.1740838 0.1742934 0.1744987
 0.174693 0.1748849 0.1750864 0.1752989 0.17552 0.1757477 0.1759747 0.1761976 0.1764251 0.1766618
 0.1768985 0.1771251 0.1773339 0.1775072 0.1776059 0.1775234 0.1769763 0.1753936 0.171915 0.1655759
 0.1557019 0.1423422 0.1263997 0.1093045 0.09249039 0.07703155 0.06355213 0.05232026 0.0433889 0.036681
 0.03204146 0.02932972 0.02852276 0.02982449 0.03378231 0.04096297 0.0507273 0.06014418 0.06513194 0.06368351
 0.05778502 0.05160223 0.04801472 0.04722177 0.04798655 0.04925365 0.05068854 0.05248436 0.05497563 0.05826438
 0.06220294 0.06679516 0.07238691 0.07922462 0.0869367 0.09469441 0.1019238 0.1087538 0.1157332 0.1231802
 0.1308545 0.1381901 0.1447408 0.1504063 0.155362 0.1598618 0.1640861 0.1681072 0.1719433 0.1755775
 0.178889 0.1816084 0.183436 0.184268 0.1843199 0.1840109 0.1837163 0.1836124 0.1837128 0.183982
 0.1843951 0.1849374 0.1855951 0.1863468 0.1871591 0.1879985 0.1888437 0.1896783 0.1904818 0.191238
 0.1919396 0.1925812 0.1931558 0.1936647 0.1941201 0.1945382 0.1949359 0.1953242 0.1957014 0.1960604
 0.1964012 0.1967276 0.1970364 0.1973182 0.1975684 0.1977901 0.1979938 0.1981932 0.1983964 0.1986019
 0.1988065 0.1990134 0.1992252 0.1994385 0.1996492 0.1998573 0.2000621 0.2002614 0.2004564 0.2006516
 0.2008474 0.2010387 0.2012219 0.2013996 0.2015813 0.2017776 0.2019893 0.2022032 0.2024024 0.2025836
 0.2027595 0.2029463 0.2031484 0.2033578 0.2035678 0.203782 0.2040043 0.2042266 0.2044381 0.2046399
 0.2048393 0.2050391 0.2052421 0.2054543 0.2056705 0.2058693 0.2060369 0.2061859 0.2063464 0.2065393
 0.2067613 0.206992 0.2072156 0.2074316 0.2076441 0.2078503 0.2080435 0.2082208 0.2083885 0.208571
 0.2087972 0.209065 0.2093367 0.2095839 0.2098143 0.2100438 0.2102725 0.2104965 0.2107125 0.2109025
 0.2110475 0.2111677 0.2113294 0.2115934 0.2119525 0.2123267 0.2126368 0.2128747 0.213089 0.2133245
 0.2135978 0.2138834 0.2140865 0.2141043 0.2139836 0.2139537 0.2142163 0.2147448 0.2153412 0.2158429
 0.2162192 0.2165186 0.2167843 0.217012 0.2171537 0.2171691 0.2171061 0.2171244 0.2173864 0.2178911
 0.2184625 0.2189296 0.2192589 0.2194973 0.2196829 0.21984 0.2199371 0.2198296 0.2194161 0.2189139
 0.2188006 0.2193514 0.2203283 0.2212346 0.221805 0.2221382 0.2224187 0.2226893 0.2229047 0.2229734
 0.2226481 0.2216663 0.2202617 0.2193105 0.2196114 0.2210818 0.2228985 0.2243194 0.2251529 0.2255782
 0.2258276 0.2260308 0.2261176 0.2258207 0.2249793 0.223943 0.2234842 0.2240844 0.2253926 0.2265992
 0.2272592 0.2275265 0.2277272 0.2279974 0.2281884 0.2278195 0.2263531 0.223984 0.2220345 0.2220226
 0.2241787 0.2271714 0.2294275 0.2304848 0.2308717 0.2309501 0.2303789 0.2287298 0.2261449 0.2232755
 0.2210576 0.220567 0.2223095 0.2253487 0.2278401 0.2288446 0.2291196 0.229889 0.23139 0.2328903
 0.2336365 0.2334329 0.2325054 0.2310892 0.229323 0.2276382 0.2269819 0.2281448 0.2308046 0.2336444
 0.2355684 0.2365329 0.2369741 0.2365253 0.2337573 0.2278953 0.2209659 0.217239 0.2194632 0.2259968
 0.232574 0.2365032 0.2381509 0.2389412 0.2394339 0.2391665 0.2369379 0.2314774 0.2234598 0.2167514
 0.2157915 0.2212048 0.2290951 0.2346729 0.2355002 0.2317477 0.2253565 0.2194672 0.2171299 0.2194553
 0.2251295 0.2317083 0.2370882 0.2400948 0.2404616 0.2387009 0.2360803 0.2343291 0.2343797 0.2349864
 0.2336757 0.2298692 0.2258387 0.2233754 0.2210371 0.2168376 0.2126147 0.2128174 0.218713 0.2262497
 0.230602 0.2310572 0.2301457 0.2290444 0.2255805 0.2173668 0.2063221 0.1987783 0.1999497 0.2085178
 0.2177999 0.2222902 0.2220389 0.2207109 0.2206971 0.2206688 0.2174442 0.210138 0.2023056 0.1989715
 0.2012945 0.2055344 0.2074936 0.2058745 0.2008424 0.1926798 0.1841707 0.181482 0.188984 0.2039214
 0.218552 0.2265106 0.2251606 0.2142532 0.1968435 0.1811498 0.176562 0.1852446 0.1995115 0.2088872
 0.2084349 0.1996809 0.1861356 0.1708612 0.1578749 0.1526558 0.1588913 0.1747078 0.19263 0.2032908
 0.200642 0.1866838 0.1718951 0.1677106 0.1761067 0.1881977 0.1941529 0.1921064 0.1868286 0.1836078
 0.1851889 0.1912069 0.1985732 0.2043957 0.2082904 0.2091464 0.2020438 0.184177 0.1626979 0.1499893
 0.150808 0.1598973 0.1719023 0.1861573 0.2001525 0.2062479 0.2002848 0.1894326 0.1860565 0.1945901
 0.2077549 0.2154651 0.2148041 0.2105354 0.2077658 0.2065309 0.2043303 0.201975 0.2037909 0.21163
 0.2216067 0.2284327 0.2309225 0.2314864 0.2320603 0.2326419 0.2326826 0.2319854 0.2306235 0.2290745
 0.2280741 0.227791 0.2276659 0.2272496 0.2261962 0.2230143 0.2153817 0.2034085 0.1917092 0.1857435
 0.1860331 0.1885485 0.1907143 0.1929123 0.1928769 0.1841156 0.1644748 0.1431774 0.1341074 0.14239
 0.1605736 0.1771303 0.1852939 0.1836534 0.1727134 0.1550924 0.1382572 0.1321678 0.1411363 0.1596811
 0.1783882 0.1920204 0.2000472 0.2021163 0.197107 0.1863733 0.1749952 0.1688487 0.1710479 0.1806056
 0.1927423 0.2000777 0.1962583 0.1823063 0.1693837 0.1705192 0.1869193 0.2059202 0.2152213 0.2153231
 0.2144487 0.2157633 0.2158497 0.2137429 0.2145051 0.2223153 0.2343409 0.2435347 0.2448285 0.2371347
 0.2226707 0.2074412 0.1996712 0.2031761 0.2129505 0.2205445 0.2221997 0.2183562 0.208689 0.1941772
 0.1823359 0.1826999 0.1957893 0.2118753 0.2220266 0.2262412 0.2293914 0.232826 0.2327216 0.225865
 0.2150153 0.207205 0.2068007 0.2117037 0.2169395 0.2199024 0.2203999 0.2177008 0.2109854 0.202729
 0.1987282 0.2030712 0.2138861 0.225058 0.2316724 0.233089 0.2315277 0.2291797 0.2267236 0.2234919
 0.2189473 0.2145964 0.2136938 0.2177725 0.2242163 0.2289539 0.2311195 0.2333406 0.2376018 0.2425081
 0.2449852 0.2436404 0.2400866 0.2375294 0.2381926 0.2415579 0.2447532 0.2449988 0.2422509 0.239496
 0.2400032 0.2442041 0.2496388 0.2537531 0.2559792 0.2571973 0.2582318 0.2591332 0.2591361 0.2572325
 0.2535955 0.2504159 0.2503509 0.2538885 0.2588847 0.2627827 0.2646843 0.2652082 0.2650768 0.26436
 0.2628923 0.2609638 0.2593419 0.25866 0.2589608 0.2598518 0.2609115 0.2618665 0.2625776 0.2630365
 0.26333 0.2635299 0.2636548 0.2637347 0.2638112 0.263853 0.2637829 0.2636381 0.2636027 0.2638052
 0.2641477 0.2644073 0.2644429 0.2642113 0.2636505 0.2626917 0.2613928 0.2599289 0.2584017 0.2567644
 0.2550505 0.2536437 0.2531771 0.2540588 0.2560876 0.2585687 0.2607932 0.2624035 0.2633944 0.2639197
 0.264151 0.2642303 0.2642424 0.2641986 0.2640679 0.263834 0.2635193 0.2631591 0.2627768 0.2623931
 0.2620396 0.2617395 0.261474 0.2611859 0.2608207 0.2603645 0.2598473 0.2593185 0.2588035 0.2582721
 0.2576528 0.2568909 0.2559943 0.2550273 0.2540716 0.2531911 0.2524031 0.2516666 0.250914 0.2501001
 0.2492053 0.2482002 0.2470659 0.2458696 0.2447662 0.2438768 0.2431843 0.2425697 0.241919 0.2411711
 0.2403079 0.2393462 0.2383288 0.2372884 0.2362192 0.2350949 0.2338989 0.2326268 0.2312733 0.2298318
 0.2283017 0.2266953 0.2250447 0.2233907 0.2217381 0.2200139 0.2180806 0.215791 0.213024 0.2096919
 0.2057626 0.2013008 0.196477 0.1915172 0.1866316 0.1819759 0.1776595 0.1737717 0.1703991 0.1676214
 0.1654984 0.1640619 0.1633252 0.1632961 0.1639754 0.1653337 0.1672944 0.16974 0.172532 0.1755169
 0.1785249 0.1813912 0.1840101 0.1863796 0.1885784 0.1906769 0.1926709 0.194506 0.1961439 0.197578
 0.1988024 0.1998099 0.2006238 0.2013007 0.2018915 0.2024124 0.2028578 0.2032258 0.2035286 0.2037833
 0.203999 0.2041818 0.2043497 0.204532 0.2047457 0.2049859 0.2052457 0.2055415 0.2059088 0.2063704
 0.2069088 0.2074746 0.2080297 0.208578 0.2091524 0.2097825 0.2104878 0.2112942 0.2122376 0.2133432
 0.2146017 0.2159643 0.2173584 0.2187067 0.2199343 0.2209698 0.2217574 0.2222751 0.2225421 0.2226081
 0.2225324 0.2223563 0.2220908 0.2217313 0.2212844 0.2207694 0.2201998 0.2195772 0.218904 0.2181922
 0.2174592 0.2167245 0.2160075 0.2153187 0.2146507 0.2139901 0.2133386 0.2127154 0.2121318 0.2115746
 0.2110198 0.2104576 0.2098936 0.2093323 0.2087669 0.2081782 0.207534 0.2068003 0.2059616 0.2050274
 0.2040122 0.2029181 0.2017403 0.2004762 0.1991262 0.197691 0.1961745 0.194586 0.1929357 0.1912247
 0.1894318 0.1875236 0.1855 0.1834298 0.1814209 0.179551 0.177835 0.1762469 0.1747537 0.1733349
 0.171986 0.1707073 0.1694911 0.1683275 0.1672145 0.166154 0.1651444 0.1641863 0.1632899 0.1624718
 0.1617483 0.161127 0.1605968 0.1601354 0.1597274 0.1593736 0.1590872 0.1588947 0.1588213 0.1588573
 0.1589437 0.1590025 0.1589808 0.1588715 0.1587114 0.1585545 0.1584367 0.1583639 0.1583251 0.1582875
 0.1581791 0.1579 0.1573559 0.1564821 0.155259 0.1537242 0.1519631 0.1500906 0.1482433 0.1465572
 0.145125 0.1439805 0.1431151 0.1424784 0.1419832 0.1415588 0.1412089 0.1410012 0.1410005 0.1411951
 0.1414638 0.1416448 0.1416862 0.1417067 0.1418837 0.1423052 0.1429344 0.143663 0.1443818 0.1450313
 0.1455891 0.146021 0.1462884 0.1464036 0.1464228 0.1463822 0.1462816 0.1461112 0.1458634 0.1455429
 0.1451696 0.1447439 0.1442348 0.1436278 0.1429436 0.1421937 0.1413749 0.1404954 0.1395359 0.1384367
 0.1372224 0.1361036 0.135372 0.1352121 0.1356141 0.1364049 0.1373732 0.1384076 0.1394488 0.140294
 0.1406564 0.140584 0.1406795 0.1416687 0.1437096 0.1462216 0.1484092 0.1498528 0.1505666 0.1506753
 0.1502422 0.1493112 0.1478891 0.1459185 0.143404 0.1404914 0.1373575 0.1341588 0.1311013 0.1283842
 0.1260913 0.1242348 0.1228139 0.1218619 0.1214934 0.1213133 0.119396 0.1133039 0.1038789 0.09689315
 0.09817474 0.1070423 0.1168042 0.1218161 0.1219493 0.1202256 0.1187182 0.117737 0.1171847 0.1172241
 0.1179911 0.1193198 0.1207846 0.1219643 0.1227037 0.1230639 0.1230182 0.1222105 0.1199004 0.1152167
 0.1078491 0.09865839 0.08939265 0.08167619 0.07627743 0.07310224 0.07152878 0.07077394 0.07028178 0.06998281
 0.07018861 0.07121517 0.0731187 0.07575467 0.07894233 0.08243316 0.08580708 0.08863828 0.09081362 0.09253062
 0.09395452 0.09502082 0.09558795 0.09563717 0.09527905 0.09466229 0.09392036 0.0931344 0.09227764 0.09123544
 0.08998246 0.08874267 0.08785509 0.08744849 0.0873571 0.08736399 0.08738783 0.08741888 0.08742577 0.08737566
 0.08727436 0.08718699 0.08724277 0.08754934 0.08806096 0.08858702 0.08895221 0.08912183 0.08918006 0.0891768
 0.08898065 0.08839341 0.08749433 0.08667751 0.08614906 0.08558117 0.08455199 0.08320539 0.08217502 0.08189034
 0.0821882 0.08258746 0.08273377 0.08256164 0.0822463 0.08211657 0.08244628 0.08314059 0.08371121 0.08373284
</values></Ydata></ScRf><Data_Parameters_AB><parameter name="DPF">1</parameter><parameter name="NPT">3497</parameter><parameter name="FXV">3996</parameter><parameter name="LXV">500</parameter><parameter name="CSF">1</parameter><parameter name="MXY">0.39569291472435</parameter><parameter name="MNY">-0.0831883102655411</parameter><parameter name="DAT">01/06/2022</parameter><parameter name="TIM">11:31:54.832 (GMT+2)</parameter><parameter name="DXU">WN</parameter></Data_Parameters_AB><AB__Qtest><MainReport name="Quality Test Report"><Header><Line><Legend>Test result ok/not ok [1/0]: </Legend><Value>0</Value></Line><Line><Legend>Method file: </Legend><Value>C:\Users\Public\Documents\Bruker\OPUS_8.2.28\QT\IRBT_v3_default.QT</Value></Line></Header><Matrix><Line><Legend></Legend><Legend>min</Legend><Legend>max</Legend><Legend>measured</Legend></Line><Line><Value>Absorption (X-Range 1):</Value><Value>0.400000</Value><Value>2.000000</Value><Value>0.313115</Value></Line><Line><Value>Noise (X-Range 4):</Value><Value></Value><Value>0.000300</Value><Value>0.000058</Value></Line><Line><Value>Signal/Noise (X-Range 2):</Value><Value>200.000000</Value><Value></Value><Value>125.901652</Value></Line><Line><Value>Signal/Noise (X-Range 3):</Value><Value>40.000000</Value><Value></Value><Value>50.992207</Value></Line><Line><Value>Water vapour (X-Range 5):</Value><Value></Value><Value>0.000300</Value><Value>0.000083</Value></Line><Line><Value>Signal/Water (X-Range 2):</Value><Value>100.000000</Value><Value></Value><Value>87.439492</Value></Line><Line><Value>Signal/Water (X-Range 3):</Value><Value>20.000000</Value><Value></Value><Value>35.414409</Value></Line><Line><Value>Fringes (X-Range 6):</Value><Value></Value><Value>0.000100</Value><Value>0.000060</Value></Line></Matrix></MainReport></AB__Qtest><Data_Parameters_ScSm><parameter name="DPF">1</parameter><parameter name="NPT">1814</parameter><parameter name="FXV">3996.33169228125</parameter><parameter name="LXV">499.541461535156</parameter><parameter name="CSF">1</parameter><parameter name="MXY">0.263868391513824</parameter><parameter name="MNY">0.0323673263192177</parameter><parameter name="DAT">01/06/2022</parameter><parameter name="TIM">11:31:54.832 (GMT+2)</parameter><parameter name="DXU">WN</parameter></Data_Parameters_ScSm><Data_Parameters_ScRf><parameter name="DPF">1</parameter><parameter name="NPT">1820</parameter><parameter name="FXV">4004.04661832813</parameter><parameter name="LXV">495.683998511719</parameter><parameter name="CSF">1</parameter><parameter name="MXY">0.265208154916763</parameter><parameter name="MNY">0.0285227634012699</parameter><parameter name="DAT">01/06/2022</parameter><parameter name="TIM">11:31:28.424 (GMT+2)</parameter><parameter name="DXU">WN</parameter></Data_Parameters_ScRf><Optic_Parameters_Rf><parameter name="APR">0</parameter><parameter name="APT">Open</parameter><parameter name="BMS">KBr</parameter><parameter name="DTC">RT-DLaTGS_IR-Biotyper [Microplate reader]</parameter><parameter name="HPF">0</parameter><parameter name="LPF">10.0</parameter><parameter name="LPV">4000</parameter><parameter name="PGR">0</parameter><parameter name="RCH">Module port</parameter><parameter name="RDX">0</parameter><parameter name="SRC">MIR</parameter><parameter name="VEL">10.0</parameter><parameter name="SON">Off</parameter></Optic_Parameters_Rf><Acquisition_Parameters_Rf><parameter name="ADT">1</parameter><parameter name="AQM">DD</parameter><parameter name="CFE">0</parameter><parameter name="COR">0</parameter><parameter name="DEL">0</parameter><parameter name="DLY">0</parameter><parameter name="HFW">8000</parameter><parameter name="LFW">0</parameter><parameter name="NSR">32</parameter><parameter name="PLF">AB</parameter><parameter name="RES">6</parameter><parameter name="RGN">-1</parameter><parameter name="STR">0</parameter><parameter name="TCL">MakeCompatibleScalar (0, {WSV=1.000000, ARV=0});</parameter><parameter name="TDL">37</parameter><parameter name="RPO">0</parameter></Acquisition_Parameters_Rf><FT_-_Parameters_Rf><parameter name="APF">B3</parameter><parameter name="HFQ">500</parameter><parameter name="LFQ">4000</parameter><parameter name="NLI">0</parameter><parameter name="PHR">24</parameter><parameter name="PHZ">ML</parameter><parameter name="SPZ">NO</parameter><parameter name="ZFF">1</parameter></FT_-_Parameters_Rf><Optic_Parameters_><parameter name="APR">0</parameter><parameter name="APT">Open</parameter><parameter name="BMS">KBr</parameter><parameter name="CHN">Module port</parameter><parameter name="DTC">RT-DLaTGS_IR-Biotyper [Microplate reader]</parameter><parameter name="HPF">0</parameter><parameter name="LPF">10.0</parameter><parameter name="LPV">4000</parameter><parameter name="PGN">0</parameter><parameter name="RDX">0</parameter><parameter name="SRC">MIR</parameter><parameter name="VEL">10.0</parameter><parameter name="SON">Off</parameter></Optic_Parameters_><FT_-_Parameters_><parameter name="APF">B3</parameter><parameter name="HFQ">500</parameter><parameter name="LFQ">4000</parameter><parameter name="NLI">0</parameter><parameter name="PHR">24</parameter><parameter name="PHZ">ML</parameter><parameter name="SPZ">NO</parameter><parameter name="ZFF">1</parameter></FT_-_Parameters_><Acquisition_Parameters_><parameter name="ADT">1</parameter><parameter name="AQM">DD</parameter><parameter name="CFE">0</parameter><parameter name="COR">0</parameter><parameter name="DEL">0</parameter><parameter name="DLY">0</parameter><parameter name="HFW">8000</parameter><parameter name="LFW">0</parameter><parameter name="NSS">32</parameter><parameter name="PLF">AB</parameter><parameter name="RES">6</parameter><parameter name="SOT">0</parameter><parameter name="TCL">MakeCompatibleScalar (0, {WSV=1.000000, ARV=0});</parameter><parameter name="TDL">37</parameter><parameter name="SPO">0</parameter><parameter name="SGN">-1</parameter></Acquisition_Parameters_><Instrument_Parameters_Rf><parameter name="HFL">15800.168544</parameter><parameter name="LFL">0</parameter><parameter name="LWN">15800.168544</parameter><parameter name="ABP">32197</parameter><parameter name="SSP">1</parameter><parameter name="ARG">2</parameter><parameter name="ASG">2</parameter><parameter name="ASS">32</parameter><parameter name="GFW">16</parameter><parameter name="GBW">16</parameter><parameter name="BFW">0</parameter><parameter name="BBW">0</parameter><parameter name="PKA">7307</parameter><parameter name="PKL">4990</parameter><parameter name="PRA">7484</parameter><parameter name="PRL">5001</parameter><parameter name="P2A">1</parameter><parameter name="P2L">1</parameter><parameter name="P2R">1</parameter><parameter name="P2K">1</parameter><parameter name="DAQ">0</parameter><parameter name="AG2">1</parameter><parameter name="SSM">1</parameter><parameter name="RSN">25907</parameter><parameter name="CRR">0</parameter><parameter name="SRT">1654083088.424</parameter><parameter name="DUR">19.6389923095703</parameter><parameter name="TSC">29</parameter><parameter name="MVD">0.553746938705444</parameter><parameter name="AN1">0.225789955179375</parameter><parameter name="AN2">0</parameter><parameter name="VSN">2.485 Apr  4 2017</parameter><parameter name="SRN">0085</parameter><parameter name="CAM">0</parameter><parameter name="INS">IR-Biotyper</parameter><parameter name="FOC">69</parameter><parameter name="RDY">1</parameter><parameter name="ARS">32</parameter></Instrument_Parameters_Rf><Sample_Parameters_><parameter name="BLD"></parameter><parameter name="CNM">Admin</parameter><parameter name="CPY"></parameter><parameter name="DPM"></parameter><parameter name="EXP">IRBT_v3_32Scans.XPM</parameter><parameter name="LCT"></parameter><parameter name="SFM">Microplate, HTS-XT</parameter><parameter name="SNM">220601-1028(v.3)_JMJ44M (D_2)_D5_db977cb9-63c9-42e1-9d11-1f2266f3b9f6.0</parameter><parameter name="XPP">C:\Users\Public\Documents\Bruker\OPUS_8.2.28\XPM</parameter><parameter name="IST">OK</parameter><parameter name="CPG">1252</parameter><parameter name="UID">4a66ba64-6f19-46f1-9169-d108737f98db</parameter></Sample_Parameters_><Instrument_Parameters_><parameter name="HFL">15800.168544</parameter><parameter name="LFL">0</parameter><parameter name="LWN">15800.168544</parameter><parameter name="ABP">32197</parameter><parameter name="SSP">1</parameter><parameter name="ASG">2</parameter><parameter name="ARG">2</parameter><parameter name="ASS">32</parameter><parameter name="GFW">16</parameter><parameter name="GBW">16</parameter><parameter name="BFW">0</parameter><parameter name="BBW">0</parameter><parameter name="PKA">6870</parameter><parameter name="PKL">4988</parameter><parameter name="PRA">7194</parameter><parameter name="PRL">4993</parameter><parameter name="P2A">1</parameter><parameter name="P2L">1</parameter><parameter name="P2R">1</parameter><parameter name="P2K">1</parameter><parameter name="DAQ">0</parameter><parameter name="AG2">1</parameter><parameter name="SSM">1</parameter><parameter name="RSN">13579</parameter><parameter name="CRR">0</parameter><parameter name="SRT">1654083114.833</parameter><parameter name="DUR">19.6389923095703</parameter><parameter name="TSC">29</parameter><parameter name="MVD">0.563797175884247</parameter><parameter name="AN1">0.225834798438906</parameter><parameter name="AN2">0</parameter><parameter name="VSN">2.485 Apr  4 2017</parameter><parameter name="SRN">0085</parameter><parameter name="CAM">0</parameter><parameter name="INS">IR-Biotyper</parameter><parameter name="FOC">69</parameter><parameter name="RDY">1</parameter></Instrument_Parameters_><History/></OPUSDataFile>
