<?xml version="1.0" encoding="UTF-8" ?>
<OPUSDataFile><AB><Ydata ylabel="Absorbance Units"><values byteorder="INTEL" format="FLOAT32" numvalues="3497"> -0.06727924 -0.06728546 -0.06730814 -0.06734901 -0.06738191 -0.06740552 -0.06740668 -0.06738672 -0.06735893 -0.06732527
 -0.06730555 -0.06729642 -0.06729783 -0.0673029 -0.06729363 -0.06727067 -0.06722315 -0.06716505 -0.06710601 -0.06706288
 -0.06705417 -0.06708134 -0.06715471 -0.06725375 -0.06737597 -0.06749339 -0.06759797 -0.06767647 -0.06772342 -0.06775085
 -0.06775848 -0.06777052 -0.0677883 -0.06782139 -0.0678684 -0.06791311 -0.06795347 -0.06796736 -0.06795833 -0.06792554
 -0.06787742 -0.06783401 -0.0677994 -0.06779205 -0.06780437 -0.06783698 -0.06787615 -0.06790978 -0.06793436 -0.06794161
 -0.06794382 -0.06794382 -0.06795076 -0.06797025 -0.06799084 -0.06801234 -0.06801797 -0.06800499 -0.06797869 -0.0679392
 -0.06791144 -0.06789616 -0.06791061 -0.06795169 -0.06801048 -0.06808176 -0.06814114 -0.06818808 -0.06820657 -0.06820493
 -0.06818719 -0.06816766 -0.06816537 -0.06818626 -0.06824715 -0.06832899 -0.06843124 -0.06851803 -0.06857404 -0.0685845
 -0.06853686 -0.06846018 -0.06835414 -0.0682677 -0.06820562 -0.06820223 -0.06825976 -0.06838216 -0.06856703 -0.06878439
 -0.06902735 -0.06923912 -0.06941491 -0.06950253 -0.06951176 -0.06943595 -0.06929621 -0.06912441 -0.0689358 -0.06876008
 -0.06860515 -0.06848686 -0.06840704 -0.06837323 -0.06837507 -0.06841262 -0.06846738 -0.06853449 -0.06860304 -0.06867002
 -0.06873426 -0.06879575 -0.06884912 -0.0688941 -0.06891854 -0.0689226 -0.0689046 -0.06886794 -0.06883231 -0.06880199
 -0.06880464 -0.0688389 -0.06891854 -0.06903236 -0.06916983 -0.06931604 -0.06944888 -0.0695608 -0.06963868 -0.06967946
 -0.06967685 -0.06963457 -0.06954625 -0.06944428 -0.0693301 -0.06925881 -0.06923971 -0.06931119 -0.069482 -0.06972749
 -0.07004765 -0.07030065 -0.07047992 -0.07044778 -0.07022796 -0.06990603 -0.06950705 -0.06917557 -0.06890577 -0.06875551
 -0.06870943 -0.06877295 -0.06891748 -0.06911956 -0.06933322 -0.0695131 -0.06963156 -0.06964934 -0.06960016 -0.06948236
 -0.06935243 -0.06922919 -0.06912394 -0.06904375 -0.06897056 -0.06890201 -0.06884042 -0.06878563 -0.06876068 -0.06876575
 -0.06880852 -0.06888461 -0.0689701 -0.06905963 -0.0691185 -0.06914838 -0.06913454 -0.06908447 -0.0690041 -0.06890026
 -0.0687819 -0.06865776 -0.0685356 -0.06842855 -0.06834493 -0.06829678 -0.06829166 -0.0683315 -0.06842128 -0.0685439
 -0.06870003 -0.0688554 -0.06900745 -0.06912006 -0.06919087 -0.06919664 -0.06913771 -0.06901592 -0.06883524 -0.06862104
 -0.06837905 -0.06814353 -0.06791983 -0.06773946 -0.06760243 -0.06752694 -0.06749979 -0.06751655 -0.06755263 -0.06758589
 -0.06760084 -0.06757773 -0.06752833 -0.06745011 -0.06736661 -0.06728482 -0.06721368 -0.06715663 -0.06711093 -0.06707636
 -0.06705452 -0.0670455 -0.06705013 -0.06706779 -0.06708839 -0.06711049 -0.06711866 -0.06711336 -0.06708708 -0.06704336
 -0.0669862 -0.06692165 -0.06686096 -0.06681159 -0.06678696 -0.0667918 -0.06683484 -0.06691683 -0.0670407 -0.06720545
 -0.06741489 -0.06765274 -0.06792288 -0.06817214 -0.06839418 -0.06853323 -0.06857986 -0.06853376 -0.06839419 -0.06817492
 -0.06787661 -0.06750435 -0.06706633 -0.06661967 -0.06617701 -0.0658228 -0.06555492 -0.0654164 -0.0653855 -0.06545125
 -0.06557331 -0.06569665 -0.06579656 -0.06582351 -0.06580123 -0.06572648 -0.06563567 -0.06554534 -0.06546822 -0.06541519
 -0.06536762 -0.06532592 -0.06525885 -0.06516166 -0.06502949 -0.06486119 -0.06468511 -0.06450301 -0.06434805 -0.06421985
 -0.06413469 -0.0640853 -0.06405532 -0.0640296 -0.0639559 -0.06383477 -0.06363475 -0.06338489 -0.06311196 -0.06283013
 -0.06256779 -0.06230708 -0.06204626 -0.06176544 -0.06145115 -0.06111268 -0.06074613 -0.06038207 -0.06002624 -0.05969463
 -0.05939207 -0.05909937 -0.05881623 -0.05849415 -0.05813178 -0.05770068 -0.05720892 -0.05670265 -0.0561889 -0.05572601
 -0.05530357 -0.05492254 -0.05457355 -0.05423931 -0.05391652 -0.05359921 -0.05327098 -0.05292065 -0.05252004 -0.05204615
 -0.05149334 -0.05085222 -0.05013148 -0.04933502 -0.04845147 -0.04747545 -0.04642514 -0.04529779 -0.04415892 -0.04301294
 -0.04189721 -0.04081182 -0.03975038 -0.0387127 -0.03769515 -0.03669909 -0.03573055 -0.03478581 -0.03385839 -0.03294335
 -0.03203135 -0.03111181 -0.03018002 -0.02919038 -0.02810568 -0.02687883 -0.02544071 -0.02387836 -0.02219392 -0.02053769
 -0.01897087 -0.01749182 -0.01611877 -0.01476764 -0.01342895 -0.01206206 -0.01066254 -0.009248923 -0.007823146 -0.006428645
 -0.005063783 -0.003745457 -0.002453494 -0.0011186 0.0002909194 0.001919405 0.003729454 0.005747409 0.007852484 0.009877188
 0.01180081 0.01351963 0.0151326 0.01667104 0.01821588 0.01982062 0.02147979 0.02321014 0.02495313 0.02669713
 0.028421 0.03011581 0.03182906 0.0335626 0.03538677 0.03730219 0.03931179 0.04140315 0.04347893 0.04553273
 0.04747818 0.04933406 0.05110667 0.05281815 0.05451416 0.05620491 0.05792198 0.05966897 0.06146543 0.0632925
 0.06515058 0.06699938 0.06881315 0.0706021 0.07235069 0.07414424 0.07600014 0.07795762 0.0800341 0.08212823
 0.08423483 0.0862482 0.08816767 0.09001284 0.09179124 0.09357322 0.09535716 0.09717628 0.09901713 0.1008615
 0.102693 0.1044654 0.1061864 0.1078324 0.1094583 0.1110997 0.1128203 0.1146885 0.1166752 0.1188049
 0.1209563 0.1230944 0.1251578 0.1271205 0.1290124 0.1308328 0.1326198 0.1343761 0.1361272 0.1378743
 0.1396393 0.1414218 0.1432277 0.1450558 0.1469017 0.1487685 0.1506631 0.1525859 0.1545459 0.1565294
 0.158525 0.1605113 0.1624632 0.1643703 0.1662137 0.1680086 0.1697511 0.1714802 0.173207 0.1749574
 0.1767437 0.1785422 0.1803529 0.1821387 0.1838957 0.1856322 0.1873492 0.1890787 0.1908195 0.1925745
 0.1943401 0.1960998 0.1978537 0.1995955 0.2013215 0.2030221 0.2046922 0.2063169 0.2079066 0.2094621
 0.2110052 0.2125508 0.2141109 0.2156967 0.2173038 0.2189361 0.2205733 0.2222134 0.2238318 0.2254232
 0.2269927 0.2285396 0.2300956 0.2316611 0.2332334 0.2348081 0.23634 0.2378317 0.2392684 0.2406632
 0.2420504 0.2434316 0.2448299 0.2462308 0.2476222 0.2489974 0.2503427 0.2516655 0.2529652 0.2542538
 0.255535 0.256824 0.2581275 0.259448 0.2607907 0.2621309 0.263466 0.2647769 0.2660609 0.2673298
 0.2685836 0.2698275 0.2710585 0.2722524 0.2734101 0.2745211 0.2755952 0.2766563 0.2777096 0.2787784
 0.2798587 0.2809552 0.2820618 0.2831759 0.2842878 0.2853909 0.2864772 0.2875389 0.2885837 0.2896128
 0.2906313 0.2916434 0.2926308 0.2935906 0.2945175 0.2954091 0.296303 0.2972009 0.2981377 0.2991108
 0.3001104 0.3011331 0.3021558 0.3031797 0.3041987 0.3052114 0.3062131 0.3072013 0.3081686 0.3091178
 0.3100493 0.3109634 0.3118616 0.3127399 0.3135944 0.3144316 0.3152517 0.3160659 0.316878 0.3176863
 0.3184908 0.3192898 0.3200826 0.3208792 0.3216798 0.3224849 0.323293 0.3240909 0.3248796 0.3256582
 0.326427 0.3271896 0.3279378 0.3286545 0.3293384 0.3299728 0.3305825 0.3311829 0.3318033 0.3324752
 0.3331898 0.3339594 0.334736 0.3355086 0.3362341 0.3368965 0.3375018 0.3380444 0.3385774 0.3391049
 0.3396619 0.3402486 0.3408242 0.3413835 0.341856 0.3422485 0.3425518 0.3427864 0.3430104 0.3432382
 0.3435307 0.3438845 0.3443249 0.3448302 0.3453928 0.3459798 0.3465621 0.3471342 0.3476726 0.348235
 0.3488307 0.3495255 0.3503473 0.3512583 0.3522686 0.3532303 0.354133 0.3548532 0.3553871 0.3557469
 0.3559436 0.3560882 0.356187 0.35633 0.356511 0.3567519 0.3570565 0.3574379 0.3579139 0.3585261
 0.3592546 0.3601154 0.3610208 0.3619194 0.3627338 0.3633962 0.3639401 0.3643466 0.3647298 0.3651118
 0.3655692 0.3661218 0.3667531 0.3674659 0.3681858 0.3689091 0.3695579 0.3701328 0.3706026 0.3709813
 0.3713161 0.3716303 0.3720227 0.3725039 0.3731525 0.3739435 0.3748862 0.3759187 0.3769869 0.3780287
 0.3789747 0.3798234 0.3805421 0.381201 0.3818133 0.3824478 0.3831261 0.3838598 0.384653 0.3855054
 0.3864153 0.3874237 0.3885325 0.3897727 0.3911358 0.3925554 0.3940072 0.3953328 0.3965168 0.3974148
 0.3980554 0.398411 0.3985626 0.3986099 0.3986373 0.3987814 0.3990475 0.3995064 0.4000529 0.4006693
 0.4012106 0.4016223 0.4018258 0.401782 0.401529 0.4010583 0.4004879 0.3998262 0.3991749 0.3985384
 0.3979321 0.3973514 0.3967528 0.3961352 0.3954698 0.3947645 0.3940318 0.393275 0.3925145 0.3917326
 0.3909218 0.3900362 0.3890312 0.3878565 0.3864527 0.3848262 0.3829434 0.3809057 0.378726 0.3765451
 0.3743983 0.3723661 0.3704709 0.3687002 0.3670576 0.3654809 0.3639669 0.3624457 0.360916 0.3593343
 0.3577097 0.3560635 0.3544134 0.3528329 0.3513209 0.3499216 0.3485986 0.3473184 0.3460426 0.344708
 0.3433238 0.3418637 0.3403896 0.3389203 0.3375239 0.3362324 0.3350641 0.3340393 0.3330999 0.3322473
 0.3313739 0.3304706 0.3294613 0.3283429 0.3271345 0.3258431 0.3245531 0.3232675 0.3220493 0.3208902
 0.3197961 0.3187595 0.3177661 0.3168145 0.3159 0.3150139 0.3141495 0.3132872 0.312409 0.3115079
 0.31057 0.3096164 0.3086494 0.3076941 0.3067597 0.3058434 0.3049484 0.3040495 0.3031447 0.3022162
 0.3012631 0.3002869 0.2992888 0.2982806 0.2972641 0.2962554 0.2952565 0.2942846 0.2933367 0.2924181
 0.2915148 0.2906092 0.289686 0.2887183 0.2877089 0.2866461 0.2855537 0.28444 0.2833269 0.2822274
 0.281138 0.2800628 0.2789799 0.2778858 0.2767692 0.2756276 0.2744766 0.2733171 0.2721757 0.2710527
 0.2699586 0.2688908 0.2678391 0.2668013 0.2657641 0.2647285 0.2636907 0.2626516 0.261612 0.2605698
 0.2595224 0.2584691 0.257404 0.2563418 0.2552824 0.2542621 0.253293 0.2524037 0.2516113 0.2508827
 0.2502238 0.2495366 0.2488134 0.2479699 0.2470015 0.2459184 0.2447284 0.2435282 0.2423272 0.2412312
 0.2402353 0.2393872 0.2386581 0.2380148 0.2374125 0.2367636 0.2360457 0.2351849 0.2342247 0.2331603
 0.2320811 0.2310359 0.2300695 0.229222 0.2284479 0.2277466 0.2270594 0.2263698 0.2257003 0.2250478
 0.2244953 0.2240469 0.2237366 0.223557 0.2234287 0.2233355 0.2231387 0.2228382 0.2223483 0.2217022
 0.2209267 0.2200699 0.2192259 0.2184112 0.2176913 0.2170325 0.2164308 0.2158512 0.215263 0.2146886
 0.2141235 0.2136176 0.2131902 0.2128308 0.212548 0.2122646 0.211973 0.21163 0.2112328 0.2108307
 0.2104283 0.2100992 0.2098385 0.2096563 0.2095391 0.2094431 0.2093622 0.2092595 0.2091387 0.2089912
 0.2088176 0.2086194 0.2083844 0.2081091 0.2077661 0.2073419 0.206811 0.2061538 0.2053893 0.2045061
 0.2035939 0.2026601 0.2018113 0.2010617 0.2004344 0.1999318 0.1994614 0.1990161 0.1984733 0.1978374
 0.1970661 0.1961827 0.1952466 0.1942799 0.1933689 0.1925111 0.1917466 0.1910495 0.1904085 0.1897936
 0.1891784 0.1885423 0.1878652 0.1871462 0.1863746 0.1855812 0.1847677 0.1839812 0.1832326 0.1825281
 0.1818737 0.1812037 0.1805147 0.1797379 0.1788761 0.1779512 0.1769757 0.1760438 0.1751532 0.1743534
 0.1736153 0.1728917 0.1721626 0.1713617 0.1705136 0.1696149 0.1687101 0.1678389 0.1670122 0.1662517
 0.1655374 0.1648622 0.164229 0.1636318 0.1631067 0.1626607 0.1623067 0.1620511 0.1618408 0.1616734
 0.1614569 0.1611881 0.160802 0.1603055 0.1597025 0.1590113 0.1582966 0.1575791 0.1569415 0.1563943
 0.1559947 0.155736 0.1556361 0.1556745 0.1558431 0.1561185 0.1564862 0.1569298 0.1574403 0.1580078
 0.1586286 0.1592948 0.1600032 0.1607579 0.1615562 0.1624376 0.163404 0.1645254 0.1658037 0.167285
 0.1689604 0.170802 0.1727912 0.1748446 0.1769506 0.1790364 0.1811078 0.1831404 0.1851484 0.1871397
 0.1891235 0.1911108 0.1931047 0.1951092 0.1971285 0.1991656 0.2012216 0.2033018 0.2053839 0.2074712
 0.2095016 0.2114725 0.2132928 0.2149572 0.2163792 0.2175561 0.2184344 0.2190162 0.2192841 0.2192488
 0.21893 0.2183606 0.2176156 0.2167609 0.2159319 0.2152041 0.2147247 0.2145231 0.2146858 0.2151695
 0.2159808 0.2170485 0.2183436 0.2198305 0.2214918 0.2233265 0.2253342 0.2275015 0.2298298 0.232274
 0.2348318 0.2374445 0.2401094 0.2427749 0.2454414 0.2480837 0.2507098 0.253336 0.2559712 0.2586566
 0.2613716 0.2641282 0.2668246 0.2693946 0.2716002 0.2732804 0.2740773 0.2737585 0.272046 0.2687194
 0.2638962 0.2574762 0.2500793 0.2417447 0.2333113 0.2248672 0.2170393 0.2098748 0.2035712 0.1981204
 0.193387 0.189346 0.1857681 0.182641 0.1797999 0.1772391 0.1748668 0.1726689 0.1705811 0.1685917
 0.1666553 0.1647857 0.1629728 0.1612529 0.1596436 0.1581738 0.1568615 0.155711 0.1547282 0.1539043
 0.1532386 0.1527228 0.1523559 0.1521331 0.1520541 0.1521114 0.1523026 0.1525914 0.1529653 0.1533259
 0.1536521 0.1538043 0.1537794 0.1534843 0.1529615 0.1522287 0.1513659 0.1504703 0.1496224 0.1489196
 0.1484169 0.1481714 0.1482129 0.1485628 0.1492458 0.1502663 0.1516691 0.1534619 0.1556876 0.1583656
 0.1613771 0.1647246 0.1678942 0.1708377 0.1726633 0.1733329 0.1720903 0.1690513 0.1642051 0.1578411
 0.1506815 0.1430029 0.1356533 0.1287126 0.1226523 0.1173508 0.1128787 0.1090462 0.1057607 0.1028864
 0.1003451 0.09807225 0.09603744 0.09420294 0.09255955 0.09107448 0.08974398 0.0885387 0.08745683 0.08646459
 0.08555973 0.08470073 0.0838859 0.08308139 0.08228991 0.08150233 0.08072668 0.07997916 0.07926685 0.07861322
 0.078013 0.07747464 0.07697448 0.07649833 0.07601675 0.07550583 0.07495663 0.07435321 0.07372324 0.07306601
 0.07243232 0.07183161 0.0712972 0.07083734 0.07043248 0.07008276 0.06973069 0.0693744 0.06897953 0.06855096
 0.06810969 0.06765997 0.06723554 0.06682597 0.06642251 0.06600907 0.06554667 0.06503982 0.06447113 0.06387085
 0.06325724 0.0626617 0.06211009 0.06161439 0.06118855 0.06082317 0.06052249 0.0602555 0.0600207 0.05977056
 0.05949944 0.05917361 0.0587895 0.05835954 0.05788578 0.0574135 0.05694393 0.05650872 0.05610318 0.05572435
 0.05536756 0.05501707 0.0546747 0.05433598 0.0540053 0.05368747 0.05338288 0.05309388 0.05281887 0.05255667
 0.05230903 0.05207707 0.0518596 0.05165937 0.05146029 0.05126189 0.05103723 0.05078247 0.05048569 0.05014503
 0.04978105 0.04939544 0.04902457 0.04866851 0.0483462 0.04805271 0.04777744 0.04751509 0.04724394 0.04696574
 0.04667119 0.04637025 0.04607181 0.04578475 0.04552356 0.04528192 0.04506526 0.04484778 0.04462168 0.0443604
 0.04405179 0.04369496 0.04328396 0.04284843 0.04239003 0.04194411 0.04151352 0.04111331 0.0407434 0.04039604
 0.04006993 0.03975128 0.03943998 0.03912812 0.03881662 0.03850362 0.03819091 0.03788016 0.03757501 0.0372808
 0.03700044 0.03674023 0.0364957 0.03626837 0.03604497 0.03582058 0.03558408 0.03532948 0.03505957 0.03477244
 0.03448182 0.03418909 0.03390461 0.03362944 0.03336293 0.033105 0.03285237 0.03260595 0.03237166 0.03215099
 0.03195545 0.0317822 0.03163156 0.03149434 0.03135328 0.03120079 0.03101746 0.03080596 0.03056035 0.03029004
 0.02999923 0.02969529 0.02938175 0.02906559 0.02874838 0.02844036 0.02814419 0.02786409 0.02760209 0.0273474
 0.02709952 0.02684534 0.02658469 0.02631932 0.02605054 0.02579077 0.02553941 0.02530111 0.02507257 0.02484641
 0.02462089 0.024388 0.02415051 0.02390842 0.02366567 0.02342646 0.02319183 0.0229639 0.02274186 0.02252494
 0.02231614 0.02211559 0.02192891 0.02175833 0.02160073 0.02145736 0.02131102 0.02116073 0.02098872 0.02079461
 0.02057694 0.02033738 0.02008948 0.01983456 0.01958613 0.01934349 0.01911186 0.01888948 0.01867551 0.01846804
 0.01826438 0.01806267 0.01786018 0.01765594 0.01744803 0.01723806 0.01702569 0.01681483 0.01660651 0.01640393
 0.01620845 0.01601848 0.01583464 0.01564857 0.01545978 0.01525933 0.01504706 0.01482402 0.01459165 0.01436294
 0.01413904 0.01393328 0.01374337 0.01357044 0.0134095 0.01325081 0.01309181 0.01292366 0.01274933 0.01256793
 0.01238446 0.01220288 0.01202332 0.01184826 0.01167101 0.01149028 0.01129965 0.01109671 0.0108834 0.0106588
 0.01043385 0.01020919 0.009996115 0.009795002 0.00960865 0.009436222 0.00927149 0.009113505 0.008954162 0.008793998
 0.008630055 0.008464109 0.008298341 0.008134114 0.00797468 0.007819462 0.007669351 0.007522628 0.007378374 0.007235446
 0.00709305 0.006950803 0.006808572 0.006665526 0.006521475 0.006375825 0.006228351 0.006080055 0.005931019 0.005781789
 0.005632298 0.005479234 0.005322435 0.005158279 0.004988088 0.004815695 0.00464374 0.004482876 0.00433311 0.00420143
 0.004081829 0.003969853 0.003857198 0.003732992 0.003595561 0.003437842 0.003269913 0.00309301 0.002922098 0.002762931
 0.002621363 0.002501444 0.002393416 0.002297059 0.002198669 0.002096796 0.001989855 0.001877969 0.001770859 0.001668378
 0.001574029 0.001485059 0.001389891 0.001286029 0.001158522 0.001009626 0.0008356071 0.000642623 0.0004377028 0.0002261296
 1.576877E-05 -0.0001907274 -0.0003893412 -0.0005787852 -0.0007571899 -0.0009254693 -0.001082827 -0.001233735 -0.00137867 -0.001523036
 -0.001667772 -0.001815006 -0.001965135 -0.002116052 -0.002267625 -0.00241617 -0.002561642 -0.00270193 -0.002837583 -0.002969964
 -0.003100099 -0.003231957 -0.003365975 -0.00350529 -0.003649029 -0.003797604 -0.003949094 -0.004101896 -0.004254046 -0.004403755
 -0.00454972 -0.004690766 -0.004826779 -0.004957156 -0.005083622 -0.005206069 -0.005328164 -0.005450264 -0.005576173 -0.005706325
 -0.005841526 -0.005981722 -0.00612217 -0.006262394 -0.00639537 -0.006521729 -0.006640216 -0.006753328 -0.006868374 -0.006986916
 -0.007117023 -0.007255831 -0.007403845 -0.007554515 -0.007701525 -0.007839697 -0.007962627 -0.008070729 -0.008161034 -0.008241242
 -0.008312088 -0.008385026 -0.008462836 -0.0085522 -0.008655479 -0.0087666 -0.008885707 -0.008998476 -0.009104273 -0.009195445
 -0.009273029 -0.009344761 -0.009412336 -0.009489379 -0.009574658 -0.009672364 -0.009778229 -0.009884948 -0.009989813 -0.01008453
 -0.01017135 -0.01024885 -0.01032176 -0.01039301 -0.01046585 -0.01054285 -0.01062477 -0.01071283 -0.01080505 -0.01090181
 -0.01099758 -0.01109172 -0.01117948 -0.01126013 -0.01133619 -0.01140783 -0.01148275 -0.01156083 -0.01164411 -0.01173111
 -0.01181483 -0.01189477 -0.01196462 -0.01202703 -0.0120844 -0.01213972 -0.01219943 -0.01226268 -0.01233173 -0.01240278
 -0.01247341 -0.01254205 -0.01260671 -0.01266934 -0.01273052 -0.01279041 -0.0128498 -0.01290438 -0.01295357 -0.01299458
 -0.01302669 -0.01305602 -0.01308293 -0.01311745 -0.01315966 -0.01321367 -0.01327912 -0.01335548 -0.01344414 -0.01354838
 -0.01367179 -0.01382321 -0.01400664 -0.01423127 -0.01450142 -0.01482384 -0.01520457 -0.01564995 -0.01616368 -0.01675124
 -0.0174059 -0.01812847 -0.01890386 -0.0197278 -0.02059622 -0.02150683 -0.02246946 -0.02348573 -0.02454904 -0.02565852
 -0.02675778 -0.02783852 -0.02879478 -0.02961226 -0.0301597 -0.03042733 -0.03030338 -0.02980996 -0.0289153 -0.02771095
 -0.02630339 -0.02482075 -0.02344549 -0.02223748 -0.02130638 -0.02063757 -0.02025331 -0.02012055 -0.02023838 -0.02055588
 -0.02107622 -0.02167697 -0.02235111 -0.02291901 -0.02336082 -0.02360776 -0.02365657 -0.02359137 -0.02341815 -0.02323151
 -0.02303021 -0.02285665 -0.02270431 -0.02257584 -0.02246156 -0.02234161 -0.02220853 -0.02204108 -0.02183869 -0.02159123
 -0.0213054 -0.02097939 -0.02063146 -0.02026629 -0.0199129 -0.01958248 -0.019293 -0.01905351 -0.018856 -0.01870222
 -0.01856926 -0.01845524 -0.01834324 -0.01823234 -0.01812035 -0.01800802 -0.01790389 -0.01780859 -0.01773044 -0.01766834
 -0.01762335 -0.01759318 -0.0175729 -0.01756158 -0.01755502 -0.01755469 -0.01756059 -0.01757407 -0.01759705 -0.01762722
 -0.01766438 -0.01770471 -0.01774615 -0.01778941 -0.01783356 -0.01788407 -0.01794187 -0.0180092 -0.01808677 -0.018169
 -0.01825562 -0.01833965 -0.01842131 -0.01850116 -0.0185801 -0.01866409 -0.01875258 -0.01884744 -0.01894608 -0.0190431
 -0.01913739 -0.01922385 -0.01930517 -0.01938207 -0.01945809 -0.01953704 -0.01961815 -0.01970301 -0.01978655 -0.01986725
 -0.01994161 -0.02000777 -0.02006815 -0.02012243 -0.02017643 -0.02023068 -0.02028911 -0.02035194 -0.0204195 -0.02049158
 -0.02056579 -0.02064157 -0.02071444 -0.02078392 -0.02084554 -0.02090028 -0.02094761 -0.02099019 -0.02103225 -0.02107527
 -0.02112313 -0.02117447 -0.02122944 -0.02128676 -0.02134511 -0.02140638 -0.02147087 -0.02154057 -0.02161666 -0.02169659
 -0.02178055 -0.0218628 -0.02194284 -0.02201637 -0.02208314 -0.02214192 -0.02219285 -0.02223716 -0.02227553 -0.02231249
 -0.02234893 -0.02239084 -0.02243757 -0.02249129 -0.02254931 -0.02260782 -0.02266595 -0.02271995 -0.02277374 -0.02282878
 -0.02288959 -0.0229605 -0.02303833 -0.02312447 -0.02320847 -0.02328802 -0.0233556 -0.02340879 -0.02345035 -0.02347986
 -0.02350696 -0.02353217 -0.02356408 -0.02360275 -0.02365091 -0.0237078 -0.02377031 -0.02383765 -0.02390515 -0.02397302
 -0.02403925 -0.02410486 -0.02417092 -0.0242373 -0.02430468 -0.02437138 -0.02443613 -0.02449828 -0.0245565 -0.0246132
 -0.02466863 -0.02472629 -0.02478744 -0.02485233 -0.02492178 -0.02499086 -0.02505933 -0.02512131 -0.02517644 -0.02522428
 -0.02526523 -0.02530489 -0.02534373 -0.02538763 -0.02543624 -0.02549165 -0.02555282 -0.02561866 -0.0256875 -0.02575647
 -0.02582337 -0.02588407 -0.02593867 -0.02598464 -0.02602698 -0.02606708 -0.02611125 -0.02616323 -0.0262221 -0.02628976
 -0.02635643 -0.026421 -0.02647473 -0.02651611 -0.02654705 -0.02656752 -0.02658899 -0.02661203 -0.02664722 -0.02669393
 -0.02675407 -0.02682585 -0.02690381 -0.0269863 -0.02706642 -0.02714374 -0.02721419 -0.02727851 -0.02733562 -0.02738749
 -0.02743513 -0.02748077 -0.02752584 -0.02757192 -0.0276198 -0.02767085 -0.02772571 -0.02778438 -0.02784748 -0.0279108
 -0.02797433 -0.02803019 -0.02807789 -0.02811398 -0.0281389 -0.02815905 -0.02817568 -0.02820016 -0.02823267 -0.02828031
 -0.0283416 -0.02841689 -0.02850368 -0.02859853 -0.02869787 -0.02879673 -0.02889105 -0.02897555 -0.02904916 -0.02910855
 -0.02915875 -0.0292 -0.0292406 -0.02928304 -0.02933121 -0.02938682 -0.02944644 -0.02951003 -0.02957242 -0.02963327
 -0.029692 -0.02974881 -0.02980709 -0.02986695 -0.02993091 -0.02999854 -0.03006972 -0.0301438 -0.03021941 -0.03029557
 -0.0303702 -0.0304421 -0.0305088 -0.03057034 -0.03062528 -0.03067623 -0.03072394 -0.03077176 -0.03082142 -0.03087383
 -0.03093003 -0.03098745 -0.03104598 -0.03110215 -0.03115548 -0.0312047 -0.03124966 -0.03129192 -0.03133173 -0.0313731
 -0.03141652 -0.03146737 -0.03152572 -0.03159543 -0.03167484 -0.03176245 -0.03185496 -0.03194593 -0.03203321 -0.03211096
 -0.03218046 -0.0322403 -0.03229395 -0.03234274 -0.03239027 -0.03243764 -0.03248959 -0.03254724 -0.03261553 -0.03269612
 -0.03278756 -0.03289069 -0.03299334 -0.03309489 -0.03318106 -0.03325175 -0.03330448 -0.03334104 -0.03337221 -0.03339966
 -0.03343607 -0.0334809 -0.03353964 -0.03361005 -0.03369125 -0.03377981 -0.03387192 -0.03396302 -0.03404807 -0.03412406
 -0.03418652 -0.03423944 -0.03428193 -0.03432405 -0.03436844 -0.03442161 -0.03448632 -0.03455731 -0.034635 -0.034706
 -0.03476946 -0.03481654 -0.03484749 -0.03486665 -0.03487569 -0.03488846 -0.03490567 -0.03493839 -0.0349841 -0.03504257
 -0.03510955 -0.03517688 -0.03524296 -0.03530128 -0.03535531 -0.0354051 -0.0354562 -0.03551276 -0.03557525 -0.03564639
 -0.03571867 -0.03579134 -0.0358544 -0.03590541 -0.03594169 -0.03596208 -0.03597307 -0.03597493 -0.03597582 -0.03597601
 -0.03598019 -0.03598832 -0.03600243 -0.03602207 -0.03604696 -0.03607594 -0.03610592 -0.03613595 -0.0361626 -0.03618631
 -0.03620582 -0.03622301 -0.03623891 -0.03625552 -0.03627487 -0.03629598 -0.03632011 -0.03634096 -0.0363572 -0.03636325
 -0.03635682 -0.03634232 -0.03631936 -0.0362994 -0.03628325 -0.03627561 -0.03627623 -0.03627903 -0.03628338 -0.03628146
 -0.03627384 -0.03625828 -0.03623662 -0.03621218 -0.03618748 -0.03616873 -0.03615708 -0.03615756 -0.03616706 -0.03618583
 -0.03620689 -0.03622641 -0.03623845 -0.03623905 -0.03622759 -0.03620216 -0.03616827 -0.03612606 -0.03608393 -0.0360429
 -0.0360079 -0.03597943 -0.03595556 -0.03593621 -0.03591903 -0.03590445 -0.03589504 -0.03589052 -0.03589182 -0.03589668
 -0.03589922 -0.03589839 -0.03588877 -0.03587238 -0.03585007 -0.03582256 -0.03579167 -0.03575482 -0.03571041 -0.03565848
 -0.03559753 -0.0355329 -0.03546557 -0.03540071 -0.03533987 -0.03528308 -0.03523092 -0.03517827 -0.03512482 -0.03506617
 -0.0350024 -0.0349365 -0.03486884 -0.03480435 -0.03474174 -0.03467819 -0.03461219 -0.03453665 -0.03445457 -0.03436734
 -0.03428034 -0.03420224 -0.03413325 -0.03407778 -0.03403078 -0.03399052 -0.03395258 -0.03391478 -0.03387404 -0.03382908
 -0.03377806 -0.03371988 -0.0336575 -0.03359106 -0.03352401 -0.03345672 -0.03338692 -0.03331464 -0.03324017 -0.03316482
 -0.03309957 -0.03304478 -0.03301011 -0.03299016 -0.03297669 -0.03296052 -0.0329187 -0.03285019 -0.0327397 -0.03260267
 -0.0324458 -0.03228826 -0.03214613 -0.03202301 -0.03192797 -0.03184437 -0.03177044 -0.0316863 -0.03158633 -0.03146845
 -0.03133047 -0.03118689 -0.03103844 -0.03090034 -0.03077315 -0.03066622 -0.0305785 -0.03050803 -0.03044991 -0.03038212
 -0.03030002 -0.03017546 -0.030016 -0.02982031 -0.02960343 -0.02938604 -0.02917495 -0.0289838 -0.02881423 -0.02867103
 -0.02855415 -0.02846734 -0.02839867 -0.02834854 -0.02829171 -0.02822375 -0.02812492 -0.02799119 -0.02782213 -0.02761695
 -0.02739022 -0.027143 -0.02689785 -0.02665568 -0.02643534 -0.02623443 -0.02605308 -0.02588689 -0.02572279 -0.02555978
 -0.02539001 -0.02521345 -0.02502796 -0.02483059 -0.0246163 -0.02438827 -0.0241444 -0.02389735 -0.02365308 -0.02341643
 -0.02319189 -0.02297139 -0.02275394 -0.02253371 -0.02230939 -0.02208296 -0.02185454 -0.02162477 -0.02139344 -0.02115547
 -0.02090933 -0.0206407 -0.02034761 -0.02001046 -0.0196351 -0.01922536 -0.01879432 -0.01837244 -0.01796039 -0.01757574
 -0.01720362 -0.01683554 -0.01646152 -0.01606895 -0.01566606 -0.01525237 -0.01484033 -0.01443497 -0.01403777 -0.01365218
 -0.01326282 -0.01287058 -0.0124382 -0.01196277 -0.01142049 -0.01081206 -0.01017632 -0.009516292 -0.008878831 -0.00825582
 -0.007635399 -0.007006316 -0.006326992 -0.005598069 -0.004798839 -0.003940003 -0.00302701 -0.00207101 -0.001084741 -7.457381E-05
 0.000944715 0.001995475 0.003073004 0.004242266 0.005525343 0.006951793 0.008546015 0.01022097 0.01197041 0.01370602
 0.01541774 0.01712674 0.01883407 0.02057316 0.02233896 0.02409562 0.02584349 0.02755631 0.02925754 0.03100683
 0.032815 0.03475089 0.03676498 0.03881976 0.04086501 0.04282079 0.04471697 0.04654208 0.04835546 0.05018499
 0.05205553 0.05398116 0.05596574 0.05800048 0.06015877 0.0624356 0.06502653 0.06794963 0.07127893 0.07500719
 0.07878274 0.08258851 0.08609915 0.08936896 0.09248757 0.09551045 0.09865686 0.1019305 0.1054389 0.1091767
 0.1131502 0.1174425 0.1220886 0.1273047 0.1332441 0.1400575 0.1479508 0.1565858 0.1659845 0.1754428
 0.1848022 0.1936977 0.2020352 0.2098756 0.2172083 0.2242709 0.2310812 0.2380705 0.2452805 0.253335
 0.2621608 0.2718451 0.2820627 0.291782 0.3009706 0.308946 0.3161246 0.3228315 0.3293617 0.3361744
 0.3432638 0.3507783 0.3585951 0.3666815 0.3749871 0.3835176 0.3921079 0.4007449 0.4091754 0.4173434
 0.4252927 0.4330207 0.4406405 0.4481472 0.4551953 0.4617521 0.4673342 0.4719892 0.4756933 0.4785239
 0.4807371 0.4823053 0.4832906 0.4836524 0.4832995 0.4823763 0.4809792 0.4792679 0.477385 0.4754081
 0.4734091 0.4714155 0.46947 0.4674839 0.4654717 0.4631974 0.4606457 0.4575028 0.4537349 0.4492673
 0.4441051 0.4386659 0.4329664 0.4273521 0.4217726 0.4161477 0.410438 0.404457 0.398249 0.3917824
 0.3851992 0.3786847 0.3723671 0.3664709 0.3609751 0.3559475 0.3512908 0.3469584 0.3429466 0.3392274
 0.3358946 0.3329718 0.3304788 0.3284299 0.3267469 0.3254241 0.3244104 0.3237039 0.3233139 0.3232398
 0.3234836 0.3240367 0.3248563 0.3259342 0.3272209 0.3287173 0.3304012 0.3322781 0.3343465 0.3366117
 0.339077 0.3417513 0.3446399 0.3477551 0.351102 0.3546976 0.358546 0.3626716 0.3670849 0.3717757
 0.3767553 0.3819083 0.3872296 0.3925584 0.3978877 0.4031734 0.4084166 0.413645 0.4188128 0.4237096
 0.4282623 0.4320756 0.4352282 0.4376623 0.4395642 0.4412113 0.4426648 0.4441215 0.4454902 0.446756
 0.4478685 0.4487742 0.4495454 0.4501901 0.4507918 0.4513879 0.4519262 0.4524215 0.4526637 0.4526337
 0.4522316 0.4514536 0.4503432 0.4489033 0.4471741 0.4451568 0.4428778 0.4403366 0.4375659 0.4345198
 0.4311686 0.4273319 0.4227287 0.4172199 0.4103877 0.4027088 0.3943516 0.3858589 0.3776653 0.3695873
 0.3616512 0.353659 0.3455122 0.3374436 0.3294613 0.3218709 0.3147118 0.3079588 0.3016094 0.2954399
 0.2894478 0.2835259 0.2776958 0.2720256 0.2665201 0.2612456 0.2561594 0.2512017 0.2463291 0.24144
 0.2365384 0.2315984 0.2266083 0.2215947 0.2164005 0.2109749 0.2051181 0.1986381 0.1919517 0.1850298
 0.1787846 0.1734165 0.1689112 0.1653153 0.1619947 0.1589195 0.1557028 0.1523594 0.1489313 0.1454567
 0.1421799 0.139085 0.1362464 0.133628 0.1311601 0.1288835 0.1268141 0.1250397 0.1236779 0.1227315
 0.1222581 0.1221778 0.1224635 0.1230599 0.1239347 0.1250923 0.1265167 0.1282856 0.1303985 0.1330091
 0.1361383 0.1397913 0.1439652 0.1481711 0.152373 0.1559735 0.1590069 0.1613542 0.1630804 0.1643417
 0.1651707 0.1657029 0.1659777 0.1660911 0.1661322 0.1662153 0.1664528 0.166994 0.1677971 0.1689341
 0.1701317 0.1712954 0.1722983 0.1730656 0.1737111 0.1742396 0.1747664 0.1753059 0.1758747 0.176474
 0.1770563 0.1776205 0.1781354 0.1786078 0.1790572 0.1794964 0.1799787 0.1805134 0.1811503 0.1818853
 0.1827287 0.1836882 0.1847607 0.1860011 0.1874414 0.1891502 0.1911794 0.193537 0.1962468 0.1992563
 0.2025498 0.2061286 0.2099781 0.2142163 0.2188559 0.2239535 0.2295118 0.235245 0.2411245 0.246699
 0.2519801 0.2568023 0.2612057 0.2652617 0.2689525 0.272291 0.2752004 0.2775653 0.2793266 0.2803647
 0.2806826 0.2802368 0.2790708 0.2771896 0.2746542 0.2714787 0.2677422 0.2634477 0.2587483 0.2536474
 0.2484187 0.2430858 0.2378804 0.2328159 0.2278951 0.2231091 0.218332 0.2135705 0.208792 0.2040301
 0.1993935 0.1948915 0.190613 0.186518 0.1825846 0.1787677 0.1750038 0.1712794 0.167556 0.1638592
 0.160183 0.1565871 0.1530884 0.1497425 0.1465721 0.1435749 0.1407596 0.1380697 0.1355004 0.1330074
 0.1305877 0.1282683 0.1260551 0.1240355 0.1222121 0.12065 0.1193364 0.1182624 0.1174099 0.1167318
 0.1162163 0.1158244 0.1155488 0.115369 0.1152737 0.1152527 0.1152839 0.1153574 0.1154424 0.1155279
 0.115585 0.115606 0.1155667 0.1154639 0.1152708 0.1149845 0.1145839 0.1140677 0.11344 0.1127032
 0.1118902 0.1110076 0.1101076 0.1092013 0.1083548 0.1075789 0.1069344 0.1064185 0.1060586 0.1058346
 0.1057373 0.1057404 0.105822 0.1059581 0.1061316 0.1063234 0.1065238 0.1067185 0.1069035 0.1070652
 0.1072019 0.1072969 0.1073485 0.107344 0.1072825 0.1071633 0.1069868 0.1067575 0.1064753 0.106141
 0.105755 0.1053177 0.1048324 0.1043058 0.1037442 0.1031597 0.1025607 0.1019607 0.1013679 0.1007933
 0.1002401 0.09971334 0.09921131 0.09873393 0.09828176 0.09785416 0.09745575 0.09708703 0.09675238 0.09645212
 0.09619117 0.09596977 0.09579629 0.09567109 0.09560154 0.09558731 0.09562952 0.09572859 0.09588517 0.09610351
 0.09639287 0.09676044 0.09722258 0.09778363 0.09845689 0.09923807 0.1001301 0.1011213 0.1022066 0.1033755
 0.1046229 0.1059439 0.1073376 0.1087956 0.1103187 0.1118832 0.1134883 0.1150991 0.1167137 0.1183016
 0.119862 0.1213792 0.1228542 0.1242852 0.1256725 0.1270181 0.1283188 0.129569 0.1307611 0.1318806
 0.1329191 0.1338615 0.1347026 0.135433 0.1360509 0.1365524 0.136939 0.1372099 0.1373695 0.1374182
 0.1373634 0.1372053 0.1369553 0.136614 0.136198 0.1357084 0.1351621 0.1345596 0.1339116 0.1332175
 0.13248 0.1316972 0.1308649 0.1299808 0.129036 0.1280321 0.1269647 0.1258437 0.1246769 0.1234777
 0.1222603 0.1210312 0.1197992 0.1185605 0.1173161 0.1160591 0.1147874 0.1134976 0.112188 0.1108608
 0.1095153 0.1081638 0.1068068 0.1054686 0.1041509 0.1028827 0.1016652 0.1005203 0.09944657 0.09845155
 0.09753194 0.09668388 0.09590357 0.09518355 0.09451909 0.09390225 0.09332795 0.09278756 0.09228434 0.09181331
 0.0913951 0.09103346 0.09075765 0.09057719 0.09050548 0.09054985 0.09069073 0.09092966 0.09121609 0.09154741
 0.0918599 0.09215082 0.09236954 0.09251785 0.09258047 0.09256548 0.0924938 0.0923771 0.09225398 0.09213594
 0.09205998 0.09203389 0.09208331 0.09220623 0.09241337 0.09268772 0.09302677 0.09340106 0.09380084 0.09419576
 0.09457527 0.09492423 0.09523617 0.09551995 0.09577432 0.0960251 0.09627359 0.09655277 0.09686505 0.09725191
 0.0977172 0.09830824 0.09902643 0.09990481 0.1009375 0.1021281 0.1034662 0.1049362 0.1065273 0.1082224
 0.1100075 0.1118683 0.1137858 0.1157477 0.117733 0.1197333 0.1217244 0.1237005 0.1256358 0.1275247
 0.1293541 0.1311203 0.1328346 0.1344971 0.1361332 0.1377441 0.1393517 0.1409556 0.1425649 0.1441774
 0.1457894 0.1473999 0.1490028 0.1506037 0.1522084 0.1538273 0.1554762 0.1571591 0.1588867 0.1606542
 0.1624624 0.1643041 0.1661778 0.1680738 0.1699904 0.1719146 0.1738438 0.175769 0.1776887 0.179599
 0.1814998 0.1833841 0.1852513 0.1870916 0.188903 0.1906714 0.1923901 0.1940271 0.1955701 0.1969695
 0.1982172 0.1992726 0.2001393 0.2008037 0.2012777 0.2015648 0.2016834 0.2016407 0.2014671 0.201172
 0.2007962 0.2003503 0.1998743 0.1993763 0.1988865 0.1984091 0.1979633 0.1975506 0.197186 0.1968708
 0.196626 0.1964533 0.1963767 0.1963961 0.1965245 0.1967598 0.1971025 0.1975529 0.1981114 0.198781
 0.1995671 0.2004664 0.2014832 0.2025964 0.2038052 0.205055 0.2063382 0.207554 0.2086848 0.2096004
 0.2102776 0.2106058 0.2105674 0.2101161 0.2092458 0.2079881 0.2063476 0.2044196 0.2022147 0.1998553
 0.1973511 0.1948075 0.1922302 0.1896872 0.1871816 0.1847506 0.1823926 0.1801229 0.1779299 0.1758118
 0.1737491 0.1717323 0.1697389 0.1677599 0.165771 0.1637649 0.1617182 0.1596251 0.1574736 0.1552603
 0.1529908 0.1506646 0.1483046 0.1459128 0.1435287 0.1411564 0.1388442 0.1365955 0.134451 0.1324097
 0.1304917 0.1286898 0.1270017 0.1254162 0.1239175 0.1224972 0.1211414 0.1198492 0.1186176 0.117442
 0.1163241 0.1152426 0.1141936 0.1131514 0.1121092 0.1110608 0.1100037 0.1089467 0.1078906 0.1068323
 0.1057708 0.1046861 0.1035775 0.1024305 0.1012488 0.1000404 0.09881173 0.09758529 0.09636273 0.0951599
 0.09397019 0.09279218 0.09161726 0.09043633 0.08924587 0.08804178 0.08682047 0.08558213 0.08431346 0.08301203
 0.08166123 0.08025642 0.07879375 0.0772706 0.07570191 0.07408779 0.07246102 0.07082392 0.06922325 0.06766149
 0.06618132 0.06478025 0.06347206 0.06224884 0.06109494 0.06000511 0.05895974 0.05796261 0.05700896 0.05610869
 0.05526895 0.05449853 0.05380617 0.05319297 0.05266391 0.05220805 0.05182576 0.05149533 0.05121357 0.05095894
 0.05072769 0.05051343 0.05031493 0.05014379 0.05000048 0.04989502 0.04982487 0.04977463 0.04973818 0.04967923
 0.04959521 0.0494579 0.0492729 0.04903714 0.04875845 0.04844718 0.04810591 0.04774192 0.0473518 0.04693506
 0.0464898 0.04601161 0.04551373 0.04499426 0.04448841 0.04400088 0.04356951 0.04320089 0.04290624 0.04268749
 0.04253241 0.04244068 0.04240891 0.04243865 0.04254402 0.04272364 0.04298154 0.04330918 0.0436846 0.04409908
 0.04452349 0.04495751 0.04538772 0.04581913 0.04625291 0.04669016 0.04713355 0.04757779 0.04802167 0.04845914
 0.04888827 0.04930488 0.04970869 0.05009179 0.05045397 0.05078105 0.05107189 0.05131645 0.05151477 0.05167578
 0.05180254 0.05192469 0.0520463 0.05220249 0.05239391 0.05264194 0.05294192 0.05329584 0.05369585 0.0541335
 0.05459832 0.05508 0.0555631 0.05603579 0.05648382 0.05689548 0.05727325 0.05761241 0.05793305 0.05823831
 0.05854433 0.05885474 0.05916772 0.05948373 0.05979215 0.06009247 0.06037616 0.06064286 0.06088514 0.06110415
 0.06129901 0.06147594 0.06165158 0.06183441 0.06205168 0.06230248 0.06260046 0.06293184 0.06328873 0.06365795
 0.06402616 0.06439353 0.06475621 0.06511947 0.06548596 0.0658507 0.06621373 0.0665663 0.0669061 0.06723858
 0.06756359 0.06789536 0.0682344 0.06858492 0.06894647 0.06931578 0.06969371 0.07008377 0.07048562 0.07090226
 0.07132765 0.07175086 0.07216705 0.07256177 0.07294129 0.07330411 0.0736642 0.07402999 0.0744132 0.07482142
 0.07526085 0.07573588 0.07624498 0.07679027 0.07735872 0.07794992 0.07854392 0.07913905 0.0797223 0.08029339
 0.08085757 0.08141672 0.0819912 0.08258161 0.08320287 0.08385113 0.0845215 0.08521211 0.08591484 0.08663422
 0.08737688 0.08813645 0.08891771 0.08968685 0.09042444 0.09109837 0.0916808 0.09218633 0.09260681 0.09299313
 0.09335472 0.09372778 0.09412039 0.09453529 0.09497394 0.09542374 0.09588401 0.09633939 0.09678912 0.09721937
 0.09763072 0.09801754 0.09838332 0.09873405 0.09907689 0.09942834 0.09979696 0.1002044 0.1006489 0.101142
 0.1016632 0.1022041 0.1027421 0.1032623 0.1037608 0.104232 0.1046822 0.1051124 0.1055248 0.1059193
 0.106303 0.1066763 0.1070517 0.1074298 0.1078107 0.1081937 0.10857 0.108943 0.1093232 0.1097193
 0.1101644 0.1106643 0.1112493 0.1119159 0.112675 0.1135125 0.1144215 0.1153793 0.1163717 0.1173709
 0.1183658 0.1193176 0.1202167 0.121011 0.1216861 0.1222161 0.1225886 0.1228535 0.1230105 0.1231617
 0.1233119 0.1235433 0.1238553 0.1242763 0.124799 0.1254051 0.1260818 0.1267809 0.1274899 0.128159
 0.1287824 0.1293311 0.1298013 0.1301795 0.130462 0.1306385 0.1307219 0.1307098 0.1306372 0.1305134
 0.1303712 0.1302203 0.1300735 0.1299336 0.129808 0.1296971 0.1296178 0.1295709 0.1295782 0.1296402
 0.1297718 0.1299689 0.1302206 0.1305175 0.1308214 0.131129 0.1314123 0.1316763 0.1319198 0.1321386
 0.1323259 0.1324835 0.1325916 0.1327182 0.1328726 0.1331841 0.1337222 0.1344599 0.1354393 0.1363956
 0.1372865 0.1380088 0.1385416 0.1389872 0.13935 0.1397149 0.1400799 0.1404496 0.1408159 0.1411386
 0.1414115 0.1415924 0.1416798 0.1416477 0.1415027 0.141242 0.1408779 0.1404211 0.1398856 0.1392798
 0.1386292 0.1379425 0.1372599 0.1365939 0.135983 0.1354382 0.134984 0.1346281 0.1343645 0.1341965
 0.1340615 0.1339559 0.1337791 0.133528 0.1331325 0.1325982 0.1319181 0.1311023 0.1301762 0.1291547
 0.1280749 0.1269653 0.1258815 0.1248528 0.1239354 0.123132 0.1224671 0.1219175 0.1214826 0.1211243
 0.1208339 0.1205634 0.1202992 0.1200179 0.1197095 0.1194051 0.1191051 0.1188589 0.1186688 0.1185581
 0.1185271 0.1185865 0.118736 0.1189839 0.1193244 0.1197431 0.1202325 0.1207663 0.1213454 0.1219592
 0.1226129 0.1233082 0.1240497 0.1248395 0.1256872 0.1265982 0.1275788 0.1286351 0.1297568 0.1309432
 0.1321803 0.1334652 0.134795 0.1361697 0.1375817 0.1390305 0.140492 0.1419635 0.1434102 0.1448248
 0.1461522 0.1473802 0.1484356 0.1493179 0.1499838 0.1504546 0.1507436 0.150874 0.1508773 0.1507638
 0.1505497 0.1502426 0.1498502 0.1493763 0.1488243 0.1481928 0.1474777 0.1467022 0.1458648 0.145023
 0.1441818 0.1433871 0.1426416 0.1419492 0.1413082 0.1406988 0.140118 0.1395384 0.1389584 0.138354
 0.1377323 0.1370959 0.1364558 0.1358351 0.1352283 0.1346428 0.1340582 0.133461 0.1328388 0.1321815
 0.1314832 0.1307425 0.1299436 0.1290832 0.1281467 0.1271298 0.1260359 0.1248642 0.1236306 0.1223363
 0.1210016 0.1196276 0.1182306 0.1168105 0.1153718 0.1139192 0.1124664 0.1110319 0.1096657 0.1083811
 0.1072315 0.1061943 0.1052707 0.1044187 0.1036027 0.1028066 0.1020068 0.1012201 0.1004455 0.09970782
 0.09901323 0.09837806 0.09780742 0.09729733 0.09684913 0.09643766 0.09606156</values></Ydata></AB><ScSm><Ydata ylabel="Single channel"><values byteorder="INTEL" format="FLOAT32" numvalues="1814"> 0.07121406 0.07121515 0.0712868 0.07145032 0.07167355 0.07188852 0.07203807 0.07211107 0.07212473 0.07208529
 0.07200205 0.07193729 0.0719882 0.07219127 0.07246611 0.07267015 0.07271126 0.07262789 0.07256549 0.07263568
 0.07276997 0.07274312 0.07238688 0.07178298 0.07120838 0.07087845 0.07081312 0.07100181 0.07153854 0.07236079
 0.07296127 0.0727549 0.07181756 0.07091179 0.07063934 0.07086411 0.07107611 0.07098141 0.07058956 0.07008804
 0.06988895 0.07052225 0.0721127 0.07394554 0.07472433 0.07339196 0.06988584 0.06536994 0.06180429 0.06089814
 0.06290695 0.0662863 0.06885243 0.06952713 0.06885076 0.06786934 0.06700312 0.06619729 0.06566483 0.0659178
 0.06706809 0.06836014 0.06856869 0.0670516 0.06451195 0.06249217 0.06196354 0.06271879 0.06420425 0.06612241
 0.06760125 0.06671259 0.06237035 0.05674112 0.05428036 0.05749535 0.06426594 0.06991313 0.07136012 0.06886324
 0.06465714 0.06110178 0.05978904 0.06111781 0.06422466 0.06769534 0.07042057 0.07165524 0.07082856 0.06803638
 0.06453265 0.06212949 0.062087 0.06461368 0.06881745 0.07278927 0.07447328 0.07318331 0.0700563 0.0668508
 0.06479108 0.06457113 0.06652424 0.07027761 0.07473038 0.07869148 0.08136605 0.08243656 0.08212754 0.08106136
 0.07978775 0.07869643 0.07834066 0.07909221 0.08026437 0.08037812 0.07876521 0.07645302 0.0751069 0.07531001
 0.07609732 0.0761338 0.07507141 0.07334191 0.07083821 0.06686901 0.06174322 0.05721419 0.05472884 0.05431641
 0.05561523 0.05843859 0.06156678 0.06268755 0.06093263 0.05848568 0.05842497 0.06143776 0.06546873 0.06821751
 0.06926382 0.06989087 0.07143869 0.0739399 0.07595353 0.07564941 0.07261995 0.0688982 0.06752022 0.06954935
 0.07305769 0.07549661 0.07638079 0.07702152 0.07822496 0.07904294 0.07776757 0.07396805 0.06957895 0.06770246
 0.06990521 0.07464644 0.0784013 0.07828122 0.07397464 0.06778816 0.0628437 0.06092802 0.06201677 0.0654608
 0.07069324 0.0766217 0.08133848 0.08319263 0.08200462 0.07895254 0.07523826 0.07099941 0.06593407 0.06109059
 0.05909058 0.06164887 0.06737593 0.07293218 0.076011 0.07649504 0.07516548 0.0722889 0.06780173 0.06260091
 0.05897479 0.05884599 0.06146633 0.06382554 0.06379548 0.06207042 0.06063991 0.06030427 0.06036745 0.06013276
 0.05987728 0.0603426 0.06166741 0.06308188 0.06365514 0.06315361 0.06208998 0.06111778 0.06044582 0.05970109
 0.05845633 0.05706029 0.05662166 0.05779003 0.05985687 0.06148624 0.06206517 0.06193084 0.06148565 0.06052511
 0.0585609 0.05574383 0.05325906 0.05245417 0.05353013 0.05540717 0.05685936 0.05740497 0.05718415 0.05651131
 0.05566458 0.05479837 0.05398481 0.05340483 0.05330476 0.05364413 0.05402023 0.05407384 0.0537791 0.05326701
 0.05257863 0.0517065 0.05076041 0.04997765 0.04955667 0.04950283 0.04965713 0.04984555 0.04993721 0.04980576
 0.04937734 0.04873661 0.04807562 0.04751908 0.04707765 0.04675383 0.04658592 0.04656678 0.04659478 0.04654615
 0.0463711 0.04610028 0.04577962 0.04542797 0.04505397 0.04468922 0.04439076 0.04420217 0.04410223 0.04401303
 0.04388867 0.04376736 0.04368926 0.04359941 0.0434026 0.04309335 0.04276638 0.04251025 0.04233838 0.04221014
 0.04207397 0.04188412 0.041605 0.04123587 0.04084869 0.04056961 0.04048238 0.04056081 0.04071258 0.04085256
 0.04091827 0.04087553 0.04074578 0.04058607 0.04041998 0.04022212 0.03997667 0.03972194 0.03953423 0.03947425
 0.03953379 0.03963414 0.03969286 0.03968202 0.03961667 0.03952517 0.03944458 0.03939953 0.03936552 0.03929005
 0.03916115 0.03902552 0.03893524 0.03889682 0.03887137 0.03881722 0.0387362 0.03867073 0.03864863 0.03865044
 0.03864188 0.03861335 0.03857321 0.03852265 0.0384501 0.03834334 0.03820823 0.03807662 0.03798202 0.03792501
 0.03787769 0.03782127 0.03776267 0.03771548 0.03767856 0.0376356 0.03757281 0.03749453 0.03741331 0.0373253
 0.03721175 0.03706982 0.03692364 0.03679767 0.0366918 0.03658713 0.03646719 0.03633091 0.03618821 0.03604512
 0.0358979 0.03574281 0.03558215 0.03541777 0.03525171 0.03509654 0.03496952 0.03487124 0.03478117 0.03467905
 0.0345638 0.03445023 0.03435188 0.03426981 0.03419845 0.03414027 0.03410684 0.03410432 0.03412706 0.03416739
 0.03422225 0.03429061 0.03437661 0.03449773 0.03467638 0.03491517 0.03518549 0.03544806 0.03568393 0.03590272
 0.03612426 0.03635912 0.03660648 0.03686328 0.03713109 0.03741281 0.03770004 0.03796788 0.03819461 0.03838938
 0.03858715 0.0388127 0.03906242 0.03932075 0.03957458 0.03980859 0.04000927 0.04018418 0.04036188 0.04056265
 0.04077898 0.0409915 0.04119424 0.04139684 0.04160862 0.04183067 0.04206388 0.04231703 0.04260021 0.04290882
 0.0432177 0.04349729 0.04374024 0.04397209 0.04423289 0.04454561 0.0449002 0.04526455 0.04561035 0.04593265
 0.04624715 0.04656914 0.04690019 0.04723969 0.04759948 0.04799213 0.04840799 0.04881946 0.04920955 0.0495853
 0.04996265 0.05034941 0.05074522 0.05114844 0.05155806 0.05197134 0.0523809 0.05277525 0.05314631 0.05349861
 0.05384804 0.05421054 0.05459212 0.05498353 0.0553603 0.05569743 0.05599652 0.05629156 0.05661308 0.0569516
 0.05727226 0.05756181 0.05784203 0.05813652 0.05844413 0.05875187 0.05905752 0.0593681 0.05968326 0.05998915
 0.06026566 0.0604971 0.06068255 0.06084086 0.06100178 0.06119005 0.06141932 0.06169359 0.06200063 0.06230651
 0.06257318 0.06278634 0.06295865 0.06311175 0.06326799 0.06345168 0.06367798 0.0639393 0.0642106 0.06446437
 0.06468118 0.06486581 0.0650594 0.0653128 0.0656359 0.06599218 0.06635056 0.06671856 0.06711239 0.06752189
 0.06792808 0.06833824 0.0687751 0.06923437 0.06967683 0.07006601 0.07039483 0.07067281 0.07091503 0.0711574
 0.07145614 0.07184392 0.07229629 0.07275941 0.07319959 0.0736107 0.0739894 0.0743266 0.07462026 0.07488029
 0.07511863 0.07534032 0.0755446 0.0757325 0.07591146 0.07608619 0.07624164 0.07634328 0.07635993 0.07627962
 0.0760996 0.07581617 0.07543733 0.07499444 0.07452017 0.07401399 0.07344184 0.07277051 0.07199214 0.07111709
 0.07015803 0.06913114 0.06806856 0.06702331 0.06606015 0.0652417 0.06462301 0.06425722 0.06419408 0.06445296
 0.06498339 0.06565365 0.06628635 0.06671482 0.06682497 0.06657229 0.06598145 0.06512912 0.06411251 0.06302018
 0.06191858 0.06084605 0.05980866 0.05879388 0.05781062 0.05692434 0.05625369 0.0559473 0.05617888 0.05713639
 0.0589407 0.06151325 0.06452778 0.06754056 0.07020918 0.07241341 0.07421082 0.07572332 0.07706042 0.07829062
 0.07943571 0.08048685 0.08143509 0.08228378 0.08303388 0.08367031 0.08416814 0.08450914 0.08469693 0.08476508
 0.0847708 0.08477697 0.08483717 0.08498411 0.08521047 0.08545244 0.08560169 0.08554471 0.08519882 0.08452332
 0.08351764 0.08224998 0.08094819 0.08008306 0.08027278 0.08194692 0.08500826 0.08883367 0.09264351 0.0959018
 0.09844312 0.1003517 0.101798 0.1029449 0.1039109 0.1047624 0.1055292 0.106227 0.1068714 0.1074797
 0.1080631 0.1086248 0.1091684 0.1097038 0.1102392 0.1107712 0.1112934 0.111808 0.1123226 0.1128385
 0.1133493 0.1138488 0.1143374 0.1148225 0.11531 0.1157959 0.1162691 0.1167248 0.1171708 0.1176188
 0.1180759 0.1185421 0.1190091 0.1194622 0.1198906 0.1202959 0.1206866 0.1210687 0.1214453 0.1218224
 0.1222071 0.122599 0.1229902 0.1233749 0.1237573 0.1241425 0.124524 0.1248868 0.1252245 0.1255474
 0.125873 0.1262111 0.1265601 0.1269132 0.1272694 0.1276372 0.1280277 0.1284406 0.1288584 0.1292578
 0.1296281 0.1299789 0.130331 0.130699 0.1310827 0.1314717 0.1318557 0.1322304 0.1325955 0.1329509
 0.1332973 0.1336392 0.1339844 0.1343373 0.1346942 0.1350468 0.1353909 0.1357292 0.1360686 0.1364163
 0.1367772 0.1371488 0.1375165 0.1378617 0.1381785 0.1384815 0.1387916 0.1391156 0.1394463 0.13978
 0.1401235 0.1404805 0.1408405 0.1411873 0.1415174 0.1418437 0.1421809 0.1425293 0.1428759 0.1432098
 0.1435348 0.1438617 0.1441942 0.1445263 0.1448539 0.1451795 0.1455076 0.1458398 0.146175 0.1465089
 0.1468345 0.1471481 0.1474562 0.1477695 0.1480908 0.1484138 0.148733 0.1490494 0.1493673 0.1496895
 0.1500159 0.1503433 0.1506674 0.1509853 0.1512981 0.1516092 0.151922 0.1522372 0.1525544 0.1528754
 0.1532035 0.1535374 0.1538698 0.1541948 0.154512 0.1548253 0.1551379 0.1554489 0.1557541 0.1560523
 0.1563477 0.1566448 0.1569412 0.1572334 0.157524 0.1578201 0.1581246 0.1584361 0.1587522 0.1590707
 0.1593888 0.1597027 0.1600079 0.1603073 0.1606126 0.1609331 0.1612626 0.1615856 0.1618941 0.1621925
 0.1624891 0.1627885 0.1630902 0.1633917 0.1636932 0.163997 0.1643027 0.1646074 0.1649091 0.1652051
 0.1654917 0.1657723 0.1660579 0.1663556 0.1666627 0.1669722 0.1672783 0.1675797 0.1678824 0.1681946
 0.1685133 0.1688284 0.1691362 0.1694408 0.1697452 0.1700503 0.1703575 0.1706661 0.1709751 0.1712854
 0.1715949 0.1718982 0.1721976 0.1725054 0.1728274 0.1731561 0.1734789 0.1737847 0.174069 0.1743417
 0.1746217 0.1749172 0.1752194 0.1755155 0.1757978 0.1760675 0.1763364 0.1766148 0.1768976 0.177176
 0.1774526 0.1777329 0.1780149 0.1782987 0.1785888 0.178883 0.1791745 0.1794639 0.1797518 0.1800323
 0.180303 0.1805686 0.1808314 0.1810945 0.1813654 0.1816435 0.1819182 0.1821882 0.1824557 0.1827005
 0.1828668 0.1828319 0.1823037 0.1807045 0.1771589 0.1706827 0.1605865 0.1469185 0.1305969 0.1130806
 0.09583786 0.07997485 0.06613892 0.05461128 0.04544768 0.03856594 0.03380391 0.03101901 0.03019068 0.03152628
 0.03558186 0.04293848 0.05294843 0.06261262 0.06774165 0.06626695 0.0602202 0.05387734 0.05019585 0.04937731
 0.05014763 0.05142673 0.05288465 0.05473464 0.05732495 0.06074863 0.06483099 0.06955964 0.07529885 0.08233292
 0.09030463 0.09835647 0.1058716 0.1129653 0.1202085 0.1279425 0.1359192 0.1435442 0.1503558 0.1562651
 0.161464 0.1662053 0.1706544 0.1748802 0.1789166 0.1827637 0.1862956 0.1892171 0.1912038 0.1921495
 0.1922858 0.1920485 0.1918184 0.1917747 0.1919411 0.192296 0.1928165 0.1934733 0.1942339 0.1950716
 0.1959635 0.196889 0.1978296 0.1987623 0.199656 0.2004863 0.2012463 0.2019414 0.2025814 0.2031795
 0.2037452 0.2042786 0.2047763 0.2052413 0.2056814 0.206104 0.2065114 0.2068982 0.2072555 0.2075817
 0.207885 0.2081739 0.2084545 0.2087337 0.209017 0.2093016 0.20958 0.2098491 0.2101119 0.2103752
 0.2106472 0.2109284 0.2112079 0.2114755 0.2117345 0.2119956 0.2122622 0.2125312 0.2127991 0.2130642
 0.2133256 0.2135864 0.213849 0.2141091 0.2143611 0.2146073 0.2148568 0.2151176 0.2153912 0.2156695
 0.2159414 0.2162058 0.2164721 0.2167454 0.2170212 0.2172946 0.2175636 0.2178272 0.2180906 0.218364
 0.2186454 0.2189142 0.2191533 0.2193741 0.2196097 0.2198845 0.2201889 0.220488 0.2207596 0.2210135
 0.2212678 0.2215217 0.2217643 0.2219937 0.222224 0.2224834 0.2227996 0.223166 0.2235382 0.2238786
 0.2241874 0.2244823 0.2247763 0.2250803 0.2253896 0.2256685 0.2258818 0.2260541 0.2262724 0.2266162
 0.22708 0.2275679 0.2279777 0.2282892 0.2285581 0.2288462 0.2291803 0.2295333 0.2298047 0.2298902
 0.2298415 0.2298937 0.2302534 0.2308947 0.231614 0.2322362 0.2327198 0.2331097 0.2334505 0.23374
 0.2339373 0.2340155 0.2340326 0.2341469 0.2345109 0.2351136 0.2357748 0.2363274 0.236748 0.2370871
 0.2373748 0.2376246 0.2377988 0.2377461 0.2373634 0.2368866 0.2368299 0.2374854 0.2385904 0.2396094
 0.2402668 0.2406793 0.2410417 0.2413866 0.2416587 0.2417664 0.2414548 0.2404468 0.2389899 0.2380172
 0.2383792 0.2399834 0.2419446 0.2434725 0.2443761 0.244862 0.2451818 0.2454629 0.2456112 0.2453253
 0.2444288 0.2433051 0.2427942 0.2434216 0.2448173 0.2461176 0.2468415 0.2471434 0.2473623 0.2476388
 0.2478175 0.2473931 0.2457968 0.2432391 0.2411389 0.2411242 0.2434338 0.2466283 0.2490231 0.2501397
 0.2505552 0.2506518 0.2500497 0.2482774 0.245478 0.242349 0.2399047 0.2393145 0.2411332 0.2443585
 0.2470019 0.2480465 0.2483045 0.2490905 0.250654 0.2522069 0.2529414 0.2526428 0.2515514 0.2499378
 0.2479732 0.2461185 0.2453703 0.2465651 0.2493553 0.2523267 0.254308 0.2552585 0.2556455 0.2550794
 0.2520441 0.2457155 0.2382447 0.2341791 0.2364529 0.2433169 0.2502241 0.2543106 0.2559638 0.2566867
 0.2570707 0.2566363 0.2541223 0.2481863 0.2395397 0.2322707 0.2310796 0.2366399 0.2448347 0.2505909
 0.2513314 0.2472464 0.24038 0.2340296 0.2314085 0.2336896 0.2394822 0.2462156 0.2516894 0.2546607
 0.2548288 0.2527385 0.2497425 0.2476578 0.2474545 0.2478306 0.246196 0.2419448 0.2374685 0.2346526
 0.2319728 0.2273266 0.2226153 0.2224689 0.2282101 0.2356444 0.2397685 0.239831 0.2384565 0.236893
 0.2329189 0.2240728 0.2123118 0.2040956 0.2047242 0.2128565 0.2217072 0.2256577 0.2247116 0.2225642
 0.2216425 0.2206373 0.2164105 0.2080981 0.1991568 0.1944742 0.195225 0.1978299 0.198219 0.1951615
 0.1889324 0.1798854 0.1705668 0.166584 0.171886 0.1838917 0.1955011 0.2009606 0.1980304 0.1867019
 0.1697589 0.1542018 0.1478866 0.1526015 0.1619605 0.1672887 0.164547 0.1551054 0.1419488 0.1274888
 0.1145491 0.1068199 0.1066244 0.1125058 0.1195585 0.1221186 0.116902 0.1053316 0.09332871 0.08709614
 0.0877414 0.09069726 0.09086457 0.08718534 0.08197169 0.07769661 0.07544654 0.07497689 0.07509174 0.0746839
 0.07363576 0.07182961 0.06793119 0.0610881 0.05353048 0.04920427 0.04961077 0.05296291 0.05743102 0.06275351
 0.06806871 0.07080268 0.06958476 0.06695297 0.06727192 0.07213755 0.0789397 0.08395064 0.08599298 0.08676346
 0.0881018 0.08984023 0.09084088 0.09149612 0.0938039 0.09863812 0.1042119 0.1080534 0.1095791 0.1098944
 0.1099177 0.109694 0.109017 0.1078247 0.1061647 0.1042626 0.1024442 0.100767 0.09897012 0.09685339
 0.09429911 0.09081071 0.08564724 0.07901491 0.07278137 0.0690904 0.06818047 0.06846143 0.06877385 0.06912753
 0.06874827 0.06538509 0.05826192 0.05060311 0.04730963 0.05023756 0.0568343 0.06308145 0.06656779 0.06670651
 0.06355461 0.05798916 0.05286394 0.05217992 0.05784179 0.06785901 0.07854308 0.08766074 0.09460193 0.09866948
 0.09899642 0.09613974 0.09263764 0.09160592 0.09494083 0.1024538 0.1117463 0.1185918 0.118994 0.1133124
 0.108379 0.1124208 0.1261448 0.1412458 0.1497011 0.1520053 0.1537178 0.1568061 0.1587216 0.1587947
 0.1607099 0.1674391 0.1767661 0.1833994 0.183596 0.1766339 0.1642389 0.1508663 0.1425986 0.142469
 0.1472871 0.1512875 0.1517813 0.1489119 0.1422722 0.1322872 0.1238625 0.1234683 0.1316423 0.1419614
 0.148391 0.1508433 0.1525564 0.154472 0.1540876 0.1492659 0.1417819 0.1362202 0.1354122 0.1379113
 0.1403404 0.1408905 0.1394467 0.1356853 0.1292291 0.1216275 0.1163554 0.1158746 0.1192076 0.1229624
 0.1244712 0.1235468 0.1216192 0.1200128 0.119112 0.1185092 0.11782 0.1177348 0.1199173 0.1251118
 0.1317462 0.1374466 0.1417339 0.1461678 0.1518662 0.157876 0.1622286 0.1640222 0.1642964 0.165184
 0.1682018 0.172982 0.1774862 0.1797214 0.1796356 0.1793541 0.1812188 0.1855182 0.1904297 0.1940785
 0.1960861 0.19716 0.1979609 0.1985747 0.198487 0.1969997 0.1943009 0.1921127 0.1925084 0.1958756
 0.2005287 0.2043938 0.206623 0.207559 0.2077162 0.2071919 0.2059343 0.2042395 0.2027636 0.2020454
 0.2021489 0.2027913 0.2036615 0.2045563 0.2053694 0.206087 0.2067577 0.2074155 0.2080563 0.2086769
 0.20927 0.2097805 0.2101451 0.2104052 0.2107109 0.2111587 0.2116577 0.2120095 0.2120782 0.2118165
 0.2111696 0.2100722 0.2085513 0.2067281 0.2046788 0.2023821 0.1998936 0.1975418 0.1958413 0.1951273
 0.1952724 0.1957842 0.1961622 0.1961559 0.1957644 0.1951136 0.1943651 0.1936638 0.1930957 0.1926763
 0.1923832 0.1921991 0.192124 0.1921561 0.1922817 0.1924918 0.1927986 0.1932221 0.1937656 0.194409
 0.1951144 0.1958347 0.1965359 0.1972168 0.1978973 0.1985826 0.1992486 0.1998594 0.2003877 0.2008193
 0.2011566 0.2014172 0.2016133 0.201727 0.201722 0.2015827 0.2013126 0.2008886 0.2002633 0.1994434
 0.1985287 0.1976374 0.196824 0.1960907 0.1954332 0.1948313 0.1942261 0.1935455 0.192744 0.1918043
 0.1907239 0.1895181 0.1882262 0.1868947 0.18555 0.1841842 0.1827627 0.1812401 0.1795702 0.1777102
 0.1756198 0.1732523 0.1705473 0.1674431 0.1639005 0.1599178 0.1555391 0.1508647 0.1460436 0.141239
 0.1365908 0.1321999 0.1281335 0.1244422 0.1211759 0.1183772 0.1160616 0.1142202 0.1128424 0.1119255
 0.1114642 0.1114383 0.1118026 0.1124785 0.1133637 0.1143526 0.1153472 0.116273 0.1171139 0.1179311
 0.1188236 0.1198538 0.1210079 0.1222187 0.1234176 0.12456 0.1256125 0.1265393 0.1273153 0.1279352
 0.1283994 0.1287041 0.1288522 0.128853 0.1287052 0.1283963 0.1279289 0.1273455 0.1267385 0.1262466
 0.1260277 0.1262133 0.1268687 0.1279776 0.1294535 0.1311709 0.133004 0.1348523 0.1366544 0.1383952
 0.1400954 0.141789 0.143521 0.1453569 0.1473684 0.149597 0.1520357 0.1546319 0.1572875 0.1598699
 0.1622468 0.1643298 0.166093 0.1675585 0.1687646 0.1697447 0.1705345 0.1711814 0.1717312 0.1722144
 0.1726547 0.1730792 0.1735082 0.173942 0.1743643 0.1747535 0.1751022 0.1754321 0.1757813 0.1761752
 0.17662 0.1771237 0.1777053 0.1783797 0.179136 0.1799269 0.1806766 0.1813202 0.1818409 0.1822612
 0.1825988 0.1828381 0.1829366 0.1828483 0.1825479 0.1820429 0.181362 0.180535 0.1795837 0.1785238
 0.1773722 0.1761549 0.1749026 0.1736339 0.1723513 0.1710501 0.1697177 0.1683321 0.166886 0.1654096
 0.1639487 0.1625275 0.1611421 0.1597739 0.1583946 0.1569803 0.1555372 0.1541003 0.1527037 0.1513622
 0.1500789 0.1488526 0.1476805 0.146564 0.1455156 0.1445586 0.1437222 0.1430221 0.1424398 0.141928
 0.1414392 0.1409494 0.1404639 0.1400169 0.1396537 0.1393923 0.1392017 0.1390211 0.1388017 0.1385343
 0.138249 0.1379863 0.1377671 0.1375876 0.1374261 0.1372364 0.1369449 0.1364776 0.1357828 0.1348253
 0.1335837 0.1320753 0.1303706 0.1285758 0.1268052 0.1251574 0.1236967 0.1224548 0.1214447 0.1206525
 0.1200236 0.1194901 0.1190248 0.1186594 0.118442 0.1183653 0.118327 0.1181896 0.1179124 0.1176051
 0.1174265 0.1174519 0.1176465 0.117918 0.1181683 0.1183296 0.1183831 0.1183455 0.1182443 0.118104
 0.1179286 0.1176929 0.1173715 0.1169723 0.1165259 0.1160575 0.1155759 0.1150667 0.1144956 0.1138371
 0.1130922 0.1122694 0.1113745 0.1104178 0.1093946 0.1082818 0.1071153 0.1060575 0.1053273 0.1050555
 0.1052048 0.1056012 0.1060544 0.1064737 0.1068268 0.1069907 0.1067998 0.1063583 0.1061751 0.1067908
 0.1082504 0.1100335 0.1115026 0.1123361 0.1125475 0.1122559 0.1115645 0.1105651 0.1093044 0.1077625
 0.1059366 0.1038887 0.1016865 0.09940258 0.09717826 0.09516673 0.09342958 0.09196442 0.09077232 0.0899083
 0.0894924 0.08925187 0.08777933 0.08327262 0.07628842 0.07098471 0.07163321 0.07781807 0.0847112 0.08818357
 0.08811408 0.08670953 0.08550698 0.08475554 0.08439156 0.0845267 0.08525413 0.08645303 0.08780086 0.08895305
 0.08974738 0.09019068 0.09025857 0.08973336 0.08813938 0.08487686 0.07970915 0.07323501 0.06669743 0.06124373
 0.05740951 0.05513722 0.05401088 0.05349583 0.05320684 0.05309346 0.05336742 0.05423823 0.05572345 0.05769408
 0.06001097 0.06250667 0.06488433 0.06682708 0.06825131 0.06930806 0.07010819 0.07058227 0.07062405 0.07024084
 0.06953563 0.06863108 0.06763525 0.06662615 0.0656285 0.06461513 0.06358293 0.06265169 0.06202038 0.06177434
 0.06180378 0.06195174 0.06215156 0.06238525 0.06261444 0.06280194 0.06294364 0.06307843 0.06329856 0.0636934
 0.06423914 0.06479633 0.06523983 0.06555302 0.06579872 0.06601311 0.06611443 0.06597842 0.06566966 0.06546338
 0.06548051 0.06544444 0.06502893 0.06435367 0.0639046 0.06400026 0.06451267 0.06508175 0.06544302 0.06554703
 0.06552412 0.06561565 0.06602105 0.06666816</values></Ydata></ScSm><ScRf><Ydata ylabel="Single channel"><values byteorder="INTEL" format="FLOAT32" numvalues="1820"> 0.06068675 0.06085088 0.06095431 0.0609951 0.06099374 0.06099245 0.06104375 0.0611779 0.06137359 0.06156617
 0.06169739 0.06175894 0.0617756 0.06175655 0.06169941 0.06164221 0.06166337 0.06180442 0.06201265 0.06217469
 0.06220682 0.06213019 0.06206469 0.06211394 0.06222989 0.06221882 0.06192447 0.06140681 0.06090548 0.06061522
 0.06055785 0.06071863 0.06117246 0.06187066 0.06238772 0.06222107 0.06142329 0.06063883 0.06038786 0.06056656
 0.06074624 0.06067044 0.06033313 0.05988589 0.0596902 0.06021965 0.06159193 0.06318498 0.06386559 0.06271069
 0.05966815 0.05575463 0.05267128 0.05189179 0.05363128 0.05655798 0.05879077 0.05939377 0.05882153 0.05797232
 0.05721548 0.05651073 0.05604123 0.05624636 0.05722649 0.05833724 0.05852292 0.05722156 0.0550294 0.05327271
 0.05279328 0.05342203 0.05469133 0.05634803 0.05763419 0.05687721 0.05313454 0.04827518 0.04614715 0.04892083
 0.05477244 0.05966075 0.06091794 0.05875758 0.05511748 0.05205105 0.0509341 0.05209373 0.05477064 0.05775104
 0.06009399 0.06116151 0.06045485 0.05805381 0.05504303 0.05298446 0.052957 0.05513515 0.05875396 0.06217694
 0.06363541 0.06253095 0.05983365 0.0570572 0.05526384 0.05505995 0.05673909 0.05998564 0.06385255 0.06730449
 0.06963901 0.07057007 0.07029703 0.06937653 0.06829637 0.06738589 0.06710473 0.06776516 0.06877965 0.06887985
 0.06749305 0.06550583 0.06435333 0.06453847 0.06523108 0.06527808 0.06436999 0.06287026 0.06068663 0.05723105
 0.05278258 0.04886647 0.04673577 0.04641208 0.04758352 0.05009319 0.05287731 0.05390921 0.05241589 0.05028879
 0.05021152 0.05279954 0.05628388 0.05866944 0.05958329 0.0601356 0.06149486 0.06369429 0.0654804 0.0652559
 0.06265878 0.05945515 0.05829329 0.0601064 0.06321642 0.06540272 0.06624755 0.06689863 0.06805392 0.06887273
 0.06785306 0.06462145 0.06088518 0.05936946 0.06143962 0.06573296 0.06914996 0.06914453 0.06543423 0.06006116
 0.05580491 0.05426386 0.05543425 0.05876946 0.0637837 0.06948341 0.07411779 0.07615862 0.07540521 0.07290614
 0.06976058 0.06609876 0.06164546 0.05740871 0.05589645 0.05875117 0.06465137 0.07041191 0.07382442 0.07475699
 0.07392219 0.07152626 0.06747562 0.06268704 0.05951656 0.05993535 0.06315538 0.06606765 0.06648995 0.06515952
 0.06414896 0.06428851 0.06484418 0.06509481 0.06537066 0.06648752 0.06856918 0.07072984 0.0719239 0.07189567
 0.07123074 0.07068145 0.07048248 0.07017491 0.06925202 0.06816351 0.06826326 0.07032119 0.07346183 0.07606497
 0.07739267 0.0778569 0.07792974 0.07730797 0.07534394 0.07225526 0.0696235 0.06922415 0.07131132 0.07445471
 0.07702676 0.07837629 0.07868415 0.07837589 0.0778294 0.07725435 0.07675694 0.07660098 0.07713662 0.07829659
 0.07948712 0.08018297 0.08036229 0.08023115 0.07983144 0.07912242 0.078271 0.07766181 0.07761276 0.07813504
 0.07898343 0.07987772 0.0805974 0.08094028 0.08079872 0.08031624 0.07980341 0.07945421 0.07927383 0.07927286
 0.07953891 0.08006249 0.08064537 0.08106607 0.08125901 0.08128829 0.08122019 0.08107555 0.08087199 0.08067597
 0.08060395 0.08074071 0.08103558 0.08133446 0.0815579 0.081778 0.082055 0.08228156 0.0822953 0.08210027
 0.08187707 0.0817901 0.0818571 0.08199292 0.08210185 0.08209755 0.08189744 0.08149484 0.08105393 0.08084714
 0.08103843 0.0815652 0.08224012 0.0828878 0.08337492 0.0836301 0.08369494 0.08368184 0.08364311 0.08353413
 0.08332132 0.08308294 0.08298479 0.0831562 0.08357438 0.08407397 0.08448039 0.08471905 0.08481293 0.08484621
 0.08493255 0.08512648 0.08534007 0.08542364 0.08535052 0.08525661 0.08527868 0.08540419 0.08550224 0.08547962
 0.08538768 0.08536842 0.08550015 0.08572271 0.08592422 0.08606978 0.08621874 0.08642557 0.08664238 0.08673915
 0.08664137 0.08642948 0.08625866 0.08619566 0.08619717 0.08623691 0.08636202 0.08659329 0.08684173 0.08698355
 0.08699498 0.08696884 0.08699664 0.08706316 0.08707292 0.08696401 0.08677445 0.08660313 0.08652885 0.08656478
 0.08666238 0.08674496 0.08675309 0.08667918 0.0865636 0.08645429 0.08637238 0.08632535 0.08634518 0.08647919
 0.08671618 0.08693834 0.08699127 0.08682416 0.08654863 0.08634126 0.08628409 0.08630334 0.08625894 0.08608119
 0.08581758 0.08556518 0.08538155 0.08525963 0.08516288 0.08506986 0.085 0.08500689 0.08512489 0.08529921
 0.08539116 0.08529308 0.08503576 0.08475609 0.08456971 0.08449885 0.08449896 0.08451396 0.0845193 0.08454057
 0.08461209 0.08470325 0.0847273 0.08464727 0.08453116 0.08448187 0.08455171 0.084729 0.08494839 0.08510248
 0.08510949 0.08499929 0.08489107 0.08487041 0.08492447 0.0850011 0.08508132 0.08517276 0.08527175 0.08536858
 0.08547822 0.08563782 0.08586778 0.08614155 0.08639537 0.08657102 0.08666354 0.0867368 0.08688198 0.08714371
 0.08748119 0.08780505 0.08805437 0.08823922 0.08841167 0.08860198 0.08879774 0.08898884 0.08920774 0.08949605
 0.08984253 0.09018797 0.09049122 0.09076255 0.09103143 0.09130922 0.09159324 0.09189339 0.09224083 0.09265776
 0.09310941 0.0935019 0.09375653 0.09388931 0.09400399 0.09421102 0.09455222 0.09496924 0.09532881 0.09552252
 0.09557956 0.09564995 0.09584286 0.09611589 0.09636362 0.09657769 0.09685645 0.09726299 0.09772928 0.0981206
 0.09836879 0.09852374 0.09868313 0.09888565 0.09908065 0.09920396 0.09926656 0.09934257 0.09947708 0.09965113
 0.09985171 0.1001225 0.1005003 0.100936 0.101329 0.1016226 0.1018281 0.1019778 0.1020925 0.1021791
 0.1022315 0.1022493 0.1022683 0.1023362 0.1024444 0.102526 0.1025463 0.1025554 0.1026266 0.1027828
 0.1030084 0.1032916 0.1036139 0.1039263 0.1041916 0.1044467 0.1047685 0.1051576 0.1055014 0.1056897
 0.105734 0.1057298 0.105736 0.1057551 0.1058093 0.1059578 0.106222 0.1065497 0.1068792 0.1072031
 0.107548 0.1079137 0.1082521 0.1084975 0.1086108 0.1086087 0.1085587 0.1085493 0.1086518 0.1088873
 0.1092138 0.1095513 0.1098316 0.1100236 0.1101135 0.1100986 0.1100254 0.1099997 0.1101056 0.11031
 0.1104771 0.1104812 0.1102835 0.1099088 0.1093891 0.1087544 0.1080585 0.107386 0.1068215 0.1064143
 0.1061797 0.1061361 0.1063247 0.1067678 0.1074098 0.1081259 0.108794 0.1093316 0.1096592 0.1096839
 0.109364 0.1087688 0.1080405 0.1073049 0.1066291 0.1060246 0.1054571 0.1048859 0.1043453 0.1039872
 0.1040126 0.1045507 0.1055918 0.1069974 0.1085484 0.1100155 0.1112463 0.112221 0.1130236 0.1137488
 0.1144397 0.1151077 0.1157733 0.116447 0.1170896 0.1176409 0.1180935 0.1185015 0.1189123 0.1193205
 0.1196879 0.1199831 0.1202073 0.1203987 0.120595 0.120777 0.1208735 0.1208442 0.120731 0.1206048
 0.1204854 0.1203307 0.1200841 0.1197208 0.1192787 0.1188779 0.118701 0.1189185 0.1195937 0.1206442
 0.1219028 0.1232221 0.1245111 0.125685 0.1266392 0.1273105 0.1277402 0.1280417 0.1283155 0.1286087
 0.1289265 0.1292522 0.1295613 0.1298396 0.130094 0.1303504 0.1306412 0.1309802 0.1313403 0.1316668
 0.1319293 0.132158 0.1324204 0.1327587 0.1331475 0.1335201 0.1338418 0.1341437 0.1344658 0.1347865
 0.1350439 0.135221 0.1353728 0.1355705 0.1358511 0.1362091 0.1365991 0.1369486 0.1372061 0.1373857
 0.1375466 0.1377303 0.137936 0.1381524 0.1383832 0.1386355 0.1389032 0.1391791 0.1394694 0.1397786
 0.1400805 0.1403265 0.1404949 0.1406201 0.1407622 0.1409526 0.141175 0.1413955 0.1416045 0.1418291
 0.1421037 0.1424247 0.1427372 0.1429762 0.1431233 0.1432222 0.1433379 0.1435052 0.1437157 0.1439417
 0.1441624 0.1443714 0.1445725 0.1447753 0.1449895 0.1452156 0.1454431 0.1456592 0.1458604 0.1460536
 0.146247 0.1464441 0.1466497 0.1468793 0.1471508 0.1474575 0.1477559 0.1479965 0.1481673 0.1482973
 0.1484222 0.148561 0.1487205 0.1489027 0.149103 0.1493103 0.1495154 0.1497156 0.1499116 0.1501065
 0.1503059 0.1505121 0.1507192 0.1509202 0.1511188 0.1513306 0.1515667 0.1518176 0.1520579 0.1522688
 0.1524533 0.1526301 0.1528153 0.1530112 0.1532083 0.1533974 0.1535799 0.1537636 0.1539531 0.1541473
 0.1543453 0.1545466 0.1547453 0.1549334 0.1551127 0.1552969 0.1554978 0.1557118 0.1559243 0.156126
 0.1563214 0.15652 0.1567235 0.1569255 0.1571194 0.1573057 0.1574905 0.1576822 0.1578841 0.158092
 0.1582986 0.1584995 0.1586946 0.1588874 0.1590832 0.1592838 0.1594844 0.1596802 0.1598728 0.1600684
 0.1602712 0.16048 0.1606883 0.16089 0.161089 0.1612965 0.1615156 0.1617372 0.1619516 0.1621583
 0.1623642 0.1625779 0.1628026 0.1630317 0.1632556 0.1634763 0.1637046 0.163941 0.1641688 0.1643696
 0.1645403 0.1646927 0.1648418 0.1649947 0.1651525 0.165318 0.165496 0.1656857 0.1658811 0.1660778
 0.1662748 0.1664733 0.1666771 0.1668881 0.1670989 0.1672997 0.1674912 0.1676825 0.1678797 0.1680848
 0.1682967 0.1685096 0.1687169 0.1689185 0.169119 0.1693221 0.1695306 0.1697449 0.1699594 0.1701695
 0.1703786 0.1705903 0.1708032 0.1710161 0.1712296 0.1714405 0.1716476 0.1718577 0.1720732 0.172284
 0.1724831 0.1726762 0.1728717 0.1730743 0.1732866 0.1735049 0.1737195 0.1739276 0.1741363 0.1743512
 0.1745727 0.1747981 0.1750179 0.1752242 0.1754249 0.1756328 0.1758446 0.1760523 0.1762608 0.1764762
 0.176693 0.1769074 0.1771214 0.1773212 0.1774568 0.1774004 0.1768549 0.1752539 0.1717497 0.1653846
 0.1554834 0.1420921 0.1261104 0.1089666 0.09210125 0.07660587 0.06311905 0.05190576 0.04300144 0.03631245
 0.03167801 0.02896164 0.02814749 0.02944264 0.0333912 0.04055569 0.05029911 0.05969764 0.06467375 0.06321848
 0.05731575 0.05113279 0.04754982 0.04676113 0.04752272 0.048777 0.05019474 0.05197812 0.054469 0.05777003
 0.06172514 0.06632592 0.07191343 0.07874258 0.08645552 0.09422834 0.1014804 0.1083335 0.1153367 0.1228096
 0.1305043 0.1378468 0.1443974 0.1500746 0.155061 0.1595958 0.1638402 0.167866 0.1717055 0.1753514
 0.178679 0.1814121 0.1832501 0.1840914 0.1841504 0.1838437 0.1835457 0.1834358 0.1835327 0.1838068
 0.1842353 0.1847983 0.1854711 0.1862256 0.1870314 0.1878622 0.1886999 0.1895263 0.1903193 0.1910626
 0.1917491 0.192375 0.1929423 0.1934638 0.1939513 0.194402 0.1948093 0.1951796 0.1955296 0.1958733
 0.1962154 0.1965482 0.1968554 0.1971255 0.197364 0.1975871 0.1978062 0.1980206 0.1982249 0.1984197
 0.1986161 0.1988253 0.1990472 0.1992731 0.1994966 0.1997138 0.1999199 0.200113 0.2002996 0.2004875
 0.2006799 0.2008774 0.2010791 0.2012793 0.2014709 0.2016555 0.2018431 0.2020391 0.202239 0.2024358
 0.2026281 0.2028205 0.2030174 0.2032185 0.2034225 0.2036315 0.2038446 0.2040532 0.2042522 0.204453
 0.2046689 0.2048966 0.2051222 0.205338 0.2055397 0.2057184 0.2058716 0.2060178 0.2061891 0.2064043
 0.2066483 0.2068841 0.2070878 0.2072683 0.2074496 0.2076442 0.2078471 0.2080453 0.2082321 0.208422
 0.2086415 0.2088942 0.2091528 0.209397 0.2096336 0.2098707 0.2101046 0.2103365 0.2105668 0.2107705
 0.210916 0.2110207 0.2111618 0.2114139 0.2117751 0.2121612 0.2124828 0.2127229 0.2129283 0.2131488
 0.2134067 0.2136805 0.2138829 0.2139196 0.2138357 0.2138428 0.2141231 0.2146464 0.2152283 0.2157214
 0.2161 0.2164071 0.2166769 0.2168986 0.2170235 0.217017 0.216935 0.2169454 0.2172138 0.2177337
 0.2183177 0.2187878 0.2191127 0.2193432 0.2195198 0.2196717 0.2197751 0.2196848 0.2192856 0.2187818
 0.2186561 0.219201 0.2201892 0.221118 0.2217079 0.2220469 0.2223181 0.2225703 0.2227657 0.2228152
 0.2224701 0.2214713 0.220061 0.2191182 0.2194316 0.2209051 0.2227095 0.2241082 0.2249213 0.2253408
 0.2256051 0.2258388 0.2259568 0.2256776 0.224833 0.2237765 0.2232932 0.2238774 0.2251825 0.2263938
 0.2270603 0.2273346 0.2275427 0.2278171 0.2280064 0.2276306 0.2261567 0.2237836 0.2218349 0.2218244
 0.223976 0.2269569 0.2292013 0.2302583 0.2306612 0.2307651 0.2302163 0.2285809 0.2260033 0.2231361
 0.2209102 0.2203995 0.2221211 0.2251539 0.2276568 0.2286806 0.2289722 0.2297523 0.2312593 0.2327612
 0.2335046 0.2332969 0.2323715 0.2309703 0.2292296 0.2275672 0.226915 0.2280593 0.2306877 0.2334975
 0.2354 0.2363508 0.2367848 0.2363383 0.2335843 0.2277437 0.2208346 0.2171217 0.2193513 0.2258769
 0.2324283 0.2363206 0.2379387 0.23872 0.2392225 0.2389729 0.2367648 0.231327 0.2233295 0.2166288
 0.2156597 0.2210536 0.2289265 0.2344976 0.2353297 0.2315886 0.2252102 0.2193335 0.2170093 0.2193466
 0.2250264 0.2316005 0.2369644 0.2399437 0.2402765 0.2384896 0.2358633 0.2341237 0.2341863 0.2347941
 0.2334777 0.2296687 0.2256443 0.2231949 0.2208736 0.2166871 0.2124697 0.2126748 0.2185739 0.2261117
 0.2304552 0.2308949 0.2299762 0.2288877 0.2254514 0.2172627 0.2062257 0.1986686 0.1998127 0.2083528
 0.2176208 0.2221178 0.2218884 0.2205848 0.2205866 0.2205611 0.2173292 0.2100125 0.2021702 0.1988262
 0.2011408 0.2053816 0.2073556 0.2057588 0.2007439 0.1925854 0.1840667 0.1813595 0.1888442 0.2037718
 0.2183948 0.2263389 0.2249702 0.2140538 0.1966542 0.1809841 0.1764201 0.1851162 0.1993853 0.20876
 0.2083111 0.1995655 0.1860289 0.1707593 0.1577684 0.1525279 0.1587251 0.174499 0.1923895 0.2030386
 0.2004025 0.1864796 0.1717323 0.167571 0.1759627 0.1880381 0.1939905 0.191961 0.1867062 0.1834961
 0.1850669 0.1910589 0.1984004 0.2042175 0.2081328 0.2090239 0.2019489 0.1840864 0.1625882 0.1498494
 0.1506419 0.1597181 0.171721 0.1859787 0.1999817 0.2061008 0.2001833 0.1893838 0.186039 0.194565
 0.2076917 0.2153567 0.2146642 0.2103882 0.2076361 0.2064332 0.2042589 0.2019068 0.203702 0.2115142
 0.2214764 0.228302 0.2307925 0.2313482 0.2319088 0.2324805 0.2325181 0.2318237 0.2304711 0.2289342
 0.2279381 0.2276476 0.2275164 0.2271086 0.2260712 0.2228924 0.2152455 0.2032583 0.1915617 0.1856124
 0.185917 0.1884355 0.1905929 0.1927811 0.1927516 0.1840252 0.1644412 0.1431932 0.1341375 0.1423991
 0.1605515 0.1770913 0.185253 0.1836069 0.1726442 0.154991 0.1381301 0.1320252 0.1409801 0.1595118
 0.1782165 0.1918633 0.1999134 0.202001 0.1969997 0.1862667 0.1748858 0.1687344 0.1709267 0.1804782
 0.1926138 0.1999564 0.1961529 0.1822219 0.169318 0.1704607 0.1868552 0.2058477 0.2151476 0.2152522
 0.2143697 0.2156562 0.2157024 0.2135628 0.2143151 0.2221397 0.2341901 0.2434006 0.2446934 0.2369868
 0.2225108 0.207277 0.1995076 0.203016 0.2127992 0.2204077 0.2220754 0.2182366 0.2085713 0.1940664
 0.1822317 0.1825856 0.1956398 0.2116785 0.2217967 0.2260077 0.2291763 0.232634 0.2325511 0.2257196
 0.2148986 0.2071108 0.2067143 0.2116102 0.2168262 0.2197572 0.2202176 0.2174915 0.2107725 0.2025327
 0.1985504 0.2029001 0.2137155 0.2248961 0.2315291 0.2329609 0.2314004 0.2290406 0.2265677 0.2233208
 0.2187663 0.2144111 0.2135051 0.2175782 0.2240211 0.2287737 0.2309684 0.2332117 0.2374683 0.242345
 0.2447866 0.2434123 0.2398326 0.2372539 0.2379107 0.2412896 0.2445091 0.2447787 0.2420512 0.239311
 0.2398244 0.2440265 0.2494672 0.2535989 0.2558518 0.257096 0.2581419 0.259031 0.2590043 0.2570708
 0.2534159 0.250232 0.2501747 0.2537334 0.2587628 0.2626979 0.2646281 0.2651645 0.2650328 0.264309
 0.2628274 0.2608726 0.2592154 0.2585026 0.2587833 0.2596588 0.2607016 0.2616473 0.2623673 0.2628463
 0.2631505 0.2633449 0.2634637 0.2635502 0.2636364 0.2636722 0.2635797 0.2634128 0.2633702 0.2635823
 0.2639474 0.2642362 0.2642961 0.2640722 0.263501 0.2625276 0.261228 0.2597821 0.2582769 0.2566468
 0.2549228 0.2535026 0.2530301 0.2539061 0.2559175 0.258372 0.2605786 0.2621913 0.2631984 0.2637398
 0.2639832 0.2640742 0.264098 0.2640634 0.2639414 0.2637201 0.2634175 0.2630585 0.2626618 0.2622523
 0.2618695 0.2615447 0.261269 0.2609945 0.2606666 0.2602574 0.2597748 0.2592496 0.258706 0.2581351
 0.257496 0.2567481 0.2558849 0.2549429 0.2539889 0.2530923 0.2522826 0.2515251 0.2507519 0.2499174
 0.2490022 0.2479801 0.2468402 0.24566 0.2445953 0.2437526 0.2430951 0.2424964 0.2418507 0.2411084
 0.2402499 0.2392813 0.2382404 0.2371704 0.2360826 0.2349568 0.2337673 0.2324972 0.2311407 0.2297017
 0.2281868 0.226604 0.2249754 0.2233333 0.2216796 0.2199448 0.2179975 0.2156916 0.2129042 0.2095565
 0.2056341 0.2012024 0.1964042 0.1914361 0.1865109 0.181815 0.1774834 0.1736086 0.1702655 0.1675203
 0.1654241 0.1640088 0.1632911 0.1632791 0.1639695 0.1653335 0.1673001 0.1697514 0.1725366 0.1754904
 0.1784479 0.1812642 0.1838493 0.186203 0.1884006 0.1905121 0.1925273 0.1943747 0.1960042 0.1974234
 0.1986555 0.1997024 0.2005623 0.2012575 0.2018272 0.2023076 0.2027266 0.203101 0.2034311 0.2037059
 0.2039223 0.2040986 0.204265 0.2044433 0.2046424 0.2048689 0.2051355 0.205457 0.2058448 0.2063026
 0.2068165 0.2073594 0.2079139 0.208488 0.2090968 0.2097458 0.2104464 0.2112377 0.2121692 0.2132667
 0.2145187 0.2158837 0.217294 0.2186583 0.2198812 0.2208912 0.2216539 0.2221672 0.2224516 0.2225441
 0.2224829 0.222289 0.2219715 0.2215543 0.2210807 0.2205794 0.2200414 0.2194439 0.2187856 0.2180858
 0.2173645 0.2166394 0.2159311 0.2152545 0.214605 0.2139645 0.2133225 0.2126859 0.2120668 0.2114671
 0.2108809 0.2103067 0.2097469 0.2091968 0.2086403 0.2080567 0.2074229 0.2067142 0.2059111 0.2050035
 0.2039838 0.2028461 0.2016015 0.2002842 0.1989251 0.1975232 0.19605 0.1944814 0.1928206 0.1910869
 0.1892821 0.1873805 0.185372 0.1833129 0.1813114 0.1794529 0.1777509 0.1761676 0.1746656 0.1732339
 0.171877 0.1705929 0.1693701 0.1682037 0.1671003 0.1660619 0.1650777 0.1641398 0.1632549 0.1624385
 0.1617053 0.1610616 0.1605014 0.1600132 0.1595923 0.1592399 0.1589608 0.1587738 0.1587017 0.1587308
 0.1587962 0.1588266 0.1587921 0.158705 0.1585992 0.1585084 0.1584449 0.1583953 0.1583376 0.1582463
 0.158077 0.1577588 0.157209 0.1563557 0.1551656 0.153663 0.1519227 0.1500574 0.1482062 0.1465011
 0.145023 0.1438074 0.142874 0.1422086 0.1417308 0.1413431 0.1410188 0.1408188 0.1408222 0.1410336
 0.1413318 0.1415376 0.1415779 0.1415683 0.1417064 0.1421082 0.1427498 0.1435146 0.1442752 0.1449555
 0.1455218 0.1459366 0.1461734 0.1462686 0.1462894 0.1462538 0.146138 0.1459372 0.1456703 0.1453518
 0.1449874 0.1445705 0.1440844 0.143528 0.1429101 0.142211 0.1413991 0.1404749 0.1394374 0.1382608
 0.1369994 0.1358744 0.1351681 0.1350438 0.1354726 0.1362754 0.1372471 0.1382815 0.1393161 0.1401478
 0.1405078 0.1404682 0.140629 0.1416742 0.1437199 0.1461934 0.148348 0.1497921 0.1505126 0.150593
 0.1500919 0.1490819 0.1475999 0.1456075 0.1431201 0.1402743 0.13721 0.1340467 0.130985 0.1282485
 0.1259403 0.1240673 0.1226137 0.1216116 0.1211949 0.1209926 0.1190879 0.1130318 0.1036477 0.09669445
 0.09799362 0.1068612 0.1166065 0.12159 0.1216918 0.1199455 0.1184302 0.1174494 0.1168916 0.1169135
 0.1176607 0.1189849 0.1204731 0.1217025 0.1225033 0.1229197 0.1229165 0.122135 0.1198304 0.1151322
 0.1077471 0.09856074 0.08932563 0.0816386 0.07623489 0.07301704 0.07139553 0.0706246 0.07015914 0.06991491
 0.07018516 0.07127126 0.0732111 0.07584594 0.07900342 0.08245998 0.0858106 0.0886299 0.09080774 0.09254758
 0.09400553 0.09509359 0.09565648 0.09568411 0.09530386 0.09466937 0.093905 0.09308665 0.09220159 0.09115456
 0.08991481 0.0886765 0.0877618 0.08731548 0.08719409 0.08718045 0.08718033 0.08718534 0.08718289 0.0871551
 0.08710086 0.08705981 0.08713835 0.08744214 0.08794158 0.08846325 0.08883779 0.08902375 0.08909126 0.08908135
 0.08887125 0.08828488 0.08741498 0.08664243 0.0861399 0.08555286 0.08446467 0.08305541 0.08199595 0.08172365
 0.082054 0.08248158 0.08264714 0.08249833 0.08222041 0.08212975 0.08247265 0.08314194 0.08366656 0.08364657
</values></Ydata></ScRf><Data_Parameters_AB><parameter name="DPF">1</parameter><parameter name="NPT">3497</parameter><parameter name="FXV">3996</parameter><parameter name="LXV">500</parameter><parameter name="CSF">1</parameter><parameter name="MXY">0.483652353286743</parameter><parameter name="MNY">-0.0704799219965935</parameter><parameter name="DAT">01/06/2022</parameter><parameter name="TIM">12:12:45.885 (GMT+2)</parameter><parameter name="DXU">WN</parameter></Data_Parameters_AB><AB__Qtest><MainReport name="Quality Test Report"><Header><Line><Legend>Test result ok/not ok [1/0]: </Legend><Value>1</Value></Line><Line><Legend>Method file: </Legend><Value>C:\Users\Public\Documents\Bruker\OPUS_8.2.28\QT\IRBT_v3_default.QT</Value></Line></Header><Matrix><Line><Legend></Legend><Legend>min</Legend><Legend>max</Legend><Legend>measured</Legend></Line><Line><Value>Absorption (X-Range 1):</Value><Value>0.400000</Value><Value>2.000000</Value><Value>0.520016</Value></Line><Line><Value>Noise (X-Range 4):</Value><Value></Value><Value>0.000300</Value><Value>0.000069</Value></Line><Line><Value>Signal/Noise (X-Range 2):</Value><Value>200.000000</Value><Value></Value><Value>222.656484</Value></Line><Line><Value>Signal/Noise (X-Range 3):</Value><Value>40.000000</Value><Value></Value><Value>64.522971</Value></Line><Line><Value>Water vapour (X-Range 5):</Value><Value></Value><Value>0.000300</Value><Value>0.000097</Value></Line><Line><Value>Signal/Water (X-Range 2):</Value><Value>100.000000</Value><Value></Value><Value>158.483978</Value></Line><Line><Value>Signal/Water (X-Range 3):</Value><Value>20.000000</Value><Value></Value><Value>45.926608</Value></Line><Line><Value>Fringes (X-Range 6):</Value><Value></Value><Value>0.000100</Value><Value>0.000072</Value></Line></Matrix></MainReport></AB__Qtest><Data_Parameters_ScSm><parameter name="DPF">1</parameter><parameter name="NPT">1814</parameter><parameter name="FXV">3996.33169228125</parameter><parameter name="LXV">499.541461535156</parameter><parameter name="CSF">1</parameter><parameter name="MXY">0.257070660591125</parameter><parameter name="MNY">0.0301906801760197</parameter><parameter name="DAT">01/06/2022</parameter><parameter name="TIM">12:12:45.885 (GMT+2)</parameter><parameter name="DXU">WN</parameter></Data_Parameters_ScSm><Data_Parameters_ScRf><parameter name="DPF">1</parameter><parameter name="NPT">1820</parameter><parameter name="FXV">4004.04661832813</parameter><parameter name="LXV">495.683998511719</parameter><parameter name="CSF">1</parameter><parameter name="MXY">0.265164494514465</parameter><parameter name="MNY">0.0281474888324738</parameter><parameter name="DAT">01/06/2022</parameter><parameter name="TIM">12:12:19.121 (GMT+2)</parameter><parameter name="DXU">WN</parameter></Data_Parameters_ScRf><Optic_Parameters_Rf><parameter name="APR">0</parameter><parameter name="APT">Open</parameter><parameter name="BMS">KBr</parameter><parameter name="DTC">RT-DLaTGS_IR-Biotyper [Microplate reader]</parameter><parameter name="HPF">0</parameter><parameter name="LPF">10.0</parameter><parameter name="LPV">4000</parameter><parameter name="PGR">0</parameter><parameter name="RCH">Module port</parameter><parameter name="RDX">0</parameter><parameter name="SRC">MIR</parameter><parameter name="VEL">10.0</parameter><parameter name="SON">Off</parameter></Optic_Parameters_Rf><Acquisition_Parameters_Rf><parameter name="ADT">1</parameter><parameter name="AQM">DD</parameter><parameter name="CFE">0</parameter><parameter name="COR">0</parameter><parameter name="DEL">0</parameter><parameter name="DLY">0</parameter><parameter name="HFW">8000</parameter><parameter name="LFW">0</parameter><parameter name="NSR">32</parameter><parameter name="PLF">AB</parameter><parameter name="RES">6</parameter><parameter name="RGN">-1</parameter><parameter name="STR">0</parameter><parameter name="TCL">MakeCompatibleScalar (0, {WSV=1.000000, ARV=0});</parameter><parameter name="TDL">37</parameter><parameter name="RPO">0</parameter></Acquisition_Parameters_Rf><FT_-_Parameters_Rf><parameter name="APF">B3</parameter><parameter name="HFQ">500</parameter><parameter name="LFQ">4000</parameter><parameter name="NLI">0</parameter><parameter name="PHR">24</parameter><parameter name="PHZ">ML</parameter><parameter name="SPZ">NO</parameter><parameter name="ZFF">1</parameter></FT_-_Parameters_Rf><Optic_Parameters_><parameter name="APR">0</parameter><parameter name="APT">Open</parameter><parameter name="BMS">KBr</parameter><parameter name="CHN">Module port</parameter><parameter name="DTC">RT-DLaTGS_IR-Biotyper [Microplate reader]</parameter><parameter name="HPF">0</parameter><parameter name="LPF">10.0</parameter><parameter name="LPV">4000</parameter><parameter name="PGN">0</parameter><parameter name="RDX">0</parameter><parameter name="SRC">MIR</parameter><parameter name="VEL">10.0</parameter><parameter name="SON">Off</parameter></Optic_Parameters_><FT_-_Parameters_><parameter name="APF">B3</parameter><parameter name="HFQ">500</parameter><parameter name="LFQ">4000</parameter><parameter name="NLI">0</parameter><parameter name="PHR">24</parameter><parameter name="PHZ">ML</parameter><parameter name="SPZ">NO</parameter><parameter name="ZFF">1</parameter></FT_-_Parameters_><Acquisition_Parameters_><parameter name="ADT">1</parameter><parameter name="AQM">DD</parameter><parameter name="CFE">0</parameter><parameter name="COR">0</parameter><parameter name="DEL">0</parameter><parameter name="DLY">0</parameter><parameter name="HFW">8000</parameter><parameter name="LFW">0</parameter><parameter name="NSS">32</parameter><parameter name="PLF">AB</parameter><parameter name="RES">6</parameter><parameter name="SOT">0</parameter><parameter name="TCL">MakeCompatibleScalar (0, {WSV=1.000000, ARV=0});</parameter><parameter name="TDL">37</parameter><parameter name="SPO">0</parameter><parameter name="SGN">-1</parameter></Acquisition_Parameters_><Instrument_Parameters_Rf><parameter name="HFL">15800.168544</parameter><parameter name="LFL">0</parameter><parameter name="LWN">15800.168544</parameter><parameter name="ABP">32197</parameter><parameter name="SSP">1</parameter><parameter name="ARG">2</parameter><parameter name="ASG">2</parameter><parameter name="ASS">32</parameter><parameter name="GFW">16</parameter><parameter name="GBW">16</parameter><parameter name="BFW">0</parameter><parameter name="BBW">0</parameter><parameter name="PKA">7315</parameter><parameter name="PKL">4990</parameter><parameter name="PRA">7482</parameter><parameter name="PRL">5001</parameter><parameter name="P2A">1</parameter><parameter name="P2L">1</parameter><parameter name="P2R">1</parameter><parameter name="P2K">1</parameter><parameter name="DAQ">0</parameter><parameter name="AG2">1</parameter><parameter name="SSM">1</parameter><parameter name="RSN">25997</parameter><parameter name="CRR">0</parameter><parameter name="SRT">1654085539.122</parameter><parameter name="DUR">19.6389923095703</parameter><parameter name="TSC">29</parameter><parameter name="MVD">0.231037139892578</parameter><parameter name="AN1">0.22581070083227</parameter><parameter name="AN2">0</parameter><parameter name="VSN">2.485 Apr  4 2017</parameter><parameter name="SRN">0085</parameter><parameter name="CAM">0</parameter><parameter name="INS">IR-Biotyper</parameter><parameter name="FOC">69</parameter><parameter name="RDY">1</parameter><parameter name="ARS">32</parameter></Instrument_Parameters_Rf><Sample_Parameters_><parameter name="BLD"></parameter><parameter name="CNM">Admin</parameter><parameter name="CPY"></parameter><parameter name="DPM"></parameter><parameter name="EXP">IRBT_v3_32Scans.XPM</parameter><parameter name="LCT"></parameter><parameter name="SFM">Microplate, HTS-XT</parameter><parameter name="SNM">220601-1028(v.3)_JMJ44M (D_3)_A11_395c4fdb-325e-4de1-bc80-9f81f5a36644.0</parameter><parameter name="XPP">C:\Users\Public\Documents\Bruker\OPUS_8.2.28\XPM</parameter><parameter name="IST">OK</parameter><parameter name="CPG">1252</parameter><parameter name="UID">4733045e-6b1f-4c54-9c2e-b19996c90025</parameter></Sample_Parameters_><Instrument_Parameters_><parameter name="HFL">15800.168544</parameter><parameter name="LFL">0</parameter><parameter name="LWN">15800.168544</parameter><parameter name="ABP">32197</parameter><parameter name="SSP">1</parameter><parameter name="ASG">4</parameter><parameter name="ARG">2</parameter><parameter name="ASS">32</parameter><parameter name="GFW">16</parameter><parameter name="GBW">16</parameter><parameter name="BFW">0</parameter><parameter name="BBW">0</parameter><parameter name="PKA">6171</parameter><parameter name="PKL">4988</parameter><parameter name="PRA">6496</parameter><parameter name="PRL">4993</parameter><parameter name="P2A">1</parameter><parameter name="P2L">1</parameter><parameter name="P2R">1</parameter><parameter name="P2K">1</parameter><parameter name="DAQ">0</parameter><parameter name="AG2">1</parameter><parameter name="SSM">1</parameter><parameter name="RSN">13624</parameter><parameter name="CRR">0</parameter><parameter name="SRT">1654085565.886</parameter><parameter name="DUR">19.6389923095703</parameter><parameter name="TSC">28.9</parameter><parameter name="MVD">0.838821053504944</parameter><parameter name="AN1">0.225809232651233</parameter><parameter name="AN2">0</parameter><parameter name="VSN">2.485 Apr  4 2017</parameter><parameter name="SRN">0085</parameter><parameter name="CAM">0</parameter><parameter name="INS">IR-Biotyper</parameter><parameter name="FOC">69</parameter><parameter name="RDY">1</parameter></Instrument_Parameters_><History/></OPUSDataFile>
