<?xml version="1.0" encoding="UTF-8" ?>
<OPUSDataFile><AB><Ydata ylabel="Absorbance Units"><values byteorder="INTEL" format="FLOAT32" numvalues="3497"> -0.05883481 -0.05885307 -0.05888151 -0.05892172 -0.05894989 -0.05896481 -0.05895372 -0.05891784 -0.05886837 -0.05880851
 -0.05876335 -0.05873259 -0.05873027 -0.05875023 -0.05878506 -0.0588297 -0.05887108 -0.05891162 -0.05894886 -0.0589864
 -0.05902867 -0.05906975 -0.0591088 -0.05913653 -0.05914739 -0.05914476 -0.05912647 -0.05910804 -0.05909171 -0.05908766
 -0.05909779 -0.05911675 -0.05914433 -0.05916837 -0.05918876 -0.05920037 -0.05920491 -0.05920967 -0.0592166 -0.05923734
 -0.05927063 -0.05932076 -0.0593822 -0.05944846 -0.05951382 -0.05956841 -0.05961199 -0.05964049 -0.05965766 -0.05966521
 -0.05966323 -0.05965304 -0.05962978 -0.05959152 -0.05954003 -0.05947332 -0.05940909 -0.05934821 -0.05931357 -0.05930651
 -0.05933576 -0.05940021 -0.05948679 -0.05959288 -0.05969581 -0.05979523 -0.05987749 -0.05994479 -0.05999555 -0.06003197
 -0.06005643 -0.06007189 -0.06008207 -0.06009058 -0.06010246 -0.06011631 -0.06013446 -0.0601484 -0.06015575 -0.06014904
 -0.06012405 -0.06008726 -0.06003711 -0.05999482 -0.05996171 -0.05996173 -0.05999634 -0.06007741 -0.06020381 -0.06036438
 -0.06055382 -0.06073548 -0.06090281 -0.06100968 -0.06105958 -0.06103302 -0.06094839 -0.06082592 -0.06068453 -0.06055489
 -0.06044468 -0.06037246 -0.06033107 -0.06032425 -0.06033379 -0.06035358 -0.06037149 -0.06038127 -0.06038849 -0.06039253
 -0.06040429 -0.06042532 -0.06045566 -0.06049545 -0.06053625 -0.06057798 -0.06061795 -0.06065723 -0.06070176 -0.06075153
 -0.06081089 -0.06087658 -0.06094319 -0.06100704 -0.0610579 -0.06109832 -0.0611268 -0.06114794 -0.0611676 -0.06117987
 -0.06118366 -0.06117148 -0.06113513 -0.06109279 -0.06104236 -0.06102762 -0.06105507 -0.06115963 -0.06134901 -0.06160196
 -0.0619186 -0.06216177 -0.06232487 -0.06227016 -0.06202123 -0.06166165 -0.06121871 -0.06084412 -0.06053427 -0.06035686
 -0.06029524 -0.06035845 -0.06051213 -0.06072696 -0.06095409 -0.06114112 -0.06126869 -0.06129977 -0.06127665 -0.06120406
 -0.06113156 -0.06107834 -0.06104371 -0.06103217 -0.06102289 -0.06101303 -0.06100301 -0.0609926 -0.0609962 -0.06101373
 -0.06104632 -0.06109174 -0.06113577 -0.06117729 -0.06120441 -0.06121784 -0.06121413 -0.06119241 -0.06114882 -0.06108513
 -0.06099889 -0.06090127 -0.06079851 -0.06070577 -0.06063303 -0.06059039 -0.06058538 -0.06061677 -0.06068832 -0.06078271
 -0.06089946 -0.06101124 -0.06111548 -0.06118945 -0.06123158 -0.06123031 -0.0611858 -0.06109904 -0.06097201 -0.06081707
 -0.06063788 -0.06045368 -0.06026982 -0.06010883 -0.05997523 -0.05988935 -0.05984645 -0.05985366 -0.05989058 -0.05994543
 -0.05999374 -0.06001497 -0.0600074 -0.05996092 -0.05989972 -0.05982754 -0.05976701 -0.05972407 -0.05970122 -0.05969977
 -0.05971429 -0.05974452 -0.05978843 -0.05984561 -0.05990983 -0.05997926 -0.06003775 -0.06008476 -0.0601074 -0.060111
 -0.06010161 -0.06008663 -0.06008334 -0.06009201 -0.06012199 -0.0601649 -0.06021534 -0.06027136 -0.06032616 -0.06039535
 -0.06048412 -0.06060212 -0.06075888 -0.06092698 -0.06110623 -0.06125115 -0.06135584 -0.06140333 -0.06139227 -0.06130921
 -0.06115351 -0.06090674 -0.06057709 -0.06020894 -0.05981807 -0.05949403 -0.05923874 -0.05910897 -0.05908323 -0.05915836
 -0.05928989 -0.05941942 -0.05952296 -0.05954871 -0.05952721 -0.05946063 -0.05938248 -0.05931255 -0.05924639 -0.05919022
 -0.05911584 -0.05901763 -0.05888565 -0.05871537 -0.05853724 -0.05835267 -0.05820054 -0.05808174 -0.05801262 -0.05799067
 -0.05800961 -0.05806113 -0.05811202 -0.05814889 -0.05811384 -0.05801408 -0.05782726 -0.05758816 -0.05733528 -0.05708304
 -0.05686404 -0.05665912 -0.05646723 -0.0562659 -0.0560418 -0.05579789 -0.05552905 -0.05525899 -0.05499152 -0.05474208
 -0.05451469 -0.05429738 -0.05409029 -0.05385177 -0.0535801 -0.05323977 -0.05283711 -0.05240005 -0.05193835 -0.05151065
 -0.05111311 -0.05076547 -0.0504597 -0.05019106 -0.04995131 -0.04973407 -0.04951577 -0.04927804 -0.04899061 -0.04862335
 -0.04818493 -0.04766746 -0.04710282 -0.04650488 -0.04586033 -0.04516999 -0.04441106 -0.04357738 -0.04269668 -0.04176984
 -0.04084212 -0.03991519 -0.03901629 -0.03814607 -0.03732385 -0.03654762 -0.03582288 -0.03514018 -0.03447684 -0.0338259
 -0.03316277 -0.03248854 -0.03180268 -0.03108368 -0.03032197 -0.02947005 -0.02848214 -0.02738135 -0.0261478 -0.02488859
 -0.02363588 -0.02243331 -0.02130103 -0.02020744 -0.01915194 -0.01809801 -0.01704275 -0.01597571 -0.01489772 -0.01383012
 -0.01277436 -0.01175778 -0.0107685 -0.009778257 -0.008759288 -0.007609561 -0.006340012 -0.004901029 -0.00337295 -0.00184844
 -0.0003621852 0.001005206 0.002300943 0.003529946 0.004739916 0.005957918 0.007188655 0.00844157 0.009697962 0.0109536
 0.01220843 0.01345935 0.01473725 0.01604365 0.01741898 0.01886343 0.0203751 0.02194598 0.02351241 0.02506934
 0.02655789 0.02798692 0.02935 0.03065911 0.03193187 0.0331813 0.03442777 0.03569042 0.0369969 0.03834729
 0.03975767 0.04119347 0.04264104 0.04408608 0.04551297 0.04696298 0.04844276 0.04997749 0.05157751 0.05318334
 0.05479217 0.05633357 0.05780674 0.05921457 0.06056261 0.06189581 0.06321716 0.06456544 0.06593502 0.06733427
 0.06874692 0.0701441 0.07151876 0.07283972 0.07413562 0.07541477 0.07672419 0.07810365 0.07955435 0.08109877
 0.08267617 0.08427375 0.0858439 0.08737181 0.08885481 0.09028939 0.09169316 0.09306659 0.09443958 0.09581356
 0.09721504 0.09864215 0.100092 0.1015608 0.1030286 0.1044971 0.1059609 0.1074232 0.1088899 0.1103572
 0.1118237 0.113282 0.1147242 0.1161469 0.1175439 0.1189208 0.1202764 0.1216256 0.1229735 0.1243259
 0.1256878 0.1270405 0.1283825 0.1296984 0.1309861 0.1322658 0.1335387 0.1348336 0.136149 0.1374851
 0.1388389 0.140197 0.1415596 0.1429222 0.1442818 0.1456314 0.1469646 0.1482684 0.1495429 0.1507821
 0.1519934 0.1531777 0.1543478 0.1555069 0.1566753 0.1578605 0.159072 0.1603162 0.1615736 0.1628432
 0.1641023 0.1653488 0.1665811 0.167799 0.168997 0.1701742 0.1713156 0.1724264 0.1735209 0.1746081
 0.1757265 0.1768698 0.1780482 0.1792419 0.1804264 0.1815924 0.1827202 0.1838143 0.1848717 0.1858983
 0.1868944 0.1878725 0.1888353 0.1897968 0.1907619 0.1917264 0.192691 0.1936443 0.1945849 0.1955193
 0.1964479 0.1973802 0.1983145 0.1992414 0.2001598 0.2010587 0.2019412 0.2028112 0.20367 0.2045237
 0.2053696 0.2062068 0.2070321 0.2078428 0.208635 0.2094039 0.2101525 0.2108775 0.2115966 0.212315
 0.2130434 0.213788 0.2145323 0.2152751 0.2160015 0.2167093 0.2174138 0.2181159 0.2188354 0.2195712
 0.2203214 0.2210851 0.2218569 0.222637 0.2234259 0.2242171 0.2249991 0.2257634 0.2264913 0.2271847
 0.227838 0.2284569 0.2290444 0.2296029 0.2301319 0.2306424 0.2311351 0.2316309 0.2321349 0.2326563
 0.2331981 0.2337516 0.2343165 0.2348843 0.2354549 0.236029 0.236607 0.2371927 0.2377847 0.2383798
 0.2389722 0.2395432 0.2400865 0.2405764 0.2410214 0.2414167 0.241787 0.242155 0.2425377 0.242959
 0.2434064 0.2438852 0.244362 0.2448285 0.2452565 0.2456361 0.2459684 0.2462493 0.2465141 0.2467653
 0.2470331 0.247318 0.2475978 0.2478681 0.2480755 0.2482234 0.2482962 0.2483107 0.2483088 0.2483072
 0.2483631 0.248478 0.2486841 0.2489602 0.2493029 0.2496737 0.2500446 0.2503928 0.250692 0.2509668
 0.2512155 0.2514816 0.2517796 0.252104 0.2524616 0.2527876 0.2530779 0.253278 0.2533863 0.2534163
 0.2533731 0.2533163 0.2532471 0.2532049 0.2531822 0.2531742 0.2531815 0.2531982 0.2532398 0.2533314
 0.2534712 0.2536799 0.2539102 0.2541394 0.2543196 0.25441 0.2544356 0.2543842 0.2543398 0.2543195
 0.2543768 0.2545277 0.2547434 0.2550257 0.2552926 0.25554 0.2556884 0.2557384 0.2556604 0.2554679
 0.2552085 0.2549057 0.2546589 0.2544796 0.2544485 0.2545422 0.2547716 0.255082 0.2554254 0.2557511
 0.2560018 0.2561753 0.2562456 0.2562654 0.2562424 0.2562378 0.2562675 0.2563628 0.2565299 0.2567857
 0.2571315 0.2575911 0.2581651 0.2588511 0.2596412 0.26046 0.2612902 0.2620029 0.2625906 0.2629526
 0.2631152 0.2630726 0.2628879 0.2626454 0.2624102 0.2622889 0.2622889 0.262468 0.2627471 0.2631166
 0.2634568 0.263725 0.2638487 0.2637939 0.2635876 0.2632216 0.2627919 0.2623054 0.261845 0.2614142
 0.2610325 0.2606981 0.2603968 0.2601309 0.2599044 0.2597221 0.259606 0.2595486 0.2595524 0.2595878
 0.2596196 0.2596033 0.2594823 0.2592204 0.2587669 0.2581318 0.2572925 0.2563232 0.2552338 0.2541261
 0.2530239 0.2519959 0.251058 0.2502242 0.249499 0.2488508 0.2482777 0.2477108 0.2471462 0.2465131
 0.2458189 0.2450604 0.244259 0.2434871 0.242749 0.2421013 0.2415074 0.2409391 0.2403561 0.2396933
 0.238966 0.2381507 0.2373177 0.2364925 0.2357383 0.235089 0.2345468 0.2341283 0.2337643 0.2334538
 0.2330847 0.2326475 0.2320601 0.2313189 0.2304427 0.2294406 0.2284215 0.227394 0.2264644 0.2256238
 0.2249034 0.2242819 0.2237281 0.2232249 0.2227318 0.2222423 0.2217353 0.2212085 0.2206553 0.2200726
 0.2194567 0.2188091 0.2181261 0.217426 0.2167098 0.2160063 0.2153209 0.2146643 0.2140394 0.2134226
 0.2128126 0.2121749 0.2115096 0.2108056 0.210067 0.2093099 0.208538 0.2077716 0.2070117 0.2062698
 0.2055461 0.2048463 0.2041676 0.203512 0.2028676 0.202228 0.2015781 0.2009061 0.2002122 0.1994903
 0.1987603 0.1980259 0.1973018 0.1965933 0.1958884 0.1951871 0.1944677 0.1937294 0.1929738 0.1922028
 0.1914412 0.1906892 0.1899622 0.1892544 0.1885543 0.1878564 0.1871403 0.1864094 0.1856581 0.1848965
 0.184133 0.1833772 0.182637 0.1819243 0.181244 0.1806165 0.1800517 0.1795558 0.1791407 0.1787574
 0.1784071 0.1779935 0.1775077 0.1768842 0.1761194 0.1752446 0.1742679 0.1732963 0.1723376 0.1714952
 0.1707607 0.1701688 0.169689 0.1692745 0.1688847 0.1684308 0.1678994 0.1672274 0.1664608 0.165603
 0.1647325 0.1638954 0.1631267 0.1624597 0.1618568 0.1613164 0.1607969 0.1602855 0.1598084 0.1593644
 0.1590194 0.158777 0.1586487 0.1586275 0.1586277 0.1586361 0.1585281 0.1583052 0.1578973 0.1573333
 0.1566388 0.1558552 0.1550625 0.1542791 0.1535639 0.1528964 0.1522806 0.1516912 0.1511084 0.1505444
 0.1499959 0.1494918 0.1490446 0.1486376 0.1482745 0.1478991 0.1475043 0.1470766 0.1466148 0.146179
 0.1457718 0.1454491 0.1452025 0.1450126 0.1448663 0.1447032 0.144526 0.1443078 0.144065 0.1438159
 0.1435644 0.1433299 0.1430863 0.1428262 0.1425056 0.1420976 0.1415796 0.140927 0.1401776 0.139325
 0.1384661 0.137612 0.1368582 0.1362184 0.1357053 0.1353205 0.1349747 0.1346611 0.1342632 0.1337841
 0.1331772 0.1324633 0.1316901 0.1308802 0.1301141 0.129394 0.1287645 0.1282045 0.1277104 0.1272534
 0.1268098 0.1263606 0.1258859 0.1253895 0.1248636 0.1243359 0.123811 0.1233158 0.1228591 0.122428
 0.1220248 0.1215956 0.1211371 0.120613 0.1200259 0.1194063 0.1187612 0.1181538 0.1175784 0.1170522
 0.1165547 0.1160417 0.1155065 0.114909 0.1142769 0.1136231 0.1129841 0.1123989 0.1118702 0.1114158
 0.1110077 0.1106376 0.1102923 0.1099621 0.1096684 0.1094128 0.1092165 0.1090845 0.1089934 0.1089425
 0.1088614 0.1087462 0.1085243 0.1081996 0.1077526 0.1072012 0.1065967 0.1059636 0.1053872 0.104882
 0.1045145 0.1042774 0.1041934 0.1042342 0.1043887 0.104619 0.1049028 0.1052107 0.1055257 0.1058376
 0.1061398 0.1064358 0.1067239 0.1070176 0.1073157 0.1076559 0.10804 0.1085337 0.1091394 0.1099081
 0.1108324 0.1118962 0.113082 0.114316 0.1155875 0.1168295 0.1180481 0.1192223 0.1203647 0.1214832
 0.1225831 0.1236713 0.1247504 0.1258218 0.1268939 0.1279708 0.1290562 0.1301563 0.1312478 0.1323319
 0.1333573 0.1343198 0.1351713 0.1359086 0.1365177 0.1369997 0.1373692 0.1376265 0.1377819 0.1378332
 0.1377737 0.1376121 0.137357 0.1370412 0.1367188 0.1364313 0.1362543 0.1361991 0.1363096 0.1365526
 0.1369245 0.1373837 0.1379097 0.1384929 0.1391243 0.1398188 0.1405784 0.1414099 0.1423154 0.1432845
 0.1443171 0.1453878 0.1464937 0.1475884 0.1486675 0.1496755 0.1506171 0.1514739 0.1522679 0.1530437
 0.1538222 0.1546729 0.1555708 0.1565425 0.1574719 0.1583084 0.1588425 0.1589604 0.1584545 0.1571981
 0.1551603 0.1522646 0.1487624 0.1446528 0.1403722 0.1359605 0.1318025 0.1279256 0.1244907 0.1214948
 0.1188902 0.1166622 0.1146909 0.1129698 0.1114131 0.1100181 0.1087398 0.107566 0.1064577 0.1053994
 0.1043533 0.1033234 0.1022941 0.101293 0.1003299 0.09943287 0.09861691 0.09789187 0.09726423 0.09673138
 0.0962936 0.09594916 0.0956976 0.0955421 0.09548286 0.0955217 0.09565695 0.09586453 0.09613439 0.09638932
 0.09661332 0.09669755 0.09664232 0.09638204 0.09595215 0.0953766 0.09471086 0.09403163 0.09338011 0.09281909
 0.09236137 0.09203325 0.09182818 0.09174972 0.09178762 0.09193636 0.09220618 0.09259292 0.09314471 0.0938679
 0.09478885 0.09591315 0.09709395 0.09830979 0.09916635 0.09963132 0.09926205 0.0980932 0.09598644 0.09308369
 0.08966356 0.08589131 0.0822024 0.07865907 0.07553627 0.07276614 0.07039285 0.06830577 0.06644721 0.06475417
 0.06318297 0.06172435 0.06036779 0.05911519 0.05796665 0.05691622 0.05596397 0.05509783 0.05431729 0.05360162
 0.05294923 0.05233114 0.051746 0.05116934 0.05060288 0.05003877 0.04948303 0.04894643 0.04843643 0.04797353
 0.04755666 0.04719825 0.04687839 0.04658872 0.0462979 0.04598356 0.04563072 0.04522151 0.04477842 0.04429872
 0.0438313 0.04338447 0.04299405 0.04266794 0.04239459 0.0421746 0.04195928 0.04174681 0.04150339 0.04123297
 0.04094943 0.04065739 0.0403874 0.04013185 0.03988861 0.03964216 0.03935951 0.03903969 0.03866176 0.03824807
 0.03780774 0.03737016 0.03695603 0.03658246 0.03626341 0.03599789 0.03579181 0.03562342 0.0354929 0.03536058
 0.03522241 0.03504478 0.03482457 0.03456169 0.03425737 0.03394032 0.03361227 0.03330018 0.03300271 0.0327284
 0.03247545 0.032243 0.03203095 0.03183948 0.03166679 0.03151177 0.03136957 0.03123497 0.03110636 0.03097958
 0.03086061 0.03075152 0.03065497 0.0305755 0.03049668 0.03041854 0.03031115 0.0301703 0.02998248 0.02974563
 0.02948218 0.02919403 0.02892144 0.02866492 0.02844846 0.02826735 0.02811552 0.02798576 0.02785443 0.02771893
 0.02756036 0.02738721 0.02719999 0.02701538 0.02685061 0.02671065 0.02661022 0.02652516 0.02645294 0.02635623
 0.02622137 0.02603633 0.02579205 0.02551622 0.02520945 0.02491163 0.02462586 0.02437109 0.02414728 0.02394602
 0.02376537 0.02358623 0.02340814 0.0232184 0.02301932 0.02281035 0.02259511 0.02238039 0.02216826 0.02196475
 0.02176894 0.02158255 0.02140274 0.02122818 0.02105689 0.02088735 0.02071999 0.02055436 0.02039271 0.02023556
 0.02008351 0.0199371 0.01979248 0.01964953 0.01950172 0.01934894 0.01918987 0.01902586 0.01886695 0.01871502
 0.01858522 0.0184753 0.01838903 0.01831794 0.01824793 0.01817128 0.01806951 0.01794566 0.0177937 0.01762577
 0.01744807 0.01726863 0.01709402 0.01692153 0.01675198 0.01658017 0.01640424 0.01622717 0.01604864 0.01587666
 0.0157119 0.01555645 0.01541012 0.01526548 0.01512211 0.01497241 0.01481765 0.01465929 0.01449929 0.01434477
 0.01419507 0.01405271 0.01391525 0.01377976 0.01364645 0.01351373 0.01338458 0.01326098 0.01314322 0.01303269
 0.01292586 0.01282181 0.0127187 0.01261573 0.01251406 0.01241409 0.01231331 0.0122118 0.01210061 0.01197939
 0.01184226 0.01169044 0.01153145 0.01136759 0.01121444 0.01107102 0.01094431 0.01082816 0.01071379 0.01059605
 0.01046212 0.01031574 0.01015388 0.009987324 0.009822296 0.009666074 0.009524719 0.009396416 0.009282685 0.009176687
 0.009077557 0.008978681 0.008879141 0.008774374 0.008663869 0.008547208 0.008424496 0.008299808 0.008173407 0.008049465
 0.007927656 0.007808616 0.007692003 0.007576986 0.007463787 0.007352694 0.007243345 0.00713559 0.007028421 0.006920331
 0.006812235 0.006703894 0.006597627 0.0064951 0.006395063 0.006298163 0.006199562 0.006097976 0.005992563 0.005882469
 0.005773672 0.005666595 0.005565273 0.005469685 0.00537518 0.005281329 0.005181711 0.005077416 0.004969981 0.00486125
 0.004758311 0.004660339 0.004569974 0.00448338 0.004395853 0.004305718 0.004208106 0.004107526 0.004004736 0.003906414
 0.003816793 0.003736039 0.0036664 0.003600309 0.003536767 0.003468843 0.003395153 0.003314904 0.003227829 0.003136043
 0.003039683 0.002941615 0.002842426 0.002748394 0.002660506 0.0025875 0.002528545 0.00248691 0.002458448 0.00243691
 0.002417323 0.00238967 0.002352005 0.002297848 0.002230064 0.00214756 0.002057085 0.001960885 0.001866123 0.001775599
 0.001693158 0.001620384 0.00155714 0.001503874 0.001457592 0.001418252 0.001380225 0.001343183 0.001300275 0.001251458
 0.001193145 0.001126343 0.001053818 0.0009769691 0.0009019052 0.0008284376 0.0007599536 0.0006935082 0.0006266764 0.0005559674
 0.0004760578 0.0003879651 0.0002891915 0.0001869086 8.351082E-05 -1.431625E-05 -0.0001026246 -0.0001840454 -0.0002574638 -0.0003322769
 -0.0004097364 -0.0004955093 -0.0005904909 -0.0006909371 -0.0007965609 -0.0008984044 -0.0009960012 -0.001081175 -0.001154289 -0.001212147
 -0.001256705 -0.00129163 -0.001320123 -0.001350462 -0.001385103 -0.001431686 -0.001489583 -0.00156181 -0.001644295 -0.001735923
 -0.001830742 -0.001926061 -0.002016469 -0.002099583 -0.002172737 -0.002234468 -0.002286549 -0.002328417 -0.002367367 -0.002403716
 -0.002447697 -0.002499779 -0.0025662 -0.002646287 -0.002736169 -0.0028341 -0.002929132 -0.003020535 -0.003099691 -0.003168279
 -0.003225223 -0.003273543 -0.003317394 -0.003358368 -0.003400095 -0.003441624 -0.003483771 -0.003524045 -0.003561207 -0.003594434
 -0.003622398 -0.003648687 -0.003673209 -0.003702841 -0.003738617 -0.003784645 -0.003841728 -0.003905112 -0.003974456 -0.004038049
 -0.004095621 -0.004139374 -0.004170971 -0.00419455 -0.004212444 -0.004235103 -0.004261677 -0.004296329 -0.004335026 -0.00437341
 -0.004408749 -0.004435753 -0.004455867 -0.004468011 -0.004475596 -0.004479788 -0.004483871 -0.004488905 -0.004498154 -0.004512651
 -0.00453361 -0.004561814 -0.004593503 -0.004628611 -0.004660543 -0.004689008 -0.004711568 -0.004728699 -0.004744597 -0.004759786
 -0.004779715 -0.004803338 -0.004830605 -0.004859232 -0.004883939 -0.004903983 -0.004915144 -0.004919884 -0.004919101 -0.004915327
 -0.0049113 -0.004906299 -0.004900974 -0.004893063 -0.004881313 -0.004867137 -0.00485007 -0.004834953 -0.004822516 -0.00481537
 -0.004814011 -0.004815977 -0.004821154 -0.004826771 -0.004833233 -0.004843493 -0.004859039 -0.004889039 -0.004935098 -0.005007283
 -0.005106209 -0.005238219 -0.005402892 -0.005602275 -0.005835825 -0.006103011 -0.006405597 -0.006742699 -0.007122607 -0.007546923
 -0.008030574 -0.008579094 -0.009201686 -0.009903919 -0.01067557 -0.01151831 -0.01240287 -0.01332779 -0.01425743 -0.01518964
 -0.01607583 -0.0169102 -0.01761504 -0.01818135 -0.0185192 -0.01862538 -0.01843761 -0.01796744 -0.01719284 -0.01617038
 -0.01495539 -0.01365487 -0.01240337 -0.01127185 -0.01036293 -0.009676524 -0.009242763 -0.00902951 -0.009038356 -0.009214338
 -0.009557102 -0.009958396 -0.01040898 -0.01077398 -0.01103754 -0.01116076 -0.01114174 -0.01104504 -0.01087423 -0.01068994
 -0.01049108 -0.01030302 -0.01012242 -0.009952609 -0.00978904 -0.009623517 -0.009452268 -0.009266677 -0.009062528 -0.008833268
 -0.00857277 -0.008271944 -0.007936054 -0.007559315 -0.007171163 -0.006778071 -0.00641286 -0.006086366 -0.005806414 -0.005577489
 -0.005385811 -0.005230824 -0.005097175 -0.004984035 -0.004881716 -0.00478988 -0.00470157 -0.004616789 -0.004531433 -0.004446532
 -0.00436327 -0.004282896 -0.004209301 -0.004141936 -0.004082069 -0.004027666 -0.003976843 -0.003928484 -0.00388049 -0.003834687
 -0.003791244 -0.003752635 -0.003720034 -0.00369378 -0.003674348 -0.003660502 -0.003652015 -0.003648799 -0.00365075 -0.0036592
 -0.003674214 -0.003696302 -0.00372521 -0.003758112 -0.003794389 -0.003828948 -0.003861634 -0.00388878 -0.003911589 -0.003930812
 -0.003948097 -0.003966752 -0.003986787 -0.004010124 -0.004034318 -0.004058353 -0.004079517 -0.004095652 -0.004106998 -0.004112328
 -0.004116187 -0.004119145 -0.004126417 -0.004139377 -0.004157367 -0.004180805 -0.004202975 -0.004223533 -0.004239107 -0.004250153
 -0.004261916 -0.00427485 -0.004295014 -0.00432086 -0.004350358 -0.004381402 -0.004407534 -0.004428975 -0.004442687 -0.004451044
 -0.004455321 -0.004458189 -0.004462029 -0.00446876 -0.004480465 -0.004496311 -0.004517325 -0.004538446 -0.004558751 -0.004573782
 -0.004582093 -0.00458599 -0.00458522 -0.004587017 -0.004591769 -0.004604725 -0.004625834 -0.004655854 -0.004694126 -0.004737634
 -0.004784993 -0.004829852 -0.004870984 -0.004901675 -0.004923197 -0.004933581 -0.004937354 -0.004938551 -0.004941587 -0.004951908
 -0.004969531 -0.004996921 -0.005029202 -0.00506536 -0.00510062 -0.005133131 -0.005162848 -0.005189094 -0.005215773 -0.005243237
 -0.005273832 -0.005307714 -0.005343662 -0.005381589 -0.005419911 -0.005458866 -0.005499106 -0.005540946 -0.005586281 -0.005634337
 -0.005684888 -0.005735429 -0.005781917 -0.005822044 -0.005850547 -0.005869574 -0.005877513 -0.005882039 -0.005886326 -0.005897878
 -0.005921301 -0.005955779 -0.00600327 -0.006054521 -0.006108706 -0.006155808 -0.006194421 -0.006222541 -0.00623994 -0.00625489
 -0.006268009 -0.006290277 -0.00632109 -0.006362958 -0.006413391 -0.006464425 -0.006514675 -0.006555838 -0.006590264 -0.006617587
 -0.006641826 -0.006668013 -0.00669732 -0.006732933 -0.006772882 -0.006816865 -0.006863346 -0.006911256 -0.006961673 -0.007014984
 -0.007070546 -0.007129002 -0.007184243 -0.00723583 -0.007277444 -0.007308649 -0.007331766 -0.007347394 -0.007365137 -0.007385114
 -0.007413333 -0.007448318 -0.007487683 -0.007530274 -0.00757171 -0.007612539 -0.007651685 -0.00769006 -0.007728609 -0.007767114
 -0.007806053 -0.007843978 -0.007880315 -0.007913616 -0.00794289 -0.007968708 -0.007990684 -0.008011445 -0.008031397 -0.008052187
 -0.008074101 -0.008096815 -0.008120298 -0.008147018 -0.008177358 -0.008217942 -0.008268668 -0.008333091 -0.008408988 -0.008490351
 -0.008574238 -0.008649693 -0.008716824 -0.008769649 -0.008812707 -0.008848501 -0.008882476 -0.008920767 -0.00896379 -0.009014787
 -0.009067832 -0.009121529 -0.009170585 -0.009212416 -0.009249236 -0.009280478 -0.009312846 -0.009347102 -0.009386454 -0.009431194
 -0.009478267 -0.009527302 -0.009571948 -0.009611977 -0.009642307 -0.00966394 -0.009677098 -0.009684792 -0.009694307 -0.009708702
 -0.00973729 -0.009779489 -0.009839699 -0.009912102 -0.009994543 -0.01007845 -0.0101585 -0.0102288 -0.01028488 -0.01032811
 -0.01035701 -0.0103791 -0.0103952 -0.01041269 -0.01043263 -0.01045708 -0.01048629 -0.01051784 -0.01055164 -0.01058521
 -0.01061889 -0.01065348 -0.01069006 -0.01073337 -0.010784 -0.01084688 -0.01091934 -0.01100009 -0.01108367 -0.01116246
 -0.01123425 -0.01129257 -0.011344 -0.01138935 -0.01143866 -0.0114972 -0.01156641 -0.0116494 -0.01173619 -0.01182589
 -0.01190809 -0.01198111 -0.012044 -0.01209653 -0.01214358 -0.01218526 -0.01222344 -0.01225786 -0.01228693 -0.01231142
 -0.01233285 -0.01235336 -0.01237918 -0.01241172 -0.01245698 -0.01251332 -0.01258195 -0.01265851 -0.01274008 -0.01282226
 -0.01290122 -0.01297624 -0.01304552 -0.01311228 -0.01317719 -0.01324224 -0.01330849 -0.01337238 -0.0134338 -0.0134877
 -0.01353369 -0.01357297 -0.013606 -0.0136411 -0.01367878 -0.01372716 -0.01378513 -0.01385336 -0.01392891 -0.01400448
 -0.01407789 -0.01414104 -0.01419551 -0.01423891 -0.01427669 -0.0143123 -0.01435129 -0.01439853 -0.01445474 -0.01452269
 -0.01459593 -0.01467418 -0.01474729 -0.01481323 -0.01486655 -0.0149058 -0.01493563 -0.01495615 -0.01497581 -0.01499478
 -0.01501609 -0.01503939 -0.01506321 -0.01508801 -0.01511461 -0.0151443 -0.01518124 -0.01522541 -0.01527962 -0.01534083
 -0.01540712 -0.01547376 -0.01553589 -0.01559096 -0.01563533 -0.01567106 -0.01569781 -0.01571916 -0.01573632 -0.01575019
 -0.01576097 -0.01576975 -0.01577626 -0.01578609 -0.01579961 -0.01582206 -0.01585329 -0.0158898 -0.01593054 -0.01596576
 -0.0159956 -0.01601461 -0.01602562 -0.01603286 -0.01603991 -0.01605585 -0.01608118 -0.01612164 -0.01617221 -0.01623165
 -0.01629182 -0.01634729 -0.01639349 -0.01642605 -0.01644825 -0.01645932 -0.01646695 -0.01647245 -0.01648106 -0.01649378
 -0.01651089 -0.01653253 -0.01655557 -0.01657988 -0.01660343 -0.01662657 -0.01665118 -0.01667742 -0.01670731 -0.01673982
 -0.01677326 -0.01680642 -0.01683598 -0.01686214 -0.01688368 -0.01690151 -0.01691592 -0.01692805 -0.01693831 -0.01694874
 -0.01696028 -0.01697419 -0.01699149 -0.01701036 -0.01703104 -0.0170492 -0.01706449 -0.01707236 -0.01707242 -0.01706342
 -0.01704564 -0.01702586 -0.01700519 -0.01699577 -0.0169972 -0.0170154 -0.0170466 -0.01708391 -0.01712348 -0.01715393
 -0.01717616 -0.0171857 -0.01718743 -0.01718397 -0.01717988 -0.01717932 -0.01718267 -0.01719178 -0.01720301 -0.0172158
 -0.01722677 -0.01723493 -0.01724033 -0.0172429 -0.0172426 -0.01723944 -0.01723121 -0.01721808 -0.01720392 -0.01719008
 -0.01718945 -0.01720217 -0.0172375 -0.01729072 -0.01735514 -0.01742263 -0.01747393 -0.01750607 -0.01750435 -0.0174774
 -0.01742623 -0.01736425 -0.01730075 -0.01724205 -0.01719449 -0.01715423 -0.01712191 -0.01709083 -0.01705916 -0.01702672
 -0.01699283 -0.01696302 -0.01693759 -0.01692233 -0.01691754 -0.01692889 -0.01695572 -0.01699763 -0.01705004 -0.01709358
 -0.01712258 -0.01710746 -0.01705455 -0.01695828 -0.01683649 -0.01671137 -0.01659364 -0.01650292 -0.01643713 -0.01640242
 -0.01638798 -0.01639234 -0.01639996 -0.01640615 -0.01640004 -0.01637757 -0.01634133 -0.01629083 -0.01623295 -0.01616833
 -0.01609599 -0.01601599 -0.01592856 -0.01583487 -0.01574492 -0.01565917 -0.0155857 -0.01552252 -0.01546831 -0.01542075
 -0.01537514 -0.01532903 -0.01527774 -0.01521841 -0.01514531 -0.01506162 -0.01496564 -0.01486795 -0.01477338 -0.01468659
 -0.01461179 -0.01454116 -0.01447453 -0.01440066 -0.01431787 -0.01422128 -0.0141102 -0.01398865 -0.01385693 -0.01372217
 -0.0135835 -0.01343789 -0.01328225 -0.01309932 -0.01289056 -0.01264851 -0.01238259 -0.01210903 -0.0118316 -0.01156482
 -0.01130139 -0.01103901 -0.01077274 -0.01049596 -0.01021582 -0.009932769 -0.009657463 -0.00939394 -0.009145517 -0.008915314
 -0.008693126 -0.008480333 -0.008245031 -0.007985083 -0.007671777 -0.007305195 -0.006907218 -0.006481418 -0.006070515 -0.005671171
 -0.00529113 -0.004923358 -0.004550219 -0.00417001 -0.003770256 -0.003353901 -0.002918899 -0.002471102 -0.002013481 -0.001556464
 -0.001110239 -0.0006724733 -0.0002530595 0.0001870736 0.0006544915 0.001195302 0.001825705 0.002535295 0.003327173 0.00416256
 0.005037808 0.005951888 0.006904813 0.007904003 0.008946513 0.01000682 0.01108474 0.01216055 0.0132476 0.01437674
 0.01555585 0.01682648 0.01816063 0.01953994 0.02093043 0.02228306 0.02360873 0.02489582 0.02617453 0.0274587
 0.02875749 0.03007772 0.03141481 0.03276124 0.03416012 0.03560634 0.03723336 0.0390521 0.04114416 0.04350676
 0.04595463 0.04847411 0.05084993 0.05310967 0.05527253 0.05737087 0.05951578 0.06171076 0.06401285 0.06642139
 0.06894218 0.07162277 0.07448738 0.07764874 0.08119105 0.0851825 0.08972751 0.09463859 0.09992128 0.1052107
 0.1104233 0.1153738 0.1200139 0.124375 0.1284515 0.1323672 0.1361317 0.1399756 0.1439223 0.1483144
 0.1531158 0.1583932 0.1639742 0.1693268 0.1744211 0.1788796 0.1829022 0.1866273 0.1901922 0.1938109
 0.1974655 0.2012143 0.2049923 0.2087734 0.2125505 0.2163254 0.2200531 0.2237329 0.227275 0.2306581
 0.233914 0.2370418 0.2401187 0.2431446 0.246026 0.2487508 0.2511528 0.2532496 0.2550341 0.2565449
 0.2579054 0.2591191 0.260264 0.2613005 0.262188 0.2629412 0.263543 0.2640648 0.264557 0.2650473
 0.2655742 0.266093 0.2666021 0.2670408 0.2673945 0.2676333 0.2677498 0.2677398 0.2676011 0.2673609
 0.267021 0.2666318 0.2661928 0.2657202 0.2652059 0.2646193 0.263952 0.2631589 0.262245 0.2611882
 0.2600245 0.2587909 0.2575331 0.2563156 0.2551513 0.254068 0.2530674 0.252147 0.2513449 0.250669
 0.2501654 0.2498509 0.2497187 0.2497725 0.2499786 0.2503341 0.250827 0.2514568 0.2522301 0.2531467
 0.2542079 0.2554107 0.2567399 0.2581909 0.2597393 0.2613855 0.2631156 0.2649386 0.2668604 0.2688926
 0.2710485 0.2733378 0.2757703 0.2783549 0.2810986 0.2840053 0.287079 0.2903153 0.2937172 0.2972603
 0.3009475 0.3047048 0.3085282 0.3123219 0.3160818 0.3197848 0.3234336 0.3270649 0.3306533 0.3340981
 0.3373452 0.3401439 0.3425173 0.3443746 0.3458041 0.3469097 0.3477272 0.3483397 0.3487341 0.3489237
 0.3489011 0.3486816 0.3481978 0.34746 0.3462733 0.3445805 0.3423354 0.3394749 0.3364505 0.333299
 0.3302872 0.3274239 0.324502 0.3215141 0.3183071 0.3149045 0.3113556 0.3076782 0.3039807 0.3002071
 0.2963302 0.292188 0.2874978 0.2822249 0.2760845 0.2695478 0.2628714 0.2563943 0.2504626 0.2447887
 0.2393418 0.233893 0.2283391 0.2228274 0.217355 0.2121531 0.2072505 0.2026378 0.1983137 0.1941028
 0.1900015 0.1859046 0.18183 0.1778176 0.1738847 0.1701167 0.1665009 0.1630562 0.1597532 0.1565541
 0.1534413 0.1503899 0.1473665 0.1443668 0.1412727 0.1380361 0.134526 0.1306155 0.1265706 0.122373
 0.1185995 0.1153775 0.1126946 0.1105807 0.1086215 0.1067975 0.1048581 0.1028141 0.1007042 0.09855369
 0.09653052 0.09462076 0.09286589 0.09123956 0.08968405 0.08823178 0.08689464 0.08574197 0.08486573 0.08427072
 0.08400413 0.08400427 0.08425176 0.08469962 0.08532356 0.08611505 0.08706204 0.08819816 0.08951948 0.09111819
 0.09300382 0.09522844 0.09779315 0.1004869 0.1032877 0.105858 0.1082083 0.1102228 0.1119316 0.1133796
 0.1145745 0.1155479 0.1163157 0.1168949 0.1173576 0.1177676 0.118242 0.1189023 0.1197696 0.1209302
 0.1222003 0.1235321 0.1247962 0.1259325 0.1269992 0.1279926 0.1290048 0.1300461 0.1311445 0.1323015
 0.1334783 0.1346726 0.1358435 0.1369997 0.138163 0.1393555 0.1406653 0.1421037 0.1437532 0.1455792
 0.1475654 0.1496731 0.1518364 0.1540858 0.1564167 0.1588822 0.1615201 0.1643199 0.1672948 0.1703876
 0.1735801 0.1768705 0.1802466 0.1837965 0.187529 0.1914933 0.1956915 0.1999482 0.204244 0.2082812
 0.2120612 0.2154423 0.2184385 0.2210384 0.223217 0.2249203 0.2260981 0.226638 0.2265303 0.2257055
 0.2242198 0.2220839 0.2193787 0.2161468 0.2124487 0.2083104 0.2037838 0.1988661 0.1936976 0.1882781
 0.1828827 0.1775363 0.1724499 0.1676359 0.1630636 0.1587234 0.1544721 0.1503157 0.1462106 0.1421857
 0.1383261 0.1346381 0.13119 0.1279457 0.1248799 0.1219521 0.119104 0.1163197 0.1135645 0.1108475
 0.1081606 0.1055318 0.1029672 0.1004972 0.09813298 0.09587894 0.09374082 0.09168951 0.08972315 0.0878124
 0.0859555 0.08416813 0.08245477 0.08087977 0.07944617 0.07820861 0.0771578 0.0762922 0.07559603 0.07503213
 0.07458836 0.07422908 0.0739473 0.07372268 0.0735496 0.07342096 0.07332225 0.07324935 0.07317229 0.07308292
 0.07294523 0.07275 0.07246924 0.07209721 0.0716174 0.07102703 0.07032485 0.0695106 0.06860308 0.06760458
 0.06654876 0.06544019 0.06432083 0.06319845 0.06212234 0.0610997 0.06017412 0.05934348 0.05862616 0.05801036
 0.05749086 0.05705387 0.05668847 0.05638042 0.05612131 0.05589492 0.0556943 0.0555063 0.05532653 0.05514742
 0.05496799 0.05477767 0.054576 0.05434594 0.0540865 0.05378509 0.05344202 0.05305856 0.05263664 0.05218863
 0.05171597 0.05123118 0.05073262 0.0502233 0.04969935 0.04915426 0.04858921 0.04800027 0.04739792 0.0467882
 0.04618249 0.04558973 0.04501226 0.04445332 0.04391083 0.04338383 0.04287616 0.04238785 0.04192549 0.04149001
 0.04108227 0.04070242 0.04034715 0.04001641 0.03970889 0.03942477 0.03916459 0.03892864 0.03871724 0.03853263
 0.03837861 0.0382614 0.03819235 0.03817819 0.03823311 0.03835503 0.0385502 0.03880433 0.03911258 0.03945909
 0.03983571 0.04023775 0.04066154 0.04111145 0.04158792 0.04209305 0.04262753 0.043187 0.04377126 0.04437304
 0.04499199 0.04562156 0.04626177 0.04690916 0.04756465 0.04822966 0.04890542 0.04959622 0.05030141 0.0510231
 0.05175666 0.05249942 0.05324166 0.05397643 0.05469091 0.05537668 0.05602379 0.05662562 0.05718125 0.05768764
 0.05815447 0.05858185 0.05898531 0.05936651 0.05973615 0.06009513 0.06043734 0.06076155 0.06104689 0.06129269
 0.06148282 0.06162081 0.06171067 0.06175773 0.06177832 0.06177318 0.0617526 0.06171107 0.06164652 0.06155264
 0.06142295 0.06125537 0.06104686 0.06079746 0.06050749 0.06017321 0.05979417 0.059365 0.05888379 0.05835395
 0.05777463 0.0571619 0.05651655 0.0558602 0.05519406 0.05453877 0.05389547 0.05328233 0.052699 0.05215537
 0.05164721 0.05116998 0.05071731 0.05027593 0.049842 0.04940541 0.04896545 0.0485185 0.04806412 0.04760134
 0.04712935 0.0466473 0.04615602 0.04565474 0.04514876 0.0446382 0.04413235 0.04363246 0.04314274 0.04266376
 0.04218479 0.0417048 0.0412045 0.04068436 0.04013645 0.03956554 0.03898475 0.03840113 0.03783929 0.03730365
 0.03681445 0.03636968 0.03597593 0.03562682 0.03531863 0.03504808 0.03481193 0.03460987 0.03444332 0.03430267
 0.03418788 0.03407924 0.03397225 0.03386061 0.03374126 0.03363499 0.03354271 0.03349397 0.0334897 0.03354643
 0.03366376 0.03384688 0.03409568 0.03441318 0.03479844 0.03525141 0.03576903 0.03634669 0.03697957 0.03766101
 0.03838451 0.03914386 0.03993002 0.0407375 0.04155533 0.04237851 0.04319783 0.0440088 0.04481183 0.04560461
 0.04640125 0.04720262 0.04802524 0.04887044 0.04974028 0.0506341 0.05153912 0.0524536 0.0533599 0.05425615
 0.05512494 0.05596669 0.05677116 0.05754568 0.05829697 0.05903609 0.05978025 0.06053465 0.06131003 0.06210652
 0.0629259 0.06377149 0.06464483 0.06554902 0.06648688 0.0674511 0.06844167 0.06944629 0.07046314 0.07148848
 0.07252164 0.07357384 0.07464588 0.07575459 0.07689881 0.07808027 0.07929274 0.08051277 0.08173254 0.0829198
 0.08406933 0.08515878 0.08618101 0.08711985 0.08796598 0.08870313 0.08933513 0.08985505 0.09028552 0.09063291
 0.09091941 0.09115274 0.09134399 0.09149487 0.09162072 0.09172179 0.09182727 0.09193878 0.09209046 0.0922842
 0.09255345 0.09290006 0.09335379 0.0939149 0.0946001 0.09540945 0.09634957 0.0974255 0.09864946 0.1000256
 0.1015708 0.1032668 0.1051158 0.1070616 0.109085 0.1110951 0.1130612 0.1148763 0.1165104 0.117866
 0.1189215 0.1196108 0.1199226 0.1198303 0.1193302 0.1184423 0.1171705 0.1155943 0.1137259 0.1116929
 0.10951 0.107307 0.1050934 0.1029614 0.1009119 0.09899148 0.09718994 0.09551653 0.0939492 0.09247446
 0.09106585 0.0897056 0.08836931 0.08704498 0.08570913 0.0843538 0.08296026 0.08152315 0.08003613 0.07849729
 0.07690944 0.07527243 0.07359409 0.07187552 0.07013925 0.06838895 0.06666326 0.06496542 0.06333069 0.06175807
 0.06026362 0.0588431 0.05749673 0.05621868 0.05500237 0.05384086 0.05272579 0.05165253 0.05061515 0.04961428
 0.04864778 0.04772139 0.04683525 0.04599951 0.04521612 0.04449262 0.04383168 0.04322182 0.04266314 0.04212219
 0.04159728 0.04105658 0.04050093 0.0399219 0.03932299 0.03871509 0.03810005 0.03748974 0.03688123 0.03627599
 0.03566679 0.03504474 0.03440421 0.03373498 0.03304064 0.03231871 0.03157974 0.03082755 0.03007014 0.0293104
 0.02855383 0.02780122 0.0270606 0.02633297 0.02562482 0.02493691 0.02426669 0.02361386 0.02297066 0.02233731
 0.02171111 0.02109469 0.0204974 0.01992339 0.01939032 0.01889801 0.01845743 0.01805889 0.01769525 0.01735438
 0.01702062 0.01669258 0.01636284 0.01604007 0.01572619 0.0154286 0.01514957 0.01489489 0.0146652 0.01446998
 0.01431063 0.01419288 0.01411777 0.01407511 0.0140637 0.0140558 0.01404821 0.01400221 0.01391529 0.01375319
 0.01352047 0.01320881 0.01283245 0.01241358 0.01196757 0.01152503 0.01109323 0.01068997 0.01031635 0.009978134
 0.00967415 0.009406164 0.009168612 0.00896077 0.008775196 0.008608886 0.008465938 0.008344594 0.00826822 0.008238052
 0.008282079 0.008401028 0.008600216 0.008876015 0.009200513 0.009568499 0.00994049 0.01031605 0.01067278 0.01101458
 0.01133886 0.01164858 0.0119461 0.01223529 0.01251873 0.01280532 0.0131015 0.01341341 0.01374767 0.01409745
 0.01446369 0.01483178 0.01519916 0.0155545 0.01589608 0.01621683 0.01651609 0.0167892 0.01703605 0.01725692
 0.01745232 0.01762685 0.01778097 0.01791835 0.01804064 0.01815275 0.01826022 0.01837498 0.01850499 0.01866706
 0.01886373 0.01910616 0.01938543 0.01970125 0.02003772 0.02038781 0.02073992 0.02108852 0.02143013 0.02176281
 0.02208746 0.0224036 0.02271573 0.02302394 0.02333749 0.0236568 0.02398843 0.02433199 0.02468614 0.02505084
 0.02542481 0.02580937 0.0262092 0.02662235 0.02704927 0.02748209 0.02790971 0.02832697 0.02872209 0.02910173
 0.02946551 0.02982446 0.03018539 0.0305479 0.03091496 0.0312759 0.03162779 0.03197019 0.03230094 0.03263797
 0.03298239 0.03335095 0.0337441 0.03415951 0.03459622 0.03504386 0.03550278 0.03597032 0.03644569 0.03692682
 0.03740871 0.03787962 0.03833719 0.03877056 0.03918688 0.03958767 0.03998451 0.04038591 0.04079869 0.04122897
 0.04167628 0.04214272 0.04262169 0.04311247 0.04360817 0.0441073 0.04460995 0.04511579 0.04562965 0.04615174
 0.04668475 0.04722877 0.04778559 0.0483554 0.04894073 0.04954041 0.05015244 0.05077509 0.05140327 0.05203731
 0.05267709 0.05331874 0.05396166 0.0545922 0.05520075 0.05577824 0.05631435 0.05681979 0.05729382 0.05775601
 0.0582107 0.05866904 0.05913348 0.0596067 0.06008947 0.06057664 0.06106776 0.06154758 0.06201549 0.06245909
 0.0628799 0.06327921 0.06365839 0.06402197 0.06437118 0.06470805 0.06504038 0.06537864 0.06573381 0.06612328
 0.0665457 0.06700975 0.06749649 0.06800277 0.06849945 0.06897852 0.06941079 0.06978671 0.07009993 0.07034446
 0.07055525 0.0707336 0.07092873 0.07114271 0.07139279 0.07167672 0.07197787 0.07229451 0.07260834 0.0729221
 0.07323293 0.07354861 0.0738833 0.07424513 0.07465593 0.07510903 0.07561076 0.07613729 0.0766733 0.07720374
 0.07771521 0.07821005 0.07868859 0.07914347 0.07957425 0.0799676 0.08031845 0.08064681 0.08095264 0.08127809
 0.08162498 0.08200788 0.08242518 0.08286443 0.08332486 0.08379758 0.08428097 0.08476779 0.08525083 0.08571185
 0.08614346 0.08652651 0.0868582 0.08712833 0.0873377 0.08748195 0.08756915 0.08759967 0.08758936 0.08754224
 0.08747462 0.08738852 0.08730721 0.08723203 0.08719904 0.08721177 0.08728961 0.08743316 0.0876208 0.08785001
 0.08808547 0.08832768 0.08855985 0.08878648 0.0890099 0.08924149 0.08950643 0.08981456 0.0902007 0.09064267
 0.09113694 0.09164201 0.0921165 0.09256941 0.09297797 0.09342366 0.09393603 0.09454236 0.09527401 0.0960136
 0.09674522 0.09740803 0.09799085 0.09854372 0.09906876 0.0996054 0.1001508 0.1006881 0.1012087 0.101658
 0.1020281 0.1022617 0.1023619 0.1023028 0.1021041 0.1017848 0.1013619 0.1008641 0.1002906 0.09964606
 0.09893887 0.098166 0.09736568 0.09654551 0.09575407 0.09500181 0.09433097 0.09374975 0.09328024 0.09292796
 0.09265815 0.09246857 0.09226575 0.09204515 0.09172304 0.09130394 0.09076652 0.09012273 0.0893979 0.08860713
 0.0877941 0.0869732 0.08618917 0.08543836 0.0847374 0.08406705 0.08341232 0.08277921 0.08216222 0.08158707
 0.08106646 0.08059435 0.08017398 0.07978241 0.07941367 0.07907781 0.078774 0.07853109 0.07835056 0.07825326
 0.07824067 0.07833868 0.07854534 0.07886938 0.07929618 0.07978117 0.08031172 0.08083244 0.08135144 0.08185713
 0.08236051 0.08287203 0.08339104 0.08391675 0.08445994 0.08501917 0.08562869 0.08629757 0.08706091 0.08792892
 0.08892094 0.09004431 0.09128577 0.09264851 0.09406084 0.09551882 0.09691957 0.09826067 0.09948256 0.1005898
 0.1015785 0.1024504 0.1032084 0.1038524 0.1043809 0.1047992 0.1051168 0.1053327 0.1054502 0.1054638
 0.1053645 0.1051691 0.1048805 0.1045251 0.1041172 0.1036535 0.1031364 0.1025558 0.1019059 0.101217
 0.10049 0.09977539 0.09907591 0.09840839 0.09777065 0.09713895 0.09651112 0.0958587 0.09518959 0.09451228
 0.09384411 0.09323405 0.09268171 0.09221905 0.09180909 0.09142264 0.09103101 0.09058981 0.09012955 0.08965117
 0.0891964 0.08879327 0.08840881 0.08804911 0.08763109 0.0871402 0.08653859 0.08581738 0.08501589 0.08413589
 0.08325419 0.08237331 0.08154848 0.08077314 0.08004013 0.07933614 0.07860701 0.07785257 0.07703757 0.07618799
 0.07532682 0.07448539 0.07371019 0.07301253 0.0724187 0.07192118 0.07152419 0.07121336 0.07098442 0.07082745
 0.07074112 0.07071116 0.07074135 0.07077298 0.07080413 0.07073649 0.07056438</values></Ydata></AB><ScSm><Ydata ylabel="Single channel"><values byteorder="INTEL" format="FLOAT32" numvalues="1814"> 0.06961003 0.0696201 0.06969547 0.06985389 0.07006443 0.07026581 0.07040807 0.0704828 0.07050645 0.07048346
 0.07041855 0.07036444 0.07040863 0.07058759 0.07083482 0.07102746 0.0710838 0.07103265 0.07099654 0.07107238
 0.07120065 0.07117988 0.0708558 0.07030049 0.06976891 0.06946424 0.06940905 0.0695931 0.07010012 0.07086989
 0.07143093 0.07123914 0.07036527 0.06952198 0.06927456 0.06949816 0.06971292 0.0696363 0.06927182 0.06879754
 0.06860755 0.06920443 0.07070445 0.07243258 0.07316684 0.07190834 0.06859367 0.06432229 0.060955 0.0601161
 0.06204358 0.06526139 0.06768911 0.06830403 0.06762914 0.06667364 0.06585069 0.06511013 0.06464165 0.06491499
 0.06602781 0.06726357 0.06746194 0.06601354 0.06358749 0.0616561 0.06115196 0.06188191 0.06331511 0.06515913
 0.0665694 0.06569344 0.06149625 0.05607272 0.05370983 0.05680612 0.06330933 0.06872836 0.07013023 0.06777175
 0.06377953 0.06039229 0.05913272 0.06039887 0.0633768 0.06671293 0.06933999 0.07053829 0.06975605 0.06708476
 0.06372929 0.06142602 0.06137654 0.06377736 0.06777976 0.07156505 0.07316997 0.07193871 0.06896016 0.06591593
 0.0639721 0.06378624 0.06567256 0.06926949 0.07351918 0.0772846 0.07981852 0.08083433 0.0805562 0.07957421
 0.07839732 0.07738101 0.07704666 0.07775344 0.07885591 0.0789553 0.07742583 0.07524964 0.07400368 0.07422948
 0.07500298 0.07505859 0.07406946 0.07243715 0.07003899 0.06620935 0.06126591 0.05691212 0.05453447 0.0541488
 0.05541233 0.05816238 0.06122891 0.06237126 0.06073556 0.05841431 0.05837094 0.06127733 0.06517009 0.0678397
 0.06886883 0.06947489 0.07094201 0.07331105 0.07521347 0.074908 0.07201366 0.0684777 0.06719415 0.0691621
 0.07252721 0.0748589 0.07570802 0.07633576 0.07750937 0.07831495 0.07711177 0.07348177 0.06927754 0.06748067
 0.06960674 0.07418717 0.07783579 0.07776181 0.0736479 0.06771012 0.06296738 0.06115701 0.06226241 0.06565352
 0.07077254 0.0765565 0.0811651 0.0830116 0.08192691 0.07904682 0.07552483 0.07148407 0.06663446 0.0620139
 0.06018627 0.0628098 0.06850903 0.07402334 0.07711598 0.07768344 0.07648184 0.0737479 0.06940089 0.06433813
 0.06085547 0.06086912 0.06361118 0.06606646 0.0661294 0.06451949 0.06322494 0.06302027 0.06318746 0.06303646
 0.06287476 0.06346534 0.06493575 0.06648856 0.06718092 0.06678849 0.06583498 0.06497192 0.06439291 0.0637088
 0.06249668 0.06114031 0.06078909 0.06209984 0.06433295 0.06611631 0.06682336 0.06679512 0.06643271 0.06551623
 0.06354874 0.0607103 0.05824815 0.05755166 0.0588015 0.06085848 0.06245267 0.06309474 0.06293685 0.06230965
 0.06150667 0.06069091 0.05993647 0.05942975 0.0594255 0.05987892 0.06036701 0.06051321 0.06029046 0.05983508
 0.05918778 0.05834012 0.05741125 0.05665721 0.05629156 0.05631955 0.05656724 0.05684144 0.05699847 0.05690961
 0.05650831 0.05589096 0.05525602 0.05472515 0.0543067 0.0540125 0.05389326 0.05393919 0.05403053 0.05402891
 0.05388451 0.053634 0.05332454 0.0529737 0.05259537 0.05223453 0.05196073 0.05181852 0.05177517 0.05173958
 0.05166185 0.05158408 0.05154751 0.05149074 0.05131227 0.05101043 0.0506926 0.05045693 0.05031525 0.05021873
 0.05010989 0.04994018 0.04966997 0.04929687 0.048902 0.04862902 0.04857298 0.04870488 0.04892207 0.04912976
 0.04925703 0.04926348 0.04917268 0.04905082 0.04892476 0.04875934 0.04852843 0.04827639 0.04809907 0.04807067
 0.04817944 0.04833484 0.04844641 0.04848283 0.04845716 0.04840035 0.04835818 0.04836024 0.04837409 0.04833562
 0.0482355 0.04813598 0.04809681 0.04811294 0.04812884 0.04810061 0.04804309 0.04801221 0.04803768 0.04809143
 0.04813122 0.04815205 0.04817951 0.04822701 0.04827001 0.04826237 0.04818594 0.0480816 0.04801127 0.04799296
 0.04799872 0.0480103 0.04804269 0.04810916 0.04818989 0.04824693 0.04826191 0.04825163 0.04824189 0.04823117
 0.04819509 0.04812815 0.04806035 0.04802402 0.04802007 0.04802459 0.04801644 0.04799123 0.04795428 0.04790748
 0.04784658 0.04776881 0.04767594 0.0475719 0.04746836 0.04739061 0.04735906 0.04735941 0.04734622 0.0472847
 0.04718253 0.04707584 0.04698979 0.04691943 0.04684754 0.04677214 0.04670826 0.04666761 0.04664779 0.0466396
 0.04663324 0.04661968 0.04660181 0.04660705 0.04667223 0.04680437 0.04696504 0.04710425 0.04720577 0.04729109
 0.04738593 0.04749626 0.04761501 0.04773981 0.0478799 0.04804695 0.04823498 0.04841293 0.04855169 0.04865893
 0.0487717 0.04891483 0.04908516 0.04927265 0.04947142 0.04966823 0.04984598 0.05000647 0.05017087 0.05035107
 0.0505351 0.05070717 0.05086944 0.05103704 0.0512209 0.05142477 0.05165397 0.05191538 0.05220734 0.05251389
 0.05281004 0.05307448 0.05330584 0.05353282 0.05380002 0.05413091 0.05450312 0.05486576 0.05518444 0.05546799
 0.05575035 0.05605028 0.05635907 0.05666998 0.05700142 0.05737384 0.05777542 0.05817271 0.05854996 0.05891883
 0.05929345 0.05967456 0.06005701 0.06043889 0.06082255 0.06121299 0.06161166 0.06200841 0.0623869 0.06274117
 0.06308219 0.06342839 0.06379327 0.06417419 0.06454553 0.06487538 0.06516375 0.06545284 0.06578042 0.06613128
 0.06645699 0.06673989 0.06701329 0.06731582 0.0676482 0.06798539 0.06831451 0.06864539 0.06898927 0.06933756
 0.06966205 0.06993426 0.0701506 0.07034016 0.07054375 0.07078557 0.0710699 0.07139552 0.0717551 0.07212205
 0.07245752 0.07273586 0.07295724 0.07314255 0.07332653 0.07354409 0.07380547 0.07408947 0.07436782 0.07462375
 0.07484645 0.07503588 0.0752233 0.07545832 0.07575887 0.0760968 0.07644457 0.07680859 0.07719906 0.07759552
 0.07797244 0.0783437 0.07874733 0.07918437 0.07960179 0.07994634 0.08021343 0.08043277 0.08063297 0.0808429
 0.08110416 0.08144608 0.08185214 0.08227465 0.08268005 0.08306284 0.08342139 0.08374262 0.08401494 0.08424431
 0.08445019 0.08464894 0.08484542 0.08504051 0.08523939 0.08544324 0.08563589 0.0857899 0.08588699 0.08592146
 0.08588394 0.08576 0.08555492 0.08530472 0.08504373 0.08476327 0.08441521 0.08395617 0.08337772 0.08269445
 0.08191978 0.08106627 0.0801665 0.07928432 0.07849938 0.07787772 0.07745641 0.0772559 0.07729743 0.07759108
 0.07809848 0.07871607 0.07930437 0.07973313 0.07990739 0.07977855 0.07935566 0.07870333 0.0779128 0.07706693
 0.07622477 0.07542059 0.07466509 0.07395985 0.07332854 0.07283673 0.07257729 0.07264587 0.07313819 0.07414874
 0.07572394 0.07778262 0.08009245 0.08235878 0.08436477 0.08604284 0.08743951 0.08864051 0.08972175 0.09072911
 0.09167332 0.09254429 0.09333529 0.0940496 0.09468777 0.09523943 0.09568831 0.09602039 0.09623414 0.09635188
 0.09641765 0.0964784 0.09656833 0.09670551 0.09688599 0.09707268 0.09719923 0.09719543 0.09701526 0.09664811
 0.09611447 0.0954701 0.09484798 0.0945151 0.09484006 0.09610385 0.09827366 0.1009689 0.1036796 0.1060364
 0.1079133 0.1093574 0.1104801 0.1113932 0.1121825 0.1128978 0.1135603 0.1141779 0.1147567 0.1153052
 0.1158322 0.1163418 0.1168352 0.1173147 0.117784 0.1182433 0.1186936 0.1191437 0.1196054 0.1200787
 0.1205498 0.1210055 0.121447 0.1218863 0.1223278 0.1227597 0.1231686 0.1235592 0.1239487 0.1243473
 0.1247531 0.1251631 0.1255746 0.1259753 0.126348 0.126688 0.1270098 0.1273338 0.12767 0.1280152
 0.1283586 0.1286907 0.129011 0.1293296 0.1296588 0.1299995 0.1303364 0.1306503 0.1309361 0.1312083
 0.1314874 0.1317808 0.132079 0.1323683 0.1326499 0.1329426 0.133265 0.1336156 0.1339734 0.134315
 0.1346302 0.1349241 0.1352098 0.1355001 0.1358023 0.1361181 0.1364447 0.1367748 0.1371002 0.1374158
 0.1377227 0.1380263 0.1383314 0.1386373 0.1389361 0.1392226 0.1395025 0.1397893 0.140091 0.1404069
 0.1407344 0.1410695 0.1413994 0.1417042 0.1419716 0.1422081 0.1424352 0.1426753 0.142939 0.1432211
 0.1435105 0.1438026 0.1441004 0.144403 0.1447016 0.1449894 0.1452701 0.1455526 0.1458382 0.1461212
 0.1464005 0.1466832 0.1469743 0.1472664 0.1475492 0.1478231 0.1480983 0.1483811 0.1486688 0.1489562
 0.1492396 0.149516 0.1497845 0.1500489 0.1503151 0.1505862 0.1508615 0.1511381 0.1514121 0.1516805
 0.1519437 0.1522061 0.1524711 0.1527384 0.1530057 0.1532739 0.1535454 0.1538194 0.1540915 0.1543616
 0.154633 0.1549036 0.1551672 0.1554248 0.1556865 0.1559577 0.1562327 0.1565024 0.1567637 0.1570194
 0.157272 0.1575218 0.1577685 0.1580146 0.158264 0.1585182 0.1587771 0.1590414 0.1593094 0.159574
 0.1598296 0.1600768 0.1603203 0.160564 0.1608126 0.1610699 0.1613339 0.1616003 0.1618662 0.1621292
 0.1623873 0.1626424 0.1628996 0.1631595 0.1634178 0.1636691 0.1639091 0.1641383 0.1643657 0.1646006
 0.1648425 0.165084 0.1653207 0.165554 0.1657888 0.1660309 0.1662821 0.1665377 0.1667918 0.1670425
 0.1672907 0.1675407 0.167799 0.1680671 0.1683374 0.1686015 0.1688555 0.169098 0.1693335 0.1695754
 0.169834 0.1701055 0.1703784 0.170644 0.1708959 0.1711345 0.1713703 0.1716134 0.1718626 0.1721129
 0.1723634 0.1726137 0.1728608 0.173101 0.1733298 0.1735476 0.1737676 0.1740057 0.1742586 0.1745094
 0.1747473 0.1749711 0.1751851 0.175401 0.175631 0.1758719 0.1761109 0.176343 0.1765705 0.1767962
 0.1770262 0.1772636 0.1774994 0.1777268 0.1779532 0.1781824 0.1784035 0.1786097 0.1788045 0.1789802
 0.1790973 0.1790439 0.1785446 0.1770625 0.1737832 0.1677663 0.1583123 0.1453988 0.1298452 0.1130269
 0.09636898 0.08096831 0.06747625 0.05617963 0.04714603 0.04031752 0.03556341 0.03276942 0.03193516 0.03327795
 0.03734582 0.04469145 0.054641 0.06420714 0.06925321 0.06775747 0.06174516 0.05544262 0.051767 0.05092011
 0.05165343 0.05290712 0.05435238 0.05618741 0.05874076 0.06209655 0.06608427 0.07069008 0.07625686 0.08304736
 0.09071551 0.09844665 0.1056583 0.112457 0.1193692 0.1266992 0.1342067 0.1413479 0.1477113 0.1532184
 0.1580349 0.1623867 0.1664369 0.1702665 0.1739154 0.1773819 0.1805484 0.1831485 0.1848955 0.1857016
 0.1857816 0.1855311 0.1852926 0.1852242 0.1853434 0.185628 0.1860568 0.1866081 0.1872639 0.1880097
 0.1888187 0.1896531 0.1904842 0.1912969 0.1920777 0.1928112 0.1934872 0.194102 0.1946593 0.1951699
 0.1956445 0.1960885 0.1965065 0.196906 0.1972915 0.1976625 0.1980186 0.1983587 0.1986786 0.1989738
 0.1992447 0.1994963 0.1997361 0.1999718 0.2002063 0.2004367 0.2006639 0.2008947 0.2011335 0.2013781
 0.2016256 0.2018755 0.202126 0.2023741 0.2026176 0.2028518 0.2030714 0.20328 0.2034906 0.2037136
 0.2039499 0.2041921 0.2044279 0.2046481 0.2048576 0.2050729 0.2053065 0.2055555 0.2058069 0.2060483
 0.2062773 0.2065042 0.2067401 0.2069855 0.207236 0.2074905 0.2077443 0.2079869 0.2082199 0.208461
 0.2087156 0.208961 0.2091734 0.2093607 0.2095558 0.2097849 0.2100453 0.2103126 0.210567 0.2108064
 0.2110372 0.2112639 0.2114912 0.2117221 0.211955 0.212197 0.2124661 0.2127643 0.2130684 0.2133613
 0.2136475 0.2139294 0.2142022 0.2144748 0.2147573 0.2150263 0.2152421 0.2154095 0.2155948 0.2158712
 0.2162488 0.2166618 0.2170315 0.2173382 0.2176168 0.2179051 0.2182193 0.2185395 0.2187822 0.2188553
 0.2188046 0.2188437 0.2191597 0.2197287 0.2203708 0.2209337 0.2213785 0.2217377 0.2220521 0.2223317
 0.2225448 0.2226536 0.2226924 0.2228009 0.2231272 0.2236681 0.2242567 0.2247388 0.2250995 0.2253961
 0.2256624 0.2259073 0.2260901 0.2260724 0.2257602 0.2253604 0.2253273 0.2259239 0.2269247 0.2278551
 0.2284607 0.2288388 0.2291721 0.2295046 0.229789 0.2299286 0.22968 0.2287943 0.227506 0.2266631
 0.2270287 0.2285129 0.2303172 0.2317297 0.2325743 0.233033 0.2333347 0.2336014 0.2337564 0.2335332
 0.2327716 0.2318108 0.2314008 0.2320089 0.2332965 0.2344868 0.2351599 0.2354692 0.2357193 0.2360238
 0.2362333 0.2358922 0.2344921 0.2322279 0.2303851 0.2304381 0.2326044 0.2355794 0.2378272 0.2388987
 0.2393099 0.2394165 0.2388952 0.2373364 0.2348649 0.2320849 0.229899 0.229393 0.2311144 0.2341635
 0.2367007 0.2377625 0.2380773 0.2388556 0.2403423 0.2418254 0.2425675 0.2423735 0.2414629 0.2400727
 0.2383464 0.2367091 0.2360888 0.2372591 0.2398963 0.2427009 0.2445996 0.245554 0.2459881 0.2455363
 0.2427991 0.2370268 0.2302254 0.2266046 0.2288594 0.2353426 0.2418305 0.2456773 0.247262 0.2479991
 0.2484496 0.2481654 0.2459505 0.2405214 0.2325283 0.2258133 0.2248093 0.2301585 0.2379869 0.2435211
 0.24434 0.240621 0.2342804 0.2284181 0.2260622 0.2283227 0.2338929 0.2403507 0.2456223 0.2485447
 0.2488474 0.2470444 0.2443941 0.2425917 0.2425495 0.24305 0.2416608 0.2378089 0.2337336 0.2311904
 0.2287276 0.2243761 0.2199778 0.2199513 0.2255462 0.2327541 0.2368109 0.2370157 0.2358679 0.2345238
 0.2308255 0.2224204 0.2112269 0.203493 0.2043234 0.2123947 0.2211451 0.2251844 0.2245702 0.222892
 0.2224751 0.2220197 0.2184677 0.2109988 0.2030204 0.1992971 0.200882 0.2041561 0.2050942 0.2025103
 0.1966699 0.1879236 0.1789025 0.1753481 0.1812597 0.1939644 0.2062274 0.2122285 0.2097002 0.1985867
 0.1817138 0.1663501 0.1606826 0.1665327 0.1771728 0.183534 0.1814166 0.1722174 0.1589897 0.1443096
 0.1314109 0.1245642 0.1264786 0.1355255 0.1460069 0.1511297 0.1467437 0.1344316 0.1215219 0.1158278
 0.1187023 0.1242478 0.1259716 0.1226562 0.1174087 0.1135343 0.112572 0.11421 0.1166732 0.1183113
 0.1188982 0.1179421 0.1129388 0.1024365 0.09025456 0.08300956 0.08321254 0.08794533 0.09419649 0.1015317
 0.1086826 0.1117348 0.1085603 0.1029149 0.1012647 0.1059399 0.1131401 0.117576 0.1177097 0.1160336
 0.1151924 0.1151206 0.1144272 0.1135459 0.114823 0.1192508 0.124692 0.1282487 0.1292665 0.1290548
 0.128673 0.1281468 0.1272231 0.1258274 0.1239998 0.1219688 0.1200856 0.1184142 0.1166737 0.1146655
 0.1122661 0.1088536 0.1034727 0.09628974 0.08946972 0.08552861 0.08474807 0.08530335 0.08594094 0.08674186
 0.08669241 0.08294687 0.07458247 0.06570717 0.06247995 0.0671778 0.07651165 0.08534674 0.09055562 0.09127027
 0.08744548 0.0802089 0.0733716 0.0722305 0.07924427 0.09170853 0.1047199 0.1153844 0.1230674 0.127095
 0.1265149 0.1220821 0.1169768 0.1150241 0.1184256 0.1267403 0.1369026 0.1438807 0.1431406 0.1352615
 0.128159 0.1312371 0.1453471 0.1611642 0.1696428 0.1712479 0.1721551 0.1746589 0.1760701 0.1756299
 0.1772225 0.1840085 0.1936858 0.2007077 0.2011279 0.1941489 0.1815651 0.1680937 0.1601551 0.1608234
 0.1664722 0.1708197 0.1710678 0.1675545 0.1599871 0.1489106 0.1396624 0.1391908 0.1479518 0.158899
 0.165509 0.1677358 0.1690955 0.1706095 0.1696187 0.1638651 0.1552457 0.1486303 0.1470359 0.148973
 0.1509412 0.1511111 0.149419 0.1455361 0.1390466 0.1315543 0.1266751 0.1269355 0.1312451 0.1360164
 0.1384722 0.1384469 0.1374343 0.1367756 0.1367964 0.136984 0.1368942 0.1373117 0.1401007 0.1460768
 0.1534779 0.159675 0.1641606 0.1686912 0.1745301 0.1806451 0.1848827 0.1862695 0.1859601 0.1862897
 0.18892 0.1934813 0.1978046 0.1997579 0.1992793 0.1986317 0.2003108 0.2046348 0.2096868 0.2134895
 0.2156341 0.2168531 0.2178313 0.2186515 0.2187732 0.2174752 0.214964 0.2130274 0.2137962 0.2176367
 0.222773 0.2270595 0.229659 0.2309747 0.2315514 0.2314583 0.2305972 0.2292517 0.228103 0.227714
 0.2281424 0.2290806 0.2302039 0.2313139 0.2323111 0.2331783 0.2339558 0.2346796 0.2353683 0.2360535
 0.2367497 0.2373963 0.2379152 0.2383462 0.2388471 0.2395102 0.2402347 0.2408286 0.2411788 0.2412474
 0.2409604 0.2402288 0.239078 0.2376429 0.2360066 0.2341498 0.2321533 0.2304063 0.2294867 0.2297423
 0.2309779 0.2325739 0.2339092 0.2346722 0.2348577 0.2345973 0.2340427 0.2333321 0.2325734 0.231824
 0.2310936 0.2303755 0.2296671 0.2289675 0.2282791 0.2276306 0.2270807 0.226671 0.2263788 0.2261345
 0.2258812 0.2256056 0.2253266 0.2250784 0.2248947 0.224785 0.2247172 0.2246332 0.2244915 0.2242951
 0.2240814 0.2238854 0.2237096 0.2235254 0.2233032 0.2230331 0.2227083 0.2222992 0.2217853 0.2212225
 0.2207334 0.2204049 0.2202196 0.2201038 0.2199992 0.219863 0.2196419 0.2192908 0.2188033 0.2182004
 0.2174957 0.216684 0.2157572 0.2147221 0.2135957 0.2123806 0.2110532 0.2095843 0.2079688 0.2062212
 0.204338 0.2022672 0.1999149 0.1971778 0.1939702 0.1902397 0.1859876 0.1812942 0.1763156 0.1712395
 0.1662368 0.1614424 0.1569661 0.1529115 0.1493786 0.1464429 0.1441331 0.1424391 0.1413424 0.1408294
 0.1408829 0.141469 0.1425292 0.1439732 0.1456779 0.1474933 0.14926 0.1508474 0.1522022 0.1533694
 0.1544548 0.1555526 0.1566907 0.1578341 0.158931 0.1599454 0.1608486 0.1616044 0.1621842 0.1625812
 0.162793 0.1628017 0.1625845 0.162128 0.1614258 0.1604805 0.1593292 0.1580709 0.1568681 0.1559124
 0.1553703 0.1553466 0.1558823 0.1569618 0.1585052 0.1603652 0.1623567 0.1643106 0.1661267 0.1677944
 0.169365 0.1709059 0.1724849 0.1741813 0.176074 0.1782069 0.180571 0.1831092 0.1857237 0.1882912
 0.1906885 0.1928177 0.1946229 0.1960998 0.1972899 0.1982527 0.1990321 0.199642 0.2000736 0.2003242
 0.2004249 0.2004328 0.2003939 0.2003233 0.20022 0.2000905 0.1999597 0.1998661 0.1998368 0.1998646
 0.1999184 0.1999751 0.2000334 0.2000982 0.200166 0.2002225 0.2002514 0.200243 0.2001927 0.2000919
 0.1999316 0.1997076 0.1994058 0.1989905 0.1984328 0.1977423 0.1969433 0.1960323 0.1949838 0.1937934
 0.1924987 0.1911649 0.1898519 0.1885814 0.1873277 0.1860362 0.1846434 0.1830932 0.1813697 0.1795305
 0.1776815 0.1759038 0.1742068 0.1725481 0.1708926 0.1692541 0.1676793 0.1661952 0.1647859 0.1634254
 0.1621099 0.1608489 0.1596456 0.1585 0.1574173 0.1564095 0.1554963 0.1546986 0.1540214 0.1534508
 0.1529709 0.1525697 0.1522344 0.1519573 0.1517377 0.1515605 0.1513832 0.1511617 0.1508818 0.1505592
 0.1502189 0.1498808 0.149557 0.1492542 0.1489668 0.1486613 0.1482744 0.1477311 0.1469588 0.1458961
 0.1445225 0.1428806 0.1410525 0.1391261 0.1371998 0.1353899 0.1337943 0.1324591 0.1313845 0.1305369
 0.1298491 0.1292481 0.1287067 0.1282622 0.1279783 0.1278683 0.1278384 0.1277363 0.1274935 0.1272027
 0.1270282 0.1270627 0.1272842 0.1276021 0.1279152 0.1281524 0.1282855 0.1283073 0.1282175 0.1280326
 0.1277781 0.1274638 0.1270901 0.1266689 0.1262158 0.1257333 0.1252154 0.1246484 0.1240109 0.1232925
 0.1225004 0.1216406 0.1207185 0.1197506 0.118735 0.1176388 0.116481 0.1154092 0.1146419 0.1143387
 0.1145172 0.1150423 0.1157056 0.1163616 0.1169445 0.1173333 0.1173598 0.1170992 0.1170386 0.1177341
 0.1192627 0.1211197 0.1226694 0.1236008 0.1239373 0.1237844 0.1232126 0.1222854 0.1210294 0.1194078
 0.1174181 0.1151517 0.112713 0.1101907 0.1077269 0.1054857 0.1035584 0.1019736 0.1007311 0.09984622
 0.09939273 0.0990525 0.09732674 0.09230866 0.08462808 0.0787909 0.0794225 0.08607829 0.09353048 0.09729583
 0.09722982 0.09571806 0.09442717 0.09362646 0.09323956 0.0933746 0.09412287 0.09535833 0.0967522 0.09795716
 0.09881376 0.09932277 0.09942507 0.09884445 0.09704507 0.09338243 0.08761497 0.08041017 0.07314958 0.06712276
 0.06293555 0.0605044 0.05932511 0.05877548 0.05843603 0.05828047 0.05856336 0.05951726 0.06115656 0.06333512
 0.06589344 0.06864467 0.07127251 0.07344047 0.0750542 0.07627068 0.07721318 0.07781117 0.07793871 0.07758042
 0.07683873 0.07587147 0.07483619 0.07382622 0.07282892 0.07177138 0.07064948 0.06962058 0.06891379 0.06861521
 0.06860057 0.06870213 0.06885499 0.06905413 0.06927291 0.06947336 0.06964669 0.06983576 0.07013261 0.07060142
 0.07118087 0.07171814 0.07210603 0.072345 0.07249342 0.07257822 0.07252551 0.07223113 0.07177462 0.07143382
 0.07131939 0.0711349 0.07054216 0.06967895 0.06907023 0.06905226 0.06947016 0.06992283 0.07013482 0.07007816
 0.06990692 0.0698757 0.0701997 0.07082523</values></Ydata></ScSm><ScRf><Ydata ylabel="Single channel"><values byteorder="INTEL" format="FLOAT32" numvalues="1820"> 0.06049397 0.06064977 0.06074908 0.0607899 0.06079125 0.06079481 0.06085076 0.06098554 0.06117817 0.06136928
 0.06150256 0.06156422 0.06157367 0.06154241 0.06147555 0.06141691 0.06144591 0.06160011 0.0618206 0.0619925
 0.0620389 0.06198721 0.06195018 0.06201464 0.06212459 0.06209826 0.06179979 0.06129751 0.0608207 0.06054875
 0.06049951 0.0606637 0.06111673 0.06180556 0.06231038 0.06214468 0.06136598 0.06060334 0.06036105 0.06053665
 0.0607125 0.06064058 0.06032071 0.05990434 0.05973452 0.06025335 0.06156672 0.06308465 0.06373197 0.06262563
 0.05970665 0.05594356 0.05297548 0.05223118 0.05392111 0.05675134 0.05889396 0.05944458 0.05885754 0.0580211
 0.05730253 0.05665658 0.0562435 0.05647167 0.0574292 0.05849368 0.05865345 0.05737793 0.05525336 0.05356443
 0.05312062 0.05375076 0.0549961 0.05660719 0.05784262 0.05707095 0.05337956 0.04860832 0.04652851 0.04925768
 0.05499813 0.05979202 0.06103936 0.05895629 0.05542856 0.05244708 0.05135049 0.05246656 0.05506536 0.05796727
 0.06025259 0.06129609 0.06061184 0.05827978 0.0553546 0.05334995 0.05331063 0.05540951 0.05891092 0.06222817
 0.06364116 0.06256872 0.05995805 0.05728238 0.05556875 0.0553975 0.05704627 0.06020286 0.06394532 0.06727506
 0.06952491 0.0704288 0.07017937 0.06930774 0.0682794 0.06740925 0.06713831 0.06776609 0.06872717 0.06880467
 0.06745525 0.06553976 0.06444068 0.0646347 0.06531195 0.06535932 0.06448749 0.06305151 0.06094779 0.0575903
 0.05325311 0.04943143 0.04734584 0.04701398 0.04814371 0.05060351 0.0533615 0.05442271 0.05300996 0.05095936
 0.05089501 0.05342802 0.05684002 0.0591865 0.06010085 0.0606578 0.06198475 0.06410532 0.06580344 0.06554461
 0.06300019 0.05989657 0.05879422 0.06057476 0.06359352 0.06570002 0.06650293 0.06712285 0.06823593 0.06902581
 0.06803425 0.06489323 0.06125495 0.05977011 0.06177736 0.065961 0.06930347 0.06931499 0.06571127 0.06048295
 0.05634487 0.05485413 0.05599692 0.05923136 0.06408672 0.06960802 0.07410136 0.07608111 0.07534921 0.07292505
 0.06987897 0.06633727 0.06203004 0.0579345 0.05648484 0.05927219 0.06500697 0.07059219 0.07388839 0.07478237
 0.07397788 0.07166845 0.06774332 0.06308528 0.05999729 0.06040992 0.06355499 0.06640057 0.06682545 0.06555343
 0.06459659 0.06474756 0.06528279 0.06550789 0.06575917 0.06683744 0.06885968 0.07095997 0.07212281 0.07210346
 0.07147109 0.07095075 0.07076332 0.07046279 0.06956386 0.06850606 0.06859636 0.07057418 0.07359299 0.07609118
 0.07735932 0.07779661 0.07785978 0.07725903 0.07537522 0.07242288 0.06992108 0.06956321 0.07157705 0.07458263
 0.07702519 0.07829478 0.07857816 0.07828861 0.07778376 0.07725413 0.07679105 0.07663956 0.07713339 0.0782183
 0.07934392 0.08001576 0.08020032 0.08007637 0.07968214 0.07899236 0.07817682 0.07760131 0.07756402 0.07807308
 0.07889163 0.07974716 0.08042632 0.08073947 0.08059095 0.08012308 0.07963333 0.07930553 0.07914284 0.07915067
 0.07940414 0.07988872 0.08042221 0.08081028 0.08100173 0.0810516 0.08100556 0.08087112 0.08066722 0.08046705
 0.08038837 0.08051258 0.08078977 0.08107242 0.08128566 0.08150035 0.0817757 0.08200795 0.08203737 0.08186287
 0.08165358 0.08156404 0.08161037 0.08171594 0.08180047 0.08179303 0.08161812 0.08126078 0.08086264 0.08067381
 0.0808536 0.08135371 0.08200377 0.08263448 0.08310999 0.08335644 0.08341594 0.08340284 0.08337139 0.08327712
 0.08308259 0.08285831 0.0827634 0.08292709 0.08333293 0.08382186 0.08422139 0.08445797 0.08455631 0.08459769
 0.08468612 0.0848695 0.08506566 0.08513822 0.08506866 0.08498968 0.08502659 0.08515547 0.08524308 0.08520478
 0.08510279 0.08508287 0.08522043 0.08545106 0.08565943 0.08580759 0.08595376 0.08615408 0.08636393 0.08645727
 0.08636366 0.08616549 0.08601515 0.08597194 0.0859832 0.08601612 0.08611915 0.08632252 0.08654808 0.08667737
 0.08668661 0.08666743 0.08670972 0.08679436 0.08682026 0.08672138 0.08653432 0.08635879 0.08627571 0.08630152
 0.08639225 0.08647604 0.08649392 0.08643045 0.08631469 0.08619161 0.08609281 0.08604018 0.08607048 0.08622403
 0.08647984 0.08671585 0.08677801 0.08661495 0.08633554 0.08611563 0.08604212 0.08604985 0.08600467 0.08583505
 0.08557956 0.08532557 0.08512747 0.08498413 0.08487017 0.08477326 0.08471236 0.08473071 0.08485171 0.08502126
 0.08511364 0.0850324 0.08480434 0.08455022 0.08437309 0.08429733 0.08428863 0.08429469 0.08428547 0.08428419
 0.08433379 0.08441448 0.08444038 0.0843666 0.08425364 0.0842011 0.08426167 0.08442847 0.08464497 0.08480959
 0.0848356 0.08474003 0.08463566 0.08461621 0.08467987 0.08477132 0.08485746 0.08494204 0.08503429 0.0851355
 0.08525454 0.08541561 0.08563669 0.08589976 0.08614843 0.08632471 0.08641972 0.08649248 0.08663074 0.08688127
 0.08721179 0.08753902 0.08779614 0.0879814 0.08814564 0.08833247 0.08853981 0.08874992 0.08897696 0.08925382
 0.08957881 0.08990975 0.09021227 0.0904886 0.09075819 0.09103376 0.0913211 0.09163205 0.09199037 0.09241143
 0.09286121 0.09325078 0.09350464 0.09363771 0.09374988 0.09394817 0.09427299 0.09466787 0.09500584 0.09518696
 0.0952439 0.09532161 0.09552233 0.09580243 0.09605891 0.09628391 0.09657443 0.09699281 0.09746981 0.09786793
 0.09811597 0.09826307 0.09841026 0.09860373 0.09879965 0.0989323 0.09900266 0.09907632 0.09920001 0.0993641
 0.09956303 0.09984045 0.1002277 0.100669 0.101059 0.1013419 0.1015373 0.1016874 0.1018142 0.1019139
 0.1019686 0.1019766 0.1019827 0.1020479 0.1021708 0.102279 0.1023199 0.1023266 0.1023713 0.1024923
 0.1026914 0.102963 0.1032819 0.1035902 0.1038508 0.1041059 0.1044312 0.104819 0.1051546 0.1053387
 0.1053926 0.1054084 0.1054331 0.1054602 0.1055112 0.1056518 0.1059141 0.1062539 0.1066053 0.1069462
 0.1072908 0.1076405 0.1079605 0.1081965 0.1083108 0.1083127 0.1082647 0.1082586 0.1083707 0.1086198
 0.1089554 0.1092931 0.1095693 0.1097599 0.1098536 0.1098445 0.1097744 0.1097476 0.1098503 0.1100512
 0.1102134 0.1102127 0.1100166 0.1096538 0.1091509 0.1085289 0.10784 0.107174 0.1066186 0.1062204
 0.1059908 0.1059477 0.1061337 0.1065715 0.1072054 0.1079122 0.1085725 0.1091031 0.1094232 0.1094427
 0.109125 0.1085389 0.1078171 0.107078 0.1063927 0.1057843 0.1052262 0.104675 0.1041569 0.1038165
 0.1038511 0.1043901 0.1054284 0.1068327 0.1083845 0.1098509 0.1110754 0.1120378 0.1128237 0.1135307
 0.1142059 0.1148634 0.1155222 0.1161928 0.1168408 0.1174086 0.1178783 0.1182863 0.1186726 0.119043
 0.1193793 0.1196642 0.1198995 0.120113 0.1203302 0.1205251 0.1206269 0.1205992 0.1204872 0.1203625
 0.1202435 0.1200879 0.1198419 0.1194824 0.1190426 0.1186343 0.1184376 0.1186305 0.1192872 0.1203316
 0.1215952 0.122924 0.1242192 0.125394 0.1263476 0.1270205 0.127451 0.1277459 0.128005 0.1282808
 0.1285856 0.1289064 0.1292197 0.1295096 0.1297797 0.1300508 0.1303497 0.1306883 0.1310425 0.1313616
 0.1316169 0.1318382 0.1320938 0.1324266 0.132812 0.1331855 0.1335136 0.133825 0.1341552 0.134482
 0.1347476 0.1349367 0.135098 0.1352926 0.1355518 0.1358774 0.1362427 0.136589 0.1368586 0.1370452
 0.1371959 0.137363 0.1375677 0.1378056 0.1380646 0.1383307 0.1385939 0.1388598 0.1391481 0.139464
 0.1397724 0.1400178 0.1401783 0.1402944 0.1404331 0.1406289 0.1408616 0.1410859 0.141281 0.1414757
 0.1417219 0.1420349 0.1423643 0.1426339 0.1428117 0.1429321 0.1430556 0.1432187 0.1434201 0.1436393
 0.1438581 0.1440698 0.1442758 0.14448 0.1446848 0.1448921 0.1451036 0.1453182 0.1455304 0.1457354
 0.1459351 0.146136 0.1463459 0.1465768 0.1468437 0.1471435 0.1474392 0.1476827 0.1478567 0.1479856
 0.1481074 0.1482449 0.148403 0.148579 0.1487707 0.1489758 0.1491886 0.1493998 0.1496029 0.1497998
 0.149997 0.150199 0.1504061 0.1506169 0.1508314 0.1510529 0.1512836 0.1515168 0.1517382 0.1519378
 0.1521198 0.1523008 0.1524974 0.152711 0.1529226 0.1531101 0.1532732 0.1534336 0.1536122 0.1538126
 0.1540256 0.1542391 0.1544427 0.1546327 0.1548146 0.1549978 0.1551868 0.1553804 0.1555763 0.1557746
 0.1559757 0.1561794 0.156385 0.1565913 0.1567953 0.1569935 0.1571864 0.1573799 0.1575786 0.1577808
 0.1579831 0.1581859 0.1583881 0.1585838 0.1587691 0.1589499 0.1591375 0.1593369 0.1595424 0.1597458
 0.1599449 0.160143 0.1603428 0.1605463 0.1607589 0.1609841 0.1612144 0.1614358 0.1616424 0.1618394
 0.1620359 0.1622398 0.1624555 0.1626813 0.1629112 0.1631396 0.1633622 0.1635756 0.1637796 0.1639777
 0.164169 0.1643484 0.1645149 0.1646767 0.1648445 0.1650224 0.1652044 0.1653795 0.1655445 0.1657095
 0.1658887 0.1660885 0.1663065 0.1665337 0.1667568 0.1669668 0.1671669 0.167365 0.1675645 0.1677675
 0.1679754 0.168185 0.1683907 0.1685917 0.1687901 0.168988 0.1691902 0.1693999 0.1696111 0.1698161
 0.1700186 0.1702285 0.1704486 0.1706758 0.1709044 0.1711242 0.171326 0.1715127 0.1716958 0.1718856
 0.1720884 0.1723046 0.1725266 0.1727467 0.1729639 0.1731776 0.1733861 0.1735949 0.1738104 0.174027
 0.1742371 0.1744449 0.1746559 0.1748669 0.1750768 0.1752897 0.1755059 0.1757248 0.1759505 0.1761805
 0.1764039 0.1766176 0.176823 0.1770058 0.1771228 0.1770662 0.1765671 0.1750893 0.1718138 0.1657981
 0.1563492 0.1434567 0.1279492 0.1112013 0.09462539 0.07930283 0.06587878 0.05464423 0.04567062 0.03889593
 0.03418341 0.03141679 0.03059577 0.03193681 0.03598903 0.04331046 0.05323463 0.06278212 0.06782432 0.06634443
 0.06036474 0.05410072 0.05045802 0.0496342 0.05038404 0.05165137 0.05310523 0.05493855 0.05747832 0.06081484
 0.06479048 0.06940324 0.07499519 0.08181281 0.08949268 0.09721686 0.1044107 0.1111859 0.1180691 0.125367
 0.1328457 0.1399649 0.1463113 0.1518045 0.156611 0.1609572 0.1650023 0.1688221 0.172454 0.1758976
 0.1790356 0.1816018 0.1833113 0.1840816 0.1841341 0.1838661 0.183615 0.1835314 0.1836301 0.1838934
 0.1843063 0.1848482 0.1854945 0.186222 0.1870046 0.1878142 0.1886272 0.1894208 0.1901732 0.1908737
 0.1915232 0.1921228 0.1926714 0.1931724 0.1936308 0.1940523 0.1944497 0.1948381 0.1952192 0.1955815
 0.1959159 0.1962204 0.1964966 0.1967519 0.1969981 0.1972411 0.1974764 0.1976978 0.197904 0.1981004
 0.1982968 0.1985014 0.1987126 0.1989245 0.1991357 0.1993481 0.1995586 0.1997616 0.1999572 0.2001501
 0.2003456 0.2005457 0.2007472 0.2009436 0.2011341 0.2013263 0.201525 0.2017254 0.2019187 0.2021042
 0.2022912 0.2024914 0.2027059 0.2029207 0.2031212 0.2033108 0.2035025 0.2037001 0.2038979 0.2040963
 0.2043005 0.2045104 0.2047237 0.2049423 0.2051622 0.2053654 0.2055368 0.2056855 0.205842 0.2060318
 0.2062552 0.2064918 0.2067214 0.2069379 0.2071442 0.2073446 0.2075393 0.20772 0.207881 0.2080419
 0.208241 0.2084897 0.2087555 0.209005 0.2092373 0.2094648 0.2096938 0.2099309 0.2101747 0.2103966
 0.2105629 0.210689 0.2108482 0.2111096 0.2114669 0.2118365 0.2121353 0.2123566 0.2125566 0.2127887
 0.2130691 0.2133656 0.2135831 0.213627 0.2135459 0.213552 0.2138258 0.2143345 0.2148948 0.2153649
 0.2157262 0.2160233 0.2162846 0.2164976 0.2166249 0.2166466 0.216615 0.2166694 0.216946 0.2174382
 0.2179857 0.2184339 0.218755 0.218993 0.2191809 0.2193389 0.2194408 0.2193568 0.2189906 0.2185392
 0.2184486 0.2189821 0.2199185 0.2207828 0.2213144 0.2216086 0.2218583 0.2221229 0.2223583 0.2224569
 0.2221665 0.2212417 0.2199212 0.2190447 0.2193599 0.2207726 0.2224966 0.2238383 0.2246294 0.2250436
 0.2252931 0.2254921 0.2255751 0.2253005 0.2245248 0.223573 0.2231611 0.2237371 0.2249713 0.2261046
 0.2267231 0.2269818 0.2271921 0.2274722 0.2276667 0.2273163 0.2259212 0.2236802 0.221854 0.2218759
 0.2239511 0.226809 0.2289596 0.2299695 0.2303409 0.2304195 0.2298912 0.228359 0.2259476 0.2232459
 0.221124 0.2206242 0.2222696 0.2251897 0.2276119 0.2286127 0.2289012 0.2296498 0.2310959 0.2325419
 0.2332558 0.2330407 0.2321254 0.2307627 0.229098 0.227528 0.2269309 0.228046 0.2305684 0.233256
 0.2350784 0.2359993 0.2364294 0.2360083 0.2333661 0.2277693 0.2211686 0.2176516 0.219832 0.226116
 0.2324132 0.2361578 0.2377153 0.2384576 0.2389256 0.238678 0.2365526 0.2313055 0.22357 0.2170833
 0.2161571 0.2214103 0.2290649 0.2344743 0.235291 0.2317046 0.2255963 0.2199754 0.2177555 0.2199962
 0.2254429 0.231762 0.2369356 0.2398248 0.24017 0.2384785 0.2359781 0.2343189 0.2343788 0.2349584
 0.2336925 0.2300378 0.2261808 0.2238299 0.2215739 0.2174923 0.2133758 0.213542 0.2192247 0.226508
 0.2307272 0.2311977 0.2303624 0.229335 0.2259791 0.2179728 0.2072044 0.1998534 0.2009913 0.2093194
 0.2183312 0.2226863 0.2224522 0.2211921 0.2212121 0.2212084 0.2180981 0.2110416 0.2035019 0.2003417
 0.2026469 0.2067525 0.2085826 0.2069037 0.2018969 0.1938505 0.1855011 0.1828759 0.1902087 0.2047558
 0.2189458 0.2266105 0.2252322 0.2145879 0.1976505 0.1824228 0.1780381 0.1865707 0.2005116 0.2096751
 0.2092731 0.2007606 0.1874976 0.1724679 0.1596673 0.1545123 0.1605999 0.1760679 0.1936096 0.2040761
 0.2015317 0.1879095 0.1734716 0.1694182 0.177653 0.1894454 0.1951991 0.1931544 0.1880047 0.1848777
 0.1863975 0.192199 0.1993062 0.2049377 0.2087294 0.20957 0.202604 0.1850604 0.1639692 0.1515312
 0.1524523 0.1615263 0.1733853 0.1873219 0.2009502 0.2068965 0.2011091 0.1905334 0.1872038 0.1954711
 0.2082843 0.2158267 0.2152328 0.2111127 0.2084236 0.207193 0.2049868 0.2026142 0.2043212 0.2119359
 0.2216733 0.2283607 0.2308147 0.2313624 0.2318872 0.2324004 0.2323864 0.2316687 0.230322 0.228793
 0.2277691 0.227407 0.2271866 0.2266995 0.2256201 0.2224936 0.2150532 0.2033999 0.1920272 0.1862632
 0.1866255 0.1891809 0.1913976 0.1936178 0.1935962 0.1849772 0.1656873 0.1448091 0.1359734 0.1441931
 0.162131 0.1784597 0.1865406 0.1849958 0.1743149 0.157045 0.1404976 0.134473 0.1432692 0.1615529
 0.1800581 0.193576 0.201558 0.2036843 0.1988704 0.1884196 0.1773018 0.1713127 0.1735339 0.1829702
 0.1948948 0.2020847 0.1983514 0.1846821 0.1719544 0.1729247 0.1888531 0.2074061 0.2165153 0.2166004
 0.2156972 0.2169639 0.2171047 0.2151325 0.2158946 0.2234249 0.235012 0.2438733 0.2451107 0.2376453
 0.2235945 0.2087672 0.2011512 0.2044734 0.2138974 0.2212253 0.2228019 0.219046 0.2096297 0.1954961
 0.1839623 0.1843174 0.1970606 0.2127018 0.2225408 0.2265877 0.2295948 0.2328763 0.2327205 0.2260188
 0.215468 0.2079061 0.2075616 0.2123656 0.2174639 0.2203286 0.2207889 0.2181415 0.2115921 0.2035535
 0.1996648 0.2038926 0.214407 0.2252617 0.2316844 0.2330558 0.2315332 0.2292497 0.2268787 0.223792
 0.2194711 0.2153468 0.2145255 0.2184714 0.2246796 0.2292535 0.2313641 0.2335235 0.2376305 0.2423581
 0.2447746 0.243546 0.2402017 0.2377951 0.2384506 0.241682 0.2447571 0.245025 0.2424331 0.2398161
 0.2402914 0.244291 0.2494934 0.2534684 0.2556565 0.2568748 0.2579009 0.258786 0.2588099 0.2570286
 0.2536224 0.2506709 0.2506715 0.2540585 0.2587911 0.262464 0.2642498 0.2647451 0.26463 0.2639626
 0.2625829 0.2607637 0.2592295 0.2585803 0.2588573 0.2596841 0.2606546 0.2615163 0.26216 0.262594
 0.2628916 0.2630981 0.2632189 0.2632875 0.2633517 0.2633832 0.2633099 0.2631755 0.2631623 0.2633855
 0.2637364 0.263998 0.2640448 0.2638372 0.2632987 0.2623476 0.2610469 0.259582 0.2580474 0.2563834
 0.2546309 0.2531974 0.2527258 0.2536101 0.2556351 0.2581077 0.2603265 0.2619353 0.2629268 0.2634532
 0.2636822 0.2637501 0.2637419 0.2636774 0.2635344 0.2632976 0.2629843 0.2626279 0.2622548 0.2618849
 0.261542 0.261243 0.2609754 0.2606984 0.2603688 0.2599596 0.2594697 0.2589269 0.2583675 0.2577943
 0.2571585 0.2564013 0.2555103 0.2545367 0.2535691 0.2526857 0.2519069 0.2511843 0.250448 0.2496589
 0.2487974 0.2478267 0.2467222 0.2455481 0.244452 0.2435483 0.2428245 0.2421774 0.2415059 0.2407511
 0.2398884 0.2389266 0.2379054 0.2368594 0.235789 0.2346757 0.2335068 0.2322684 0.230939 0.2295073
 0.2279847 0.2263935 0.2247583 0.2231031 0.221426 0.2196647 0.2176991 0.2153901 0.2126133 0.2092768
 0.2053473 0.200886 0.19606 0.1910977 0.1862131 0.1815592 0.1772411 0.1733519 0.1699862 0.1672274
 0.1651344 0.1637375 0.1630439 0.1630515 0.1637542 0.1651258 0.1670976 0.1695548 0.172353 0.1753343
 0.178335 0.1811983 0.1838177 0.1861855 0.1883796 0.1904709 0.1924536 0.1942773 0.195914 0.1973611
 0.1986066 0.1996332 0.2004543 0.2011205 0.2016872 0.2021837 0.2026116 0.2029693 0.2032728 0.2035451
 0.2037912 0.2040018 0.2041799 0.2043492 0.2045353 0.2047504 0.2049967 0.2052826 0.2056339 0.2060759
 0.206601 0.2071684 0.2077446 0.2083281 0.2089336 0.209573 0.210265 0.2110492 0.2119768 0.2130793
 0.2143426 0.215708 0.2170998 0.2184453 0.2196717 0.2207036 0.2214819 0.2219889 0.2222518 0.2223235
 0.2222541 0.222072 0.2217895 0.2214198 0.2209774 0.2204663 0.219881 0.219224 0.2185156 0.2177843
 0.2170556 0.2163463 0.2156617 0.2149951 0.2143344 0.2136742 0.2130258 0.2124099 0.2118338 0.2112785
 0.2107142 0.2101284 0.2095359 0.2089608 0.2084086 0.2078507 0.2072317 0.2065 0.2056392 0.2046756
 0.2036469 0.2025658 0.2014145 0.2001696 0.1988216 0.197372 0.1958292 0.1942125 0.1925487 0.1908502
 0.1890938 0.1872358 0.1852606 0.1832169 0.1811997 0.179296 0.1775476 0.1759482 0.1744647 0.173066
 0.1717403 0.1704824 0.1692737 0.1680947 0.1669526 0.1658765 0.1648836 0.1639666 0.1631103 0.1623098
 0.1615756 0.1609238 0.1603607 0.1598789 0.1594684 0.1591274 0.1588651 0.158703 0.1586565 0.1586994
 0.1587606 0.1587725 0.1587119 0.1585952 0.1584546 0.1583228 0.1582211 0.1581554 0.1581189 0.1580814
 0.1579718 0.1576884 0.1571344 0.156249 0.1550266 0.153514 0.1517858 0.1499346 0.1480873 0.1463884
 0.1449419 0.1437867 0.1429203 0.1423022 0.1418435 0.1414532 0.1411103 0.1408766 0.1408372 0.1410097
 0.1412846 0.1414853 0.1415345 0.1415397 0.1416868 0.1420831 0.142708 0.1434584 0.1442144 0.1448937
 0.1454554 0.1458658 0.1461048 0.1462002 0.1462056 0.146148 0.1460318 0.1458641 0.1456445 0.1453616
 0.1450101 0.1445805 0.1440547 0.1434411 0.1427761 0.1420723 0.1413102 0.1404674 0.1395013 0.1383635
 0.1371149 0.1359838 0.1352472 0.1350769 0.1354764 0.1362877 0.1372876 0.1383323 0.1393431 0.1401382
 0.1404851 0.1404673 0.1406586 0.1417148 0.1437542 0.1462188 0.1483614 0.1497909 0.1505194 0.150657
 0.1502562 0.1493609 0.1479852 0.1460809 0.1436577 0.1408526 0.1378187 0.1346949 0.1316941 0.1290338
 0.1268009 0.1249932 0.1235954 0.1226347 0.1222361 0.1220436 0.1201841 0.1142237 0.1049161 0.0979132
 0.09901669 0.1076567 0.1172824 0.1222922 0.1225041 0.1208773 0.1194512 0.118512 0.1179455 0.1179187
 0.1185819 0.1197813 0.1211111 0.122179 0.122847 0.1231703 0.1231039 0.1222733 0.1199251 0.1151911
 0.1077806 0.09858005 0.08935373 0.08171351 0.07638311 0.07322221 0.07160319 0.07078003 0.07024139 0.06994139
 0.07018843 0.0712754 0.07323311 0.07590587 0.07911265 0.08260462 0.08596492 0.08877837 0.09093691 0.09262981
 0.09401509 0.09503657 0.09557118 0.09561337 0.09527103 0.09467562 0.09394036 0.0931363 0.09224546 0.09118009
 0.08993795 0.08873077 0.08785608 0.08742125 0.08728177 0.08724685 0.0872353 0.08723469 0.08723184 0.08721393
 0.08718228 0.08717441 0.08728689 0.08760948 0.08810395 0.08859868 0.0889245 0.08904137 0.089038 0.08898418
 0.08877078 0.08821061 0.08737283 0.0866238 0.08615002 0.08562876 0.08464661 0.08333348 0.08229897 0.08196726
 0.08219364 0.08252621 0.08264162 0.08249811 0.08226868 0.08224069 0.08262657 0.08329934 0.08379766 0.0837523
</values></Ydata></ScRf><Data_Parameters_AB><parameter name="DPF">1</parameter><parameter name="NPT">3497</parameter><parameter name="FXV">3996</parameter><parameter name="LXV">500</parameter><parameter name="CSF">1</parameter><parameter name="MXY">0.348923683166504</parameter><parameter name="MNY">-0.062324870377779</parameter><parameter name="DAT">02/06/2022</parameter><parameter name="TIM">11:28:25.180 (GMT+2)</parameter><parameter name="DXU">WN</parameter></Data_Parameters_AB><AB__Qtest><MainReport name="Quality Test Report"><Header><Line><Legend>Test result ok/not ok [1/0]: </Legend><Value>0</Value></Line><Line><Legend>Method file: </Legend><Value>C:\Users\Public\Documents\Bruker\OPUS_8.2.28\QT\IRBT_v3_default.QT</Value></Line></Header><Matrix><Line><Legend></Legend><Legend>min</Legend><Legend>max</Legend><Legend>measured</Legend></Line><Line><Value>Absorption (X-Range 1):</Value><Value>0.400000</Value><Value>2.000000</Value><Value>0.285256</Value></Line><Line><Value>Noise (X-Range 4):</Value><Value></Value><Value>0.000300</Value><Value>0.000061</Value></Line><Line><Value>Signal/Noise (X-Range 2):</Value><Value>200.000000</Value><Value></Value><Value>101.178648</Value></Line><Line><Value>Signal/Noise (X-Range 3):</Value><Value>40.000000</Value><Value></Value><Value>65.711843</Value></Line><Line><Value>Water vapour (X-Range 5):</Value><Value></Value><Value>0.000300</Value><Value>0.000109</Value></Line><Line><Value>Signal/Water (X-Range 2):</Value><Value>100.000000</Value><Value></Value><Value>56.864015</Value></Line><Line><Value>Signal/Water (X-Range 3):</Value><Value>20.000000</Value><Value></Value><Value>36.931104</Value></Line><Line><Value>Fringes (X-Range 6):</Value><Value></Value><Value>0.000100</Value><Value>0.000064</Value></Line></Matrix></MainReport></AB__Qtest><Data_Parameters_ScSm><parameter name="DPF">1</parameter><parameter name="NPT">1814</parameter><parameter name="FXV">3996.33169228125</parameter><parameter name="LXV">499.541461535156</parameter><parameter name="CSF">1</parameter><parameter name="MXY">0.248847410082817</parameter><parameter name="MNY">0.0319351628422737</parameter><parameter name="DAT">02/06/2022</parameter><parameter name="TIM">11:28:25.180 (GMT+2)</parameter><parameter name="DXU">WN</parameter></Data_Parameters_ScSm><Data_Parameters_ScRf><parameter name="DPF">1</parameter><parameter name="NPT">1820</parameter><parameter name="FXV">4004.04661832813</parameter><parameter name="LXV">495.683998511719</parameter><parameter name="CSF">1</parameter><parameter name="MXY">0.264745116233826</parameter><parameter name="MNY">0.0305957701057196</parameter><parameter name="DAT">02/06/2022</parameter><parameter name="TIM">11:27:59.328 (GMT+2)</parameter><parameter name="DXU">WN</parameter></Data_Parameters_ScRf><Optic_Parameters_Rf><parameter name="APR">0</parameter><parameter name="APT">Open</parameter><parameter name="BMS">KBr</parameter><parameter name="DTC">RT-DLaTGS_IR-Biotyper [Microplate reader]</parameter><parameter name="HPF">0</parameter><parameter name="LPF">10.0</parameter><parameter name="LPV">4000</parameter><parameter name="PGR">0</parameter><parameter name="RCH">Module port</parameter><parameter name="RDX">0</parameter><parameter name="SRC">MIR</parameter><parameter name="VEL">10.0</parameter><parameter name="SON">Off</parameter></Optic_Parameters_Rf><Acquisition_Parameters_Rf><parameter name="ADT">1</parameter><parameter name="AQM">DD</parameter><parameter name="CFE">0</parameter><parameter name="COR">0</parameter><parameter name="DEL">0</parameter><parameter name="DLY">0</parameter><parameter name="HFW">8000</parameter><parameter name="LFW">0</parameter><parameter name="NSR">32</parameter><parameter name="PLF">AB</parameter><parameter name="RES">6</parameter><parameter name="RGN">-1</parameter><parameter name="STR">0</parameter><parameter name="TCL">MakeCompatibleScalar (0, {WSV=1.000000, ARV=0});</parameter><parameter name="TDL">37</parameter><parameter name="RPO">0</parameter></Acquisition_Parameters_Rf><FT_-_Parameters_Rf><parameter name="APF">B3</parameter><parameter name="HFQ">500</parameter><parameter name="LFQ">4000</parameter><parameter name="NLI">0</parameter><parameter name="PHR">24</parameter><parameter name="PHZ">ML</parameter><parameter name="SPZ">NO</parameter><parameter name="ZFF">1</parameter></FT_-_Parameters_Rf><Optic_Parameters_><parameter name="APR">0</parameter><parameter name="APT">Open</parameter><parameter name="BMS">KBr</parameter><parameter name="CHN">Module port</parameter><parameter name="DTC">RT-DLaTGS_IR-Biotyper [Microplate reader]</parameter><parameter name="HPF">0</parameter><parameter name="LPF">10.0</parameter><parameter name="LPV">4000</parameter><parameter name="PGN">0</parameter><parameter name="RDX">0</parameter><parameter name="SRC">MIR</parameter><parameter name="VEL">10.0</parameter><parameter name="SON">Off</parameter></Optic_Parameters_><FT_-_Parameters_><parameter name="APF">B3</parameter><parameter name="HFQ">500</parameter><parameter name="LFQ">4000</parameter><parameter name="NLI">0</parameter><parameter name="PHR">24</parameter><parameter name="PHZ">ML</parameter><parameter name="SPZ">NO</parameter><parameter name="ZFF">1</parameter></FT_-_Parameters_><Acquisition_Parameters_><parameter name="ADT">1</parameter><parameter name="AQM">DD</parameter><parameter name="CFE">0</parameter><parameter name="COR">0</parameter><parameter name="DEL">0</parameter><parameter name="DLY">0</parameter><parameter name="HFW">8000</parameter><parameter name="LFW">0</parameter><parameter name="NSS">32</parameter><parameter name="PLF">AB</parameter><parameter name="RES">6</parameter><parameter name="SOT">0</parameter><parameter name="TCL">MakeCompatibleScalar (0, {WSV=1.000000, ARV=0});</parameter><parameter name="TDL">37</parameter><parameter name="SPO">0</parameter><parameter name="SGN">-1</parameter></Acquisition_Parameters_><Instrument_Parameters_Rf><parameter name="HFL">15800.168544</parameter><parameter name="LFL">0</parameter><parameter name="LWN">15800.168544</parameter><parameter name="ABP">32197</parameter><parameter name="SSP">1</parameter><parameter name="ARG">2</parameter><parameter name="ASG">2</parameter><parameter name="ASS">32</parameter><parameter name="GFW">16</parameter><parameter name="GBW">16</parameter><parameter name="BFW">0</parameter><parameter name="BBW">0</parameter><parameter name="PKA">7265</parameter><parameter name="PKL">4996</parameter><parameter name="PRA">7445</parameter><parameter name="PRL">5001</parameter><parameter name="P2A">1</parameter><parameter name="P2L">1</parameter><parameter name="P2R">1</parameter><parameter name="P2K">1</parameter><parameter name="DAQ">0</parameter><parameter name="AG2">1</parameter><parameter name="SSM">1</parameter><parameter name="RSN">26051</parameter><parameter name="CRR">0</parameter><parameter name="SRT">1654169279.329</parameter><parameter name="DUR">19.6369934082031</parameter><parameter name="TSC">28.2</parameter><parameter name="MVD">0.491651147603989</parameter><parameter name="AN1">0.225808230802127</parameter><parameter name="AN2">0</parameter><parameter name="VSN">2.485 Apr  4 2017</parameter><parameter name="SRN">0085</parameter><parameter name="CAM">0</parameter><parameter name="INS">IR-Biotyper</parameter><parameter name="FOC">69</parameter><parameter name="RDY">1</parameter><parameter name="ARS">32</parameter></Instrument_Parameters_Rf><Sample_Parameters_><parameter name="BLD"></parameter><parameter name="CNM">Admin</parameter><parameter name="CPY"></parameter><parameter name="DPM"></parameter><parameter name="EXP">IRBT_v3_32Scans.XPM</parameter><parameter name="LCT"></parameter><parameter name="SFM">Microplate, HTS-XT</parameter><parameter name="SNM">220602-1054_JMJ44M (D_7)_C3_76c6ab0b-132b-4806-8fe0-ba6607cef0dc.0</parameter><parameter name="XPP">C:\Users\Public\Documents\Bruker\OPUS_8.2.28\XPM</parameter><parameter name="IST">OK</parameter><parameter name="CPG">1252</parameter><parameter name="UID">9e81cb6a-e500-4583-a47d-15b9a04f03d2</parameter></Sample_Parameters_><Instrument_Parameters_><parameter name="HFL">15800.168544</parameter><parameter name="LFL">0</parameter><parameter name="LWN">15800.168544</parameter><parameter name="ABP">32197</parameter><parameter name="SSP">1</parameter><parameter name="ASG">2</parameter><parameter name="ARG">2</parameter><parameter name="ASS">32</parameter><parameter name="GFW">16</parameter><parameter name="GBW">16</parameter><parameter name="BFW">0</parameter><parameter name="BBW">0</parameter><parameter name="PKA">6515</parameter><parameter name="PKL">4988</parameter><parameter name="PRA">6773</parameter><parameter name="PRL">4993</parameter><parameter name="P2A">1</parameter><parameter name="P2L">1</parameter><parameter name="P2R">1</parameter><parameter name="P2K">1</parameter><parameter name="DAQ">0</parameter><parameter name="AG2">1</parameter><parameter name="SSM">1</parameter><parameter name="RSN">13651</parameter><parameter name="CRR">0</parameter><parameter name="SRT">1654169305.18</parameter><parameter name="DUR">19.6369934082031</parameter><parameter name="TSC">28.2</parameter><parameter name="MVD">0.234253242611885</parameter><parameter name="AN1">0.225824374427666</parameter><parameter name="AN2">0</parameter><parameter name="VSN">2.485 Apr  4 2017</parameter><parameter name="SRN">0085</parameter><parameter name="CAM">0</parameter><parameter name="INS">IR-Biotyper</parameter><parameter name="FOC">69</parameter><parameter name="RDY">1</parameter></Instrument_Parameters_><History/></OPUSDataFile>
