<?xml version="1.0" encoding="UTF-8" ?>
<OPUSDataFile><AB><Ydata ylabel="Absorbance Units"><values byteorder="INTEL" format="FLOAT32" numvalues="3497"> -0.07572103 -0.07572635 -0.07570694 -0.07566266 -0.07559423 -0.07550174 -0.07540613 -0.07530903 -0.07523746 -0.07519083
 -0.07518106 -0.07520335 -0.0752477 -0.07530921 -0.07537048 -0.075432 -0.07548632 -0.07553697 -0.07558661 -0.07563332
 -0.07567824 -0.07571355 -0.07573444 -0.07573922 -0.07572362 -0.07569974 -0.07566886 -0.07564535 -0.07563251 -0.07563227
 -0.07564571 -0.07566439 -0.07568789 -0.07570997 -0.07573071 -0.07574985 -0.07576762 -0.07578503 -0.07580227 -0.0758207
 -0.07583997 -0.075861 -0.07588068 -0.07589503 -0.0758997 -0.0758858 -0.07585834 -0.07581426 -0.07577233 -0.07574216
 -0.07573514 -0.07576336 -0.07580515 -0.07586085 -0.07589211 -0.07589025 -0.07585051 -0.07576876 -0.07568777 -0.07560972
 -0.07557954 -0.07559621 -0.07565805 -0.07575785 -0.07585004 -0.07593226 -0.07596838 -0.07596864 -0.07593791 -0.07588976
 -0.07584976 -0.07582299 -0.07582708 -0.07585666 -0.07591552 -0.07598972 -0.0760755 -0.07615224 -0.07621222 -0.07623897
 -0.07622395 -0.07617526 -0.0760894 -0.07600304 -0.0759184 -0.07587715 -0.07588181 -0.07595147 -0.07608455 -0.0762649
 -0.07648586 -0.07670029 -0.07690076 -0.07703205 -0.07709834 -0.07707666 -0.07698778 -0.07685425 -0.07669703 -0.07655074
 -0.076422 -0.07633065 -0.07626523 -0.07622737 -0.07619614 -0.07616206 -0.07612023 -0.07606377 -0.07601436 -0.07597405
 -0.07596428 -0.07598919 -0.0760377 -0.07610952 -0.07616976 -0.07621796 -0.07623917 -0.07623802 -0.07623647 -0.07623802
 -0.07627035 -0.07632671 -0.07640783 -0.07649807 -0.07656965 -0.07661685 -0.07661631 -0.07658557 -0.07652999 -0.07646821
 -0.07641517 -0.07636969 -0.07633485 -0.07630544 -0.07627674 -0.07626691 -0.07627555 -0.07633896 -0.07646249 -0.07665321
 -0.07691268 -0.07713887 -0.07732464 -0.07733071 -0.07717557 -0.0769079 -0.07655457 -0.07624843 -0.07598671 -0.07583024
 -0.07576245 -0.0757865 -0.07587625 -0.07600666 -0.07614528 -0.07625575 -0.07632498 -0.07632781 -0.07629253 -0.076222
 -0.07615051 -0.0760918 -0.07604235 -0.0760051 -0.07596071 -0.07590592 -0.07584766 -0.07578595 -0.07574967 -0.07573937
 -0.07576943 -0.07583538 -0.07591718 -0.07600697 -0.0760631 -0.0760841 -0.07604104 -0.0759468 -0.07580785 -0.0756427
 -0.07547649 -0.07531969 -0.07518962 -0.07508882 -0.07502261 -0.0749931 -0.07500269 -0.07505035 -0.07513902 -0.07525235
 -0.07539075 -0.0755218 -0.07564309 -0.07572012 -0.0757506 -0.07571422 -0.07561174 -0.07545228 -0.07524019 -0.07500848
 -0.07476026 -0.07452513 -0.07430305 -0.07410786 -0.07394014 -0.07380716 -0.07370882 -0.07365113 -0.07362344 -0.07362232
 -0.07362814 -0.0736274 -0.0736127 -0.07357468 -0.07352652 -0.07346943 -0.07341734 -0.07337355 -0.07334138 -0.07332149
 -0.07331609 -0.07332537 -0.07335123 -0.07339318 -0.07344318 -0.07349915 -0.07354284 -0.07357325 -0.07357518 -0.07355242
 -0.07350512 -0.07344157 -0.07337639 -0.07331543 -0.07327422 -0.07324721 -0.0732355 -0.07323141 -0.0732265 -0.07323184
 -0.07324799 -0.07329281 -0.0733764 -0.07348206 -0.07361296 -0.07372005 -0.07379808 -0.07381769 -0.0737767 -0.07365905
 -0.07346436 -0.07317927 -0.07281228 -0.07241219 -0.07199503 -0.07165366 -0.07139 -0.0712634 -0.07125004 -0.0713455
 -0.07149865 -0.07164332 -0.07174788 -0.07174949 -0.07168072 -0.0715391 -0.07137156 -0.07120006 -0.07103925 -0.07090103
 -0.07076927 -0.07064359 -0.07050453 -0.0703486 -0.07017896 -0.06999533 -0.06981486 -0.06963835 -0.06948013 -0.0693403
 -0.06922908 -0.06914174 -0.06906963 -0.06899802 -0.06888079 -0.068715 -0.06846477 -0.06815856 -0.06781854 -0.06746554
 -0.06713128 -0.06680588 -0.06649441 -0.06617746 -0.0658463 -0.0654963 -0.06512226 -0.06473545 -0.06433669 -0.0639383
 -0.06354257 -0.06314828 -0.06275591 -0.06234349 -0.06191016 -0.06143716 -0.06092881 -0.06040841 -0.05987965 -0.0593734
 -0.0588825 -0.05840233 -0.05792822 -0.05744886 -0.05696423 -0.05647469 -0.05596608 -0.05543091 -0.05484311 -0.0541807
 -0.05344367 -0.05262396 -0.05173912 -0.0507965 -0.04978669 -0.04870702 -0.04756296 -0.04635129 -0.04512029 -0.04387307
 -0.04263993 -0.04142101 -0.04021252 -0.03901512 -0.0378322 -0.03666599 -0.03553039 -0.03442122 -0.03333589 -0.03226613
 -0.03119841 -0.03011926 -0.0290173 -0.02784937 -0.02657722 -0.0251593 -0.02353164 -0.0217773 -0.01989852 -0.01803937
 -0.01625671 -0.01455886 -0.01296457 -0.01140267 -0.009866145 -0.008312157 -0.006736567 -0.005142568 -0.003531641 -0.001938779
 -0.0003640009 0.001166872 0.002672696 0.004211699 0.005817372 0.007633366 0.009624253 0.01182061 0.0141004 0.01629629
 0.01838591 0.02026294 0.0220291 0.0237158 0.02540944 0.02716584 0.02898318 0.03088007 0.03279782 0.03472561
 0.03663762 0.03852491 0.04042647 0.04234364 0.04433641 0.04640521 0.04855011 0.05076103 0.05295707 0.05513498
 0.05723253 0.05926559 0.06124744 0.0631898 0.06512246 0.06704637 0.06897098 0.07090607 0.07286442 0.07484984
 0.07687522 0.07891532 0.08095899 0.08300146 0.08502974 0.08709428 0.08920528 0.09138372 0.09364111 0.09589908
 0.09815332 0.1003283 0.1024237 0.1044556 0.1064299 0.1083998 0.110367 0.1123685 0.1143971 0.1164554
 0.1185258 0.1205719 0.1225912 0.1245515 0.1264982 0.1284549 0.1304789 0.13263 0.1348798 0.1372474
 0.1396296 0.1419935 0.1442997 0.146528 0.1487126 0.1508557 0.1529799 0.1550874 0.1571803 0.159259
 0.1613286 0.1633895 0.1654457 0.1674978 0.1695494 0.1716036 0.1736723 0.1757559 0.1778632 0.179988
 0.1821265 0.184273 0.1864213 0.1885674 0.1907068 0.1928377 0.1949558 0.1970699 0.1991813 0.2012992
 0.2034282 0.205556 0.2076823 0.2097878 0.2118706 0.2139286 0.2159616 0.2179725 0.2199618 0.2219331
 0.2238916 0.2258638 0.2278508 0.2298764 0.2319221 0.2339635 0.2359831 0.2379388 0.2398458 0.2416991
 0.2435296 0.2453587 0.2471976 0.2490595 0.2509342 0.2528244 0.2547058 0.2565754 0.2584058 0.2601905
 0.2619393 0.2636512 0.2653752 0.2671129 0.2688799 0.2706714 0.2724493 0.2742139 0.2759448 0.2776486
 0.2793388 0.2810101 0.282658 0.2842769 0.2858498 0.2873949 0.2889237 0.2904512 0.2919977 0.2935453
 0.2950907 0.2966187 0.2981194 0.2996079 0.3010863 0.3025638 0.3040438 0.3055117 0.3069669 0.3083938
 0.3097917 0.3111469 0.3124598 0.3137228 0.3149423 0.3161431 0.3173335 0.3185549 0.3198012 0.3210828
 0.3223856 0.3236926 0.3249982 0.3262913 0.3275692 0.3288274 0.3300642 0.3312754 0.3324721 0.3336583
 0.3348363 0.3360123 0.3371524 0.3382526 0.3392901 0.3402609 0.3412044 0.3421231 0.3430737 0.3440542
 0.345071 0.3461166 0.3471586 0.3481925 0.3491869 0.3501432 0.351045 0.3519059 0.352735 0.3535532
 0.3543889 0.3552393 0.3561185 0.3569937 0.3578523 0.3586748 0.3594471 0.3601876 0.3608958 0.3616007
 0.3623064 0.3630288 0.3637702 0.364523 0.3652861 0.3660236 0.3667341 0.3673863 0.367987 0.3685519
 0.3690895 0.3696371 0.3701892 0.3707536 0.3713188 0.3718689 0.3724051 0.3729214 0.3734239 0.3739167
 0.3743982 0.3748692 0.3753256 0.375766 0.3761885 0.3765918 0.376978 0.3773463 0.3777069 0.3780609
 0.3784051 0.3787383 0.3790222 0.3792559 0.379409 0.3794917 0.3795359 0.3795543 0.3796065 0.3796859
 0.3798102 0.3799609 0.3801163 0.3802704 0.3804065 0.380532 0.3806449 0.3807584 0.3808753 0.3810154
 0.3811864 0.3813956 0.3816516 0.3819197 0.3821999 0.3824313 0.3826089 0.3826934 0.3826838 0.3825872
 0.3824078 0.3821889 0.3819346 0.3816904 0.3814541 0.3812422 0.3810515 0.3808794 0.3807336 0.3806255
 0.3805583 0.3805491 0.3805659 0.3805976 0.3805994 0.3805392 0.3804238 0.3802382 0.3800461 0.3798582
 0.3797234 0.3796548 0.3796349 0.3796656 0.3796805 0.3796761 0.3795876 0.379416 0.379144 0.3787834
 0.3783794 0.3779483 0.3775652 0.3772361 0.3770148 0.3768875 0.376864 0.3769091 0.3769957 0.3770814
 0.3771244 0.3771136 0.3770221 0.3768938 0.3767327 0.3765972 0.3765036 0.3764715 0.376507 0.3766043
 0.3767624 0.3769973 0.3773098 0.3777243 0.3782358 0.3788112 0.3794318 0.3799869 0.3804584 0.3807222
 0.3807932 0.3806256 0.380286 0.3798413 0.3793782 0.3790179 0.3787911 0.3787785 0.3789057 0.3791748
 0.3794511 0.3796916 0.3798009 0.3797412 0.3795175 0.3791178 0.3786261 0.3780474 0.3774679 0.3768916
 0.3763502 0.3758424 0.3753628 0.3749136 0.3745033 0.3741382 0.3738482 0.3736258 0.3734798 0.3733745
 0.373269 0.3731121 0.3728346 0.372407 0.3717761 0.3709686 0.3699715 0.3688623 0.367659 0.3664398
 0.365226 0.36406 0.3629516 0.3619175 0.3609604 0.3600809 0.3592786 0.3585146 0.3577843 0.3570198
 0.3562242 0.3553735 0.3544859 0.353612 0.3527592 0.3519791 0.3512414 0.3505279 0.3497958 0.3489853
 0.3480937 0.3470868 0.3460185 0.3448982 0.3438016 0.3427575 0.3418085 0.3409789 0.3402326 0.339576
 0.3389012 0.3382 0.3373771 0.336428 0.3353591 0.3341786 0.3329823 0.331777 0.3306525 0.3296002
 0.3286415 0.3277588 0.3269247 0.3261234 0.3253205 0.3245054 0.3236537 0.3227619 0.3218167 0.3208289
 0.3197956 0.3187462 0.317687 0.3166531 0.3156553 0.3147059 0.3138119 0.3129463 0.3121086 0.3112552
 0.3103839 0.3094726 0.3085224 0.3075399 0.3065272 0.3054979 0.3044536 0.3034045 0.3023547 0.3013179
 0.3002984 0.2993115 0.2983503 0.2974179 0.2964929 0.2955622 0.2946036 0.2935995 0.2925485 0.2914415
 0.2903029 0.2891348 0.2879669 0.2868049 0.2856602 0.2845353 0.2834235 0.2823244 0.2812317 0.2801457
 0.2790696 0.278004 0.276955 0.2759206 0.2748981 0.2738827 0.2728613 0.271831 0.2707793 0.269711
 0.2686244 0.267532 0.2664403 0.2653671 0.2643202 0.2633232 0.2623864 0.2615246 0.2607503 0.2600302
 0.2593689 0.258673 0.2579357 0.2570665 0.2560606 0.2549137 0.2536338 0.2523128 0.2509634 0.249707
 0.2485424 0.2475394 0.246668 0.2459045 0.2451965 0.2444483 0.2436316 0.2426614 0.241583 0.2403895
 0.2391738 0.2379884 0.2368719 0.2358644 0.2349102 0.2340039 0.2330918 0.2321548 0.2312423 0.2303529
 0.2295965 0.228979 0.2285343 0.2282532 0.2280295 0.2278442 0.2275291 0.2270841 0.2264089 0.2255395
 0.2245024 0.2233491 0.2221784 0.2210109 0.2199169 0.2188691 0.2178689 0.2168902 0.2159086 0.2149506
 0.2140164 0.2131486 0.2123661 0.2116476 0.2109983 0.2103457 0.2096812 0.2089858 0.2082581 0.2075657
 0.2069115 0.2063562 0.2058903 0.2054893 0.2051384 0.2047689 0.2043809 0.2039376 0.2034511 0.2029271
 0.2023698 0.2017908 0.2011765 0.2005242 0.1998084 0.1990144 0.1981269 0.1971291 0.19605 0.1948827
 0.1937142 0.1925536 0.1914961 0.1905554 0.1897471 0.1890728 0.1884392 0.187839 0.1871482 0.186371
 0.1854624 0.184446 0.1833806 0.1822885 0.1812571 0.1802824 0.1794029 0.178591 0.1778313 0.177096
 0.1763559 0.1756024 0.1748187 0.1740217 0.1732094 0.1724171 0.1716535 0.1709427 0.1702953 0.1696817
 0.1691037 0.1684819 0.167812 0.1670428 0.1661782 0.165261 0.1643018 0.1633934 0.1625298 0.1617448
 0.1610111 0.160276 0.1595271 0.1587091 0.1578519 0.1569638 0.1560872 0.1552645 0.1545023 0.1538209
 0.1531966 0.1526228 0.1520901 0.1515919 0.1511428 0.1507457 0.1504032 0.1501188 0.1498558 0.1496124
 0.1493251 0.1489913 0.1485605 0.148038 0.1474258 0.1467402 0.1460405 0.1453441 0.1447248 0.1441848
 0.1437642 0.1434484 0.1432368 0.143114 0.1430661 0.1430875 0.1431719 0.143316 0.1435203 0.1437697
 0.1440631 0.1443747 0.1446989 0.1450274 0.1453555 0.1457233 0.1461327 0.1466607 0.1473099 0.148131
 0.1491151 0.1502353 0.1514737 0.1527483 0.1540499 0.1553113 0.1565409 0.1577217 0.1588662 0.1599859
 0.1610814 0.162159 0.1632125 0.1642376 0.1652382 0.1662133 0.1671735 0.1681249 0.1690565 0.1699724
 0.1708236 0.1716073 0.1722621 0.1727838 0.1731419 0.1733372 0.1733816 0.1732784 0.1730534 0.1727089
 0.1722623 0.1717248 0.1711228 0.1704901 0.169889 0.1693633 0.168994 0.1687922 0.1688063 0.168991
 0.1693416 0.1697903 0.1703086 0.1708587 0.1714221 0.1719985 0.1725846 0.173191 0.173819 0.1744743
 0.1751577 0.1758584 0.1765737 0.1772587 0.1779074 0.1784552 0.1789062 0.1792341 0.1794627 0.1796379
 0.1797832 0.1799729 0.1801852 0.1804498 0.1806612 0.1807725 0.1806026 0.1800493 0.1789445 0.1771808
 0.1747473 0.1715826 0.1679126 0.1637391 0.1594413 0.1550537 0.1509149 0.1470491 0.1436038 0.1405762
 0.1379224 0.1356273 0.1335703 0.131744 0.1300574 0.1285105 0.127061 0.1257025 0.124407 0.1231634
 0.1219441 0.1207533 0.1195793 0.1184487 0.1173712 0.1163757 0.1154775 0.1146869 0.1140116 0.1134444
 0.1129864 0.1126237 0.1123553 0.1121702 0.1120676 0.1120424 0.1120932 0.1121994 0.1123518 0.1124812
 0.1125703 0.1125115 0.1123005 0.1118605 0.1112233 0.1103986 0.1094462 0.1084396 0.1074335 0.1065008
 0.1056645 0.1049627 0.1043824 0.10393 0.1035751 0.103308 0.1031214 0.1030068 0.1030069 0.1031259
 0.103398 0.1038285 0.1043021 0.1048011 0.1049987 0.1048693 0.1040528 0.1025814 0.1003575 0.09750138
 0.09426109 0.09077304 0.08740716 0.08420759 0.08140004 0.07891139 0.07676559 0.07485051 0.07310157 0.07145926
 0.06987645 0.06836186 0.06690656 0.06553978 0.06426724 0.06309784 0.06203517 0.0610605 0.06017325 0.05934007
 0.05855933 0.05780116 0.05706561 0.056338 0.0556208 0.05491483 0.05422485 0.0535631 0.05293461 0.05235653
 0.05182497 0.05134776 0.05090244 0.05047632 0.05003862 0.04956406 0.04904608 0.04846767 0.04786594 0.0472425
 0.04665556 0.04611737 0.04565771 0.04528527 0.04497109 0.04471475 0.04445186 0.04418014 0.04385842 0.04349098
 0.04309032 0.04266147 0.0422354 0.04180591 0.04137338 0.04092682 0.04044125 0.0399228 0.03936306 0.03878814
 0.03821712 0.03767267 0.03717631 0.03673132 0.03634603 0.0360104 0.03572569 0.03547081 0.03524498 0.03501289
 0.03477075 0.03448931 0.03416571 0.03380529 0.03340946 0.03301032 0.03260895 0.03222895 0.03186803 0.03152867
 0.03120904 0.03090571 0.03061754 0.03034241 0.03007558 0.02981026 0.02954249 0.02926322 0.02898118 0.02869596
 0.0284267 0.02818286 0.02797092 0.02779959 0.02764461 0.02750575 0.02734306 0.027151 0.02691093 0.02662031
 0.0262998 0.0259512 0.02561318 0.02528602 0.02499108 0.02472384 0.0244768 0.0242446 0.02400744 0.0237656
 0.02350821 0.02324327 0.02297596 0.02271561 0.02247508 0.02225147 0.02205118 0.02185358 0.02165321 0.02142723
 0.02116578 0.02086619 0.02052356 0.02015864 0.01977242 0.01939054 0.01901501 0.01865792 0.0183193 0.01799498
 0.01768399 0.01737654 0.01707306 0.01676986 0.0164689 0.01617402 0.01588597 0.01560866 0.01534004 0.01507934
 0.01482364 0.01456995 0.01431651 0.01406142 0.01380369 0.01354219 0.01327767 0.01300947 0.01274179 0.01247493
 0.01221473 0.01196208 0.01171935 0.01148683 0.01126345 0.01104919 0.01084389 0.01064797 0.01046511 0.01029534
 0.01014188 0.01000217 0.009872255 0.009745982 0.009610479 0.009459346 0.009277734 0.009065212 0.008813721 0.00853277
 0.008223598 0.007902821 0.007576824 0.007261281 0.006962617 0.006687207 0.006438532 0.006211068 0.006005307 0.005808469
 0.005619749 0.005427538 0.005231422 0.005025994 0.004811696 0.004589637 0.004360595 0.004128746 0.003894195 0.003659479
 0.003424099 0.003187767 0.002951361 0.00271514 0.002482293 0.002255807 0.002038196 0.001832669 0.001637831 0.001454356
 0.00127857 0.001109716 0.0009442099 0.0007814539 0.0006177615 0.0004527919 0.0002821377 0.000105402 -7.914516E-05 -0.0002714923
 -0.0004701003 -0.000674618 -0.0008814747 -0.001090347 -0.001297769 -0.001503891 -0.001706931 -0.001908212 -0.002109123 -0.002311764
 -0.002520181 -0.00273395 -0.002955595 -0.003179441 -0.003403647 -0.003619934 -0.003823627 -0.00401173 -0.004180726 -0.004338115
 -0.004483828 -0.004630527 -0.004779846 -0.004940057 -0.005112091 -0.005296243 -0.005492416 -0.005696678 -0.005908492 -0.006121926
 -0.006336074 -0.006543466 -0.006743849 -0.006931852 -0.007109507 -0.007277803 -0.007440002 -0.007601488 -0.007763105 -0.007928066
 -0.008094728 -0.00826298 -0.008431202 -0.008598554 -0.008764346 -0.008928258 -0.0090897 -0.009248472 -0.009404404 -0.009557346
 -0.009708326 -0.009857402 -0.01000555 -0.01015282 -0.0103001 -0.01044746 -0.01059598 -0.01074566 -0.01089743 -0.0110507
 -0.01120431 -0.01135743 -0.01150751 -0.011655 -0.0117992 -0.01194161 -0.0120838 -0.01222577 -0.01236866 -0.01250981
 -0.0126481 -0.01278229 -0.01291082 -0.01303786 -0.01316364 -0.01329398 -0.0134302 -0.01357106 -0.01371687 -0.01385884
 -0.01399659 -0.0141236 -0.01424041 -0.01434926 -0.01445108 -0.01455166 -0.0146508 -0.01475066 -0.01485127 -0.01495293
 -0.0150578 -0.01516921 -0.0152883 -0.01541923 -0.01555646 -0.01569886 -0.01583722 -0.01596621 -0.01608323 -0.01618462
 -0.0162785 -0.01636543 -0.0164553 -0.01654987 -0.01665198 -0.01676222 -0.01687659 -0.01699482 -0.01711096 -0.01722478
 -0.01733158 -0.01743189 -0.01752524 -0.01761331 -0.01770083 -0.01778948 -0.01788547 -0.01798831 -0.01810029 -0.01821946
 -0.01834457 -0.01847455 -0.01860818 -0.01874536 -0.01888631 -0.0190287 -0.01917247 -0.01931271 -0.01944833 -0.01957617
 -0.01969527 -0.01980755 -0.01991296 -0.02001617 -0.02011738 -0.02021956 -0.02032272 -0.02042789 -0.02053515 -0.02064548
 -0.02075878 -0.02087564 -0.02099491 -0.0211146 -0.02123336 -0.02134808 -0.02145891 -0.02156446 -0.02166666 -0.02176591
 -0.02186554 -0.02196681 -0.02207349 -0.02218731 -0.02230948 -0.02244138 -0.0225782 -0.02271992 -0.02285841 -0.02299285
 -0.02312017 -0.02324028 -0.02335697 -0.0234705 -0.02358526 -0.02370065 -0.02381637 -0.02393107 -0.02404037 -0.02414349
 -0.02423629 -0.02431966 -0.02439226 -0.02445757 -0.02451805 -0.02457819 -0.02464224 -0.02471157 -0.02478865 -0.0248706
 -0.02495715 -0.02504516 -0.0251335 -0.02522268 -0.02531245 -0.0254051 -0.02550096 -0.02559874 -0.02569835 -0.02579459
 -0.02588734 -0.02597296 -0.02605192 -0.02612506 -0.02619231 -0.02625431 -0.02630995 -0.02635645 -0.02639478 -0.0264238
 -0.02644856 -0.02647347 -0.02650339 -0.02654402 -0.02659474 -0.02665745 -0.02672764 -0.02680443 -0.02688364 -0.02696456
 -0.02704241 -0.02711668 -0.02718179 -0.02723705 -0.02728178 -0.02731605 -0.02734889 -0.027381 -0.02742375 -0.02747621
 -0.02754052 -0.02761335 -0.02768492 -0.02775306 -0.02780685 -0.02784947 -0.02788004 -0.02790463 -0.02793006 -0.02795803
 -0.02799322 -0.02803088 -0.02806969 -0.02810631 -0.02813843 -0.02816857 -0.02819684 -0.02822609 -0.02825722 -0.02828775
 -0.02831763 -0.02834247 -0.02836211 -0.02837746 -0.02838931 -0.02840619 -0.02842946 -0.02847101 -0.02853122 -0.02861804
 -0.02873008 -0.02886802 -0.02903079 -0.02921578 -0.02942607 -0.02966164 -0.02993248 -0.03024355 -0.03060965 -0.0310383
 -0.031543 -0.03213141 -0.03280398 -0.03356528 -0.03439504 -0.03529353 -0.03622345 -0.03718265 -0.03812832 -0.0390579
 -0.03991602 -0.04069714 -0.04132153 -0.0417844 -0.0420143 -0.04201832 -0.04178043 -0.04131379 -0.04063148 -0.03976424
 -0.03874621 -0.03765329 -0.03657288 -0.03557586 -0.03474652 -0.03410364 -0.03368198 -0.03346544 -0.03346222 -0.0336262
 -0.0339601 -0.03436067 -0.03481957 -0.03520659 -0.03550639 -0.03568252 -0.03573317 -0.03571651 -0.03563481 -0.03553241
 -0.0354059 -0.03525915 -0.03508832 -0.03488116 -0.03463959 -0.0343582 -0.03404971 -0.03373029 -0.03341348 -0.03312404
 -0.03285687 -0.03261963 -0.03239258 -0.0321659 -0.03193218 -0.03168327 -0.03143293 -0.03118255 -0.03094553 -0.03072519
 -0.0305201 -0.03033071 -0.03014968 -0.02997666 -0.02981046 -0.02965152 -0.02950492 -0.02937065 -0.0292516 -0.02914663
 -0.02905344 -0.028971 -0.02889563 -0.02882731 -0.02876441 -0.02870706 -0.02865497 -0.02860764 -0.0285647 -0.02852558
 -0.02849011 -0.0284572 -0.02842683 -0.02839643 -0.02836516 -0.02833253 -0.02829762 -0.02826647 -0.02823927 -0.02822559
 -0.02822594 -0.02824331 -0.02827709 -0.02832036 -0.02837219 -0.02842346 -0.02847439 -0.02852079 -0.02856359 -0.02860324
 -0.0286394 -0.02867187 -0.02869968 -0.02872104 -0.02873741 -0.02874839 -0.02875846 -0.02876995 -0.02878542 -0.02880722
 -0.02883221 -0.02886058 -0.02888643 -0.02890881 -0.02892424 -0.02893218 -0.02893233 -0.02892466 -0.02891165 -0.02889377
 -0.02887726 -0.02886272 -0.02885735 -0.02886019 -0.0288725 -0.02889114 -0.02890946 -0.02892499 -0.02892994 -0.02892576
 -0.0289098 -0.02888806 -0.02886345 -0.02884334 -0.0288325 -0.02883492 -0.0288542 -0.02888705 -0.02893459 -0.02898641
 -0.02904158 -0.02908826 -0.02912509 -0.02914648 -0.02915205 -0.02914623 -0.02912966 -0.02911218 -0.02909412 -0.02908252
 -0.02907677 -0.02907808 -0.02908634 -0.02910157 -0.02912445 -0.02915659 -0.02919716 -0.02924687 -0.02930156 -0.02935894
 -0.02941347 -0.02946168 -0.02949993 -0.02952566 -0.02953922 -0.02953935 -0.02953196 -0.02951703 -0.02950519 -0.02949736
 -0.02950278 -0.02952202 -0.02955556 -0.02960276 -0.02965487 -0.02971107 -0.02976164 -0.02980728 -0.02984504 -0.02987687
 -0.02990592 -0.02993361 -0.02996369 -0.02999669 -0.03003456 -0.03007769 -0.03012765 -0.03018237 -0.03024246 -0.03030113
 -0.03035626 -0.0304019 -0.0304349 -0.03045922 -0.03047411 -0.03049093 -0.0305109 -0.03053961 -0.03057749 -0.03061893
 -0.03066345 -0.03070267 -0.03073702 -0.03076437 -0.03078633 -0.03080759 -0.03082944 -0.03085767 -0.03089172 -0.0309338
 -0.03098144 -0.03103283 -0.03108545 -0.03113664 -0.03118521 -0.03122994 -0.03126996 -0.03130464 -0.03133371 -0.03135639
 -0.03137594 -0.03139226 -0.03141198 -0.03143575 -0.03146836 -0.03151017 -0.03155997 -0.0316174 -0.0316769 -0.03173798
 -0.03179472 -0.03184735 -0.031893 -0.03193312 -0.0319695 -0.03200408 -0.03204114 -0.03208132 -0.03212764 -0.03217823
 -0.03223309 -0.03228882 -0.03234355 -0.03239506 -0.03244145 -0.03248464 -0.0325243 -0.032565 -0.03260773 -0.03265354
 -0.03270301 -0.03275117 -0.03279774 -0.03283827 -0.03287303 -0.03290584 -0.03293772 -0.03297773 -0.03302533 -0.03308422
 -0.03315126 -0.03322052 -0.03328938 -0.03334952 -0.03340316 -0.03344851 -0.03349175 -0.03353777 -0.03358949 -0.03365145
 -0.03371869 -0.03379096 -0.03386121 -0.03392691 -0.03398718 -0.03404084 -0.03409315 -0.03414442 -0.03419999 -0.0342602
 -0.03432672 -0.03439927 -0.03447434 -0.03455095 -0.0346211 -0.0346842 -0.03473294 -0.03476903 -0.03479233 -0.03480655
 -0.03481805 -0.0348293 -0.03484627 -0.03486839 -0.03489732 -0.03493147 -0.03497014 -0.03501308 -0.03505994 -0.0351111
 -0.03516688 -0.03522599 -0.03528854 -0.03535134 -0.03541404 -0.03547467 -0.03553305 -0.03558924 -0.03564326 -0.03569549
 -0.03574593 -0.03579452 -0.03584172 -0.03588909 -0.0359375 -0.03599011 -0.03604703 -0.03611029 -0.03617845 -0.03625117
 -0.03632538 -0.03639902 -0.03646803 -0.03652944 -0.03658119 -0.03662055 -0.03665223 -0.03667586 -0.03670124 -0.03673005
 -0.03676872 -0.03681856 -0.03687765 -0.03694601 -0.03701767 -0.03709244 -0.0371665 -0.03723994 -0.03731146 -0.03738106
 -0.0374481 -0.03751235 -0.03757283 -0.03762956 -0.03768192 -0.03773068 -0.03777623 -0.03782018 -0.03786379 -0.03790889
 -0.03795682 -0.03800885 -0.03806598 -0.03812819 -0.03819602 -0.03826715 -0.03834165 -0.03841486 -0.03848642 -0.03855168
 -0.0386103 -0.03865987 -0.03870042 -0.03873249 -0.03875657 -0.03877618 -0.0387921 -0.03880957 -0.03882854 -0.03885202
 -0.03887825 -0.0389054 -0.03893221 -0.03895541 -0.03897747 -0.03899841 -0.0390237 -0.03905696 -0.03910047 -0.03915772
 -0.03922195 -0.03929355 -0.03935866 -0.03941493 -0.03945242 -0.0394689 -0.03946884 -0.03945217 -0.03943497 -0.03941798
 -0.03941515 -0.03942578 -0.03945202 -0.03949173 -0.03953758 -0.03958798 -0.03963464 -0.03967811 -0.0397152 -0.03974817
 -0.03977838 -0.03980818 -0.03984051 -0.0398752 -0.03991422 -0.03995235 -0.03998926 -0.04001527 -0.04002745 -0.04002024
 -0.03999058 -0.03994684 -0.03988875 -0.0398336 -0.03978255 -0.03974683 -0.03972643 -0.03971964 -0.03972543 -0.03973554
 -0.0397495 -0.03976086 -0.0397704 -0.0397766 -0.03978124 -0.03978688 -0.03979483 -0.0398087 -0.03982633 -0.03984813
 -0.03986873 -0.03988485 -0.03989365 -0.03989203 -0.03988399 -0.03986951 -0.03985515 -0.03984253 -0.03983323 -0.03982805
 -0.03982221 -0.03981548 -0.03980266 -0.03978382 -0.03976122 -0.03973579 -0.03971584 -0.03970123 -0.03969649 -0.03969933
 -0.03970607 -0.03971447 -0.0397185 -0.03971767 -0.0397088 -0.03969247 -0.03966752 -0.03963664 -0.03960002 -0.03956371
 -0.03952996 -0.03950422 -0.03948933 -0.0394839 -0.0394891 -0.03949624 -0.03950487 -0.03950382 -0.03949222 -0.03946545
 -0.03942381 -0.03937487 -0.03931977 -0.03927134 -0.03922891 -0.03919701 -0.03917295 -0.03915136 -0.03913096 -0.03910648
 -0.03907878 -0.03904727 -0.03901166 -0.0389718 -0.03892639 -0.03887408 -0.03881587 -0.03875162 -0.03868329 -0.03861143
 -0.03853728 -0.03846086 -0.03838502 -0.03830997 -0.03823928 -0.03817323 -0.03811276 -0.03805789 -0.03800896 -0.03796624
 -0.03793221 -0.03790653 -0.03788985 -0.0378799 -0.03787147 -0.03786094 -0.03783903 -0.03780358 -0.03774673 -0.03767151
 -0.03757647 -0.03746947 -0.0373548 -0.03723865 -0.03712538 -0.03701524 -0.03690923 -0.03680618 -0.03670558 -0.03660947
 -0.0365181 -0.03643249 -0.03635278 -0.03627713 -0.03620562 -0.03614115 -0.03608378 -0.03603701 -0.0359976 -0.03595381
 -0.03590125 -0.03581854 -0.03571066 -0.03557501 -0.0354231 -0.03527058 -0.0351212 -0.03498473 -0.03485902 -0.03474521
 -0.03464168 -0.0345488 -0.03446211 -0.03438146 -0.03429824 -0.03421106 -0.03411245 -0.03400147 -0.03387214 -0.03372395
 -0.03355327 -0.03336034 -0.03315346 -0.03293422 -0.03271989 -0.03251066 -0.03231675 -0.0321367 -0.03197145 -0.03182007
 -0.03168261 -0.03155479 -0.03143271 -0.03130761 -0.03116826 -0.03101475 -0.03084069 -0.03065972 -0.03047716 -0.03029966
 -0.03013317 -0.02996565 -0.0297963 -0.02961109 -0.02940724 -0.02918557 -0.0289456 -0.02869958 -0.02844791 -0.02819752
 -0.02794649 -0.02768257 -0.02740233 -0.02708081 -0.02672241 -0.02632407 -0.02589813 -0.02546986 -0.02504103 -0.02462773
 -0.02421882 -0.02380813 -0.02339066 -0.02295793 -0.02252024 -0.02207969 -0.02164643 -0.02122575 -0.02081477 -0.0204163
 -0.02001076 -0.01959817 -0.01914112 -0.01863638 -0.01806756 -0.01743579 -0.01678933 -0.01613168 -0.01551734 -0.01493956
 -0.01439663 -0.01387891 -0.01335574 -0.01282612 -0.01227278 -0.01170044 -0.01110844 -0.01050146 -0.00988307 -0.009258643
 -0.008636263 -0.008006345 -0.007373943 -0.006699818 -0.005972497 -0.005166574 -0.004267429 -0.00331347 -0.002307433 -0.001285557
 -0.0002526603 0.0008187839 0.001929995 0.003107816 0.004348572 0.005626969 0.006943887 0.008282669 0.009662948 0.01113667
 0.01271435 0.01445879 0.01632602 0.01828632 0.02028633 0.02224952 0.02419059 0.02609086 0.02799252 0.02991552
 0.03186807 0.03385841 0.03587683 0.0379118 0.04002308 0.04220497 0.04462871 0.04730957 0.05032232 0.05366175
 0.05705357 0.06048277 0.06368094 0.06668853 0.06955947 0.07233515 0.07517312 0.07807436 0.08111246 0.08428236
 0.08758649 0.0910807 0.09479099 0.09885319 0.1033695 0.1084166 0.1141197 0.1202418 0.1267844 0.1333082
 0.1397091 0.1457816 0.1514688 0.1568295 0.161859 0.1667198 0.1714241 0.1762563 0.1812438 0.1867971
 0.1928675 0.199511 0.2065123 0.213191 0.2195162 0.2250223 0.2299643 0.234525 0.2388777 0.2432944
 0.2477545 0.252334 0.2569508 0.261575 0.2661858 0.270784 0.2752963 0.2797175 0.2839278 0.2878981
 0.2916729 0.2952508 0.2987433 0.3021517 0.3053898 0.3084455 0.3111487 0.3135247 0.3155994 0.3174244
 0.3191904 0.3208863 0.3226071 0.3242543 0.325696 0.3269439 0.3279287 0.3287834 0.3295946 0.3304029
 0.3312735 0.3321163 0.3329172 0.3335953 0.334121 0.3345087 0.3347504 0.3349249 0.3350377 0.33516
 0.3352937 0.3354084 0.3354966 0.3354698 0.335329 0.335033 0.3345919 0.3340091 0.3333057 0.3325188
 0.3316842 0.3308687 0.3300979 0.3294209 0.3288516 0.3284018 0.3281187 0.32802 0.3281673 0.3285954
 0.3292876 0.3302528 0.3314262 0.3327946 0.3343632 0.3361295 0.3381418 0.3404016 0.3429057 0.3456493
 0.3485819 0.3517023 0.3549795 0.3584164 0.3620073 0.3657534 0.3696522 0.3737109 0.3779373 0.382342
 0.3869402 0.391735 0.3967332 0.4019353 0.4073423 0.4129575 0.4187838 0.4248166 0.4310626 0.4374768
 0.4440641 0.4506983 0.4573713 0.463941 0.4704023 0.4767706 0.4830555 0.4893976 0.4957509 0.501981
 0.5079741 0.5132507 0.5178419 0.5215452 0.5245264 0.5269777 0.5289361 0.5305356 0.5316969 0.5323888
 0.5325986 0.5323301 0.531513 0.5301879 0.5279936 0.5248473 0.5205282 0.5149005 0.5087208 0.5020387
 0.4955053 0.4891452 0.4827211 0.4762174 0.4693759 0.4622321 0.4548475 0.447252 0.4396165 0.4318493
 0.4238963 0.4155072 0.4062098 0.3960409 0.3846121 0.3728177 0.361221 0.3503374 0.3407621 0.3319257
 0.323754 0.3157866 0.3078455 0.3000367 0.2923386 0.2850025 0.2780597 0.2714753 0.2652462 0.259144
 0.2531652 0.2471852 0.2412298 0.2353706 0.2296342 0.2241553 0.2189217 0.2139792 0.2092901 0.2048168
 0.2005297 0.1963951 0.1923599 0.1884097 0.1843901 0.1802342 0.175781 0.1708742 0.165837 0.1606496
 0.1559959 0.1520282 0.1487193 0.1461033 0.1436878 0.1414497 0.1390982 0.1366454 0.1341344 0.1315933
 0.1292094 0.126967 0.1249128 0.123017 0.1212166 0.1195426 0.1180028 0.1166659 0.1156219 0.1148745
 0.114469 0.114344 0.1144786 0.1148312 0.1153771 0.1161212 0.1170522 0.1182266 0.1196416 0.121424
 0.1235868 0.1262037 0.1292766 0.1325482 0.1359912 0.1391897 0.1421581 0.1447632 0.1470413 0.1490546
 0.150801 0.1522986 0.1535531 0.1545495 0.1553857 0.1561303 0.1569568 0.1580366 0.1594059 0.16119
 0.1631327 0.1651659 0.1671189 0.1689078 0.1706323 0.1722902 0.1740229 0.1758467 0.1777988 0.1798813
 0.1820263 0.1842312 0.1864353 0.1886544 0.1909382 0.1933222 0.1959596 0.1988605 0.2021481 0.205754
 0.2096249 0.2137002 0.2178623 0.222175 0.2266422 0.2313463 0.236356 0.2416241 0.2471631 0.2528586
 0.2586674 0.2646159 0.2706803 0.2770828 0.2838442 0.2911067 0.2988773 0.306812 0.3148682 0.3224054
 0.3294248 0.3356076 0.3409932 0.3455773 0.3493272 0.3521845 0.354059 0.354768 0.3542894 0.3524979
 0.3494981 0.3453064 0.3400919 0.3339367 0.326991 0.319316 0.3110369 0.3021632 0.2929405 0.2833742
 0.273915 0.2646046 0.2557811 0.2474646 0.2395977 0.2321646 0.2249319 0.2179111 0.2110414 0.2043705
 0.1980467 0.1920778 0.1865749 0.1814771 0.1767401 0.1722963 0.1680498 0.1639679 0.1599919 0.1561215
 0.1523379 0.1486643 0.1451034 0.1416817 0.1384092 0.1352834 0.1323085 0.129453 0.1267135 0.1240765
 0.1215411 0.1191542 0.1169211 0.1149248 0.1131642 0.1116795 0.1104564 0.1094654 0.1086929 0.108091
 0.1076569 0.1073647 0.1072153 0.1072042 0.1073196 0.1075619 0.1078871 0.108285 0.1086749 0.1090337
 0.1092702 0.1093604 0.1092344 0.1088763 0.1082533 0.1073578 0.1062123 0.1048175 0.103252 0.1015218
 0.09972181 0.0978585 0.09601463 0.09419896 0.09248642 0.09088314 0.08944484 0.08816297 0.08705149 0.08609115
 0.08526506 0.0845592 0.08395731 0.08345129 0.08303496 0.08269584 0.08243047 0.08222038 0.08206236 0.08193408
 0.08183334 0.08173128 0.08162548 0.08148731 0.081315 0.08109488 0.0808272 0.08051328 0.08015384 0.07975362
 0.07931319 0.07883672 0.07832504 0.07778269 0.07720891 0.07660486 0.07596843 0.07529635 0.07459111 0.07385103
 0.07308711 0.07230257 0.07151397 0.0707273 0.06995717 0.06920899 0.06848747 0.06779489 0.06712703 0.06648349
 0.06586327 0.06526621 0.06470185 0.06417078 0.06368351 0.06323978 0.0628425 0.06249205 0.06219026 0.06194022
 0.06174998 0.06162294 0.0615688 0.06158837 0.06168687 0.06186241 0.06211624 0.06244281 0.06284133 0.06330051
 0.0638177 0.06437753 0.06497643 0.06560001 0.06624537 0.06690363 0.06757322 0.06825393 0.06894559 0.06965572
 0.07038483 0.07114151 0.07192574 0.07274184 0.0735891 0.07446747 0.07537582 0.07631203 0.07727382 0.07825737
 0.07925832 0.08027096 0.08128926 0.08230728 0.08331862 0.08431894 0.08530171 0.08626457 0.08719905 0.08810332
 0.08896794 0.08979074 0.09056801 0.09129849 0.09198923 0.09264053 0.09326275 0.09385584 0.09442053 0.094955
 0.09544786 0.09589757 0.09629144 0.09663108 0.09691336 0.09714232 0.09732405 0.09746012 0.09755633 0.09760843
 0.09761564 0.09757165 0.09747215 0.09731498 0.09709807 0.09682192 0.09648643 0.09609123 0.0956357 0.0951231
 0.09455284 0.09393857 0.09328098 0.09260093 0.09189969 0.09119852 0.0904986 0.08981843 0.08915796 0.08852838
 0.0879258 0.08734787 0.08678658 0.08622814 0.08566364 0.08507662 0.08446283 0.08381141 0.08312772 0.08240951
 0.08167102 0.08091682 0.08015919 0.07940318 0.07865059 0.07790284 0.07715664 0.07641175 0.07566631 0.07492022
 0.07417026 0.07341617 0.0726527 0.07188074 0.07110254 0.07032192 0.06955401 0.06880385 0.06809197 0.06742135
 0.06680699 0.06624828 0.06575048 0.06531155 0.06493108 0.06460845 0.06434379 0.06413466 0.06398211 0.06387576
 0.06381412 0.06378385 0.06378169 0.06380414 0.06384985 0.06392518 0.06403039 0.0641732 0.06435434 0.06458569
 0.06486928 0.06522556 0.0656554 0.06617493 0.0667801 0.06746972 0.06823675 0.06906915 0.06995939 0.07089499
 0.07186651 0.07286242 0.07387502 0.07489554 0.07592463 0.07696024 0.07800595 0.07906344 0.08012936 0.08120357
 0.08228132 0.08336125 0.08444984 0.08554722 0.08666912 0.08781587 0.08899546 0.09020475 0.0914271 0.09265567
 0.09385219 0.09501611 0.09612127 0.097183 0.09821533 0.09923597 0.100277 0.1013366 0.1024259 0.1035338
 0.1046529 0.1057894 0.1069423 0.1081262 0.1093478 0.1106015 0.1118889 0.1131914 0.1145062 0.1158309
 0.1171648 0.1185213 0.1199005 0.1213081 0.1227413 0.1241851 0.1256351 0.1270653 0.1284747 0.129847
 0.1311832 0.1324816 0.1337325 0.1349292 0.1360441 0.1370528 0.13793 0.1386493 0.1392134 0.1396121
 0.1398741 0.1400016 0.1400353 0.139979 0.1398852 0.139758 0.1396591 0.1395926 0.1396124 0.139721
 0.1399567 0.1403215 0.1408472 0.1415377 0.142425 0.1435135 0.1448328 0.1463829 0.148182 0.1502152
 0.1524804 0.1549336 0.15755 0.1602484 0.1629902 0.1656575 0.1682083 0.170501 0.1724961 0.174064
 0.1751744 0.1757509 0.1757774 0.1752505 0.1741668 0.1725975 0.1705497 0.1681646 0.1654582 0.162612
 0.1596435 0.1567215 0.1538572 0.151168 0.1486548 0.1463779 0.1443215 0.1424969 0.140867 0.13941
 0.1380732 0.1368254 0.1356055 0.1343872 0.1331055 0.1317399 0.1302356 0.1285779 0.1267448 0.1247296
 0.1225495 0.1202043 0.1177412 0.1151638 0.1125412 0.1098794 0.1072547 0.1046714 0.102189 0.09980621
 0.09755153 0.09541844 0.09340933 0.09151451 0.08972248 0.08802565 0.08641206 0.08488141 0.08342981 0.08205975
 0.08077309 0.07956486 0.07843521 0.07737399 0.07637954 0.07544374 0.07456604 0.07373532 0.07295108 0.07219432
 0.07146414 0.07074452 0.07003583 0.06933377 0.068639 0.06795259 0.06727376 0.06660114 0.0659332 0.06526675
 0.06459971 0.06392828 0.06325043 0.06256265 0.06186511 0.06115665 0.0604388 0.05971156 0.05897771 0.05823672
 0.05749733 0.05676023 0.05603803 0.05533291 0.05464721 0.05398156 0.05332658 0.05268216 0.05204837 0.05142757
 0.05083924 0.05028532 0.04978652 0.04933904 0.04894447 0.0485943 0.04827304 0.04797389 0.04767977 0.04739204
 0.04710376 0.0468252 0.04655986 0.0463195 0.04611002 0.04593889 0.04580901 0.04572652 0.0456927 0.04571383
 0.04579153 0.04592327 0.04610967 0.04633022 0.04658316 0.04683045 0.04706826 0.04724926 0.04736922 0.04738405
 0.0472917 0.04706246 0.04669896 0.04618864 0.04554494 0.04477283 0.0439075 0.0429749 0.04202874 0.04110831
 0.04025707 0.03950656 0.03886642 0.03834788 0.03793999 0.03764218 0.03744616 0.03735133 0.03734821 0.03743677
 0.03759126 0.03780995 0.03805653 0.03832988 0.03860398 0.03888079 0.03915502 0.0394302 0.03971428 0.04000837
 0.0403193 0.04064446 0.04098338 0.04133269 0.04168901 0.04205015 0.04241396 0.04277847 0.04314238 0.04350437
 0.04386381 0.04422017 0.04457408 0.04491989 0.04525798 0.04557405 0.04586727 0.04612132 0.04633552 0.04650018
 0.04661629 0.04668659 0.04671539 0.04672245 0.04671491 0.04672425 0.04675442 0.04682962 0.04694674 0.04711219
 0.0473199 0.04756675 0.04784659 0.04815573 0.04848571 0.04883269 0.04918796 0.04954807 0.04990797 0.05026591
 0.05062011 0.05096964 0.05131819 0.05166557 0.05202505 0.05239721 0.05279306 0.05321094 0.05364121 0.05408048
 0.05450591 0.05491892 0.0553093 0.05568605 0.05606114 0.05644524 0.05685922 0.05730703 0.05780344 0.0583378
 0.05891206 0.05950015 0.06009266 0.06066319 0.06119946 0.06169628 0.06214701 0.06257411 0.0629778 0.06339401
 0.06382558 0.06429818 0.06481256 0.06536783 0.06596152 0.0665711 0.06719361 0.0678032 0.0683985 0.06896167
 0.06949355 0.06998573 0.07044396 0.07087076 0.0712771 0.07167336 0.07207128 0.07248078 0.07291252 0.07337314
 0.07387121 0.07441258 0.07499287 0.07561447 0.07625735 0.07691902 0.07758594 0.07825615 0.07893761 0.07963064
 0.08034454 0.08107758 0.08181735 0.08256041 0.08328252 0.08398339 0.0846482 0.08528156 0.0858843 0.08646491
 0.0870349 0.0876033 0.08818427 0.08877969 0.08939709 0.09002879 0.09067397 0.09132256 0.09197148 0.09261299
 0.09324548 0.09386124 0.09445961 0.09502999 0.09557164 0.09607355 0.09653535 0.0969558 0.09733685 0.09769634
 0.0980374 0.09838597 0.09874148 0.09911622 0.09950675 0.09991122 0.1003281 0.1007557 0.1011896 0.1016269
 0.1020569 0.10247 0.1028642 0.1032327 0.1035904 0.1039409 0.1042951 0.104658 0.1050233 0.1053916
 0.1057516 0.1061028 0.1064322 0.106739 0.1070063 0.1072356 0.1074311 0.1076 0.1077817 0.1079815
 0.1082387 0.108548 0.1089181 0.1093399 0.1098039 0.1103015 0.1108222 0.1113555 0.1118905 0.1124227
 0.1129458 0.1134642 0.1139794 0.1144895 0.1149953 0.1154871 0.1159621 0.1164247 0.1168743 0.1173261
 0.1177807 0.11824 0.1187032 0.1191628 0.1196192 0.1200731 0.1205245 0.1209759 0.1214218 0.1218536
 0.1222627 0.1226331 0.1229583 0.1232245 0.1234329 0.1235771 0.1236712 0.1237183 0.1237362 0.1237318
 0.123714 0.1236848 0.1236545 0.1236231 0.1236142 0.1236297 0.1236874 0.1237879 0.12393 0.1241139
 0.124341 0.1246121 0.1249344 0.1253031 0.1257074 0.1261414 0.1265858 0.1270402 0.1274972 0.1279544
 0.1284027 0.1288538 0.1292961 0.129801 0.1303897 0.131158 0.1321727 0.1333482 0.1347028 0.1359949
 0.1371751 0.1382305 0.1391486 0.140076 0.141019 0.1420415 0.1431359 0.1442423 0.145346 0.1463392
 0.1472131 0.1478842 0.1483472 0.1485506 0.1484931 0.1481463 0.1475238 0.1466179 0.1454771 0.1441169
 0.1426334 0.1410691 0.1395234 0.1380425 0.1366668 0.1354176 0.1342846 0.1332694 0.1323582 0.1315503
 0.1308271 0.1301871 0.1295861 0.129021 0.1284421 0.127849 0.1272125 0.1265348 0.1258059 0.1250332
 0.1242261 0.1233955 0.1225663 0.1217347 0.12091 0.1200742 0.1192126 0.1183261 0.1174093 0.1164742
 0.1155248 0.1145646 0.1135871 0.1126401 0.1117211 0.1109399 0.1103074 0.1098799 0.10966 0.1095813
 0.1096386 0.1097447 0.1099034 0.1100927 0.1103172 0.1105819 0.1108856 0.1112253 0.111604 0.1120235
 0.1124901 0.1130121 0.1135904 0.1142296 0.1149251 0.1156774 0.1164757 0.1173161 0.1181929 0.1191009
 0.120058 0.1210662 0.1221419 0.1232897 0.1244711 0.125684 0.1268493 0.1279636 0.1289667 0.1298569
 0.130595 0.1311801 0.1315803 0.1318143 0.1319009 0.131879 0.1318249 0.1317461 0.1316928 0.1316197
 0.1315074 0.1313228 0.131034 0.1306601 0.1302004 0.1296768 0.1290983 0.1284537 0.1277418 0.1269541
 0.1260866 0.1251793 0.1242344 0.1233327 0.1224761 0.1217166 0.1210424 0.1204155 0.1198205 0.1191768
 0.1184949 0.1177546 0.1169847 0.1162269 0.1154899 0.1148011 0.1141574 0.1135605 0.1130208 0.1125516
 0.112131 0.1117712 0.1113743 0.1109226 0.1103227 0.1095474 0.1086208 0.1075361 0.1064192 0.1052767
 0.1042087 0.1032115 0.1022646 0.1013531 0.1003736 0.09932822 0.09815711 0.09689861 0.09560923 0.09433011
 0.09316339 0.09210119 0.09118 0.09036355 0.08963097 0.0889691 0.0883641 0.08781622 0.0873252 0.08688128
 0.08648226 0.08612121 0.08579898 0.08549549 0.08521211 0.08488113 0.08449878</values></Ydata></AB><ScSm><Ydata ylabel="Single channel"><values byteorder="INTEL" format="FLOAT32" numvalues="1814"> 0.07233936 0.07234882 0.07241368 0.07255891 0.07276279 0.07296775 0.07312003 0.07320386 0.07323153 0.07321019
 0.0731504 0.07310606 0.07315877 0.07333782 0.0735748 0.07375029 0.07378792 0.07372364 0.07368752 0.07377716
 0.07392241 0.07390784 0.07357365 0.07299663 0.07243912 0.07211019 0.0720391 0.07222437 0.07275464 0.07356122
 0.07414997 0.07395647 0.07305314 0.07217357 0.07190055 0.07211093 0.07231914 0.07223804 0.07186635 0.07138047
 0.07118578 0.07180391 0.07335542 0.07514106 0.0758983 0.07459638 0.07116869 0.06674828 0.06325752 0.06237876
 0.06436308 0.06768866 0.07020624 0.07085551 0.07016849 0.06917819 0.06830847 0.06751636 0.06701218 0.06728742
 0.06843664 0.06971183 0.06991564 0.06842408 0.06592621 0.06393251 0.06339936 0.06413332 0.06560069 0.06750748
 0.06897248 0.06806532 0.0637119 0.05808949 0.05564278 0.05885271 0.06558996 0.07120285 0.07265268 0.07020321
 0.06605922 0.06254503 0.06123896 0.06254762 0.06562153 0.06905675 0.07175097 0.07296728 0.07214554 0.06938591
 0.06592817 0.06355403 0.06349759 0.06596588 0.07009035 0.07399461 0.0756477 0.07437022 0.07128695 0.06813516
 0.0661213 0.06592613 0.06787014 0.07157315 0.0759433 0.07981341 0.082414 0.08344548 0.08314027 0.0821147
 0.08089745 0.0798507 0.07950685 0.08023517 0.08137025 0.08146822 0.07988301 0.07763086 0.07634214 0.07657282
 0.07736209 0.07740276 0.07636464 0.07466669 0.07217951 0.06821461 0.06310356 0.05860512 0.05614616 0.05574086
 0.05703536 0.05986039 0.06301084 0.06418382 0.06250364 0.06011963 0.06007208 0.06304597 0.06702334 0.06974016
 0.07077584 0.07138404 0.07288034 0.07530025 0.07723255 0.0768887 0.07388595 0.07023366 0.068902 0.07090567
 0.07433358 0.07669247 0.07752551 0.07812755 0.07928348 0.08005492 0.07876454 0.0749933 0.07064296 0.0687588
 0.07087915 0.0754943 0.07914603 0.07899722 0.07473892 0.06863223 0.0637385 0.06181005 0.06282214 0.06613237
 0.07117582 0.07688152 0.08139588 0.08312267 0.08189648 0.07886773 0.07520831 0.07105651 0.0661201 0.06140599
 0.05943456 0.06184638 0.06729071 0.07255103 0.07542109 0.07580414 0.07445548 0.07162354 0.06724115 0.06217524
 0.05863366 0.05846234 0.06093096 0.06314308 0.06306477 0.06137215 0.05996697 0.05959868 0.0595928 0.05929342
 0.05898114 0.05936768 0.06057528 0.06185985 0.06233661 0.06179525 0.06073026 0.05975368 0.0590483 0.05825973
 0.0570014 0.05561689 0.05514235 0.05616669 0.05801575 0.05945001 0.05991017 0.05970906 0.05921303 0.05823582
 0.05633963 0.0536724 0.05132131 0.05051288 0.05141934 0.05304468 0.05426856 0.05465879 0.05435415 0.05365124
 0.0528084 0.05196462 0.05117961 0.05060799 0.05045947 0.05068712 0.05092963 0.05087469 0.05050725 0.04994676
 0.04923197 0.04836198 0.047442 0.04668604 0.04626076 0.04615045 0.04620186 0.04627111 0.04626319 0.04607603
 0.04563882 0.0450162 0.04437188 0.04381853 0.04337383 0.04304305 0.04285193 0.0427838 0.04274631 0.04263508
 0.0424149 0.04212034 0.04178968 0.04142816 0.04103936 0.0406627 0.04035953 0.04016245 0.04003891 0.03991713
 0.03976684 0.03963231 0.03954796 0.03945367 0.03925496 0.03894738 0.03862183 0.03836034 0.03817355 0.0380251
 0.03787255 0.03767999 0.03741971 0.03709133 0.03675214 0.03650351 0.03641497 0.03647085 0.03660285 0.03674071
 0.03681922 0.03679317 0.03667738 0.03653175 0.03638784 0.0362246 0.03602223 0.03581002 0.03565666 0.03562154
 0.03570214 0.03582692 0.03591366 0.0359275 0.03588054 0.03580926 0.03576177 0.03576389 0.03578195 0.03575486
 0.03567093 0.03558299 0.03554589 0.03556096 0.03558124 0.03556256 0.03551241 0.03548368 0.03551307 0.03558187
 0.035647 0.03569105 0.03572811 0.03577341 0.0358163 0.0358242 0.03578151 0.03572027 0.03569067 0.03570553
 0.03574056 0.03578321 0.03584734 0.03593843 0.03603236 0.03609796 0.03612841 0.0361448 0.0361698 0.036201
 0.03621672 0.03620705 0.03618755 0.03618123 0.03619754 0.03622964 0.03626234 0.03628239 0.03628605 0.03627684
 0.03625691 0.03622505 0.03618133 0.03613076 0.03608552 0.03606214 0.03606712 0.03608419 0.03608565 0.03605881
 0.03601524 0.03597381 0.03593956 0.03590153 0.03584993 0.03579279 0.03575106 0.03573828 0.0357511 0.03577808
 0.03580785 0.03583032 0.0358449 0.03587293 0.03594722 0.03607669 0.03622802 0.03635508 0.0364443 0.03652129
 0.03661544 0.03673097 0.03685404 0.03697685 0.037108 0.03726097 0.03743346 0.03760098 0.03773944 0.03785492
 0.03798047 0.03814219 0.03833953 0.03855658 0.03877556 0.03897757 0.03915013 0.03930251 0.03946057 0.03963847
 0.03982559 0.04000683 0.04018544 0.04037712 0.04058991 0.04081998 0.04106342 0.04132278 0.04160156 0.04189522
 0.04218686 0.04245474 0.0426932 0.04292735 0.04319653 0.04351768 0.04386984 0.0442162 0.04453681 0.04484016
 0.04514783 0.04547003 0.04579937 0.04613037 0.04647618 0.04685305 0.04725336 0.0476499 0.04802744 0.04839654
 0.04877411 0.04916279 0.04955392 0.04994286 0.05033433 0.05073343 0.05113508 0.05152663 0.05190224 0.05227081
 0.05264635 0.05303464 0.05343262 0.05383274 0.05422095 0.05457984 0.05490839 0.05523422 0.05558912 0.05597153
 0.05634785 0.05669324 0.05701645 0.05734066 0.05767629 0.0580222 0.05838125 0.0587606 0.05915873 0.05955921
 0.05993633 0.06026765 0.06054949 0.06080392 0.06106454 0.06135331 0.06167516 0.06202847 0.06240509 0.06278172
 0.0631285 0.06343189 0.06370107 0.06395632 0.06422161 0.06451996 0.06485783 0.06521558 0.0655618 0.06587288
 0.06613994 0.06637642 0.06662437 0.06692919 0.06729572 0.06768798 0.0680804 0.06848657 0.06892387 0.0693738
 0.06980313 0.07021281 0.070636 0.07108526 0.07152623 0.07191531 0.07224317 0.07252892 0.07279459 0.07306679
 0.07338347 0.07376941 0.07420816 0.07465743 0.07508742 0.07549192 0.07587076 0.07621869 0.0765312 0.07681127
 0.07706622 0.07729987 0.07751125 0.07770629 0.07790584 0.0781284 0.07836123 0.07856137 0.07869007 0.07873522
 0.07869782 0.07857655 0.07838023 0.07813992 0.07788585 0.07761168 0.07727656 0.07684334 0.0763045 0.0756728
 0.07496342 0.07419477 0.07340109 0.07263774 0.07197191 0.0714642 0.07115608 0.07107349 0.07123426 0.07163499
 0.07222346 0.07289278 0.07351154 0.07396117 0.0741557 0.07405397 0.07367344 0.07308833 0.07239779 0.07168593
 0.0710038 0.07037358 0.06980009 0.06928807 0.06886616 0.06859849 0.06856975 0.06886271 0.06955452 0.07071345
 0.0723591 0.07440116 0.07662994 0.07879572 0.08071924 0.08234449 0.08371237 0.0849034 0.08599194 0.0870195
 0.08798905 0.08888455 0.08969751 0.09043148 0.09108652 0.09165032 0.09210585 0.0924433 0.09266884 0.09280915
 0.09290705 0.09300898 0.09315519 0.09337354 0.09366502 0.09398751 0.09426256 0.0944113 0.09439178 0.09420872
 0.0938981 0.0935218 0.0932039 0.09317897 0.09375572 0.09514842 0.09729363 0.09984235 0.1023575 0.104538
 0.1062948 0.1076836 0.1088073 0.1097564 0.110591 0.111348 0.1120537 0.112727 0.1133749 0.1139959
 0.1145891 0.1151577 0.1157078 0.1162477 0.1167852 0.1173219 0.1178531 0.1183751 0.1188887 0.1193949
 0.1198919 0.1203788 0.1208632 0.1213607 0.1218791 0.1224051 0.1229129 0.1233879 0.1238381 0.1242826
 0.1247374 0.1252071 0.1256811 0.126137 0.1265566 0.1269429 0.1273177 0.1277001 0.1280908 0.1284785
 0.1288572 0.1292334 0.129617 0.1300104 0.1304093 0.1308061 0.1311888 0.1315437 0.1318675 0.1321772
 0.1324984 0.1328432 0.1332035 0.1335644 0.133923 0.134291 0.1346818 0.1350953 0.135515 0.1359189
 0.1362953 0.1366492 0.1369961 0.1373509 0.1377212 0.1381067 0.138497 0.1388764 0.1392384 0.139593
 0.1399555 0.1403275 0.1406983 0.1410603 0.1414174 0.141776 0.1421347 0.1424865 0.1428306 0.1431767
 0.1435373 0.1439124 0.1442866 0.1446445 0.1449839 0.1453113 0.1456306 0.145942 0.1462487 0.1465584
 0.1468797 0.1472177 0.1475695 0.1479253 0.1482765 0.1486244 0.148975 0.1493297 0.1496823 0.1500275
 0.1503668 0.1507059 0.1510486 0.1513921 0.1517313 0.1520656 0.1524001 0.1527399 0.153084 0.1534251
 0.1537569 0.15408 0.154402 0.1547267 0.1550471 0.155355 0.1556561 0.1559672 0.1562987 0.156644
 0.1569877 0.1573196 0.1576403 0.1579575 0.1582767 0.1585977 0.1589178 0.1592364 0.1595564 0.1598801
 0.1602049 0.1605229 0.1608298 0.1611325 0.1614431 0.1617645 0.1620871 0.1624002 0.162701 0.1629955
 0.1632925 0.1635953 0.1639002 0.1642027 0.1645034 0.1648048 0.1651081 0.1654124 0.1657168 0.1660185
 0.1663157 0.1666098 0.1669041 0.167202 0.1675068 0.1678166 0.1681253 0.1684301 0.1687346 0.1690424
 0.1693524 0.1696626 0.1699686 0.1702624 0.1705402 0.1708083 0.1710754 0.1713452 0.1716197 0.1719013
 0.1721897 0.1724811 0.1727713 0.1730563 0.1733361 0.1736173 0.1739072 0.1742071 0.1745154 0.1748299
 0.1751443 0.175451 0.1757502 0.1760465 0.1763415 0.1766364 0.1769355 0.1772411 0.1775529 0.177871
 0.1781914 0.1785038 0.1788016 0.1790867 0.179363 0.1796358 0.179916 0.1802111 0.1805155 0.1808188
 0.1811153 0.1814037 0.1816873 0.1819736 0.1822654 0.1825559 0.182838 0.1831079 0.1833627 0.1836096
 0.1838667 0.1841422 0.1844259 0.184708 0.1849886 0.185265 0.185533 0.1857978 0.1860679 0.1863443
 0.1866233 0.1868967 0.1871515 0.1873875 0.1876245 0.1878772 0.1881405 0.1884063 0.1886677 0.1889018
 0.1890582 0.189021 0.1885082 0.1869607 0.1835215 0.1771949 0.1672342 0.1536093 0.1371864 0.1194256
 0.1018391 0.08558758 0.07135517 0.05943879 0.04990563 0.04269382 0.03766651 0.03470472 0.03381367 0.03523476
 0.03955785 0.04736374 0.05792119 0.06805328 0.07338348 0.07178501 0.06541023 0.05873229 0.05483804 0.05394466
 0.0547328 0.05607514 0.05761334 0.05955187 0.06224416 0.06579131 0.07002154 0.07491993 0.0808427 0.08805925
 0.09619547 0.1043851 0.112013 0.1191972 0.1265008 0.1342496 0.1421895 0.1497404 0.1564613 0.1622701
 0.1673499 0.1719472 0.1762349 0.1802933 0.184158 0.1878228 0.1911625 0.1939001 0.1957394 0.1965889
 0.1966711 0.1964001 0.1961406 0.1960656 0.1961938 0.196497 0.1969531 0.1975456 0.198257 0.1990612
 0.1999156 0.2007766 0.201622 0.2024487 0.2032523 0.2040211 0.2047397 0.2053954 0.2059847 0.2065174
 0.2070083 0.2074703 0.2079142 0.2083444 0.208752 0.2091258 0.2094701 0.2097991 0.2101195 0.2104286
 0.2107245 0.2110074 0.2112783 0.2115389 0.2117905 0.2120316 0.2122639 0.2124966 0.2127402 0.2129976
 0.2132637 0.2135294 0.2137887 0.2140418 0.2142923 0.2145387 0.2147775 0.215013 0.2152523 0.2154935
 0.2157303 0.2159653 0.2162067 0.2164557 0.2167058 0.2169509 0.2171907 0.2174301 0.2176728 0.2179143
 0.2181508 0.2183931 0.2186561 0.2189334 0.2192036 0.21946 0.2197168 0.2199878 0.2202739 0.2205668
 0.2208487 0.2210967 0.2213048 0.2214974 0.2217146 0.2219812 0.2222853 0.2225888 0.2228657 0.2231232
 0.2233801 0.2236364 0.2238785 0.2241032 0.2243272 0.224579 0.2248767 0.2252083 0.2255435 0.225869
 0.2261915 0.2265088 0.2268115 0.2271081 0.2274089 0.2276913 0.2279202 0.228107 0.2283218 0.2286365
 0.2290559 0.2295051 0.2298967 0.2302089 0.230487 0.2307856 0.2311303 0.2314927 0.2317687 0.2318531
 0.2318007 0.2318484 0.2321976 0.2328159 0.2335014 0.2340884 0.2345457 0.2349237 0.2352653 0.2355605
 0.2357609 0.2358403 0.2358636 0.2359905 0.2363642 0.2369629 0.2376029 0.2381225 0.238507 0.2388175
 0.2390923 0.2393462 0.2395378 0.2395146 0.2391698 0.2387231 0.238665 0.2392832 0.2403395 0.2413267
 0.2419731 0.2423794 0.2427316 0.2430684 0.2433415 0.2434601 0.2431758 0.2422237 0.2408443 0.23993
 0.2402869 0.2418217 0.2436974 0.2451722 0.2460632 0.2465523 0.2468666 0.2471291 0.2472627 0.2469938
 0.2461605 0.2451221 0.2446651 0.2452781 0.2466047 0.2478287 0.2485076 0.2488034 0.2490407 0.2493418
 0.2495454 0.2491634 0.2476537 0.245221 0.2432246 0.2432239 0.2454532 0.2485413 0.2508731 0.2519767
 0.2523943 0.2524984 0.2519419 0.2502807 0.2476387 0.2446596 0.2423084 0.2417337 0.2435073 0.2466782
 0.2493123 0.2503976 0.2506974 0.2514792 0.2529976 0.254506 0.2552341 0.2549816 0.253985 0.2524957
 0.2506574 0.2489005 0.2481897 0.2493417 0.2520294 0.2548968 0.2568203 0.2577622 0.2581699 0.2576558
 0.2547379 0.2486165 0.2413964 0.2375056 0.2397817 0.2465014 0.2532369 0.2572094 0.2588042 0.2594964
 0.2598815 0.2595029 0.2571132 0.251367 0.242943 0.2358585 0.2347465 0.2402747 0.2483864 0.2540862
 0.2548476 0.2508726 0.244178 0.2380007 0.2354841 0.2377608 0.243452 0.2500389 0.2553822 0.2582901
 0.2584919 0.2565289 0.2537038 0.2517588 0.2516235 0.2520335 0.250476 0.2463623 0.2420138 0.239251
 0.2365762 0.2319539 0.2272805 0.2271103 0.2327303 0.2400089 0.2440348 0.2440826 0.2427276 0.2411677
 0.2371895 0.2283763 0.2166936 0.2085445 0.2091617 0.2172017 0.2259587 0.2299152 0.2291188 0.2272322
 0.2266302 0.2259908 0.2222033 0.2144321 0.2061336 0.2021494 0.2035643 0.2067128 0.2074986 0.2047034
 0.1985959 0.1895249 0.1801202 0.1761385 0.1815911 0.193791 0.2054854 0.2108757 0.2077682 0.1961902
 0.1789709 0.1632443 0.1570117 0.162042 0.1717616 0.1773345 0.174701 0.1652675 0.1520346 0.1374836
 0.1246615 0.1175674 0.1187122 0.1265279 0.1356678 0.1398284 0.1352128 0.1233158 0.110865 0.1050004
 0.10698 0.1114795 0.1126173 0.109269 0.1042173 0.1004148 0.09921443 0.1003377 0.102238 0.1034664
 0.1038048 0.1028204 0.09833952 0.089085 0.07835135 0.07188745 0.07189631 0.07584621 0.08109422 0.08725178
 0.09326611 0.09580924 0.09303355 0.08810203 0.08652471 0.09032496 0.09630533 0.09997046 0.0999819 0.09841582
 0.09749942 0.09718949 0.09631174 0.09519867 0.09579352 0.09893808 0.1028618 0.1051342 0.1051976 0.1041681
 0.1029707 0.1016481 0.09998763 0.09792754 0.09550803 0.0929174 0.09043737 0.08812515 0.0857728 0.08323725
 0.08044994 0.07701676 0.07232654 0.06651902 0.06106405 0.05767337 0.05656729 0.0565149 0.05662534 0.05693469
 0.05681341 0.05440699 0.0490891 0.04356713 0.04194972 0.04579949 0.05296503 0.06000198 0.06472101 0.06637002
 0.06472279 0.06048177 0.05651385 0.05695795 0.06380717 0.07498915 0.08665193 0.09649125 0.1039339 0.1083068
 0.1087244 0.105791 0.1022197 0.1013299 0.1050891 0.1131751 0.1229102 0.1297831 0.1296625 0.1230341
 0.117087 0.1204036 0.1337681 0.1486482 0.1567574 0.1585299 0.1596469 0.1622137 0.1637394 0.1635228
 0.1651711 0.1716241 0.1807439 0.1873648 0.1877963 0.1812707 0.1694373 0.1566727 0.1489461 0.1491366
 0.153921 0.1575129 0.1573512 0.1537938 0.146606 0.1362479 0.1275178 0.1267168 0.1342751 0.1437956
 0.1493329 0.1508126 0.1514073 0.1520745 0.1504802 0.1446239 0.1361607 0.1293638 0.1268793 0.1273926
 0.1278273 0.1266034 0.1237546 0.1191375 0.1124636 0.1049832 0.09952553 0.0981054 0.09997097 0.1024566
 0.103516 0.103105 0.1024281 0.1025158 0.10357 0.1051232 0.1067459 0.1089763 0.1132405 0.1201458
 0.1282054 0.1352305 0.140811 0.146419 0.1530708 0.159806 0.1647144 0.1669389 0.1675237 0.1685984
 0.1717094 0.1765558 0.1811679 0.1835747 0.1836778 0.1835154 0.1853694 0.1895472 0.1943021 0.1978147
 0.199695 0.2006029 0.2011774 0.2015484 0.2013171 0.1999268 0.1976399 0.1961205 0.1973013 0.20146
 0.2068855 0.2115204 0.2145227 0.2162245 0.217126 0.2173071 0.2166935 0.2155596 0.2145442 0.2141725
 0.2145085 0.2152933 0.2162555 0.2172239 0.2181027 0.2188748 0.2195844 0.220272 0.2209623 0.2217
 0.2225142 0.2233416 0.2240732 0.2247074 0.2253844 0.2262093 0.2270948 0.2278419 0.2283226 0.2284975
 0.2283018 0.2276488 0.2265576 0.2251612 0.2235492 0.2217077 0.2197099 0.2179254 0.2169132 0.2170164
 0.2180505 0.2194152 0.2205077 0.2210262 0.2209653 0.2204573 0.2196648 0.2187366 0.2177695 0.2167879
 0.2157797 0.2147496 0.2137305 0.2127505 0.211814 0.2109265 0.2101229 0.2094491 0.2089161 0.2084819
 0.2080842 0.207689 0.2073112 0.2069955 0.2067761 0.2066481 0.2065712 0.2064951 0.2063859 0.2062421
 0.206091 0.2059636 0.2058651 0.2057719 0.2056627 0.2055454 0.20543 0.2052812 0.205047 0.2047512
 0.2045147 0.2044461 0.2045404 0.2047075 0.204859 0.2049357 0.2048885 0.204684 0.2043221 0.2038243
 0.2032046 0.2024594 0.2015786 0.2005571 0.1993989 0.1981151 0.1967156 0.195202 0.1935652 0.1917891
 0.1898499 0.1877061 0.1852934 0.1825396 0.1793808 0.1757661 0.171677 0.1671705 0.1623941 0.1575381
 0.1527677 0.1481971 0.1439127 0.1400059 0.1365787 0.1337101 0.131424 0.1297043 0.1285331 0.1278975
 0.1277721 0.1281175 0.1288859 0.1300067 0.1313706 0.1328391 0.1342698 0.1355464 0.1366172 0.1375188
 0.1383491 0.1391998 0.1401082 0.1410624 0.1420336 0.1429925 0.1438984 0.1446932 0.1453203 0.1457427
 0.1459356 0.1458706 0.1455159 0.1448459 0.1438514 0.1425588 0.1410531 0.1394876 0.1380698 0.1370236
 0.1365324 0.1366965 0.1375246 0.1389481 0.1408309 0.1429823 0.1451882 0.1472599 0.1490837 0.1506481
 0.1520252 0.1533272 0.154684 0.1562379 0.1581152 0.1603777 0.1630028 0.1659003 0.1689363 0.1719515
 0.1747863 0.1773168 0.1794846 0.1812983 0.182799 0.184022 0.1849933 0.1857431 0.1863053 0.1867072
 0.1869737 0.1871333 0.1872135 0.1872378 0.1872246 0.1871848 0.1871261 0.1870674 0.1870373 0.1870504
 0.1870967 0.1871545 0.1872064 0.1872445 0.1872699 0.1872827 0.187269 0.1872053 0.1870761 0.1868849
 0.1866467 0.1863695 0.1860332 0.1855897 0.184996 0.1842412 0.1833335 0.1822747 0.1810657 0.1797305
 0.1783254 0.1769298 0.1756244 0.1744644 0.1734569 0.1725489 0.171628 0.1705592 0.1692614 0.1677595
 0.1661493 0.1645173 0.162903 0.1613151 0.1597584 0.1582452 0.1567929 0.1554102 0.1540892 0.1528156
 0.1515812 0.1503865 0.1492352 0.1481335 0.1470933 0.1461372 0.145297 0.1445957 0.1440281 0.1435664
 0.143181 0.1428499 0.1425596 0.1423097 0.1421069 0.1419425 0.1417798 0.1415731 0.1413005 0.1409747
 0.1406249 0.140272 0.1399268 0.1396055 0.1393187 0.1390354 0.1386731 0.1381338 0.1373403 0.1362509
 0.1348719 0.1332582 0.1314859 0.1296321 0.1277833 0.1260362 0.1244723 0.1231417 0.1220666 0.1212281
 0.1205572 0.1199754 0.1194562 0.1190378 0.1187709 0.1186468 0.1185668 0.1184012 0.1181026 0.1177545
 0.1175005 0.117442 0.1175909 0.117876 0.1181847 0.1184198 0.1185282 0.1184907 0.1183205 0.1180655
 0.1177714 0.1174481 0.1170937 0.1167233 0.1163445 0.1159377 0.1154797 0.1149581 0.1143596 0.1136784
 0.1129289 0.1121289 0.1112876 0.1104079 0.1094679 0.1084282 0.107321 0.1063136 0.1056296 0.1054015
 0.1056008 0.1060726 0.1066433 0.1072248 0.1077787 0.1081771 0.1082391 0.108018 0.1079492 0.1085365
 0.1098668 0.1115145 0.1129212 0.113791 0.1141176 0.1139823 0.1134527 0.1125926 0.1114242 0.1099114
 0.108062 0.1059765 0.1037544 0.1014612 0.09920947 0.0971465 0.09535851 0.09386474 0.092659 0.09177205
 0.09130864 0.09099801 0.08943932 0.08482451 0.07768765 0.07216503 0.07253481 0.0784217 0.08504233 0.08828197
 0.08800481 0.08640473 0.08502919 0.08415632 0.08375438 0.0839553 0.08484621 0.0862679 0.08784404 0.08919568
 0.09016611 0.0907878 0.09103841 0.09066167 0.08913486 0.085843 0.080569 0.07394502 0.0672568 0.06170613
 0.0578704 0.05568788 0.05469846 0.0543242 0.05416005 0.05414548 0.05448084 0.05537979 0.05689289 0.05892804
 0.06134887 0.06395692 0.06642818 0.06844422 0.06993135 0.07104754 0.07191119 0.07245903 0.07257648 0.07225573
 0.07160839 0.07079402 0.06994618 0.06912252 0.06829663 0.06740154 0.06642625 0.06550508 0.0648599 0.0645991
 0.06462332 0.06476336 0.06493397 0.06512523 0.06533466 0.06554781 0.06574471 0.06593715 0.06621288 0.06666905
 0.06727479 0.067871 0.06831784 0.06858959 0.06874546 0.06884216 0.06884708 0.06867326 0.06836682 0.06814671
 0.06810533 0.0679957 0.06753456 0.0668413 0.0663642 0.06639778 0.06682461 0.06730528 0.06758597 0.06762071
 0.06753597 0.06756163 0.06790073 0.06851842</values></Ydata></ScSm><ScRf><Ydata ylabel="Single channel"><values byteorder="INTEL" format="FLOAT32" numvalues="1820"> 0.06050024 0.06065014 0.06073876 0.0607693 0.06076602 0.06077342 0.06084015 0.06098623 0.06118301 0.06136879
 0.06149288 0.0615481 0.0615546 0.06152239 0.06145898 0.06141055 0.06145066 0.06160581 0.06181269 0.06196312
 0.06199123 0.06193106 0.06189501 0.06196534 0.06208254 0.06206506 0.06177889 0.06129193 0.06082939 0.06056484
 0.06051106 0.06065829 0.06109054 0.06176984 0.06228529 0.06214235 0.06137981 0.06061652 0.06036519 0.06053895
 0.06072499 0.0606657 0.06034907 0.05992363 0.05973834 0.06024367 0.06155125 0.06307259 0.06372975 0.06263442
 0.05972292 0.05596113 0.05298744 0.05223183 0.05390885 0.05673143 0.05887754 0.05944323 0.05887618 0.05805463
 0.05733842 0.0566821 0.05625255 0.05646696 0.05741934 0.05848821 0.05865854 0.05739451 0.05527796 0.05359251
 0.05314935 0.05377863 0.05502138 0.05662902 0.05786395 0.05709788 0.05341551 0.04864929 0.04656462 0.04927894
 0.05500001 0.05977871 0.06102274 0.05894908 0.05543601 0.05246525 0.05137209 0.05248616 0.05507947 0.05797306
 0.06024933 0.06128621 0.0605988 0.05826559 0.05534104 0.0533411 0.05331177 0.05542211 0.0589297 0.06224474
 0.06365029 0.06256971 0.05995093 0.05726624 0.05554567 0.05537514 0.05703256 0.06019814 0.0639426 0.06726834
 0.06951486 0.07042021 0.07017581 0.06930947 0.06828381 0.06741244 0.06713858 0.06776612 0.06873041 0.06881024
 0.06745942 0.06554201 0.06444478 0.06464408 0.06532715 0.06537974 0.0645126 0.06308049 0.06097953 0.05762347
 0.05328529 0.04945976 0.04736998 0.04703736 0.04817059 0.05063538 0.05339679 0.05445909 0.05304582 0.05099311
 0.0509244 0.05345243 0.0568627 0.05921178 0.06012782 0.06067937 0.06199443 0.06410436 0.06580039 0.06554855
 0.06301471 0.05991936 0.05882233 0.06060912 0.06363735 0.06575321 0.06656004 0.06717737 0.06828533 0.06907164
 0.06807788 0.06493241 0.06128381 0.0597823 0.06176971 0.06593652 0.06927231 0.06929037 0.06570075 0.06048226
 0.05634208 0.0548414 0.05597713 0.05921236 0.06407081 0.06958976 0.07407611 0.07605128 0.07531931 0.0728943
 0.06984478 0.06630464 0.06201011 0.05793177 0.05649045 0.05927284 0.06499722 0.07057627 0.07387283 0.07476941
 0.07396466 0.07165086 0.06772102 0.06306364 0.05998409 0.06040876 0.06356144 0.06640542 0.06682248 0.06554368
 0.0645854 0.06473933 0.06527946 0.06550989 0.06576515 0.06684452 0.06886677 0.07097042 0.07214136 0.07212965
 0.07149668 0.07096525 0.0707629 0.07045439 0.0695598 0.06851328 0.06861047 0.07058407 0.07359119 0.07607879
 0.07734157 0.07777713 0.07784191 0.07725064 0.07538605 0.07245333 0.06995615 0.06958267 0.07157375 0.07456875
 0.0770191 0.07830248 0.07858871 0.07828616 0.0777622 0.07722094 0.07675982 0.07661977 0.07712539 0.07821572
 0.07933908 0.08000215 0.08017328 0.08003633 0.07963794 0.0789572 0.07815823 0.07759643 0.07756276 0.07806265
 0.0788604 0.0796933 0.08036548 0.08069789 0.08058544 0.08014739 0.07966494 0.07932428 0.07914323 0.07914157
 0.07940112 0.07990585 0.08046421 0.08086697 0.08105091 0.08107297 0.0809949 0.08084086 0.08063424 0.08044235
 0.08037564 0.08051018 0.08079082 0.08106607 0.08126344 0.08146361 0.08173528 0.08197428 0.08201128 0.08183786
 0.08162604 0.08153781 0.08159243 0.08171186 0.08181313 0.08182013 0.08164974 0.0812846 0.08087376 0.08067635
 0.08085252 0.08134937 0.0819956 0.08262555 0.08310519 0.08335766 0.08341987 0.08340162 0.08335587 0.08324393
 0.08304009 0.08282283 0.08274603 0.0829256 0.08333902 0.08383335 0.08424222 0.08448639 0.08457956 0.08460286
 0.08467411 0.08485462 0.08506192 0.08514881 0.08508803 0.08501136 0.08504655 0.08517173 0.08525722 0.08522291
 0.08512972 0.08511397 0.08524312 0.085458 0.08565745 0.08581086 0.08596902 0.08617568 0.08638173 0.08646525
 0.08635996 0.08614864 0.08598392 0.08592919 0.08593819 0.08598115 0.08610234 0.08632252 0.08655587 0.08668339
 0.08668546 0.08665764 0.08669263 0.08677528 0.08680768 0.08672077 0.08654267 0.08636613 0.086273 0.08628697
 0.0863705 0.08645178 0.08646882 0.08640742 0.08630171 0.0861952 0.08610754 0.08604981 0.08606178 0.08619623
 0.0864394 0.08666664 0.08672 0.08654998 0.08627007 0.0860567 0.08599155 0.08600329 0.08595664 0.08578499
 0.08553217 0.0852868 0.0851014 0.08497263 0.08487228 0.08478445 0.08472743 0.08474825 0.08487388 0.085048
 0.08513866 0.08504611 0.08480024 0.08452739 0.08433338 0.08424205 0.0842207 0.08422361 0.08422539 0.08424403
 0.08431213 0.08440654 0.08444591 0.08438556 0.08427821 0.08422045 0.08427468 0.08444513 0.08467235 0.08484149
 0.08485986 0.08475275 0.0846429 0.08462239 0.08468032 0.08475884 0.0848318 0.08490745 0.08499075 0.08507931
 0.08518818 0.08535114 0.08558678 0.08586826 0.08613079 0.08631424 0.08641186 0.08648537 0.08662313 0.08687047
 0.08719604 0.08752289 0.08778949 0.08798794 0.08815423 0.08832481 0.08850802 0.08870345 0.08893283 0.08922251
 0.08955951 0.08989574 0.09019932 0.09047887 0.09075609 0.09103768 0.0913212 0.09161817 0.09196146 0.09237576
 0.09282817 0.0932249 0.09348637 0.09362599 0.09374176 0.09393915 0.09426193 0.09466091 0.0950115 0.09520656
 0.09526902 0.09534135 0.09553105 0.09580009 0.09604724 0.09626453 0.09654968 0.09696601 0.09744407 0.09784478
 0.098096 0.09824772 0.09840091 0.09859689 0.09878556 0.09890335 0.09896311 0.09903935 0.09917434 0.09934781
 0.09955142 0.09983312 0.1002248 0.1006659 0.1010495 0.1013229 0.1015079 0.1016451 0.1017595 0.1018575
 0.1019285 0.1019635 0.1019884 0.10205 0.1021502 0.1022342 0.1022664 0.1022838 0.1023512 0.1024941
 0.1027041 0.1029748 0.1032897 0.1036007 0.1038697 0.1041314 0.104459 0.1048477 0.105181 0.1053537
 0.1053909 0.1053992 0.1054336 0.1054786 0.1055409 0.1056805 0.1059333 0.1062621 0.1066076 0.1069503
 0.1073012 0.1076555 0.1079751 0.1082081 0.1083221 0.1083297 0.1082913 0.1082905 0.1083949 0.1086241
 0.1089391 0.1092686 0.1095529 0.1097598 0.1098658 0.1098606 0.1097918 0.1097702 0.10988 0.1100822
 0.1102372 0.1102248 0.1100171 0.1096442 0.1091324 0.108502 0.1078052 0.1071333 0.1065771 0.1061859
 0.1059706 0.1059452 0.106147 0.1065936 0.1072259 0.1079214 0.1085679 0.1090935 0.1094234 0.1094606
 0.1091529 0.1085585 0.107815 0.1070543 0.1063569 0.1057449 0.1051851 0.1046315 0.1041135 0.103781
 0.1038311 0.104386 0.1054306 0.1068284 0.1083672 0.1098228 0.1110444 0.1120116 0.1128075 0.1135264
 0.1142114 0.1148728 0.1155281 0.1161888 0.1168251 0.1173844 0.1178518 0.1182648 0.1186642 0.1190538
 0.1194094 0.119707 0.1199442 0.1201484 0.1203492 0.1205292 0.1206263 0.1206038 0.1204976 0.1203722
 0.1202477 0.1200865 0.1198358 0.1194711 0.1190279 0.1186216 0.118434 0.11864 0.1193087 0.120359
 0.1216196 0.1229365 0.1242165 0.1253822 0.1263384 0.1270211 0.1274592 0.127755 0.1280107 0.1282831
 0.1285858 0.1289065 0.1292221 0.1295155 0.129789 0.130063 0.130365 0.130706 0.1310594 0.1313751
 0.1316279 0.1318523 0.1321171 0.1324614 0.1328555 0.133231 0.133553 0.1338521 0.1341683 0.134483
 0.1347383 0.1349182 0.1350743 0.1352722 0.135544 0.1358858 0.136261 0.136604 0.1368615 0.137042
 0.1372036 0.1373932 0.1376148 0.1378517 0.1380922 0.1383316 0.1385694 0.1388178 0.139099 0.1394176
 0.1397349 0.1399892 0.1401543 0.1402704 0.1404077 0.1406026 0.1408356 0.1410665 0.1412808 0.141503
 0.1417681 0.1420775 0.1423868 0.1426396 0.1428158 0.1429435 0.1430691 0.1432232 0.1434095 0.1436166
 0.1438297 0.1440381 0.1442391 0.1444408 0.1446529 0.1448726 0.1450862 0.1452865 0.1454829 0.1456891
 0.145907 0.1461288 0.1463538 0.1465964 0.146872 0.1471723 0.1474601 0.1476961 0.1478685 0.1479962
 0.1481091 0.1482331 0.1483828 0.1485607 0.1487605 0.1489725 0.1491872 0.1493959 0.1495952 0.1497897
 0.1499856 0.1501861 0.1503921 0.1506042 0.1508233 0.1510506 0.1512843 0.1515166 0.1517366 0.1519414
 0.1521381 0.1523364 0.1525397 0.1527426 0.1529357 0.1531134 0.1532817 0.1534532 0.1536353 0.1538266
 0.1540242 0.1542283 0.1544377 0.1546448 0.1548395 0.1550198 0.1551966 0.155384 0.1555842 0.155788
 0.1559875 0.1561835 0.1563815 0.1565852 0.156793 0.1569977 0.1571936 0.1573864 0.1575866 0.1577954
 0.1580028 0.1582003 0.1583889 0.1585747 0.1587634 0.1589574 0.1591568 0.1593598 0.1595615 0.159757
 0.1599483 0.1601457 0.1603562 0.1605743 0.1607907 0.1610032 0.1612133 0.1614183 0.1616163 0.161814
 0.1620217 0.1622434 0.1624731 0.1627002 0.1629191 0.1631326 0.1633445 0.1635532 0.1637548 0.1639479
 0.1641312 0.1643054 0.1644755 0.1646466 0.1648193 0.1649937 0.1651731 0.1653585 0.1655478 0.1657415
 0.1659421 0.1661493 0.1663602 0.1665724 0.1667836 0.1669922 0.1671998 0.1674078 0.1676115 0.1678053
 0.1679906 0.1681758 0.1683717 0.1685828 0.1688007 0.1690101 0.1692059 0.1693967 0.1695925 0.1697988
 0.1700182 0.170247 0.1704751 0.1706957 0.1709084 0.1711119 0.1713066 0.1715013 0.1717056 0.1719181
 0.1721313 0.1723413 0.1725494 0.1727614 0.1729824 0.1732072 0.1734238 0.1736296 0.1738316 0.1740353
 0.1742447 0.1744656 0.1746932 0.174913 0.1751202 0.1753231 0.1755256 0.1757258 0.1759273 0.1761359
 0.176353 0.1765773 0.1767998 0.176995 0.1771186 0.1770681 0.1765773 0.1751096 0.1718455 0.1658445
 0.1564151 0.1435449 0.1280544 0.1113109 0.09472798 0.07939555 0.06596595 0.05473083 0.04575892 0.03898669
 0.03427731 0.03151444 0.03069779 0.03204436 0.03610372 0.04343227 0.05335986 0.06290406 0.06793711 0.06644566
 0.06045395 0.05417693 0.05052021 0.04968376 0.05042543 0.05169012 0.05314717 0.05499189 0.05755426 0.0609202
 0.06491753 0.06953074 0.07510385 0.08189856 0.08956368 0.09728301 0.1044799 0.1112667 0.1181677 0.1254819
 0.1329671 0.1400816 0.1464151 0.1518913 0.1566807 0.1610145 0.1650549 0.1688787 0.1725229 0.1759826
 0.1791317 0.1816966 0.1833943 0.1841496 0.1841852 0.1838955 0.1836221 0.1835275 0.1836321 0.1839072
 0.1843236 0.1848595 0.1855027 0.1862377 0.1870309 0.1878424 0.1886473 0.1894327 0.1901838 0.190889
 0.1915474 0.192161 0.1927285 0.1932465 0.1937112 0.1941237 0.1944979 0.1948547 0.1952054 0.1955495
 0.195884 0.1962067 0.1965123 0.196796 0.1970551 0.1972874 0.1974948 0.197689 0.1978848 0.1980904
 0.1983083 0.1985376 0.1987703 0.1989937 0.1992024 0.1994022 0.1996031 0.1998096 0.2000184 0.2002201
 0.200407 0.2005805 0.2007506 0.2009289 0.2011216 0.2013262 0.2015322 0.2017311 0.2019254 0.2021226
 0.2023249 0.2025283 0.2027255 0.2029096 0.2030828 0.2032632 0.203469 0.2036972 0.2039284 0.2041511
 0.2043673 0.2045816 0.2047965 0.205014 0.2052274 0.2054198 0.2055809 0.2057244 0.2058817 0.2060787
 0.2063119 0.2065519 0.2067719 0.2069711 0.2071645 0.20736 0.2075515 0.2077295 0.2078945 0.2080682
 0.2082802 0.2085351 0.2088046 0.209061 0.2093002 0.2095272 0.2097472 0.2099712 0.2102005 0.210405
 0.2105495 0.2106513 0.2107897 0.2110431 0.2114138 0.2118178 0.2121608 0.2124194 0.2126381 0.2128681
 0.2131326 0.2134077 0.2136031 0.2136255 0.2135258 0.2135217 0.213798 0.2143215 0.2148996 0.2153766
 0.2157268 0.2160057 0.2162642 0.2164997 0.2166601 0.2167034 0.2166763 0.2167279 0.2169998 0.2174786
 0.2179983 0.218412 0.2187083 0.2189441 0.2191525 0.2193422 0.2194696 0.2193912 0.2190088 0.2185281
 0.2184066 0.2189158 0.219842 0.22072 0.2212944 0.2216476 0.2219447 0.2222261 0.2224535 0.2225394
 0.222243 0.2213148 0.2199868 0.2191006 0.2194112 0.2208266 0.2225543 0.223892 0.2246692 0.2250671
 0.2253095 0.2255143 0.2256062 0.2253275 0.2245288 0.2235485 0.2231244 0.2237142 0.22498 0.2261458
 0.2267869 0.2270534 0.2272571 0.2275218 0.2277024 0.2273467 0.2259533 0.2237126 0.2218781 0.2218809
 0.2239286 0.2267579 0.2288913 0.2299059 0.2303055 0.2304254 0.2299332 0.2284164 0.2259974 0.2232774
 0.2211443 0.2206468 0.2223017 0.2252277 0.2276457 0.2286318 0.228899 0.2296257 0.231053 0.2324853
 0.2331952 0.2329918 0.2321026 0.2307687 0.2291228 0.2275597 0.2269647 0.2280845 0.2306171 0.2333197
 0.2351579 0.2360892 0.2365205 0.2360948 0.2334494 0.2278517 0.2212444 0.2177074 0.2198586 0.226121
 0.2324185 0.2361822 0.2377578 0.2384993 0.2389494 0.238686 0.2365629 0.2313355 0.2236243 0.2171524
 0.2162243 0.2214593 0.2290895 0.2344835 0.235301 0.2317246 0.2256229 0.2200027 0.2177862 0.2200376
 0.2254955 0.2318187 0.2369929 0.2398868 0.2402406 0.2385556 0.2360578 0.2343997 0.2344577 0.2350285
 0.2337497 0.2300876 0.2262328 0.223887 0.2216306 0.2175439 0.2134251 0.2135962 0.219287 0.226576
 0.2307973 0.2312669 0.2304275 0.2293924 0.2260282 0.2180181 0.2072528 0.1999099 0.2010566 0.2093892
 0.2183972 0.2227404 0.22249 0.2212122 0.2212149 0.2212003 0.2180981 0.2110756 0.203582 0.2004521
 0.2027572 0.2068443 0.2086595 0.2069778 0.2019733 0.1939263 0.1855723 0.1829422 0.1902739 0.2048261
 0.2190275 0.2267106 0.2253603 0.2147526 0.1978505 0.1826426 0.1782545 0.186761 0.2006575 0.2097665
 0.2093146 0.2007734 0.1875115 0.1725055 0.1597334 0.1545965 0.1606859 0.1761428 0.1936711 0.2041369
 0.2016114 0.1880138 0.1735802 0.1695002 0.1776954 0.1894606 0.1952084 0.1931726 0.18804 0.1849339
 0.1864714 0.1922818 0.199393 0.2050299 0.2088288 0.2096757 0.2027183 0.1851928 0.1641286 0.1517136
 0.1526361 0.1616817 0.1734914 0.187379 0.2009776 0.2069177 0.2011396 0.1905816 0.1872768 0.1955726
 0.2084055 0.2159473 0.2153356 0.2111956 0.2084943 0.2072539 0.205033 0.2026484 0.2043641 0.2120122
 0.2217871 0.2284891 0.2309257 0.2314393 0.2319358 0.232438 0.2324266 0.2317152 0.2303713 0.228841
 0.2278156 0.2274561 0.2272414 0.2267542 0.2256586 0.2225026 0.2150392 0.2033886 0.1920393 0.1862951
 0.1866564 0.1891987 0.1914121 0.1936508 0.1936646 0.1850872 0.1658368 0.1449889 0.1361655 0.1443758
 0.1622921 0.1786031 0.1866775 0.1851307 0.1744442 0.1571673 0.140617 0.1345925 0.1433885 0.1616744
 0.1801898 0.1937229 0.2017124 0.2038298 0.1989968 0.1885323 0.177414 0.1714294 0.1736482 0.1830781
 0.195005 0.2022071 0.1984819 0.1848084 0.1720694 0.1730281 0.188945 0.2074888 0.2165959 0.2166833
 0.2157803 0.217049 0.2172064 0.215267 0.2160616 0.2236058 0.2351854 0.2440264 0.2452406 0.2377557
 0.2236951 0.2088692 0.2012538 0.2045573 0.2139419 0.2212359 0.2228099 0.2190771 0.2096793 0.1955408
 0.1839879 0.1843285 0.1970704 0.2127194 0.2225665 0.226613 0.2296088 0.2328781 0.2327216 0.2260314
 0.215492 0.2079319 0.2075814 0.2123783 0.2174673 0.2203173 0.2207618 0.2181096 0.2115737 0.2035621
 0.1997007 0.2039409 0.2144435 0.2252697 0.231672 0.2330537 0.2315681 0.2293236 0.2269747 0.223895
 0.2195765 0.2154534 0.2146297 0.2185678 0.2247621 0.2293171 0.231411 0.2335653 0.2376822 0.2424267
 0.2448525 0.2436124 0.2402348 0.2377883 0.2384182 0.2416429 0.2447155 0.2449737 0.2423747 0.239769
 0.2402717 0.2442918 0.24949 0.2534422 0.2556112 0.2568325 0.257886 0.258814 0.2588853 0.2571427
 0.2537521 0.2507868 0.2507546 0.2541088 0.2588227 0.262495 0.2642974 0.2648159 0.2647119 0.2640333
 0.2626326 0.2608073 0.25929 0.2586645 0.2589507 0.2597688 0.2607275 0.2615879 0.2622354 0.26266
 0.2629254 0.2630907 0.2631866 0.2632588 0.2633465 0.263405 0.2633523 0.2632287 0.2632148 0.2634261
 0.2637589 0.264002 0.2640314 0.2638113 0.263276 0.2623488 0.2610773 0.2596264 0.2580943 0.2564462
 0.254733 0.2533419 0.25289 0.2537646 0.2557597 0.258195 0.2603819 0.2619704 0.2629468 0.2634547
 0.2636685 0.2637415 0.2637619 0.2637345 0.2636229 0.2634094 0.2631108 0.2627528 0.2623557 0.2619478
 0.2615734 0.2612655 0.2610114 0.2607556 0.2604378 0.2600286 0.2595384 0.2590045 0.2584609 0.2579013
 0.2572751 0.2565279 0.2556484 0.2546811 0.2537067 0.2528034 0.2519988 0.251251 0.2504919 0.2496824
 0.2488057 0.2478257 0.2467145 0.2455339 0.2444373 0.2435479 0.2428536 0.2422389 0.2415902 0.2408459
 0.2399853 0.2390179 0.2379794 0.236907 0.2358145 0.234695 0.2335296 0.232289 0.2309489 0.2295118
 0.2279988 0.2264262 0.2248059 0.2231551 0.2214701 0.2196903 0.2177025 0.215378 0.2125963 0.2092614
 0.205338 0.2008907 0.1960844 0.1911368 0.1862567 0.1816063 0.1773012 0.1734287 0.170066 0.167292
 0.1651821 0.163783 0.1630972 0.163104 0.1637876 0.1651289 0.1670724 0.1695127 0.1723105 0.1753067
 0.1783223 0.1811782 0.18376 0.1860837 0.1882665 0.1903984 0.1924518 0.1943323 0.1959817 0.1973998
 0.1986001 0.1995937 0.200409 0.2010897 0.2016714 0.2021741 0.2026129 0.2030031 0.2033516 0.2036513
 0.20389 0.2040712 0.2042225 0.2043804 0.2045687 0.2047919 0.205045 0.2053334 0.2056842 0.2061257
 0.2066517 0.2072209 0.2077975 0.2083782 0.208978 0.2096127 0.2103063 0.2111007 0.2120408 0.2131461
 0.2143951 0.215738 0.2171173 0.2184687 0.2197089 0.2207487 0.2215296 0.2220439 0.2223203 0.2224003
 0.2223241 0.2221237 0.221823 0.2214397 0.2209825 0.2204515 0.2198512 0.2192009 0.2185237 0.2178286
 0.2171164 0.2163989 0.2156999 0.2150339 0.2143918 0.2137543 0.2131181 0.2124972 0.2118978 0.2113064
 0.2107098 0.210116 0.209542 0.2089888 0.2084371 0.2078591 0.2072225 0.2064938 0.2056531 0.2047068
 0.2036766 0.2025747 0.2013956 0.2001287 0.1987699 0.1973259 0.1958122 0.1942427 0.1926149 0.190908
 0.189098 0.1871759 0.1851626 0.1831193 0.1811356 0.1792873 0.1775963 0.1760299 0.1745382 0.1730969
 0.1717181 0.1704238 0.1692153 0.1680735 0.1669817 0.1659337 0.1649292 0.1639725 0.1630758 0.1622564
 0.161531 0.1609043 0.1603594 0.1598724 0.1594416 0.1590899 0.1588376 0.1586918 0.1586503 0.1586903
 0.1587545 0.1587766 0.1587224 0.1586026 0.1584551 0.1583196 0.1582209 0.1581635 0.1581302 0.1580761
 0.1579308 0.1576187 0.1570716 0.1562274 0.1550485 0.1535516 0.1518114 0.1499432 0.1480918 0.1464002
 0.1449611 0.1438057 0.1429291 0.1422891 0.1417982 0.1413744 0.1410109 0.1407782 0.1407579 0.1409554
 0.1412513 0.1414685 0.1415333 0.1415516 0.1417046 0.1421006 0.1427271 0.1434825 0.1442351 0.1448877
 0.1453992 0.1457559 0.1459648 0.146069 0.1461126 0.1460963 0.1460042 0.1458418 0.1456187 0.1453328
 0.1449869 0.1445794 0.1440901 0.1435063 0.1428353 0.1420791 0.1412421 0.1403448 0.1393742 0.1382752
 0.1370749 0.1359723 0.1352378 0.1350518 0.1354259 0.1362083 0.1371859 0.1382299 0.1392696 0.1401163
 0.1405217 0.1405549 0.1407793 0.1418435 0.1438704 0.1463233 0.1484735 0.1499211 0.1506535 0.1507741
 0.1503522 0.1494418 0.1480478 0.1461181 0.1436834 0.1409059 0.1379341 0.1348697 0.1318884 0.1292031
 0.1269266 0.1250851 0.1236743 0.1227216 0.1223464 0.1221781 0.1203252 0.114354 0.1050354 0.09802608
 0.09911064 0.107709 0.1172893 0.1222736 0.1224762 0.1208352 0.1193858 0.1184358 0.1178912 0.1179122
 0.1186248 0.1198588 0.1212079 0.1222826 0.1229415 0.1232386 0.123137 0.1222747 0.1199091 0.1151766
 0.1077798 0.09858574 0.08934215 0.08166701 0.07630879 0.07314713 0.07155362 0.07076432 0.07024807 0.06995204
 0.07019378 0.0712783 0.07323717 0.07590677 0.0791011 0.08257081 0.08590014 0.08868247 0.09083064 0.09255235
 0.09399744 0.09507184 0.09561539 0.0956242 0.0952503 0.09467015 0.09399877 0.09326538 0.09240432 0.09130843
 0.08999453 0.08871959 0.08782148 0.08741322 0.08732258 0.08732677 0.08732677 0.08730352 0.0872488 0.08717201
 0.08710288 0.08709037 0.08721926 0.08755867 0.08805688 0.08854325 0.08886265 0.08898935 0.08901234 0.08898962
 0.08880325 0.08826755 0.08745698 0.08674039 0.08630167 0.08580919 0.08483671 0.08350793 0.08244105 0.08207792
 0.08228739 0.08262113 0.08275039 0.08261727 0.08237027 0.08228369 0.08258852 0.08319853 0.0836809 0.08366384
</values></Ydata></ScRf><Data_Parameters_AB><parameter name="DPF">1</parameter><parameter name="NPT">3497</parameter><parameter name="FXV">3996</parameter><parameter name="LXV">500</parameter><parameter name="CSF">1</parameter><parameter name="MXY">0.532598614692688</parameter><parameter name="MNY">-0.0773307085037231</parameter><parameter name="DAT">02/06/2022</parameter><parameter name="TIM">11:21:20.477 (GMT+2)</parameter><parameter name="DXU">WN</parameter></Data_Parameters_AB><AB__Qtest><MainReport name="Quality Test Report"><Header><Line><Legend>Test result ok/not ok [1/0]: </Legend><Value>0</Value></Line><Line><Legend>Method file: </Legend><Value>C:\Users\Public\Documents\Bruker\OPUS_8.2.28\QT\IRBT_v3_default.QT</Value></Line></Header><Matrix><Line><Legend></Legend><Legend>min</Legend><Legend>max</Legend><Legend>measured</Legend></Line><Line><Value>Absorption (X-Range 1):</Value><Value>0.400000</Value><Value>2.000000</Value><Value>0.409680</Value></Line><Line><Value>Noise (X-Range 4):</Value><Value></Value><Value>0.000300</Value><Value>0.000054</Value></Line><Line><Value>Signal/Noise (X-Range 2):</Value><Value>200.000000</Value><Value></Value><Value>130.206883</Value></Line><Line><Value>Signal/Noise (X-Range 3):</Value><Value>40.000000</Value><Value></Value><Value>99.781958</Value></Line><Line><Value>Water vapour (X-Range 5):</Value><Value></Value><Value>0.000300</Value><Value>0.000074</Value></Line><Line><Value>Signal/Water (X-Range 2):</Value><Value>100.000000</Value><Value></Value><Value>95.463265</Value></Line><Line><Value>Signal/Water (X-Range 3):</Value><Value>20.000000</Value><Value></Value><Value>73.156743</Value></Line><Line><Value>Fringes (X-Range 6):</Value><Value></Value><Value>0.000100</Value><Value>0.000083</Value></Line></Matrix></MainReport></AB__Qtest><Data_Parameters_ScSm><parameter name="DPF">1</parameter><parameter name="NPT">1814</parameter><parameter name="FXV">3996.33169228125</parameter><parameter name="LXV">499.541461535156</parameter><parameter name="CSF">1</parameter><parameter name="MXY">0.259881496429443</parameter><parameter name="MNY">0.0338136740028858</parameter><parameter name="DAT">02/06/2022</parameter><parameter name="TIM">11:21:20.477 (GMT+2)</parameter><parameter name="DXU">WN</parameter></Data_Parameters_ScSm><Data_Parameters_ScRf><parameter name="DPF">1</parameter><parameter name="NPT">1820</parameter><parameter name="FXV">4004.04661832813</parameter><parameter name="LXV">495.683998511719</parameter><parameter name="CSF">1</parameter><parameter name="MXY">0.264815896749496</parameter><parameter name="MNY">0.0306977927684784</parameter><parameter name="DAT">02/06/2022</parameter><parameter name="TIM">11:20:54.627 (GMT+2)</parameter><parameter name="DXU">WN</parameter></Data_Parameters_ScRf><Optic_Parameters_Rf><parameter name="APR">0</parameter><parameter name="APT">Open</parameter><parameter name="BMS">KBr</parameter><parameter name="DTC">RT-DLaTGS_IR-Biotyper [Microplate reader]</parameter><parameter name="HPF">0</parameter><parameter name="LPF">10.0</parameter><parameter name="LPV">4000</parameter><parameter name="PGR">0</parameter><parameter name="RCH">Module port</parameter><parameter name="RDX">0</parameter><parameter name="SRC">MIR</parameter><parameter name="VEL">10.0</parameter><parameter name="SON">Off</parameter></Optic_Parameters_Rf><Acquisition_Parameters_Rf><parameter name="ADT">1</parameter><parameter name="AQM">DD</parameter><parameter name="CFE">0</parameter><parameter name="COR">0</parameter><parameter name="DEL">0</parameter><parameter name="DLY">0</parameter><parameter name="HFW">8000</parameter><parameter name="LFW">0</parameter><parameter name="NSR">32</parameter><parameter name="PLF">AB</parameter><parameter name="RES">6</parameter><parameter name="RGN">-1</parameter><parameter name="STR">0</parameter><parameter name="TCL">MakeCompatibleScalar (0, {WSV=1.000000, ARV=0});</parameter><parameter name="TDL">37</parameter><parameter name="RPO">0</parameter></Acquisition_Parameters_Rf><FT_-_Parameters_Rf><parameter name="APF">B3</parameter><parameter name="HFQ">500</parameter><parameter name="LFQ">4000</parameter><parameter name="NLI">0</parameter><parameter name="PHR">24</parameter><parameter name="PHZ">ML</parameter><parameter name="SPZ">NO</parameter><parameter name="ZFF">1</parameter></FT_-_Parameters_Rf><Optic_Parameters_><parameter name="APR">0</parameter><parameter name="APT">Open</parameter><parameter name="BMS">KBr</parameter><parameter name="CHN">Module port</parameter><parameter name="DTC">RT-DLaTGS_IR-Biotyper [Microplate reader]</parameter><parameter name="HPF">0</parameter><parameter name="LPF">10.0</parameter><parameter name="LPV">4000</parameter><parameter name="PGN">0</parameter><parameter name="RDX">0</parameter><parameter name="SRC">MIR</parameter><parameter name="VEL">10.0</parameter><parameter name="SON">Off</parameter></Optic_Parameters_><FT_-_Parameters_><parameter name="APF">B3</parameter><parameter name="HFQ">500</parameter><parameter name="LFQ">4000</parameter><parameter name="NLI">0</parameter><parameter name="PHR">24</parameter><parameter name="PHZ">ML</parameter><parameter name="SPZ">NO</parameter><parameter name="ZFF">1</parameter></FT_-_Parameters_><Acquisition_Parameters_><parameter name="ADT">1</parameter><parameter name="AQM">DD</parameter><parameter name="CFE">0</parameter><parameter name="COR">0</parameter><parameter name="DEL">0</parameter><parameter name="DLY">0</parameter><parameter name="HFW">8000</parameter><parameter name="LFW">0</parameter><parameter name="NSS">32</parameter><parameter name="PLF">AB</parameter><parameter name="RES">6</parameter><parameter name="SOT">0</parameter><parameter name="TCL">MakeCompatibleScalar (0, {WSV=1.000000, ARV=0});</parameter><parameter name="TDL">37</parameter><parameter name="SPO">0</parameter><parameter name="SGN">-1</parameter></Acquisition_Parameters_><Instrument_Parameters_Rf><parameter name="HFL">15800.168544</parameter><parameter name="LFL">0</parameter><parameter name="LWN">15800.168544</parameter><parameter name="ABP">32197</parameter><parameter name="SSP">1</parameter><parameter name="ARG">2</parameter><parameter name="ASG">2</parameter><parameter name="ASS">32</parameter><parameter name="GFW">16</parameter><parameter name="GBW">16</parameter><parameter name="BFW">0</parameter><parameter name="BBW">0</parameter><parameter name="PKA">7271</parameter><parameter name="PKL">4996</parameter><parameter name="PRA">7446</parameter><parameter name="PRL">5001</parameter><parameter name="P2A">1</parameter><parameter name="P2L">1</parameter><parameter name="P2R">1</parameter><parameter name="P2K">1</parameter><parameter name="DAQ">0</parameter><parameter name="AG2">1</parameter><parameter name="SSM">1</parameter><parameter name="RSN">26035</parameter><parameter name="CRR">0</parameter><parameter name="SRT">1654168854.627</parameter><parameter name="DUR">19.6369934082031</parameter><parameter name="TSC">28.1</parameter><parameter name="MVD">0.227052077651024</parameter><parameter name="AN1">0.225805975154484</parameter><parameter name="AN2">0</parameter><parameter name="VSN">2.485 Apr  4 2017</parameter><parameter name="SRN">0085</parameter><parameter name="CAM">0</parameter><parameter name="INS">IR-Biotyper</parameter><parameter name="FOC">69</parameter><parameter name="RDY">1</parameter><parameter name="ARS">32</parameter></Instrument_Parameters_Rf><Sample_Parameters_><parameter name="BLD"></parameter><parameter name="CNM">Admin</parameter><parameter name="CPY"></parameter><parameter name="DPM"></parameter><parameter name="EXP">IRBT_v3_32Scans.XPM</parameter><parameter name="LCT"></parameter><parameter name="SFM">Microplate, HTS-XT</parameter><parameter name="SNM">220602-1054_JMJ44M (D_7)_C2_7af677dc-3337-4e0b-a73e-0a0143ba2b2c.0</parameter><parameter name="XPP">C:\Users\Public\Documents\Bruker\OPUS_8.2.28\XPM</parameter><parameter name="IST">OK</parameter><parameter name="CPG">1252</parameter><parameter name="UID">8d74c0ac-b88b-445b-8927-c5c777959068</parameter></Sample_Parameters_><Instrument_Parameters_><parameter name="HFL">15800.168544</parameter><parameter name="LFL">0</parameter><parameter name="LWN">15800.168544</parameter><parameter name="ABP">32197</parameter><parameter name="SSP">1</parameter><parameter name="ASG">2</parameter><parameter name="ARG">2</parameter><parameter name="ASS">32</parameter><parameter name="GFW">16</parameter><parameter name="GBW">16</parameter><parameter name="BFW">0</parameter><parameter name="BBW">0</parameter><parameter name="PKA">6423</parameter><parameter name="PKL">4988</parameter><parameter name="PRA">6669</parameter><parameter name="PRL">4993</parameter><parameter name="P2A">1</parameter><parameter name="P2L">1</parameter><parameter name="P2R">1</parameter><parameter name="P2K">1</parameter><parameter name="DAQ">0</parameter><parameter name="AG2">1</parameter><parameter name="SSM">1</parameter><parameter name="RSN">13643</parameter><parameter name="CRR">0</parameter><parameter name="SRT">1654168880.478</parameter><parameter name="DUR">19.6379852294922</parameter><parameter name="TSC">28.1</parameter><parameter name="MVD">0.215528532862663</parameter><parameter name="AN1">0.225832361472136</parameter><parameter name="AN2">0</parameter><parameter name="VSN">2.485 Apr  4 2017</parameter><parameter name="SRN">0085</parameter><parameter name="CAM">0</parameter><parameter name="INS">IR-Biotyper</parameter><parameter name="FOC">69</parameter><parameter name="RDY">1</parameter></Instrument_Parameters_><History/></OPUSDataFile>
