<?xml version="1.0" encoding="UTF-8" ?>
<OPUSDataFile><AB><Ydata ylabel="Absorbance Units"><values byteorder="INTEL" format="FLOAT32" numvalues="3497"> -0.06001357 -0.05998173 -0.05995033 -0.05992033 -0.05987737 -0.05982073 -0.0597408 -0.05963893 -0.05952855 -0.05941374
 -0.05932587 -0.05926559 -0.05925454 -0.05928468 -0.05935 -0.05943827 -0.05952642 -0.0596089 -0.05966878 -0.05971077
 -0.05973238 -0.05974144 -0.05974216 -0.05973706 -0.05972857 -0.05971459 -0.05969446 -0.05966941 -0.05963853 -0.05961119
 -0.0595879 -0.0595804 -0.05958937 -0.05961618 -0.05965992 -0.05970872 -0.05976159 -0.05980613 -0.05984369 -0.05987261
 -0.05989446 -0.0599129 -0.0599267 -0.05993542 -0.05993797 -0.05993164 -0.05991984 -0.05990418 -0.05988799 -0.05987515
 -0.05986098 -0.0598456 -0.05982053 -0.05978261 -0.05973239 -0.05966835 -0.05960147 -0.05953258 -0.05947112 -0.05941765
 -0.05937301 -0.05933703 -0.05930742 -0.05928437 -0.05926794 -0.05925845 -0.05925728 -0.05926425 -0.0592799 -0.0593031
 -0.05933297 -0.05936645 -0.05940061 -0.05943065 -0.05945169 -0.05946145 -0.05945594 -0.05944018 -0.0594142 -0.05938645
 -0.05935917 -0.05933698 -0.05932074 -0.05931407 -0.0593169 -0.05933892 -0.05938068 -0.05945439 -0.05955959 -0.05969505
 -0.05985539 -0.0600092 -0.06014806 -0.06022064 -0.0602318 -0.06016088 -0.06003281 -0.05987889 -0.05972081 -0.05959899
 -0.05951468 -0.05948626 -0.05949472 -0.05953797 -0.0595874 -0.05963095 -0.05965436 -0.05964884 -0.05962526 -0.0595829
 -0.05954137 -0.0595028 -0.05947697 -0.0594646 -0.05946412 -0.05947544 -0.05949657 -0.05952815 -0.05957367 -0.05963287
 -0.05970831 -0.05979559 -0.05988698 -0.05997448 -0.06004036 -0.06008197 -0.06008656 -0.06006264 -0.06001217 -0.05994489
 -0.05986654 -0.05978375 -0.05969777 -0.05962309 -0.05956141 -0.05953469 -0.05954726 -0.05961118 -0.05973089 -0.05987875
 -0.06005398 -0.0601576 -0.06018665 -0.06007025 -0.05982657 -0.05954005 -0.05922464 -0.05898099 -0.05880099 -0.05871522
 -0.05871009 -0.05878009 -0.05890419 -0.05906013 -0.05921902 -0.05934943 -0.05943643 -0.05945615 -0.05943092 -0.05936019
 -0.05928043 -0.05920309 -0.05913997 -0.05909596 -0.05906557 -0.05904836 -0.05904412 -0.05905281 -0.05907676 -0.05911522
 -0.05915726 -0.0592006 -0.05922382 -0.05922773 -0.05920233 -0.0591535 -0.05909138 -0.05901962 -0.05894951 -0.05888118
 -0.05881712 -0.05876289 -0.05872251 -0.05870439 -0.05871534 -0.05875665 -0.05883286 -0.05893233 -0.05905535 -0.05917942
 -0.05930176 -0.05939981 -0.05947088 -0.05950084 -0.05948855 -0.05943343 -0.05933642 -0.05921265 -0.05906425 -0.05891261
 -0.05875912 -0.05862018 -0.05849653 -0.05839848 -0.05832547 -0.0582829 -0.05826491 -0.05826923 -0.0582827 -0.0582943
 -0.05829305 -0.05826668 -0.05822105 -0.05815253 -0.05808131 -0.05801187 -0.05795952 -0.05792886 -0.05791882 -0.05793024
 -0.05795497 -0.05799259 -0.05803667 -0.05808664 -0.05813285 -0.05817427 -0.05819786 -0.0582052 -0.05819401 -0.05816985
 -0.05814653 -0.05812632 -0.05812176 -0.05812648 -0.0581376 -0.0581496 -0.05815232 -0.05815778 -0.05816595 -0.05820257
 -0.05828056 -0.05840538 -0.05858825 -0.05878972 -0.0590083 -0.05918595 -0.05931499 -0.059373 -0.05935788 -0.05926969
 -0.05910923 -0.05888584 -0.058607 -0.05832778 -0.0580576 -0.05786723 -0.05775169 -0.05774057 -0.05780867 -0.05793109
 -0.05807044 -0.05816437 -0.05820842 -0.05816749 -0.05808126 -0.05796437 -0.05784402 -0.05773885 -0.05764444 -0.05756512
 -0.05748275 -0.0573941 -0.05729039 -0.05716869 -0.05704366 -0.05691581 -0.05681095 -0.0567299 -0.05668831 -0.05668429
 -0.0567143 -0.05677206 -0.05683193 -0.05688621 -0.05689714 -0.05687233 -0.05680327 -0.05671232 -0.05662767 -0.05655444
 -0.05651247 -0.05648172 -0.05645821 -0.05641653 -0.056342 -0.05623368 -0.0560838 -0.05592086 -0.05574837 -0.05559121
 -0.05545443 -0.05533159 -0.05522315 -0.0550956 -0.05494802 -0.05476082 -0.05453978 -0.0543179 -0.05410061 -0.05393104
 -0.05380265 -0.05371959 -0.05367497 -0.05365803 -0.05366501 -0.05369081 -0.05372184 -0.05374915 -0.05374833 -0.05370025
 -0.05359753 -0.05342858 -0.05321059 -0.0529471 -0.05264635 -0.05231044 -0.05194258 -0.05154194 -0.05112727 -0.05069963
 -0.05027669 -0.04985905 -0.04945519 -0.04906648 -0.04870688 -0.04837842 -0.04809906 -0.0478654 -0.04767981 -0.04753279
 -0.04740922 -0.04729887 -0.04718681 -0.04705415 -0.04688385 -0.04664843 -0.04631796 -0.04590829 -0.04540743 -0.04488254
 -0.04435255 -0.04385176 -0.04339308 -0.04296774 -0.04257691 -0.0422028 -0.04184435 -0.04148627 -0.04112837 -0.04076839
 -0.0404077 -0.04005863 -0.03971697 -0.03937739 -0.03902258 -0.03859805 -0.03810217 -0.03749001 -0.03681158 -0.03611281
 -0.03543546 -0.03484391 -0.0343234 -0.03388949 -0.03349918 -0.03313998 -0.03277215 -0.03237869 -0.03195327 -0.0314887
 -0.0310099 -0.03051972 -0.03002992 -0.02954236 -0.0290323 -0.02849849 -0.02791377 -0.02728206 -0.02662008 -0.0259351
 -0.02526914 -0.02462155 -0.02401337 -0.02343756 -0.02289086 -0.0223668 -0.02185572 -0.02135315 -0.02085038 -0.02034976
 -0.0198496 -0.0193554 -0.01887374 -0.01838885 -0.01790263 -0.0173751 -0.01679586 -0.01615744 -0.0154517 -0.01474522
 -0.01404172 -0.01340703 -0.01284161 -0.01233452 -0.01188018 -0.01142872 -0.01097971 -0.01050294 -0.01000605 -0.009493755
 -0.008975427 -0.008472928 -0.007986742 -0.007531046 -0.00708993 -0.00665795 -0.006208587 -0.00572148 -0.005187568 -0.004590913
 -0.00396027 -0.003298464 -0.002640958 -0.001996823 -0.001376288 -0.000782823 -0.000207799 0.0003489771 0.0009003805 0.001446853
 0.001994852 0.002543855 0.003091493 0.003638855 0.00418824 0.004743878 0.005320678 0.005917554 0.006543891 0.007185181
 0.007827114 0.008454612 0.00904444 0.009602062 0.01012031 0.01062077 0.011112 0.011606 0.01211126 0.01261683
 0.01312289 0.01361254 0.01408203 0.01453746 0.01497816 0.01543511 0.0159096 0.01642517 0.01697917 0.01756101
 0.01816513 0.01876011 0.01934498 0.01989905 0.0204281 0.02093307 0.02142096 0.02190278 0.02237969 0.02285809
 0.02333272 0.02380115 0.02426218 0.02471174 0.02516208 0.02561522 0.02608464 0.02657506 0.02708322 0.02761024
 0.0281421 0.02867775 0.02921012 0.029739 0.0302644 0.0307858 0.03129913 0.03180298 0.03228862 0.03275549
 0.03319637 0.03361421 0.03400978 0.03439015 0.03476559 0.03514003 0.03552302 0.03590887 0.03629616 0.03668154
 0.03705984 0.03744347 0.03783548 0.0382442 0.03867546 0.03910897 0.03954346 0.03995573 0.04034282 0.04071969
 0.04108766 0.04148333 0.04190538 0.04236045 0.04284024 0.04330935 0.04376226 0.04416076 0.04451287 0.04481239
 0.04507905 0.04533761 0.04560218 0.04590022 0.04622171 0.04657232 0.04692612 0.04727117 0.04759613 0.04789141
 0.04817119 0.04843574 0.04870414 0.04897965 0.04926736 0.04956833 0.04987413 0.05018433 0.05048879 0.05078884
 0.05109034 0.05139806 0.05173896 0.05211369 0.05254326 0.05301379 0.05351046 0.05401289 0.05448369 0.0549178
 0.05529265 0.05562308 0.05591145 0.05617391 0.0564201 0.05665296 0.05687574 0.05708614 0.05728308 0.05747173
 0.05765187 0.05783477 0.05802132 0.05821833 0.05842602 0.05864431 0.0588732 0.05911299 0.05936389 0.05962878
 0.05990477 0.06018627 0.06046693 0.06072971 0.06097427 0.06118858 0.06138722 0.06157737 0.0617797 0.0620132
 0.06228025 0.06259309 0.06292307 0.06326715 0.06358625 0.06386964 0.06410518 0.06428702 0.06443924 0.06456304
 0.06468333 0.06480066 0.06490692 0.06500027 0.06505784 0.065083 0.06507806 0.0650525 0.06503692 0.06503692
 0.06508099 0.06516423 0.06529428 0.06545746 0.06564442 0.06583999 0.06602901 0.06620966 0.0663719 0.06653974
 0.06671654 0.06693232 0.06719918 0.06750432 0.06785365 0.06817596 0.06846677 0.06865432 0.06873639 0.0687164
 0.06860217 0.06847156 0.06832943 0.06824488 0.0682072 0.06821889 0.06826914 0.06833113 0.06841339 0.06851684
 0.0686509 0.06883416 0.06904431 0.06927688 0.06949484 0.06967342 0.0698139 0.06990355 0.06998856 0.0700765
 0.07020342 0.07037936 0.07058777 0.07082995 0.07105207 0.07125147 0.07138072 0.07144133 0.07142644 0.07134565
 0.07124071 0.07112445 0.07106088 0.07105176 0.07113813 0.07129926 0.071528 0.07178938 0.07204487 0.07227208
 0.07243707 0.07255335 0.0726124 0.0726556 0.07269408 0.07276002 0.07286479 0.07301068 0.07319974 0.0734265
 0.07368971 0.07400471 0.07437231 0.07481343 0.07532461 0.07588375 0.07647691 0.07702245 0.07750756 0.07784136
 0.07803716 0.07806678 0.07798017 0.07783285 0.07768147 0.07761286 0.07763408 0.07779416 0.078024 0.07831341
 0.07856347 0.07873552 0.07878432 0.07868209 0.07847799 0.07816911 0.0778543 0.07754222 0.07729258 0.07710767
 0.07696826 0.07687056 0.07676524 0.07665547 0.07652967 0.07639948 0.07629809 0.07622958 0.0762262 0.07626792
 0.07634796 0.07642118 0.07644238 0.07636682 0.0761412 0.07576741 0.07521827 0.07456315 0.07381108 0.07305458
 0.07231729 0.07164937 0.07106462 0.07055791 0.07013115 0.06975554 0.06942952 0.0691186 0.06882107 0.06850462
 0.06817189 0.06781761 0.06745008 0.06709633 0.06675579 0.06644684 0.06614925 0.0658413 0.06550372 0.06510074
 0.06464511 0.06412499 0.06358904 0.0630532 0.06257259 0.06217235 0.06187154 0.06168775 0.06157372 0.06153161
 0.06146492 0.06136555 0.06116123 0.06084868 0.06043925 0.05993893 0.05941874 0.05888262 0.05839014 0.05793634
 0.05753663 0.0571833 0.05686686 0.05658193 0.05631718 0.05606686 0.05582193 0.05557518 0.05531855 0.05504827
 0.05475887 0.05445533 0.05413613 0.05381549 0.05349606 0.05319001 0.05290107 0.05262303 0.05235665 0.05207887
 0.05178853 0.05146921 0.05112217 0.0507559 0.05037398 0.05000074 0.04963747 0.04930238 0.04899188 0.048708
 0.04844392 0.048191 0.04794141 0.04768423 0.04741264 0.04711757 0.04679776 0.04644759 0.04607817 0.04568961
 0.0453025 0.04492192 0.04456025 0.0442219 0.04389749 0.04358735 0.04326998 0.04294432 0.0425985 0.04223347
 0.04185596 0.04146846 0.04108797 0.04071614 0.04036817 0.04004257 0.03974489 0.03946943 0.03921102 0.03896117
 0.0387084 0.03844819 0.03817033 0.0378845 0.03758816 0.03730892 0.03705513 0.03684997 0.03670624 0.0366033
 0.03654582 0.03646468 0.03635469 0.0361528 0.03585565 0.03546558 0.03498805 0.0344893 0.03397694 0.03352998
 0.03314703 0.03287094 0.03268318 0.03256888 0.03249543 0.03240399 0.0322745 0.03205224 0.03176199 0.0313958
 0.03101028 0.03063593 0.03029919 0.0300248 0.02978234 0.02956949 0.02935562 0.02913004 0.02892046 0.02872634
 0.02860683 0.02856505 0.02861342 0.02874629 0.02889714 0.02905544 0.02912307 0.02910182 0.02893817 0.02865721
 0.02828574 0.02785772 0.02744399 0.02705244 0.0267274 0.02643973 0.0261806 0.0259266 0.02565334 0.02538554
 0.0251231 0.02490536 0.02474889 0.02463862 0.02458 0.02451076 0.02442429 0.02429322 0.02411574 0.02393431
 0.02375205 0.02362322 0.0235439 0.02352011 0.02354201 0.02357738 0.02362135 0.02364567 0.02365235 0.02363303
 0.02358873 0.0235201 0.02341977 0.02328499 0.02310102 0.02285813 0.02255123 0.02216956 0.02174257 0.02126843
 0.02081085 0.02037846 0.02002599 0.01976256 0.01958044 0.01947976 0.01938643 0.0192959 0.01912646 0.01888236
 0.0185424 0.01812426 0.01767838 0.01722175 0.01682377 0.01648174 0.01622777 0.01603773 0.0158991 0.01578344
 0.01566308 0.01552466 0.0153495 0.01514926 0.01491984 0.01469256 0.01447421 0.01428874 0.01414499 0.0140254
 0.0139318 0.01380902 0.01365399 0.01343124 0.01314341 0.01281994 0.0124678 0.01214848 0.01185742 0.01161509
 0.01140318 0.01118572 0.01095407 0.01067078 0.01035395 0.0100065 0.009656215 0.009328178 0.009033812 0.008788116
 0.008586472 0.008429945 0.008315151 0.008241327 0.008207205 0.008214195 0.008248761 0.008311287 0.008370233 0.008423902
 0.008432451 0.008394503 0.008281422 0.008096262 0.007840445 0.007523606 0.007179466 0.006820464 0.006493315 0.006205617
 0.005992546 0.005851707 0.005796757 0.005814058 0.005900125 0.006033706 0.006203825 0.006390476 0.006583922 0.006771948
 0.006949358 0.007111745 0.007256308 0.007390744 0.007513641 0.007656191 0.007819915 0.008055842 0.008365749 0.008786949
 0.00931438 0.009937886 0.01064504 0.01138454 0.01214699 0.01288129 0.01359045 0.01425418 0.0148854 0.01549077
 0.01608314 0.01667483 0.0172748 0.01788989 0.01852979 0.0191987 0.01990654 0.02065855 0.02145015 0.0222848
 0.0231317 0.0239899 0.02481241 0.02559641 0.02630322 0.02693198 0.02746528 0.0279038 0.02824282 0.02848306
 0.02862168 0.02866529 0.02862219 0.02851455 0.02837818 0.02824577 0.02817109 0.02817213 0.02828727 0.02850261
 0.0288239 0.02922362 0.02969031 0.03021427 0.03078837 0.031423 0.0321191 0.03288426 0.03372053 0.03461802
 0.03557646 0.03656979 0.03759607 0.03862086 0.03964353 0.04063969 0.04161603 0.04258148 0.04355112 0.0445682
 0.04564128 0.04681683 0.04806355 0.04938914 0.05068165 0.05188594 0.05280335 0.05332293 0.05325262 0.05247135
 0.05096284 0.04865742 0.04580469 0.04240794 0.03887336 0.03523961 0.03184635 0.02871833 0.02598654 0.02364806
 0.02165525 0.01999553 0.01856406 0.01735349 0.0162829 0.01534635 0.01449139 0.01370769 0.01295383 0.01222314
 0.01148791 0.01075667 0.01002405 0.00931021 0.008624721 0.007984064 0.00739786 0.006871047 0.006407262 0.006004775
 0.005663847 0.005382104 0.005159032 0.004996295 0.004893864 0.004860084 0.004894805 0.004999097 0.005167507 0.00536659
 0.005583968 0.005751665 0.00586378 0.005863605 0.00576901 0.005578722 0.005329913 0.005066743 0.004819473 0.004631805
 0.004508896 0.004467307 0.004498161 0.004598285 0.004773361 0.005018006 0.005370998 0.00583524 0.006464228 0.007268528
 0.008239372 0.009380246 0.0105178 0.01163364 0.01238749 0.01276062 0.01243631 0.01145184 0.009758244 0.007466011
 0.004824904 0.001951484 -0.0008219237 -0.00345747 -0.005759311 -0.007779501 -0.009490721 -0.0109711 -0.01226209 -0.0134088
 -0.01444084 -0.01537194 -0.01620944 -0.01696672 -0.01764534 -0.01826674 -0.01883313 -0.01936293 -0.0198575 -0.02032747
 -0.02077327 -0.02120169 -0.02161295 -0.02201198 -0.02239875 -0.02277628 -0.02314339 -0.02349932 -0.02384102 -0.02416245
 -0.02446173 -0.02473156 -0.02497895 -0.02520416 -0.02542439 -0.02564994 -0.02589271 -0.02616424 -0.02645205 -0.02675909
 -0.02705158 -0.02732349 -0.027553 -0.0277343 -0.02788523 -0.02800598 -0.02813821 -0.02828303 -0.02845967 -0.02866417
 -0.02887556 -0.02909077 -0.02928264 -0.02945833 -0.0296214 -0.02978392 -0.02997238 -0.03018747 -0.03044496 -0.03072969
 -0.03103594 -0.03134364 -0.03163945 -0.03190908 -0.03214269 -0.03233648 -0.03248442 -0.03260208 -0.032688 -0.03277853
 -0.03287712 -0.03301658 -0.0332 -0.03342514 -0.03369051 -0.03396185 -0.0342372 -0.03448489 -0.03470739 -0.03489779
 -0.03506059 -0.03520431 -0.03533219 -0.03545352 -0.03557143 -0.03569357 -0.03582184 -0.03596267 -0.03610949 -0.03626247
 -0.03640723 -0.0365366 -0.0366458 -0.03672824 -0.0368026 -0.03686944 -0.03695714 -0.03707016 -0.03721639 -0.03739738
 -0.03759211 -0.0377993 -0.03799293 -0.03817375 -0.0383351 -0.03848018 -0.03861965 -0.03875475 -0.03889543 -0.03903892
 -0.03918542 -0.03932993 -0.03946579 -0.03959005 -0.03969594 -0.03978826 -0.0398653 -0.03994153 -0.04002133 -0.04012064
 -0.04024615 -0.04040121 -0.04058947 -0.04079787 -0.04102601 -0.0412559 -0.04148624 -0.04170571 -0.04191395 -0.04210658
 -0.04228378 -0.04244436 -0.04258944 -0.04272239 -0.04284607 -0.04297031 -0.04309677 -0.04323461 -0.04338028 -0.04353362
 -0.04368869 -0.04383866 -0.04398387 -0.04412105 -0.04425704 -0.04439462 -0.04453641 -0.04468538 -0.04483397 -0.04498159
 -0.0451195 -0.04524587 -0.04536252 -0.04546916 -0.04557735 -0.04568756 -0.0458089 -0.04594003 -0.04607509 -0.0462107
 -0.04632786 -0.04642652 -0.04649361 -0.04653824 -0.04656961 -0.04660144 -0.04665739 -0.04674181 -0.04687059 -0.04703216
 -0.04722582 -0.04743402 -0.04764866 -0.04785967 -0.04806172 -0.04825396 -0.04843546 -0.04860649 -0.0487672 -0.04891545
 -0.04905105 -0.04917296 -0.04928134 -0.04938145 -0.04947405 -0.04956798 -0.04966329 -0.04976537 -0.04987289 -0.04998471
 -0.05009976 -0.05021499 -0.05033099 -0.05044701 -0.0505646 -0.05068507 -0.05080905 -0.05093784 -0.05106975 -0.05120505
 -0.0513395 -0.05147213 -0.05159875 -0.05171796 -0.05182998 -0.0519342 -0.0520362 -0.05213627 -0.05224076 -0.05234988
 -0.05246627 -0.05258946 -0.05271698 -0.05284791 -0.05297674 -0.05310302 -0.05322216 -0.05333527 -0.05344201 -0.05354456
 -0.05364561 -0.05374717 -0.05385217 -0.05396146 -0.05407659 -0.05419712 -0.05432369 -0.05445395 -0.05458773 -0.05472122
 -0.05485384 -0.05498154 -0.0551037 -0.05521808 -0.05532434 -0.05542453 -0.05551889 -0.05561456 -0.05571206 -0.05581966
 -0.05593661 -0.05606467 -0.05620117 -0.05633952 -0.05647706 -0.05660509 -0.05672314 -0.05682629 -0.05691713 -0.05699557
 -0.05706666 -0.05713335 -0.05720035 -0.05727094 -0.05734591 -0.05742644 -0.05751083 -0.05759869 -0.05769026 -0.05778541
 -0.05788596 -0.05799223 -0.05810082 -0.05821144 -0.05831654 -0.05841636 -0.05850954 -0.05859773 -0.05868854 -0.05878215
 -0.05888401 -0.0589911 -0.05909996 -0.05920788 -0.05930865 -0.05940382 -0.05949237 -0.05957711 -0.05966026 -0.05974147
 -0.05982125 -0.05989835 -0.05997171 -0.06004441 -0.0601166 -0.06019291 -0.06027427 -0.0603609 -0.06045305 -0.06054676
 -0.06064186 -0.06073534 -0.06082729 -0.06091743 -0.06100586 -0.06109291 -0.06117835 -0.06126158 -0.06134255 -0.06142057
 -0.0614965 -0.06157095 -0.06164543 -0.06172173 -0.06180039 -0.06188279 -0.06196733 -0.06205396 -0.06213998 -0.06222462
 -0.0623058 -0.06238302 -0.06245473 -0.06252057 -0.0625805 -0.06263435 -0.06268529 -0.06273354 -0.06278455 -0.06283847
 -0.06289883 -0.06296534 -0.06303839 -0.06311779 -0.06320319 -0.06329477 -0.06339298 -0.06349732 -0.06360775 -0.06372238
 -0.06383994 -0.06395707 -0.0640714 -0.06417973 -0.06427957 -0.06437082 -0.06445201 -0.06452814 -0.06459959 -0.06467284
 -0.06474914 -0.06482986 -0.06491543 -0.06500154 -0.065088 -0.06517147 -0.06525236 -0.06533359 -0.06541589 -0.06550507
 -0.06560018 -0.06570193 -0.06580739 -0.06591059 -0.0660098 -0.06609903 -0.06618055 -0.06625383 -0.06632332 -0.06639215
 -0.06646255 -0.06653684 -0.06661392 -0.06669402 -0.06677525 -0.06685697 -0.06693955 -0.06702276 -0.0671091 -0.06719885
 -0.06729215 -0.06738888 -0.0674829 -0.0675737 -0.06765326 -0.06772249 -0.06778114 -0.06783202 -0.06788412 -0.0679388
 -0.06800431 -0.06807797 -0.06816006 -0.06824599 -0.06833109 -0.06841257 -0.0684864 -0.06855369 -0.06861314 -0.0686695
 -0.06872384 -0.06878059 -0.06884147 -0.06890565 -0.06897367 -0.06904016 -0.06910465 -0.06916476 -0.06922047 -0.06927572
 -0.06933094 -0.06939203 -0.06945874 -0.06953332 -0.06961425 -0.06969835 -0.0697834 -0.06986294 -0.06993626 -0.06999853
 -0.07005277 -0.07009966 -0.07014398 -0.0701898 -0.07023866 -0.07029295 -0.07035035 -0.07041055 -0.07047178 -0.07053337
 -0.07059569 -0.0706588 -0.07072258 -0.07078713 -0.0708501 -0.07091134 -0.07096752 -0.07101859 -0.07106256 -0.0711001
 -0.07113311 -0.07116319 -0.07119645 -0.07123417 -0.07128277 -0.07134091 -0.0714104 -0.0714866 -0.07156572 -0.07164299
 -0.07171319 -0.07177567 -0.07182787 -0.07187382 -0.07191416 -0.07195298 -0.07199176 -0.07203042 -0.07206928 -0.07210652
 -0.07214187 -0.07217671 -0.07221112 -0.07224932 -0.07229145 -0.07234081 -0.07239745 -0.07246294 -0.07253795 -0.0726249
 -0.07272562 -0.0728446 -0.07298487 -0.07315221 -0.07335074 -0.07358607 -0.07386328 -0.07418746 -0.07456246 -0.07499294
 -0.07547487 -0.07601055 -0.07658336 -0.07719079 -0.07781535 -0.07845282 -0.07910432 -0.07976922 -0.08045929 -0.08117469
 -0.08188948 -0.08259668 -0.08321206 -0.08372561 -0.08403791 -0.08414856 -0.08399624 -0.08360316 -0.08297175 -0.08216539
 -0.08127222 -0.08036742 -0.07957156 -0.07890446 -0.07842387 -0.07810759 -0.07795866 -0.07795563 -0.07809383 -0.07835021
 -0.07872766 -0.07915927 -0.07964335 -0.08006413 -0.08040979 -0.08062204 -0.0806981 -0.08068413 -0.08058471 -0.08046685
 -0.08033097 -0.08021451 -0.08011296 -0.08003219 -0.07996541 -0.07989907 -0.079832 -0.07975475 -0.07967339 -0.07959234
 -0.07951241 -0.07943849 -0.07936017 -0.07927369 -0.07917032 -0.07904372 -0.07890083 -0.07874022 -0.07857989 -0.0784223
 -0.07828005 -0.07815496 -0.07804741 -0.07795746 -0.0778802 -0.0778157 -0.07776374 -0.07772456 -0.07770032 -0.07768939
 -0.07768778 -0.07769306 -0.077697 -0.07769999 -0.07769834 -0.077695 -0.07769174 -0.07769103 -0.0776952 -0.07770586
 -0.07772454 -0.07775169 -0.07778858 -0.07783148 -0.07788032 -0.07792887 -0.07797578 -0.07802019 -0.07806151 -0.07810582
 -0.07815342 -0.07820912 -0.07827274 -0.07834339 -0.07842052 -0.07850067 -0.0785833 -0.07866501 -0.07874512 -0.0788201
 -0.07889032 -0.07895438 -0.07901398 -0.07907044 -0.0791251 -0.0791796 -0.07923398 -0.07928853 -0.07934367 -0.0793992
 -0.07945732 -0.07951836 -0.07958491 -0.07965761 -0.07973675 -0.07982271 -0.07991122 -0.08000206 -0.08008894 -0.08017185
 -0.08024918 -0.0803216 -0.08039268 -0.08046198 -0.08053051 -0.08059599 -0.08065318 -0.08070134 -0.08073574 -0.08075995
 -0.08077528 -0.08078744 -0.08080117 -0.08082057 -0.08084938 -0.08088828 -0.08093911 -0.08099809 -0.08106536 -0.08113366
 -0.08120206 -0.08126408 -0.08131884 -0.08136499 -0.08140241 -0.08143474 -0.08146241 -0.08149169 -0.08152308 -0.08156296
 -0.08161104 -0.08167032 -0.08173918 -0.08181579 -0.08189776 -0.08198076 -0.08206236 -0.08213823 -0.08220682 -0.08226502
 -0.08231413 -0.08235304 -0.08238697 -0.08241714 -0.08244925 -0.08248521 -0.08252686 -0.08257513 -0.08262797 -0.08268534
 -0.08274464 -0.08280568 -0.08286578 -0.08292481 -0.08298013 -0.08303191 -0.08307923 -0.08312336 -0.08316791 -0.08321479
 -0.08327081 -0.08333584 -0.0834142 -0.08350088 -0.08359304 -0.08368269 -0.08376222 -0.08382782 -0.0838735 -0.08390535
 -0.08392275 -0.0839382 -0.08395463 -0.08398091 -0.08401964 -0.08406986 -0.08413221 -0.08419851 -0.08426835 -0.0843339
 -0.0843951 -0.08444953 -0.08449765 -0.08454099 -0.08458019 -0.08461817 -0.08465578 -0.08469624 -0.08474044 -0.08479174
 -0.0848492 -0.08491406 -0.08498199 -0.08505063 -0.08511467 -0.08516999 -0.08521576 -0.08524936 -0.08527745 -0.08530046
 -0.08532781 -0.08536142 -0.0854052 -0.08546022 -0.08552179 -0.08558971 -0.08565708 -0.08572383 -0.08578809 -0.08585043
 -0.08591392 -0.0859787 -0.08604749 -0.08611903 -0.08619212 -0.08626456 -0.08633228 -0.08639323 -0.08644311 -0.08648197
 -0.08650758 -0.08652358 -0.08653046 -0.08653457 -0.0865377 -0.08654711 -0.08656495 -0.08659583 -0.08664132 -0.08670009
 -0.08677262 -0.0868513 -0.08693572 -0.08701744 -0.08709624 -0.08716787 -0.08723254 -0.08728961 -0.08733916 -0.08738085
 -0.08741517 -0.08744252 -0.08746506 -0.08748606 -0.08750867 -0.087538 -0.08757561 -0.08762529 -0.08768473 -0.08775474
 -0.08782899 -0.08790592 -0.08797795 -0.08804273 -0.08809606 -0.08813633 -0.08816579 -0.0881841 -0.08819885 -0.08821044
 -0.08822635 -0.08824671 -0.08827473 -0.08830998 -0.08835141 -0.08839834 -0.08844765 -0.08849877 -0.08854855 -0.08859722
 -0.08864357 -0.08868862 -0.0887334 -0.08877792 -0.08882306 -0.08886677 -0.08890799 -0.08894578 -0.08897866 -0.08901015
 -0.08904068 -0.08907425 -0.08911215 -0.08915278 -0.08919632 -0.08923824 -0.08927823 -0.08931698 -0.08935493 -0.08939958
 -0.08945116 -0.0895154 -0.08959065 -0.08967424 -0.08976293 -0.08984689 -0.08992448 -0.08998722 -0.09003807 -0.09007636
 -0.09010787 -0.09013781 -0.09016813 -0.0902024 -0.09023716 -0.09027164 -0.09030382 -0.09033196 -0.09036075 -0.09039042
 -0.09042697 -0.09047133 -0.09052382 -0.09058458 -0.09064895 -0.09071667 -0.09078279 -0.09084734 -0.09090808 -0.0909654
 -0.09101956 -0.09107102 -0.0911212 -0.09117023 -0.09121911 -0.09126767 -0.09131638 -0.09136408 -0.09141012 -0.09145296
 -0.09149121 -0.09152533 -0.0915544 -0.09158244 -0.09161004 -0.0916419 -0.09167911 -0.09172303 -0.09177415 -0.09183019
 -0.09189106 -0.09195279 -0.09201513 -0.09207393 -0.09212923 -0.0921789 -0.0922237 -0.09226544 -0.09230476 -0.09234468
 -0.0923842 -0.09242332 -0.09245989 -0.09249069 -0.09251583 -0.09253316 -0.09254701 -0.09255845 -0.09257404 -0.09259716
 -0.09262983 -0.09267458 -0.09272453 -0.09277959 -0.09282879 -0.09287073 -0.09289981 -0.09291547 -0.09291948 -0.09291212
 -0.0928982 -0.09287853 -0.09286085 -0.09284635 -0.09284457 -0.09285486 -0.09288158 -0.0929207 -0.09296715 -0.09301739
 -0.09306411 -0.09310801 -0.09314705 -0.09318332 -0.09321857 -0.09325036 -0.09327891 -0.09329854 -0.09330712 -0.09330393
 -0.09328719 -0.09326658 -0.09324256 -0.09322726 -0.09322163 -0.09322803 -0.09324613 -0.09326794 -0.09329317 -0.09331566
 -0.09333655 -0.09335767 -0.09337918 -0.09340309 -0.09342726 -0.09344836 -0.09346546 -0.09347502 -0.09347992 -0.09348123
 -0.09348213 -0.09348546 -0.09349079 -0.09349905 -0.09350742 -0.09351511 -0.09352082 -0.0935239 -0.09352553 -0.09352568
 -0.09352668 -0.09352873 -0.09353277 -0.09353884 -0.09354686 -0.09355702 -0.09357089 -0.09358876 -0.09361325 -0.09364336
 -0.09367836 -0.09371561 -0.09374986 -0.0937792 -0.09379876 -0.09380866 -0.0938069 -0.09379564 -0.09377478 -0.09374918
 -0.09372023 -0.09369376 -0.09367222 -0.09365623 -0.09364723 -0.09363805 -0.09362816 -0.09361 -0.09358283 -0.09354944
 -0.09351035 -0.09347747 -0.09345087 -0.09343755 -0.09343512 -0.09343719 -0.09344158 -0.09343735 -0.09342784 -0.09341298
 -0.09339965 -0.09339873 -0.09340908 -0.09343695 -0.09346837 -0.09349716 -0.09351069 -0.09349915 -0.09346823 -0.09341517
 -0.09335913 -0.0933034 -0.09326074 -0.09323403 -0.09321949 -0.09321728 -0.09321481 -0.09321173 -0.09320237 -0.0931881
 -0.09317705 -0.09317066 -0.09318084 -0.0932048 -0.09324317 -0.09328749 -0.09332225 -0.09334102 -0.09332566 -0.09328344
 -0.0932119 -0.09312741 -0.09304018 -0.09295888 -0.09289157 -0.09283368 -0.09278595 -0.09274083 -0.09269594 -0.09265339
 -0.09261272 -0.09258146 -0.09256025 -0.09255009 -0.0925508 -0.09255704 -0.09256829 -0.09257899 -0.09258782 -0.09258638
 -0.09257306 -0.09253737 -0.0924825 -0.09240811 -0.09232149 -0.0922327 -0.09214534 -0.09206653 -0.09199654 -0.09193723
 -0.09188927 -0.09185405 -0.09182893 -0.09181477 -0.09180235 -0.09179036 -0.09176996 -0.0917395 -0.09169798 -0.09164509
 -0.09158427 -0.09151567 -0.09144192 -0.09136309 -0.09128104 -0.09119558 -0.09110662 -0.0910144 -0.09091874 -0.09082191
 -0.09072798 -0.09063934 -0.09056243 -0.09049395 -0.09043447 -0.09037648 -0.09031469 -0.09024654 -0.09016814 -0.09008516
 -0.08999814 -0.08991363 -0.08983365 -0.08975818 -0.08968816 -0.0896156 -0.08954005 -0.08945415 -0.08935774 -0.08925019
 -0.08913141 -0.08900043 -0.08885656 -0.08869451 -0.08851702 -0.08832768 -0.08813289 -0.08794856 -0.08777453 -0.0876197
 -0.08747467 -0.08733389 -0.0871892 -0.08703163 -0.08686428 -0.08668496 -0.08650328 -0.08632176 -0.08614694 -0.08598144
 -0.08582351 -0.08567493 -0.08551641 -0.08534709 -0.08513901 -0.08489168 -0.08460788 -0.08429077 -0.08397067 -0.08364687
 -0.08333381 -0.08302498 -0.08270919 -0.08238054 -0.08202054 -0.08163054 -0.0812019 -0.08074589 -0.08026815 -0.07978427
 -0.07930791 -0.07884216 -0.07839701 -0.07794966 -0.07749728 -0.07701115 -0.07648151 -0.07591344 -0.07530448 -0.07468142
 -0.07404637 -0.07341071 -0.07277502 -0.07214659 -0.07152699 -0.07093488 -0.07036933 -0.06983851 -0.06933454 -0.06883848
 -0.06834354 -0.06782351 -0.06728522 -0.06672522 -0.06615699 -0.06559508 -0.0650399 -0.06449831 -0.06396023 -0.06342206
 -0.06287885 -0.06232698 -0.06177142 -0.06121471 -0.06064869 -0.06007737 -0.05944625 -0.05875203 -0.0579351 -0.05699533
 -0.05598303 -0.05490609 -0.05386329 -0.05284635 -0.05186824 -0.05091409 -0.04994514 -0.04895527 -0.04791576 -0.04682094
 -0.04565797 -0.0444035 -0.04303997 -0.04152019 -0.03980754 -0.03787156 -0.03566709 -0.03327226 -0.03068109 -0.02806262
 -0.02545255 -0.02295399 -0.02059077 -0.01836421 -0.01627847 -0.01428039 -0.01236552 -0.01042061 -0.008433485 -0.006230577
 -0.003827979 -0.001181771 0.001623741 0.00433509 0.006935645 0.009239579 0.01134414 0.01331472 0.01522106 0.01716827
 0.0191539 0.02120899 0.02331243 0.02545771 0.02764473 0.02988076 0.03212426 0.03437332 0.03655949 0.03866775
 0.04070982 0.04268491 0.0446257 0.04653123 0.04832157 0.04998849 0.05141423 0.05260878 0.05355694 0.05427934
 0.05483272 0.05522656 0.0555062 0.05567639 0.05575776 0.05576637 0.05572218 0.05564621 0.0555584 0.0554719
 0.05540304 0.05533592 0.05527624 0.05517378 0.05502351 0.05476069 0.05437683 0.05381783 0.05307553 0.052178
 0.05112846 0.05005489 0.0489584 0.04790339 0.04687447 0.04582575 0.04474948 0.04359154 0.04236773 0.04107689
 0.03975719 0.03846365 0.03722328 0.03609052 0.03505477 0.03412548 0.0332868 0.03252708 0.03186115 0.03128963
 0.03083424 0.03050434 0.03028505 0.03017776 0.03014838 0.03019398 0.03029571 0.03045278 0.03066373 0.03092876
 0.03124962 0.03162535 0.03205194 0.03252802 0.03304723 0.03360901 0.03420961 0.03484784 0.03552019 0.0362266
 0.03696286 0.03773863 0.03855571 0.03943442 0.04038352 0.04142198 0.04255726 0.04380292 0.04516429 0.0466432
 0.04824523 0.04992935 0.05169549 0.05345716 0.05520979 0.05687346 0.05844544 0.05987299 0.06114981 0.06221379
 0.06306252 0.06364451 0.06398657 0.06411251 0.06406934 0.0639334 0.06374687 0.0635845 0.06345788 0.06340998
 0.06339702 0.06342582 0.06339092 0.06327747 0.06292105 0.06227286 0.06127862 0.05989002 0.05840645 0.0568492
 0.05544871 0.0542137 0.05305646 0.05197077 0.05085999 0.04973241 0.04858513 0.0474242 0.04627975 0.04512462
 0.04393993 0.04263431 0.0410659 0.03915846 0.03671082 0.0339075 0.03079377 0.02761215 0.02454191 0.02153641
 0.01861745 0.01571615 0.01279815 0.009955431 0.007193065 0.004620045 0.002251877 5.693453E-05 -0.001966793 -0.003927744
 -0.005826778 -0.007712417 -0.00957307 -0.0113699 -0.01309704 -0.01470864 -0.01622062 -0.01764336 -0.01899865 -0.02032544
 -0.02163382 -0.02294536 -0.02427445 -0.02562665 -0.02705003 -0.02856975 -0.03022048 -0.03205809 -0.0339147 -0.03578293
 -0.03739801 -0.03869379 -0.03973227 -0.04050458 -0.04123107 -0.04192211 -0.04268234 -0.04350477 -0.04434412 -0.04518886
 -0.04594726 -0.04662935 -0.04722223 -0.04773682 -0.04820135 -0.04859527 -0.04890258 -0.04909476 -0.04912605 -0.04900803
 -0.04872897 -0.048324 -0.04780958 -0.04720363 -0.04651789 -0.0457511 -0.04490756 -0.0439688 -0.04293486 -0.04177017
 -0.04046886 -0.03904516 -0.03750068 -0.03598848 -0.03451801 -0.03325433 -0.03218644 -0.03133816 -0.03069278 -0.03020639
 -0.02987194 -0.02965646 -0.02954878 -0.02952462 -0.02955627 -0.02961425 -0.02965008 -0.02961842 -0.0294897 -0.02921832
 -0.02886761 -0.0284436 -0.02802794 -0.02764812 -0.0273115 -0.02702583 -0.02676284 -0.02652033 -0.02628185 -0.02604654
 -0.0258226 -0.02561089 -0.02542521 -0.0252637 -0.02512439 -0.02500181 -0.02487756 -0.0247449 -0.02457997 -0.02437784
 -0.02412202 -0.02380593 -0.02341983 -0.02294881 -0.02237927 -0.02169972 -0.02089576 -0.01998169 -0.01895578 -0.01784829
 -0.01666973 -0.01541961 -0.01410418 -0.0126771 -0.01113391 -0.009447219 -0.007615725 -0.005722668 -0.00377729 -0.001921588
 -0.0001544914 0.001458166 0.002924855 0.004245988 0.005414474 0.006418166 0.00723814 0.007836761 0.00820729 0.008323435
 0.008198867 0.007834584 0.007246896 0.006445761 0.005436813 0.004221431 0.002812925 0.001203955 -0.0005353756 -0.002404971
 -0.004273102 -0.006127011 -0.00787928 -0.009524688 -0.01108885 -0.01257598 -0.01405118 -0.01551036 -0.01696503 -0.01840177
 -0.01977576 -0.02108608 -0.02230218 -0.02344453 -0.02452997 -0.02558337 -0.02663998 -0.02771235 -0.02882561 -0.02996935
 -0.03115091 -0.03233482 -0.03351267 -0.03464643 -0.03572295 -0.03673307 -0.03767096 -0.03855548 -0.03938781 -0.04018508
 -0.04094833 -0.04166766 -0.04234093 -0.0429361 -0.04345282 -0.04387049 -0.04419545 -0.04443807 -0.04460719 -0.04472857
 -0.04480778 -0.04486547 -0.04490288 -0.0449288 -0.04494383 -0.0449491 -0.04495139 -0.04495273 -0.04496497 -0.0449932
 -0.04504348 -0.04511935 -0.04521691 -0.04533627 -0.04547184 -0.04562291 -0.04578874 -0.04596925 -0.04616507 -0.04637587
 -0.04659814 -0.04683027 -0.04706198 -0.04728976 -0.04749615 -0.04767751 -0.04781538 -0.04791111 -0.04795644 -0.04796022
 -0.04792745 -0.04787141 -0.04780306 -0.04773472 -0.04767649 -0.04763295 -0.04760963 -0.04760029 -0.04760498 -0.04761455
 -0.04762664 -0.04764229 -0.04766073 -0.04769301 -0.04773972 -0.04781005 -0.0479039 -0.04802155 -0.04816193 -0.04831896
 -0.04849101 -0.04866936 -0.04885207 -0.04903032 -0.04920277 -0.0493631 -0.04951152 -0.04964561 -0.04976667 -0.04987507
 -0.04997168 -0.05005783 -0.05013112 -0.05019162 -0.05023442 -0.05025787 -0.05026099 -0.05024267 -0.05020849 -0.05015871
 -0.05010037 -0.05003389 -0.04996342 -0.04988916 -0.04981481 -0.04974031 -0.0496681 -0.04959652 -0.04952159 -0.04943975
 -0.04934045 -0.04922098 -0.04907138 -0.04889267 -0.04868075 -0.04844177 -0.04817837 -0.04789865 -0.04760866 -0.04731022
 -0.04700707 -0.0466914 -0.04636194 -0.04601228 -0.04564001 -0.04525015 -0.04484241 -0.04442828 -0.04400841 -0.04359152
 -0.04317802 -0.04277483 -0.0423823 -0.04200681 -0.04164756 -0.04130548 -0.04097874 -0.04066288 -0.04035775 -0.04006044
 -0.03977301 -0.03949663 -0.0392334 -0.03898489 -0.03875425 -0.03854254 -0.03835594 -0.03819662 -0.03807062 -0.03798076
 -0.03792615 -0.03790817 -0.03791696 -0.03795202 -0.0380009 -0.03806281 -0.03813078 -0.03820486 -0.03828537 -0.0383728
 -0.03847066 -0.03857897 -0.03869994 -0.03883262 -0.03897625 -0.03912865 -0.03928608 -0.03944612 -0.03960377 -0.03975959
 -0.03991123 -0.04006374 -0.04021896 -0.04038224 -0.04055675 -0.0407427 -0.04094152 -0.04114829 -0.04136259 -0.04157924
 -0.04179768 -0.04201439 -0.04222919 -0.04243659 -0.04263603 -0.04281787 -0.04298151 -0.04311784 -0.04322767 -0.04330901
 -0.04336359 -0.04339478 -0.04340365 -0.04339325 -0.04336489 -0.04332058 -0.04326325 -0.04319666 -0.04312041 -0.04303718
 -0.04293882 -0.04282338 -0.04268204 -0.04251127 -0.04231025 -0.04207753 -0.04181936 -0.04153585 -0.04123619 -0.04092083
 -0.04060263 -0.04028224 -0.03997223 -0.03967224 -0.03938657 -0.03911322 -0.03884709 -0.03858567 -0.03832019 -0.03804852
 -0.03776227 -0.03746223 -0.03714438 -0.03681509 -0.03647755 -0.03613944 -0.03580651 -0.03548171 -0.03516771 -0.0348647
 -0.03457338 -0.03429278 -0.03402386 -0.03375825 -0.03349586 -0.03322149 -0.03293416 -0.03262476 -0.03229327 -0.03194012
 -0.03156522 -0.03116828 -0.03074837 -0.0303009 -0.02982627 -0.02932259 -0.02879198 -0.02823714 -0.0276604 -0.0270656
 -0.02645451 -0.02583009 -0.0251927 -0.02454294 -0.02388212 -0.02320906 -0.02253254 -0.02185315 -0.02118571 -0.02053327
 -0.0199033 -0.01929773 -0.01871149 -0.01814451 -0.0175875 -0.01704002 -0.01649365 -0.01594844 -0.01539941 -0.0148491
 -0.01430442 -0.01376919 -0.01325895 -0.01277108 -0.01231057 -0.01186706 -0.01143007 -0.01099015 -0.01053583 -0.01006105
 -0.009559337 -0.009027036 -0.008458928 -0.007863428 -0.007238983 -0.00660813 -0.005975079 -0.005353192 -0.004746104 -0.004141713
 -0.003539707 -0.002917898 -0.002275882 -0.001606491 -0.0009125193 -0.0002097245 0.0004970858 0.001179569 0.001835625 0.002444238
 0.003008228 0.003523926 0.003992313 0.00441521 0.004787019 0.005102891 0.005360524 0.005554561 0.005693994 0.005780115
 0.005824857 0.005831172 0.005809594 0.005760936 0.005702582 0.005635952 0.005580671 0.005538302 0.0055154 0.005511966
 0.005525228 0.005556191 0.0056104 0.005690825 0.005812695 0.005978426 0.006202515 0.006485209 0.006834956 0.00724742
 0.007722719 0.008250072 0.00882171 0.009424309 0.01004931 0.01068257 0.01131929 0.01193836 0.01253576 0.01308342
 0.01357654 0.01399023 0.01432124 0.01455189 0.01468066 0.0146983 0.01460524 0.01441158 0.01412128 0.01376775
 0.01335655 0.01292822 0.01248711 0.01206533 0.0116653 0.01130762 0.01098915 0.01071686 0.01047876 0.01026816
 0.01007044 0.009874957 0.009672019 0.009455577 0.009218877 0.00895938 0.008670884 0.008351771 0.007999003 0.00761208
 0.007189003 0.006729647 0.006230833 0.005692502 0.00511433 0.004496359 0.003839773 0.003142837 0.002399558 0.001606409
 0.0007509911 -0.0001700231 -0.001168105 -0.002246376 -0.003414484 -0.004671135 -0.006023053 -0.007453156 -0.008958273 -0.0105054
 -0.01208143 -0.01365766 -0.01522215 -0.01676455 -0.01828044 -0.01977012 -0.0212335 -0.022668 -0.02407371 -0.02544049
 -0.02676767 -0.02804161 -0.02926209 -0.03042077 -0.03151894 -0.03255792 -0.03353861 -0.03446425 -0.03533486 -0.0361505
 -0.03691489 -0.03763154 -0.03830781 -0.03895288 -0.0395676 -0.04015722 -0.0407134 -0.04123349 -0.04171223 -0.04214591
 -0.04254029 -0.04289512 -0.04322039 -0.04351718 -0.04379349 -0.04405002 -0.04429138 -0.04451764 -0.04472796 -0.04492191
 -0.04509519 -0.04524817 -0.04537981 -0.04549161 -0.0455874 -0.04566803 -0.04573716 -0.0457943 -0.04584071 -0.04587454
 -0.04589493 -0.04589918 -0.045885 -0.04585188 -0.04579837 -0.04572736 -0.04563963 -0.04553635 -0.04541822 -0.045283
 -0.0451302 -0.04496112 -0.04477554 -0.0445824 -0.04438231 -0.0441878 -0.04399938 -0.04382732 -0.04367076 -0.04353234
 -0.0434087 -0.04329148 -0.04317832 -0.04305886 -0.04293711 -0.04281361 -0.04269394 -0.04258591 -0.04248559 -0.0423946
 -0.04230227 -0.04220343 -0.04209433 -0.04197178 -0.04183992 -0.04169966 -0.04155059 -0.04139343 -0.04122033 -0.04103074
 -0.04081893 -0.04058484 -0.0403312 -0.0400588 -0.03977572 -0.03948215 -0.03918343 -0.03887863 -0.03856684 -0.0382492
 -0.03792607 -0.03760264 -0.03728628 -0.03698044 -0.03669282 -0.03641902 -0.03615906 -0.0359065 -0.03565727 -0.03541213
 -0.0351698 -0.03493534 -0.03470977 -0.03449537 -0.03429284 -0.03410079 -0.03391938 -0.03374256 -0.03356979 -0.03338753
 -0.03319549 -0.0329833 -0.03275464 -0.03251941 -0.03228493 -0.03207953 -0.03190421 -0.03177919 -0.03168979 -0.03162741
 -0.03156947 -0.03148916 -0.0313781 -0.03121791 -0.03102452 -0.03079868 -0.03056257 -0.03032462 -0.03009217 -0.02986937
 -0.02965061 -0.02943577 -0.02921921 -0.02900047 -0.02877643 -0.02854693 -0.02830956 -0.02806487 -0.02781592 -0.02756463
 -0.02732176 -0.0270888 -0.02687679 -0.02668373 -0.02651236 -0.0263563 -0.02620884 -0.02606187 -0.02590516 -0.02573334
 -0.02553855 -0.02532289 -0.0250828 -0.02483164 -0.02457061 -0.02432087 -0.02408747 -0.02388177 -0.02370809 -0.02355117
 -0.0234109 -0.02325723 -0.02308897 -0.02289194 -0.02266781 -0.02242651 -0.02217014 -0.02191382 -0.02165816 -0.02141253
 -0.02117696 -0.02095683 -0.02074937 -0.02055433 -0.02036521 -0.02017577 -0.01998069 -0.01977493 -0.01955432 -0.01931627
 -0.01905642 -0.01877108 -0.01846635 -0.0181404 -0.01781452 -0.01749131 -0.01718627 -0.01690161 -0.01663004 -0.01637107
 -0.01610957 -0.01584555 -0.01557366 -0.01529438 -0.01500749 -0.01471245 -0.01440683 -0.01409135 -0.01376541 -0.0134324
 -0.01309595 -0.0127617 -0.01243569 -0.01212453 -0.01183556 -0.01156903 -0.0113295 -0.01110504 -0.01089403 -0.01068124
 -0.01046242 -0.01023249 -0.00998923 -0.009739629 -0.009483693 -0.009234878 -0.008993867 -0.008772886 -0.008571414 -0.008389721
 -0.008225502 -0.008067104 -0.00791358 -0.007755645 -0.007594303 -0.007427982 -0.007255908 -0.007076216 -0.006888483 -0.006691021
 -0.006485609 -0.006274083 -0.006053863 -0.005824296 -0.005582566 -0.005323964 -0.005064656 -0.004804934 -0.004572722 -0.004373366
 -0.004212261 -0.004091365 -0.003990199 -0.003907777 -0.003826371 -0.003745529 -0.003655407 -0.003554363 -0.003427963 -0.003276173
 -0.003089381 -0.002872897 -0.002633508 -0.002375392 -0.002109123 -0.001832364 -0.001547115 -0.001248876 -0.0009337391 -0.000603145
 -0.0002527356 9.942604E-05 0.0004522452 0.0007732087 0.001053358 0.001280605 0.001447688 0.001589742 0.001708016 0.001851394
 0.002022035 0.002237923 0.002497407 0.002791118 0.003115209 0.003447213 0.003780979 0.004084101 0.004355331 0.004572012
 0.004746861 0.004888327 0.005009784 0.005132162 0.005250883 0.005370978 0.005479834 0.005570938 0.005641817 0.005689367
 0.005717614 0.005725919 0.005723415 0.005709809 0.005705336 0.005711675 0.005743944 0.005802742 0.005883179 0.005984766
 0.00610069 0.006231174 0.006375886 0.0065316 0.006687608 0.006840948 0.006978039 0.007102698 0.007215394 0.007318472
 0.007412899 0.007505435 0.007591386 0.00771018 0.007877237 0.008132695 0.00851642 0.008940189 0.009402844 0.009757338
 0.009967848 0.01006774 0.01005267 0.01003509 0.01002015 0.01005651 0.01014139 0.01026103 0.0104105 0.01055701
 0.01069875 0.01081128 0.01089866 0.01095551 0.01099247 0.01102535 0.0110563 0.01109845 0.01113546 0.0111592
 0.01115774 0.01111932 0.01105257 0.01095674 0.01084544 0.01072054 0.01059757 0.01047781 0.0103831 0.01031627
 0.01027934 0.01027219 0.01026266 0.01024887 0.01019876 0.01011337 0.009982085 0.009806531 0.009582921 0.009320139
 0.009028679 0.008734759 0.008485315 0.00829309 0.008203029 0.008175021 0.00819788 0.008223069 0.00821403 0.008177312
 0.008100837 0.008027599 0.007964686 0.007948251 0.007986792 0.008085083 0.008246807 0.008429158 0.00862998 0.008804936
 0.008957014 0.00910803 0.009264432 0.009478245 0.009742087 0.0100601 0.010418 0.01078411 0.01115269 0.01150139
 0.01182812 0.01211835 0.01238501 0.01262276 0.0128788 0.0131751 0.0135476 0.01402542 0.01457187 0.0151902
 0.01580778 0.01641207 0.01697114 0.0174793 0.0179462 0.01837215 0.01877398 0.01915269 0.0195267 0.01989371
 0.02025453 0.02059788 0.02088424 0.0211076 0.0212286 0.02126259 0.02121531 0.02110481 0.02095615 0.02077111
 0.02055849 0.02031772 0.02005032 0.01975639 0.01943674 0.0190882 0.01870468 0.01831507 0.01791672 0.01758453
 0.01732551 0.01719001 0.01718079 0.01726142 0.01742527 0.01758028 0.01772116 0.01776667 0.01772518 0.01757465
 0.01734336 0.01708306 0.01682169 0.01663465 0.01651365 0.01648602 0.01651304 0.01657464 0.0166386 0.01668413
 0.01668837 0.01664116 0.01651895 0.0163104 0.01602403 0.01565412 0.01525555 0.01483236 0.01443426 0.01406415
 0.01372806 0.01342474 0.0131396 0.01287113 0.01260443 0.01233757 0.01205445 0.01175724 0.01144075 0.01111362
 0.01078632 0.01046886 0.01017273 0.009915817 0.009712966 0.009584451 0.009552678 0.009598517 0.009730123 0.009882511
 0.01004076 0.01016247 0.01023389 0.01027263 0.01027835 0.01027896 0.01027603</values></Ydata></AB><ScSm><Ydata ylabel="Single channel"><values byteorder="INTEL" format="FLOAT32" numvalues="1814"> 0.07014364 0.07014072 0.07020542 0.07035697 0.07056348 0.07076185 0.07090162 0.07097543 0.07099981 0.0709762
 0.07090555 0.0708405 0.07087324 0.07104479 0.07128687 0.07146877 0.07150342 0.07142577 0.07137269 0.07144879
 0.0715867 0.07157006 0.07123698 0.07066286 0.07011008 0.0697871 0.06971856 0.06989611 0.07040714 0.07119171
 0.07176686 0.07156993 0.07066548 0.06978086 0.06950043 0.06970505 0.06991046 0.06982966 0.06946062 0.06897401
 0.06876629 0.06935778 0.07088064 0.07265034 0.07341122 0.07213391 0.06875291 0.06439374 0.06095155 0.06007462
 0.06200652 0.06525828 0.0677263 0.06837019 0.06770981 0.06675747 0.06592433 0.06515698 0.06465199 0.06489545
 0.065998 0.06724237 0.06745429 0.06600805 0.06356657 0.06160817 0.06107481 0.06178219 0.06321125 0.06507724
 0.06652157 0.06565574 0.06141852 0.05592147 0.05350487 0.05661138 0.06318195 0.0686717 0.070094 0.06769565
 0.06363766 0.06020233 0.05893269 0.06021833 0.06322482 0.06658459 0.06922692 0.07043092 0.06964014 0.06694393
 0.06355507 0.06122619 0.06117393 0.0636005 0.06764992 0.07148465 0.07311846 0.07188125 0.06886621 0.0657752
 0.0637964 0.06359783 0.06549253 0.06911571 0.07340917 0.07723142 0.07981868 0.08086248 0.08057787 0.07956551
 0.07835253 0.07730855 0.07696597 0.07768927 0.07882017 0.07893193 0.07738303 0.07516971 0.07389568 0.07411361
 0.07488862 0.07493785 0.07392791 0.07226691 0.06983747 0.06596833 0.06097344 0.05656988 0.05416358 0.05377364
 0.05504739 0.05781494 0.06089944 0.06204522 0.06038847 0.05803458 0.0579727 0.06088521 0.06479491 0.06747457
 0.06850944 0.0691381 0.07065964 0.07310537 0.07507756 0.07480379 0.07189147 0.06831324 0.06701393 0.06902288
 0.07246597 0.07487226 0.07577942 0.07646462 0.07770475 0.07856843 0.07738708 0.07374002 0.06952048 0.06776807
 0.07002205 0.07477941 0.07858521 0.07858949 0.07446288 0.06846836 0.06369747 0.06193279 0.06316633 0.06677333
 0.0722034 0.0783664 0.08334593 0.08547072 0.084535 0.08170551 0.0781898 0.07411994 0.06918311 0.06447038
 0.06270957 0.0656893 0.07197482 0.07810193 0.08166803 0.08253427 0.08148649 0.07876214 0.07426605 0.0689787
 0.06541727 0.06568724 0.0689514 0.07190168 0.07222006 0.07069182 0.0695103 0.06954139 0.0699964 0.07010666
 0.07021272 0.07116947 0.07312013 0.07516257 0.07622305 0.0760363 0.07519741 0.07446845 0.07408775 0.07359627
 0.07248094 0.07118522 0.07107475 0.07294558 0.07593349 0.07840036 0.07958099 0.07987471 0.07976127 0.07895919
 0.0768422 0.07362758 0.07086515 0.07028954 0.07214195 0.07501874 0.07733298 0.07845571 0.07856581 0.07807742
 0.07735919 0.07661265 0.0759315 0.07556418 0.07585676 0.07676445 0.07773018 0.0782424 0.07825693 0.07795655
 0.07739177 0.0765429 0.07557057 0.0748258 0.07460132 0.07491228 0.07553162 0.07619204 0.0766847 0.07683016
 0.0765418 0.07595323 0.07533552 0.07485235 0.07450912 0.07432501 0.07438509 0.07468256 0.07504385 0.07527681
 0.07532378 0.07523336 0.07505102 0.07478829 0.07446637 0.07415149 0.07394479 0.07391873 0.07403623 0.07416709
 0.07423073 0.07427785 0.07436945 0.07443503 0.07434497 0.0740913 0.07380758 0.07362174 0.07355443 0.07354985
 0.0735389 0.07344806 0.07319811 0.07277299 0.07230803 0.07203862 0.0721055 0.07244555 0.07288996 0.07329815
 0.07357804 0.07368201 0.07364357 0.07355209 0.07344951 0.07329731 0.07306406 0.07280932 0.07266545 0.07273673
 0.0730031 0.07332794 0.07357346 0.07369073 0.07370454 0.07367209 0.07366676 0.07372752 0.0737995 0.07378556
 0.07367392 0.07356322 0.07354927 0.0736231 0.07368969 0.07367192 0.07359239 0.07354884 0.07360615 0.0737331
 0.07385485 0.073939 0.07400861 0.07408688 0.07414803 0.07413217 0.07401796 0.0738669 0.07376643 0.07373866
 0.0737444 0.07376553 0.0738304 0.07395008 0.07407439 0.07413535 0.07411855 0.07407285 0.0740482 0.07403628
 0.07398673 0.0738764 0.07374077 0.07363455 0.07358104 0.0735652 0.07355861 0.07353934 0.07349499 0.07341954
 0.07331346 0.07318476 0.07304446 0.07290547 0.07279237 0.0727392 0.0727552 0.07279333 0.07277495 0.07265791
 0.07247558 0.07230264 0.07218333 0.07209805 0.07200038 0.07187474 0.07174517 0.07163836 0.07155993 0.07150453
 0.07146572 0.07143339 0.07140435 0.07140379 0.07147361 0.07162076 0.07178901 0.07190342 0.07194135 0.0719454
 0.07197057 0.07203627 0.07212673 0.07222094 0.07231964 0.07244742 0.07261761 0.07279604 0.07292677 0.0730013
 0.07307266 0.07319251 0.07336615 0.07357323 0.0737894 0.07397697 0.07409941 0.07416802 0.0742433 0.07437079
 0.07453841 0.0747093 0.07487075 0.07503396 0.07520622 0.07538736 0.07558751 0.07582853 0.07612322 0.07645676
 0.07678741 0.07706814 0.0772825 0.07746896 0.0776993 0.07801902 0.07840751 0.07879948 0.07914372 0.07944065
 0.07972602 0.08002347 0.08032508 0.08062345 0.08094391 0.08131987 0.0817434 0.08216758 0.08255787 0.08292013
 0.08327839 0.08364686 0.08402827 0.084425 0.08484353 0.08528602 0.08573401 0.0861467 0.0864915 0.08677936
 0.08706059 0.0873847 0.0877661 0.08817513 0.08855136 0.0888451 0.08906954 0.0892996 0.08959401 0.08992872
 0.09023584 0.0904993 0.09077522 0.09111371 0.09149578 0.09186422 0.09219175 0.09249742 0.09280795 0.09312098
 0.09340498 0.09362885 0.0937949 0.09394225 0.0941135 0.09432711 0.09459024 0.09491695 0.09530529 0.09570907
 0.09606506 0.09634588 0.09656562 0.09674799 0.0969153 0.09709358 0.09729667 0.0975118 0.09771839 0.09790626
 0.09806703 0.09819685 0.09832366 0.09849966 0.09874628 0.0990348 0.09933813 0.09966885 0.1000409 0.1004263
 0.1007878 0.101139 0.101527 0.1019532 0.1023484 0.1026449 0.1028419 0.1029828 0.1031009 0.1032242
 0.1034055 0.1036972 0.1040947 0.1045351 0.1049558 0.1053344 0.1056773 0.1059909 0.1062701 0.1065033
 0.1066836 0.1068196 0.1069384 0.1070785 0.1072735 0.1075286 0.1078089 0.1080604 0.1082466 0.1083567
 0.1083798 0.1083002 0.1081335 0.1079444 0.1077914 0.1076567 0.107454 0.1071061 0.106596 0.1059443
 0.1051691 0.104283 0.1033191 0.1023434 0.1014386 0.1006757 0.1001067 0.09978345 0.09976429 0.100074
 0.1006525 0.1013592 0.1020322 0.1025335 0.1027513 0.1026073 0.1020908 0.1012747 0.1002778 0.09921211
 0.09815717 0.09715123 0.09618951 0.09525277 0.09436563 0.09362588 0.09316953 0.09312382 0.09360424 0.0947196
 0.09651382 0.09886889 0.1014877 0.1040158 0.1062092 0.1080046 0.1094671 0.1107066 0.1118254 0.1128863
 0.1138947 0.1148232 0.1156587 0.1164151 0.1171033 0.1177139 0.1182277 0.1186284 0.1189097 0.119087
 0.119195 0.1192636 0.1193064 0.1193362 0.1193687 0.1193954 0.1193666 0.1192143 0.1188859 0.1183591
 0.1176476 0.1168278 0.1160892 0.1157614 0.1162255 0.1176982 0.1200518 0.1228574 0.1256256 0.1280211
 0.1299137 0.131323 0.1323569 0.1331569 0.1338428 0.1344834 0.1351037 0.1357047 0.1362774 0.1368154
 0.137324 0.1378197 0.1383213 0.1388346 0.1393442 0.1398251 0.1402702 0.1407027 0.1411556 0.1416422
 0.1421452 0.1426341 0.1430959 0.1435475 0.144009 0.1444695 0.1448967 0.1452809 0.1456485 0.1460352
 0.146459 0.1469166 0.1473835 0.1478214 0.1482062 0.1485505 0.1488874 0.1492362 0.1495952 0.1499588
 0.150328 0.150703 0.1510781 0.1514506 0.1518281 0.152217 0.1526035 0.1529568 0.1532606 0.1535357
 0.1538221 0.1541417 0.154482 0.1548158 0.1551346 0.1554626 0.1558324 0.1562452 0.1566603 0.1570291
 0.1573382 0.1576147 0.1578956 0.1582009 0.1585295 0.1588703 0.1592113 0.1595464 0.1598775 0.1602103
 0.160547 0.1608843 0.1612181 0.1615469 0.1618716 0.1621955 0.1625219 0.1628521 0.1631875 0.1635341
 0.1638997 0.1642793 0.1646495 0.1649875 0.1652911 0.1655758 0.1658552 0.1661347 0.1664198 0.1667171
 0.1670262 0.167339 0.1676511 0.1679656 0.1682852 0.1686055 0.1689229 0.1692417 0.1695681 0.169901
 0.1702347 0.1705697 0.170912 0.1712607 0.1716024 0.171924 0.1722265 0.1725226 0.1728244 0.1731334
 0.1734413 0.173739 0.1740277 0.1743201 0.1746281 0.1749506 0.1752737 0.1755846 0.1758819 0.1761762
 0.1764787 0.176792 0.1771096 0.177423 0.1777298 0.1780344 0.1783421 0.178651 0.178954 0.1792491
 0.1795444 0.1798497 0.1801665 0.1804877 0.1808034 0.1811089 0.1814072 0.1817032 0.1819965 0.1822847
 0.1825699 0.1828567 0.1831454 0.1834356 0.1837316 0.184037 0.1843472 0.1846544 0.1849565 0.1852585
 0.1855683 0.1858899 0.1862183 0.1865434 0.1868594 0.1871675 0.1874717 0.1877764 0.1880826 0.1883848
 0.1886782 0.1889696 0.1892706 0.1895834 0.1898997 0.1902099 0.1905091 0.1907988 0.1910861 0.1913759
 0.1916641 0.1919464 0.1922256 0.1925072 0.192793 0.1930833 0.1933789 0.1936817 0.1939955 0.1943202
 0.1946441 0.194953 0.1952464 0.1955343 0.1958242 0.1961208 0.1964278 0.1967454 0.1970718 0.1974052
 0.1977371 0.1980523 0.1983478 0.1986389 0.1989398 0.1992505 0.1995639 0.1998713 0.2001664 0.2004535
 0.2007457 0.2010488 0.2013588 0.2016713 0.2019809 0.2022841 0.2025873 0.2029001 0.2032156 0.2035191
 0.2038109 0.2041024 0.2044 0.2047052 0.2050162 0.2053241 0.2056229 0.2059208 0.206224 0.2065256
 0.2068207 0.2071145 0.207411 0.2077108 0.2080156 0.2083194 0.2086126 0.2089001 0.2091906 0.2094626
 0.209652 0.2096184 0.2090333 0.2072484 0.2032726 0.1959737 0.1845404 0.1690026 0.1503969 0.1303895
 0.1106618 0.09248251 0.0765982 0.06334013 0.05278425 0.04484619 0.03934318 0.03611325 0.03514253 0.0366867
 0.04139756 0.04994008 0.06154987 0.07274888 0.07869359 0.07699756 0.0700115 0.06267683 0.05841396 0.05746524
 0.0583683 0.05987507 0.06159328 0.06375645 0.06676215 0.0707249 0.07545614 0.08094699 0.08760497 0.09573378
 0.104907 0.1141456 0.1227624 0.1309049 0.1392231 0.1480909 0.1572128 0.1659124 0.1736716 0.180392
 0.1862885 0.1916491 0.1966743 0.2014554 0.2060278 0.2103729 0.2143359 0.2175918 0.2197924 0.2208253
 0.2209498 0.2206583 0.2203861 0.2203345 0.2205195 0.2209074 0.2214756 0.2222044 0.2230677 0.2240337
 0.2250635 0.2261202 0.2271793 0.2282226 0.2292278 0.2301724 0.2310418 0.2318299 0.2325419 0.2331944
 0.2338045 0.2343816 0.2349305 0.2354538 0.235948 0.2364103 0.2368457 0.2372633 0.2376683 0.2380629
 0.2384469 0.2388135 0.2391532 0.2394651 0.2397596 0.2400512 0.2403503 0.2406593 0.2409739 0.2412904
 0.2416072 0.2419176 0.2422118 0.2424938 0.2427839 0.2430953 0.2434171 0.2437275 0.2440148 0.2442843
 0.244553 0.244837 0.2451389 0.2454465 0.2457471 0.2460375 0.2463199 0.2465985 0.2468779 0.2471623
 0.2474574 0.2477724 0.248109 0.2484496 0.2487736 0.249082 0.2493918 0.2497115 0.2500374 0.2503623
 0.2506732 0.2509522 0.2511949 0.2514228 0.2516688 0.2519529 0.2522693 0.2525919 0.2529029 0.2532081
 0.2535205 0.2538349 0.254133 0.2544028 0.2546515 0.2549099 0.255215 0.255572 0.255948 0.2563145
 0.2566718 0.2570246 0.257367 0.2576997 0.2580231 0.2583122 0.2585378 0.2587234 0.2589558 0.259319
 0.2598121 0.2603383 0.2607915 0.2611494 0.2614658 0.261799 0.262176 0.2625716 0.2628772 0.2629725
 0.2629111 0.2629577 0.2633452 0.2640411 0.2648139 0.2654712 0.2659752 0.2663824 0.2667445 0.26706
 0.2672807 0.2673695 0.2673843 0.2675043 0.2679089 0.2685884 0.2693305 0.2699354 0.2703741 0.2707123
 0.2709975 0.2712522 0.2714337 0.2713689 0.2709384 0.2704022 0.2703323 0.2710584 0.2722933 0.273438
 0.2741758 0.2746315 0.2750282 0.2754099 0.2757141 0.2758304 0.2754694 0.2743296 0.2727023 0.2716327
 0.2720543 0.2738461 0.2760201 0.2777055 0.2786948 0.2792183 0.2795566 0.2798544 0.2800149 0.2797153
 0.2787637 0.2775714 0.2770503 0.2777743 0.2793369 0.2807864 0.2815985 0.2819551 0.282239 0.2826024
 0.2828574 0.2824256 0.2806712 0.2778391 0.2755183 0.2755226 0.2781215 0.2817193 0.2844372 0.285728
 0.2862234 0.2863506 0.2857023 0.2837743 0.2807298 0.2773171 0.2746342 0.273991 0.2760447 0.2797021
 0.2827365 0.2839869 0.2843396 0.2852606 0.2870447 0.2888258 0.2897043 0.2894404 0.288305 0.2865964
 0.2844968 0.2825143 0.2817515 0.2831312 0.2862751 0.2896349 0.2919187 0.2930667 0.2935775 0.2929999
 0.2896348 0.2825798 0.2742787 0.2698413 0.2725348 0.280367 0.2882237 0.2928901 0.2948071 0.2956791
 0.2961941 0.2958226 0.2931208 0.2865331 0.27685 0.2687284 0.2675274 0.2740058 0.2834634 0.2901261
 0.2910708 0.2865244 0.2788275 0.2717406 0.2689103 0.271657 0.2783972 0.2862068 0.2925749 0.2960886
 0.2964195 0.2941956 0.290957 0.2887729 0.2887396 0.2893561 0.2876698 0.2830062 0.2780961 0.2750696
 0.2721668 0.2669906 0.2617485 0.2617798 0.2686123 0.2774161 0.2824311 0.2827974 0.2815216 0.279996
 0.2756195 0.2655576 0.2521335 0.2429056 0.2440459 0.2539362 0.2646169 0.2695636 0.2688549 0.2668382
 0.2663315 0.2657691 0.2614488 0.2523824 0.2427304 0.2383089 0.240418 0.2446831 0.2462372 0.2436244
 0.2371056 0.2270544 0.2166885 0.2130767 0.2211676 0.2377084 0.2537917 0.2621813 0.2599624 0.2469549
 0.2266722 0.208342 0.2024092 0.2112088 0.2261327 0.2355446 0.2340189 0.2232977 0.2072752 0.1893086
 0.1737417 0.1663929 0.1710385 0.1855545 0.2021151 0.2111737 0.2067294 0.1909134 0.174227 0.1679979
 0.1741766 0.1840773 0.1881276 0.1845329 0.1779084 0.1732453 0.1729881 0.176733 0.1817067 0.1853189
 0.1872375 0.1866329 0.1794024 0.1631764 0.1441242 0.132932 0.1336696 0.1416867 0.1522254 0.1646495
 0.1768326 0.1822675 0.1774357 0.1685691 0.1663712 0.1746684 0.1871058 0.1948557 0.195328 0.1926559
 0.1912587 0.1910571 0.1897644 0.1881548 0.1902162 0.1976655 0.2069509 0.2132206 0.2153784 0.2156295
 0.2157605 0.2158014 0.2152866 0.2140539 0.2121669 0.210039 0.2083001 0.2070667 0.2058204 0.2041508
 0.2017566 0.1974155 0.1893004 0.1777118 0.1667252 0.1610291 0.1610344 0.1632181 0.1652382 0.1672628
 0.1672756 0.159785 0.1431155 0.1253085 0.118272 0.1263115 0.1429478 0.1582265 0.1662494 0.1656583
 0.1567436 0.1418 0.1276666 0.1235696 0.1336184 0.1529043 0.1727814 0.1882522 0.1984647 0.2026789
 0.1996126 0.1905858 0.1806705 0.1758191 0.1793185 0.190333 0.2040797 0.2129525 0.2102599 0.1969654
 0.1847604 0.1873963 0.2061213 0.2274421 0.2382817 0.2392484 0.2391615 0.241343 0.24204 0.2402006
 0.2412999 0.2498189 0.2626191 0.2720281 0.2725781 0.2631589 0.2462464 0.2283801 0.2184694 0.2207206
 0.2299366 0.2372125 0.2385561 0.2343751 0.2242257 0.2089908 0.1964396 0.1965483 0.2099141 0.2264049
 0.2366979 0.2407945 0.243794 0.2471259 0.2468263 0.2395504 0.2281434 0.2198718 0.2192057 0.2238773
 0.2286468 0.2307942 0.2301841 0.226175 0.2180032 0.2081802 0.2025165 0.2051028 0.2141237 0.2236112
 0.2288402 0.2293231 0.2273459 0.2250841 0.2231749 0.2209355 0.2178008 0.2151576 0.2160609 0.2218806
 0.2299581 0.2362726 0.240017 0.2438282 0.2496503 0.2560285 0.2598464 0.2597167 0.2573249 0.2559901
 0.2580011 0.2627734 0.2672574 0.2685155 0.2665014 0.2643665 0.2655616 0.2705349 0.2766705 0.2812651
 0.2837499 0.2851097 0.2862604 0.2872748 0.2873465 0.2854103 0.2816668 0.278474 0.2786783 0.2827871
 0.288477 0.2929766 0.2952807 0.2960052 0.2959014 0.295068 0.2933884 0.2912335 0.2894526 0.2887135
 0.2890375 0.2899962 0.2911583 0.2922654 0.2931896 0.2939088 0.2944742 0.2949242 0.2952642 0.2955278
 0.2957561 0.2959062 0.2958913 0.2957584 0.2957182 0.2959134 0.2962328 0.2964336 0.2963747 0.2960188
 0.295285 0.2940687 0.2924107 0.2904958 0.2884411 0.2862142 0.2838781 0.2818703 0.2808867 0.2813691
 0.2830971 0.2853193 0.2872763 0.2885895 0.2892513 0.2894198 0.2892812 0.2890028 0.2886965 0.2883933
 0.2880722 0.2877178 0.2873446 0.2869746 0.2866168 0.2862807 0.2859975 0.2858017 0.2856874 0.2855922
 0.2854332 0.2851599 0.2847866 0.2843755 0.2839827 0.2836059 0.2831843 0.2826471 0.2819663 0.281171
 0.2803272 0.2795009 0.2787161 0.2779334 0.277082 0.2761187 0.2750336 0.2738004 0.2723885 0.2708539
 0.2693601 0.2680493 0.2669249 0.265887 0.2648374 0.2637155 0.2624809 0.2611176 0.2596477 0.2581147
 0.2565528 0.2549686 0.2533443 0.2516557 0.2498898 0.2480398 0.2460933 0.2440405 0.2418915 0.2396681
 0.2373656 0.2349213 0.2322204 0.2291327 0.2255439 0.2213719 0.2165967 0.2113018 0.205676 0.1999524
 0.1943406 0.1889996 0.1840467 0.1795791 0.1756911 0.1724656 0.1699502 0.1681538 0.1670663 0.1666698
 0.1669383 0.1678407 0.1693316 0.1713221 0.1736645 0.1761727 0.1786549 0.1809551 0.1830061 0.1848564
 0.1866186 0.1883711 0.190106 0.191765 0.193306 0.1947191 0.1959894 0.1970791 0.1979642 0.1986638
 0.1992124 0.1996217 0.1998862 0.2000074 0.1999922 0.1998422 0.1995623 0.1991822 0.1987678 0.1984066
 0.1981763 0.1981279 0.1982936 0.1986928 0.1993153 0.2001064 0.2009794 0.2018476 0.2026622 0.2034325
 0.2042056 0.205026 0.2059282 0.2069608 0.2081861 0.209644 0.211328 0.2131882 0.2151469 0.217122
 0.2190537 0.2209165 0.2227119 0.2244542 0.2261506 0.2277826 0.229313 0.2307119 0.2319701 0.2330925
 0.2340839 0.234937 0.2356306 0.2361475 0.2364879 0.2366634 0.236695 0.2366237 0.2364969 0.2363319
 0.236113 0.2358305 0.2354999 0.2351431 0.2347686 0.2343709 0.2339395 0.2334711 0.232974 0.2324544
 0.2319007 0.2312849 0.2305717 0.2297287 0.2287402 0.2276135 0.2263617 0.224988 0.2234973 0.2219082
 0.2202426 0.218508 0.2166941 0.2147862 0.2127879 0.2107273 0.208621 0.2064442 0.2041689 0.2018292
 0.1995165 0.1973114 0.1952421 0.1932972 0.1914511 0.1896791 0.1879647 0.1863031 0.1847014 0.1831776
 0.181747 0.1804033 0.1791236 0.1778951 0.1767294 0.1756567 0.1747104 0.1739017 0.1732021 0.1725708
 0.1719987 0.1715111 0.1711309 0.1708611 0.1706889 0.1705824 0.1704871 0.170346 0.1701289 0.1698469
 0.1695422 0.1692565 0.1690039 0.1687778 0.1685695 0.1683534 0.1680594 0.1675847 0.1668332 0.1657431
 0.1643007 0.1625447 0.1605575 0.1584527 0.1563694 0.1544484 0.1527856 0.1514161 0.1503334 0.1494964
 0.1488264 0.1482435 0.1477252 0.1473247 0.1471242 0.1471447 0.1472787 0.1473449 0.1472524 0.147093
 0.1470518 0.1472542 0.1477014 0.1482933 0.1488895 0.1493801 0.1497184 0.1498992 0.1499407 0.1498874
 0.1497772 0.1496025 0.1493373 0.1489857 0.1485732 0.1481169 0.1476245 0.1470908 0.1464917 0.1458085
 0.1450401 0.1441789 0.1432141 0.1421566 0.1410075 0.1397398 0.1383983 0.1371911 0.1363985 0.1361874
 0.136524 0.1372173 0.1380531 0.138922 0.1397678 0.140402 0.140567 0.1403418 0.1403367 0.1412413
 0.1431561 0.1454832 0.1474667 0.1487254 0.1492719 0.1492208 0.1486397 0.1475721 0.1460243 0.1439657
 0.1414404 0.1385993 0.1355799 0.1324876 0.1294993 0.126818 0.1245383 0.1226611 0.1211684 0.1201082
 0.1196336 0.1193865 0.1174831 0.1115039 0.1022026 0.09518023 0.09618933 0.1046725 0.1141307 0.1189979
 0.1190933 0.1173645 0.1158567 0.1148829 0.1143382 0.1143607 0.1150796 0.1163578 0.1178019 0.1189952
 0.1197691 0.1201724 0.120168 0.1194009 0.117156 0.1126025 0.1054597 0.09658384 0.08766732 0.08024223
 0.07501134 0.07188666 0.07029875 0.06951177 0.06899288 0.06867668 0.06886856 0.06987619 0.07174104 0.07429092
 0.07732489 0.0806067 0.08374858 0.0863522 0.08832276 0.0898587 0.09109657 0.09194168 0.09226406 0.09208614
 0.0915429 0.09077692 0.08990061 0.08897937 0.08800413 0.0869114 0.08570281 0.08456618 0.08378847 0.08348738
 0.08350895 0.08363005 0.08374847 0.08384176 0.08388047 0.08384661 0.08376709 0.08372192 0.08384334 0.08422634
 0.08479302 0.08532213 0.08564371 0.08575843 0.08578122 0.08578715 0.0856797 0.08527599 0.08461361 0.08401655
 0.08365794 0.0832321 0.08235209 0.08116074 0.08025248 0.08002655 0.08033562 0.08073799 0.08090063 0.08075805
 0.08047678 0.08036374 0.08066775 0.08129893</values></Ydata></ScSm><ScRf><Ydata ylabel="Single channel"><values byteorder="INTEL" format="FLOAT32" numvalues="1820"> 0.06080689 0.06096548 0.06106026 0.0610928 0.06108917 0.06109528 0.0611605 0.06130828 0.06151508 0.0617185
 0.0618583 0.06191778 0.06191711 0.06187312 0.06179751 0.06173635 0.06176523 0.0619175 0.06213427 0.06230096
 0.06233691 0.06226671 0.06220913 0.06226132 0.06237072 0.06234958 0.06205514 0.06155358 0.06107453 0.06079748
 0.06074137 0.06090102 0.0613573 0.06205849 0.06257851 0.06242157 0.06164282 0.06087764 0.06063594 0.06081321
 0.06098687 0.06090774 0.06057716 0.06014843 0.0599697 0.06049256 0.06182787 0.06337559 0.06403778 0.06291139
 0.05993539 0.05609703 0.05306559 0.05229558 0.05400307 0.05687471 0.05905281 0.05961756 0.05902988 0.05818997
 0.05746599 0.05680728 0.05637609 0.05659153 0.05755037 0.05862755 0.05879762 0.05751562 0.05536643 0.05364825
 0.05318611 0.05381594 0.05508026 0.0567269 0.05799948 0.05723928 0.05351732 0.048693 0.0465834 0.04933586
 0.05513606 0.05997903 0.06123044 0.05910873 0.05552642 0.05250281 0.05139468 0.05253272 0.05517346 0.05811628
 0.06042693 0.06147544 0.06077552 0.05841184 0.0554531 0.05343106 0.05340163 0.05553693 0.0590885 0.06244649
 0.06386752 0.06276384 0.06009872 0.05737155 0.05562927 0.05545922 0.05713484 0.06033392 0.06412508 0.06750213
 0.06978877 0.07071028 0.07045849 0.06957134 0.06852084 0.06762849 0.06734815 0.06798937 0.06897556 0.06906217
 0.06769246 0.0657444 0.06462708 0.06482346 0.06550747 0.06555027 0.06466347 0.06320955 0.06107953 0.05767208
 0.05326167 0.04936965 0.04724445 0.04690766 0.04805166 0.05052707 0.05328593 0.05432098 0.05286097 0.05077051
 0.05070084 0.05326251 0.05671248 0.05908465 0.06001242 0.06058776 0.06195419 0.06413375 0.06588741 0.06564988
 0.06307986 0.05992575 0.05878929 0.06057379 0.06361777 0.065741 0.06654647 0.06717341 0.06830874 0.06911952
 0.06812149 0.06494389 0.06126816 0.05978042 0.0618278 0.06606924 0.06944959 0.06945425 0.06579886 0.06049773
 0.05629934 0.05478422 0.05594279 0.05922678 0.0641569 0.06976453 0.07433483 0.07636171 0.07563761 0.07318577
 0.07008653 0.06647258 0.06207877 0.05790108 0.05640978 0.05922322 0.06504038 0.07071951 0.0740772 0.07498299
 0.07414897 0.07178451 0.06779018 0.06306265 0.05993229 0.06035414 0.06354745 0.06643146 0.06684947 0.06554043
 0.06456 0.06472242 0.06528752 0.06553328 0.06578887 0.06687048 0.06891035 0.07104041 0.07223064 0.07222448
 0.07158849 0.07105267 0.07084594 0.07052716 0.06961213 0.06854685 0.06865302 0.07067701 0.07375842 0.0763123
 0.07761709 0.07807382 0.07814179 0.07752547 0.07559709 0.07257602 0.07000984 0.06962846 0.07167287 0.07474281
 0.07725155 0.07856776 0.07886961 0.0785706 0.07803743 0.07747494 0.07698772 0.0768318 0.07734705 0.07847278
 0.07964067 0.08034095 0.08053624 0.08040618 0.07999006 0.07926945 0.07842844 0.0778449 0.07781763 0.07834576
 0.07918216 0.08005016 0.08073938 0.08106399 0.0809269 0.0804653 0.07997331 0.07963464 0.07945488 0.07944687
 0.07969806 0.08020225 0.08077115 0.08119166 0.08139592 0.08143782 0.08137576 0.08122943 0.08101878 0.08081254
 0.08072926 0.0808551 0.08113836 0.08142228 0.08162737 0.08183159 0.08210466 0.08234335 0.08237784 0.08219871
 0.08197901 0.08188485 0.08193794 0.08205608 0.08215034 0.08214611 0.0819675 0.08160009 0.08118998 0.08099578
 0.0811822 0.08169816 0.08236638 0.08301187 0.08349611 0.08374566 0.08380541 0.08379132 0.08375612 0.08365532
 0.08345643 0.08323492 0.083147 0.08331282 0.08371046 0.08418491 0.08457209 0.08480161 0.08489498 0.08493124
 0.08501817 0.08520845 0.08541897 0.08550671 0.08544599 0.08536576 0.0853937 0.0855145 0.08560367 0.08557582
 0.08548184 0.0854571 0.08558002 0.08580053 0.08601315 0.08617412 0.08632727 0.08652325 0.08672491 0.08681287
 0.08671212 0.08649829 0.0863291 0.08627802 0.08629917 0.08635239 0.08647434 0.08669005 0.08692336 0.08705914
 0.08707439 0.0870585 0.08709832 0.08717468 0.08719097 0.08708672 0.08690138 0.08673381 0.08666117 0.08669357
 0.08678111 0.08685201 0.08685575 0.0867876 0.08668034 0.08657162 0.08647986 0.08641799 0.08642541 0.08655474
 0.08679716 0.08703363 0.08710358 0.08694707 0.08667067 0.0864536 0.08638321 0.08638644 0.08632222 0.0861264
 0.085857 0.08561486 0.08544946 0.08534272 0.08525471 0.08516788 0.08510384 0.08511254 0.08522506 0.08539154
 0.08548366 0.08539834 0.08515961 0.08489259 0.0847056 0.08462183 0.08460302 0.08459973 0.08459108 0.08460398
 0.08467323 0.08476759 0.08479781 0.08472317 0.08460779 0.08455244 0.08461274 0.08478609 0.08501429 0.08518688
 0.08521084 0.08510672 0.08499354 0.08496515 0.08501776 0.08510043 0.08518722 0.08527985 0.08537618 0.08547011
 0.08557571 0.0857282 0.08595125 0.08622436 0.0864848 0.08666863 0.08676419 0.08683287 0.08696823 0.08722088
 0.08755758 0.08789222 0.0881566 0.08834735 0.08851232 0.08869434 0.0888953 0.08910139 0.08932557 0.08959606
 0.08990909 0.09022611 0.09052108 0.09080382 0.09109356 0.09139257 0.09169473 0.09200905 0.09236678 0.09279195
 0.09325134 0.09364867 0.09390013 0.09401956 0.09411384 0.09429878 0.09462023 0.09502377 0.09538172 0.0955895
 0.09567157 0.09576498 0.09596703 0.09623374 0.0964678 0.09667127 0.09694839 0.09736071 0.09783329 0.09822518
 0.09846786 0.09861593 0.09877065 0.09896909 0.09915787 0.09927596 0.09934218 0.09943286 0.09958499 0.09976989
 0.09997241 0.1002395 0.1006112 0.1010419 0.101436 0.1017383 0.1019552 0.1021096 0.1022157 0.1022831
 0.1023183 0.1023324 0.1023599 0.1024387 0.1025554 0.102645 0.1026703 0.1026725 0.1027235 0.1028583
 0.1030738 0.1033589 0.1036859 0.1040004 0.1042693 0.104535 0.1048699 0.1052621 0.1055949 0.1057694
 0.1058114 0.1058173 0.1058344 0.1058542 0.1058977 0.1060317 0.1062898 0.1066306 0.1069909 0.1073456
 0.1076995 0.1080468 0.108354 0.1085732 0.1086728 0.1086657 0.1086162 0.108613 0.1087278 0.1089774
 0.1093133 0.1096539 0.1099363 0.110133 0.1102271 0.110209 0.1101237 0.1100824 0.1101763 0.1103744
 0.110536 0.11053 0.1103189 0.1099363 0.1094207 0.1088 0.1081205 0.1074617 0.1069065 0.1065034
 0.1062676 0.1062219 0.1064144 0.1068685 0.1075201 0.1082344 0.1088878 0.1094047 0.1097143 0.1097308
 0.109413 0.108822 0.1080896 0.1073405 0.1066501 0.1060361 0.1054634 0.1048924 0.1043641 0.1040318
 0.1040859 0.1046426 0.1056892 0.1070928 0.1086405 0.1101064 0.1113397 0.1123186 0.1131184 0.1138271
 0.1144931 0.1151422 0.1158027 0.116482 0.1171368 0.1177078 0.1181834 0.1186034 0.1190037 0.1193853
 0.1197298 0.1200194 0.1202503 0.1204458 0.1206387 0.1208201 0.1209306 0.1209274 0.1208395 0.1207291
 0.1206145 0.1204527 0.1201865 0.1197983 0.1193399 0.1189382 0.1187708 0.1189993 0.1196834 0.1207404
 0.1220012 0.1233156 0.1245947 0.12576 0.1267111 0.1273836 0.1278163 0.1281212 0.1283977 0.1286885
 0.1289976 0.1293137 0.1296209 0.1299078 0.1301767 0.1304457 0.1307412 0.131076 0.1314271 0.1317449
 0.1320024 0.1322321 0.1325027 0.1328527 0.1332492 0.1336204 0.1339346 0.1342304 0.1345543 0.1348868
 0.1351632 0.1353579 0.1355154 0.1357027 0.1359628 0.1363017 0.1366803 0.1370217 0.1372662 0.1374272
 0.1375729 0.1377565 0.1379833 0.1382368 0.1385037 0.138772 0.1390288 0.1392788 0.1395496 0.1398564
 0.1401663 0.1404178 0.1405854 0.1407108 0.1408597 0.1410591 0.1412848 0.1415004 0.1417003 0.141918
 0.1421925 0.1425206 0.1428445 0.1430964 0.1432569 0.1433645 0.1434746 0.1436192 0.1438033 0.1440175
 0.1442455 0.1444683 0.1446765 0.1448783 0.1450874 0.145304 0.1455157 0.1457163 0.1459151 0.1461255
 0.146349 0.1465739 0.1467914 0.1470156 0.147277 0.1475839 0.1478958 0.1481528 0.1483307 0.1484548
 0.1485645 0.1486831 0.1488194 0.1489799 0.1491665 0.1493731 0.1495889 0.1498061 0.1500204 0.1502298
 0.1504354 0.1506411 0.1508498 0.1510588 0.1512648 0.1514743 0.1516988 0.1519377 0.1521724 0.1523837
 0.1525689 0.1527431 0.1529243 0.1531195 0.1533208 0.1535149 0.153697 0.1538751 0.1540596 0.1542526
 0.1544474 0.1546381 0.1548268 0.15502 0.1552184 0.1554143 0.1556009 0.155781 0.1559658 0.1561662
 0.156384 0.1566084 0.1568239 0.1570257 0.1572225 0.1574228 0.1576261 0.1578303 0.158036 0.15824
 0.1584351 0.1586193 0.158799 0.1589814 0.1591688 0.1593606 0.1595562 0.159757 0.1599627 0.1601703
 0.160375 0.1605748 0.1607717 0.1609708 0.1611785 0.1613993 0.1616293 0.161858 0.1620765 0.1622837
 0.1624851 0.1626888 0.162899 0.1631135 0.1633283 0.1635448 0.163766 0.1639889 0.1642057 0.1644085
 0.1645926 0.1647603 0.1649224 0.1650904 0.1652677 0.1654522 0.1656398 0.1658258 0.1660092 0.1661957
 0.16639 0.1665894 0.1667898 0.1669917 0.1671953 0.1673975 0.1675962 0.1677915 0.1679842 0.1681786
 0.1683806 0.1685902 0.1688024 0.1690162 0.1692325 0.1694489 0.1696616 0.1698698 0.1700738 0.1702757
 0.1704803 0.1706889 0.1708965 0.1710997 0.1713023 0.1715097 0.1717254 0.1719488 0.1721701 0.1723779
 0.1725757 0.1727772 0.1729877 0.1732016 0.1734148 0.1736266 0.1738371 0.1740499 0.1742666 0.1744793
 0.1746835 0.1748893 0.1751069 0.1753328 0.1755591 0.17578 0.1759889 0.176186 0.1763832 0.1765881
 0.1767972 0.1770094 0.177225 0.1774251 0.1775575 0.1775014 0.1769728 0.1754183 0.1719973 0.1657503
 0.1559886 0.1427378 0.1268797 0.1098324 0.09302977 0.07755914 0.06406432 0.05282553 0.04389169 0.03717353
 0.0325112 0.02977323 0.02895316 0.03026833 0.03426759 0.0415047 0.05132073 0.06076989 0.06576481 0.06429929
 0.05836609 0.05214387 0.04852618 0.04772008 0.04848802 0.04976831 0.05122023 0.05303589 0.05555268 0.0588709
 0.06283163 0.06742646 0.07300229 0.07982245 0.08753298 0.09530678 0.1025578 0.1094043 0.1163903 0.1238264
 0.1314619 0.1387347 0.1452208 0.150842 0.155774 0.1602517 0.1644379 0.1684067 0.1721919 0.1757871
 0.179065 0.1817461 0.1835329 0.1843334 0.1843702 0.1840612 0.1837754 0.1836822 0.1837911 0.1840698
 0.1844984 0.1850592 0.1857268 0.1864702 0.1872562 0.1880603 0.1888715 0.189677 0.1904534 0.191182
 0.1918603 0.1924903 0.1930698 0.1935978 0.1940764 0.1945097 0.1949073 0.1952834 0.1956464 0.1959966
 0.1963324 0.1966508 0.1969458 0.1972151 0.197463 0.1976943 0.1979119 0.1981222 0.1983331 0.198547
 0.1987615 0.198974 0.1991835 0.1993915 0.1996012 0.1998112 0.2000142 0.2002058 0.2003903 0.2005732
 0.2007574 0.2009476 0.201148 0.2013547 0.201559 0.201757 0.2019505 0.2021424 0.2023351 0.2025299
 0.2027261 0.2029213 0.2031125 0.203297 0.2034796 0.2036782 0.2039079 0.2041585 0.2044025 0.2046237
 0.2048283 0.20503 0.2052369 0.2054462 0.2056423 0.2058065 0.2059391 0.2060675 0.2062284 0.2064416
 0.2066953 0.2069549 0.2071904 0.2073969 0.2075864 0.2077672 0.2079388 0.208099 0.2082551 0.2084328
 0.2086597 0.2089313 0.2092077 0.2094571 0.2096825 0.2099005 0.2101223 0.2103576 0.2106038 0.2108277
 0.2109926 0.211112 0.2112589 0.2115078 0.2118638 0.21225 0.2125773 0.2128269 0.2130469 0.2132875
 0.2135649 0.2138509 0.214059 0.2140985 0.2140114 0.2140007 0.2142468 0.2147301 0.2152823 0.2157632
 0.2161395 0.2164415 0.2167026 0.2169264 0.2170781 0.2171201 0.2170887 0.2171282 0.2173921 0.217881
 0.2184267 0.2188665 0.219174 0.2194008 0.2195848 0.2197477 0.2198588 0.2197781 0.2194013 0.2189298
 0.2188234 0.2193525 0.2202914 0.221163 0.2217145 0.2220435 0.222325 0.2225964 0.2228146 0.222893
 0.2225884 0.2216418 0.2202826 0.2193668 0.2196681 0.2210994 0.2228606 0.2242394 0.2250527 0.2254682
 0.2257065 0.225898 0.2259821 0.2257024 0.2249007 0.2239132 0.2234869 0.2240874 0.2253698 0.2265443
 0.227183 0.2274463 0.2276538 0.2279252 0.2281065 0.2277393 0.2263174 0.2240328 0.2221573 0.2221527
 0.2242411 0.2271389 0.2293297 0.2303682 0.2307614 0.2308537 0.2303133 0.2287301 0.2262396 0.2234581
 0.221282 0.2207697 0.2224468 0.2254221 0.2278881 0.2289057 0.2292017 0.2299716 0.2314481 0.2329118
 0.2336254 0.233409 0.2325015 0.231138 0.2294397 0.2278109 0.2271725 0.2283025 0.2308916 0.2336559
 0.2355254 0.2364559 0.236872 0.2364195 0.233711 0.2279975 0.2212585 0.2176544 0.2198558 0.2262521
 0.2326802 0.236515 0.2381132 0.2388645 0.239322 0.2390439 0.2368612 0.2315277 0.223695 0.217143
 0.2162192 0.2215356 0.2292719 0.2347389 0.2355607 0.2319145 0.2256988 0.2199762 0.2177157 0.2199909
 0.2255171 0.2319237 0.2371733 0.2401191 0.2404903 0.2387823 0.2362297 0.2345175 0.2345572 0.2351413
 0.2338603 0.23015 0.2262284 0.223843 0.2215753 0.217475 0.2133393 0.2135291 0.2192899 0.2266564
 0.230907 0.2313527 0.2304741 0.2294082 0.2260026 0.2179111 0.2070352 0.1996125 0.2007682 0.2091927
 0.2183034 0.2226911 0.2224262 0.2211289 0.221144 0.2211489 0.2180108 0.2108683 0.2032205 0.1999943
 0.2023094 0.2064782 0.2083758 0.2067319 0.20171 0.1935986 0.1851674 0.1825111 0.189917 0.204628
 0.2189978 0.2267803 0.2254137 0.2146676 0.1975484 0.1821439 0.1776881 0.1862875 0.200356 0.2095884
 0.2091428 0.2005146 0.187131 0.1720033 0.1591265 0.1539358 0.1600641 0.1756507 0.1933323 0.2038817
 0.2013141 0.1875724 0.172989 0.1688574 0.1771256 0.1890159 0.1948411 0.1927928 0.187592 0.1844347
 0.1859985 0.1919187 0.1991698 0.2049203 0.2087914 0.2096632 0.202647 0.1849585 0.1636866 0.1511179
 0.1519844 0.1610573 0.1729695 0.1870296 0.2008033 0.2068128 0.2009646 0.1902921 0.1869566 0.1953355
 0.2082836 0.2158802 0.2152502 0.2110752 0.2083699 0.2071478 0.2049321 0.2025374 0.2042653 0.2119725
 0.2218296 0.228596 0.2310685 0.231605 0.2321228 0.2326456 0.2326564 0.2319661 0.2306278 0.2290814
 0.2280358 0.2276735 0.2274768 0.227022 0.2259663 0.2228327 0.2153301 0.2035654 0.192083 0.1862614
 0.1866127 0.189161 0.1913618 0.1935808 0.1935666 0.1849029 0.1654774 0.1444277 0.1354906 0.1437283
 0.1617589 0.178173 0.1862735 0.1846601 0.1738304 0.1563805 0.1397022 0.1336543 0.1425193 0.1608967
 0.1794737 0.1930439 0.201065 0.2031908 0.1983092 0.1877415 0.1765085 0.1704458 0.1726515 0.1821363
 0.1941528 0.2014102 0.1976477 0.1838694 0.171076 0.1721339 0.1882701 0.2070088 0.2161931 0.2162884
 0.2154082 0.2166999 0.2168065 0.2147574 0.2155065 0.2231553 0.2349348 0.243942 0.2452047 0.2376413
 0.2234118 0.2084063 0.2007114 0.2040932 0.2136519 0.2210928 0.222722 0.2189623 0.2094732 0.1951985
 0.1835337 0.1838782 0.1967479 0.2125535 0.2224983 0.2265951 0.2296565 0.2330136 0.2329023 0.2261648
 0.2155206 0.2078807 0.2075173 0.2123423 0.2174593 0.2203237 0.2207657 0.2180732 0.2114435 0.2033149
 0.1993854 0.2036642 0.2143033 0.2252931 0.2318069 0.2332132 0.2316864 0.2293794 0.2269715 0.2238243
 0.2194098 0.2151836 0.2143133 0.218299 0.2245947 0.2292289 0.2313539 0.233531 0.2377011 0.2425116
 0.2449646 0.2436883 0.2402397 0.2377423 0.2383745 0.2416413 0.2447493 0.2449944 0.2423354 0.2396768
 0.240198 0.2443207 0.2496495 0.2536886 0.2558773 0.2570802 0.2581133 0.2590218 0.2590466 0.2572094
 0.2536994 0.2506544 0.2506373 0.2540966 0.2589452 0.2627186 0.2645638 0.2650825 0.2649642 0.2642704
 0.2628461 0.260977 0.2594036 0.2587353 0.259011 0.2598462 0.2608315 0.2617161 0.2623846 0.2628319
 0.2631258 0.2633238 0.2634476 0.2635335 0.2636161 0.2636544 0.2635764 0.2634358 0.2634234 0.2636552
 0.2640167 0.264282 0.2643167 0.2640837 0.263523 0.2625686 0.261281 0.2598301 0.2583025 0.2566422
 0.2548947 0.2534678 0.2530036 0.2538963 0.2559306 0.2584127 0.2606401 0.2622536 0.2632419 0.2637569
 0.2639722 0.2640345 0.2640368 0.2639969 0.2638781 0.2636498 0.2633253 0.262946 0.2625473 0.2621536
 0.2617933 0.2614907 0.2612359 0.2609758 0.2606464 0.2602157 0.2596996 0.2591427 0.2585804 0.2580078
 0.2573794 0.2566428 0.2557817 0.2548353 0.2538843 0.2530065 0.2522266 0.2514996 0.2507523 0.2499372
 0.2490333 0.2480146 0.2468707 0.2456737 0.2445749 0.2436914 0.2430069 0.2424047 0.2417706 0.2410419
 0.240194 0.2392328 0.2381971 0.2371316 0.2360506 0.234937 0.2337627 0.2325028 0.2311476 0.2297068
 0.228197 0.2266256 0.2250015 0.2233452 0.221659 0.2198849 0.2179056 0.215585 0.2128031 0.2094741
 0.2055697 0.2011472 0.1963562 0.1914051 0.1865034 0.1818207 0.1774856 0.1736005 0.1702476 0.1674901
 0.1653778 0.1639484 0.1632236 0.1632077 0.1638893 0.165233 0.1671679 0.1695904 0.1723722 0.1753608
 0.1783768 0.1812391 0.1838331 0.1861699 0.1883522 0.1904561 0.1924579 0.1942873 0.1959128 0.1973455
 0.1985902 0.1996383 0.2004985 0.2012029 0.201785 0.2022682 0.2026755 0.2030354 0.2033691 0.2036707
 0.2039151 0.2040952 0.2042419 0.2044001 0.2045965 0.2048368 0.2051221 0.2054568 0.2058491 0.2063023
 0.2068014 0.2073198 0.2078476 0.2084022 0.2090043 0.2096592 0.2103734 0.211178 0.2121218 0.213237
 0.2145106 0.2158838 0.2172748 0.2185987 0.2197803 0.2207657 0.2215286 0.2220607 0.2223645 0.2224614
 0.2223947 0.2222081 0.2219254 0.2215578 0.221118 0.2206197 0.2200698 0.2194684 0.2188147 0.2181144
 0.2173844 0.216649 0.2159268 0.2152241 0.2145411 0.2138808 0.2132486 0.212646 0.2120653 0.2114929
 0.2109205 0.2103517 0.2097948 0.2092472 0.2086914 0.2081004 0.2074467 0.2067079 0.2058723 0.2049415
 0.2039241 0.2028255 0.2016467 0.2003891 0.199051 0.197623 0.1960937 0.1944662 0.1927604 0.1909969
 0.1891756 0.1872777 0.1852978 0.1832758 0.1812899 0.1794134 0.1776825 0.1760945 0.1746216 0.1732292
 0.1718948 0.1706144 0.1693906 0.1682252 0.16712 0.1660739 0.1650775 0.1641203 0.1632067 0.1623614
 0.1616175 0.1609944 0.1604835 0.1600583 0.1596931 0.1593709 0.1590906 0.1588817 0.158788 0.158811
 0.1588835 0.1589186 0.1588729 0.1587616 0.1586313 0.1585256 0.1584602 0.158424 0.1583936 0.1583304
 0.1581677 0.157824 0.1572303 0.1563439 0.1551508 0.153668 0.1519428 0.1500665 0.148189 0.146479
 0.1450438 0.143905 0.1430381 0.1423925 0.1418881 0.1414527 0.1410784 0.1408282 0.1407898 0.1409908
 0.1413226 0.1415869 0.1416772 0.1416883 0.141815 0.1421858 0.1428034 0.1435747 0.1443636 0.1450551
 0.1455899 0.1459471 0.1461399 0.1462256 0.1462618 0.1462491 0.1461544 0.1459654 0.1456928 0.1453538
 0.1449705 0.1445493 0.1440692 0.1435145 0.1428859 0.1421732 0.1413684 0.1404853 0.1395061 0.1383713
 0.1371176 0.1359734 0.1352373 0.1350883 0.1355101 0.1363236 0.1373069 0.1383381 0.1393605 0.1401927
 0.1405762 0.140565 0.1407282 0.1417409 0.1437431 0.146192 0.1483526 0.1498296 0.1506017 0.1507378
 0.1502779 0.1492848 0.1477982 0.1457894 0.1432858 0.1404342 0.1373791 0.1342396 0.1312175 0.1285335
 0.1262784 0.1244456 0.1230145 0.1220215 0.1216091 0.1214158 0.1195296 0.1134962 0.1041197 0.09713387
 0.09835227 0.1071211 0.1168003 0.1217776 0.1219182 0.120224 0.118754 0.1178055 0.11727 0.1173096
 0.118068 0.1193866 0.1208427 0.1220128 0.1227392 0.12309 0.1230499 0.1222575 0.1199497 0.1152462
 0.1078563 0.09866896 0.0894435 0.0817887 0.07643684 0.07326071 0.07163662 0.07081142 0.07026689 0.06995931
 0.07020378 0.07129236 0.07324588 0.07590307 0.07909164 0.0825749 0.08593363 0.08873773 0.09087508 0.09255603
 0.09396563 0.0950461 0.09563948 0.09570754 0.09535724 0.09473975 0.09398483 0.09317385 0.09229395 0.09124555
 0.09000303 0.0887766 0.08789509 0.087492 0.08740719 0.08740674 0.08738203 0.08733104 0.08727635 0.08723478
 0.08720835 0.08721374 0.08733116 0.0876499 0.08813757 0.08862848 0.08896251 0.0891066 0.08914246 0.08912137
 0.08892134 0.0883577 0.08750999 0.08675024 0.08626202 0.08571912 0.084712 0.08337785 0.08232652 0.08197744
 0.08219276 0.0825414 0.08270583 0.08260959 0.08237593 0.08228514 0.08259965 0.08324488 0.0837583 0.08372578
</values></Ydata></ScRf><Data_Parameters_AB><parameter name="DPF">1</parameter><parameter name="NPT">3497</parameter><parameter name="FXV">3996</parameter><parameter name="LXV">500</parameter><parameter name="CSF">1</parameter><parameter name="MXY">0.078784316778183</parameter><parameter name="MNY">-0.0938086584210396</parameter><parameter name="DAT">31/05/2022</parameter><parameter name="TIM">14:39:47.437 (GMT+2)</parameter><parameter name="DXU">WN</parameter></Data_Parameters_AB><AB__Qtest><MainReport name="Quality Test Report"><Header><Line><Legend>Test result ok/not ok [1/0]: </Legend><Value>0</Value></Line><Line><Legend>Method file: </Legend><Value>C:\Users\Public\Documents\Bruker\OPUS_8.2.28\QT\IRBT_v3_default.QT</Value></Line></Header><Matrix><Line><Legend></Legend><Legend>min</Legend><Legend>max</Legend><Legend>measured</Legend></Line><Line><Value>Absorption (X-Range 1):</Value><Value>0.400000</Value><Value>2.000000</Value><Value>0.149575</Value></Line><Line><Value>Noise (X-Range 4):</Value><Value></Value><Value>0.000300</Value><Value>0.000058</Value></Line><Line><Value>Signal/Noise (X-Range 2):</Value><Value>200.000000</Value><Value></Value><Value>65.500841</Value></Line><Line><Value>Signal/Noise (X-Range 3):</Value><Value>40.000000</Value><Value></Value><Value>38.575401</Value></Line><Line><Value>Water vapour (X-Range 5):</Value><Value></Value><Value>0.000300</Value><Value>0.000063</Value></Line><Line><Value>Signal/Water (X-Range 2):</Value><Value>100.000000</Value><Value></Value><Value>60.252632</Value></Line><Line><Value>Signal/Water (X-Range 3):</Value><Value>20.000000</Value><Value></Value><Value>35.484574</Value></Line><Line><Value>Fringes (X-Range 6):</Value><Value></Value><Value>0.000100</Value><Value>0.000067</Value></Line></Matrix></MainReport></AB__Qtest><Data_Parameters_ScSm><parameter name="DPF">1</parameter><parameter name="NPT">1814</parameter><parameter name="FXV">3996.33169228125</parameter><parameter name="LXV">499.541461535156</parameter><parameter name="CSF">1</parameter><parameter name="MXY">0.296433627605438</parameter><parameter name="MNY">0.0351425334811211</parameter><parameter name="DAT">31/05/2022</parameter><parameter name="TIM">14:39:47.437 (GMT+2)</parameter><parameter name="DXU">WN</parameter></Data_Parameters_ScSm><Data_Parameters_ScRf><parameter name="DPF">1</parameter><parameter name="NPT">1820</parameter><parameter name="FXV">4004.04661832813</parameter><parameter name="LXV">495.683998511719</parameter><parameter name="CSF">1</parameter><parameter name="MXY">0.265082478523254</parameter><parameter name="MNY">0.028953155502677</parameter><parameter name="DAT">31/05/2022</parameter><parameter name="TIM">14:39:20.351 (GMT+2)</parameter><parameter name="DXU">WN</parameter></Data_Parameters_ScRf><Optic_Parameters_Rf><parameter name="APR">0</parameter><parameter name="APT">Open</parameter><parameter name="BMS">KBr</parameter><parameter name="DTC">RT-DLaTGS_IR-Biotyper [Microplate reader]</parameter><parameter name="HPF">0</parameter><parameter name="LPF">10.0</parameter><parameter name="LPV">4000</parameter><parameter name="PGR">0</parameter><parameter name="RCH">Module port</parameter><parameter name="RDX">0</parameter><parameter name="SRC">MIR</parameter><parameter name="VEL">10.0</parameter><parameter name="SON">Off</parameter></Optic_Parameters_Rf><Acquisition_Parameters_Rf><parameter name="ADT">1</parameter><parameter name="AQM">DD</parameter><parameter name="CFE">0</parameter><parameter name="COR">0</parameter><parameter name="DEL">0</parameter><parameter name="DLY">0</parameter><parameter name="HFW">8000</parameter><parameter name="LFW">0</parameter><parameter name="NSR">32</parameter><parameter name="PLF">AB</parameter><parameter name="RES">6</parameter><parameter name="RGN">-1</parameter><parameter name="STR">0</parameter><parameter name="TCL">MakeCompatibleScalar (0, {WSV=1.000000, ARV=0});</parameter><parameter name="TDL">37</parameter><parameter name="RPO">0</parameter></Acquisition_Parameters_Rf><FT_-_Parameters_Rf><parameter name="APF">B3</parameter><parameter name="HFQ">500</parameter><parameter name="LFQ">4000</parameter><parameter name="NLI">0</parameter><parameter name="PHR">24</parameter><parameter name="PHZ">ML</parameter><parameter name="SPZ">NO</parameter><parameter name="ZFF">1</parameter></FT_-_Parameters_Rf><Optic_Parameters_><parameter name="APR">0</parameter><parameter name="APT">Open</parameter><parameter name="BMS">KBr</parameter><parameter name="CHN">Module port</parameter><parameter name="DTC">RT-DLaTGS_IR-Biotyper [Microplate reader]</parameter><parameter name="HPF">0</parameter><parameter name="LPF">10.0</parameter><parameter name="LPV">4000</parameter><parameter name="PGN">0</parameter><parameter name="RDX">0</parameter><parameter name="SRC">MIR</parameter><parameter name="VEL">10.0</parameter><parameter name="SON">Off</parameter></Optic_Parameters_><FT_-_Parameters_><parameter name="APF">B3</parameter><parameter name="HFQ">500</parameter><parameter name="LFQ">4000</parameter><parameter name="NLI">0</parameter><parameter name="PHR">24</parameter><parameter name="PHZ">ML</parameter><parameter name="SPZ">NO</parameter><parameter name="ZFF">1</parameter></FT_-_Parameters_><Acquisition_Parameters_><parameter name="ADT">1</parameter><parameter name="AQM">DD</parameter><parameter name="CFE">0</parameter><parameter name="COR">0</parameter><parameter name="DEL">0</parameter><parameter name="DLY">0</parameter><parameter name="HFW">8000</parameter><parameter name="LFW">0</parameter><parameter name="NSS">32</parameter><parameter name="PLF">AB</parameter><parameter name="RES">6</parameter><parameter name="SOT">0</parameter><parameter name="TCL">MakeCompatibleScalar (0, {WSV=1.000000, ARV=0});</parameter><parameter name="TDL">37</parameter><parameter name="SPO">0</parameter><parameter name="SGN">-1</parameter></Acquisition_Parameters_><Instrument_Parameters_Rf><parameter name="HFL">15800.168544</parameter><parameter name="LFL">0</parameter><parameter name="LWN">15800.168544</parameter><parameter name="ABP">32197</parameter><parameter name="SSP">1</parameter><parameter name="ARG">2</parameter><parameter name="ASG">2</parameter><parameter name="ASS">32</parameter><parameter name="GFW">16</parameter><parameter name="GBW">16</parameter><parameter name="BFW">0</parameter><parameter name="BBW">0</parameter><parameter name="PKA">7263</parameter><parameter name="PKL">4996</parameter><parameter name="PRA">7451</parameter><parameter name="PRL">5001</parameter><parameter name="P2A">1</parameter><parameter name="P2L">1</parameter><parameter name="P2R">1</parameter><parameter name="P2K">1</parameter><parameter name="DAQ">0</parameter><parameter name="AG2">1</parameter><parameter name="SSM">1</parameter><parameter name="RSN">25823</parameter><parameter name="CRR">0</parameter><parameter name="SRT">1654007960.352</parameter><parameter name="DUR">19.6389923095703</parameter><parameter name="TSC">29.2</parameter><parameter name="MVD">0.248847872018814</parameter><parameter name="AN1">0.225833070251666</parameter><parameter name="AN2">0</parameter><parameter name="VSN">2.485 Apr  4 2017</parameter><parameter name="SRN">0085</parameter><parameter name="CAM">0</parameter><parameter name="INS">IR-Biotyper</parameter><parameter name="FOC">69</parameter><parameter name="RDY">1</parameter><parameter name="ARS">32</parameter></Instrument_Parameters_Rf><Sample_Parameters_><parameter name="BLD"></parameter><parameter name="CNM">Admin</parameter><parameter name="CPY"></parameter><parameter name="DPM"></parameter><parameter name="EXP">IRBT_v3_32Scans.XPM</parameter><parameter name="LCT"></parameter><parameter name="SFM">Microplate, HTS-XT</parameter><parameter name="SNM">220531-1301_JMJ44M (D_1)_C12_37bacae3-b6fc-4007-bfcd-1b588f46df21.0</parameter><parameter name="XPP">C:\Users\Public\Documents\Bruker\OPUS_8.2.28\XPM</parameter><parameter name="IST">OK</parameter><parameter name="CPG">1252</parameter><parameter name="UID">54a1724c-dbe2-40c9-966a-ad789b9f394d</parameter></Sample_Parameters_><Instrument_Parameters_><parameter name="HFL">15800.168544</parameter><parameter name="LFL">0</parameter><parameter name="LWN">15800.168544</parameter><parameter name="ABP">32197</parameter><parameter name="SSP">1</parameter><parameter name="ASG">2</parameter><parameter name="ARG">2</parameter><parameter name="ASS">32</parameter><parameter name="GFW">16</parameter><parameter name="GBW">16</parameter><parameter name="BFW">0</parameter><parameter name="BBW">0</parameter><parameter name="PKA">7910</parameter><parameter name="PKL">4988</parameter><parameter name="PRA">8164</parameter><parameter name="PRL">4993</parameter><parameter name="P2A">1</parameter><parameter name="P2L">1</parameter><parameter name="P2R">1</parameter><parameter name="P2K">1</parameter><parameter name="DAQ">0</parameter><parameter name="AG2">1</parameter><parameter name="SSM">1</parameter><parameter name="RSN">13537</parameter><parameter name="CRR">0</parameter><parameter name="SRT">1654007987.437</parameter><parameter name="DUR">19.6379852294922</parameter><parameter name="TSC">29.1</parameter><parameter name="MVD">0.259958297014236</parameter><parameter name="AN1">0.225811088927387</parameter><parameter name="AN2">0</parameter><parameter name="VSN">2.485 Apr  4 2017</parameter><parameter name="SRN">0085</parameter><parameter name="CAM">0</parameter><parameter name="INS">IR-Biotyper</parameter><parameter name="FOC">69</parameter><parameter name="RDY">1</parameter></Instrument_Parameters_><History/></OPUSDataFile>
