<?xml version="1.0" encoding="UTF-8" ?>
<OPUSDataFile><AB><Ydata ylabel="Absorbance Units"><values byteorder="INTEL" format="FLOAT32" numvalues="3497"> -0.07958613 -0.07957502 -0.07955372 -0.07952172 -0.07948604 -0.07944705 -0.07941159 -0.07937992 -0.07935698 -0.07934325
 -0.07934432 -0.07936001 -0.07939422 -0.07944295 -0.07949988 -0.07955896 -0.07960664 -0.07964227 -0.07965803 -0.07966106
 -0.07965375 -0.07964385 -0.07963633 -0.07963479 -0.07964161 -0.07965812 -0.07968524 -0.07972235 -0.07977002 -0.07982326
 -0.07988184 -0.0799389 -0.07999405 -0.08004518 -0.08009239 -0.08013744 -0.08017942 -0.08021478 -0.08024079 -0.08024538
 -0.08022796 -0.08017816 -0.08010449 -0.08001296 -0.07991978 -0.07984594 -0.07980078 -0.07980238 -0.07984007 -0.07991631
 -0.08000801 -0.08010782 -0.08019789 -0.08027171 -0.08032399 -0.08035179 -0.08036276 -0.08035666 -0.08035 -0.08034369
 -0.08035149 -0.08037303 -0.08040645 -0.08044966 -0.0804885 -0.08052289 -0.08054446 -0.08055568 -0.0805589 -0.08055454
 -0.08054452 -0.08052787 -0.08050295 -0.08047303 -0.08043891 -0.08040738 -0.08038238 -0.08036786 -0.0803663 -0.0803785
 -0.08040443 -0.08044794 -0.0805095 -0.0805934 -0.08070067 -0.08082664 -0.08097116 -0.08111695 -0.08126259 -0.08138447
 -0.08148188 -0.08153717 -0.08155349 -0.08153109 -0.08147725 -0.08140951 -0.08133281 -0.08126435 -0.08120254 -0.08115252
 -0.08111063 -0.08107495 -0.08104474 -0.08101803 -0.08099873 -0.08098766 -0.08098874 -0.08100397 -0.08103088 -0.08106989
 -0.08111452 -0.0811642 -0.08121363 -0.08126248 -0.08130763 -0.0813491 -0.08138666 -0.08142114 -0.08145761 -0.08149678
 -0.08154493 -0.08160022 -0.08166216 -0.0817268 -0.08178682 -0.08184083 -0.08188446 -0.08191722 -0.08193881 -0.08194412
 -0.08192865 -0.08189499 -0.08183739 -0.08178447 -0.08173942 -0.08174017 -0.08179522 -0.08191694 -0.0821111 -0.08233647
 -0.08259158 -0.08276239 -0.08284631 -0.0827758 -0.08257083 -0.08233045 -0.08206633 -0.0818788 -0.08175559 -0.08171699
 -0.08174669 -0.08182956 -0.08194457 -0.08206399 -0.08216539 -0.08221821 -0.08222149 -0.08215848 -0.08206427 -0.08194692
 -0.08184039 -0.08175927 -0.08169916 -0.08166295 -0.08163105 -0.08160051 -0.08157367 -0.08155034 -0.0815515 -0.08157752
 -0.08163873 -0.08173162 -0.08184005 -0.081958 -0.08205364 -0.08212479 -0.08214747 -0.08212908 -0.08206851 -0.08198123
 -0.08188405 -0.08179174 -0.08172332 -0.08168235 -0.08167803 -0.08170186 -0.08175401 -0.08182099 -0.08189982 -0.08197908
 -0.08205684 -0.08212337 -0.08217802 -0.08220734 -0.08221046 -0.082178 -0.08211067 -0.08201887 -0.08190522 -0.0817926
 -0.08168202 -0.08158953 -0.08151436 -0.08146221 -0.08143283 -0.08142878 -0.08144852 -0.08149344 -0.08155506 -0.08162985
 -0.08170138 -0.08175985 -0.08179273 -0.08179007 -0.08175796 -0.08169269 -0.08161961 -0.08154161 -0.08148417 -0.08145117
 -0.08144809 -0.08147573 -0.0815208 -0.08158217 -0.08164017 -0.08169442 -0.08173185 -0.08175477 -0.08176488 -0.08176515
 -0.08176472 -0.08176339 -0.08176498 -0.08176849 -0.08177216 -0.08178136 -0.08179776 -0.081833 -0.0818954 -0.08198833
 -0.08211955 -0.08226962 -0.08243821 -0.08259161 -0.08272269 -0.08281807 -0.08287434 -0.08290212 -0.0829023 -0.08285847
 -0.08276962 -0.08261149 -0.08239117 -0.08214528 -0.08188415 -0.08167209 -0.08150525 -0.08140961 -0.08136906 -0.08136893
 -0.08139067 -0.08140279 -0.08140251 -0.08137286 -0.08132946 -0.08127629 -0.08122795 -0.08119231 -0.08117341 -0.08117568
 -0.08118992 -0.08121661 -0.08123729 -0.08124975 -0.08124401 -0.08121901 -0.08118206 -0.08113401 -0.08109151 -0.08105505
 -0.08103804 -0.08103663 -0.0810454 -0.08105437 -0.08103208 -0.08097786 -0.08087038 -0.08072811 -0.08056723 -0.0803977
 -0.08023787 -0.08007801 -0.0799172 -0.07974715 -0.07956003 -0.07936931 -0.0791749 -0.07900032 -0.07885133 -0.07873318
 -0.0786493 -0.07857607 -0.0785127 -0.07841497 -0.07828151 -0.07808413 -0.07782911 -0.07754818 -0.07724882 -0.07698194
 -0.07674211 -0.07654054 -0.07636977 -0.07622119 -0.07609011 -0.0759709 -0.07584969 -0.07571606 -0.07554896 -0.07532962
 -0.07505799 -0.07472641 -0.07435321 -0.0739441 -0.07350101 -0.07302441 -0.07251858 -0.07198213 -0.07144119 -0.07089748
 -0.0703664 -0.06984781 -0.06933543 -0.06882919 -0.06832506 -0.06782522 -0.06733714 -0.06686177 -0.06640652 -0.06596882
 -0.06555063 -0.06514063 -0.06473225 -0.06429534 -0.06380233 -0.06322873 -0.06253502 -0.06177254 -0.06094502 -0.06013115
 -0.05936418 -0.0586387 -0.05796285 -0.05729431 -0.05662757 -0.0559499 -0.05525958 -0.05457105 -0.05388511 -0.05321801
 -0.05256819 -0.05193516 -0.05131007 -0.0506579 -0.04996633 -0.04917285 -0.04829796 -0.04733783 -0.04634903 -0.04541513
 -0.04453997 -0.0437712 -0.04304941 -0.04235383 -0.04162967 -0.04084082 -0.03999032 -0.03906231 -0.03811919 -0.03717009
 -0.03626268 -0.03540799 -0.03458613 -0.03379767 -0.03297952 -0.03212956 -0.03121008 -0.03022711 -0.02920981 -0.02816539
 -0.02714261 -0.026138 -0.02516699 -0.02422307 -0.02330121 -0.0223965 -0.02150253 -0.02061038 -0.01970848 -0.01879563
 -0.01786369 -0.01692915 -0.01599996 -0.0150765 -0.01416686 -0.01323468 -0.01227293 -0.0112631 -0.0101969 -0.00912392
 -0.008046648 -0.007018459 -0.006039781 -0.005103005 -0.004204361 -0.003310149 -0.002420245 -0.001515669 -0.0006004796 0.0003248256
 0.001254069 0.002173802 0.003084082 0.003973654 0.004861755 0.005757989 0.00669063 0.007686799 0.008739638 0.009862722
 0.01100293 0.01214725 0.01325836 0.01432333 0.01534654 0.0163258 0.01728048 0.01821152 0.01914192 0.02007283
 0.02102561 0.02199947 0.02299877 0.02402007 0.02505032 0.02608768 0.02711969 0.02814791 0.02916943 0.03018651
 0.03120163 0.03221462 0.03322715 0.03423559 0.03523757 0.03623231 0.03721699 0.03819997 0.03918371 0.04017187
 0.04116837 0.04215546 0.04313168 0.04407974 0.04499735 0.04590089 0.04679175 0.04770371 0.04863594 0.04959746
 0.0505831 0.05157441 0.05256779 0.05354341 0.05450087 0.05542944 0.05633204 0.05720631 0.05806087 0.05890249
 0.05973907 0.06057819 0.06142206 0.06227322 0.06313283 0.06400193 0.06487991 0.06576788 0.06665789 0.06754912
 0.06843548 0.06931629 0.07019357 0.07106712 0.07193092 0.07278389 0.07361209 0.07441815 0.0752057 0.0759799
 0.0767597 0.07754343 0.07833769 0.07913698 0.07993478 0.08073196 0.08152744 0.0823212 0.08311544 0.08390082
 0.08467259 0.08542876 0.0861655 0.08689436 0.08761802 0.08833882 0.08905856 0.08976539 0.09045827 0.09113567
 0.09179792 0.09245882 0.09311876 0.09378761 0.09446333 0.09514228 0.09582098 0.09648739 0.09713925 0.09776429
 0.09836735 0.09894787 0.09951672 0.1000857 0.1006572 0.1012387 0.1018202 0.1023978 0.1029679 0.1035266
 0.1040832 0.1046392 0.1051999 0.1057667 0.1063365 0.1069091 0.1074827 0.1080571 0.108631 0.1092046
 0.1097765 0.1103485 0.1109276 0.1115141 0.1121148 0.1127227 0.1133272 0.1139211 0.1144869 0.1150296
 0.1155462 0.1160469 0.1165394 0.1170233 0.1175018 0.1179673 0.1184168 0.1188505 0.1192662 0.1196756
 0.1200793 0.1204917 0.1209143 0.1213522 0.1218052 0.1222638 0.1227274 0.1231853 0.1236388 0.1240894
 0.1245358 0.124978 0.1254082 0.1258097 0.1261804 0.1265048 0.1268013 0.1270784 0.1273636 0.1276813
 0.1280377 0.1284484 0.1288848 0.1293446 0.1297887 0.1302064 0.1305865 0.1309232 0.1312418 0.1315439
 0.1318496 0.1321589 0.1324464 0.1327086 0.132899 0.1330222 0.1330706 0.1330599 0.1330331 0.1330048
 0.1330281 0.133105 0.1332652 0.133494 0.1337916 0.1341311 0.1344937 0.1348629 0.1352199 0.1355833
 0.1359521 0.1363589 0.1368166 0.1373098 0.1378452 0.1383416 0.1387937 0.1391233 0.1393279 0.1394136
 0.1393886 0.1393351 0.1392578 0.1392265 0.1392322 0.1392806 0.1393672 0.1394793 0.1396318 0.1398439
 0.1401186 0.1404794 0.1408819 0.1413087 0.1417037 0.1420261 0.1422814 0.1424516 0.1426047 0.1427516
 0.1429473 0.1432056 0.1435173 0.143885 0.1442523 0.1446162 0.1449156 0.1451506 0.1452947 0.1453582
 0.1453735 0.1453607 0.145399 0.1455008 0.1457381 0.1460913 0.1465734 0.1471301 0.1477147 0.1482746
 0.1487508 0.1491421 0.1494217 0.1496457 0.1498226 0.1500148 0.150238 0.1505246 0.1508806 0.1513256
 0.1518613 0.1525118 0.1532778 0.1541538 0.1551315 0.1561306 0.157133 0.1580019 0.1587302 0.159211
 0.1594768 0.15953 0.159443 0.1593206 0.1592256 0.1592749 0.1594564 0.1598174 0.1602621 0.1607666
 0.1612148 0.161561 0.1617441 0.1617334 0.1615583 0.1612111 0.1607907 0.1603036 0.159847 0.1594252
 0.1590697 0.1587769 0.1585209 0.1582997 0.1580879 0.1578913 0.1577159 0.1575646 0.1574537 0.1573636
 0.1572838 0.1571635 0.1569514 0.1565949 0.1560292 0.1552649 0.15427 0.1531456 0.1519084 0.1506826
 0.1495024 0.1484241 0.1474657 0.1466067 0.1458485 0.1451443 0.1444917 0.1438426 0.1431956 0.1425131
 0.1418002 0.1410609 0.1403075 0.1395861 0.1388964 0.1382683 0.1376747 0.1370904 0.1364855 0.1358117
 0.1350764 0.1342576 0.13341 0.1325469 0.1317407 0.1310206 0.1304234 0.129973 0.1296248 0.1293846
 0.1291354 0.1288687 0.1284807 0.1279665 0.1273217 0.1265541 0.1257498 0.1249164 0.1241419 0.1234196
 0.1227766 0.1221984 0.1216655 0.1211684 0.1206843 0.1202089 0.1197304 0.1192444 0.1187443 0.1182291
 0.1176943 0.1171503 0.116598 0.1160529 0.1155198 0.115001 0.1144994 0.113996 0.1134896 0.1129567
 0.112396 0.1118036 0.111181 0.110546 0.1099007 0.1092663 0.1086424 0.1080393 0.107455 0.1068907
 0.1063433 0.1058099 0.105283 0.1047549 0.1042163 0.1036557 0.1030748 0.1024676 0.1018524 0.101234
 0.1006291 0.1000456 0.09947494 0.09891924 0.09834907 0.09776165 0.09714074 0.09648559 0.09581347 0.09512667
 0.09445874 0.09380924 0.09319482 0.09260939 0.09204172 0.09148544 0.09091896 0.09034345 0.08974937 0.08914526
 0.08853581 0.08793104 0.08733834 0.0867694 0.08622923 0.08573595 0.08529764 0.08492312 0.08462266 0.08436093
 0.08414038 0.08387966 0.08357207 0.08314928 0.08260761 0.08195376 0.08119434 0.08041035 0.07961155 0.07889736
 0.07826631 0.07777408 0.0773956 0.07710934 0.07687205 0.07660399 0.07628154 0.07583448 0.07529918 0.07466886
 0.07401966 0.07339338 0.07282594 0.07235026 0.07192876 0.07155915 0.07120208 0.07084406 0.07051901 0.07022633
 0.07003704 0.06995485 0.06998386 0.07011604 0.07025202 0.07037982 0.07037359 0.07024089 0.06993236 0.06948238
 0.06894283 0.06834957 0.06778959 0.06726386 0.06681467 0.06640805 0.06602919 0.06565738 0.06526817 0.0648886
 0.06452099 0.06419894 0.06393866 0.06371688 0.06353684 0.06333775 0.06311189 0.06284953 0.06254979 0.06227977
 0.06204272 0.06190263 0.06185138 0.06187632 0.06196164 0.06204272 0.06211504 0.06213253 0.06210666 0.06203563
 0.06193092 0.06180973 0.06166433 0.06150074 0.06128885 0.06101578 0.06065409 0.06018301 0.05962282 0.05896351
 0.05828865 0.05760607 0.05700937 0.05651145 0.05613076 0.05586915 0.05564616 0.05545555 0.05519072 0.05485536
 0.05441195 0.05388014 0.05330936 0.05271734 0.0521753 0.05167899 0.05125769 0.05088888 0.05055893 0.05024681
 0.0499303 0.04960139 0.04924749 0.04887606 0.0484836 0.04809354 0.04771006 0.04735624 0.04703997 0.04674793
 0.04648247 0.04618892 0.04586424 0.04547148 0.04501365 0.04452542 0.04401449 0.04355106 0.04312835 0.04276481
 0.04243638 0.04209156 0.04171941 0.04126889 0.04076592 0.04021514 0.03965769 0.0391309 0.03865139 0.03824272
 0.03789208 0.03759989 0.03735331 0.0371476 0.0369838 0.03686227 0.03677935 0.03673678 0.03670387 0.03667913
 0.0366083 0.03648919 0.03627756 0.03597845 0.03559608 0.03514599 0.03468557 0.03423057 0.03385026 0.03354597
 0.03335426 0.0332613 0.03326641 0.03335274 0.03350693 0.03371621 0.03397131 0.03426067 0.03457909 0.034915
 0.0352641 0.03562188 0.03598529 0.03636486 0.03675984 0.03719829 0.03768165 0.03824794 0.03889849 0.03966146
 0.04053333 0.04150924 0.0425786 0.04370118 0.04486546 0.0460214 0.04716763 0.048276 0.04935881 0.05041803
 0.05146974 0.05252851 0.05360203 0.0546998 0.05581975 0.05696434 0.05812572 0.05930505 0.06048213 0.06165749
 0.06278897 0.0638742 0.06485846 0.06573839 0.06647243 0.06705976 0.06748351 0.06774509 0.06784308 0.06778219
 0.06757262 0.06723268 0.06680282 0.06632244 0.06587145 0.06549247 0.06527226 0.06521954 0.06537963 0.06571586
 0.0662234 0.06685708 0.06759543 0.06842311 0.06933068 0.07032169 0.07139707 0.07254879 0.07377702 0.07506342
 0.07640687 0.07779665 0.07923242 0.08070847 0.08222385 0.08376882 0.08534379 0.08694448 0.08857349 0.09024063
 0.09193457 0.09365958 0.09535118 0.09696916 0.098354 0.09939725 0.09986527 0.09959942 0.09844195 0.09625169
 0.09314471 0.08906756 0.08444513 0.07931217 0.07419701 0.06915858 0.06456015 0.06042996 0.05685242 0.05382114
 0.05122623 0.04905298 0.04715195 0.04551662 0.04404526 0.04273382 0.04152443 0.04040758 0.03934111 0.03831787
 0.03730855 0.03632328 0.0353562 0.03443322 0.03356674 0.03277862 0.03208191 0.03148169 0.03098272 0.03058028
 0.03027453 0.03005935 0.02993434 0.02989272 0.02993418 0.03004867 0.03023452 0.03046596 0.03073564 0.03098322
 0.03119686 0.0312942 0.03127562 0.03109126 0.0307695 0.03033025 0.02981898 0.02929729 0.0288032 0.02838837
 0.02807651 0.02789314 0.02785613 0.02797578 0.0282708 0.02874466 0.02942683 0.03032183 0.03146219 0.03285947
 0.03445719 0.03625753 0.03796997 0.03956726 0.04054193 0.04087463 0.04015067 0.03843873 0.03575344 0.03225663
 0.02836438 0.02422502 0.02030963 0.01665011 0.01349507 0.01076164 0.008470965 0.006509397 0.004813666 0.00331255
 0.001959944 0.0007326166 -0.0003841636 -0.001397676 -0.00231054 -0.003130382 -0.003857684 -0.004504018 -0.005069878 -0.005575733
 -0.006023122 -0.006440371 -0.00682894 -0.007213565 -0.007593128 -0.007977815 -0.008362517 -0.008739947 -0.009103446 -0.00943568
 -0.009737866 -0.009999909 -0.01023884 -0.01046324 -0.01069568 -0.01095509 -0.01124407 -0.01157427 -0.01191681 -0.01226923
 -0.0125914 -0.01287406 -0.01310139 -0.01326755 -0.0133996 -0.01349834 -0.01361303 -0.01374505 -0.01391862 -0.01412944
 -0.01435663 -0.01459643 -0.01481877 -0.01503087 -0.01523546 -0.01544392 -0.01568215 -0.01594723 -0.01625015 -0.01657284
 -0.01690398 -0.01722679 -0.01752784 -0.01779801 -0.01803037 -0.01822114 -0.0183652 -0.01847533 -0.01854916 -0.01862492
 -0.01870592 -0.0188299 -0.01900032 -0.01921632 -0.01947631 -0.01974338 -0.02001545 -0.02025859 -0.02047567 -0.02066008
 -0.0208171 -0.02095797 -0.02108556 -0.02121057 -0.02133342 -0.02145923 -0.02158653 -0.02171683 -0.02184503 -0.02196939
 -0.02208266 -0.02218035 -0.02226227 -0.02232466 -0.02238322 -0.02243857 -0.02251489 -0.02261567 -0.02275122 -0.02292311
 -0.02311469 -0.02332456 -0.02352262 -0.02370859 -0.02386517 -0.02399614 -0.02410773 -0.02420506 -0.0243063 -0.02441215
 -0.02453465 -0.02466637 -0.02480392 -0.02493654 -0.02505146 -0.02514793 -0.02521714 -0.02527783 -0.02533289 -0.0254093
 -0.02551692 -0.02566541 -0.02586129 -0.02608678 -0.02634193 -0.02659691 -0.02684966 -0.027079 -0.0272844 -0.02745989
 -0.02760667 -0.02773047 -0.02783395 -0.02793092 -0.02802446 -0.02813107 -0.0282504 -0.02839135 -0.02854745 -0.0287151
 -0.02888489 -0.02904649 -0.02919531 -0.02932385 -0.02943669 -0.02953238 -0.02962231 -0.02970905 -0.02980297 -0.02990732
 -0.03002283 -0.03015089 -0.03028114 -0.03041306 -0.03053495 -0.0306465 -0.03074452 -0.03082954 -0.03090466 -0.03096961
 -0.03102453 -0.03106927 -0.03110204 -0.0311263 -0.03114688 -0.03116937 -0.03120395 -0.03125222 -0.03132041 -0.03140459
 -0.03150405 -0.03161528 -0.03173615 -0.03186628 -0.03200558 -0.03215203 -0.03230596 -0.03246091 -0.03261636 -0.03276521
 -0.03290689 -0.03303764 -0.03315734 -0.03326515 -0.03336137 -0.03344774 -0.03352511 -0.03359786 -0.03366709 -0.03373823
 -0.03381163 -0.03389113 -0.03397496 -0.0340629 -0.03415154 -0.03423775 -0.03431876 -0.03439137 -0.03445608 -0.03451197
 -0.03456145 -0.03460496 -0.03464482 -0.03468133 -0.03471743 -0.03475329 -0.03479327 -0.0348377 -0.03488934 -0.03494823
 -0.03501295 -0.0350832 -0.03515542 -0.03522981 -0.03530512 -0.03538213 -0.03546236 -0.03554647 -0.03563676 -0.03573271
 -0.03583541 -0.03594182 -0.03605055 -0.03615573 -0.03625356 -0.03633878 -0.03640723 -0.03645987 -0.03649476 -0.03652051
 -0.0365378 -0.03655781 -0.03658215 -0.03661708 -0.03666339 -0.03671976 -0.03678602 -0.03685756 -0.03693412 -0.03701201
 -0.03709057 -0.03716528 -0.03723474 -0.03729201 -0.03733743 -0.03736676 -0.03738529 -0.03739766 -0.03741091 -0.03743463
 -0.03746937 -0.03752007 -0.03757942 -0.03764541 -0.037712 -0.03777605 -0.03783846 -0.03789893 -0.03795892 -0.03801921
 -0.03807452 -0.03812464 -0.03816156 -0.03818505 -0.03819337 -0.03818751 -0.03817517 -0.03815804 -0.03814838 -0.03814661
 -0.03816142 -0.03818981 -0.03823098 -0.0382792 -0.0383261 -0.0383678 -0.03839614 -0.03841406 -0.03841974 -0.03842122
 -0.03842166 -0.03842697 -0.03844019 -0.0384616 -0.03849196 -0.03852933 -0.0385735 -0.03862347 -0.03867927 -0.03873737
 -0.03879744 -0.03885038 -0.03889571 -0.03892441 -0.03893786 -0.03893699 -0.03892505 -0.03891258 -0.03890125 -0.03890049
 -0.03890792 -0.03892448 -0.03894668 -0.03897119 -0.03899632 -0.03902031 -0.03904115 -0.03905822 -0.03906747 -0.03906712
 -0.03905638 -0.03903348 -0.03900674 -0.03897637 -0.03895551 -0.03894537 -0.03895148 -0.03897389 -0.03900584 -0.03904649
 -0.03908489 -0.03912137 -0.03915161 -0.03917696 -0.03919964 -0.0392198 -0.03923908 -0.03925665 -0.03927156 -0.03928445
 -0.03929517 -0.03930577 -0.03931781 -0.03933183 -0.03934863 -0.03936752 -0.03938825 -0.03941121 -0.03943663 -0.03946384
 -0.03949315 -0.03952052 -0.03954564 -0.03956546 -0.03957992 -0.03959128 -0.03959978 -0.03960915 -0.03961861 -0.03962659
 -0.0396316 -0.03962756 -0.03961495 -0.03959059 -0.03955862 -0.0395229 -0.03948908 -0.03946474 -0.03945184 -0.03945548
 -0.03947065 -0.03949697 -0.03952724 -0.03955871 -0.03958846 -0.03961525 -0.03963887 -0.03965933 -0.03967467 -0.03968476
 -0.03968772 -0.03968354 -0.03967538 -0.0396637 -0.03965426 -0.0396469 -0.03964411 -0.03964466 -0.03964615 -0.0396473
 -0.03964386 -0.03963625 -0.03962227 -0.03960554 -0.03958838 -0.03957537 -0.03957158 -0.03957564 -0.03959014 -0.03960529
 -0.03961901 -0.03962133 -0.03960874 -0.03958124 -0.03953745 -0.0394872 -0.03943107 -0.03937888 -0.03933106 -0.03929034
 -0.03925643 -0.03922701 -0.03920235 -0.0391826 -0.03916867 -0.03916427 -0.03916841 -0.03918176 -0.0392003 -0.0392183
 -0.03923281 -0.03923765 -0.03923485 -0.03922336 -0.03920744 -0.03918936 -0.03917024 -0.03915158 -0.03913038 -0.03910641
 -0.03907605 -0.03903842 -0.03899392 -0.03894219 -0.03889014 -0.03883814 -0.03879453 -0.038759 -0.03873171 -0.03871102
 -0.03868797 -0.038662 -0.03862556 -0.03858126 -0.03853038 -0.03847726 -0.03842907 -0.03838836 -0.03836149 -0.03834597
 -0.03834361 -0.03834609 -0.03835043 -0.03834813 -0.03833473 -0.03831007 -0.03827217 -0.03822947 -0.03818279 -0.03813962
 -0.038101 -0.03806585 -0.03803409 -0.03799953 -0.03796213 -0.03791875 -0.03787084 -0.03782368 -0.03778024 -0.03775254
 -0.03774318 -0.03776398 -0.03781515 -0.03790206 -0.03802408 -0.03818134 -0.03837686 -0.03861118 -0.03889233 -0.03922366
 -0.03961353 -0.04006622 -0.04058314 -0.04116653 -0.04180941 -0.04251249 -0.04325921 -0.04404953 -0.04485095 -0.04566138
 -0.04641954 -0.04711945 -0.04767441 -0.04808006 -0.04826398 -0.04823336 -0.04797146 -0.04749236 -0.04681008 -0.04595761
 -0.0449746 -0.04393356 -0.04292306 -0.04200241 -0.0412484 -0.04066976 -0.04029339 -0.04010143 -0.04009826 -0.04024547
 -0.04054579 -0.04090859 -0.04132832 -0.04167543 -0.04193543 -0.04206143 -0.04205121 -0.04196987 -0.04182132 -0.04167183
 -0.04151845 -0.04137936 -0.04124846 -0.04111434 -0.04097458 -0.04081607 -0.04064444 -0.04046239 -0.0402762 -0.04009711
 -0.03991817 -0.03974069 -0.03954798 -0.03932951 -0.03908327 -0.03880133 -0.03850821 -0.03820637 -0.03792544 -0.03767123
 -0.03745409 -0.03727635 -0.03712909 -0.0370119 -0.03690964 -0.03682186 -0.03673885 -0.03666104 -0.03658593 -0.03651408
 -0.03644628 -0.03638215 -0.03632155 -0.03626294 -0.03620374 -0.03614326 -0.03607874 -0.03601326 -0.03594728 -0.03588669
 -0.03583524 -0.03579456 -0.0357677 -0.03574716 -0.03573249 -0.03571296 -0.03568629 -0.03565021 -0.03560363 -0.03555659
 -0.03550959 -0.03547665 -0.03545792 -0.03545982 -0.03548097 -0.03551729 -0.03556669 -0.03561976 -0.03567541 -0.03572628
 -0.03577289 -0.03581294 -0.03584717 -0.03587591 -0.03589864 -0.03591535 -0.03592474 -0.03592575 -0.03591901 -0.03590373
 -0.0358843 -0.03586109 -0.03584034 -0.03582314 -0.03581315 -0.03581112 -0.03581465 -0.03582366 -0.03583184 -0.035839
 -0.0358407 -0.03583745 -0.03582981 -0.03581854 -0.03580678 -0.0357946 -0.03578373 -0.03577385 -0.03576497 -0.03575747
 -0.0357515 -0.03574818 -0.03574887 -0.03575275 -0.03576054 -0.03576834 -0.03577532 -0.03577684 -0.03577121 -0.03575789
 -0.03573592 -0.03571073 -0.0356825 -0.03565904 -0.03564079 -0.03563187 -0.03563204 -0.03563945 -0.0356533 -0.03566795
 -0.03568295 -0.03569359 -0.03570033 -0.03570176 -0.03569889 -0.03569292 -0.03568419 -0.03567372 -0.03566128 -0.03564681
 -0.0356309 -0.03561356 -0.03559631 -0.03557955 -0.03556507 -0.03555337 -0.03554557 -0.0355421 -0.03554227 -0.03554617
 -0.03555153 -0.03555823 -0.03556324 -0.03556645 -0.03556562 -0.03556082 -0.03555114 -0.03553705 -0.03551944 -0.03549948
 -0.03548003 -0.03546271 -0.03545174 -0.03544735 -0.03545229 -0.03546356 -0.03548063 -0.03549782 -0.03551194 -0.03551913
 -0.03551607 -0.03550615 -0.03548837 -0.03547304 -0.03546169 -0.03546183 -0.0354749 -0.03549761 -0.03552987 -0.035562
 -0.03559364 -0.03561791 -0.03563512 -0.03564368 -0.03564406 -0.03563667 -0.03562268 -0.03560454 -0.03558432 -0.03556675
 -0.03555254 -0.03554491 -0.03554202 -0.03554338 -0.03554757 -0.03555306 -0.03556134 -0.03557242 -0.0355885 -0.03561052
 -0.03563784 -0.03567094 -0.03570572 -0.03574206 -0.03577378 -0.03580052 -0.03581733 -0.03582421 -0.03582028 -0.03580618
 -0.03578512 -0.03575805 -0.03572983 -0.03570155 -0.03567829 -0.03566056 -0.03565213 -0.03565117 -0.03565772 -0.03566777
 -0.03567791 -0.03568596 -0.03568875 -0.03568937 -0.03568769 -0.03568895 -0.03569479 -0.03570689 -0.03572633 -0.03574935
 -0.03577587 -0.03580017 -0.03582188 -0.03583878 -0.03585106 -0.03586173 -0.03587101 -0.03588206 -0.03589386 -0.03590422
 -0.03591208 -0.03591282 -0.03590815 -0.03589795 -0.03588669 -0.03587989 -0.03587982 -0.03589132 -0.03591124 -0.03593998
 -0.03597139 -0.03600327 -0.03603114 -0.03605312 -0.03606837 -0.03607596 -0.03607978 -0.03607974 -0.03608406 -0.03609321
 -0.03611441 -0.03614749 -0.03619093 -0.03624324 -0.03629392 -0.03634195 -0.0363773 -0.03640123 -0.03641132 -0.03641034
 -0.03640174 -0.03638826 -0.03637405 -0.03636213 -0.03635627 -0.0363584 -0.03637166 -0.03639279 -0.0364222 -0.03645273
 -0.03648217 -0.03650766 -0.03652756 -0.0365469 -0.03656597 -0.03658986 -0.03661899 -0.03665081 -0.03668499 -0.03671567
 -0.03674318 -0.03676678 -0.03678737 -0.03680857 -0.03682986 -0.03685199 -0.03687363 -0.03689243 -0.03690866 -0.0369212
 -0.0369322 -0.03694302 -0.03695545 -0.03697089 -0.03699033 -0.03701444 -0.03704396 -0.0370796 -0.03711976 -0.03716478
 -0.03720952 -0.0372535 -0.03729281 -0.03732711 -0.03735885 -0.03738837 -0.03742191 -0.03745941 -0.03750374 -0.03755383
 -0.03760718 -0.03766253 -0.03771531 -0.03776513 -0.03780898 -0.03784762 -0.03788058 -0.03790923 -0.03793447 -0.03795763
 -0.03797944 -0.03800162 -0.03802467 -0.03805099 -0.03808139 -0.03811709 -0.03815888 -0.03820422 -0.03825318 -0.03830037
 -0.03834543 -0.03838513 -0.03841956 -0.03845039 -0.03847794 -0.03850528 -0.03853218 -0.03855942 -0.03858634 -0.0386115
 -0.03863469 -0.03865444 -0.03867198 -0.03868773 -0.03870426 -0.03872372 -0.03874845 -0.03878118 -0.03882037 -0.03886743
 -0.03891466 -0.0389609 -0.03899704 -0.03902047 -0.03903113 -0.03902779 -0.03902299 -0.03901739 -0.03902446 -0.03904425
 -0.03907765 -0.03912303 -0.039169 -0.03921453 -0.0392485 -0.03927294 -0.03928668 -0.03929384 -0.03930153 -0.03931208
 -0.03933229 -0.03935974 -0.0393956 -0.03943421 -0.03947274 -0.03950647 -0.0395321 -0.0395501 -0.03955921 -0.03956456
 -0.03956679 -0.03957038 -0.03957631 -0.03958249 -0.03958894 -0.03958951 -0.03958416 -0.03957224 -0.03955479 -0.03953936
 -0.03952647 -0.03952287 -0.03952701 -0.03953797 -0.03955462 -0.03957377 -0.03959685 -0.03962457 -0.03965767 -0.03969829
 -0.03974266 -0.03979005 -0.03983422 -0.0398722 -0.039901 -0.03991855 -0.03992711 -0.03992625 -0.03992182 -0.03991428
 -0.03990949 -0.03990792 -0.03991181 -0.03992109 -0.03993354 -0.03994895 -0.03996445 -0.0399805 -0.03999747 -0.04001614
 -0.04003899 -0.04006614 -0.04009961 -0.04013749 -0.04017873 -0.04021991 -0.04025745 -0.04028966 -0.0403136 -0.04033192
 -0.04034455 -0.04035573 -0.04036671 -0.04037979 -0.0403957 -0.0404149 -0.04043774 -0.04046189 -0.04048732 -0.04050838
 -0.04052489 -0.04053316 -0.04053389 -0.04053058 -0.04052421 -0.04052098 -0.04052077 -0.0405266 -0.04053741 -0.04055287
 -0.04057141 -0.04059142 -0.04061018 -0.04062441 -0.04063337 -0.0406341 -0.04063249 -0.04062922 -0.04063369 -0.04064943
 -0.04067897 -0.04072468 -0.04077811 -0.04083915 -0.04089408 -0.04094185 -0.0409747 -0.04099286 -0.04100397 -0.0410097
 -0.0410275 -0.04105663 -0.04110512 -0.04116679 -0.0412297 -0.04128643 -0.0413151 -0.04131798 -0.0412856 -0.04123241
 -0.04116778 -0.04110425 -0.041054 -0.04101774 -0.04099995 -0.04099329 -0.04099645 -0.04100382 -0.04101342 -0.04102698
 -0.0410443 -0.04106941 -0.04110266 -0.04114347 -0.04119162 -0.04124196 -0.04129368 -0.04133852 -0.04137522 -0.04139291
 -0.0413928 -0.04137084 -0.04133333 -0.04129064 -0.04124692 -0.04121335 -0.04118747 -0.04117037 -0.04116087 -0.04115771
 -0.04116309 -0.04117878 -0.04120179 -0.04123323 -0.04126213 -0.04128658 -0.0412986 -0.04129638 -0.04128166 -0.04125426
 -0.04122097 -0.04118218 -0.0411455 -0.04111107 -0.04108384 -0.04106262 -0.0410445 -0.04102878 -0.0410111 -0.04099333
 -0.04097774 -0.04096424 -0.04095535 -0.04094552 -0.04092938 -0.04090629 -0.0408714 -0.04083563 -0.04080295 -0.04077995
 -0.04077184 -0.04076913 -0.04077147 -0.04076619 -0.04075091 -0.04072553 -0.04068964 -0.04065134 -0.04061078 -0.04056824
 -0.04052211 -0.04045835 -0.04037608 -0.0402609 -0.04011939 -0.03996171 -0.03979735 -0.03965288 -0.03952516 -0.03942406
 -0.03933509 -0.03924706 -0.03915228 -0.03903871 -0.0389169 -0.03878746 -0.03866471 -0.03855519 -0.03845764 -0.03837559
 -0.03828841 -0.03819549 -0.03806469 -0.03789298 -0.03767276 -0.03740515 -0.03713317 -0.03685885 -0.0366212 -0.03641336
 -0.03622524 -0.03604742 -0.03584588 -0.03561908 -0.0353458 -0.03503371 -0.03468299 -0.03430549 -0.03391191 -0.03351251
 -0.0331206 -0.03272908 -0.03234491 -0.03193159 -0.0314796 -0.03096101 -0.03036152 -0.02971334 -0.02901711 -0.02831832
 -0.02762173 -0.02692359 -0.0262236 -0.02550757 -0.02477747 -0.02404788 -0.02331732 -0.0225913 -0.0218566 -0.02107372
 -0.02023951 -0.01931619 -0.01833989 -0.0173428 -0.01636157 -0.01545442 -0.01460519 -0.01382595 -0.01307738 -0.0123435
 -0.01160135 -0.01084027 -0.01005168 -0.009237366 -0.008361597 -0.007426464 -0.006338382 -0.005088927 -0.003636589 -0.001984449
 -0.0002919456 0.001432656 0.003037015 0.004545939 0.005999273 0.007421124 0.008908162 0.01045915 0.01211431 0.01387276
 0.01573222 0.01774352 0.01992967 0.02241151 0.02527592 0.0286055 0.03251278 0.03681615 0.0415285 0.04626773
 0.05094871 0.05536753 0.05947251 0.06329286 0.06682245 0.07019034 0.07340611 0.07669698 0.08008485 0.08389481
 0.08809209 0.09273697 0.09766713 0.102379 0.1068494 0.1107306 0.1142189 0.1174564 0.1205865 0.1238254
 0.1271773 0.1307166 0.1343912 0.1381914 0.1420877 0.146083 0.1500889 0.1540949 0.1579874 0.1617388
 0.1653875 0.1689337 0.1724439 0.1759166 0.1791983 0.1822734 0.1849181 0.187153 0.1889593 0.1903745
 0.1915146 0.1923759 0.1930063 0.1933905 0.1935038 0.1934015 0.1931226 0.1927331 0.1922956 0.1918285
 0.191361 0.1908732 0.1903713 0.1898035 0.1891675 0.1883783 0.1874288 0.1862157 0.184727 0.1829539
 0.1808989 0.1787235 0.1764313 0.1741302 0.1717974 0.1693728 0.1668406 0.1641091 0.1612024 0.1581077
 0.154901 0.1516819 0.1485223 0.1455445 0.1427445 0.1401609 0.1377585 0.1355177 0.1334608 0.1315835
 0.1299439 0.1285619 0.1274263 0.1265438 0.1258463 0.1253281 0.1249524 0.124718 0.1246376 0.1247123
 0.1249592 0.1253736 0.1259419 0.126656 0.1274839 0.1284216 0.1294439 0.1305547 0.1317465 0.1330317
 0.1344184 0.1359226 0.1375592 0.1393335 0.1412546 0.1433122 0.1455047 0.1478231 0.1502664 0.1528217
 0.155492 0.1582257 0.16102 0.1638114 0.1665979 0.1694003 0.1722254 0.1751672 0.1782047 0.1812949
 0.184377 0.1872122 0.1898081 0.1920453 0.1940048 0.195775 0.1973687 0.1988523 0.2001567 0.2012428
 0.2020921 0.2026703 0.2030353 0.203197 0.2032099 0.2030903 0.2028565 0.202518 0.2020416 0.2014275
 0.2006076 0.1995787 0.1983026 0.1967813 0.1950223 0.1930324 0.1908523 0.1884843 0.1859728 0.183283
 0.1803882 0.1771859 0.1734861 0.1692879 0.1644043 0.1592301 0.1539966 0.148979 0.1444634 0.1402148
 0.1362132 0.1322486 0.12824 0.1242442 0.1202515 0.1163941 0.1126879 0.1091268 0.1057102 0.102346
 0.09903497 0.09575117 0.09250768 0.08936527 0.08632542 0.08343326 0.08066341 0.07798362 0.07536772 0.07275766
 0.07015097 0.06752684 0.064879 0.06221616 0.05946699 0.05660719 0.05354735 0.05019689 0.04676343 0.04323518
 0.04005346 0.03731698 0.03500582 0.033142 0.0314034 0.02977477 0.0280636 0.0262778 0.02444372 0.02258034
 0.02081241 0.01912924 0.01756053 0.01608625 0.01466171 0.01331139 0.01204442 0.01091148 0.009981565 0.009252802
 0.008756806 0.008442537 0.008289885 0.008269714 0.008360271 0.00858093 0.008922431 0.009460526 0.01019553 0.01126851
 0.01269451 0.01454854 0.01683252 0.01928096 0.02186508 0.02415047 0.02614828 0.02769291 0.02882723 0.02960714
 0.03006484 0.0302917 0.03032168 0.0302354 0.03008527 0.02994637 0.02988664 0.02999092 0.03025891 0.03074479
 0.0313038 0.03189634 0.03241875 0.03282484 0.03314798 0.0333841 0.03359317 0.03378155 0.03397015 0.03416016
 0.03433375 0.03448978 0.03460753 0.03469036 0.03474316 0.03477659 0.03482635 0.03490746 0.03507246 0.03532775
 0.0357072 0.03620874 0.03683612 0.03760633 0.03852763 0.03963145 0.04094141 0.04245632 0.04418744 0.04609687
 0.04817176 0.05041691 0.05282059 0.05548304 0.05841276 0.06169033 0.06531969 0.06914616 0.07314898 0.0770169
 0.08075132 0.08420055 0.08738738 0.09032418 0.09299829 0.09539944 0.09747668 0.09914506 0.1003657 0.1010558
 0.1012208 0.1008316 0.09992675 0.0985124 0.09664335 0.09433195 0.09165096 0.08860528 0.08532377 0.08181375
 0.07827257 0.0747193 0.07129429 0.06800586 0.06483583 0.06177865 0.05875153 0.05576101 0.05279975 0.04988817
 0.0471009 0.04443694 0.04194007 0.03957793 0.03731865 0.03513286 0.03297103 0.03083031 0.02868764 0.02656479
 0.02446347 0.02241645 0.02043624 0.01854304 0.01674778 0.01503904 0.01341908 0.0118559 0.01034612 0.008873732
 0.007437671 0.006064696 0.004758256 0.003572378 0.002506868 0.00159109 0.000815588 0.0001632004 -0.0003764099 -0.0008367706
 -0.001221409 -0.001551784 -0.001825068 -0.002045638 -0.002211605 -0.002318881 -0.002379544 -0.002392981 -0.002391251 -0.002382727
 -0.002403614 -0.002464766 -0.002585698 -0.002772484 -0.003023589 -0.003340093 -0.003709709 -0.0041318 -0.004595327 -0.005099843
 -0.005638375 -0.006209035 -0.006798733 -0.007402053 -0.007993109 -0.008566624 -0.009096025 -0.009581937 -0.01001334 -0.01039335
 -0.01072323 -0.01099987 -0.0112223 -0.0113843 -0.01147953 -0.01151444 -0.01148533 -0.01141898 -0.01131817 -0.01121972
 -0.01112903 -0.01107736 -0.01106841 -0.01112102 -0.0112365 -0.01141968 -0.01166962 -0.0119752 -0.01233289 -0.01271602
 -0.01312059 -0.01351674 -0.01390528 -0.01427192 -0.0146225 -0.01496121 -0.01529085 -0.015618 -0.01593871 -0.01625153
 -0.01655441 -0.01684371 -0.01712672 -0.01740461 -0.01768652 -0.01797608 -0.01827307 -0.01857942 -0.01888267 -0.01918237
 -0.01946086 -0.01971707 -0.01993864 -0.02012558 -0.02027649 -0.02039207 -0.02047624 -0.02052875 -0.02055065 -0.02054149
 -0.02050048 -0.02042781 -0.02032472 -0.02018787 -0.02001593 -0.01979971 -0.0195313 -0.0192046 -0.0188115 -0.01835916
 -0.01784581 -0.01728974 -0.01669406 -0.01607811 -0.01544515 -0.01481018 -0.01417505 -0.01354894 -0.01293251 -0.01232884
 -0.01173794 -0.01116023 -0.01059589 -0.01004639 -0.009512057 -0.008995081 -0.008495119 -0.008012051 -0.007546342 -0.007097165
 -0.006669391 -0.006266589 -0.005898294 -0.005573009 -0.005298461 -0.005082894 -0.004923947 -0.004824023 -0.004773374 -0.004770037
 -0.004806411 -0.004880764 -0.004990016 -0.005133824 -0.005308508 -0.005513833 -0.005746571 -0.006006907 -0.006297601 -0.006619037
 -0.006975694 -0.007366484 -0.007789989 -0.00824415 -0.008723048 -0.00922547 -0.009747081 -0.01028633 -0.01084079 -0.01140613
 -0.01197861 -0.01255334 -0.01312576 -0.01369618 -0.01426203 -0.0148318 -0.01540624 -0.01599719 -0.01660728 -0.01724092
 -0.01789981 -0.01857423 -0.01926384 -0.01994952 -0.02063018 -0.02128694 -0.02191916 -0.02251326 -0.02306951 -0.02358109
 -0.0240497 -0.02447568 -0.0248617 -0.02521205 -0.02553006 -0.02582082 -0.02608841 -0.02633828 -0.02657158 -0.02679285
 -0.026993 -0.02717162 -0.02731205 -0.02740915 -0.02745521 -0.02744596 -0.02739373 -0.02729823 -0.0271838 -0.02705185
 -0.0269253 -0.02680505 -0.02670742 -0.02663201 -0.02658557 -0.02656463 -0.02656098 -0.02656788 -0.02656435 -0.02654502
 -0.02648962 -0.02639946 -0.02626658 -0.02609858 -0.02589843 -0.02567481 -0.02543275 -0.02518068 -0.02492181 -0.02466642
 -0.02441779 -0.02418292 -0.02396511 -0.023757 -0.02355943 -0.02335055 -0.02312915 -0.02287252 -0.02257984 -0.02223643
 -0.02184219 -0.02138915 -0.02087762 -0.02030405 -0.01966989 -0.01897635 -0.01822653 -0.0174254 -0.01657801 -0.01569135
 -0.01477249 -0.01382877 -0.0128678 -0.01189493 -0.01091832 -0.009940655 -0.008974363 -0.008022232 -0.007098073 -0.006205399
 -0.005348337 -0.004528599 -0.003737462 -0.002974606 -0.002226578 -0.001492699 -0.0007606623 -3.044811E-05 0.0007051589 0.001443731
 0.002179694 0.002909934 0.003620698 0.004317038 0.004998049 0.005679134 0.006379685 0.00710959 0.007888447 0.008705768
 0.009564481 0.01044068 0.01132499 0.01220228 0.01306376 0.01391669 0.01475888 0.01561342 0.01648264 0.0173836
 0.01831791 0.01928209 0.02027513 0.02127741 0.02228627 0.02327482 0.02423873 0.02514671 0.02599454 0.02675457
 0.02742619 0.02799584 0.0284641 0.02882709 0.02908359 0.02922962 0.02926998 0.0292025 0.02904586 0.02880449
 0.02850316 0.02814832 0.02776198 0.02734759 0.02692905 0.02650855 0.02611228 0.0257422 0.02541343 0.0251261
 0.02487931 0.02467273 0.02450239 0.02437076 0.02428456 0.02424963 0.02428443 0.0243948 0.02460105 0.02490317
 0.02531183 0.02581765 0.02641943 0.02709808 0.02784796 0.02863324 0.02944702 0.0302264 0.03095949 0.03156782
 0.03203637 0.03230558 0.03236507 0.0321982 0.03180218 0.03120388 0.03040638 0.02947068 0.02840354 0.02728313
 0.02611545 0.02496774 0.02384149 0.02277542 0.02176714 0.02083063 0.01996102 0.01915935 0.0184161 0.01772534
 0.01707287 0.01645025 0.01584149 0.01523939 0.0146284 0.01400329 0.01335221 0.01267194 0.01195701 0.01120601
 0.01042011 0.009599082 0.008751729 0.007878863 0.006997195 0.006107668 0.005225969 0.004350984 0.003486673 0.00263058
 0.001778316 0.0009273368 7.256176E-05 -0.0007922134 -0.001674806 -0.002586689 -0.003540761 -0.004544971 -0.005609585 -0.006732044
 -0.007914536 -0.009149881 -0.01043666 -0.01176872 -0.01314569 -0.01455714 -0.01600274 -0.01746483 -0.01894228 -0.02041855
 -0.02189313 -0.02335924 -0.02481716 -0.02626679 -0.02770691 -0.02913317 -0.03054188 -0.03192017 -0.033266 -0.03456757
 -0.03582962 -0.03705288 -0.03824405 -0.03941152 -0.04055317 -0.04167189 -0.0427582 -0.04380798 -0.04481735 -0.04578276
 -0.04671096 -0.04760203 -0.04846622 -0.04930489 -0.05012443 -0.05092573 -0.05170308 -0.05245551 -0.05315952 -0.05381333
 -0.05439005 -0.05489274 -0.05531847 -0.05567593 -0.05598858 -0.05626166 -0.0565182 -0.05675465 -0.05697567 -0.05717678
 -0.05735339 -0.05750876 -0.0576432 -0.05776132 -0.05786779 -0.05795485 -0.0580235 -0.05805504 -0.05804516 -0.05798592
 -0.05787374 -0.05772642 -0.05754445 -0.05735729 -0.05716606 -0.05698706 -0.05681973 -0.05666531 -0.05652463 -0.05640141
 -0.0562988 -0.05622858 -0.05619133 -0.05619546 -0.05623572 -0.05630966 -0.05640902 -0.0565263 -0.05665242 -0.05678137
 -0.05690077 -0.05700598 -0.05708003 -0.05711724 -0.05710543 -0.05703951 -0.05692446 -0.05675911 -0.0565613 -0.05633239
 -0.05608244 -0.05581152 -0.05551319 -0.0551871 -0.05482623 -0.05443316 -0.05401522 -0.05357663 -0.05313385 -0.05268849
 -0.05225246 -0.05182319 -0.05140257 -0.05098634 -0.05057003 -0.05015413 -0.0497352 -0.04932318 -0.04892087 -0.04853916
 -0.04818413 -0.0478514 -0.04754309 -0.04724086 -0.04694225 -0.04663766 -0.04632549 -0.04601791 -0.04571582 -0.04544151
 -0.04519521 -0.04498927 -0.04482096 -0.04468525 -0.04457723 -0.0444808 -0.04439055 -0.04428855 -0.04417082 -0.04402355
 -0.04384774 -0.04363719 -0.04340131 -0.04314227 -0.04287541 -0.04260826 -0.04235038 -0.04210771 -0.04187758 -0.04166103
 -0.0414506 -0.04124512 -0.04104256 -0.0408426 -0.04064648 -0.04045413 -0.04026237 -0.04007053 -0.03987087 -0.03966324
 -0.03944238 -0.03920974 -0.03896657 -0.0387152 -0.03846057 -0.03820518 -0.03795411 -0.03771026 -0.03747878 -0.03725949
 -0.03705636 -0.03685931 -0.03666671 -0.03646267 -0.03624055 -0.03599681 -0.03572747 -0.03544633 -0.03515465 -0.03486386
 -0.03457541 -0.0342863 -0.03399631 -0.03369889 -0.03339376 -0.03307654 -0.03274601 -0.03239267 -0.03201774 -0.03161622
 -0.03119848 -0.03078214 -0.03037868 -0.03001547 -0.0296884 -0.02940759 -0.02915299 -0.02891564 -0.0286749 -0.02841868
 -0.02813618 -0.02782054 -0.02747182 -0.0270875 -0.02667817 -0.02624409 -0.02580111 -0.02535039 -0.02490511 -0.02446588
 -0.02404009 -0.02362728 -0.02322676 -0.02283669 -0.0224477 -0.02205849 -0.02165964 -0.02125235 -0.0208345 -0.02040769
 -0.01997305 -0.01953257 -0.01908738 -0.0186429 -0.01820305 -0.01777202 -0.01735451 -0.01694542 -0.01654486 -0.01614436
 -0.01574149 -0.01533467 -0.0149231 -0.01450878 -0.01409175 -0.01367468 -0.01325785 -0.01284965 -0.01245057 -0.01206957
 -0.01170506 -0.01135382 -0.01101373 -0.01067556 -0.01034049 -0.01000663 -0.009675633 -0.009350092 -0.009028333 -0.008709593
 -0.008392399 -0.00807543 -0.00775806 -0.007440001 -0.007119535 -0.006794618 -0.006470945 -0.006147346 -0.005841401 -0.005555414
 -0.005301726 -0.005082212 -0.004890794 -0.004727094 -0.004578797 -0.00444536 -0.004318522 -0.004195819 -0.004062274 -0.003911864
 -0.003717515 -0.003475618 -0.003162974 -0.002785444 -0.002338943 -0.001837935 -0.001294503 -0.0007230839 -0.0001366633 0.0004537999
 0.001044027 0.001611886 0.002154367 0.002631945 0.003033692 0.003343237 0.003550345 0.003706549 0.003812975 0.003955849
 0.004139157 0.004409012 0.004762336 0.005184871 0.005670048 0.0061773 0.006702847 0.0072134 0.007709057 0.00817488
 0.008610221 0.009010381 0.009367717 0.009673437 0.009919664 0.01009417 0.01020671 0.01025494 0.01026379 0.01024077
 0.01020405 0.01015867 0.01011594 0.0100765 0.0100619 0.01007398 0.01013 0.01023054 0.01036357 0.01052711
 0.01069507 0.01086748 0.0110311 0.01118728 0.01133276 0.01147009 0.0116019 0.01173329 0.01187498 0.0120248
 0.01218597 0.01235061 0.01250733 0.01267396 0.01284627 0.01307992 0.01339927 0.01381224 0.0143399 0.01488541
 0.01543533 0.0159382 0.01638531 0.01680487 0.01719798 0.01758573 0.01796648 0.01832966 0.01867164 0.01896788
 0.01921637 0.01939597 0.0195104 0.01955507 0.01954058 0.01948303 0.01938457 0.01925765 0.01908843 0.01886776
 0.01859484 0.01825876 0.01789337 0.0175037 0.0171346 0.01679818 0.01651723 0.01629951 0.01613307 0.01601933
 0.01591626 0.01582165 0.01569181 0.01552673 0.01531274 0.01505153 0.01474739 0.01439669 0.013988 0.01352034
 0.01297732 0.0123819 0.01175653 0.01113687 0.01057531 0.0100762 0.009666792 0.009316097 0.009016498 0.008738672
 0.008467456 0.008200723 0.007928918 0.007692544 0.007492579 0.00739317 0.007401786 0.00753583 0.007796097 0.008136796
 0.008556363 0.009022201 0.00953737 0.01010715 0.01072577 0.01137904 0.01205377 0.01270877 0.01334667 0.01394939
 0.01453489 0.01511715 0.01570641 0.01631797 0.01694554 0.01759133 0.01824287 0.01889583 0.01954359 0.02018234
 0.02081764 0.02144895 0.02208809 0.02273578 0.02340474 0.02409573 0.02482835 0.02560244 0.02642842 0.02729552
 0.02815405 0.02898224 0.02967538 0.0302289 0.03057221 0.03073266 0.03072028 0.03056645 0.03030979 0.0299695
 0.02956703 0.0291287 0.02867046 0.02821925 0.02779113 0.02738573 0.02700654 0.02664403 0.02629457 0.02597359
 0.02568158 0.02544094 0.02525285 0.02511757 0.02503396 0.02498893 0.02498014 0.02498976 0.02501251 0.02502101
 0.02501074 0.0249562 0.02485977 0.02471119 0.02452229 0.02429595 0.0240618 0.02383962 0.02366258 0.02356418
 0.02352056 0.02354762 0.02354221 0.02348566 0.02328461 0.02291344 0.02238472 0.02169181 0.02093608 0.02012282
 0.01934687 0.01860765 0.01792296 0.01728369 0.01664365 0.0160007 0.01531616 0.014609 0.01390142 0.01321812
 0.01261455 0.01208918 0.01166612 0.01132364 0.01105206 0.01083583 0.01066612 0.01052667 0.01041217 0.01030138
 0.01018464 0.01006933 0.009951682 0.009870474 0.009830329 0.009838159 0.009894566</values></Ydata></AB><ScSm><Ydata ylabel="Single channel"><values byteorder="INTEL" format="FLOAT32" numvalues="1814"> 0.07324587 0.07324667 0.0733193 0.07348862 0.07372215 0.07394786 0.07410374 0.07417782 0.07419124 0.0741538
 0.07407321 0.07400683 0.07404919 0.07423939 0.07450397 0.07470764 0.07476076 0.0746969 0.07465426 0.07474089
 0.07488672 0.07486109 0.07448776 0.07384941 0.0732386 0.07289014 0.07283023 0.07304006 0.07360545 0.07446116
 0.07509056 0.07488947 0.07392617 0.07298209 0.07268604 0.07290964 0.07313033 0.07303894 0.0726366 0.07211124
 0.07188921 0.07252656 0.07416523 0.07607512 0.07691124 0.0755631 0.07194941 0.06727196 0.06356861 0.06261801
 0.06468966 0.06818767 0.07084945 0.0715504 0.07084529 0.06982516 0.06893586 0.06811778 0.067578 0.06783979
 0.06902435 0.07035826 0.07057746 0.06901681 0.06639975 0.06431565 0.06376506 0.0645366 0.06606756 0.06806006
 0.06961329 0.06872185 0.06424448 0.05841057 0.05583556 0.05913664 0.06614185 0.07200901 0.07353185 0.07095557
 0.06659423 0.06290548 0.06154481 0.06291975 0.06613062 0.06971606 0.07253379 0.0738142 0.07296489 0.07008554
 0.06647627 0.06401154 0.06398766 0.0666113 0.07095896 0.07506512 0.07681084 0.07548355 0.07225281 0.06893737
 0.06680721 0.06658022 0.06860086 0.07248951 0.07711472 0.0812408 0.08402979 0.08514161 0.08481674 0.08372038
 0.08243047 0.08133602 0.08099034 0.08177577 0.08299199 0.08311503 0.08145332 0.07906967 0.07768746 0.07790859
 0.07873197 0.07877308 0.07766984 0.07587212 0.07327373 0.06915805 0.06384249 0.0591484 0.05658245 0.05617373
 0.05754288 0.06049842 0.06377643 0.06496705 0.06315577 0.06061023 0.06054068 0.06367294 0.06787278 0.07074384
 0.07184712 0.0725221 0.07416724 0.07681182 0.0789457 0.07865641 0.07551976 0.07166041 0.07025129 0.07240425
 0.0761032 0.0786847 0.07964757 0.08036942 0.08169219 0.08261599 0.08134721 0.07743523 0.07290894 0.07101737
 0.07339972 0.07844391 0.08245775 0.08240436 0.07794559 0.07150646 0.06638247 0.06446326 0.06573192 0.0695231
 0.07525566 0.08177092 0.08702493 0.08923295 0.08817153 0.08508041 0.08124916 0.07683177 0.07150589 0.06642306
 0.06446031 0.06750409 0.07403558 0.08039153 0.0840359 0.08483197 0.08362402 0.08067824 0.07590158 0.07030891
 0.06650811 0.06668474 0.06997252 0.07293318 0.07314808 0.07142432 0.07004526 0.0699285 0.07027249 0.07028003
 0.07028786 0.07116581 0.07305943 0.07504115 0.07600693 0.07568904 0.07470595 0.07383955 0.07332938 0.07270794
 0.07145762 0.07002899 0.06980041 0.07156803 0.07444794 0.07678412 0.07781591 0.0779603 0.07770674 0.07677172
 0.07452354 0.07117391 0.06826746 0.06753684 0.06922647 0.07193978 0.07409737 0.07507382 0.07504556 0.07442161
 0.07356945 0.07269666 0.07190359 0.07143112 0.07160125 0.07235266 0.07314119 0.07348238 0.07334284 0.0729007
 0.07220885 0.07125673 0.07019994 0.0693676 0.06903246 0.06920549 0.06967038 0.07017753 0.07053253 0.07055984
 0.07016803 0.06948346 0.06877385 0.06820571 0.06778614 0.06752406 0.06748856 0.06767166 0.06791423 0.0680324
 0.06796408 0.06775828 0.067471 0.06711864 0.06671664 0.06632632 0.06604639 0.06594133 0.06596681 0.06599969
 0.06597571 0.06595091 0.06597506 0.06596584 0.06579636 0.06547032 0.0651253 0.06488159 0.0647516 0.06467859
 0.06459625 0.06443632 0.06413011 0.06366828 0.06317406 0.06285734 0.06284665 0.06309248 0.06344942 0.06378822
 0.06401226 0.06406309 0.06396671 0.06381226 0.06364755 0.06344105 0.06316306 0.06286652 0.06267294 0.06268069
 0.06287407 0.06312694 0.06331052 0.06338094 0.06336294 0.06330588 0.06327003 0.06328783 0.06331199 0.06325738
 0.06311313 0.06296714 0.0629081 0.06293441 0.06296729 0.06293933 0.06286689 0.06282827 0.0628688 0.06295142
 0.06301142 0.06303034 0.06303671 0.06305298 0.06305812 0.06300363 0.06287275 0.06271661 0.06260742 0.06256224
 0.06254461 0.06253353 0.06254913 0.06260577 0.06267351 0.06270219 0.06267275 0.06261355 0.06256088 0.06250968
 0.06242102 0.06228025 0.06212488 0.06200459 0.06193003 0.06187122 0.06179459 0.06169114 0.06157165 0.06144516
 0.06130939 0.06115888 0.06099107 0.06080759 0.0606238 0.06047405 0.06038591 0.06034325 0.06028944 0.0601766
 0.06000888 0.05983358 0.05969129 0.05957989 0.05947276 0.0593631 0.05927265 0.05921911 0.05919549 0.05918445
 0.05917551 0.05916598 0.05916476 0.05920199 0.05931563 0.05951162 0.05974304 0.05994361 0.06008498 0.06019397
 0.06031504 0.06046748 0.06064091 0.06082087 0.06101072 0.06122694 0.06146959 0.06170319 0.06188667 0.0620251
 0.0621693 0.06235906 0.06258969 0.06283587 0.06307629 0.06328861 0.06345549 0.06359153 0.06373972 0.06392629
 0.06413645 0.064343 0.06454112 0.06474411 0.06496031 0.06519008 0.06543924 0.06572232 0.06604896 0.0664089
 0.0667689 0.06708868 0.06735355 0.06759742 0.06788305 0.06824797 0.06867072 0.06909303 0.06947193 0.06980849
 0.07013053 0.07045574 0.070782 0.07111532 0.07148719 0.07192294 0.07240207 0.07287481 0.07331558 0.07373936
 0.07416797 0.0746032 0.0750359 0.0754644 0.07589664 0.07633922 0.07678504 0.07721254 0.07760375 0.07796472
 0.07832289 0.0787054 0.07912189 0.07955618 0.07996601 0.08030862 0.08058778 0.08086326 0.08118987 0.08155458
 0.08189821 0.08219409 0.08247768 0.08279587 0.08315262 0.08351597 0.08386172 0.08419514 0.084534 0.08487835
 0.08519861 0.08545784 0.08565022 0.08581296 0.08599396 0.0862175 0.08648899 0.08681361 0.08718391 0.08755945
 0.08788817 0.0881484 0.08835319 0.08852527 0.08869074 0.08888273 0.08912178 0.08939476 0.08966827 0.08991348
 0.09011331 0.0902724 0.09043291 0.09065224 0.09094759 0.09128603 0.09163996 0.09202062 0.09243846 0.09286362
 0.09326066 0.09364566 0.09406833 0.09453414 0.0949785 0.09533327 0.09559154 0.09579062 0.09596482 0.0961473
 0.09639131 0.09674075 0.09718102 0.09764928 0.09809355 0.09850125 0.09887782 0.09922232 0.09952722 0.09978713
 0.1000019 0.100177 0.1003258 0.1004739 0.1006527 0.1008735 0.1011058 0.1012929 0.101396 0.1014079
 0.1013253 0.1011361 0.1008535 0.1005382 0.1002476 0.09996608 0.09960918 0.09910215 0.09843218 0.09762447
 0.09669855 0.09566929 0.09457876 0.09350682 0.09254615 0.09177071 0.09122896 0.0909626 0.09101713 0.09141088
 0.09208301 0.09288335 0.09362473 0.09414397 0.09432526 0.09410672 0.09349938 0.09259276 0.09151763 0.09039162
 0.08928818 0.08822691 0.08718035 0.08611631 0.08506519 0.08414833 0.08353885 0.08341404 0.08394768 0.08529114
 0.0874787 0.09031747 0.09340568 0.09631371 0.09878217 0.1007745 0.1023888 0.1037538 0.1049793 0.1061314
 0.107218 0.1082125 0.1091002 0.109892 0.110596 0.1111977 0.111671 0.1119988 0.1121903 0.1122877
 0.1123502 0.1124214 0.1125177 0.1126427 0.1127918 0.1129339 0.1130004 0.1129049 0.1125741 0.1119686
 0.1110939 0.1100324 0.1090165 0.1084759 0.1089187 0.1106303 0.1134289 0.116741 0.1199419 0.1226454
 0.1247485 0.1263206 0.1274975 0.1284209 0.129199 0.1298904 0.1305207 0.1311051 0.1316584 0.132192
 0.1327105 0.1332147 0.1337106 0.1342085 0.1347083 0.1351923 0.1356435 0.1360682 0.136495 0.1369486
 0.1374269 0.1379061 0.1383688 0.1388218 0.1392787 0.1397313 0.1401549 0.1405417 0.1409126 0.1412973
 0.1417114 0.1421512 0.1425947 0.1430109 0.1433816 0.1437171 0.1440438 0.1443791 0.1447238 0.1450726
 0.1454217 0.1457691 0.1461154 0.1464684 0.1468389 0.1472225 0.1475923 0.1479176 0.148194 0.1484498
 0.1487196 0.1490151 0.1493223 0.1496232 0.1499197 0.1502349 0.1505901 0.1509802 0.1513733 0.151735
 0.1520533 0.1523432 0.1526293 0.1529256 0.1532312 0.1535397 0.1538473 0.1541525 0.1544563 0.1547633
 0.1550789 0.1553998 0.1557141 0.1560142 0.1563045 0.1565945 0.1568875 0.1571808 0.1574761 0.1577843
 0.158115 0.1584611 0.1587959 0.1590915 0.1593401 0.15956 0.1597811 0.1600271 0.1603048 0.1606058
 0.1609137 0.161214 0.1614993 0.1617703 0.1620336 0.1622975 0.1625693 0.162852 0.1631426 0.1634337
 0.1637198 0.1640012 0.1642812 0.1645595 0.1648321 0.165097 0.165357 0.1656169 0.165881 0.1661509
 0.1664235 0.166693 0.1669568 0.1672165 0.1674711 0.1677163 0.1679509 0.1681827 0.1684237 0.1686816
 0.1689548 0.1692327 0.1695006 0.1697504 0.1699889 0.1702342 0.1704987 0.1707742 0.1710391 0.1712826
 0.1715133 0.171746 0.1719849 0.1722254 0.1724623 0.1726938 0.1729226 0.1731544 0.1733927 0.173634
 0.1738712 0.1741006 0.1743254 0.1745534 0.1747899 0.175034 0.1752825 0.1755338 0.1757827 0.1760212
 0.176249 0.1764776 0.176716 0.176961 0.1772062 0.1774499 0.1776914 0.1779283 0.1781608 0.1783934
 0.1786333 0.1788837 0.1791393 0.1793895 0.1796279 0.1798546 0.1800703 0.1802766 0.1804821 0.1806947
 0.1809126 0.1811281 0.1813373 0.1815421 0.1817479 0.1819622 0.1821868 0.1824142 0.1826366 0.1828527
 0.1830629 0.1832705 0.1834849 0.1837128 0.1839496 0.1841888 0.1844302 0.1846727 0.1849108 0.1851426
 0.1853695 0.1855917 0.1858098 0.1860263 0.1862412 0.1864559 0.186679 0.186916 0.1871585 0.1873937
 0.1876165 0.1878273 0.1880322 0.1882414 0.1884569 0.1886704 0.1888784 0.1890863 0.1892962 0.1895065
 0.1897215 0.1899434 0.190165 0.1903812 0.1905945 0.1908051 0.1910128 0.1912238 0.1914397 0.1916514
 0.1918534 0.192048 0.1922361 0.1924246 0.1926307 0.1928585 0.1930874 0.1932976 0.1934857 0.1936448
 0.1937343 0.1936253 0.1929949 0.191223 0.1873888 0.1804586 0.169703 0.1551716 0.137843 0.1192727
 0.1010198 0.08425002 0.06963743 0.05746539 0.04778115 0.04049487 0.03544021 0.0324738 0.0315809 0.03298656
 0.03727613 0.04504671 0.05559374 0.06574759 0.07110578 0.06950985 0.06311297 0.05641982 0.05254066 0.05168415
 0.05250685 0.05386871 0.05541504 0.0573585 0.06005785 0.06361958 0.06788173 0.07284392 0.07887621 0.08625039
 0.09457622 0.1029611 0.1107766 0.118157 0.1257007 0.1337564 0.1420564 0.1499794 0.1570472 0.1631685
 0.1685415 0.1734311 0.1780192 0.1823844 0.1865534 0.1905045 0.194094 0.1970255 0.1989874 0.1998871
 0.1999655 0.1996668 0.1993802 0.1992883 0.1994089 0.1997091 0.2001624 0.2007519 0.2014648 0.2022822
 0.2031678 0.2040785 0.2049834 0.2058646 0.206708 0.2075049 0.208252 0.2089432 0.209572 0.2101417
 0.2106623 0.2111386 0.2115714 0.2119655 0.2123327 0.2126884 0.2130423 0.2133908 0.21372 0.2140214
 0.2142972 0.2145516 0.2147874 0.2150103 0.2152279 0.2154447 0.2156647 0.2158924 0.2161277 0.2163626
 0.2165889 0.2168048 0.2170143 0.2172254 0.2174438 0.2176662 0.2178839 0.2180959 0.2183083 0.2185222
 0.2187324 0.2189394 0.2191496 0.2193658 0.2195854 0.2198054 0.2200233 0.2202373 0.2204487 0.2206597
 0.2208712 0.2210879 0.2213168 0.2215583 0.221808 0.2220627 0.2223177 0.2225623 0.2227921 0.2230127
 0.223222 0.2234038 0.2235548 0.2237036 0.22389 0.2241292 0.2243997 0.224665 0.2249082 0.2251405
 0.225377 0.2256138 0.2258358 0.226034 0.2262156 0.226408 0.2266441 0.2269265 0.2272227 0.2275084
 0.2277888 0.2280709 0.2283479 0.2286186 0.228885 0.2291263 0.2293144 0.2294645 0.2296477 0.2299365
 0.2303315 0.2307489 0.2310971 0.2313648 0.2316108 0.2318878 0.2322066 0.2325332 0.2327728 0.2328277
 0.2327487 0.232768 0.2330905 0.2336887 0.2343571 0.2349222 0.2353483 0.2356875 0.2359904 0.2362572
 0.2364397 0.2364956 0.2364733 0.2365398 0.2368682 0.2374573 0.238115 0.2386549 0.2390447 0.2393397
 0.2395806 0.2397903 0.2399346 0.2398583 0.2394482 0.2389363 0.2388457 0.2394839 0.2405952 0.2416333
 0.2423008 0.2427006 0.2430325 0.2433467 0.2436031 0.2437097 0.2433954 0.2423661 0.2408703 0.2398609
 0.2402073 0.2418214 0.2438119 0.2453757 0.2463038 0.2467892 0.247085 0.2473347 0.247462 0.2471734
 0.2462882 0.2451819 0.2446954 0.2453601 0.2467996 0.2481284 0.2488533 0.2491434 0.249366 0.249674
 0.2498951 0.2494955 0.2478962 0.245326 0.2432331 0.2432614 0.2456447 0.2489228 0.2513866 0.2525463
 0.2529882 0.2531068 0.2525231 0.2507636 0.2479784 0.2448727 0.2424638 0.2419302 0.2438397 0.2471822
 0.2499384 0.2510685 0.2513969 0.2522681 0.2539418 0.2556081 0.256434 0.2562057 0.2551833 0.253644
 0.2517474 0.2499494 0.2492616 0.2505419 0.253451 0.2565653 0.2586917 0.2597737 0.260275 0.2597971
 0.2567962 0.2504314 0.2428959 0.2388325 0.2412466 0.2483646 0.2555409 0.2598349 0.2616372 0.2624964
 0.2630311 0.2627501 0.2603427 0.2544032 0.2456451 0.2382855 0.2371948 0.2430865 0.2517119 0.2578234
 0.2587487 0.2546771 0.2477231 0.2413027 0.2387445 0.2412701 0.2474521 0.2546312 0.2605134 0.2637957
 0.2641649 0.2621914 0.2592843 0.257335 0.2573538 0.2579849 0.256527 0.2523349 0.2478884 0.2451596
 0.2425731 0.2379345 0.2332276 0.233316 0.2396151 0.2477313 0.2523895 0.2527784 0.2516501 0.2503158
 0.2464265 0.2373677 0.2252024 0.2168002 0.2178311 0.2268883 0.2367362 0.2413802 0.2408399 0.2390797
 0.2387009 0.2382812 0.2344062 0.2261245 0.2172165 0.213039 0.2148625 0.2187319 0.2201627 0.2177693
 0.2117744 0.2025088 0.192858 0.1892292 0.1961792 0.2108484 0.2251891 0.2326019 0.2304037 0.2184258
 0.1998311 0.1828972 0.1770109 0.1843295 0.1971945 0.205171 0.2033651 0.1933612 0.178701 0.1623438
 0.1479662 0.1405008 0.1431812 0.1542206 0.1669958 0.1735 0.1687893 0.1546847 0.1398349 0.1335224
 0.1374034 0.144486 0.146983 0.1433406 0.137208 0.1325707 0.1313559 0.1332417 0.1360898 0.1378931
 0.1383974 0.1371002 0.1311061 0.1187066 0.1044026 0.09601706 0.09652579 0.1024973 0.1104324 0.1198663
 0.1291935 0.1335342 0.1302519 0.1240266 0.1229223 0.1298602 0.1400767 0.1468834 0.1482756 0.1473707
 0.1475114 0.1485522 0.1486337 0.1483491 0.1508834 0.1576195 0.1657017 0.1712133 0.1732602 0.1736177
 0.1737315 0.1736385 0.1729819 0.171649 0.1697026 0.1674834 0.1655038 0.1638669 0.1621749 0.160125
 0.1575071 0.1533797 0.1462952 0.13642 0.1268529 0.121246 0.1200245 0.1205545 0.1210406 0.1216666
 0.121094 0.1153194 0.1029537 0.08967977 0.08414048 0.08959611 0.1015032 0.1127167 0.1189374 0.1191048
 0.1133221 0.1031549 0.09358428 0.09146936 0.09991454 0.1152715 0.1310883 0.1436651 0.1523611 0.1565009
 0.1549576 0.1486764 0.1416141 0.1385134 0.1420969 0.1518342 0.1639499 0.1722065 0.1709602 0.1608917
 0.1517512 0.1551324 0.1721006 0.1911989 0.2013078 0.2029919 0.2038271 0.2066179 0.2080591 0.2072572
 0.2090744 0.21749 0.2297062 0.2388557 0.2399987 0.2320556 0.2171307 0.2009707 0.1915293 0.1927224
 0.200186 0.2061926 0.2072179 0.2035335 0.1946345 0.1811967 0.1700279 0.1699796 0.1816837 0.1962529
 0.2054223 0.2091342 0.2118726 0.2149111 0.2147456 0.2083919 0.1983243 0.1909403 0.1901967 0.1941036
 0.1980127 0.1994694 0.1983261 0.1940533 0.1860222 0.1763998 0.1701736 0.1708797 0.1770401 0.1836486
 0.1867655 0.1860835 0.1836659 0.1814426 0.1799725 0.1786373 0.1768674 0.1757227 0.1777139 0.183978
 0.192233 0.1990123 0.2035992 0.2082497 0.2146206 0.2214146 0.2258806 0.2267742 0.2255661 0.2252194
 0.2278266 0.2329075 0.2377187 0.2395735 0.2383985 0.237054 0.2387024 0.2437653 0.2498393 0.2544286
 0.256997 0.2584323 0.2595624 0.2604677 0.260456 0.258604 0.2551439 0.2522951 0.2527249 0.2569081
 0.2626545 0.267334 0.2699657 0.2711061 0.2714531 0.2710717 0.2697875 0.267888 0.2661764 0.2653621
 0.2655715 0.2664755 0.2676879 0.2689446 0.2700855 0.2710432 0.2718272 0.2724651 0.2729909 0.273472
 0.2739564 0.2743896 0.2746822 0.2748855 0.2752022 0.275754 0.2764098 0.2769152 0.2771189 0.2769749
 0.2764032 0.2753154 0.273774 0.2719707 0.2700022 0.2678036 0.2654163 0.263274 0.2620732 0.2622576
 0.2636247 0.265462 0.2670543 0.2680523 0.2684579 0.2684233 0.2681221 0.2677191 0.267343 0.2670482
 0.2668158 0.266608 0.2664155 0.2662509 0.266119 0.2660273 0.2660136 0.2661252 0.2663637 0.2666697
 0.2669663 0.2672058 0.2673824 0.2675208 0.2676493 0.2677711 0.2678557 0.26786 0.2677586 0.2675609
 0.2673069 0.2670404 0.266771 0.2664558 0.2660328 0.2654722 0.2647754 0.2639278 0.2629051 0.2617517
 0.2606039 0.2595847 0.2587042 0.2578922 0.2570861 0.256249 0.255339 0.254315 0.2531635 0.2518965
 0.2505294 0.2490748 0.2475449 0.2459472 0.2442793 0.24253 0.2406823 0.2387172 0.2366203 0.2343852
 0.2319991 0.2294117 0.2265245 0.2232218 0.2194113 0.215042 0.2101194 0.2047345 0.1990683 0.1933423
 0.1877537 0.182447 0.177526 0.1730795 0.1691936 0.165935 0.1633298 0.1613734 0.1600638 0.159415
 0.1594374 0.1601097 0.1613587 0.1630562 0.1650449 0.1671712 0.1692974 0.1713088 0.1731464 0.1748409
 0.1764925 0.1781957 0.1799721 0.1817674 0.1835083 0.1851471 0.1866532 0.1879886 0.1891209 0.1900502
 0.1908004 0.1913888 0.1918124 0.1920551 0.1921005 0.1919451 0.1916087 0.1911418 0.1906395 0.1902413
 0.1900919 0.1902879 0.1908601 0.1917857 0.1929962 0.1943845 0.1958321 0.1972436 0.1985708 0.1998155
 0.2010105 0.2021981 0.2034321 0.2047867 0.2063374 0.2081221 0.2101246 0.2122808 0.2144927 0.2166521
 0.2186676 0.2204809 0.2220727 0.2234691 0.2247307 0.2259193 0.2270746 0.228212 0.2293286 0.2304115
 0.2314491 0.2324306 0.2333411 0.2341697 0.2349191 0.2355931 0.2361863 0.2366974 0.2371379 0.237516
 0.237831 0.2380889 0.2383092 0.2385085 0.2386854 0.2388128 0.238844 0.238743 0.2385169 0.2382048
 0.2378332 0.2373884 0.2368295 0.2361209 0.2352547 0.2342397 0.2330719 0.2317353 0.2302358 0.2286115
 0.2269015 0.2251247 0.2232952 0.2214363 0.2195676 0.2176818 0.2157343 0.2136632 0.2114406 0.2091098
 0.2067658 0.2044982 0.2023504 0.2003109 0.1983377 0.1964038 0.1945191 0.1927024 0.190952 0.1892604
 0.1876365 0.1860939 0.1846354 0.1832629 0.181987 0.1808232 0.1797894 0.1789004 0.1781517 0.1775157
 0.176962 0.176473 0.176046 0.1756963 0.1754476 0.1752965 0.1751895 0.17505 0.1748292 0.1745342
 0.1742162 0.1739306 0.1736977 0.1734987 0.1732988 0.1730542 0.1727007 0.172157 0.1713488 0.1702226
 0.168752 0.1669462 0.1648648 0.162628 0.160405 0.1583624 0.1566023 0.1551501 0.1539818 0.1530422
 0.1522572 0.15157 0.1509795 0.150537 0.1502994 0.1502595 0.1502989 0.1502476 0.1500395 0.1497882
 0.149684 0.1498386 0.1502304 0.1507454 0.151244 0.1516251 0.1518523 0.1519303 0.1518835 0.1517513
 0.1515605 0.1512951 0.1509276 0.1504695 0.149959 0.1494125 0.1488108 0.1481235 0.147343 0.1465018
 0.1456342 0.1447274 0.1437421 0.1426597 0.141465 0.1401395 0.1387506 0.1375124 0.1366882 0.1364373
 0.1367385 0.1374034 0.1381892 0.138953 0.1396324 0.1400623 0.1400224 0.1396315 0.139533 0.1404237
 0.1423685 0.1447051 0.1466295 0.1477634 0.1481539 0.1479409 0.1472026 0.1460045 0.1443859 0.1423256
 0.1398374 0.1370323 0.1340323 0.1309511 0.1279727 0.1252947 0.1230054 0.1211096 0.1196025 0.11854
 0.1180648 0.1178001 0.1158736 0.1099197 0.1007252 0.09382404 0.09483708 0.1031497 0.1123445 0.1169785
 0.1169164 0.115076 0.1134762 0.1124387 0.1118763 0.1119331 0.1127346 0.1141315 0.1157095 0.1170284
 0.1179044 0.1183855 0.1184521 0.1177814 0.1156858 0.111336 0.1044221 0.09576216 0.08702773 0.07975212
 0.07464358 0.07161415 0.07009997 0.06938401 0.06894711 0.06870814 0.06893428 0.06991 0.07169083 0.07413585
 0.07706179 0.08023611 0.08327484 0.08577685 0.08762914 0.08902051 0.09011353 0.09085338 0.09111725 0.09089592
 0.09028865 0.08942317 0.08841697 0.0873532 0.08624722 0.08505895 0.08380701 0.08268504 0.0819663 0.08173631
 0.08181188 0.08196397 0.08210397 0.08222573 0.08231007 0.08233771 0.08231437 0.08228394 0.08235596 0.08264476
 0.08312961 0.08364652 0.08404095 0.08427468 0.08439785 0.08444522 0.08433525 0.08393826 0.08333406 0.0828456
 0.08261521 0.08231419 0.08155723 0.08049677 0.07972209 0.07961348 0.08001112 0.08047724 0.08068678 0.08057605
 0.08031633 0.08023022 0.08057809 0.08126126</values></Ydata></ScSm><ScRf><Ydata ylabel="Single channel"><values byteorder="INTEL" format="FLOAT32" numvalues="1820"> 0.06070723 0.06086946 0.06096415 0.06099141 0.06098113 0.06098516 0.06105411 0.06120538 0.0614084 0.06160041
 0.0617268 0.06177637 0.06177158 0.06172917 0.06165951 0.06160658 0.06164332 0.06179902 0.06201125 0.06216755
 0.06219584 0.0621276 0.06207901 0.06213944 0.06225313 0.06223493 0.06194244 0.06143693 0.06094504 0.06065053
 0.06057879 0.06072732 0.06117868 0.0618827 0.06240687 0.06224088 0.06143474 0.06063928 0.06038396 0.06056589
 0.06074965 0.06067743 0.06035056 0.05992286 0.059744 0.06027303 0.06162665 0.06319541 0.06385939 0.06270061
 0.05966428 0.0557609 0.05268544 0.05190778 0.05364255 0.05655945 0.05877929 0.05936961 0.05879082 0.05794619
 0.05720372 0.05651504 0.05605502 0.0562601 0.05723187 0.0583287 0.0585003 0.05719319 0.05500893 0.05326895
 0.05280396 0.05343939 0.0547124 0.05637625 0.05767124 0.05691615 0.05316297 0.04828457 0.04613914 0.04890546
 0.05476007 0.05965474 0.06091484 0.05875405 0.05511548 0.05205522 0.05094597 0.05211031 0.0547882 0.05776821
 0.06011104 0.0611776 0.06046682 0.05805827 0.05504056 0.05298169 0.05296286 0.05515313 0.05877778 0.06219471
 0.06363948 0.06252424 0.05982741 0.05706313 0.05528738 0.05509916 0.05678741 0.0600353 0.06389701 0.0673397
 0.069663 0.07058169 0.07029563 0.06936429 0.06828067 0.0673774 0.06711054 0.06778319 0.06880043 0.06889457
 0.06749988 0.06550902 0.06435645 0.06453868 0.06522103 0.0652543 0.06433858 0.06284259 0.06067061 0.05722823
 0.05279133 0.04888281 0.04675085 0.04641373 0.04756371 0.050053 0.05282452 0.05385325 0.05236569 0.05025217
 0.05019315 0.05279845 0.05629385 0.05868308 0.05959709 0.06015055 0.06151238 0.06371253 0.06549563 0.06526605
 0.06266479 0.05946033 0.0583024 0.06012335 0.06324142 0.06543306 0.06628208 0.06693859 0.06809732 0.06891137
 0.06787898 0.06463501 0.06089342 0.05937805 0.06144964 0.0657445 0.06916421 0.06916187 0.06545445 0.06008673
 0.05584023 0.05430866 0.05548004 0.0588053 0.0638052 0.06949592 0.07413217 0.07618454 0.07544574 0.07295562
 0.06980777 0.06613368 0.06166492 0.05741617 0.05589782 0.05875125 0.0646529 0.07041502 0.07382627 0.07475377
 0.07391351 0.07151667 0.06747076 0.06268929 0.05952404 0.05994188 0.06315024 0.06604094 0.06644362 0.06511095
 0.06411759 0.06427801 0.06483962 0.06507695 0.06533137 0.06643371 0.06851584 0.07069021 0.07190366 0.07189341
 0.07124151 0.07069942 0.07050245 0.07019353 0.0692679 0.06817637 0.06827487 0.07033676 0.07348683 0.07609862
 0.0774274 0.07788606 0.07795326 0.07732856 0.0753608 0.07226569 0.06962862 0.0692291 0.07131944 0.07446384
 0.07703137 0.07837115 0.07866727 0.07835068 0.07780388 0.07723503 0.07674248 0.07658394 0.07711282 0.07827263
 0.07947759 0.08019815 0.08039674 0.08026543 0.07984751 0.07911715 0.07825457 0.07764708 0.07760893 0.07814693
 0.07900912 0.07990756 0.08062041 0.08095274 0.08080444 0.08032009 0.079808 0.07946134 0.07928531 0.07928831
 0.07955438 0.08007292 0.08064969 0.08106978 0.08127035 0.08131169 0.08125421 0.08111565 0.08091349 0.08071452
 0.08063674 0.0807675 0.08105649 0.08134659 0.08155744 0.08176649 0.08204171 0.08227769 0.08230585 0.08212078
 0.08189652 0.08179685 0.08184406 0.08196089 0.08205985 0.08205951 0.08187541 0.08149268 0.08106653 0.08086584
 0.08105788 0.0815866 0.08226906 0.08292834 0.08342437 0.08367957 0.08373537 0.08370928 0.0836586 0.08354121
 0.08332534 0.08309043 0.08300071 0.08318143 0.08360654 0.08410971 0.08451696 0.0847549 0.08484719 0.08487634
 0.08495376 0.0851357 0.08534008 0.08542186 0.08535479 0.08527267 0.08530837 0.08544259 0.08553827 0.08550257
 0.08539411 0.08536297 0.08549298 0.08572625 0.08594733 0.08611052 0.08626456 0.08646429 0.08667205 0.08676498
 0.08666523 0.08644822 0.08627194 0.08620875 0.08621298 0.08625008 0.08636586 0.08659056 0.08684398 0.0869998
 0.08702417 0.0870038 0.08703242 0.0871002 0.08711372 0.08700933 0.08682317 0.08665441 0.08658244 0.08661901
 0.0867133 0.08678927 0.08679152 0.08671413 0.08659321 0.08647206 0.08637628 0.0863248 0.08635541 0.08650922
 0.0867637 0.08699402 0.08704484 0.08686891 0.08658469 0.08637455 0.0863205 0.0863447 0.08630456 0.08613013
 0.08586714 0.08561008 0.08541752 0.08528744 0.08518786 0.08509848 0.08503684 0.08505338 0.08517849 0.08535393
 0.08544032 0.08533346 0.08506927 0.08478723 0.08460087 0.08452811 0.08452186 0.08452769 0.08452551 0.08454385
 0.08461596 0.08470909 0.08473681 0.08466157 0.08454588 0.08448716 0.08454169 0.08471078 0.08493912 0.08511627
 0.08514661 0.08504677 0.08493477 0.08490676 0.08495985 0.08504043 0.08512098 0.08520614 0.08529865 0.08539619
 0.08551353 0.08568148 0.0859149 0.08618727 0.08643892 0.08661493 0.08670942 0.08678193 0.08692062 0.08717325
 0.08750717 0.08783719 0.08809602 0.08828345 0.08844912 0.08863008 0.08881915 0.08900333 0.08921005 0.08948259
 0.08981871 0.09016755 0.09048746 0.0907795 0.09106423 0.09135184 0.09164413 0.09195333 0.09230736 0.09272388
 0.09316842 0.09355257 0.09380172 0.09392867 0.09403087 0.09421925 0.09454435 0.09495544 0.09531848 0.09551853
 0.09557894 0.09564806 0.09583759 0.09611038 0.09636532 0.09659436 0.09689185 0.09731373 0.09778402 0.09816436
 0.09839278 0.09853286 0.09869201 0.09890598 0.09911375 0.09924525 0.09931241 0.09938896 0.09951541 0.09967258
 0.09985817 0.1001298 0.1005276 0.1009912 0.1014033 0.1016989 0.1018943 0.1020324 0.1021398 0.1022226
 0.1022725 0.102287 0.1022989 0.1023567 0.1024589 0.1025457 0.1025782 0.1025945 0.1026624 0.1028102
 0.1030297 0.1033105 0.1036315 0.1039419 0.1042052 0.1044609 0.104786 0.1051766 0.1055161 0.1056994
 0.1057501 0.105768 0.1058004 0.1058309 0.1058732 0.1059954 0.1062383 0.1065663 0.1069183 0.1072689
 0.1076231 0.1079759 0.1082914 0.1085158 0.1086113 0.108593 0.1085353 0.1085359 0.1086638 0.1089246
 0.1092618 0.109594 0.109863 0.1100471 0.1101369 0.1101276 0.1100592 0.1100314 0.1101312 0.1103337
 0.110503 0.110503 0.1102903 0.109899 0.1093727 0.1087412 0.1080517 0.107387 0.1068349 0.1064444
 0.1062267 0.1061967 0.1063944 0.1068421 0.1074837 0.1081959 0.1088608 0.1093983 0.1097242 0.1097392
 0.1094014 0.108787 0.1080436 0.107299 0.1066226 0.1060274 0.1054742 0.1049151 0.1043834 0.1040337
 0.104066 0.104607 0.1056492 0.1070585 0.108614 0.1100807 0.1113056 0.1122732 0.1130684 0.1137822
 0.1144578 0.1151124 0.1157714 0.1164457 0.1170953 0.1176592 0.118126 0.1185415 0.1189476 0.1193414
 0.1196937 0.1199816 0.1202082 0.1204074 0.1206124 0.120804 0.1209135 0.1209005 0.1208017 0.1206808
 0.1205535 0.1203825 0.1201219 0.1197537 0.1193126 0.1189118 0.1187329 0.1189513 0.1196352 0.1207017
 0.1219767 0.1233021 0.1245814 0.1257383 0.1266829 0.1273577 0.1277951 0.1280969 0.1283594 0.1286333
 0.1289315 0.1292475 0.1295655 0.1298706 0.1301575 0.1304387 0.1307415 0.1310828 0.1314381 0.1317521
 0.1319964 0.132208 0.1324624 0.1328044 0.1332052 0.1335898 0.1339165 0.1342146 0.1345279 0.1348407
 0.135097 0.1352813 0.135441 0.1356363 0.1359013 0.1362401 0.136618 0.1369624 0.1372131 0.1373799
 0.1375285 0.1377131 0.1379409 0.1381922 0.1384487 0.1387014 0.138951 0.1392124 0.1395069 0.1398326
 0.140146 0.1403892 0.1405455 0.1406602 0.1407998 0.1409943 0.141221 0.1414398 0.1416396 0.1418521
 0.1421201 0.1424465 0.1427778 0.1430441 0.1432174 0.1433302 0.1434408 0.1435881 0.1437787 0.1439989
 0.1442263 0.1444385 0.1446266 0.1448054 0.1450002 0.1452212 0.1454541 0.1456768 0.1458789 0.1460671
 0.146256 0.146457 0.1466756 0.146919 0.147196 0.1475003 0.1477978 0.1480455 0.1482272 0.1483631
 0.1484871 0.1486227 0.1487792 0.1489566 0.149149 0.1493477 0.149547 0.1497451 0.1499419 0.1501377
 0.1503343 0.1505366 0.150749 0.1509714 0.1511994 0.1514306 0.1516644 0.1518965 0.1521176 0.1523226
 0.1525156 0.1527052 0.1528966 0.1530891 0.1532764 0.1534532 0.1536229 0.1537983 0.1539891 0.1541919
 0.1543948 0.1545899 0.1547794 0.1549715 0.1551705 0.1553718 0.1555691 0.1557643 0.1559674 0.1561838
 0.1564065 0.1566215 0.1568185 0.1569974 0.1571667 0.1573385 0.1575235 0.1577272 0.1579465 0.1581692
 0.1583811 0.1585765 0.1587626 0.1589523 0.1591529 0.15936 0.1595643 0.1597621 0.1599562 0.1601478
 0.1603358 0.1605239 0.1607193 0.1609257 0.1611402 0.1613575 0.1615723 0.1617822 0.1619885 0.1621949
 0.1624052 0.1626239 0.1628529 0.1630858 0.1633114 0.163525 0.1637308 0.1639329 0.1641313 0.1643232
 0.1645069 0.1646854 0.1648652 0.1650501 0.1652363 0.1654174 0.1655897 0.1657556 0.1659254 0.16611
 0.1663083 0.166509 0.166708 0.1669127 0.1671261 0.1673416 0.1675515 0.1677534 0.1679491 0.1681445
 0.1683454 0.168552 0.1687621 0.1689763 0.1691914 0.1693999 0.1695992 0.169796 0.1699967 0.1702044
 0.1704196 0.1706365 0.1708468 0.1710538 0.1712688 0.1714943 0.1717231 0.1719503 0.1721738 0.1723883
 0.1725899 0.1727788 0.1729578 0.1731375 0.173333 0.173546 0.1737627 0.1739753 0.1741899 0.1744121
 0.1746413 0.1748736 0.1750993 0.1753105 0.1755153 0.1757259 0.1759389 0.1761459 0.1763514 0.1765603
 0.1767682 0.1769735 0.1771759 0.1773573 0.1774697 0.1773956 0.1768475 0.1752601 0.1717793 0.1654371
 0.1555493 0.1421627 0.1261885 0.1090655 0.09223057 0.07675952 0.06327884 0.05205464 0.04313148 0.03642461
 0.0317799 0.02906523 0.02826381 0.029576 0.03353933 0.04071442 0.05046384 0.05986183 0.06483066 0.06336567
 0.05745625 0.05127248 0.04769512 0.04691733 0.04769265 0.0489624 0.0503977 0.05219727 0.05469424 0.05798537
 0.06191924 0.06649978 0.07207963 0.07891785 0.08664952 0.09443567 0.101684 0.1085164 0.1154909 0.1229354
 0.130606 0.1379303 0.1444684 0.1501394 0.1551281 0.1596738 0.1639327 0.1679715 0.1718235 0.1754846
 0.178827 0.1815639 0.1833875 0.184202 0.1842367 0.1839169 0.1836136 0.183499 0.183589 0.1838543
 0.184273 0.184829 0.1855037 0.1862694 0.1870866 0.1879186 0.1887462 0.1895597 0.190345 0.191089
 0.1917857 0.1924292 0.1930123 0.1935353 0.194008 0.1944421 0.194847 0.1952288 0.1955904 0.1959334
 0.1962601 0.1965703 0.1968608 0.1971316 0.1973868 0.1976277 0.197855 0.1980736 0.1982892 0.1985032
 0.1987153 0.1989279 0.1991414 0.1993524 0.1995582 0.1997609 0.1999656 0.2001771 0.2003945 0.2006058
 0.2007992 0.2009793 0.2011646 0.201366 0.2015746 0.2017734 0.2019552 0.2021269 0.2023017 0.2024882
 0.2026868 0.2028948 0.2031071 0.2033157 0.2035153 0.2037126 0.2039176 0.2041288 0.2043379 0.2045426
 0.2047454 0.2049471 0.2051519 0.2053664 0.2055823 0.2057754 0.2059325 0.2060733 0.2062373 0.2064492
 0.2066964 0.2069414 0.2071587 0.2073546 0.2075488 0.2077472 0.2079397 0.2081131 0.2082697 0.208439
 0.208659 0.208929 0.209205 0.2094539 0.2096845 0.2099157 0.2101516 0.2103938 0.2106376 0.21085
 0.210993 0.2110842 0.2112078 0.211448 0.2118086 0.2122032 0.2125359 0.2127843 0.2129954 0.2132221
 0.2134884 0.2137694 0.2139706 0.2139937 0.2138895 0.2138808 0.2141568 0.2146861 0.2152793 0.2157818
 0.216162 0.2164624 0.2167243 0.2169446 0.2170769 0.2170854 0.2170233 0.217051 0.2173229 0.2178273
 0.2183834 0.2188254 0.2191334 0.219364 0.2195549 0.2197233 0.2198341 0.2197407 0.2193342 0.2188244
 0.2186946 0.2192356 0.2202188 0.2211412 0.2217255 0.2220648 0.2223449 0.2226141 0.2228327 0.2229087
 0.2225866 0.2215991 0.220189 0.2192454 0.2195639 0.2210426 0.2228431 0.2242299 0.2250332 0.2254496
 0.2257103 0.2259291 0.2260214 0.2257205 0.2248754 0.2238421 0.2233895 0.2239935 0.2253019 0.2265095
 0.2271763 0.2274573 0.2276736 0.2279527 0.2281397 0.2277532 0.2262626 0.2238746 0.2219192 0.2219105
 0.2240691 0.2270602 0.2293143 0.2303733 0.2307674 0.2308605 0.2303118 0.2286884 0.2261225 0.2232548
 0.221018 0.2204971 0.2222159 0.2252497 0.2277495 0.2287626 0.2290388 0.2298075 0.2313155 0.2328312
 0.233589 0.233382 0.2324412 0.2310213 0.2292742 0.2276246 0.2269984 0.2281649 0.2307947 0.2335826
 0.235457 0.2363932 0.2368284 0.236385 0.233626 0.2277771 0.2208659 0.2171582 0.2193957 0.2259336
 0.2325082 0.2364305 0.2380663 0.2388371 0.239304 0.2390129 0.2367736 0.2313198 0.2233192 0.2166243
 0.2156637 0.2210631 0.2289371 0.2345098 0.2353512 0.2316295 0.2252746 0.2194148 0.2170919 0.2194142
 0.2250737 0.2316387 0.2370134 0.2400172 0.240372 0.2385915 0.2359558 0.2342019 0.2342556 0.2348609
 0.2335412 0.2297247 0.225693 0.2232431 0.2209276 0.2167484 0.2125359 0.2127433 0.218644 0.2261848
 0.2305344 0.2309828 0.230071 0.2289804 0.2255294 0.2173206 0.2062746 0.1987322 0.1999076 0.2084694
 0.2177245 0.2221751 0.2218936 0.2205624 0.2205705 0.2205708 0.2173618 0.2100497 0.2021962 0.1988417
 0.2011606 0.2054178 0.2074069 0.2058158 0.2008002 0.1926419 0.1841292 0.1814332 0.1889255 0.2038477
 0.2184553 0.2263862 0.2250139 0.2141029 0.1967145 0.1810561 0.1764964 0.1851904 0.1994644 0.2088589
 0.2084337 0.1996984 0.1861544 0.1708673 0.1578562 0.152599 0.1587909 0.1745763 0.1924902 0.2031596
 0.2005234 0.1865738 0.1717857 0.1675926 0.1759756 0.1880614 0.1940284 0.1920053 0.1867469 0.183531
 0.185103 0.1911062 0.1984627 0.2042892 0.2082031 0.2090845 0.201999 0.1841302 0.1626281 0.1498849
 0.1506759 0.1597612 0.1717861 0.1860687 0.2000833 0.2061899 0.2002388 0.1894016 0.1860356 0.1945658
 0.2077112 0.2153895 0.2146944 0.2104068 0.2076459 0.20644 0.204263 0.2019081 0.2037099 0.2115448
 0.2215365 0.2283801 0.2308675 0.2314068 0.2319546 0.2325289 0.2325802 0.2318944 0.2305336 0.2289805
 0.2279809 0.2277058 0.2275923 0.2271871 0.2261404 0.2229558 0.2153087 0.2033161 0.1916075 0.1856541
 0.185973 0.1885148 0.1906862 0.1928672 0.1928057 0.184026 0.1643841 0.1431008 0.1340481 0.1423385
 0.1605188 0.1770703 0.1852328 0.1835906 0.1726438 0.1550152 0.1381734 0.1320669 0.1409988 0.1595024
 0.1781948 0.1918494 0.1999117 0.2019978 0.1969801 0.1862302 0.1748457 0.1687079 0.1709278 0.1805119
 0.1926715 0.2000198 0.1962073 0.1822668 0.1693637 0.1705187 0.1869287 0.2059284 0.2152222 0.2153163
 0.2144342 0.2157349 0.215794 0.2136506 0.2143842 0.2221899 0.234232 0.2434453 0.244748 0.2370545
 0.22259 0.2073612 0.1995907 0.2030942 0.2128662 0.2204544 0.2220997 0.2182512 0.2085944 0.1941043
 0.1822786 0.1826393 0.1957094 0.2117706 0.2218998 0.2261016 0.2292531 0.2327012 0.2326138 0.2257716
 0.2149345 0.2071365 0.2067403 0.2116409 0.2168613 0.2198002 0.2202738 0.2175577 0.210833 0.2025722
 0.1985717 0.2029244 0.2137606 0.2249578 0.2315881 0.2330037 0.2314294 0.2290681 0.2266019 0.2233564
 0.2187893 0.2144166 0.2135078 0.2175994 0.2240638 0.228819 0.2309981 0.2332317 0.2375032 0.2424117
 0.2448782 0.2435096 0.2399273 0.2373537 0.2380256 0.2414201 0.2446459 0.2449077 0.2421616 0.2394045
 0.2399152 0.2441269 0.2495734 0.2536929 0.2559148 0.257123 0.258147 0.2590376 0.2590246 0.257097
 0.2534366 0.2502527 0.250212 0.253789 0.2588161 0.2627278 0.2646345 0.2651612 0.2650268 0.264298
 0.2628162 0.2608799 0.2592575 0.2585765 0.2588747 0.2597581 0.2608053 0.2617466 0.2624516 0.2629172
 0.2632213 0.2634218 0.2635396 0.2636244 0.2637296 0.2638101 0.263764 0.2636182 0.2635651 0.2637468
 0.2640759 0.2643366 0.264389 0.264182 0.2636371 0.2626712 0.2613426 0.2598448 0.2583004 0.2566688
 0.2549745 0.2535899 0.2531424 0.2540338 0.2560574 0.2585202 0.2607256 0.2623252 0.2633118 0.2638301
 0.264046 0.264101 0.2640858 0.2640233 0.2638942 0.263683 0.2634001 0.2630671 0.2626976 0.2623054
 0.2619221 0.2615861 0.2613032 0.26103 0.2607038 0.2602894 0.2597989 0.2592742 0.258746 0.2581992
 0.2575774 0.256829 0.2559504 0.2549921 0.2540337 0.2531462 0.2523516 0.251606 0.250837 0.2499987
 0.249074 0.2480415 0.2468973 0.2457211 0.2446595 0.2438042 0.2431154 0.2424797 0.2418052 0.2410465
 0.2401872 0.2392389 0.2382357 0.2372024 0.2361358 0.235021 0.2338446 0.2325885 0.231234 0.2297834
 0.2282614 0.2266923 0.225089 0.2234585 0.2217911 0.22003 0.2180615 0.2157461 0.2129612 0.2096252
 0.2057144 0.2012853 0.1964868 0.1915299 0.1866266 0.1819459 0.1776141 0.1737337 0.1703856 0.1676252
 0.1654931 0.164031 0.163276 0.1632402 0.1639037 0.1652246 0.1671405 0.1695557 0.1723372 0.1753255
 0.1783496 0.1812447 0.183892 0.186271 0.1884569 0.190536 0.1925199 0.1943535 0.1959895 0.1974234
 0.1986649 0.1997178 0.2005938 0.2013205 0.2019251 0.2024231 0.2028282 0.2031617 0.203447 0.2036976
 0.2039162 0.2041098 0.204299 0.2045061 0.2047365 0.2049808 0.205236 0.2055198 0.2058619 0.2062837
 0.2067797 0.2073221 0.2078876 0.2084757 0.2090963 0.2097558 0.2104693 0.211277 0.2122287 0.2133486
 0.2146183 0.2159852 0.2173779 0.2187138 0.2199086 0.2208953 0.2216412 0.2221477 0.222435 0.222535
 0.2224854 0.2223154 0.2220365 0.2216579 0.2212025 0.2206917 0.2201256 0.2194976 0.2188228 0.2181327
 0.2174444 0.2167507 0.2160424 0.2153264 0.2146211 0.2139429 0.2132985 0.2126844 0.2120877 0.2114952
 0.2109068 0.2103348 0.209785 0.209244 0.2086907 0.2081057 0.207462 0.2067236 0.2058737 0.204932
 0.2039275 0.2028604 0.2017069 0.2004516 0.1991009 0.1976671 0.1961542 0.1945626 0.1928985 0.1911673
 0.1893547 0.1874326 0.1854047 0.183341 0.1813455 0.1794895 0.1777844 0.1762043 0.1747195 0.1733133
 0.1719802 0.1707105 0.1694846 0.1682954 0.16716 0.1660925 0.1650805 0.1641081 0.1631891 0.1623618
 0.1616561 0.1610706 0.1605732 0.1601246 0.1597073 0.1593316 0.1590248 0.1588235 0.1587555 0.1588035
 0.1588927 0.1589352 0.1588871 0.1587638 0.1586151 0.1584909 0.1584142 0.158378 0.1583569 0.1583082
 0.1581638 0.1578392 0.1572558 0.1563616 0.1551461 0.1536413 0.1519081 0.1500405 0.1481795 0.1464816
 0.1450499 0.1439149 0.1430659 0.1424535 0.1419802 0.1415553 0.1411719 0.1409073 0.1408506 0.141016
 0.1412962 0.1415201 0.1416058 0.141644 0.1418062 0.1422004 0.1428191 0.1435665 0.1443125 0.1449577
 0.145462 0.1458192 0.146043 0.146176 0.1462542 0.1462653 0.1461801 0.1460057 0.1457684 0.1454744
 0.1451096 0.1446552 0.1441054 0.1434886 0.1428404 0.142151 0.1413834 0.1405209 0.1395416 0.1384067
 0.1371683 0.1360447 0.1353111 0.1351376 0.135525 0.1363218 0.1373164 0.138368 0.139389 0.1401838
 0.1405067 0.1404408 0.1405808 0.1416081 0.1436461 0.1461267 0.1482964 0.1497562 0.1504986 0.1506161
 0.1501622 0.1491895 0.1477176 0.1457064 0.1431816 0.1402934 0.1371954 0.1340212 0.1309826 0.1282974
 0.1260414 0.1241928 0.1227332 0.1217185 0.1213013 0.121108 0.1192136 0.1131689 0.1037919 0.09682846
 0.0981023 0.1069567 0.1167232 0.1217521 0.1218931 0.1201573 0.1186229 0.1176085 0.1170242 0.1170419
 0.117803 0.1191346 0.1205965 0.1217644 0.1224996 0.1228833 0.1228875 0.1221364 0.119876 0.1152387
 0.1079191 0.09877158 0.08953337 0.08182155 0.07639979 0.07317385 0.07153371 0.07071827 0.07019135 0.06989194
 0.07012762 0.0711998 0.07314612 0.07581134 0.07901593 0.08251487 0.0858852 0.08869883 0.09085007 0.09254631
 0.09395245 0.0949982 0.09554462 0.09558111 0.09521739 0.09459567 0.09385215 0.09307602 0.09223647 0.09120545
 0.08995392 0.08871329 0.08782573 0.08741698 0.08732097 0.08731961 0.08732277 0.08731871 0.08729732 0.08725357
 0.08719416 0.08715563 0.08723889 0.08754264 0.08802447 0.0885044 0.08883059 0.08899705 0.08909547 0.08915104
 0.08899838 0.08842567 0.08752307 0.08670246 0.08617788 0.08561641 0.08458665 0.08322768 0.08217385 0.0818582
 0.08212727 0.08251476 0.08267108 0.08251578 0.0822075 0.08207954 0.08242236 0.08314189 0.08372995 0.08374228
</values></Ydata></ScRf><Data_Parameters_AB><parameter name="DPF">1</parameter><parameter name="NPT">3497</parameter><parameter name="FXV">3996</parameter><parameter name="LXV">500</parameter><parameter name="CSF">1</parameter><parameter name="MXY">0.20320987701416</parameter><parameter name="MNY">-0.0829022973775864</parameter><parameter name="DAT">01/06/2022</parameter><parameter name="TIM">11:57:13.119 (GMT+2)</parameter><parameter name="DXU">WN</parameter></Data_Parameters_AB><AB__Qtest><MainReport name="Quality Test Report"><Header><Line><Legend>Test result ok/not ok [1/0]: </Legend><Value>0</Value></Line><Line><Legend>Method file: </Legend><Value>C:\Users\Public\Documents\Bruker\OPUS_8.2.28\QT\IRBT_v3_default.QT</Value></Line></Header><Matrix><Line><Legend></Legend><Legend>min</Legend><Legend>max</Legend><Legend>measured</Legend></Line><Line><Value>Absorption (X-Range 1):</Value><Value>0.400000</Value><Value>2.000000</Value><Value>0.234897</Value></Line><Line><Value>Noise (X-Range 4):</Value><Value></Value><Value>0.000300</Value><Value>0.000058</Value></Line><Line><Value>Signal/Noise (X-Range 2):</Value><Value>200.000000</Value><Value></Value><Value>130.067230</Value></Line><Line><Value>Signal/Noise (X-Range 3):</Value><Value>40.000000</Value><Value></Value><Value>42.438881</Value></Line><Line><Value>Water vapour (X-Range 5):</Value><Value></Value><Value>0.000300</Value><Value>0.000038</Value></Line><Line><Value>Signal/Water (X-Range 2):</Value><Value>100.000000</Value><Value></Value><Value>195.364945</Value></Line><Line><Value>Signal/Water (X-Range 3):</Value><Value>20.000000</Value><Value></Value><Value>63.744494</Value></Line><Line><Value>Fringes (X-Range 6):</Value><Value></Value><Value>0.000100</Value><Value>0.000092</Value></Line></Matrix></MainReport></AB__Qtest><Data_Parameters_ScSm><parameter name="DPF">1</parameter><parameter name="NPT">1814</parameter><parameter name="FXV">3996.33169228125</parameter><parameter name="LXV">499.541461535156</parameter><parameter name="CSF">1</parameter><parameter name="MXY">0.277118861675262</parameter><parameter name="MNY">0.0315808951854706</parameter><parameter name="DAT">01/06/2022</parameter><parameter name="TIM">11:57:13.119 (GMT+2)</parameter><parameter name="DXU">WN</parameter></Data_Parameters_ScSm><Data_Parameters_ScRf><parameter name="DPF">1</parameter><parameter name="NPT">1820</parameter><parameter name="FXV">4004.04661832813</parameter><parameter name="LXV">495.683998511719</parameter><parameter name="CSF">1</parameter><parameter name="MXY">0.265161216259003</parameter><parameter name="MNY">0.0282638072967529</parameter><parameter name="DAT">01/06/2022</parameter><parameter name="TIM">11:56:46.033 (GMT+2)</parameter><parameter name="DXU">WN</parameter></Data_Parameters_ScRf><Optic_Parameters_Rf><parameter name="APR">0</parameter><parameter name="APT">Open</parameter><parameter name="BMS">KBr</parameter><parameter name="DTC">RT-DLaTGS_IR-Biotyper [Microplate reader]</parameter><parameter name="HPF">0</parameter><parameter name="LPF">10.0</parameter><parameter name="LPV">4000</parameter><parameter name="PGR">0</parameter><parameter name="RCH">Module port</parameter><parameter name="RDX">0</parameter><parameter name="SRC">MIR</parameter><parameter name="VEL">10.0</parameter><parameter name="SON">Off</parameter></Optic_Parameters_Rf><Acquisition_Parameters_Rf><parameter name="ADT">1</parameter><parameter name="AQM">DD</parameter><parameter name="CFE">0</parameter><parameter name="COR">0</parameter><parameter name="DEL">0</parameter><parameter name="DLY">0</parameter><parameter name="HFW">8000</parameter><parameter name="LFW">0</parameter><parameter name="NSR">32</parameter><parameter name="PLF">AB</parameter><parameter name="RES">6</parameter><parameter name="RGN">-1</parameter><parameter name="STR">0</parameter><parameter name="TCL">MakeCompatibleScalar (0, {WSV=1.000000, ARV=0});</parameter><parameter name="TDL">37</parameter><parameter name="RPO">0</parameter></Acquisition_Parameters_Rf><FT_-_Parameters_Rf><parameter name="APF">B3</parameter><parameter name="HFQ">500</parameter><parameter name="LFQ">4000</parameter><parameter name="NLI">0</parameter><parameter name="PHR">24</parameter><parameter name="PHZ">ML</parameter><parameter name="SPZ">NO</parameter><parameter name="ZFF">1</parameter></FT_-_Parameters_Rf><Optic_Parameters_><parameter name="APR">0</parameter><parameter name="APT">Open</parameter><parameter name="BMS">KBr</parameter><parameter name="CHN">Module port</parameter><parameter name="DTC">RT-DLaTGS_IR-Biotyper [Microplate reader]</parameter><parameter name="HPF">0</parameter><parameter name="LPF">10.0</parameter><parameter name="LPV">4000</parameter><parameter name="PGN">0</parameter><parameter name="RDX">0</parameter><parameter name="SRC">MIR</parameter><parameter name="VEL">10.0</parameter><parameter name="SON">Off</parameter></Optic_Parameters_><FT_-_Parameters_><parameter name="APF">B3</parameter><parameter name="HFQ">500</parameter><parameter name="LFQ">4000</parameter><parameter name="NLI">0</parameter><parameter name="PHR">24</parameter><parameter name="PHZ">ML</parameter><parameter name="SPZ">NO</parameter><parameter name="ZFF">1</parameter></FT_-_Parameters_><Acquisition_Parameters_><parameter name="ADT">1</parameter><parameter name="AQM">DD</parameter><parameter name="CFE">0</parameter><parameter name="COR">0</parameter><parameter name="DEL">0</parameter><parameter name="DLY">0</parameter><parameter name="HFW">8000</parameter><parameter name="LFW">0</parameter><parameter name="NSS">32</parameter><parameter name="PLF">AB</parameter><parameter name="RES">6</parameter><parameter name="SOT">0</parameter><parameter name="TCL">MakeCompatibleScalar (0, {WSV=1.000000, ARV=0});</parameter><parameter name="TDL">37</parameter><parameter name="SPO">0</parameter><parameter name="SGN">-1</parameter></Acquisition_Parameters_><Instrument_Parameters_Rf><parameter name="HFL">15800.168544</parameter><parameter name="LFL">0</parameter><parameter name="LWN">15800.168544</parameter><parameter name="ABP">32197</parameter><parameter name="SSP">1</parameter><parameter name="ARG">2</parameter><parameter name="ASG">2</parameter><parameter name="ASS">32</parameter><parameter name="GFW">16</parameter><parameter name="GBW">16</parameter><parameter name="BFW">0</parameter><parameter name="BBW">0</parameter><parameter name="PKA">7310</parameter><parameter name="PKL">4990</parameter><parameter name="PRA">7481</parameter><parameter name="PRL">5001</parameter><parameter name="P2A">1</parameter><parameter name="P2L">1</parameter><parameter name="P2R">1</parameter><parameter name="P2K">1</parameter><parameter name="DAQ">0</parameter><parameter name="AG2">1</parameter><parameter name="SSM">1</parameter><parameter name="RSN">25963</parameter><parameter name="CRR">0</parameter><parameter name="SRT">1654084606.034</parameter><parameter name="DUR">19.6399993896484</parameter><parameter name="TSC">29</parameter><parameter name="MVD">1.09587359428406</parameter><parameter name="AN1">0.225793548176456</parameter><parameter name="AN2">0</parameter><parameter name="VSN">2.485 Apr  4 2017</parameter><parameter name="SRN">0085</parameter><parameter name="CAM">0</parameter><parameter name="INS">IR-Biotyper</parameter><parameter name="FOC">69</parameter><parameter name="RDY">1</parameter><parameter name="ARS">32</parameter></Instrument_Parameters_Rf><Sample_Parameters_><parameter name="BLD"></parameter><parameter name="CNM">Admin</parameter><parameter name="CPY"></parameter><parameter name="DPM"></parameter><parameter name="EXP">IRBT_v3_32Scans.XPM</parameter><parameter name="LCT"></parameter><parameter name="SFM">Microplate, HTS-XT</parameter><parameter name="SNM">220601-1028(v.3)_JMJ44M (D_6)_H8_011e9abb-4f07-4259-a307-ac407350b595.0</parameter><parameter name="XPP">C:\Users\Public\Documents\Bruker\OPUS_8.2.28\XPM</parameter><parameter name="IST">OK</parameter><parameter name="CPG">1252</parameter><parameter name="UID">d7958b7e-4aa5-45d7-adf2-9f95cfc1319c</parameter></Sample_Parameters_><Instrument_Parameters_><parameter name="HFL">15800.168544</parameter><parameter name="LFL">0</parameter><parameter name="LWN">15800.168544</parameter><parameter name="ABP">32197</parameter><parameter name="SSP">1</parameter><parameter name="ASG">2</parameter><parameter name="ARG">2</parameter><parameter name="ASS">32</parameter><parameter name="GFW">16</parameter><parameter name="GBW">16</parameter><parameter name="BFW">0</parameter><parameter name="BBW">0</parameter><parameter name="PKA">7333</parameter><parameter name="PKL">4988</parameter><parameter name="PRA">7621</parameter><parameter name="PRL">4993</parameter><parameter name="P2A">1</parameter><parameter name="P2L">1</parameter><parameter name="P2R">1</parameter><parameter name="P2K">1</parameter><parameter name="DAQ">0</parameter><parameter name="AG2">1</parameter><parameter name="SSM">1</parameter><parameter name="RSN">13607</parameter><parameter name="CRR">0</parameter><parameter name="SRT">1654084633.12</parameter><parameter name="DUR">19.6389923095703</parameter><parameter name="TSC">29</parameter><parameter name="MVD">1.26105678081512</parameter><parameter name="AN1">0.22581761048953</parameter><parameter name="AN2">0</parameter><parameter name="VSN">2.485 Apr  4 2017</parameter><parameter name="SRN">0085</parameter><parameter name="CAM">0</parameter><parameter name="INS">IR-Biotyper</parameter><parameter name="FOC">69</parameter><parameter name="RDY">1</parameter></Instrument_Parameters_><History/></OPUSDataFile>
