<?xml version="1.0" encoding="UTF-8" ?>
<OPUSDataFile><AB><Ydata ylabel="Absorbance Units"><values byteorder="INTEL" format="FLOAT32" numvalues="3497"> -0.08653784 -0.08654417 -0.08654729 -0.08654744 -0.08654013 -0.08652513 -0.08650789 -0.08648944 -0.08648383 -0.08649196
 -0.08652823 -0.08658881 -0.0866707 -0.08676402 -0.08684367 -0.08690465 -0.08692317 -0.08691176 -0.08687229 -0.08682574
 -0.08679153 -0.08677404 -0.08678471 -0.08680717 -0.08683781 -0.08686458 -0.08688166 -0.08689573 -0.08690678 -0.08692341
 -0.08694723 -0.08697114 -0.0869948 -0.0870039 -0.08699866 -0.08697761 -0.08694307 -0.08690792 -0.08687372 -0.0868533
 -0.08684543 -0.08685383 -0.0868762 -0.08691096 -0.08695485 -0.08700469 -0.08705503 -0.08710127 -0.08713788 -0.08716015
 -0.08716733 -0.08715759 -0.08713378 -0.08709592 -0.08704785 -0.08698906 -0.08693059 -0.08687264 -0.08683533 -0.08681981
 -0.08683839 -0.08688973 -0.08695912 -0.08704281 -0.087109 -0.08715915 -0.0871798 -0.08717868 -0.08716849 -0.08715266
 -0.08714441 -0.08713883 -0.08713505 -0.08712929 -0.08711629 -0.0871006 -0.08708327 -0.08706833 -0.08705951 -0.08704979
 -0.08703849 -0.08701742 -0.08698344 -0.08694467 -0.08690048 -0.08687356 -0.08686516 -0.08689633 -0.08696701 -0.08708259
 -0.08723887 -0.08741603 -0.08760475 -0.08776004 -0.08787723 -0.08791706 -0.08789387 -0.08781049 -0.08769029 -0.08756233
 -0.08743934 -0.08734384 -0.08727064 -0.08722494 -0.08719169 -0.0871646 -0.08714093 -0.08711617 -0.08710593 -0.08711249
 -0.08714515 -0.08720662 -0.08728038 -0.0873657 -0.08743348 -0.0874832 -0.08750117 -0.08749016 -0.08745948 -0.08741358
 -0.08737329 -0.08734167 -0.08733862 -0.08735942 -0.08740881 -0.08747119 -0.08753017 -0.08757438 -0.08758584 -0.08757077
 -0.08752614 -0.08746528 -0.08739226 -0.08731741 -0.08724253 -0.08718183 -0.08713587 -0.08713021 -0.08716775 -0.08726656
 -0.08742842 -0.08759959 -0.08777376 -0.08783679 -0.08779778 -0.08765542 -0.08743183 -0.08721346 -0.0870042 -0.0868574
 -0.08676554 -0.08674154 -0.08677185 -0.08684833 -0.08695173 -0.0870658 -0.08717127 -0.0872521 -0.08730154 -0.08731018
 -0.08729152 -0.08724558 -0.08719323 -0.08713862 -0.08709038 -0.08705049 -0.08701422 -0.08698139 -0.08694721 -0.08691198
 -0.08688004 -0.08685184 -0.0868333 -0.08682267 -0.08681683 -0.08681318 -0.08680316 -0.08678667 -0.08676035 -0.08672283
 -0.08667141 -0.08660438 -0.08651641 -0.08641686 -0.08630527 -0.08620506 -0.08612385 -0.08608332 -0.08609349 -0.08615085
 -0.08626007 -0.08638739 -0.08653119 -0.08664866 -0.08673711 -0.08676418 -0.08672981 -0.08662885 -0.08646591 -0.08626749
 -0.08603977 -0.08582016 -0.08561191 -0.08544249 -0.08531077 -0.08522931 -0.0851897 -0.08519034 -0.08521304 -0.08524348
 -0.08526487 -0.08525984 -0.0852344 -0.08518342 -0.08513037 -0.08508214 -0.08504634 -0.08502741 -0.08501149 -0.08499697
 -0.0849804 -0.08496122 -0.08495553 -0.08496361 -0.08499355 -0.08504182 -0.08508834 -0.0851296 -0.0851381 -0.08511995
 -0.08507512 -0.08501461 -0.08495985 -0.08491231 -0.08488543 -0.08486807 -0.08485434 -0.0848383 -0.08480909 -0.08478577
 -0.08477118 -0.08479026 -0.08485531 -0.08495466 -0.08509316 -0.08522066 -0.08533172 -0.08539847 -0.08541863 -0.08538872
 -0.08530793 -0.08515801 -0.08494241 -0.08467043 -0.0843569 -0.08406521 -0.08380776 -0.08365388 -0.08359486 -0.08365973
 -0.08380069 -0.08397419 -0.08413145 -0.08420299 -0.08420581 -0.08412448 -0.08400439 -0.08386265 -0.08372082 -0.08359013
 -0.08346893 -0.08335936 -0.08325192 -0.08314574 -0.0830345 -0.0829176 -0.08279791 -0.08267625 -0.08256759 -0.08247377
 -0.08241738 -0.08239534 -0.08241338 -0.08245473 -0.08247865 -0.08247174 -0.08238175 -0.08222966 -0.08201766 -0.0817757
 -0.08153395 -0.08130018 -0.08108955 -0.0808943 -0.08071475 -0.0805432 -0.08037668 -0.08021493 -0.08005718 -0.07990641
 -0.07976323 -0.07962621 -0.07949555 -0.07935888 -0.0792154 -0.07904904 -0.07886151 -0.07865711 -0.07843961 -0.0782285
 -0.07802202 -0.07782524 -0.07763516 -0.07744721 -0.0772631 -0.07708311 -0.07690937 -0.07674628 -0.076587 -0.07643154
 -0.07626379 -0.07607857 -0.07585891 -0.07559957 -0.07528784 -0.07491965 -0.07449464 -0.07401103 -0.07348478 -0.07291665
 -0.0723257 -0.07171319 -0.07110088 -0.07049155 -0.06991733 -0.06937844 -0.06889729 -0.06846324 -0.06806044 -0.0676763
 -0.06727562 -0.06686434 -0.0664337 -0.06599811 -0.06557339 -0.06514996 -0.06473175 -0.06428996 -0.06380905 -0.06328899
 -0.06272343 -0.06213408 -0.06152478 -0.06090547 -0.06027791 -0.05964494 -0.05900669 -0.05837107 -0.05773881 -0.05712535
 -0.05653075 -0.05596609 -0.05542462 -0.05488819 -0.05434111 -0.05372652 -0.0530459 -0.05226302 -0.05141897 -0.05055395
 -0.04969553 -0.04889004 -0.04812503 -0.04740751 -0.0467168 -0.04604595 -0.04537982 -0.04471323 -0.04403524 -0.04334261
 -0.04263214 -0.04190278 -0.04115722 -0.04039568 -0.0396165 -0.03881956 -0.03800182 -0.03716429 -0.03631292 -0.0354497
 -0.03458557 -0.03372325 -0.03287442 -0.03204393 -0.03124804 -0.03048488 -0.02976434 -0.02906622 -0.02837682 -0.02767722
 -0.02694615 -0.02619403 -0.02541935 -0.02463724 -0.02385689 -0.0230613 -0.02224969 -0.02139957 -0.02050454 -0.01959013
 -0.01865685 -0.01775507 -0.01688609 -0.01606652 -0.01529279 -0.01454555 -0.01381935 -0.01308004 -0.01232596 -0.01153064
 -0.01070559 -0.009857067 -0.009004411 -0.008179397 -0.007383944 -0.006639715 -0.005914789 -0.005199616 -0.004453682 -0.003650208
 -0.002794445 -0.001875169 -0.000941379 -6.662642E-07 0.0009106187 0.001784939 0.002624387 0.00342782 0.004224 0.005014235
 0.005822983 0.006648682 0.0074898 0.008343345 0.009194409 0.01004366 0.01088542 0.01172144 0.01255379 0.01338024
 0.01419873 0.01500705 0.01580085 0.0165841 0.01735659 0.01812696 0.01889913 0.01967801 0.02046786 0.02126062
 0.02205666 0.02284025 0.02360851 0.02436072 0.02509598 0.02583447 0.02657696 0.02733727 0.02811347 0.02889507
 0.02968004 0.03045277 0.03121521 0.0319653 0.03270465 0.03343559 0.0341586 0.03487429 0.03558567 0.03629556
 0.03700672 0.03772247 0.03844152 0.03916416 0.03988878 0.04061534 0.04134098 0.04206586 0.0427829 0.04349079
 0.04418884 0.04487647 0.0455662 0.04625846 0.04696027 0.04767003 0.04837667 0.04907904 0.04976523 0.05043743
 0.05109585 0.05174305 0.05238405 0.05302083 0.05365775 0.05429695 0.05494289 0.05559354 0.0562499 0.05690631
 0.05755994 0.05820936 0.05885402 0.05949166 0.06012326 0.0607366 0.06132991 0.06189685 0.06243596 0.06296562
 0.06348694 0.06402614 0.06458209 0.06515747 0.06574728 0.06632952 0.06690134 0.06744043 0.06795272 0.06843632
 0.06890587 0.06938165 0.0698717 0.07039673 0.07094093 0.07150314 0.07205817 0.07259056 0.07309993 0.07357963
 0.07405056 0.07451717 0.07498663 0.07546185 0.07593083 0.07639273 0.0768417 0.07727785 0.0777107 0.07814157
 0.07858592 0.0790449 0.07953299 0.08004837 0.08059634 0.08116737 0.08174644 0.08232182 0.0828689 0.08338631
 0.08386127 0.08430417 0.08471772 0.08511212 0.08549383 0.08586419 0.08622567 0.08657372 0.08690724 0.0872259
 0.0875283 0.08782645 0.08812077 0.08842945 0.08875328 0.08910359 0.08948017 0.08988632 0.09032065 0.09078045
 0.09126006 0.09174322 0.09222028 0.09266161 0.09306714 0.09341789 0.09373574 0.09403136 0.09433519 0.09467523
 0.09505514 0.0954929 0.09594695 0.09641219 0.09683485 0.09719826 0.09749688 0.09772252 0.09793059 0.09812478
 0.09835055 0.09860852 0.09886608 0.09911752 0.09929133 0.09939341 0.09940864 0.09936018 0.09931039 0.09927753
 0.09933551 0.09947433 0.09971835 0.1000314 0.1003878 0.1007549 0.1010954 0.101416 0.1017013 0.1020009
 0.1023274 0.1027176 0.1031908 0.1037091 0.1042767 0.1047949 0.1052561 0.105588 0.1057886 0.1058777
 0.1058628 0.1058269 0.1057726 0.1057581 0.1057736 0.1058152 0.1058813 0.1059597 0.106071 0.1062428
 0.1064837 0.1068266 0.1072279 0.1076749 0.1081059 0.1084797 0.1087928 0.1090242 0.1092371 0.1094403
 0.10969 0.1100002 0.11036 0.1107723 0.1111701 0.1115498 0.111841 0.1120453 0.1121442 0.1121513
 0.1121195 0.1120678 0.1120846 0.1121757 0.1124029 0.112745 0.113206 0.1137407 0.1143091 0.1148646
 0.1153586 0.1157792 0.1160992 0.1163574 0.1165555 0.1167512 0.1169575 0.1172117 0.1175206 0.1179033
 0.1183615 0.1189161 0.1195679 0.1203229 0.1211752 0.1220728 0.1229988 0.1238406 0.1245846 0.1251197
 0.1254638 0.1255859 0.1255477 0.1254184 0.1252709 0.1252137 0.125265 0.125491 0.1258195 0.1262476
 0.1266538 0.1269985 0.1271966 0.1272132 0.12706 0.1267253 0.1263046 0.1258032 0.1253237 0.1248705
 0.1244842 0.1241618 0.1238876 0.1236594 0.1234572 0.1232832 0.1231361 0.1230135 0.1229153 0.1228243
 0.1227223 0.1225753 0.1223451 0.121996 0.121485 0.1208126 0.119954 0.1189733 0.1178764 0.1167608
 0.1156481 0.1146083 0.1136569 0.1128098 0.1120716 0.1114157 0.1108403 0.1102885 0.1097571 0.1091889
 0.1085895 0.1079553 0.107302 0.1066834 0.1060995 0.1055872 0.1051132 0.1046454 0.1041497 0.1035671
 0.1029143 0.1021706 0.1014058 0.1006443 0.09995598 0.09937568 0.09891568 0.09859541 0.09835044 0.09818072
 0.0979776 0.09773157 0.09736563 0.09687626 0.09627777 0.09557728 0.09485885 0.0941281 0.09346151 0.09285286
 0.09232392 0.09186166 0.09144861 0.09107347 0.09071195 0.09035625 0.08998889 0.0896071 0.08920231 0.08877887
 0.08833548 0.08788156 0.08741928 0.08695859 0.08650178 0.08605734 0.08562742 0.08521267 0.08481415 0.08441775
 0.08402269 0.08360853 0.08317544 0.0827175 0.08223853 0.08175596 0.08127381 0.08081663 0.08038147 0.0799766
 0.07959056 0.07921053 0.07882392 0.07841115 0.0779686 0.07748476 0.07696923 0.0764213 0.07585965 0.07528941
 0.07472879 0.07418337 0.07366157 0.07316655 0.0726927 0.07224036 0.07179506 0.07135604 0.07091089 0.07045955
 0.06999797 0.06952663 0.0690463 0.06855707 0.06805892 0.06755304 0.06704061 0.06652652 0.06601801 0.06552137
 0.06504688 0.06459614 0.06417324 0.06377913 0.06341229 0.063085 0.06280068 0.06257127 0.0624066 0.06227675
 0.06218535 0.06205096 0.06186699 0.0615643 0.06113921 0.06060539 0.05996993 0.05932245 0.05867118 0.05811165
 0.05763961 0.05729774 0.0570623 0.05690717 0.05679451 0.05665212 0.05645785 0.05614764 0.05575254 0.0552634
 0.05475283 0.05425849 0.05382115 0.05347442 0.05318565 0.05295572 0.05273746 0.05251801 0.05231341 0.05212112
 0.05200397 0.0519652 0.05202579 0.05217972 0.0523586 0.05255013 0.05264453 0.05264292 0.05248265 0.05219077
 0.05179355 0.05132813 0.05086999 0.05042983 0.05005667 0.0497235 0.0494248 0.04913744 0.0488383 0.04855054
 0.04827374 0.04804617 0.04788404 0.04777189 0.047715 0.04765137 0.04757404 0.04746102 0.04731077 0.0471752
 0.04705714 0.04701106 0.04703009 0.04710275 0.04721693 0.04732105 0.04741459 0.04746796 0.04749276 0.04749546
 0.04748436 0.04747594 0.04746035 0.04744215 0.04738853 0.04728643 0.0471003 0.04680699 0.04641857 0.04592133
 0.04540119 0.04486521 0.04441481 0.04406408 0.0438294 0.04371256 0.04362059 0.04354704 0.0433787 0.04312079
 0.04274155 0.04226278 0.0417444 0.04120579 0.04072669 0.04030488 0.03997691 0.0397208 0.03952815 0.03937181
 0.03922873 0.03907802 0.03890066 0.03869271 0.03844381 0.03817665 0.0378922 0.03762472 0.0373828 0.03716675
 0.03698064 0.03677417 0.03654468 0.03624817 0.03588714 0.03548668 0.03505507 0.03466038 0.03429836 0.03399507
 0.03372965 0.033462 0.03318328 0.03285172 0.03249192 0.03211248 0.03174682 0.03143026 0.03116385 0.03096395
 0.03080074 0.03066589 0.03054024 0.0304135 0.03029813 0.03019377 0.03012014 0.03008078 0.03006754 0.03008037
 0.03007769 0.03005699 0.0299719 0.02982496 0.02960485 0.02932353 0.02901677 0.02869906 0.02842453 0.02819812
 0.02805432 0.02798652 0.02800128 0.02808808 0.02824124 0.02845074 0.02871101 0.02901065 0.02934537 0.0297031
 0.03008038 0.03046792 0.03086311 0.0312644 0.03166997 0.03209747 0.03254757 0.0330617 0.03364187 0.03432775
 0.03511526 0.03600188 0.03697497 0.03798626 0.03902597 0.0400431 0.04104146 0.04200264 0.04293896 0.04385816
 0.04476928 0.04568226 0.04660206 0.04753264 0.04848165 0.04945266 0.05045139 0.05148284 0.05253446 0.05360869
 0.05466703 0.0557076 0.05667946 0.05757953 0.0583667 0.05903989 0.05957773 0.05998078 0.06024048 0.06035983
 0.06033963 0.06019503 0.0599543 0.05965379 0.05936245 0.05912236 0.05901527 0.0590509 0.05927415 0.05964804
 0.06016752 0.06078701 0.06148353 0.06224693 0.06306646 0.06396247 0.06493679 0.06600651 0.06717454 0.06843993
 0.06980299 0.07124685 0.07276974 0.07434148 0.07596064 0.07760018 0.07926513 0.08095836 0.08268983 0.0844915
 0.08635657 0.08830737 0.09028033 0.0922443 0.09403622 0.0955529 0.09653962 0.09683646 0.09623528 0.09458032
 0.09192994 0.08820915 0.08382662 0.07880434 0.07371639 0.06862237 0.06395743 0.0597544 0.05614264 0.05311565
 0.05056342 0.04846848 0.04666229 0.04513859 0.04378695 0.04260474 0.04153524 0.04056529 0.03964808 0.03876992
 0.03789046 0.03701954 0.03614529 0.03530199 0.03450533 0.03378333 0.03315446 0.03261741 0.03217782 0.03181648
 0.0315305 0.03130815 0.03114686 0.03105201 0.03102372 0.03107298 0.03119904 0.03139227 0.03164537 0.03190605
 0.03216221 0.03233559 0.03242461 0.03237768 0.03221858 0.03195798 0.03163929 0.03131654 0.03103137 0.03083722
 0.03075716 0.03082112 0.03102999 0.03139068 0.03189884 0.03254887 0.03336689 0.03435155 0.03556398 0.03701632
 0.03869738 0.04061237 0.04250119 0.04433567 0.04559239 0.0462443 0.04581411 0.04436574 0.04185538 0.03845823
 0.03459053 0.03042731 0.02648881 0.02282208 0.01971977 0.01708787 0.01495674 0.01318667 0.0117016 0.01041125
 0.009257508 0.008212795 0.007258112 0.006390251 0.005606596 0.004903851 0.004282019 0.003732291 0.003254362 0.00283017
 0.002458414 0.002115091 0.001799207 0.001491795 0.001193615 0.000896878 0.0006043905 0.0003186554 4.422378E-05 -0.0002089307
 -0.0004393935 -0.0006380434 -0.0008151194 -0.0009727738 -0.001131579 -0.001304888 -0.001504662 -0.001743799 -0.002006568 -0.002295714
 -0.002572817 -0.002831604 -0.003042531 -0.003199119 -0.003311026 -0.00337775 -0.003440297 -0.003500178 -0.003585619 -0.003693375
 -0.003812088 -0.003938414 -0.004048714 -0.004150443 -0.004249339 -0.004358917 -0.004510014 -0.004702372 -0.004954429 -0.005243356
 -0.005559241 -0.005870931 -0.006156771 -0.00639733 -0.006576619 -0.006697961 -0.006754826 -0.006775841 -0.00676206 -0.00675741
 -0.006766955 -0.006822403 -0.006926847 -0.007077322 -0.007272506 -0.007482578 -0.007705698 -0.007913864 -0.008108104 -0.008277469
 -0.008424737 -0.008551219 -0.008660451 -0.008758616 -0.008850607 -0.008945874 -0.009045508 -0.009156947 -0.009269134 -0.009379845
 -0.009471335 -0.00953324 -0.009564208 -0.009556684 -0.009539289 -0.00951395 -0.00951845 -0.009558832 -0.009645335 -0.009779958
 -0.009935688 -0.01011077 -0.01026901 -0.01041101 -0.01052334 -0.01061095 -0.0106875 -0.0107575 -0.0108419 -0.01093865
 -0.01105637 -0.0111842 -0.01131315 -0.01142956 -0.01151579 -0.01157073 -0.01158311 -0.01157529 -0.01155008 -0.01154197
 -0.01156249 -0.01162884 -0.01174958 -0.01190922 -0.01210881 -0.01231411 -0.01252281 -0.01270906 -0.01287233 -0.01300921
 -0.01312163 -0.01322296 -0.01331502 -0.0134131 -0.01351667 -0.01363272 -0.01375848 -0.01389246 -0.01403099 -0.01416925
 -0.01430296 -0.01442673 -0.01453743 -0.0146304 -0.01470848 -0.01476988 -0.01482542 -0.01487757 -0.01493592 -0.01500371
 -0.01507966 -0.01516453 -0.01525022 -0.01533609 -0.01542033 -0.01550302 -0.01558782 -0.01567405 -0.01575833 -0.01583848
 -0.01590183 -0.01594945 -0.01597561 -0.01598781 -0.01599725 -0.01601137 -0.0160465 -0.01610137 -0.01618191 -0.01628067
 -0.01639425 -0.01651827 -0.01664995 -0.0167875 -0.01693116 -0.01707343 -0.01721358 -0.01734136 -0.01745481 -0.01755354
 -0.01763704 -0.01771624 -0.01779165 -0.01787263 -0.01795867 -0.01804958 -0.01814453 -0.01823939 -0.0183345 -0.01842889
 -0.01852283 -0.01861704 -0.01870987 -0.01879981 -0.01888407 -0.01895919 -0.01902439 -0.01907719 -0.0191211 -0.01915636
 -0.01918877 -0.01922019 -0.01925409 -0.01929167 -0.01933321 -0.01937886 -0.01942874 -0.0194828 -0.01954327 -0.0196102
 -0.01968429 -0.01976494 -0.01984726 -0.01993041 -0.02000715 -0.02007867 -0.02014398 -0.0202063 -0.02027199 -0.02034218
 -0.02042253 -0.02050877 -0.02059952 -0.02068893 -0.02077158 -0.0208481 -0.02091593 -0.02098297 -0.0210512 -0.02112612
 -0.0212104 -0.02129886 -0.02139184 -0.02147774 -0.02155557 -0.02162061 -0.021673 -0.02172097 -0.02176544 -0.02181869
 -0.02187959 -0.02195014 -0.02202689 -0.02210029 -0.0221689 -0.0222238 -0.02226907 -0.02230598 -0.02234044 -0.02237942
 -0.02242419 -0.02247856 -0.02253903 -0.02260474 -0.02267367 -0.02274446 -0.02281892 -0.0228974 -0.02298018 -0.02306783
 -0.02315561 -0.02324334 -0.02332426 -0.02339811 -0.02346178 -0.02351572 -0.0235622 -0.02360245 -0.02364351 -0.02368601
 -0.02373634 -0.02379234 -0.02385353 -0.02391548 -0.02397118 -0.02401942 -0.02405488 -0.0240829 -0.02410495 -0.02412732
 -0.02415402 -0.02418565 -0.02422358 -0.02426532 -0.02431012 -0.02435888 -0.02441142 -0.02447077 -0.02453727 -0.02460981
 -0.02468821 -0.02476706 -0.02484605 -0.02492027 -0.02498983 -0.02505262 -0.02510908 -0.02515935 -0.02520395 -0.02524381
 -0.02527986 -0.02531368 -0.02534632 -0.02537929 -0.02541362 -0.02545049 -0.02549036 -0.025534 -0.02558042 -0.02562965
 -0.02567987 -0.02573065 -0.02578102 -0.02583071 -0.02587984 -0.0259284 -0.02597663 -0.02602449 -0.02607043 -0.02611425
 -0.02615341 -0.02618806 -0.02621694 -0.02624144 -0.02626453 -0.02628866 -0.02632037 -0.02636101 -0.02641625 -0.02648357
 -0.0265635 -0.0266504 -0.02674075 -0.02683008 -0.02691482 -0.02699521 -0.0270705 -0.02714212 -0.02721073 -0.0272745
 -0.02733342 -0.02738443 -0.02742705 -0.02746395 -0.02749535 -0.02752885 -0.0275646 -0.02760728 -0.02765607 -0.02770944
 -0.02776667 -0.02782467 -0.02788334 -0.02794128 -0.027998 -0.0280523 -0.0281035 -0.02815014 -0.02819296 -0.02823162
 -0.02826829 -0.0283036 -0.02834032 -0.02837924 -0.02842312 -0.02847283 -0.02852906 -0.02859251 -0.02865868 -0.02872742
 -0.02879186 -0.02885173 -0.02890515 -0.0289526 -0.02899865 -0.02904347 -0.02909056 -0.0291391 -0.02918791 -0.02923714
 -0.02928592 -0.0293363 -0.02939134 -0.02945134 -0.02951901 -0.02958999 -0.02966248 -0.02973159 -0.02979336 -0.02984952
 -0.02989906 -0.02994776 -0.02999724 -0.03004836 -0.0301022 -0.03015191 -0.03019708 -0.03023129 -0.03025436 -0.03026848
 -0.03027448 -0.03028147 -0.03029018 -0.03030937 -0.0303383 -0.03037985 -0.03043145 -0.03048936 -0.03055074 -0.03060944
 -0.03066493 -0.03071383 -0.0307582 -0.03079833 -0.03083654 -0.03087426 -0.03091211 -0.03095067 -0.03098965 -0.03102901
 -0.03106888 -0.03110929 -0.03115025 -0.03119186 -0.03123242 -0.03127181 -0.03130649 -0.03133635 -0.03135875 -0.03137431
 -0.0313845 -0.03139076 -0.0313984 -0.03140859 -0.03142674 -0.0314525 -0.03148823 -0.03153163 -0.0315817 -0.0316348
 -0.03168798 -0.03173906 -0.03178544 -0.03182939 -0.03187077 -0.03191327 -0.03195825 -0.03200454 -0.0320526 -0.03209674
 -0.0321364 -0.03216949 -0.03219599 -0.03222081 -0.0322445 -0.03227445 -0.03231111 -0.03236028 -0.03242267 -0.03250331
 -0.03260357 -0.03272859 -0.03287991 -0.03306174 -0.03327579 -0.03352498 -0.03381153 -0.03413765 -0.03450547 -0.0349167
 -0.03537208 -0.03587275 -0.0364163 -0.03700301 -0.03762749 -0.03828987 -0.03897965 -0.03969689 -0.040419 -0.04114448
 -0.0418272 -0.04246292 -0.04298978 -0.04340437 -0.04365726 -0.04374601 -0.04363696 -0.04332845 -0.04278369 -0.04204592
 -0.04114321 -0.04017602 -0.03926441 -0.03846911 -0.03788278 -0.03749298 -0.03732118 -0.03732841 -0.03751141 -0.03781549
 -0.03823826 -0.03868011 -0.0391316 -0.03947396 -0.039692 -0.03977041 -0.03970858 -0.03959457 -0.03943159 -0.03928458
 -0.03914881 -0.03903055 -0.03892577 -0.03882268 -0.03872437 -0.03863266 -0.03854979 -0.03848403 -0.03842476 -0.03836585
 -0.03829164 -0.03818491 -0.03804882 -0.03787508 -0.03769063 -0.0375025 -0.03733302 -0.03719116 -0.03707465 -0.03698547
 -0.03691002 -0.0368471 -0.03678935 -0.03673636 -0.03668842 -0.03664567 -0.03660974 -0.03658074 -0.03655966 -0.0365472
 -0.03654603 -0.03655719 -0.03658494 -0.03662837 -0.0366895 -0.03676281 -0.03684415 -0.03692577 -0.03699977 -0.03706413
 -0.03711385 -0.0371566 -0.03719355 -0.03723287 -0.03727771 -0.03732717 -0.03738207 -0.03743643 -0.0374895 -0.03754135
 -0.03759197 -0.03764748 -0.03770801 -0.037777 -0.03785359 -0.03793452 -0.0380188 -0.03810095 -0.03818139 -0.03825805
 -0.0383325 -0.03840652 -0.03848086 -0.03855741 -0.03863522 -0.03871441 -0.03879338 -0.03887139 -0.0389471 -0.03901981
 -0.03908897 -0.03915396 -0.03921658 -0.03927654 -0.03933953 -0.039406 -0.03948115 -0.03956529 -0.03965567 -0.03975161
 -0.03984336 -0.03993067 -0.04000643 -0.04007217 -0.0401293 -0.04017983 -0.04022957 -0.04027868 -0.04033045 -0.04038302
 -0.04043556 -0.04048655 -0.04053397 -0.04057898 -0.04062102 -0.04066379 -0.04070826 -0.04075811 -0.04081449 -0.04087901
 -0.04095238 -0.04103317 -0.04112158 -0.04121239 -0.04130531 -0.04139353 -0.04147696 -0.04155278 -0.04162185 -0.04168785
 -0.04175162 -0.04181855 -0.04188758 -0.04195934 -0.04203136 -0.04209962 -0.04216327 -0.04221886 -0.04226935 -0.04231488
 -0.0423617 -0.04241308 -0.04247368 -0.04254708 -0.04263042 -0.04272491 -0.04282029 -0.04291516 -0.0430017 -0.04307851
 -0.04314848 -0.04321171 -0.0432775 -0.04334591 -0.04342022 -0.0434991 -0.04357592 -0.04365002 -0.0437143 -0.0437716
 -0.04382458 -0.04387747 -0.04393959 -0.04401016 -0.04409387 -0.04418271 -0.04427224 -0.0443552 -0.04442461 -0.04448375
 -0.04453052 -0.04457668 -0.04462496 -0.04468276 -0.04475265 -0.04483077 -0.04491728 -0.04500457 -0.04509222 -0.04517852
 -0.04526367 -0.04535077 -0.04543956 -0.04553015 -0.04562157 -0.0457099 -0.04579537 -0.04587604 -0.04595383 -0.0460312
 -0.04610949 -0.04619179 -0.04627708 -0.04636599 -0.04645605 -0.04654627 -0.04663413 -0.04671859 -0.04679757 -0.04687007
 -0.04693632 -0.04699559 -0.04705319 -0.04710928 -0.04717221 -0.0472425 -0.04732444 -0.04741767 -0.0475177 -0.04762344
 -0.04772566 -0.04782439 -0.04791453 -0.04799778 -0.04807567 -0.0481498 -0.04822372 -0.04829774 -0.04837358 -0.0484512
 -0.04853109 -0.04861318 -0.04869804 -0.0487838 -0.04887028 -0.04895418 -0.04903443 -0.04910988 -0.04917971 -0.04924711
 -0.04931204 -0.04938058 -0.04945306 -0.04953448 -0.04962468 -0.04972267 -0.04982732 -0.04993097 -0.05003282 -0.05012514
 -0.05020954 -0.05028548 -0.05035624 -0.05042738 -0.05050048 -0.05058032 -0.05066508 -0.05075534 -0.05084752 -0.05093973
 -0.0510296 -0.05111536 -0.05119774 -0.05127609 -0.05135413 -0.05143243 -0.05151337 -0.05159744 -0.05168337 -0.05177112
 -0.0518582 -0.05194466 -0.05203097 -0.05211753 -0.05220723 -0.0523 -0.05239734 -0.05249833 -0.0526017 -0.05270618
 -0.05280883 -0.05290928 -0.05300555 -0.0530989 -0.05318955 -0.05327917 -0.05336908 -0.05345917 -0.05354993 -0.05364008
 -0.05372914 -0.05381748 -0.05390489 -0.05399334 -0.05408311 -0.05417439 -0.05426724 -0.05435906 -0.05444976 -0.05453754
 -0.05462291 -0.05470824 -0.05479423 -0.05488539 -0.054981 -0.05508215 -0.05518622 -0.05528897 -0.05538886 -0.05548137
 -0.05556896 -0.05565155 -0.05573346 -0.05581737 -0.05590535 -0.05599907 -0.05609832 -0.05620341 -0.05631343 -0.05642864
 -0.05654563 -0.05666426 -0.05677947 -0.05689089 -0.05699729 -0.05709888 -0.05719973 -0.05729973 -0.05740054 -0.05750095
 -0.05759656 -0.05768741 -0.0577701 -0.05784806 -0.05792537 -0.05800591 -0.05809703 -0.05819824 -0.0583129 -0.05843537
 -0.05856372 -0.05869215 -0.05881746 -0.05893819 -0.05905293 -0.05916369 -0.05927074 -0.05937496 -0.05947664 -0.05957386
 -0.0596665 -0.05975343 -0.05983488 -0.05991463 -0.05999342 -0.06007829 -0.06016904 -0.06026942 -0.06037692 -0.06048733
 -0.06059756 -0.06069928 -0.06079325 -0.06087553 -0.06095226 -0.06102708 -0.06110573 -0.06119398 -0.06128996 -0.06139566
 -0.06150239 -0.06160819 -0.0617066 -0.06179539 -0.06187668 -0.06195007 -0.06202241 -0.06209415 -0.06216889 -0.06224665
 -0.06232735 -0.06241107 -0.06249832 -0.0625895 -0.062687 -0.06279028 -0.06289971 -0.06301308 -0.06312686 -0.06323871
 -0.06334374 -0.06344236 -0.0635326 -0.06361746 -0.06369815 -0.0637771 -0.06385595 -0.06393451 -0.06401312 -0.0640909
 -0.06416754 -0.06424394 -0.06432018 -0.06439713 -0.06447494 -0.0645513 -0.06462615 -0.06469765 -0.06476634 -0.06483512
 -0.06490453 -0.06497875 -0.06505695 -0.065139 -0.06522413 -0.06531041 -0.06539892 -0.06549071 -0.06558535 -0.06568443
 -0.06578213 -0.06587597 -0.06595959 -0.06602824 -0.06608486 -0.06612789 -0.06616839 -0.06620806 -0.06625538 -0.06631188
 -0.06637829 -0.06645484 -0.06653778 -0.06662692 -0.06671876 -0.0668133 -0.06690878 -0.06700533 -0.06710244 -0.0672002
 -0.06729881 -0.0673978 -0.06749696 -0.06759426 -0.06768741 -0.06777374 -0.0678492 -0.06791533 -0.06797037 -0.06802164
 -0.06807166 -0.06812601 -0.06818791 -0.06825424 -0.06832556 -0.06839441 -0.06845985 -0.06851827 -0.06856924 -0.06861582
 -0.06865829 -0.06870223 -0.06874786 -0.0687995 -0.06885684 -0.06892093 -0.06899098 -0.06906532 -0.06914359 -0.06922447
 -0.06930755 -0.06939256 -0.06947701 -0.06955934 -0.06963534 -0.06970169 -0.06975694 -0.06979852 -0.0698312 -0.06985494
 -0.06987816 -0.06990214 -0.06993457 -0.06997665 -0.07003159 -0.07009979 -0.07017948 -0.0702705 -0.07037012 -0.07047827
 -0.07059392 -0.0707162 -0.07084192 -0.07096805 -0.07108523 -0.0711897 -0.07126891 -0.07132398 -0.07134893 -0.07135293
 -0.07134099 -0.07132435 -0.07131159 -0.07130883 -0.07132162 -0.07134849 -0.07139073 -0.0714427 -0.07150356 -0.07156916
 -0.07163882 -0.07171118 -0.07178606 -0.07186347 -0.07194346 -0.07202742 -0.07211493 -0.07220431 -0.07229321 -0.07237021
 -0.07243377 -0.0724711 -0.07248826 -0.07248978 -0.07248414 -0.072486 -0.07249597 -0.07252044 -0.07255562 -0.07260078
 -0.07265312 -0.07271221 -0.07277239 -0.07283308 -0.07288458 -0.07292444 -0.07294933 -0.07295776 -0.07295735 -0.07294852
 -0.07293826 -0.07292675 -0.07291494 -0.07290291 -0.0728918 -0.07288226 -0.07287769 -0.07287888 -0.0728901 -0.07291115
 -0.07294521 -0.07298774 -0.07303564 -0.07308013 -0.07311086 -0.07312585 -0.07311776 -0.07309818 -0.07306955 -0.07304449
 -0.07302858 -0.0730226 -0.07302836 -0.07303983 -0.07305653 -0.07307341 -0.07309002 -0.07310437 -0.07311631 -0.07312343
 -0.07312486 -0.07311203 -0.07308395 -0.07302916 -0.07295207 -0.07285792 -0.07275469 -0.0726631 -0.07258123 -0.07251827
 -0.07246106 -0.07239978 -0.0723265 -0.07222912 -0.07211879 -0.07199533 -0.07187776 -0.07177292 -0.07168776 -0.07162724
 -0.07157828 -0.07154214 -0.07148416 -0.07140196 -0.07126593 -0.07107597 -0.07085004 -0.07059149 -0.07033896 -0.07008983
 -0.06985305 -0.06962256 -0.0693844 -0.06913683 -0.0688692 -0.06858352 -0.06827778 -0.06795518 -0.06761683 -0.06726918
 -0.06691825 -0.06656303 -0.06620964 -0.06583464 -0.06543348 -0.06498174 -0.06446932 -0.06391128 -0.06330694 -0.06268452
 -0.06204686 -0.06139227 -0.06072075 -0.06002979 -0.05932188 -0.05862039 -0.05792473 -0.05724856 -0.05658084 -0.05589458
 -0.05518395 -0.05441633 -0.05361244 -0.05278552 -0.05195952 -0.05116903 -0.05040652 -0.04967975 -0.04896947 -0.04826681
 -0.04756642 -0.04686468 -0.04616222 -0.04546492 -0.04473475 -0.04397541 -0.04307709 -0.04203093 -0.04076529 -0.03928211
 -0.03772563 -0.03610698 -0.0345988 -0.03317853 -0.03182882 -0.03052258 -0.02916631 -0.02775655 -0.02624381 -0.02462928
 -0.02290843 -0.02104182 -0.01901183 -0.01671699 -0.01408631 -0.01104474 -0.007495378 -0.003587621 0.000692649 0.005016859
 0.009313599 0.01339838 0.01722648 0.02080955 0.02414134 0.02732114 0.03035686 0.0334425 0.03659852 0.04011925
 0.04397634 0.04823967 0.05276422 0.05710981 0.06125101 0.06487139 0.06814425 0.0711901 0.07413863 0.07718103
 0.08032592 0.08364081 0.08708851 0.09066595 0.09434927 0.09814708 0.1019608 0.1057797 0.1094758 0.1130199
 0.1164403 0.1197355 0.1229762 0.1261615 0.1291622 0.1319637 0.1343627 0.136376 0.1379772 0.1391983
 0.1401319 0.1407773 0.1411755 0.1413204 0.1412026 0.1408686 0.1403551 0.1397179 0.1390043 0.1382534
 0.1374982 0.1367445 0.1360137 0.1352419 0.1344312 0.1334576 0.1323092 0.1308521 0.1290697 0.1269676
 0.1245499 0.1220341 0.1194244 0.1168522 0.11429 0.1116637 0.1089585 0.1060782 0.1030546 0.09989145
 0.09666549 0.09348992 0.09041874 0.08756381 0.08489763 0.08243892 0.0801397 0.0779679 0.07594605 0.07406584
 0.07239488 0.07095426 0.06974093 0.06876351 0.06795217 0.06730156 0.06676733 0.06634789 0.06605104 0.06587802
 0.06584605 0.06595127 0.06618366 0.06653689 0.06698517 0.06752647 0.06814348 0.06883863 0.06960683 0.07045507
 0.07138623 0.07241359 0.07354593 0.07479683 0.07617478 0.07768798 0.07933927 0.08114044 0.08309528 0.08520821
 0.08748578 0.0898812 0.09239376 0.0949351 0.09750096 0.1000367 0.1025403 0.1049851 0.1073502 0.1095175
 0.1114598 0.1130055 0.1141955 0.1150177 0.115561 0.115958 0.1162551 0.1165617 0.1168538 0.1171503
 0.1174123 0.1176189 0.1177677 0.1178476 0.1178903 0.1178989 0.1179101 0.1179363 0.11794 0.1179221
 0.117793 0.1175486 0.1171571 0.1166204 0.1159489 0.1151458 0.1142322 0.1132099 0.1121047 0.1108951
 0.1095756 0.1080532 0.1061956 0.1039051 0.1009539 0.09753439 0.09368044 0.08967552 0.08572326 0.08177664
 0.07786267 0.07390524 0.06986281 0.0658614 0.06190767 0.05815753 0.05463159 0.05131255 0.04819912 0.04517635
 0.04224376 0.03935559 0.03652378 0.03379289 0.03116411 0.02867188 0.02629386 0.02399875 0.02176448 0.01954129
 0.01732473 0.01509629 0.01284295 0.01056769 0.008199653 0.005709735 0.003024475 5.894131E-05 -0.002972822 -0.006074137
 -0.008838655 -0.01117186 -0.01311859 -0.01466093 -0.01610849 -0.01747588 -0.01893296 -0.02047091 -0.02204513 -0.02363724
 -0.02511582 -0.02649315 -0.02774121 -0.02888121 -0.02996012 -0.03095708 -0.03186891 -0.03264933 -0.03323803 -0.03363376
 -0.03380635 -0.03379978 -0.03362871 -0.03332617 -0.03291051 -0.03238273 -0.03175325 -0.03097784 -0.03005884 -0.02889512
 -0.02747552 -0.02575447 -0.0237312 -0.02162893 -0.01946921 -0.01758596 -0.01596735 -0.01472162 -0.01381512 -0.01319186
 -0.0128298 -0.01265835 -0.01265422 -0.01276079 -0.01293643 -0.01312701 -0.01326905 -0.01329325 -0.01318046 -0.01287487
 -0.01248841 -0.01204437 -0.01164661 -0.01133587 -0.01109934 -0.01094413 -0.01081977 -0.01072165 -0.01062404 -0.01052552
 -0.01043615 -0.01035735 -0.0103102 -0.01029342 -0.01031296 -0.01036162 -0.0104216 -0.01047895 -0.01049456 -0.01045611
 -0.01032577 -0.01010174 -0.009770372 -0.00932577 -0.008763066 -0.008066143 -0.007222764 -0.006233411 -0.005090925 -0.003820933
 -0.002431078 -0.0009246074 0.0006904719 0.002470538 0.004420183 0.006587089 0.00897354 0.01148132 0.01409723 0.01662343
 0.01906047 0.02130955 0.02338542 0.02529488 0.02703216 0.02859449 0.02995375 0.03106384 0.03190434 0.03243085
 0.03264757 0.0325411 0.03212862 0.03141432 0.03041651 0.02913925 0.02760829 0.0258214 0.02384624 0.02168333
 0.01945973 0.01718665 0.01496609 0.012804 0.01069841 0.008645942 0.006598003 0.004559099 0.002528953 0.0005206409
 -0.001414747 -0.003280079 -0.005050435 -0.006749651 -0.008404873 -0.0100359 -0.01167923 -0.01333311 -0.01501379 -0.01669478
 -0.0183717 -0.02000325 -0.02157299 -0.02305655 -0.02443938 -0.02574214 -0.02696248 -0.02814846 -0.02930505 -0.03045872
 -0.03161119 -0.03273406 -0.03382294 -0.0348114 -0.03569836 -0.03644037 -0.03704695 -0.03752784 -0.03789479 -0.03818047
 -0.03839104 -0.0385505 -0.03866185 -0.03873613 -0.0387783 -0.03879323 -0.03879169 -0.03877833 -0.03876889 -0.03876939
 -0.03879285 -0.038844 -0.03892736 -0.03904473 -0.03919428 -0.03937605 -0.0395877 -0.03982911 -0.04010001 -0.04040007
 -0.04072597 -0.04107519 -0.04143248 -0.04179237 -0.04212752 -0.04243327 -0.04268348 -0.04288027 -0.04301355 -0.04309243
 -0.0431223 -0.0431142 -0.04307771 -0.04302275 -0.04295631 -0.04288685 -0.04281838 -0.04275811 -0.04270792 -0.04267532
 -0.04266146 -0.04267366 -0.04271291 -0.04278185 -0.04288071 -0.04300582 -0.04315676 -0.0433272 -0.04351648 -0.04371759
 -0.04392975 -0.04414602 -0.0443669 -0.04458969 -0.04481633 -0.0450498 -0.04528893 -0.0455354 -0.04578205 -0.04602445
 -0.04625492 -0.04646731 -0.04666027 -0.04683119 -0.04698385 -0.04711866 -0.04723915 -0.04734622 -0.04744009 -0.04752113
 -0.04758584 -0.04763405 -0.04766072 -0.04766571 -0.04764612 -0.04760211 -0.04753329 -0.04743978 -0.04732178 -0.04717942
 -0.04701322 -0.04682296 -0.04660932 -0.0463698 -0.04610236 -0.04580326 -0.04546858 -0.04509681 -0.0446856 -0.04423647
 -0.04374942 -0.04322608 -0.04266635 -0.04207395 -0.04144835 -0.04080055 -0.04013091 -0.03945629 -0.03877765 -0.03811103
 -0.03745694 -0.03682569 -0.03621687 -0.03563321 -0.03507377 -0.03453606 -0.03402017 -0.03352444 -0.03305108 -0.03260257
 -0.03218228 -0.03179495 -0.0314434 -0.03113121 -0.03086078 -0.03063432 -0.03045325 -0.0303186 -0.03023086 -0.03019029
 -0.03019735 -0.03025251 -0.03035341 -0.03050036 -0.03068503 -0.03090698 -0.03115637 -0.03143312 -0.03173479 -0.03206214
 -0.03241966 -0.03280691 -0.03322558 -0.03367239 -0.03414085 -0.03462603 -0.03511663 -0.03560931 -0.03609483 -0.03657442
 -0.03704498 -0.03751204 -0.03797755 -0.03844694 -0.03892289 -0.03940791 -0.03990317 -0.04040964 -0.04092786 -0.04145707
 -0.04199774 -0.04254318 -0.04309316 -0.04363392 -0.0441645 -0.04466796 -0.0451437 -0.04557888 -0.04597465 -0.04632806
 -0.04664177 -0.04692117 -0.04716774 -0.04738702 -0.047578 -0.04774166 -0.04787683 -0.04798286 -0.04805887 -0.04810516
 -0.04811744 -0.0480947 -0.04803128 -0.0479245 -0.04777589 -0.04758369 -0.04736146 -0.04710955 -0.04684876 -0.04658032
 -0.04632499 -0.0460836 -0.04587139 -0.04568791 -0.04553858 -0.04542097 -0.0453299 -0.04526029 -0.04519816 -0.04513594
 -0.04505428 -0.04494755 -0.04479909 -0.04461308 -0.04438409 -0.0441283 -0.04385154 -0.04357317 -0.04330237 -0.04305027
 -0.04282336 -0.04261756 -0.04243511 -0.04225692 -0.04208193 -0.04188649 -0.04166899 -0.04141521 -0.04112487 -0.04079359
 -0.04042086 -0.04000095 -0.03953256 -0.03900683 -0.03842433 -0.03778062 -0.03708034 -0.03632773 -0.03553194 -0.03470403
 -0.03385624 -0.03300256 -0.03215097 -0.03131134 -0.03048193 -0.02966427 -0.02885543 -0.02805354 -0.02726394 -0.02648722
 -0.02572836 -0.02498869 -0.02426227 -0.02354879 -0.02284187 -0.02214179 -0.02145495 -0.0207825 -0.02013659 -0.01951616
 -0.01892474 -0.01835764 -0.01780593 -0.01726193 -0.0167083 -0.01613839 -0.01553554 -0.01490065 -0.01422727 -0.01352314
 -0.01279102 -0.01203717 -0.01126484 -0.01047725 -0.009675225 -0.008863918 -0.008044347 -0.00722026 -0.006392699 -0.005557754
 -0.004715288 -0.003858982 -0.00298902 -0.00210836 -0.001219542 -0.000340762 0.0005227394 0.001340639 0.002107731 0.002794028
 0.003399075 0.003906985 0.004322918 0.004646331 0.004884304 0.005042156 0.005127105 0.005144062 0.005100486 0.00499979
 0.004849361 0.004650594 0.004414262 0.004140438 0.003850616 0.003545882 0.003256623 0.002984794 0.002757536 0.002575671
 0.002452283 0.002386087 0.002374056 0.002414206 0.002495544 0.002619634 0.002783186 0.002993104 0.003260917 0.003591057
 0.003996887 0.004471124 0.005015451 0.005611356 0.006251938 0.006910266 0.007578834 0.008218294 0.008820897 0.009336861
 0.009757666 0.01003846 0.01017285 0.01013483 0.009921673 0.009534827 0.008975903 0.008279371 0.007450824 0.00654773
 0.005575277 0.004585783 0.003581046 0.002592101 0.001619587 0.0006792078 -0.0002301761 -0.001101712 -0.001943261 -0.002757769
 -0.003557289 -0.004350316 -0.005143622 -0.005942905 -0.006747426 -0.007558219 -0.008372802 -0.009190633 -0.01001149 -0.01083517
 -0.01166326 -0.01249598 -0.01333067 -0.01416676 -0.0149917 -0.01580433 -0.01658903 -0.0173472 -0.01807518 -0.01877798
 -0.01946692 -0.02014739 -0.02083458 -0.02153219 -0.02225132 -0.02299319 -0.02376359 -0.02455947 -0.02538084 -0.02622377
 -0.0270854 -0.02796827 -0.02887196 -0.02980215 -0.03076093 -0.03174505 -0.03275522 -0.03377944 -0.03481698 -0.03585709
 -0.03689915 -0.03793298 -0.03895725 -0.03995636 -0.04092949 -0.04186318 -0.04276066 -0.04362308 -0.04445614 -0.04527236
 -0.04607263 -0.0468656 -0.04764345 -0.04840301 -0.04913462 -0.0498293 -0.05048824 -0.05110682 -0.05170018 -0.0522711
 -0.05283467 -0.05339541 -0.05395461 -0.05451377 -0.05506376 -0.05560414 -0.05612494 -0.05662558 -0.05709572 -0.05753436
 -0.05792849 -0.05827782 -0.05857296 -0.05881654 -0.05900997 -0.05915866 -0.05927296 -0.05935866 -0.05942742 -0.0594835
 -0.05953507 -0.05958341 -0.05963269 -0.05967902 -0.05972318 -0.05975555 -0.05977421 -0.05976849 -0.05973543 -0.05967226
 -0.05957747 -0.05945865 -0.05931611 -0.05915972 -0.05898995 -0.05881399 -0.05863274 -0.05845647 -0.05828675 -0.05813712
 -0.05800641 -0.05789982 -0.05781171 -0.05773361 -0.0576608 -0.057582 -0.05749889 -0.05740773 -0.05731533 -0.05722455
 -0.05714206 -0.05707268 -0.0570156 -0.05697433 -0.05693328 -0.05689212 -0.05682482 -0.05672814 -0.05658341 -0.05638848
 -0.0561452 -0.05585408 -0.05553143 -0.05517841 -0.05481162 -0.05443148 -0.05404832 -0.05366264 -0.05328085 -0.05290411
 -0.05253816 -0.05218276 -0.0518411 -0.05150924 -0.05118519 -0.05086377 -0.0505406 -0.05021399 -0.04988194 -0.04954484
 -0.04920235 -0.04885513 -0.04850202 -0.04815154 -0.04780345 -0.04747658 -0.04717249 -0.04690167 -0.0466639 -0.0464436
 -0.04623863 -0.04602216 -0.04579596 -0.04555248 -0.0452982 -0.04504944 -0.04480838 -0.04459016 -0.04438621 -0.04419175
 -0.04399662 -0.04378596 -0.0435643 -0.04332657 -0.0430914 -0.04286709 -0.04266256 -0.0424864 -0.04232168 -0.04216794
 -0.04200076 -0.04181543 -0.04161035 -0.04138424 -0.04115775 -0.0409317 -0.0407191 -0.0405179 -0.04031485 -0.04010682
 -0.03987034 -0.03960771 -0.03931179 -0.03899062 -0.03865693 -0.03831737 -0.03798754 -0.03766814 -0.03736605 -0.03707808
 -0.0368048 -0.03654078 -0.03628369 -0.03602961 -0.03577548 -0.03552615 -0.03528122 -0.0350513 -0.03483897 -0.03464014
 -0.03445567 -0.03425832 -0.03404677 -0.0337957 -0.03350671 -0.03318318 -0.03283006 -0.0324734 -0.03211549 -0.03177856
 -0.03145797 -0.03115599 -0.03086459 -0.0305717 -0.03027636 -0.02997067 -0.02966387 -0.02936078 -0.0290654 -0.02878396
 -0.0285048 -0.02822527 -0.02793732 -0.0276367 -0.02733296 -0.02702728 -0.02672369 -0.02642347 -0.02610862 -0.02577836
 -0.02541907 -0.0250327 -0.02463274 -0.02422204 -0.02382276 -0.02343386 -0.02306411 -0.02271011 -0.02236949 -0.02203834
 -0.02171069 -0.02138225 -0.02104578 -0.0207014 -0.02034577 -0.01998439 -0.01961956 -0.01925329 -0.01888745 -0.01851901
 -0.01814704 -0.01777272 -0.01739537 -0.01702331 -0.0166573 -0.01630113 -0.01595473 -0.01560907 -0.01526305 -0.01490084
 -0.01452453 -0.01413321 -0.01373572 -0.01335929 -0.01301008 -0.01271951 -0.01247514 -0.0122764 -0.01209895 -0.01191553
 -0.0117173 -0.01148602 -0.01123326 -0.01096075 -0.01067608 -0.01038338 -0.01008041 -0.009765533 -0.009447671 -0.00912597
 -0.008824821 -0.008546135 -0.008308667 -0.008112956 -0.007951374 -0.007820449 -0.007683124 -0.007535132 -0.007332902 -0.007080114
 -0.006762722 -0.006392855 -0.005990628 -0.005562256 -0.005128723 -0.004682616 -0.004223836 -0.003745545 -0.003238457 -0.002713815
 -0.00216892 -0.001636275 -0.001122521 -0.0006670913 -0.0002820762 2.125543E-05 0.0002345313 0.000401337 0.0005229312 0.0006665338
 0.0008352122 0.001061595 0.001343121 0.001665388 0.002023998 0.002388678 0.002758612 0.003114962 0.003460258 0.003791396
 0.004109554 0.004417421 0.004709052 0.00498109 0.005223103 0.005425706 0.005585613 0.005697302 0.005766504 0.0057933
 0.005785389 0.005742099 0.005682463 0.005606038 0.005553829 0.005529043 0.00556655 0.005667731 0.005825062 0.006035208
 0.006260028 0.006496891 0.006712077 0.006906296 0.007062731 0.007186565 0.007279312 0.007349504 0.007412207 0.007468625
 0.007526272 0.007582056 0.007628144 0.007689352 0.007765329 0.00791772 0.008176099 0.008540219 0.009032895 0.009533788
 0.01002601 0.01044468 0.01077914 0.01105747 0.01128085 0.01148164 0.01166086 0.01184005 0.01201921 0.01221303
 0.01241497 0.01261368 0.01279795 0.01293427 0.01302423 0.01305125 0.01303293 0.01298207 0.01291169 0.01283792
 0.01275843 0.01267686 0.01258614 0.012483 0.01236963 0.01224353 0.01212183 0.01200632 0.01191357 0.01184659
 0.01179225 0.0117497 0.01167808 0.01157576 0.01141062 0.01118437 0.01088896 0.01052822 0.01010647 0.009635368
 0.009136928 0.008635177 0.008178248 0.007777498 0.007471703 0.007236244 0.007067701 0.00693515 0.006819874 0.006711074
 0.006600629 0.006486765 0.006365504 0.006250098 0.006139809 0.006064931 0.006029274 0.006034327 0.006080135 0.006137783
 0.006209591 0.006311218 0.006452416 0.006700609 0.007053056 0.007542983 0.008146465 0.008828234 0.009562625 0.01029415
 0.0110084 0.01166698 0.01227149 0.01280569 0.0132944 0.01374235 0.01418362 0.01463164 0.0151052 0.01561153
 0.01615677 0.01674308 0.01737146 0.01804322 0.01874213 0.01946728 0.0201894 0.020907 0.02159679 0.02225437
 0.02284568 0.02336142 0.0237466 0.02400652 0.0241175 0.02411059 0.02402581 0.02388334 0.02372983 0.02354507
 0.02332745 0.02306094 0.02272436 0.02235681 0.02196073 0.0215989 0.02129079 0.02105376 0.0208996 0.02077982
 0.02069275 0.02057171 0.02041313 0.02020103 0.01993947 0.01967597 0.01941444 0.01920361 0.01903814 0.01892415
 0.018857 0.01882851 0.0188378 0.01888645 0.01895595 0.01903307 0.01908271 0.01907125 0.01898539 0.01880175
 0.0185471 0.01822158 0.01786775 0.01749445 0.01713794 0.01680554 0.01651626 0.01627434 0.01606457 0.01588628
 0.01569433 0.01548635 0.01522048 0.0148972 0.01449594 0.01402229 0.01347878 0.01288379 0.01227637 0.01168331
 0.01116857 0.01073836 0.01043184 0.01022217 0.01010548 0.0100436 0.01001605 0.009995165 0.009964838 0.00991813
 0.009847666 0.009769003 0.009682551 0.009609492 0.009552617 0.009514614 0.009495764</values></Ydata></AB><ScSm><Ydata ylabel="Single channel"><values byteorder="INTEL" format="FLOAT32" numvalues="1814"> 0.07440813 0.07440875 0.07448595 0.07466589 0.07491514 0.07515742 0.07532589 0.07540436 0.07541147 0.0753602
 0.07526921 0.07520605 0.07526344 0.07546878 0.07573944 0.0759387 0.07597842 0.07589509 0.07583375 0.07590995
 0.07605422 0.07602996 0.075656 0.07501365 0.0743939 0.07402969 0.07395104 0.07415014 0.07472062 0.07558968
 0.07622245 0.07600638 0.0750214 0.07406622 0.07377288 0.07400258 0.07422252 0.07412022 0.07369912 0.07315667
 0.07293531 0.07359995 0.07527862 0.07720961 0.07802355 0.07661229 0.07291993 0.06817986 0.06445381 0.06352806
 0.06565596 0.0692066 0.07188825 0.07257499 0.07184006 0.07078874 0.06987036 0.06903007 0.06848489 0.0687627
 0.06997497 0.07132629 0.0715313 0.06992395 0.06725429 0.06514209 0.06459142 0.06537265 0.06691267 0.06891401
 0.07046128 0.06952183 0.06495918 0.05905981 0.05649802 0.05988518 0.06698121 0.07288077 0.07436977 0.0717289
 0.06731257 0.06360288 0.06225973 0.06367525 0.06692725 0.07054359 0.07338148 0.07466353 0.0737845 0.0708492
 0.0671855 0.06469575 0.06468756 0.06736051 0.07176402 0.07589377 0.07761151 0.07622544 0.07294178 0.06959614
 0.06745591 0.06723663 0.06928048 0.07319638 0.07784019 0.0819737 0.08476226 0.08586676 0.08552786 0.08441295
 0.08310418 0.08199831 0.08165555 0.08245088 0.08366235 0.08375329 0.08204632 0.07963075 0.07823988 0.07846156
 0.07927731 0.07930288 0.07818641 0.07637282 0.07373589 0.06955734 0.06418495 0.05946777 0.05690711 0.05651357
 0.05790335 0.06088167 0.06416524 0.06533176 0.06348701 0.06093065 0.06087788 0.06403124 0.06823502 0.07109148
 0.07217366 0.07283337 0.07447398 0.07711942 0.07924755 0.07893983 0.0757831 0.07192035 0.07052465 0.07268376
 0.07636142 0.0789032 0.07983337 0.08054223 0.08186363 0.08278257 0.08149751 0.0775633 0.07302473 0.07114335
 0.07355461 0.07862837 0.08265263 0.08258262 0.07809267 0.07163422 0.0665199 0.06463405 0.06594557 0.06978242
 0.07555834 0.08210118 0.08735576 0.08954453 0.088466 0.08537484 0.08155358 0.07713871 0.07180875 0.06674257
 0.06483996 0.06797531 0.07459608 0.08101895 0.08470935 0.08553521 0.08433774 0.08137792 0.07656865 0.07095104
 0.06716692 0.06740738 0.0707692 0.0737743 0.07400893 0.07231851 0.07100492 0.07096228 0.07135694 0.07139132
 0.07143152 0.07236895 0.07433853 0.07638592 0.07739547 0.07710999 0.07616404 0.07534599 0.07488769 0.07430492
 0.07307293 0.07166107 0.07147861 0.07333075 0.07631248 0.07874255 0.0798518 0.08005828 0.07984667 0.0789225
 0.0766522 0.07327068 0.07036559 0.06970037 0.07151011 0.07435921 0.07663293 0.07769203 0.07771642 0.07712785
 0.07630622 0.07546166 0.07469361 0.07425667 0.07449558 0.0753487 0.07624002 0.07665679 0.07656965 0.07617494
 0.07552634 0.07460065 0.07355499 0.07273979 0.07244707 0.07268783 0.073232 0.0738169 0.07424028 0.07432086
 0.07396387 0.07329902 0.07260112 0.07204111 0.07163163 0.07139538 0.07141357 0.07167001 0.07198191 0.07215164
 0.07212208 0.07194974 0.07169019 0.07135853 0.07097233 0.07059512 0.07033031 0.07025277 0.07032371 0.07041007
 0.0704312 0.07043785 0.07048713 0.07050346 0.07035809 0.07004904 0.06971312 0.06947747 0.06936301 0.06931475
 0.06925914 0.06911749 0.06881513 0.06834633 0.06784613 0.06753665 0.06755036 0.06783315 0.0682312 0.06860732
 0.06885967 0.06893018 0.06884946 0.06870975 0.0685572 0.06835726 0.0680815 0.06778996 0.06761239 0.06764837
 0.06787288 0.06814776 0.06833923 0.06840654 0.06838026 0.06831454 0.06827213 0.0682859 0.0683105 0.06826551
 0.06814089 0.06801685 0.0679733 0.06800836 0.06804687 0.06801922 0.067936 0.06787706 0.06789961 0.06797954
 0.06805485 0.06809726 0.06812149 0.06814316 0.06814314 0.06807723 0.06793183 0.06776176 0.0676433 0.06759448
 0.06757694 0.067568 0.06758605 0.06764156 0.06770077 0.06771412 0.06766787 0.06759479 0.06753027 0.06746598
 0.0673638 0.06721368 0.06705347 0.06692678 0.0668409 0.06677133 0.06669092 0.06658794 0.06646496 0.06632809
 0.06617999 0.06602089 0.06585014 0.06566951 0.0654956 0.06536221 0.06528966 0.06525056 0.06518509 0.06505751
 0.06488803 0.06472533 0.06459484 0.06448086 0.06435913 0.0642355 0.0641399 0.06408826 0.06406742 0.06405649
 0.06404457 0.06402986 0.06402463 0.06406561 0.06419393 0.06440744 0.06464464 0.06483455 0.0649602 0.06506248
 0.06518704 0.06534261 0.06550945 0.0656733 0.0658448 0.06604692 0.06627911 0.06650004 0.06666547 0.0667837
 0.06690942 0.06708224 0.0672977 0.06753583 0.0677797 0.06800096 0.06816833 0.06828848 0.06841037 0.06857169
 0.06876159 0.06894878 0.06912581 0.06930852 0.06950681 0.06971889 0.06995065 0.0702211 0.07054102 0.07089266
 0.07123442 0.07152679 0.0717634 0.07198387 0.07224919 0.07259287 0.07299323 0.07339481 0.07375647 0.07408059
 0.07439788 0.07472666 0.07505689 0.07538146 0.07572627 0.07612459 0.07656884 0.07701541 0.07743617 0.07784028
 0.07824567 0.07865375 0.07905803 0.07945989 0.07986851 0.08029059 0.08072014 0.08113587 0.08151564 0.08185877
 0.08219056 0.08254349 0.08293261 0.08333927 0.08371417 0.08401352 0.08424862 0.08448587 0.08477759 0.08510414
 0.08540787 0.08567363 0.0859448 0.08625982 0.08660447 0.08693896 0.08724936 0.08755495 0.08787481 0.08819974
 0.08849353 0.08871979 0.08887572 0.08900094 0.0891464 0.08933836 0.08958012 0.08987341 0.09021235 0.09056264
 0.09087445 0.09111956 0.09130102 0.09143649 0.09155456 0.09169526 0.09188572 0.09211484 0.09234595 0.09254559
 0.09269612 0.09280707 0.09292741 0.09311799 0.09339249 0.09370779 0.09402591 0.09435607 0.09471652 0.09508725
 0.09543726 0.09578134 0.0961659 0.09659387 0.09700027 0.09731826 0.09754197 0.09770797 0.09784877 0.09799606
 0.09820054 0.09850247 0.09888619 0.09929489 0.09968744 0.1000585 0.1004099 0.1007287 0.1009971 0.1012096
 0.1013743 0.1015043 0.1016148 0.1017294 0.1018799 0.1020816 0.1023064 0.1024943 0.1025988 0.1026071
 0.1025178 0.1023283 0.1020615 0.1017781 0.1015267 0.101285 0.100972 0.1005185 0.09990993 0.09916444
 0.09829791 0.09732539 0.09628618 0.09525252 0.09430903 0.09352526 0.0929501 0.09263045 0.09261937 0.09294155
 0.09354131 0.09427445 0.09496003 0.09543961 0.09560194 0.09539048 0.094817 0.09396026 0.09292819 0.09181301
 0.0906756 0.08954609 0.08842292 0.08729234 0.08618145 0.08519457 0.08448961 0.0842341 0.08459771 0.08574496
 0.08775057 0.09047219 0.09352969 0.09646554 0.09896629 0.1009588 0.1025406 0.103857 0.1050255 0.1061105
 0.1071227 0.1080468 0.1088769 0.1096232 0.1102905 0.1108671 0.1113351 0.1116806 0.1119036 0.1120294
 0.1121013 0.1121538 0.1121996 0.1122464 0.1122997 0.1123374 0.112295 0.1120911 0.1116651 0.1109904
 0.1100722 0.1089747 0.1078998 0.1072514 0.1075398 0.1090908 0.1117721 0.1150221 0.1181801 0.1208157
 0.1228144 0.1242664 0.1253303 0.1261548 0.1268448 0.1274581 0.1280233 0.1285547 0.1290574 0.1295316
 0.1299802 0.1304127 0.1308445 0.1312877 0.1317359 0.132165 0.1325598 0.1329363 0.1333295 0.1337575
 0.1342027 0.1346306 0.1350272 0.1354102 0.1358005 0.1361915 0.1365608 0.1369062 0.1372486 0.1376057
 0.1379789 0.1383644 0.1387543 0.1391285 0.1394668 0.1397713 0.1400643 0.1403638 0.1406696 0.1409743
 0.1412787 0.1415908 0.1419144 0.1422448 0.142576 0.142904 0.1432186 0.1435026 0.1437489 0.1439748
 0.1442114 0.144477 0.1447662 0.1450608 0.1453527 0.1456508 0.1459675 0.1462978 0.1466187 0.1469096
 0.1471697 0.1474142 0.1476596 0.1479156 0.1481869 0.1484739 0.1487702 0.1490638 0.1493488 0.1496316
 0.1499213 0.1502149 0.1505012 0.1507753 0.1510442 0.151316 0.1515912 0.1518665 0.1521418 0.1524236
 0.1527192 0.1530275 0.1533336 0.1536171 0.153869 0.154099 0.1543253 0.1545595 0.1548018 0.15505
 0.1553076 0.1555787 0.1558595 0.156139 0.1564091 0.1566726 0.1569369 0.157206 0.157477 0.1577446
 0.1580075 0.1582717 0.1585444 0.1588247 0.1591024 0.1593682 0.1596224 0.1598718 0.1601232 0.1603775
 0.160631 0.1608806 0.161129 0.161382 0.1616417 0.1619041 0.1621639 0.1624169 0.1626622 0.1629042
 0.1631516 0.163409 0.1636722 0.1639327 0.1641856 0.1644344 0.1646852 0.1649375 0.1651843 0.165424
 0.1656657 0.1659181 0.1661786 0.166438 0.1666908 0.1669389 0.1671887 0.1674458 0.1677058 0.1679564
 0.1681928 0.1684254 0.1686667 0.1689168 0.1691667 0.1694111 0.1696554 0.1699092 0.1701759 0.1704482
 0.1707169 0.1709792 0.1712364 0.1714895 0.1717405 0.1719922 0.1722446 0.1724986 0.1727596 0.1730328
 0.1733146 0.1735943 0.1738615 0.1741113 0.1743447 0.1745687 0.1747927 0.1750259 0.1752723 0.1755255
 0.1757743 0.1760158 0.1762548 0.1764929 0.1767281 0.1769657 0.177214 0.1774729 0.1777365 0.178003
 0.178271 0.1785367 0.178797 0.1790513 0.1792988 0.1795441 0.1797971 0.1800621 0.1803329 0.1806005
 0.1808616 0.1811204 0.1813849 0.1816568 0.1819277 0.1821911 0.1824528 0.1827179 0.1829822 0.1832444
 0.1835101 0.1837785 0.184042 0.1842978 0.1845462 0.1847856 0.1850224 0.1852692 0.1855281 0.1857901
 0.1860508 0.1863105 0.1865669 0.1868216 0.1870828 0.1873523 0.1876241 0.1878924 0.1881523 0.1884015
 0.1886486 0.1889041 0.1891643 0.1894209 0.1896759 0.1899324 0.1901889 0.19045 0.1907165 0.1909602
 0.1911174 0.1910597 0.1904868 0.1887992 0.1850798 0.1782897 0.1676991 0.153361 0.1362473 0.1178915
 0.09982864 0.0832133 0.0687236 0.05665573 0.04706842 0.03987312 0.03489306 0.03197262 0.03109395 0.03248475
 0.03672898 0.04442583 0.05489505 0.06500873 0.07038861 0.06885818 0.06252829 0.05587605 0.0520149 0.05117127
 0.05201177 0.05339229 0.05494907 0.05689241 0.05958745 0.06314629 0.06740457 0.07235795 0.07838296 0.08576667
 0.09412757 0.1025664 0.1104409 0.117877 0.1254746 0.1335878 0.1419533 0.149951 0.1571042 0.1633225
 0.1687977 0.173781 0.1784438 0.182871 0.1871059 0.1911392 0.1948256 0.1978589 0.1999165 0.2008967
 0.2010362 0.200782 0.200533 0.2004834 0.2006596 0.2010309 0.2015673 0.202243 0.2030356 0.2039218
 0.2048709 0.2058516 0.20684 0.2078122 0.20874 0.2096042 0.2104027 0.2111414 0.2118259 0.2124614
 0.2130511 0.2135965 0.2141046 0.2145897 0.2150629 0.2155244 0.2159663 0.2163795 0.2167591 0.2171067
 0.2174286 0.2177329 0.2180312 0.2183356 0.2186501 0.2189681 0.2192825 0.219593 0.2199014 0.220208
 0.2205127 0.2208133 0.2211056 0.2213893 0.2216727 0.2219636 0.2222608 0.2225558 0.2228422 0.223121
 0.2234006 0.2236905 0.2239914 0.2242939 0.2245903 0.2248819 0.2251741 0.2254696 0.2257676 0.2260645
 0.22636 0.2266616 0.2269762 0.2272977 0.2276132 0.2279203 0.2282259 0.2285339 0.2288471 0.2291676
 0.2294858 0.2297796 0.2300383 0.2302811 0.2305465 0.2308605 0.2312126 0.2315634 0.231883 0.2321773
 0.2324706 0.2327746 0.2330834 0.233384 0.2336717 0.2339657 0.2342996 0.234679 0.2350675 0.2354333
 0.235781 0.2361262 0.2364741 0.2368306 0.2371934 0.2375268 0.2377883 0.2379948 0.2382366 0.2386071
 0.2391139 0.2396609 0.2401348 0.2405065 0.2408334 0.2411833 0.2415854 0.2420079 0.2423398 0.2424679
 0.242448 0.2425337 0.2429453 0.2436527 0.2444377 0.2451151 0.2456445 0.2460795 0.2464745 0.2468282
 0.2470872 0.2472091 0.2472504 0.2473918 0.247815 0.2485161 0.2492875 0.2499272 0.2504008 0.2507747
 0.2510991 0.2513954 0.2516207 0.2516115 0.251256 0.2508036 0.2508 0.251557 0.2527937 0.2539337
 0.2546803 0.2551654 0.2556069 0.2560392 0.2563947 0.2565709 0.2562973 0.2552799 0.2537826 0.2528026
 0.2532507 0.2550318 0.2572022 0.2589132 0.2599519 0.2605366 0.2609421 0.2613099 0.261539 0.2613063
 0.2604262 0.259312 0.2588639 0.2596408 0.2612371 0.2627179 0.2635699 0.2639712 0.2642971 0.2647008
 0.26501 0.264674 0.2630764 0.2604372 0.2582727 0.2583345 0.2609012 0.2644479 0.2671574 0.2684887
 0.269049 0.2692583 0.2687209 0.2669345 0.2640527 0.2608181 0.2583097 0.2577847 0.2598562 0.2634594
 0.2664509 0.2677205 0.2681353 0.269119 0.2709508 0.2727765 0.273715 0.273538 0.2725175 0.2709427
 0.2689806 0.2671181 0.2664368 0.2678532 0.2710062 0.2743769 0.2766952 0.277907 0.2785135 0.2780822
 0.2749434 0.2681843 0.2601622 0.2558701 0.2585346 0.2662405 0.273993 0.2786404 0.2806148 0.2815861
 0.2822159 0.2819696 0.2794357 0.2731078 0.263761 0.2559265 0.2548257 0.2612134 0.2705261 0.2771338
 0.2781659 0.2738206 0.2663701 0.2594945 0.2567826 0.2595515 0.2662569 0.2740203 0.2803675 0.2839134
 0.2843426 0.2822711 0.2792009 0.277156 0.2772192 0.2779287 0.2763804 0.2718913 0.2671373 0.2642332
 0.2614731 0.2564994 0.2514649 0.2516136 0.2584588 0.267253 0.2723102 0.27276 0.2715669 0.2701411
 0.2659562 0.2562079 0.2431321 0.2341339 0.2353082 0.2451149 0.2557476 0.2607624 0.2602015 0.2583412
 0.2579771 0.2575692 0.253433 0.2445434 0.2349849 0.2305392 0.232564 0.2367768 0.2383424 0.2357815
 0.2293402 0.219374 0.2090142 0.2052079 0.2128804 0.2289085 0.2445551 0.2526738 0.250371 0.2374653
 0.2173826 0.1991126 0.1928618 0.2009777 0.2151259 0.223944 0.2220929 0.2112872 0.1953908 0.1776573
 0.1621325 0.1542237 0.1574614 0.169863 0.1841336 0.1914596 0.186406 0.1710012 0.1548073 0.1480729
 0.1525991 0.1606227 0.1635263 0.1596129 0.1529401 0.1479254 0.1467099 0.1489463 0.152265 0.154439
 0.1551862 0.1539168 0.1473466 0.1335458 0.117585 0.1082742 0.1089714 0.1158307 0.1249296 0.1357436
 0.1464375 0.1514821 0.1479064 0.1410303 0.1399951 0.1480954 0.1599008 0.1677973 0.1694925 0.1685148
 0.1686577 0.1697677 0.1697659 0.1693741 0.1722489 0.1799669 0.1892634 0.195673 0.1981853 0.1988283
 0.1992412 0.1994505 0.1990369 0.1978647 0.1960033 0.1938445 0.1919799 0.1905243 0.1889989 0.1870175
 0.1842949 0.1797116 0.1716059 0.1602716 0.1494707 0.1435535 0.1429625 0.1444837 0.1459148 0.1473882
 0.147173 0.1403805 0.1253813 0.1091506 0.1022172 0.1085144 0.1224718 0.1353979 0.1421337 0.1415097
 0.1337812 0.1209009 0.1087765 0.1054579 0.1145886 0.1319464 0.1500157 0.1644153 0.1743079 0.178892
 0.1769091 0.1694787 0.161137 0.1572919 0.1610328 0.1717392 0.1851146 0.1941125 0.192402 0.1807844
 0.1702151 0.1736682 0.1923137 0.2133411 0.2243468 0.2259625 0.2266133 0.229407 0.2306758 0.2294446
 0.2311081 0.2400535 0.2531646 0.26286 0.2637377 0.2546881 0.238111 0.2203862 0.2102622 0.2119635
 0.2205555 0.2274328 0.2286961 0.2246807 0.2148807 0.2000945 0.1878667 0.1879561 0.2010235 0.217238
 0.2274829 0.2317037 0.2348441 0.2382918 0.238168 0.2311947 0.2201525 0.2121564 0.2115932 0.2162517
 0.2209876 0.2230967 0.2224059 0.2182802 0.2099918 0.2000104 0.1940151 0.196012 0.2042582 0.2129546
 0.2175001 0.2174367 0.2150393 0.212481 0.2104118 0.2081658 0.20517 0.2027463 0.2038589 0.2098534
 0.2181447 0.2247913 0.2289714 0.2332384 0.2394893 0.246305 0.2506223 0.251047 0.2491984 0.2483357
 0.2507405 0.2558632 0.2606986 0.2623338 0.2607158 0.2589711 0.2605298 0.2658307 0.2722467 0.2770601
 0.279695 0.2811368 0.2823045 0.2832808 0.2832782 0.2812477 0.2774054 0.2741452 0.2743677 0.2786126
 0.2845292 0.2892743 0.2917793 0.2926432 0.2926338 0.2918586 0.2901867 0.2879783 0.2861052 0.2852868
 0.2855923 0.2866074 0.2878742 0.2890925 0.2901128 0.2909201 0.2915787 0.2921325 0.2925926 0.2929963
 0.2933742 0.2936605 0.2937576 0.2937264 0.293801 0.2941355 0.2946072 0.2949443 0.2949728 0.2946359
 0.293856 0.2925511 0.2907873 0.2887606 0.2865792 0.2841924 0.2816528 0.279403 0.2781496 0.2783408
 0.2797576 0.2816537 0.2832835 0.2842858 0.2846702 0.2846091 0.2842989 0.283912 0.2835597 0.2832683
 0.2830076 0.2827538 0.2825196 0.2823286 0.2821868 0.2821015 0.2821075 0.2822424 0.2824911 0.2827772
 0.2830092 0.2831369 0.2831748 0.2831817 0.2832062 0.2832381 0.2832125 0.2830595 0.2827533 0.2823246
 0.2818371 0.2813457 0.28086 0.2803406 0.2797348 0.2790118 0.2781476 0.2770934 0.2758123 0.2743713
 0.2729422 0.2716737 0.2705862 0.2696075 0.2686614 0.2676896 0.2666395 0.2654774 0.2642024 0.2628278
 0.261366 0.2598321 0.258242 0.2565963 0.2548779 0.2530619 0.2511274 0.2490674 0.2468905 0.2446034
 0.2421795 0.2395416 0.2365814 0.2331965 0.2293103 0.2248679 0.2198534 0.2143391 0.2085073 0.202597
 0.1968228 0.1913365 0.1862464 0.1816516 0.177651 0.174318 0.1716794 0.1697316 0.1684732 0.1679091
 0.1680321 0.1688098 0.1701753 0.1720154 0.1741765 0.1764905 0.1787972 0.1809663 0.1829387 0.1847567
 0.186532 0.1883567 0.1902324 0.1920829 0.193829 0.195436 0.1968884 0.1981532 0.1991967 0.20002
 0.2006552 0.2011346 0.2014761 0.2016804 0.2017312 0.2016128 0.201335 0.200943 0.2005158 0.2001598
 0.1999894 0.2000993 0.2005477 0.2013451 0.202443 0.2037439 0.2051422 0.2065596 0.207959 0.2093422
 0.2107341 0.2121609 0.2136489 0.215239 0.2169815 0.218907 0.2210078 0.2232343 0.2254953 0.2276766
 0.2296786 0.2314441 0.2329598 0.2342474 0.2353478 0.2363033 0.2371497 0.2379174 0.238626 0.2392803
 0.2398777 0.2404147 0.2408808 0.2412578 0.2415329 0.2417067 0.2417965 0.2418335 0.2418423 0.2418175
 0.2417388 0.2416113 0.2414698 0.2413418 0.2412207 0.2410744 0.2408678 0.2405797 0.2402073 0.2397573
 0.2392368 0.2386486 0.237981 0.237203 0.2362835 0.2352135 0.2339977 0.2326394 0.2311445 0.2295282
 0.2278066 0.2259952 0.2241138 0.2221809 0.2202014 0.218164 0.2160413 0.2137993 0.2114365 0.2090171
 0.2066424 0.2043838 0.2022541 0.2002294 0.1982798 0.1963887 0.1945582 0.1927956 0.1910995 0.1894665
 0.1879027 0.1864174 0.1850115 0.1836809 0.1824282 0.18127 0.1802337 0.1793318 0.1785406 0.177822
 0.1771665 0.1765974 0.1761397 0.1758034 0.1755834 0.175449 0.1753428 0.175205 0.1750005 0.1747261
 0.174409 0.1740925 0.1738089 0.1735602 0.1733225 0.1730506 0.1726765 0.1721201 0.1713029 0.170159
 0.1686562 0.1668253 0.1647598 0.1625873 0.1604421 0.1584431 0.1566743 0.1551849 0.1539946 0.1530746
 0.1523374 0.1516925 0.1511218 0.1506885 0.1504685 0.150463 0.1505531 0.150565 0.1504204 0.1502191
 0.1501507 0.1503372 0.1507617 0.1513074 0.1518395 0.1522728 0.1525768 0.1527378 0.1527493 0.1526334
 0.152426 0.1521425 0.1517853 0.1513633 0.1508772 0.1503193 0.1497027 0.1490548 0.1483763 0.1476422
 0.1468296 0.1459217 0.1449098 0.1437955 0.1425636 0.1411924 0.1397556 0.1384804 0.1376353 0.1373661
 0.1376351 0.1382633 0.139042 0.1398474 0.1406001 0.141104 0.1411207 0.140766 0.1406898 0.1416026
 0.1435832 0.1459686 0.1479421 0.1491161 0.1495401 0.1493626 0.148667 0.1475127 0.1459195 0.1438488
 0.1413185 0.1384609 0.1354112 0.1322754 0.1292245 0.1264597 0.1240911 0.1221443 0.120617 0.1195556
 0.1191016 0.1188815 0.1169965 0.11103 0.1017622 0.09480612 0.09587343 0.1043459 0.1137185 0.1184822
 0.1185045 0.1167248 0.1151595 0.1141243 0.1135457 0.1135811 0.1143436 0.1156637 0.1171327 0.1183443
 0.1191421 0.1195693 0.1195815 0.1188398 0.11666 0.1122239 0.1052276 0.09648746 0.08766962 0.0803089
 0.07512616 0.07204336 0.07048818 0.06972679 0.06923935 0.06896307 0.06918203 0.07018208 0.07201089 0.07452255
 0.07753258 0.08080074 0.08392446 0.08648795 0.08838543 0.08982775 0.09098841 0.09180222 0.09212865 0.09194937
 0.09136949 0.09053719 0.08959132 0.08861402 0.08759224 0.08645251 0.08519869 0.084033 0.08325389 0.08297437
 0.08301917 0.08313949 0.08322323 0.08326723 0.08327956 0.08326558 0.08323726 0.08323158 0.08334592 0.08367807
 0.0841877 0.08469699 0.08505816 0.0852647 0.085401 0.08550018 0.08543092 0.08500344 0.08428106 0.08362738
 0.08324237 0.08282471 0.08198026 0.08084698 0.08001417 0.07986441 0.0802279 0.08065666 0.08083338 0.08070935
 0.08045436 0.08037511 0.08072215 0.08139582</values></Ydata></ScSm><ScRf><Ydata ylabel="Single channel"><values byteorder="INTEL" format="FLOAT32" numvalues="1820"> 0.0606848 0.06084712 0.06094518 0.0609762 0.06096568 0.0609646 0.06102805 0.06117928 0.06138802 0.06158457
 0.06170757 0.06174739 0.06173467 0.06169228 0.06162969 0.06158547 0.06162846 0.0617886 0.06200557 0.06216525
 0.06219144 0.06211729 0.06206827 0.0621393 0.06226669 0.06224996 0.06193902 0.06140223 0.06088135 0.06057192
 0.060503 0.06066956 0.06114709 0.06187407 0.06240696 0.06223387 0.06141457 0.06061145 0.06035724 0.0605437
 0.06072733 0.06064542 0.06030213 0.05986205 0.05968529 0.06023167 0.06160922 0.06319904 0.06387663 0.06272264
 0.05968159 0.05576534 0.05267485 0.05188905 0.05362726 0.05655371 0.05877797 0.05936215 0.05877182 0.05791847
 0.05717234 0.056482 0.05602096 0.05622807 0.05720686 0.05831316 0.05849147 0.05718562 0.05499928 0.05325845
 0.05279604 0.05343458 0.05470559 0.05636011 0.0576436 0.05688457 0.053141 0.04828218 0.04615504 0.04892756
 0.05477409 0.05965397 0.06090276 0.05873818 0.05509952 0.05203731 0.05092267 0.05208016 0.05475117 0.05772312
 0.06005595 0.06111428 0.06040406 0.05800833 0.0550117 0.05297416 0.05297082 0.05516763 0.05878953 0.06219835
 0.06363642 0.06251901 0.05982042 0.0570491 0.0552613 0.05506144 0.056743 0.05999069 0.06385875 0.06731263
 0.06964719 0.07057264 0.07029026 0.06936571 0.06829398 0.06740044 0.06713212 0.06779186 0.06879252 0.06887241
 0.06746631 0.06546724 0.06431216 0.06449749 0.06518394 0.06521963 0.06430766 0.06282006 0.06065832 0.05722189
 0.05278539 0.04887725 0.0467511 0.04642398 0.04758248 0.05007561 0.05284687 0.05387075 0.05237086 0.05023756
 0.05015689 0.05274521 0.05623186 0.05862256 0.0595489 0.06012258 0.06150619 0.06372392 0.06551713 0.06528986
 0.062687 0.05948295 0.05832782 0.06014734 0.06325475 0.06542954 0.06626116 0.06690218 0.06804978 0.0688615
 0.06783558 0.06459896 0.06085821 0.05933886 0.06140826 0.06570467 0.06912652 0.06912497 0.06541805 0.06005083
 0.05580318 0.05426841 0.05543657 0.05876035 0.06376128 0.06945672 0.07410184 0.07616331 0.07542807 0.07293721
 0.06979371 0.06613488 0.06168389 0.05744011 0.05590862 0.05874052 0.06462522 0.07037996 0.07379109 0.07472153
 0.07388197 0.07147805 0.06741759 0.06262319 0.05945697 0.05988743 0.06311552 0.0660261 0.06644451 0.06512032
 0.064128 0.06428787 0.06485552 0.06510677 0.06537423 0.06647807 0.06854865 0.07070678 0.07190788 0.0718901
 0.07123192 0.07068422 0.07048523 0.0701784 0.06925578 0.06816532 0.06826219 0.07031929 0.07346123 0.07606394
 0.0773869 0.07784635 0.07792215 0.07731199 0.07535852 0.0722696 0.0696286 0.06922181 0.07130997 0.07445887
 0.07703304 0.07837823 0.07867977 0.07837008 0.07782853 0.07725799 0.07675676 0.07658915 0.07711356 0.07827042
 0.07946818 0.08017784 0.08036822 0.08023591 0.07982405 0.0791046 0.07825401 0.07765298 0.07760997 0.07813285
 0.07897791 0.07986586 0.0805788 0.08092116 0.08078931 0.08032068 0.07981288 0.07945195 0.07924874 0.07922959
 0.07949408 0.08003069 0.08063005 0.08106307 0.08126445 0.08130045 0.08123703 0.08109429 0.08089086 0.08069433
 0.08062144 0.08075727 0.08105092 0.08134585 0.08156031 0.08176909 0.08203936 0.08226759 0.0822881 0.08209964
 0.08188141 0.0817984 0.08186683 0.08200085 0.08210933 0.08211176 0.08192463 0.08153315 0.08109404 0.08087948
 0.08106044 0.08158391 0.08226821 0.0829339 0.08343562 0.08369182 0.08374466 0.08371517 0.0836622 0.0835409
 0.08331606 0.08306898 0.08297111 0.08315334 0.08358841 0.08410369 0.08451936 0.08476035 0.08485302 0.084884
 0.08496538 0.08514954 0.08535139 0.08542834 0.08535933 0.08528025 0.08532119 0.08545792 0.08554941 0.08550335
 0.08538492 0.08535165 0.08548704 0.08572552 0.0859474 0.08611214 0.08627455 0.08648553 0.08669747 0.08678515
 0.08667955 0.08646444 0.08629561 0.0862366 0.08623655 0.08626286 0.08636601 0.08657952 0.08682524 0.08697898
 0.08700814 0.08699758 0.08703612 0.08710867 0.08711959 0.08700687 0.08680999 0.08662979 0.08654539 0.08656992
 0.08665875 0.08674181 0.0867605 0.08669738 0.08658072 0.08645648 0.0863556 0.08629698 0.08631712 0.08646172
 0.08671599 0.08695754 0.08702566 0.08686407 0.08658341 0.08636369 0.08629201 0.08630005 0.08625287 0.08608143
 0.08582562 0.08557177 0.08537435 0.08523489 0.08512919 0.08504125 0.08498513 0.08500414 0.08512682 0.08530156
 0.08539686 0.08530672 0.0850565 0.08477791 0.08458765 0.08451214 0.0845077 0.08451611 0.08451335 0.08452983
 0.0846037 0.08470185 0.08473089 0.08464918 0.0845255 0.08446737 0.08453275 0.08471499 0.08495089 0.08512866
 0.08515456 0.08504695 0.08492609 0.08489209 0.08494484 0.0850289 0.0851118 0.08519509 0.08528247 0.08537311
 0.08548158 0.08563933 0.08586612 0.08614085 0.08640318 0.08659147 0.08669519 0.08677603 0.08692525 0.08718643
 0.08751816 0.08783293 0.08807115 0.08824147 0.08839659 0.08857454 0.08877146 0.08897579 0.08920784 0.08949748
 0.08983215 0.09016079 0.09045089 0.09071583 0.09098518 0.09127181 0.09157369 0.09189498 0.09225722 0.09267883
 0.09313105 0.0935275 0.09378958 0.09392716 0.09403948 0.09423839 0.09457012 0.0949796 0.09533455 0.09552599
 0.09558133 0.09564883 0.09583776 0.09610857 0.09635915 0.09658184 0.09687175 0.09728627 0.09775285 0.09813733
 0.09837733 0.09852912 0.09869229 0.09890197 0.09910212 0.09922549 0.09928431 0.09935668 0.099491 0.0996688
 0.09987548 0.1001522 0.1005337 0.1009698 0.1013604 0.1016497 0.1018497 0.1019955 0.1021123 0.1022093
 0.1022765 0.1023059 0.1023286 0.1023946 0.1025009 0.1025829 0.102603 0.1026065 0.1026671 0.1028117
 0.1030294 0.1033113 0.1036388 0.1039575 0.1042229 0.1044693 0.1047777 0.1051534 0.1054851 0.1056651
 0.1057102 0.1057174 0.1057394 0.1057693 0.1058263 0.1059757 0.1062491 0.1065996 0.1069579 0.1072971
 0.1076269 0.10795 0.1082405 0.108456 0.1085654 0.1085763 0.1085437 0.1085489 0.1086611 0.1089009
 0.1092268 0.1095608 0.1098386 0.1100325 0.1101302 0.1101268 0.110063 0.1100407 0.1101463 0.1103494
 0.1105127 0.1105083 0.110302 0.1099247 0.1094082 0.1087776 0.1080851 0.1074173 0.106859 0.1064561
 0.1062216 0.1061753 0.1063612 0.1068019 0.1074395 0.1081476 0.108807 0.1093391 0.1096657 0.1096934
 0.109381 0.1087966 0.1080757 0.1073376 0.1066504 0.1060323 0.1054536 0.1048756 0.1043357 0.1039886
 0.1040319 0.1045874 0.1056422 0.10706 0.1086223 0.110097 0.1113299 0.112302 0.1130972 0.1138084
 0.1144811 0.1151346 0.1157947 0.1164697 0.1171147 0.1176668 0.1181182 0.1185224 0.1189255 0.1193229
 0.1196792 0.1199678 0.1201935 0.1203924 0.120598 0.1207892 0.1208976 0.1208834 0.1207824 0.1206594
 0.1205364 0.1203804 0.1201387 0.1197792 0.1193302 0.1189127 0.1187214 0.1189363 0.1196177 0.1206729
 0.1219272 0.1232337 0.1245089 0.1256791 0.1266459 0.1273416 0.1277933 0.1281007 0.1283608 0.1286286
 0.1289237 0.1292417 0.129562 0.1298645 0.1301445 0.1304163 0.1307088 0.1310425 0.1313977 0.1317186
 0.131968 0.1321758 0.1324205 0.132755 0.1331537 0.1335404 0.1338718 0.134178 0.1345026 0.1348261
 0.1350864 0.1352648 0.1354138 0.1356041 0.1358742 0.1362235 0.1366123 0.13697 0.1372391 0.1374234
 0.137578 0.1377523 0.1379585 0.1381866 0.1384269 0.1386727 0.1389206 0.13918 0.1394716 0.1397975
 0.1401161 0.1403653 0.1405244 0.1406396 0.1407816 0.1409826 0.1412191 0.1414482 0.1416549 0.1418681
 0.1421309 0.1424495 0.142774 0.1430367 0.1432098 0.1433229 0.1434314 0.1435757 0.1437644 0.1439821
 0.1442038 0.1444098 0.144598 0.1447844 0.1449887 0.1452164 0.1454544 0.1456843 0.1458994 0.1461073
 0.1463175 0.1465291 0.1467389 0.1469584 0.1472098 0.1474959 0.1477829 0.1480262 0.1482104 0.1483544
 0.1484843 0.1486153 0.1487576 0.1489221 0.1491132 0.1493225 0.1495352 0.1497408 0.1499367 0.1501265
 0.1503175 0.150517 0.1507291 0.1509522 0.1511806 0.1514118 0.1516468 0.1518837 0.1521124 0.1523215
 0.1525106 0.1526931 0.1528837 0.1530834 0.1532788 0.15346 0.1536354 0.1538218 0.1540229 0.1542249
 0.1544143 0.1545928 0.1547735 0.1549667 0.1551701 0.1553737 0.1555724 0.1557715 0.1559779 0.1561897
 0.156399 0.1565991 0.156787 0.1569645 0.1571385 0.1573171 0.1575036 0.1576978 0.1578986 0.1581041
 0.1583109 0.1585162 0.1587188 0.1589194 0.1591206 0.159325 0.1595332 0.1597422 0.1599461 0.1601391
 0.1603226 0.1605073 0.1607033 0.1609103 0.1611224 0.1613367 0.1615525 0.1617675 0.1619801 0.16219
 0.162396 0.1625997 0.1628092 0.1630307 0.163261 0.1634898 0.1637098 0.1639192 0.1641201 0.1643135
 0.1644972 0.1646715 0.1648422 0.1650144 0.1651872 0.1653595 0.1655344 0.1657155 0.1659048 0.1661038
 0.1663102 0.1665179 0.1667237 0.1669303 0.1671393 0.1673492 0.1675599 0.1677699 0.1679751 0.1681748
 0.1683736 0.1685745 0.1687773 0.168983 0.1691908 0.1693988 0.1696098 0.1698271 0.1700427 0.1702453
 0.1704374 0.1706311 0.1708324 0.1710396 0.1712497 0.1714601 0.1716725 0.171893 0.1721187 0.172335
 0.1725352 0.1727283 0.1729235 0.1731239 0.1733309 0.1735425 0.1737521 0.1739595 0.1741721 0.1743918
 0.1746127 0.1748322 0.1750507 0.1752694 0.1754935 0.1757238 0.1759479 0.1761552 0.176352 0.1765494
 0.176752 0.1769618 0.1771739 0.1773633 0.1774785 0.1774034 0.176852 0.175257 0.1717589 0.1653881
 0.1554662 0.142048 0.1260471 0.1088995 0.09203997 0.07654671 0.06305141 0.05182642 0.04292004 0.03624319
 0.03162761 0.02892549 0.02811501 0.02940505 0.03334533 0.040502 0.05023756 0.05962691 0.06459339 0.06312931
 0.05721957 0.05103558 0.04746507 0.0467049 0.04750378 0.0487942 0.05024107 0.05204096 0.05452703 0.05779955
 0.06171532 0.06628558 0.07186145 0.07869446 0.08641842 0.0942032 0.1014643 0.1083216 0.1153253 0.1227986
 0.1304967 0.1378442 0.1443958 0.1500657 0.1550402 0.1595677 0.1638147 0.1678506 0.1717028 0.1753618
 0.1787018 0.1814426 0.1832802 0.1841174 0.1841771 0.1838782 0.1835887 0.1834829 0.1835812 0.1838564
 0.1842837 0.1848426 0.1855137 0.186273 0.1870838 0.1879096 0.1887328 0.1895463 0.190335 0.1910783
 0.1917642 0.1923929 0.1929722 0.1935112 0.1940118 0.1944687 0.1948809 0.195258 0.1956123 0.1959522
 0.1962812 0.1965953 0.1968836 0.1971394 0.1973687 0.1975873 0.1978114 0.1980471 0.1982843 0.1985055
 0.1987076 0.1989068 0.1991183 0.1993387 0.1995537 0.1997568 0.1999553 0.2001591 0.2003681 0.2005715
 0.200763 0.2009519 0.2011516 0.2013613 0.2015682 0.2017664 0.2019609 0.2021552 0.2023455 0.2025285
 0.2027097 0.2028981 0.2030951 0.2032919 0.2034819 0.2036721 0.2038739 0.2040875 0.2043062 0.2045278
 0.2047495 0.2049613 0.2051585 0.2053509 0.2055455 0.2057308 0.2058933 0.206043 0.2062102 0.2064169
 0.2066535 0.2068884 0.2071012 0.2072997 0.2075008 0.2077045 0.2078974 0.2080704 0.2082328 0.2084146
 0.2086447 0.2089155 0.2091849 0.2094256 0.2096498 0.2098777 0.2101137 0.2103567 0.2106003 0.2108145
 0.2109655 0.2110673 0.2111953 0.2114299 0.211781 0.2121699 0.2125 0.2127438 0.2129478 0.2131714
 0.2134425 0.2137325 0.2139402 0.2139654 0.2138619 0.2138558 0.2141368 0.2146703 0.2152634 0.2157631
 0.2161426 0.2164464 0.2167116 0.2169307 0.217056 0.217052 0.2169748 0.2169917 0.2172642 0.2177818
 0.2183606 0.2188315 0.2191687 0.2194188 0.2196087 0.2197526 0.2198242 0.2196952 0.2192738 0.2187753
 0.218674 0.219244 0.2202413 0.2211563 0.2217181 0.2220365 0.2223118 0.2225917 0.2228223 0.2228998
 0.2225721 0.2215844 0.2201833 0.2192475 0.2195639 0.221037 0.2228412 0.2242406 0.2250497 0.225454
 0.2256926 0.2258977 0.2259936 0.2257045 0.2248643 0.223824 0.2233594 0.2239535 0.225254 0.2264529
 0.2271119 0.2273877 0.227598 0.2278677 0.2280487 0.2276709 0.226203 0.2238357 0.2218867 0.2218757
 0.2240373 0.2270407 0.2293084 0.2303732 0.2307634 0.2308466 0.2302874 0.2286573 0.2260895 0.2232227
 0.2209878 0.2204689 0.2221875 0.2252169 0.2277108 0.2287243 0.2290132 0.229801 0.2313205 0.2328318
 0.2335743 0.2333524 0.2324024 0.2309751 0.2292161 0.2275485 0.2269055 0.2280722 0.2307322 0.233575
 0.2355028 0.2364626 0.2368838 0.2364047 0.2336111 0.227741 0.2208223 0.2171167 0.2193642 0.225917
 0.2325045 0.2364303 0.2380587 0.2388177 0.2392778 0.2389894 0.2367576 0.231307 0.2233034 0.2166066
 0.215652 0.2210606 0.2289357 0.2344969 0.2353201 0.2315832 0.2252239 0.2193743 0.2170736 0.2194219
 0.2251018 0.2316774 0.2370539 0.2400521 0.2403959 0.238603 0.2359592 0.2342064 0.2342728 0.2349008
 0.2336061 0.2298054 0.2257711 0.2233007 0.2209568 0.2167527 0.2125229 0.2127158 0.2185998 0.2261237
 0.2304637 0.2309126 0.2300071 0.2289227 0.2254761 0.2172692 0.2062195 0.198665 0.1998259 0.2083859
 0.2176658 0.2221633 0.2219265 0.2206126 0.2206099 0.2205966 0.2173945 0.2101053 0.2022651 0.1988967
 0.2011819 0.2054074 0.2073826 0.2057965 0.2007939 0.1926414 0.1841183 0.1814005 0.1888754 0.2037988
 0.2184266 0.2263826 0.2250202 0.2140925 0.1966721 0.180995 0.1764497 0.1851808 0.1994852 0.2088844
 0.2084444 0.1996944 0.1861508 0.1708806 0.1578935 0.1526534 0.1588459 0.1746157 0.192508 0.20316
 0.2005143 0.1865603 0.1717683 0.1675681 0.1759405 0.1880142 0.1939712 0.1919442 0.1866911 0.1834887
 0.1850754 0.1910836 0.1984294 0.2042343 0.2081301 0.20901 0.2019423 0.1841025 0.1626314 0.1499154
 0.1507227 0.1598029 0.1717989 0.1860452 0.2000392 0.2061496 0.2002156 0.1893925 0.1860277 0.194545
 0.2076707 0.2153377 0.2146547 0.2104031 0.2076831 0.2064978 0.2043114 0.2019282 0.2036992 0.2115088
 0.2214832 0.228322 0.2308206 0.2313809 0.231945 0.2325218 0.2325676 0.231882 0.2305302 0.2289819
 0.227971 0.2276768 0.2275564 0.2271642 0.2261415 0.2229808 0.2153541 0.2033771 0.1916761 0.1857199
 0.1860255 0.1885477 0.1907035 0.1928854 0.1928458 0.1840985 0.1644803 0.1431955 0.1341109 0.1423506
 0.1604837 0.1770107 0.1851743 0.183548 0.172618 0.1550003 0.138166 0.1320733 0.1410327 0.159572
 0.178288 0.1919389 0.1999817 0.2020604 0.1970587 0.1863277 0.1749379 0.1687649 0.1709366 0.1804831
 0.1926316 0.1999953 0.1962073 0.1822792 0.1693712 0.1705134 0.1869114 0.2059005 0.215184 0.2152691
 0.2143809 0.2156801 0.2157457 0.213617 0.2143645 0.2221721 0.2342041 0.2434062 0.2447031 0.2370026
 0.2225234 0.2072804 0.1995077 0.2030195 0.2128015 0.2204004 0.222061 0.2182267 0.2085728 0.194075
 0.1822407 0.1825963 0.1956623 0.2117225 0.2218608 0.2260794 0.2292425 0.2326878 0.2325887 0.2257378
 0.214902 0.2071137 0.2067315 0.2116458 0.2168758 0.2198164 0.2202838 0.2175591 0.2108301 0.2025715
 0.1985766 0.2029347 0.2137767 0.2249807 0.2316146 0.233026 0.2314407 0.2290682 0.226601 0.2233747
 0.218848 0.2145217 0.2136418 0.2177316 0.2241715 0.228896 0.2310494 0.2332631 0.2375179 0.242413
 0.2448711 0.243497 0.2399063 0.2373192 0.2379789 0.2413705 0.2446028 0.2448725 0.2421249 0.2393505
 0.2398327 0.2440215 0.2494663 0.2536086 0.2558703 0.2571229 0.2581818 0.2590883 0.2590773 0.2571537
 0.2535035 0.2503201 0.2502552 0.2537917 0.2587854 0.2626838 0.2645901 0.2651193 0.2649904 0.2642759
 0.262814 0.260892 0.2592709 0.2585819 0.2588696 0.2597416 0.260776 0.2617072 0.2624143 0.2629
 0.2632385 0.2634748 0.2636124 0.2636871 0.263749 0.2637656 0.2636585 0.2634761 0.2634199 0.2636268
 0.263994 0.264289 0.2643622 0.2641637 0.263623 0.2626642 0.2613456 0.2598507 0.2582895 0.256622
 0.2548913 0.2534921 0.2530594 0.2539854 0.2560455 0.2585301 0.2607334 0.2623129 0.2632773 0.263784
 0.2640029 0.2640765 0.2640937 0.2640685 0.2639673 0.2637658 0.2634753 0.2631233 0.2627338 0.2623342
 0.2619625 0.2616445 0.2613654 0.2610739 0.260718 0.2602772 0.2597704 0.2592386 0.2587104 0.2581682
 0.2575497 0.2567939 0.2558931 0.2549057 0.2539258 0.253029 0.252228 0.2514731 0.2507038 0.2498901
 0.2490133 0.2480322 0.2469238 0.2457602 0.2446924 0.2438256 0.2431353 0.2425143 0.2418638 0.2411223
 0.2402576 0.2392769 0.2382293 0.2371664 0.2360998 0.2350034 0.2338401 0.2325796 0.2312105 0.2297464
 0.2282134 0.226632 0.2250187 0.2233893 0.2217334 0.2199823 0.2180157 0.2156981 0.2129086 0.2095604
 0.2056302 0.2011851 0.1963847 0.1914455 0.18658 0.1819437 0.1776336 0.1737331 0.1703406 0.1675513
 0.1654283 0.1640018 0.1632833 0.1632725 0.1639567 0.1653046 0.1672498 0.1696815 0.1724581 0.1754248
 0.1784179 0.1812768 0.1838879 0.1862376 0.1884064 0.1904854 0.1924892 0.1943568 0.196023 0.1974668
 0.1986922 0.1997029 0.200517 0.2011828 0.2017558 0.2022641 0.2027089 0.2030896 0.2034157 0.2036954
 0.2039282 0.2041169 0.2042793 0.2044418 0.2046252 0.2048424 0.2051042 0.2054219 0.205804 0.2062501
 0.2067463 0.2072729 0.2078244 0.2084131 0.2090478 0.2097232 0.2104442 0.2112477 0.2121853 0.2132861
 0.2145386 0.2158986 0.2172998 0.2186597 0.2198881 0.2209066 0.2216698 0.2221726 0.2224424 0.2225241
 0.2224617 0.2222815 0.2219924 0.2216047 0.2211384 0.2206119 0.220037 0.2194272 0.2187944 0.2181337
 0.2174343 0.2167106 0.2160007 0.2153263 0.2146728 0.2140172 0.21336 0.2127198 0.2121055 0.2115068
 0.2109123 0.2103263 0.2097613 0.2092162 0.208672 0.2081018 0.2074736 0.2067511 0.2059129 0.2049694
 0.2039447 0.2028477 0.2016709 0.2004101 0.1990654 0.1976316 0.1961041 0.1944942 0.1928255 0.1911102
 0.1893279 0.187436 0.1854186 0.1833312 0.1812869 0.1793881 0.1776736 0.1761192 0.1746739 0.1732977
 0.1719759 0.1707044 0.1694731 0.168276 0.1671266 0.1660446 0.1650366 0.1640999 0.1632356 0.1624471
 0.1617348 0.161098 0.1605366 0.1600503 0.1596381 0.1592973 0.1590323 0.1588659 0.1588191 0.1588646
 0.1589221 0.15892 0.1588459 0.1587291 0.1585982 0.1584682 0.1583533 0.1582735 0.158237 0.1582084
 0.158103 0.1578207 0.1572777 0.1564146 0.1552097 0.1536971 0.151957 0.1500942 0.1482382 0.1465309
 0.1450784 0.1439201 0.1430426 0.1423937 0.141894 0.141478 0.1411377 0.1409206 0.1408906 0.1410619
 0.141335 0.1415379 0.1415925 0.1416114 0.1417874 0.1422203 0.1428698 0.1436156 0.1443352 0.144958
 0.1454669 0.1458521 0.1461 0.1462269 0.1462699 0.1462417 0.1461352 0.1459543 0.1457104 0.1454128
 0.1450703 0.1446716 0.1441808 0.1435864 0.1429166 0.1421844 0.1413718 0.1404688 0.1394601 0.1383131
 0.1370725 0.1359413 0.1351947 0.1350202 0.1354298 0.1362615 0.1372837 0.1383492 0.1393832 0.1402025
 0.1405558 0.1405122 0.1406663 0.1417127 0.1437791 0.1462803 0.1484392 0.1498498 0.1505214 0.1505755
 0.1500896 0.1491221 0.1476806 0.1457048 0.1432039 0.1403195 0.1372016 0.1339833 0.1308832 0.1281391
 0.1258511 0.1240042 0.1225615 0.1215552 0.121136 0.1209438 0.1190562 0.1130109 0.1036249 0.0966641
 0.09796365 0.1068465 0.1166168 0.1216259 0.1217482 0.1200159 0.1185114 0.117544 0.1170038 0.1170411
 0.1177951 0.1191147 0.1205822 0.1217723 0.1225257 0.1229043 0.1228797 0.1220908 0.1197963 0.1151297
 0.1077868 0.09863444 0.08942146 0.08175875 0.07639031 0.07320575 0.07158946 0.07078114 0.07024918 0.0699369
 0.07014864 0.07117576 0.07305409 0.07564937 0.07882051 0.08235063 0.08580615 0.08871129 0.09091258 0.09260778
 0.0939904 0.09502326 0.0955794 0.09564444 0.09532489 0.09475908 0.09406713 0.09331369 0.09245495 0.09137218
 0.09006162 0.08878298 0.08789399 0.08750646 0.08741902 0.08739642 0.08737087 0.08735715 0.08733211 0.08725514
 0.08712792 0.08702245 0.08707434 0.08738984 0.08792028 0.08847602 0.08887881 0.08907788 0.08913791 0.0891101
 0.08889286 0.08832061 0.08747598 0.08672589 0.08624529 0.08569196 0.08464622 0.0832619 0.0821857 0.08186178
 0.08214004 0.08254488 0.08271635 0.08257653 0.08228961 0.0821784 0.08251306 0.08319467 0.08373186 0.08370361
</values></Ydata></ScRf><Data_Parameters_AB><parameter name="DPF">1</parameter><parameter name="NPT">3497</parameter><parameter name="FXV">3996</parameter><parameter name="LXV">500</parameter><parameter name="CSF">1</parameter><parameter name="MXY">0.141320377588272</parameter><parameter name="MNY">-0.0879170596599579</parameter><parameter name="DAT">01/06/2022</parameter><parameter name="TIM">12:19:16.733 (GMT+2)</parameter><parameter name="DXU">WN</parameter></Data_Parameters_AB><AB__Qtest><MainReport name="Quality Test Report"><Header><Line><Legend>Test result ok/not ok [1/0]: </Legend><Value>0</Value></Line><Line><Legend>Method file: </Legend><Value>C:\Users\Public\Documents\Bruker\OPUS_8.2.28\QT\IRBT_v3_default.QT</Value></Line></Header><Matrix><Line><Legend></Legend><Legend>min</Legend><Legend>max</Legend><Legend>measured</Legend></Line><Line><Value>Absorption (X-Range 1):</Value><Value>0.400000</Value><Value>2.000000</Value><Value>0.214446</Value></Line><Line><Value>Noise (X-Range 4):</Value><Value></Value><Value>0.000300</Value><Value>0.000040</Value></Line><Line><Value>Signal/Noise (X-Range 2):</Value><Value>200.000000</Value><Value></Value><Value>178.916061</Value></Line><Line><Value>Signal/Noise (X-Range 3):</Value><Value>40.000000</Value><Value></Value><Value>47.662750</Value></Line><Line><Value>Water vapour (X-Range 5):</Value><Value></Value><Value>0.000300</Value><Value>0.000050</Value></Line><Line><Value>Signal/Water (X-Range 2):</Value><Value>100.000000</Value><Value></Value><Value>142.750214</Value></Line><Line><Value>Signal/Water (X-Range 3):</Value><Value>20.000000</Value><Value></Value><Value>38.028267</Value></Line><Line><Value>Fringes (X-Range 6):</Value><Value></Value><Value>0.000100</Value><Value>0.000040</Value></Line></Matrix></MainReport></AB__Qtest><Data_Parameters_ScSm><parameter name="DPF">1</parameter><parameter name="NPT">1814</parameter><parameter name="FXV">3996.33169228125</parameter><parameter name="LXV">499.541461535156</parameter><parameter name="CSF">1</parameter><parameter name="MXY">0.294972777366638</parameter><parameter name="MNY">0.0310939513146877</parameter><parameter name="DAT">01/06/2022</parameter><parameter name="TIM">12:19:16.733 (GMT+2)</parameter><parameter name="DXU">WN</parameter></Data_Parameters_ScSm><Data_Parameters_ScRf><parameter name="DPF">1</parameter><parameter name="NPT">1820</parameter><parameter name="FXV">4004.04661832813</parameter><parameter name="LXV">495.683998511719</parameter><parameter name="CSF">1</parameter><parameter name="MXY">0.265119254589081</parameter><parameter name="MNY">0.0281150117516518</parameter><parameter name="DAT">01/06/2022</parameter><parameter name="TIM">12:18:50.065 (GMT+2)</parameter><parameter name="DXU">WN</parameter></Data_Parameters_ScRf><Optic_Parameters_Rf><parameter name="APR">0</parameter><parameter name="APT">Open</parameter><parameter name="BMS">KBr</parameter><parameter name="DTC">RT-DLaTGS_IR-Biotyper [Microplate reader]</parameter><parameter name="HPF">0</parameter><parameter name="LPF">10.0</parameter><parameter name="LPV">4000</parameter><parameter name="PGR">0</parameter><parameter name="RCH">Module port</parameter><parameter name="RDX">0</parameter><parameter name="SRC">MIR</parameter><parameter name="VEL">10.0</parameter><parameter name="SON">Off</parameter></Optic_Parameters_Rf><Acquisition_Parameters_Rf><parameter name="ADT">1</parameter><parameter name="AQM">DD</parameter><parameter name="CFE">0</parameter><parameter name="COR">0</parameter><parameter name="DEL">0</parameter><parameter name="DLY">0</parameter><parameter name="HFW">8000</parameter><parameter name="LFW">0</parameter><parameter name="NSR">32</parameter><parameter name="PLF">AB</parameter><parameter name="RES">6</parameter><parameter name="RGN">-1</parameter><parameter name="STR">0</parameter><parameter name="TCL">MakeCompatibleScalar (0, {WSV=1.000000, ARV=0});</parameter><parameter name="TDL">37</parameter><parameter name="RPO">0</parameter></Acquisition_Parameters_Rf><FT_-_Parameters_Rf><parameter name="APF">B3</parameter><parameter name="HFQ">500</parameter><parameter name="LFQ">4000</parameter><parameter name="NLI">0</parameter><parameter name="PHR">24</parameter><parameter name="PHZ">ML</parameter><parameter name="SPZ">NO</parameter><parameter name="ZFF">1</parameter></FT_-_Parameters_Rf><Optic_Parameters_><parameter name="APR">0</parameter><parameter name="APT">Open</parameter><parameter name="BMS">KBr</parameter><parameter name="CHN">Module port</parameter><parameter name="DTC">RT-DLaTGS_IR-Biotyper [Microplate reader]</parameter><parameter name="HPF">0</parameter><parameter name="LPF">10.0</parameter><parameter name="LPV">4000</parameter><parameter name="PGN">0</parameter><parameter name="RDX">0</parameter><parameter name="SRC">MIR</parameter><parameter name="VEL">10.0</parameter><parameter name="SON">Off</parameter></Optic_Parameters_><FT_-_Parameters_><parameter name="APF">B3</parameter><parameter name="HFQ">500</parameter><parameter name="LFQ">4000</parameter><parameter name="NLI">0</parameter><parameter name="PHR">24</parameter><parameter name="PHZ">ML</parameter><parameter name="SPZ">NO</parameter><parameter name="ZFF">1</parameter></FT_-_Parameters_><Acquisition_Parameters_><parameter name="ADT">1</parameter><parameter name="AQM">DD</parameter><parameter name="CFE">0</parameter><parameter name="COR">0</parameter><parameter name="DEL">0</parameter><parameter name="DLY">0</parameter><parameter name="HFW">8000</parameter><parameter name="LFW">0</parameter><parameter name="NSS">32</parameter><parameter name="PLF">AB</parameter><parameter name="RES">6</parameter><parameter name="SOT">0</parameter><parameter name="TCL">MakeCompatibleScalar (0, {WSV=1.000000, ARV=0});</parameter><parameter name="TDL">37</parameter><parameter name="SPO">0</parameter><parameter name="SGN">-1</parameter></Acquisition_Parameters_><Instrument_Parameters_Rf><parameter name="HFL">15800.168544</parameter><parameter name="LFL">0</parameter><parameter name="LWN">15800.168544</parameter><parameter name="ABP">32197</parameter><parameter name="SSP">1</parameter><parameter name="ARG">2</parameter><parameter name="ASG">2</parameter><parameter name="ASS">32</parameter><parameter name="GFW">16</parameter><parameter name="GBW">16</parameter><parameter name="BFW">0</parameter><parameter name="BBW">0</parameter><parameter name="PKA">7318</parameter><parameter name="PKL">4990</parameter><parameter name="PRA">7483</parameter><parameter name="PRL">5001</parameter><parameter name="P2A">1</parameter><parameter name="P2L">1</parameter><parameter name="P2R">1</parameter><parameter name="P2K">1</parameter><parameter name="DAQ">0</parameter><parameter name="AG2">1</parameter><parameter name="SSM">1</parameter><parameter name="RSN">26011</parameter><parameter name="CRR">0</parameter><parameter name="SRT">1654085930.066</parameter><parameter name="DUR">19.6399993896484</parameter><parameter name="TSC">28.9</parameter><parameter name="MVD">0.233864009380341</parameter><parameter name="AN1">0.225817353236117</parameter><parameter name="AN2">0</parameter><parameter name="VSN">2.485 Apr  4 2017</parameter><parameter name="SRN">0085</parameter><parameter name="CAM">0</parameter><parameter name="INS">IR-Biotyper</parameter><parameter name="FOC">69</parameter><parameter name="RDY">1</parameter><parameter name="ARS">32</parameter></Instrument_Parameters_Rf><Sample_Parameters_><parameter name="BLD"></parameter><parameter name="CNM">Admin</parameter><parameter name="CPY"></parameter><parameter name="DPM"></parameter><parameter name="EXP">IRBT_v3_32Scans.XPM</parameter><parameter name="LCT"></parameter><parameter name="SFM">Microplate, HTS-XT</parameter><parameter name="SNM">220601-1028(v.3)_JMJ44M (D_6)_H11_b07ebd78-31fe-46ac-9269-aedd3653b5db.0</parameter><parameter name="XPP">C:\Users\Public\Documents\Bruker\OPUS_8.2.28\XPM</parameter><parameter name="IST">OK</parameter><parameter name="CPG">1252</parameter><parameter name="UID">4e217cea-39bd-4b7a-a380-234fe22a867c</parameter></Sample_Parameters_><Instrument_Parameters_><parameter name="HFL">15800.168544</parameter><parameter name="LFL">0</parameter><parameter name="LWN">15800.168544</parameter><parameter name="ABP">32197</parameter><parameter name="SSP">1</parameter><parameter name="ASG">2</parameter><parameter name="ARG">2</parameter><parameter name="ASS">32</parameter><parameter name="GFW">16</parameter><parameter name="GBW">16</parameter><parameter name="BFW">0</parameter><parameter name="BBW">0</parameter><parameter name="PKA">7629</parameter><parameter name="PKL">4988</parameter><parameter name="PRA">7868</parameter><parameter name="PRL">4993</parameter><parameter name="P2A">1</parameter><parameter name="P2L">1</parameter><parameter name="P2R">1</parameter><parameter name="P2K">1</parameter><parameter name="DAQ">0</parameter><parameter name="AG2">1</parameter><parameter name="SSM">1</parameter><parameter name="RSN">13631</parameter><parameter name="CRR">0</parameter><parameter name="SRT">1654085956.734</parameter><parameter name="DUR">19.6389923095703</parameter><parameter name="TSC">28.9</parameter><parameter name="MVD">0.346614956855774</parameter><parameter name="AN1">0.22582511164277</parameter><parameter name="AN2">0</parameter><parameter name="VSN">2.485 Apr  4 2017</parameter><parameter name="SRN">0085</parameter><parameter name="CAM">0</parameter><parameter name="INS">IR-Biotyper</parameter><parameter name="FOC">69</parameter><parameter name="RDY">1</parameter></Instrument_Parameters_><History/></OPUSDataFile>
