<?xml version="1.0" encoding="UTF-8" ?>
<OPUSDataFile><AB><Ydata ylabel="Absorbance Units"><values byteorder="INTEL" format="FLOAT32" numvalues="3497"> -0.07154237 -0.07157437 -0.0716091 -0.07164831 -0.07166507 -0.07165804 -0.07162388 -0.07156443 -0.07150193 -0.07143852
 -0.07139967 -0.07138228 -0.07139089 -0.07141726 -0.07144422 -0.07146664 -0.07146648 -0.07144837 -0.07140853 -0.07135868
 -0.07130665 -0.07126077 -0.07122901 -0.07120944 -0.07120422 -0.07120511 -0.07121018 -0.07121541 -0.07121923 -0.07122512
 -0.07123318 -0.07124774 -0.07126904 -0.0712956 -0.07132709 -0.0713587 -0.07139067 -0.07142226 -0.07145384 -0.07148707
 -0.07152066 -0.0715525 -0.0715811 -0.07160219 -0.0716177 -0.07162757 -0.07163543 -0.07164483 -0.07165558 -0.07166933
 -0.07168231 -0.07169399 -0.07169967 -0.07169867 -0.07168478 -0.07165679 -0.07161097 -0.07154594 -0.07147286 -0.07139228
 -0.07133011 -0.0712872 -0.07128263 -0.07131281 -0.0713669 -0.07143883 -0.07149953 -0.07154939 -0.07157325 -0.0715781
 -0.07156882 -0.07155109 -0.07153438 -0.07151859 -0.07150743 -0.07149708 -0.07148674 -0.07147217 -0.07145099 -0.07142336
 -0.07138707 -0.07135307 -0.07132141 -0.07131118 -0.07132421 -0.07137433 -0.07146249 -0.07158469 -0.07173919 -0.07190226
 -0.07206999 -0.07220646 -0.07230958 -0.07234945 -0.07233361 -0.07226179 -0.07215023 -0.07202568 -0.07189968 -0.07179785
 -0.07171934 -0.07167459 -0.07165032 -0.07164364 -0.07163788 -0.07162407 -0.07160135 -0.07156532 -0.07153253 -0.07150531
 -0.07149438 -0.07150221 -0.07151844 -0.07154261 -0.07155804 -0.07156495 -0.07156361 -0.07155649 -0.07155982 -0.07157442
 -0.07161327 -0.07167256 -0.07175083 -0.07184093 -0.07193012 -0.07201382 -0.0720813 -0.07213207 -0.07216364 -0.07217206
 -0.07215384 -0.07210885 -0.07203078 -0.071945 -0.07185252 -0.07179619 -0.07178397 -0.07184012 -0.0719713 -0.07214855
 -0.07237125 -0.07252844 -0.07261616 -0.07254601 -0.07233599 -0.07206035 -0.07173429 -0.07145693 -0.07122307 -0.07106799
 -0.07098456 -0.07097997 -0.07103858 -0.07115187 -0.07128602 -0.07141207 -0.07150321 -0.07152747 -0.07150706 -0.07143761
 -0.07136617 -0.07130773 -0.07127346 -0.07127063 -0.07127693 -0.07129076 -0.07129563 -0.07129034 -0.07127754 -0.0712577
 -0.07123908 -0.07122163 -0.07120927 -0.071201 -0.07119662 -0.07119209 -0.07117838 -0.07114983 -0.07108946 -0.07100298
 -0.07088553 -0.0707586 -0.07063685 -0.07054022 -0.07048599 -0.07047709 -0.0705219 -0.07060404 -0.07072388 -0.07085178
 -0.07098392 -0.07109164 -0.07117137 -0.07120673 -0.07119639 -0.07114155 -0.07104342 -0.070922 -0.07077927 -0.07063841
 -0.07049949 -0.0703745 -0.07026362 -0.07017262 -0.07010332 -0.07006286 -0.07004845 -0.0700633 -0.070093 -0.07012848
 -0.07015309 -0.07015151 -0.07012688 -0.07007261 -0.07001331 -0.06995381 -0.06991461 -0.06990214 -0.06991239 -0.06994678
 -0.06998567 -0.07002801 -0.07005468 -0.07006511 -0.07004787 -0.07000468 -0.06994002 -0.06985867 -0.06978208 -0.0697128
 -0.06966988 -0.06964916 -0.06965328 -0.06967421 -0.06970261 -0.06973447 -0.06975983 -0.06978889 -0.06982172 -0.06987853
 -0.06996959 -0.07009861 -0.07027505 -0.07046309 -0.07066121 -0.07081737 -0.07092442 -0.07096578 -0.07093981 -0.07084823
 -0.07069112 -0.07046633 -0.07017904 -0.06986163 -0.06952404 -0.06922401 -0.068965 -0.06878716 -0.06868414 -0.06866892
 -0.06871773 -0.06881034 -0.06891645 -0.06899806 -0.06905521 -0.06907365 -0.0690736 -0.06906212 -0.06904525 -0.06902887
 -0.06899899 -0.06895398 -0.06888269 -0.0687822 -0.06866398 -0.06852835 -0.06839603 -0.06826781 -0.06815778 -0.06806599
 -0.06800137 -0.06796069 -0.06793939 -0.06792673 -0.0678905 -0.06782699 -0.0677076 -0.06755266 -0.06737613 -0.06719531
 -0.06703564 -0.06688765 -0.06675703 -0.06661764 -0.06645872 -0.06626802 -0.06603503 -0.06578172 -0.06550834 -0.06524845
 -0.06500715 -0.06479193 -0.06460432 -0.06441333 -0.06421737 -0.06398242 -0.06371354 -0.06343136 -0.06314273 -0.06289102
 -0.06266901 -0.06247947 -0.06231332 -0.06215381 -0.06199948 -0.06184382 -0.06168132 -0.06150901 -0.06131021 -0.0610747
 -0.06078966 -0.0604468 -0.06004253 -0.0595751 -0.0590386 -0.05842867 -0.05776275 -0.05703933 -0.0563079 -0.05557166
 -0.05486512 -0.05418884 -0.0535477 -0.05294146 -0.05237193 -0.05183867 -0.05134371 -0.05088098 -0.05043627 -0.05000221
 -0.04955818 -0.04910174 -0.04862586 -0.04811725 -0.04756692 -0.04694897 -0.04623542 -0.04544668 -0.04457345 -0.04368411
 -0.04280023 -0.04194655 -0.04113484 -0.04034749 -0.03958384 -0.03882794 -0.03807846 -0.03733243 -0.03659025 -0.03586278
 -0.03515016 -0.03446358 -0.03379365 -0.03311237 -0.03239882 -0.03157163 -0.03064181 -0.02957316 -0.02843374 -0.02730367
 -0.02621416 -0.025235 -0.02432968 -0.02349824 -0.02269628 -0.02190357 -0.02109786 -0.02026679 -0.01941118 -0.0185282
 -0.01762948 -0.01671672 -0.01579164 -0.01485495 -0.01388797 -0.01289023 -0.01185195 -0.01077787 -0.009700548 -0.008625099
 -0.00759395 -0.006601488 -0.005655672 -0.004745095 -0.003852783 -0.002968598 -0.002072649 -0.001158674 -0.0002095642 0.000761549
 0.001756916 0.002744508 0.003706805 0.004640863 0.005533117 0.00643521 0.007354513 0.008333433 0.009383707 0.01046618
 0.01157988 0.01265716 0.01369675 0.01468928 0.01563903 0.01657676 0.01750309 0.01843826 0.01937638 0.02031186
 0.02123822 0.02213676 0.02301414 0.0238647 0.02471596 0.02558885 0.02651085 0.02751457 0.02858078 0.02971867
 0.03086746 0.03200914 0.03311253 0.03416498 0.03517726 0.03614862 0.03709542 0.03801859 0.03893413 0.03984293
 0.04076189 0.04169103 0.042638 0.04360216 0.04458418 0.04558509 0.04660995 0.04765569 0.04872276 0.04979744
 0.05086233 0.0519051 0.05290431 0.05386649 0.05478584 0.05568373 0.05656805 0.0574541 0.05835069 0.05925197
 0.06015973 0.06105662 0.0619394 0.06280949 0.06366599 0.0645347 0.06541652 0.06632633 0.06726138 0.0682046
 0.06915415 0.07009093 0.0710194 0.07194335 0.07286522 0.07379392 0.07472353 0.07565086 0.07656737 0.07746324
 0.07833528 0.07917599 0.07999412 0.08078836 0.08158027 0.08237632 0.08318992 0.08402791 0.08487603 0.08573418
 0.08658112 0.08741478 0.0882348 0.08904138 0.08984316 0.09063976 0.09143098 0.09221675 0.09299652 0.09377106
 0.09454387 0.09531188 0.0960707 0.09681767 0.09754519 0.09825843 0.09895965 0.09965317 0.1003443 0.1010288
 0.101705 0.1023731 0.1030311 0.1036889 0.1043491 0.1050133 0.1056833 0.1063478 0.1070061 0.1076504
 0.1082805 0.108898 0.1095037 0.1101043 0.110701 0.1113031 0.1119098 0.1125255 0.1131457 0.1137637
 0.1143771 0.114979 0.1155716 0.1161562 0.1167297 0.1172926 0.1178357 0.1183531 0.1188467 0.1193135
 0.119768 0.1202127 0.1206585 0.1211071 0.1215648 0.1220321 0.1225159 0.1230164 0.1235298 0.1240545
 0.1245738 0.1250884 0.1255915 0.1260869 0.1265847 0.1270848 0.1275932 0.1281047 0.1286148 0.129119
 0.1296129 0.1300898 0.1305457 0.1309707 0.1313574 0.1317081 0.1320178 0.1323105 0.1325888 0.132879
 0.133186 0.1335139 0.133864 0.1342187 0.1345771 0.134922 0.1352546 0.135578 0.135895 0.1362224
 0.1365579 0.1369049 0.1372548 0.1375905 0.1379087 0.1381937 0.1384566 0.1387004 0.1389408 0.1391917
 0.139454 0.1397365 0.1400166 0.1402913 0.1405318 0.1407285 0.1408824 0.1409885 0.1410887 0.1411859
 0.141315 0.1414764 0.141646 0.1418197 0.1419452 0.1420266 0.1420542 0.1420425 0.1420317 0.1420297
 0.1420758 0.1421619 0.1422957 0.1424599 0.1426412 0.1428238 0.1429904 0.1431405 0.1432644 0.1433863
 0.1435106 0.1436636 0.1438567 0.144076 0.1443256 0.1445473 0.1447371 0.1448455 0.1448709 0.1448215
 0.1447021 0.1445646 0.1444104 0.1442752 0.1441529 0.1440393 0.1439372 0.1438446 0.1437814 0.1437791
 0.1438418 0.1439984 0.1442044 0.1444439 0.1446601 0.1448136 0.1449052 0.1449168 0.1449076 0.1448867
 0.1449026 0.144967 0.1450724 0.1452209 0.1453651 0.1455025 0.1455856 0.1456151 0.1455762 0.1454773
 0.1453502 0.145208 0.1451094 0.1450594 0.1451019 0.1452218 0.1454223 0.1456683 0.145928 0.1461668
 0.1463458 0.1464643 0.1465032 0.1465047 0.1464748 0.1464639 0.1464849 0.146563 0.1467037 0.1469183
 0.1472078 0.1475865 0.1480546 0.1486038 0.1492277 0.1498608 0.1504898 0.1510105 0.1514185 0.151636
 0.1516875 0.151576 0.1513562 0.1511061 0.150877 0.1507598 0.1507516 0.1508947 0.1511163 0.1514026
 0.1516547 0.1518368 0.151888 0.1517812 0.1515315 0.1511303 0.150663 0.1501345 0.1496422 0.1491903
 0.1488175 0.1485196 0.1482673 0.1480565 0.147847 0.1476441 0.1474432 0.1472514 0.1470873 0.1469413
 0.1468161 0.1466755 0.1464885 0.1462116 0.1457983 0.1452432 0.1445182 0.1436833 0.1427433 0.1417902
 0.1408451 0.1399694 0.1391777 0.1384799 0.1378801 0.1373504 0.1368891 0.1364402 0.1360007 0.1355144
 0.1349877 0.1344214 0.1338325 0.1332824 0.1327702 0.1323357 0.1319411 0.1315486 0.1311207 0.1305913
 0.1299781 0.1292589 0.1285056 0.127744 0.1270434 0.1264381 0.1259419 0.1255735 0.125276 0.1250502
 0.1247959 0.1245046 0.1241007 0.1235806 0.1229562 0.1222345 0.1214999 0.1207578 0.1200841 0.1194712
 0.1189354 0.1184634 0.1180336 0.1176375 0.1172535 0.1168747 0.1164873 0.1160833 0.1156508 0.1151911
 0.1146975 0.114189 0.1136687 0.1131595 0.1126691 0.1122002 0.1117568 0.1113165 0.1108783 0.1104165
 0.1099299 0.1094128 0.1088663 0.1083046 0.1077296 0.1071597 0.1065957 0.1060496 0.1055202 0.1050116
 0.1045193 0.1040399 0.1035647 0.1030837 0.1025891 0.1020703 0.1015297 0.1009628 0.1003847 0.09979892
 0.0992209 0.09865635 0.09810608 0.09757239 0.09704172 0.09651309 0.09597508 0.0954271 0.09487057 0.0943059
 0.09373896 0.09316929 0.0925971 0.09202191 0.09144115 0.09085692 0.09027237 0.08969048 0.08911805 0.08855462
 0.08800251 0.08745979 0.08692273 0.08640023 0.08589131 0.08542091 0.08499807 0.08463828 0.08435421 0.08411063
 0.08391063 0.08366946 0.08337999 0.08297423 0.08244851 0.08181578 0.08108282 0.08033559 0.07958211 0.07891519
 0.07833016 0.07786713 0.07750172 0.07720448 0.07693896 0.07663286 0.07626779 0.07578446 0.07521445 0.07455193
 0.07386431 0.07318708 0.07255819 0.07200775 0.07151113 0.07106908 0.07064894 0.07024015 0.06986783 0.06953093
 0.06929122 0.06915192 0.06912524 0.06920437 0.06930858 0.06942462 0.06943104 0.0693284 0.06904563 0.06861064
 0.06804656 0.06739444 0.06673338 0.06608079 0.06549444 0.06495208 0.06445564 0.06398059 0.06350595 0.0630494
 0.06260906 0.06221902 0.06189413 0.06161702 0.06139256 0.06115711 0.06090361 0.06060761 0.06026746 0.05993271
 0.0596064 0.05934382 0.05913952 0.05899034 0.05888646 0.05878959 0.05869871 0.05859169 0.05847355 0.0583449
 0.05820421 0.05805372 0.05788001 0.05767738 0.05742253 0.05710205 0.05669908 0.05619728 0.05562079 0.05496236
 0.05430112 0.05364531 0.05307846 0.05261267 0.05225716 0.0520132 0.05179892 0.05160858 0.05134208 0.05100335
 0.05055999 0.05003093 0.04946535 0.04888087 0.04834807 0.04786341 0.04745762 0.04710712 0.04679833 0.04650701
 0.04620802 0.04589248 0.04554579 0.04517834 0.044787 0.04439871 0.04401854 0.04367186 0.04336706 0.04309195
 0.0428493 0.04258161 0.04228576 0.0419153 0.04147281 0.04098389 0.04045746 0.0399657 0.03950512 0.03910751
 0.03875045 0.03839416 0.03802479 0.03759256 0.03711785 0.03659936 0.03607444 0.03557485 0.03511753 0.03472375
 0.0343856 0.03410403 0.03387335 0.03369095 0.03356122 0.03348625 0.03345709 0.03347553 0.03350074 0.03353064
 0.03350423 0.0334193 0.0332302 0.03294218 0.03256012 0.03209973 0.03161903 0.03113464 0.03071806 0.03037151
 0.03013482 0.02999225 0.02994292 0.02996571 0.03004287 0.03016191 0.03030996 0.03048634 0.03068813 0.03091655
 0.03117292 0.0314497 0.03174594 0.03205401 0.03237119 0.03271677 0.03309142 0.033548 0.03408871 0.03475861
 0.03555189 0.03645807 0.03746244 0.0385052 0.03957523 0.04061331 0.04162105 0.04257311 0.04347913 0.04433987
 0.04516646 0.04596617 0.04675331 0.04753492 0.04833072 0.04914922 0.05000519 0.05090699 0.05184638 0.05282696
 0.05381234 0.05480089 0.05574344 0.05663706 0.05743915 0.05814801 0.05873283 0.05919252 0.05950307 0.05966656
 0.05967173 0.05953481 0.05928017 0.05894715 0.05860724 0.05830718 0.05813472 0.05810432 0.05826756 0.05858732
 0.05906191 0.05963837 0.06029198 0.06100552 0.06176575 0.06259085 0.06348232 0.06445363 0.06550766 0.06663559
 0.0678372 0.06909534 0.07040924 0.0717645 0.07316151 0.07459346 0.07606505 0.07758852 0.07917263 0.0808497
 0.08261513 0.08449366 0.08642808 0.08839539 0.09023838 0.09186347 0.09301218 0.09353057 0.09318586 0.09181995
 0.08944753 0.08598363 0.08179716 0.07689978 0.07185633 0.06672231 0.06195556 0.05758981 0.05378919 0.05054857
 0.04778275 0.04547315 0.04345627 0.0417234 0.04015625 0.0387531 0.03745339 0.03625143 0.03511142 0.03402657
 0.0329728 0.03195277 0.03095842 0.03000196 0.02908686 0.02822764 0.02742978 0.0267069 0.02606333 0.02550884
 0.02504665 0.02467579 0.02439699 0.02420219 0.02409088 0.02406206 0.02411536 0.02424835 0.02445515 0.02469856
 0.02496403 0.02517342 0.02531767 0.0253264 0.02521638 0.02497603 0.02464861 0.02427733 0.02391129 0.02360517
 0.02339344 0.0233114 0.02337353 0.02359227 0.02397631 0.02452451 0.02527089 0.02621585 0.02742645 0.02891478
 0.0306845 0.03274179 0.03483956 0.0369478 0.03851307 0.03949804 0.03933802 0.03808879 0.03562108 0.03212269
 0.02799345 0.02343824 0.01902183 0.01481729 0.01116828 0.007992626 0.005347694 0.003097572 0.00117501 -0.0005079668
 -0.002006135 -0.003348563 -0.004552395 -0.005631152 -0.006587688 -0.00744232 -0.008196642 -0.008874889 -0.009478522 -0.01003368
 -0.01054183 -0.01102915 -0.01149624 -0.01196104 -0.01242138 -0.01287942 -0.01332966 -0.013759 -0.01416287 -0.01452434
 -0.0148486 -0.01513108 -0.01539043 -0.01564003 -0.0158979 -0.01618201 -0.01648957 -0.01682829 -0.01717253 -0.01751832
 -0.01783771 -0.01812364 -0.01836771 -0.01856626 -0.01873807 -0.01888379 -0.01903425 -0.01919025 -0.01936558 -0.01955765
 -0.01975279 -0.01994997 -0.02013444 -0.02031395 -0.02050111 -0.0207047 -0.02095089 -0.02123302 -0.02155805 -0.02190337
 -0.02225249 -0.02258517 -0.02288309 -0.02314042 -0.02334861 -0.02351495 -0.02363689 -0.02373636 -0.02381411 -0.02390649
 -0.02401769 -0.02417425 -0.02437896 -0.02462079 -0.0248979 -0.02517061 -0.02543768 -0.02567004 -0.02587169 -0.02604366
 -0.02619093 -0.02632818 -0.0264565 -0.02658487 -0.02671222 -0.02684068 -0.02696907 -0.02709797 -0.02722347 -0.02734419
 -0.0274541 -0.02754864 -0.0276313 -0.0276991 -0.02777164 -0.02785112 -0.02795923 -0.02810003 -0.02827398 -0.02848203
 -0.0287 -0.0289265 -0.02913409 -0.02932335 -0.02948535 -0.02962376 -0.02974922 -0.02986497 -0.02998667 -0.03011235
 -0.03024773 -0.03038412 -0.03051293 -0.03062606 -0.03070967 -0.03077089 -0.030805 -0.03083808 -0.03087864 -0.03095139
 -0.0310679 -0.03122816 -0.0314367 -0.03167156 -0.03193118 -0.03219335 -0.03245629 -0.03270877 -0.03295044 -0.03317734
 -0.03338972 -0.03358717 -0.03377059 -0.03394375 -0.03410746 -0.03426634 -0.0344198 -0.03456895 -0.03471285 -0.03485001
 -0.03498185 -0.03510818 -0.03523352 -0.03536019 -0.03549314 -0.03563545 -0.03578823 -0.03595345 -0.03612577 -0.03630537
 -0.03648196 -0.03665452 -0.03681372 -0.03695867 -0.03708684 -0.03719833 -0.03729796 -0.03738615 -0.03746888 -0.03754565
 -0.03761723 -0.03768331 -0.03774196 -0.03779675 -0.03785197 -0.03791528 -0.03799903 -0.0381073 -0.03825114 -0.03842235
 -0.03862179 -0.03883172 -0.03904504 -0.03924799 -0.03943359 -0.03960197 -0.03975069 -0.03989096 -0.04002367 -0.04015919
 -0.04029856 -0.04044199 -0.04058928 -0.04073323 -0.04087363 -0.04100537 -0.04112953 -0.04124816 -0.04136277 -0.04147889
 -0.04159699 -0.0417208 -0.04184951 -0.04198397 -0.04212212 -0.04226287 -0.04240302 -0.04254043 -0.04267218 -0.04279632
 -0.04291204 -0.04301849 -0.04311663 -0.04320621 -0.04329008 -0.04336816 -0.04344659 -0.04352568 -0.04361357 -0.04371056
 -0.04382131 -0.04394515 -0.04407906 -0.04422161 -0.04436462 -0.04450756 -0.044644 -0.04477568 -0.04490276 -0.04502767
 -0.04515459 -0.04528273 -0.04541378 -0.04554344 -0.04566912 -0.04578856 -0.04589878 -0.04600434 -0.04610521 -0.04620916
 -0.04631804 -0.04643511 -0.04656156 -0.04669351 -0.04683093 -0.0469661 -0.04709863 -0.04722168 -0.04733544 -0.04743823
 -0.04753142 -0.04762014 -0.04770612 -0.04779748 -0.04789425 -0.04800114 -0.04811562 -0.04823662 -0.04836047 -0.04848328
 -0.04860258 -0.04871518 -0.04882138 -0.04891981 -0.04901428 -0.04910521 -0.04919795 -0.0492937 -0.04939571 -0.04950494
 -0.04961919 -0.04973854 -0.04985679 -0.04997362 -0.05008316 -0.05018553 -0.050279 -0.05036478 -0.05044723 -0.0505283
 -0.05061637 -0.05071164 -0.05081965 -0.05093673 -0.05106075 -0.05118651 -0.0513074 -0.05142265 -0.05152862 -0.05162995
 -0.05172822 -0.05182571 -0.05192462 -0.05202005 -0.05211143 -0.05219418 -0.0522667 -0.05233523 -0.05239979 -0.05247358
 -0.05255704 -0.05265481 -0.0527655 -0.05287833 -0.05299171 -0.05309126 -0.05317901 -0.05325251 -0.05331701 -0.05338233
 -0.05345147 -0.05353432 -0.05362758 -0.05373274 -0.05384253 -0.0539526 -0.05405742 -0.05415275 -0.05423811 -0.05431173
 -0.05437801 -0.05443723 -0.0544951 -0.05455241 -0.05461317 -0.05467785 -0.05474721 -0.05482126 -0.05489945 -0.05498174
 -0.05506787 -0.05515788 -0.05525189 -0.05534973 -0.05545103 -0.05555525 -0.05566122 -0.0557682 -0.05587453 -0.05597986
 -0.05608299 -0.05618454 -0.05628449 -0.05638364 -0.05648265 -0.05658081 -0.0566783 -0.05677323 -0.05686504 -0.0569536
 -0.05703858 -0.05712242 -0.05720529 -0.05728882 -0.05737306 -0.05745745 -0.05754213 -0.05762824 -0.05771638 -0.05781073
 -0.05791064 -0.05801715 -0.05812735 -0.05823562 -0.0583398 -0.05843335 -0.05851828 -0.05859367 -0.05866351 -0.05873044
 -0.05879669 -0.05886389 -0.05893334 -0.05900573 -0.05908201 -0.05916303 -0.05924607 -0.05933123 -0.05941262 -0.05948959
 -0.05956177 -0.05962927 -0.05969963 -0.05977304 -0.05985489 -0.05994369 -0.06003456 -0.06012606 -0.06021027 -0.06028862
 -0.06035974 -0.06042708 -0.06049537 -0.06056651 -0.06064481 -0.06072908 -0.0608205 -0.06091527 -0.06101261 -0.06110684
 -0.06119622 -0.06127573 -0.06134326 -0.06140026 -0.06144579 -0.06148963 -0.06153236 -0.06158506 -0.06164816 -0.06172246
 -0.06180695 -0.06189126 -0.06197468 -0.06204742 -0.06211109 -0.06216549 -0.06221306 -0.06225954 -0.06230484 -0.06235199
 -0.06239821 -0.0624416 -0.06248035 -0.06251154 -0.06253791 -0.06255891 -0.06258149 -0.06260747 -0.06264344 -0.06269181
 -0.06275277 -0.06282758 -0.06290741 -0.062992 -0.06306733 -0.06313273 -0.06317829 -0.06320475 -0.0632153 -0.06321257
 -0.06321196 -0.0632152 -0.06323704 -0.0632748 -0.06333081 -0.06339946 -0.06347324 -0.06354853 -0.0636184 -0.06368255
 -0.06373864 -0.06378733 -0.06382804 -0.06386281 -0.0638914 -0.06391913 -0.06394682 -0.06398 -0.06401978 -0.06406786
 -0.06412465 -0.06418806 -0.06425796 -0.06432998 -0.06440382 -0.0644744 -0.06454206 -0.06460507 -0.06466565 -0.06472923
 -0.0647995 -0.06488661 -0.06499433 -0.06513199 -0.06530377 -0.06551672 -0.06577554 -0.06608596 -0.06644979 -0.06687062
 -0.06734378 -0.06786951 -0.0684389 -0.06905062 -0.06969523 -0.07037275 -0.07106467 -0.07177065 -0.07245591 -0.07311856
 -0.07372253 -0.0742669 -0.07473262 -0.07511639 -0.07539573 -0.0755571 -0.07554315 -0.07534481 -0.07489534 -0.07424103
 -0.07340326 -0.07248249 -0.07159643 -0.07080548 -0.07019936 -0.06977261 -0.06954814 -0.06949728 -0.0696196 -0.06987178
 -0.07025436 -0.07067615 -0.07113091 -0.07149188 -0.07174463 -0.0718459 -0.07179371 -0.07165921 -0.07144767 -0.07124212
 -0.07104173 -0.07088649 -0.07076854 -0.07068443 -0.07062383 -0.07056072 -0.07049222 -0.07040072 -0.07029191 -0.07016621
 -0.07002646 -0.06987622 -0.06971262 -0.0695334 -0.0693428 -0.06913884 -0.06893895 -0.06874596 -0.06857754 -0.06843777
 -0.06832895 -0.06825254 -0.06819414 -0.068153 -0.06810996 -0.06806491 -0.06801026 -0.06794786 -0.06788427 -0.06782079
 -0.06776597 -0.06771839 -0.06767926 -0.06764634 -0.06761609 -0.06758852 -0.06756146 -0.067538 -0.0675194 -0.06750927
 -0.06751066 -0.06752227 -0.06754547 -0.06757312 -0.06760379 -0.06763214 -0.06765632 -0.06768036 -0.06770421 -0.06773543
 -0.06777442 -0.0678198 -0.06787091 -0.06791823 -0.06796214 -0.06799908 -0.06803174 -0.06806766 -0.06810872 -0.0681641
 -0.06823139 -0.06831171 -0.06839993 -0.06849126 -0.06858044 -0.06866228 -0.06873274 -0.06878791 -0.0688277 -0.06884988
 -0.06886148 -0.06886268 -0.06886539 -0.06887159 -0.06888857 -0.06891768 -0.06895562 -0.06900226 -0.06904943 -0.06909706
 -0.06914195 -0.06918474 -0.06922803 -0.06927142 -0.06931516 -0.0693577 -0.06939498 -0.06942742 -0.06945303 -0.06947515
 -0.06949693 -0.06952038 -0.06954888 -0.06958059 -0.06961557 -0.0696516 -0.06968766 -0.06972326 -0.06975826 -0.06979167
 -0.06982343 -0.06985179 -0.06987638 -0.06989862 -0.06991857 -0.06994174 -0.06996829 -0.07000202 -0.07004231 -0.07008757
 -0.07013688 -0.07018609 -0.07023514 -0.07028166 -0.07032643 -0.07036944 -0.07041191 -0.07045505 -0.07050026 -0.07054904
 -0.07060226 -0.07066145 -0.07072437 -0.07079149 -0.07085651 -0.07091808 -0.07097103 -0.07101373 -0.07104813 -0.0710739
 -0.07109801 -0.07112084 -0.07114673 -0.07117567 -0.07120829 -0.07124477 -0.07128672 -0.0713342 -0.07138908 -0.07144964
 -0.07151297 -0.07157695 -0.07163577 -0.07169107 -0.07174185 -0.07179197 -0.07184524 -0.07190061 -0.07195995 -0.07201636
 -0.07206714 -0.07210983 -0.07214168 -0.07217127 -0.0721991 -0.07223627 -0.07228443 -0.07234403 -0.07241521 -0.07248688
 -0.0725585 -0.07261972 -0.07267141 -0.07271331 -0.07274726 -0.07278013 -0.07281237 -0.07284887 -0.0728882 -0.07292999
 -0.07297327 -0.07301636 -0.07305995 -0.07310408 -0.07314933 -0.07319619 -0.07324438 -0.07329381 -0.07334466 -0.07339704
 -0.07345074 -0.07350612 -0.07355974 -0.07361135 -0.07365695 -0.07369626 -0.0737315 -0.07376313 -0.07379864 -0.07383816
 -0.07388654 -0.07394292 -0.07400662 -0.07407683 -0.07415146 -0.0742294 -0.07430845 -0.07438632 -0.07445948 -0.07452655
 -0.07458419 -0.07463563 -0.07468104 -0.07472584 -0.07477255 -0.07482283 -0.07487813 -0.07493563 -0.0749951 -0.07505386
 -0.07511156 -0.07516709 -0.07522038 -0.07526998 -0.07531586 -0.07535657 -0.07539254 -0.07542556 -0.07545651 -0.07548992
 -0.07552584 -0.07556721 -0.07561255 -0.07566056 -0.07571038 -0.07575975 -0.07581059 -0.07586347 -0.07592078 -0.07598504
 -0.07605393 -0.07612816 -0.07620103 -0.07627078 -0.07633346 -0.07638757 -0.07643546 -0.07647707 -0.07651675 -0.07655481
 -0.07659299 -0.0766314 -0.07667133 -0.07671311 -0.0767597 -0.07681086 -0.07686793 -0.0769292 -0.07699116 -0.0770523
 -0.07710766 -0.07715884 -0.07720506 -0.07725023 -0.07729775 -0.07734889 -0.07740644 -0.07746635 -0.0775281 -0.07758653
 -0.07763962 -0.07768705 -0.07772771 -0.07776765 -0.07780715 -0.07785359 -0.07790749 -0.07797135 -0.07804488 -0.07812331
 -0.07820584 -0.07828453 -0.07835946 -0.07842652 -0.07848674 -0.07854073 -0.07858909 -0.07863304 -0.07867289 -0.07870881
 -0.0787429 -0.07877643 -0.07881273 -0.07885464 -0.07890186 -0.07895593 -0.07901156 -0.07906769 -0.07912019 -0.07916762
 -0.07921177 -0.07925253 -0.07929373 -0.07933562 -0.07937881 -0.0794233 -0.07946885 -0.07951591 -0.07956786 -0.07962488
 -0.07969064 -0.07976282 -0.0798379 -0.07991229 -0.07997699 -0.08003255 -0.08007417 -0.08010903 -0.08014105 -0.08017754
 -0.08022532 -0.08028287 -0.0803528 -0.0804254 -0.08049876 -0.08056462 -0.0806205 -0.08066678 -0.08070285 -0.08073492
 -0.08076337 -0.08079281 -0.08082329 -0.0808557 -0.08088998 -0.08092612 -0.08096423 -0.08100494 -0.08104779 -0.08109219
 -0.08113702 -0.08117995 -0.08122033 -0.08125582 -0.08128791 -0.0813165 -0.08134505 -0.08137561 -0.0814104 -0.08145157
 -0.08149682 -0.08154673 -0.08159497 -0.08164041 -0.0816789 -0.0817094 -0.08173443 -0.08175402 -0.08177459 -0.08179631
 -0.08182254 -0.08185267 -0.08188411 -0.08191573 -0.08194156 -0.0819614 -0.08197097 -0.08197244 -0.08196691 -0.08195845
 -0.08195228 -0.08195218 -0.08196361 -0.08198728 -0.08202626 -0.08207601 -0.08213698 -0.08219868 -0.08225894 -0.0823071
 -0.08234019 -0.08235666 -0.08235528 -0.08234499 -0.08232625 -0.0823082 -0.08229096 -0.0822759 -0.0822625 -0.08224721
 -0.08223046 -0.08221144 -0.08219242 -0.08217883 -0.08217286 -0.08218201 -0.0822045 -0.08224279 -0.08228946 -0.08233979
 -0.08238526 -0.08241858 -0.08243809 -0.08243991 -0.08243088 -0.08241135 -0.08239113 -0.08237205 -0.08236076 -0.08235858
 -0.08236536 -0.08238132 -0.08239917 -0.08241857 -0.08243281 -0.08244266 -0.0824504 -0.0824572 -0.08246994 -0.0824872
 -0.08250919 -0.08253279 -0.08255205 -0.08256548 -0.08256829 -0.08256131 -0.08254319 -0.08251653 -0.08248148 -0.0824438
 -0.08240531 -0.08237255 -0.0823483 -0.08233349 -0.0823297 -0.08232981 -0.08233351 -0.08233167 -0.08232355 -0.0823063
 -0.08228011 -0.08225064 -0.08221839 -0.08219034 -0.08216555 -0.08214413 -0.08212423 -0.0821002 -0.08207268 -0.08203925
 -0.0820037 -0.08197023 -0.08194079 -0.08191974 -0.08190402 -0.08189361 -0.0818836 -0.08187176 -0.08185564 -0.08183382
 -0.08180679 -0.08177417 -0.08173835 -0.08169945 -0.08166058 -0.08162194 -0.08158669 -0.08155502 -0.08153044 -0.08151318
 -0.08150733 -0.08151239 -0.08152956 -0.08155594 -0.08158553 -0.08161286 -0.08162456 -0.08161771 -0.08158055 -0.08151972
 -0.08143512 -0.08133962 -0.08124142 -0.08114831 -0.08106683 -0.08099505 -0.08093435 -0.08087861 -0.0808266 -0.08077609
 -0.08072641 -0.08067937 -0.080635 -0.08059593 -0.08056235 -0.08053821 -0.08052336 -0.08051983 -0.08052503 -0.08052928
 -0.08052869 -0.08050539 -0.08046187 -0.08039272 -0.0803064 -0.08021257 -0.0801159 -0.08002423 -0.07993902 -0.07986278
 -0.07979775 -0.07974618 -0.07970623 -0.07967979 -0.07965486 -0.0796305 -0.07959063 -0.07953283 -0.07945007 -0.07934129
 -0.07921411 -0.07906923 -0.07892272 -0.07877525 -0.0786399 -0.07851596 -0.07840744 -0.07831303 -0.0782313 -0.07816117
 -0.07810128 -0.07804729 -0.07799426 -0.07793482 -0.0778591 -0.07776689 -0.07765251 -0.07752718 -0.07739431 -0.07726295
 -0.07713763 -0.07701737 -0.0769029 -0.07679091 -0.07668078 -0.07657351 -0.07646909 -0.07636947 -0.07627455 -0.07618126
 -0.07608792 -0.07597969 -0.07585437 -0.07569121 -0.07549527 -0.07526784 -0.07502057 -0.07477934 -0.0745456 -0.0743353
 -0.07413679 -0.07394443 -0.07374932 -0.07354099 -0.07332547 -0.07310149 -0.07288109 -0.07266846 -0.07246768 -0.07228205
 -0.07210163 -0.07192758 -0.07173133 -0.07151098 -0.07124077 -0.07092071 -0.07056846 -0.0701874 -0.06981602 -0.06945235
 -0.06910819 -0.06877775 -0.06845011 -0.06812174 -0.06778046 -0.0674254 -0.0670495 -0.0666555 -0.06624215 -0.06581659
 -0.06538546 -0.06494528 -0.06450164 -0.06402755 -0.06351588 -0.06294704 -0.06231048 -0.06163238 -0.06091429 -0.06018366
 -0.05944397 -0.05867808 -0.05788532 -0.05705038 -0.0561768 -0.05529132 -0.05439592 -0.05351835 -0.05264822 -0.05176819
 -0.05087051 -0.0499228 -0.04894521 -0.04794941 -0.04696192 -0.04601976 -0.04511571 -0.04426022 -0.04342749 -0.04260753
 -0.04178521 -0.04095283 -0.04010881 -0.03925548 -0.03837021 -0.03745658 -0.036434 -0.03529632 -0.03398291 -0.03249509
 -0.0309412 -0.02933067 -0.0278037 -0.02634326 -0.02494144 -0.02357687 -0.02217876 -0.02074414 -0.01923559 -0.01765187
 -0.01598811 -0.01420802 -0.01229236 -0.01015705 -0.007739474 -0.004986834 -0.00182041 0.001621372 0.005343794 0.009072782
 0.01274565 0.01622366 0.01947072 0.02251138 0.0253418 0.02805183 0.0306483 0.03329374 0.03600511 0.03902736
 0.04233649 0.04598949 0.04986411 0.05358856 0.05714085 0.06025333 0.06307007 0.06569021 0.06821917 0.07081363
 0.0734776 0.07626317 0.07914197 0.08211021 0.08515613 0.08828946 0.09143253 0.09457867 0.09761779 0.1005256
 0.1033186 0.105995 0.1086125 0.1111708 0.1135757 0.1158165 0.1177429 0.1193683 0.1206775 0.121696
 0.1224993 0.1230918 0.1235156 0.1237737 0.1238752 0.1238577 0.1237584 0.1236161 0.1234716 0.1233349
 0.1232272 0.1231206 0.1230168 0.1228626 0.1226499 0.1223241 0.121877 0.1212693 0.1204946 0.1195811
 0.1185316 0.117447 0.1163267 0.1152097 0.1140822 0.1128942 0.1116403 0.1102707 0.1088054 0.1072517
 0.1056561 0.1040888 0.1025838 0.1012081 0.09995559 0.0988401 0.09785612 0.0969969 0.09628813 0.09573792
 0.0953596 0.09516338 0.09511743 0.09521924 0.09543857 0.09577169 0.0962213 0.09678765 0.09748625 0.0983168
 0.0992832 0.1003826 0.1016026 0.1029407 0.1043803 0.1059248 0.1075706 0.1093286 0.1112127 0.1132337
 0.1154085 0.1177414 0.1202402 0.1229065 0.1257422 0.1287494 0.1319301 0.1352822 0.1388106 0.1424852
 0.1463099 0.1501959 0.1541384 0.1580248 0.1618499 0.1655638 0.1691657 0.1726452 0.1759782 0.1790385
 0.1817928 0.1840415 0.1858296 0.187142 0.1880691 0.1887487 0.1892147 0.1895601 0.1897694 0.1898576
 0.1898109 0.1896365 0.1892827 0.1887566 0.1879097 0.1867015 0.1850751 0.1829802 0.1807397 0.1783781
 0.176114 0.1739551 0.1717636 0.169534 0.1671566 0.1646488 0.1620471 0.1593649 0.1566847 0.1539614
 0.1511768 0.1481846 0.1447497 0.1407889 0.1360069 0.1307635 0.1252058 0.1196908 0.1145212 0.1095398
 0.1047548 0.1000108 0.09523775 0.09056075 0.08598175 0.0816726 0.07765626 0.07390305 0.07041083 0.0670303
 0.06375924 0.06051987 0.05732688 0.05421923 0.05120872 0.04836109 0.04566301 0.04312185 0.04070964 0.03838689
 0.03613396 0.03391993 0.03172079 0.02952609 0.02726494 0.02490378 0.02237588 0.01960119 0.0167824 0.01391833
 0.01138162 0.009259721 0.007505598 0.006134759 0.004867133 0.003689544 0.002455564 0.001172393 -0.0001251832 -0.001424082
 -0.002629251 -0.00375148 -0.004779528 -0.005724268 -0.006618067 -0.007431154 -0.008138256 -0.008694453 -0.009030942 -0.009155154
 -0.00904157 -0.008737955 -0.008262762 -0.007647973 -0.006911224 -0.006057535 -0.005096307 -0.003996733 -0.002761217 -0.001312979
 0.0003575583 0.002267353 0.004415812 0.006581069 0.008745331 0.01062036 0.01221999 0.01347283 0.01440618 0.01507506
 0.01549287 0.01570861 0.01574483 0.0156443 0.01545994 0.01524921 0.0150967 0.01508573 0.01525906 0.01569098
 0.01627166 0.01698525 0.01771211 0.01840814 0.01908015 0.01971954 0.02037583 0.02105417 0.02176737 0.02251609
 0.02326818 0.02402215 0.02474762 0.02545019 0.02614214 0.02683708 0.02758808 0.02840409 0.02933772 0.03037513
 0.03151704 0.03275048 0.03404902 0.03544398 0.03694435 0.03859711 0.04043706 0.04246128 0.0446849 0.04705701
 0.04956305 0.05219469 0.05493887 0.05788041 0.06102695 0.06443784 0.06811584 0.07189132 0.07574411 0.07936709
 0.08276192 0.08578198 0.08844645 0.09075759 0.09270012 0.09424881 0.0953618 0.09595524 0.09601804 0.09549196
 0.09442303 0.09281813 0.09074946 0.0882529 0.08538893 0.08218168 0.07868602 0.07490352 0.07095487 0.0668433
 0.062782 0.0587914 0.05502046 0.05147801 0.04812763 0.04496203 0.04187169 0.03886255 0.03590998 0.03303573
 0.03030964 0.02773267 0.02535146 0.023133 0.02104729 0.01905919 0.01711535 0.01520243 0.01328916 0.0113868
 0.009488996 0.007624333 0.0058008 0.004043231 0.002362162 0.0007543423 -0.0007767719 -0.002257704 -0.003691263 -0.005089605
 -0.006453572 -0.007748052 -0.008969077 -0.01005284 -0.01100065 -0.01178426 -0.01241563 -0.01292241 -0.0133141 -0.01362886
 -0.01386492 -0.01403689 -0.01413863 -0.0141668 -0.01412222 -0.01399938 -0.0138168 -0.01357581 -0.01331713 -0.0130506
 -0.01282736 -0.0126602 -0.01258975 -0.01262535 -0.01278244 -0.01306494 -0.01345876 -0.01396336 -0.01454549 -0.01520295
 -0.01590064 -0.01663508 -0.01736991 -0.01809841 -0.01877739 -0.01940165 -0.01993473 -0.02038174 -0.02073235 -0.021
 -0.02119565 -0.02133108 -0.0214187 -0.02146656 -0.02148114 -0.02147045 -0.02143825 -0.02139142 -0.02133175 -0.02126613
 -0.02119491 -0.0211302 -0.02107286 -0.02103676 -0.02102276 -0.02103675 -0.0210785 -0.02114577 -0.02123816 -0.02135239
 -0.02148804 -0.02164242 -0.02181404 -0.0219983 -0.02219319 -0.02239355 -0.02259755 -0.0228009 -0.02300313 -0.02320172
 -0.0233994 -0.0235965 -0.02379723 -0.02400413 -0.02421605 -0.02443419 -0.02465121 -0.02486623 -0.02507275 -0.02526993
 -0.02545537 -0.02562889 -0.02578796 -0.02593241 -0.02605901 -0.02616768 -0.02625671 -0.02632551 -0.0263721 -0.0263935
 -0.02638265 -0.02633415 -0.02623592 -0.02608391 -0.02586688 -0.0255887 -0.02524553 -0.02485259 -0.02441508 -0.02395215
 -0.02347249 -0.02298644 -0.02249891 -0.02201074 -0.02152245 -0.02103575 -0.02055055 -0.02007269 -0.01960254 -0.01914337
 -0.01869513 -0.01825678 -0.01782858 -0.01741132 -0.01700611 -0.01661743 -0.01624641 -0.01589787 -0.01557285 -0.01527485
 -0.01500559 -0.01476844 -0.01456438 -0.01439571 -0.01426136 -0.01416119 -0.01409471 -0.01406123 -0.01406266 -0.01409964
 -0.01417225 -0.01428145 -0.01442058 -0.01458932 -0.01477879 -0.0149884 -0.01521431 -0.01545645 -0.01571414 -0.01598671
 -0.01626947 -0.01656146 -0.01685612 -0.017154 -0.01745314 -0.01775433 -0.01805859 -0.01836501 -0.01867279 -0.01898162
 -0.01928957 -0.01960128 -0.01991758 -0.02024671 -0.02059151 -0.02095975 -0.0213545 -0.02177757 -0.02223091 -0.02270622
 -0.0232036 -0.02370691 -0.02421521 -0.02471465 -0.02520479 -0.02567801 -0.02613379 -0.02656491 -0.02697042 -0.02734183
 -0.02768036 -0.02798361 -0.02825603 -0.02850403 -0.0287318 -0.02894772 -0.02915183 -0.02934859 -0.02953137 -0.02969964
 -0.02984053 -0.02994943 -0.0300152 -0.03003248 -0.0300031 -0.02992464 -0.02981403 -0.02967187 -0.02952223 -0.02936654
 -0.02922704 -0.02910433 -0.02901085 -0.02894485 -0.02890154 -0.02887699 -0.02885292 -0.02882732 -0.0287848 -0.02872792
 -0.02865425 -0.02856664 -0.02846914 -0.02835907 -0.02823644 -0.0280958 -0.02793229 -0.02774866 -0.02754147 -0.02732874
 -0.02711289 -0.02691673 -0.02674585 -0.0266064 -0.02650145 -0.02641169 -0.02633637 -0.02624408 -0.02613345 -0.02597976
 -0.02578329 -0.0255336 -0.02523258 -0.02488188 -0.02448354 -0.02404402 -0.02356337 -0.02304462 -0.0224871 -0.02188963
 -0.02125641 -0.020588 -0.01989645 -0.01918713 -0.01847488 -0.01776657 -0.01707238 -0.01639722 -0.01574191 -0.01510829
 -0.01448852 -0.01388221 -0.01328017 -0.01268173 -0.01208337 -0.01148509 -0.01088687 -0.01028895 -0.009692138 -0.009098053
 -0.008513237 -0.007940114 -0.007389666 -0.006860135 -0.006355296 -0.005867593 -0.005390464 -0.004913805 -0.004428583 -0.003922057
 -0.003385588 -0.002806409 -0.002175062 -0.001494358 -0.0007594763 5.039204E-06 0.0007962992 0.001590331 0.002383053 0.00317204
 0.003956688 0.004746082 0.0055401 0.006336596 0.007133234 0.007912034 0.008670789 0.009389909 0.01007095 0.01070748
 0.01130343 0.01186493 0.01238981 0.01288099 0.01332618 0.01371631 0.01404001 0.01428511 0.01445578 0.01454736
 0.01458012 0.0145563 0.01450365 0.01442639 0.01435096 0.01428089 0.01423245 0.01420705 0.01420963 0.01424062
 0.01430666 0.01440957 0.01456612 0.01477815 0.01506306 0.01541959 0.01585441 0.01636259 0.01693994 0.0175775
 0.01826374 0.01898739 0.0197355 0.02049825 0.02126925 0.02203207 0.0227854 0.02348942 0.02413809 0.0246759
 0.02509147 0.02534953 0.02544249 0.02537436 0.02514424 0.02478162 0.02428861 0.02370461 0.02303297 0.02231643
 0.02155816 0.02079415 0.02002596 0.01927535 0.01854432 0.01784607 0.01718303 0.01656453 0.01598894 0.01546035
 0.01496888 0.01451302 0.01407309 0.01364445 0.01319705 0.01272353 0.01219347 0.01159886 0.01092885 0.01017934
 0.009366297 0.008490031 0.007581198 0.006641381 0.005698978 0.004754742 0.00382731 0.002916877 0.002033722 0.001178951
 0.0003609211 -0.0004195627 -0.00115545 -0.001851086 -0.002507738 -0.003133975 -0.003738879 -0.004325401 -0.004899667 -0.005455997
 -0.00599294 -0.006507581 -0.006997264 -0.007468386 -0.007920996 -0.008365136 -0.008801664 -0.009240948 -0.009683686 -0.01014013
 -0.01061049 -0.01109692 -0.01159808 -0.01210407 -0.01261385 -0.01311682 -0.01361481 -0.01410721 -0.01459673 -0.01508848
 -0.0155836 -0.01608604 -0.01659497 -0.01711188 -0.01763292 -0.01815726 -0.01867785 -0.01919185 -0.01969302 -0.02017855
 -0.02064713 -0.02109744 -0.02153372 -0.02195591 -0.02237187 -0.02278221 -0.02319149 -0.02359957 -0.02400061 -0.02439363
 -0.02476767 -0.02512294 -0.02545454 -0.02576333 -0.02605003 -0.02631346 -0.02655172 -0.02676369 -0.02694615 -0.0271012
 -0.02722986 -0.02733334 -0.02741407 -0.02746777 -0.0274936 -0.02748638 -0.02744385 -0.02736568 -0.02725094 -0.02710322
 -0.02692246 -0.026715 -0.02648098 -0.02623344 -0.02597333 -0.02572072 -0.02547725 -0.02526523 -0.02508618 -0.02495917
 -0.02488409 -0.02487205 -0.02491831 -0.02502123 -0.02517023 -0.0253519 -0.02555389 -0.02575955 -0.02596261 -0.02615304
 -0.0263331 -0.02650255 -0.02665996 -0.02680833 -0.02692905 -0.02702084 -0.02705674 -0.02703209 -0.0269397 -0.02677774
 -0.02656839 -0.02631302 -0.02604165 -0.0257545 -0.02546646 -0.02517569 -0.0248816 -0.02458276 -0.02427473 -0.02395698
 -0.02362637 -0.02328303 -0.02292515 -0.02255512 -0.02217337 -0.02178558 -0.02139448 -0.02100789 -0.02062937 -0.02026608
 -0.01992102 -0.01959772 -0.01929822 -0.01901875 -0.01875968 -0.01851137 -0.01827303 -0.01803966 -0.01781137 -0.0175963
 -0.01739499 -0.01721754 -0.01706062 -0.01691544 -0.01677527 -0.01661413 -0.01643144 -0.01621066 -0.01596193 -0.01569209
 -0.01541101 -0.01513371 -0.01485603 -0.01458227 -0.01429786 -0.01399626 -0.01367102 -0.01331549 -0.01294359 -0.01255486
 -0.01217509 -0.01180792 -0.01146806 -0.01115763 -0.01086887 -0.01060113 -0.01033613 -0.01007328 -0.009800229 -0.009516526
 -0.009214088 -0.00889131 -0.008538099 -0.008155774 -0.007739155 -0.007298151 -0.006842299 -0.006385976 -0.005947299 -0.005533074
 -0.005155975 -0.004808197 -0.004491373 -0.004189335 -0.00389747 -0.003604178 -0.003305432 -0.003000354 -0.002687925 -0.002372763
 -0.00205516 -0.001738223 -0.001422097 -0.00110841 -0.0007973601 -0.0004914284 -0.0001908924 0.0001016837 0.0003859891 0.000659723
 0.0009228032 0.001173398 0.001413087 0.0016421 0.001865463 0.002086811 0.002314268 0.002553432 0.002812897 0.003098601
 0.003413037 0.003760046 0.004130933 0.004525666 0.004929925 0.005341667 0.005752591 0.006161731 0.006567375 0.00696943
 0.007367245 0.007761018 0.008152378 0.008541537 0.008931178 0.009319771 0.00970351 0.0100821 0.01045106 0.01081611
 0.01118421 0.01155825 0.01194777 0.0123405 0.01273192 0.01310858 0.0134584 0.01379244 0.01410872 0.01443259
 0.01477137 0.01512837 0.01550775 0.01588274 0.01625196 0.01658538 0.01688183 0.01713373 0.01734335 0.01752914
 0.01769463 0.01786762 0.0180481 0.01825121 0.01847375 0.01871591 0.01897564 0.01925087 0.01953782 0.01983427
 0.02013004 0.02041681 0.02068997 0.0209416 0.02118499 0.02142147 0.02166841 0.02193147 0.02221143 0.02251037
 0.02281576 0.02312704 0.02342909 0.02372113 0.0239903 0.02423758 0.02446555 0.02467966 0.02490808 0.0251567
 0.02546075 0.0258182 0.02624504 0.02672871 0.02726025 0.02782148 0.02839091 0.02895555 0.02949819 0.0300184
 0.03051291 0.03097941 0.03142123 0.03181382 0.03215345 0.03241472 0.0325898 0.03269663 0.03273384 0.03275962
 0.03277699 0.03284095 0.03295208 0.03313774 0.03339331 0.03371279 0.03408546 0.03447481 0.03487172 0.03523644
 0.03557183 0.03586492 0.03612182 0.03634737 0.03653637 0.03668736 0.03679331 0.03684662 0.03685815 0.03682616
 0.03677743 0.03671604 0.03666988 0.03664345 0.03665487 0.03670693 0.03679463 0.03691758 0.03705324 0.03720159
 0.03735409 0.0375134 0.03769091 0.03788549 0.03810029 0.03833079 0.03856795 0.03881034 0.03905324 0.03929249
 0.03952099 0.03973937 0.03993451 0.0401479 0.04038545 0.04072378 0.04120661 0.04180468 0.04254112 0.04324352
 0.04388248 0.04440324 0.04479288 0.0451288 0.04541458 0.04571975 0.04604406 0.04641007 0.04681028 0.04722138
 0.04762857 0.04797275 0.04824082 0.04837113 0.04836902 0.04821029 0.04792045 0.04751457 0.04702247 0.04646823
 0.04587804 0.04526936 0.04466242 0.04406643 0.04349739 0.04295763 0.0424732 0.04204692 0.04170892 0.04146407
 0.04130048 0.04121711 0.04114038 0.04106509 0.04090698 0.04066741 0.04030649 0.03983627 0.03926938 0.03863011
 0.03797442 0.03732968 0.03676995 0.03628824 0.03591698 0.03560447 0.03532051 0.03503372 0.0347097 0.03437625
 0.03403321 0.03371758 0.03344078 0.03320951 0.03302783 0.0328834 0.03277562 0.03269096 0.03262888 0.03260116
 0.03261146 0.03270887 0.03289333 0.03319659 0.03360217 0.03407259 0.03458971 0.03508983 0.03557522 0.03601996
 0.03643635 0.03682898 0.03720552 0.03757171 0.03793705 0.03830712 0.03869036 0.03909226 0.03951039 0.03994343
 0.04039809 0.04087241 0.04139647 0.04197344 0.04261685 0.04332727 0.04406546 0.04482695 0.0455462 0.04622108
 0.04680466 0.04730093 0.04769612 0.04800051 0.04823015 0.04839411 0.04851675 0.04859415 0.04863181 0.04862235
 0.04855825 0.04844686 0.04829092 0.04809313 0.04785915 0.04757 0.04721922 0.04680906 0.04633301 0.04584499
 0.04534821 0.04490176 0.04450888 0.04418737 0.04393555 0.04373898 0.04359257 0.04346222 0.04334065 0.04318158
 0.042988 0.04273858 0.04245293 0.04215348 0.04185432 0.04158465 0.04133586 0.0411129 0.04089833 0.04068334
 0.04045952 0.04021962 0.0399705 0.03970998 0.03945969 0.03922332 0.03901257 0.03883158 0.03864574 0.03845331
 0.03819395 0.03786744 0.03745363 0.03695961 0.03641593 0.03582986 0.03524152 0.03465669 0.0341079 0.03359912
 0.03315468 0.03276508 0.03243278 0.03213646 0.03185886 0.03159057 0.03131652 0.03105502 0.03080482 0.03060251
 0.03045723 0.030392 0.03041696 0.0305034 0.03065302 0.03078464 0.03089373</values></Ydata></AB><ScSm><Ydata ylabel="Single channel"><values byteorder="INTEL" format="FLOAT32" numvalues="1814"> 0.07194082 0.07194436 0.07202108 0.07219037 0.07241598 0.07262735 0.07276881 0.0728342 0.07284522 0.07280718
 0.07272194 0.07264397 0.07267037 0.07284614 0.07310174 0.07330109 0.07335177 0.07328609 0.07324137 0.0733235
 0.07346186 0.07342997 0.07305837 0.07243182 0.0718366 0.07149684 0.07143223 0.07162571 0.07216817 0.07299787
 0.07360318 0.07338983 0.07243223 0.07150453 0.07122035 0.07144372 0.07165681 0.07155886 0.07115559 0.07063446
 0.07041512 0.07104078 0.07264365 0.07450158 0.07529847 0.07395692 0.07040815 0.06583285 0.06222279 0.0613109
 0.06335006 0.0667707 0.06936132 0.07003172 0.06933038 0.06832156 0.0674392 0.06663083 0.06610444 0.06636772
 0.0675303 0.06883217 0.06903918 0.06750273 0.06493136 0.06288305 0.06234127 0.06310023 0.0646033 0.06654964
 0.06805471 0.06716526 0.06277871 0.05708044 0.0545734 0.05779875 0.06462315 0.07032096 0.07177921 0.06925515
 0.06501051 0.06143169 0.06012046 0.06147018 0.06460696 0.06810968 0.07086396 0.07211469 0.07127959 0.06845556
 0.06491448 0.06248966 0.06245003 0.06499919 0.06923322 0.07322873 0.07491738 0.07360998 0.07045344 0.06722122
 0.06514718 0.0649276 0.06689601 0.07067996 0.0751752 0.07917988 0.08188418 0.08296322 0.08265069 0.08158524
 0.08032067 0.07923745 0.07888511 0.0796438 0.08082855 0.0809454 0.07931404 0.07697238 0.07560885 0.07581759
 0.07662356 0.07667297 0.07560591 0.07385279 0.07130818 0.06728476 0.06210689 0.05755015 0.05506766 0.05467417
 0.05599831 0.05885924 0.06203399 0.06318545 0.06142938 0.05896902 0.05891699 0.06197021 0.06605114 0.06883264
 0.06989059 0.07052687 0.07209957 0.07463931 0.07668557 0.07638866 0.07334101 0.06960283 0.06824511 0.07033752
 0.07392088 0.07641466 0.07733455 0.0780126 0.07926108 0.08011409 0.07884245 0.07501714 0.07060801 0.06876545
 0.07107691 0.07597264 0.07986391 0.07980433 0.075473 0.06922728 0.06425896 0.06239006 0.06359477 0.06722377
 0.07271656 0.07895933 0.08398364 0.08607242 0.08501843 0.08202232 0.07832145 0.07405476 0.06891197 0.06400898
 0.06211356 0.06502824 0.07128353 0.07736272 0.08083874 0.08158308 0.08040188 0.07754771 0.07293452 0.06754112
 0.06386931 0.06400932 0.06712633 0.06992994 0.07011522 0.06846242 0.06714906 0.06703465 0.06734188 0.06731577
 0.06729363 0.06811448 0.06991462 0.07180292 0.07272245 0.07241474 0.07146618 0.07062246 0.07011759 0.0695128
 0.0683175 0.06695834 0.0667429 0.06842443 0.0711602 0.07337661 0.07435264 0.07448569 0.0742411 0.07334858
 0.07120426 0.06800742 0.06523313 0.06454124 0.06616912 0.06877953 0.07085633 0.07179879 0.07177868 0.07119144
 0.07038735 0.06955825 0.06879497 0.06833223 0.06849048 0.06921887 0.06999128 0.07033331 0.07021135 0.06980279
 0.06915969 0.06826377 0.0672591 0.06646696 0.0661568 0.06633784 0.06679356 0.06727804 0.06760754 0.06762505
 0.06725425 0.06661734 0.06595938 0.06542701 0.06502667 0.06477858 0.06475805 0.06495383 0.06520388 0.06532907
 0.06527466 0.06509212 0.06483613 0.06452209 0.06416234 0.06381002 0.06355631 0.06346691 0.06350531 0.06355356
 0.06354635 0.06353742 0.06357738 0.06358604 0.06343577 0.06312725 0.06279735 0.06256928 0.06245808 0.06240664
 0.0623471 0.06221186 0.06193469 0.06150673 0.06104667 0.06075787 0.06076679 0.06102759 0.06139697 0.06174342
 0.0619702 0.06202629 0.06194761 0.06182751 0.06170975 0.06155309 0.06131892 0.06105895 0.0608996 0.06094067
 0.06116119 0.06143119 0.06162498 0.06170371 0.06169569 0.06165507 0.06164778 0.06170775 0.06178393 0.0617858
 0.06169664 0.06159826 0.06157574 0.06162869 0.0616807 0.06166483 0.06159854 0.06156604 0.06162243 0.06173778
 0.06184754 0.06192837 0.0620041 0.06209392 0.06217101 0.06217775 0.06209198 0.0619698 0.06189518 0.06189305
 0.06192588 0.06196724 0.06203396 0.06213985 0.0622547 0.06232784 0.06234144 0.06232709 0.06232421 0.06232978
 0.06230474 0.06222913 0.06213035 0.06205245 0.06201489 0.0620059 0.06200144 0.06198379 0.06194728 0.06189204
 0.0618177 0.06172425 0.06161392 0.06149386 0.06138629 0.06132893 0.06134207 0.06139118 0.06140233 0.06132751
 0.061189 0.06105309 0.06096265 0.06090214 0.06083134 0.06074161 0.06066302 0.06062098 0.06060887 0.06060656
 0.06060373 0.06060006 0.06060502 0.06064733 0.06076108 0.06094259 0.0611338 0.06126988 0.06134108 0.06139366
 0.06147423 0.06158897 0.06171593 0.06184146 0.06197805 0.06214868 0.06235123 0.06254432 0.06268497 0.06278069
 0.06288484 0.06304035 0.06324847 0.06348736 0.06372927 0.06393912 0.06409238 0.06420718 0.06433392 0.06450105
 0.06468963 0.06486905 0.06503804 0.06521763 0.06541894 0.06563725 0.06587283 0.06614085 0.06645511 0.06680591
 0.06715594 0.06746181 0.06771064 0.06794006 0.06821294 0.06856338 0.06896798 0.0693706 0.06973141 0.07005392
 0.07036864 0.07069482 0.07102561 0.07135555 0.07170665 0.07210658 0.07254868 0.07299642 0.07342564 0.07384193
 0.07425926 0.07468088 0.07510379 0.07552823 0.07595889 0.07639915 0.07684214 0.07726829 0.07765996 0.07802039
 0.07837339 0.07874663 0.07915527 0.07958744 0.07999963 0.08034706 0.08063725 0.08093557 0.08129365 0.08168529
 0.08204125 0.08233956 0.08262911 0.08296254 0.0833375 0.08371598 0.08407848 0.08443849 0.08481257 0.08519125
 0.08553991 0.08582525 0.08604582 0.08623785 0.08644725 0.08669917 0.08700079 0.08735891 0.0877695 0.08819429
 0.08857468 0.08887627 0.08910664 0.08929653 0.08948256 0.0896989 0.08995876 0.09024265 0.09051706 0.09075809
 0.09095444 0.09111395 0.09127857 0.09150333 0.09180129 0.09213406 0.0924719 0.09283176 0.09323461 0.09365674
 0.09406002 0.09445299 0.09487933 0.09534305 0.09578221 0.09613216 0.09638779 0.09658691 0.09676391 0.09695068
 0.09719741 0.09754638 0.09798467 0.09845081 0.09888992 0.09928569 0.09964435 0.09997001 0.1002607 0.1005162
 0.1007416 0.1009418 0.1011194 0.1012848 0.1014636 0.1016798 0.1019244 0.1021531 0.1023177 0.1023898
 0.102354 0.1022053 0.1019678 0.1016996 0.1014475 0.1011948 0.1008698 0.1004105 0.09980792 0.09908661
 0.09826492 0.09735148 0.09637369 0.09539273 0.09448597 0.09372038 0.09314807 0.09282357 0.09280767 0.09312993
 0.09373663 0.09448422 0.09519096 0.09569377 0.09587337 0.09566836 0.09509549 0.09424479 0.0932342 0.09216256
 0.09109457 0.09005734 0.08903602 0.08799928 0.08696114 0.08601898 0.08532622 0.0850465 0.08534751 0.08639833
 0.08829314 0.09092443 0.09394644 0.09691346 0.09949728 0.1015988 0.1032954 0.1047241 0.1060033 0.1071987
 0.1083176 0.1093373 0.1102524 0.111084 0.1118456 0.1125192 0.1130709 0.1134792 0.11375 0.1139147
 0.1140127 0.11407 0.1141019 0.1141318 0.1141851 0.1142505 0.1142598 0.1141155 0.1137384 0.1130904
 0.1121726 0.1110405 0.1098792 0.1090904 0.1092294 0.1107082 0.1134686 0.1169551 0.120446 0.1234327
 0.1257488 0.1274648 0.1287383 0.1297235 0.1305364 0.1312505 0.1319098 0.1325381 0.133142 0.1337177
 0.1342624 0.1347808 0.1352856 0.1357911 0.1363001 0.1367972 0.137266 0.1377106 0.1381573 0.1386312
 0.1391305 0.1396277 0.1400999 0.140554 0.1410109 0.1414695 0.1419044 0.1423013 0.1426767 0.1430596
 0.1434686 0.1439057 0.1443554 0.1447892 0.1451841 0.1455417 0.145883 0.1462267 0.1465777 0.1469325
 0.147288 0.1476417 0.1479911 0.1483382 0.1486928 0.149062 0.1494351 0.149787 0.1501018 0.1503915
 0.1506858 0.1510028 0.1513332 0.1516536 0.1519559 0.1522605 0.1525963 0.1529691 0.1533524 0.1537112
 0.154032 0.1543297 0.1546296 0.1549459 0.1552796 0.1556261 0.155979 0.1563266 0.1566576 0.1569733
 0.1572873 0.1576116 0.1579481 0.1582911 0.1586338 0.1589713 0.1593007 0.1596208 0.1599367 0.1602636
 0.1606171 0.1609927 0.1613605 0.1616903 0.1619807 0.1622541 0.1625302 0.1628133 0.1631017 0.163398
 0.1637053 0.1640212 0.1643403 0.1646607 0.1649838 0.1653081 0.1656304 0.1659505 0.1662719 0.1665952
 0.1669179 0.1672411 0.1675666 0.1678906 0.1682046 0.1685066 0.1688039 0.169105 0.1694126 0.169723
 0.1700307 0.1703339 0.1706367 0.1709442 0.1712548 0.1715628 0.1718659 0.1721655 0.1724629 0.1727587
 0.1730548 0.1733533 0.1736559 0.1739648 0.1742808 0.1745995 0.1749131 0.1752162 0.1755105 0.1758059
 0.176112 0.1764289 0.1767471 0.1770588 0.1773644 0.1776677 0.17797 0.1782702 0.1785682 0.1788663
 0.1791679 0.1794728 0.1797759 0.1800726 0.1803634 0.1806523 0.1809468 0.1812559 0.1815797 0.1819025
 0.1822084 0.1825012 0.1827976 0.1831068 0.1834231 0.1837369 0.1840438 0.1843472 0.1846527 0.1849619
 0.1852735 0.1855876 0.1859043 0.1862195 0.186528 0.1868276 0.187117 0.1873967 0.1876729 0.1879531
 0.1882385 0.188525 0.1888097 0.1890917 0.1893732 0.1896582 0.1899467 0.1902365 0.1905317 0.1908407
 0.1911612 0.1914799 0.1917877 0.1920836 0.1923704 0.1926562 0.1929509 0.1932538 0.1935557 0.1938567
 0.1941667 0.1944896 0.1948176 0.1951391 0.1954461 0.1957422 0.196041 0.1963508 0.1966654 0.196974
 0.1972704 0.1975541 0.1978358 0.198133 0.1984486 0.1987643 0.1990663 0.1993582 0.1996462 0.1999295
 0.2002085 0.2004839 0.2007568 0.2010363 0.2013325 0.2016404 0.2019446 0.2022363 0.202513 0.2027795
 0.2030529 0.2033473 0.203654 0.2039572 0.2042551 0.2045484 0.2048307 0.2051042 0.2053755 0.2056279
 0.2058054 0.2057706 0.2051885 0.2034029 0.1994273 0.1921526 0.1808 0.1654248 0.14707 0.127385
 0.1080173 0.09019855 0.07464533 0.06166751 0.05132804 0.04354309 0.0381439 0.03498206 0.03404167 0.03555953
 0.04016101 0.04849518 0.05982375 0.07075609 0.07655829 0.07489137 0.06804939 0.06086557 0.05668652 0.05574656
 0.05661257 0.05806752 0.05973415 0.0618398 0.06476375 0.06861099 0.07320018 0.07853153 0.08501019 0.09293571
 0.1018916 0.1109185 0.1193395 0.1272941 0.1354167 0.1440769 0.1529926 0.1615072 0.1691118 0.175703
 0.1814866 0.1867469 0.1916829 0.1963825 0.2008778 0.2051519 0.2090536 0.2122568 0.2144113 0.2154072
 0.215509 0.2152082 0.2149318 0.2148744 0.2150517 0.2154284 0.215974 0.2166595 0.2174613 0.2183625
 0.2193381 0.2203521 0.2213726 0.2223777 0.2233474 0.2242607 0.2251007 0.22586 0.2265475 0.2271832
 0.2277796 0.2283344 0.2288465 0.2293276 0.2297923 0.2302461 0.2306861 0.2311067 0.2315017 0.2318663
 0.2321995 0.2325043 0.2327904 0.2330735 0.2333638 0.2336596 0.233955 0.2342497 0.2345453 0.2348389
 0.2351258 0.235408 0.2356953 0.2359945 0.2362982 0.2365893 0.2368604 0.2371236 0.237394 0.2376723
 0.2379538 0.2382438 0.2385494 0.2388621 0.2391619 0.2394374 0.2396951 0.2399522 0.2402207 0.2404993
 0.2407839 0.2410798 0.2413932 0.2417149 0.2420296 0.2423344 0.2426334 0.2429255 0.2432133 0.243508
 0.2438077 0.2440895 0.2443386 0.2445736 0.2448317 0.2451347 0.2454706 0.2458034 0.2461071 0.2463895
 0.246676 0.2469761 0.2472741 0.2475465 0.247791 0.2480413 0.2483428 0.2487018 0.2490799 0.2494474
 0.2498088 0.2501698 0.2505203 0.2508588 0.2511871 0.2514804 0.251707 0.2518915 0.2521254 0.2524946
 0.2529925 0.2535152 0.253957 0.2543033 0.2546144 0.2549466 0.2553206 0.2557088 0.2560068 0.2560996
 0.2560422 0.2560971 0.2564941 0.2571976 0.2579734 0.2586284 0.2591262 0.2595281 0.2598915 0.2602124
 0.2604318 0.2605056 0.2604972 0.2605967 0.2609865 0.2616546 0.2623904 0.2629988 0.2634502 0.2638031
 0.2640979 0.2643568 0.2645401 0.2644755 0.2640394 0.2634887 0.263397 0.2641005 0.2653176 0.2664506
 0.2671791 0.2676251 0.2680136 0.2683936 0.2687032 0.2688289 0.2684793 0.2673482 0.2657174 0.2646283
 0.2650277 0.2668158 0.2690125 0.270735 0.2717564 0.2722925 0.2726208 0.2728949 0.2730294 0.2727051
 0.2717285 0.2705148 0.2699852 0.270716 0.2722904 0.2737442 0.2745478 0.274884 0.2751358 0.2754562
 0.2756687 0.2752127 0.2734591 0.2706405 0.2683287 0.268334 0.2709315 0.2745273 0.2772369 0.2785072
 0.2789713 0.2790657 0.2783886 0.2764322 0.2733585 0.2699305 0.2672608 0.2666468 0.2687126 0.2723467
 0.2753335 0.2765349 0.2768535 0.277761 0.279547 0.2813336 0.2822118 0.2819398 0.2807886 0.2790517
 0.2769076 0.2748724 0.2740691 0.275435 0.2785824 0.2819381 0.2841963 0.2853068 0.2857877 0.2852004
 0.2818447 0.274802 0.266495 0.2620226 0.2646611 0.2724364 0.2802455 0.284877 0.2867753 0.2876454
 0.2881631 0.2877821 0.2850644 0.2784846 0.2688466 0.2607679 0.2595486 0.2659351 0.2752756 0.2818545
 0.2827743 0.2782526 0.2706 0.2635409 0.2606949 0.263377 0.2700194 0.2777254 0.2840118 0.2874822
 0.2878053 0.2855901 0.2823517 0.2801409 0.2800574 0.2806259 0.2789162 0.2742452 0.2693165 0.2662594
 0.2633511 0.2582198 0.2530341 0.2530634 0.2598147 0.2685066 0.2734295 0.2737243 0.2723818 0.2708201
 0.2664987 0.2566045 0.2433836 0.2342537 0.2353036 0.244976 0.25546 0.2603292 0.2596458 0.2576845
 0.2572199 0.2567005 0.2524563 0.2434831 0.2338607 0.229339 0.2312502 0.2353142 0.2367151 0.2339933
 0.2274193 0.2173731 0.206968 0.2030714 0.2105336 0.2262436 0.2415536 0.249404 0.2469539 0.2340586
 0.2141351 0.1960624 0.1898766 0.1978432 0.211725 0.2203506 0.218503 0.2078885 0.1923019 0.1749437
 0.1598233 0.1523082 0.1559071 0.1686594 0.1833061 0.1910326 0.1863651 0.1713106 0.1554662 0.1491336
 0.1541097 0.1625605 0.1658088 0.1621688 0.1557561 0.1510493 0.1502378 0.1529759 0.1568329 0.1595264
 0.1607606 0.1598584 0.1533185 0.1391 0.122512 0.112762 0.1133472 0.1202473 0.1293675 0.140166
 0.1507781 0.1555313 0.1513585 0.1436679 0.1417649 0.1489965 0.1598628 0.1666929 0.1672204 0.1650301
 0.1639699 0.1639677 0.1630023 0.1617007 0.1635076 0.1699185 0.1778437 0.1830508 0.1845803 0.1843546
 0.1839271 0.1833188 0.1821246 0.1802039 0.1776017 0.1746626 0.1719275 0.169514 0.1670124 0.1641138
 0.160621 0.1556231 0.1477481 0.1372942 0.1274853 0.1220006 0.1211745 0.1222454 0.1233419 0.1245981
 0.1245481 0.119014 0.1066138 0.093345 0.08823731 0.09464486 0.1077578 0.1200607 0.1270027 0.1273855
 0.1212467 0.1102824 0.09993432 0.09766723 0.1068842 0.1237045 0.1411797 0.1552353 0.1650369 0.1697513
 0.168155 0.1613339 0.1536401 0.150241 0.1540664 0.1644837 0.1773501 0.1859226 0.1841799 0.1729346
 0.1626826 0.1658177 0.1834496 0.2033477 0.2136672 0.2149937 0.2153629 0.2177744 0.2187709 0.217411
 0.2187696 0.2269743 0.2390703 0.2478999 0.2483857 0.2395275 0.223645 0.2067834 0.1971731 0.1987495
 0.2068185 0.2132502 0.2143816 0.2105666 0.201362 0.1874993 0.1759979 0.1759481 0.1879306 0.2027267
 0.2118177 0.2151787 0.2174577 0.2199942 0.2192328 0.2121485 0.2012746 0.1931279 0.1917408 0.1951105
 0.198536 0.199534 0.197965 0.1933328 0.1850539 0.1753217 0.1691063 0.169913 0.1762751 0.1832426
 0.1869253 0.1870134 0.1855157 0.184277 0.1837586 0.1832544 0.182159 0.1815868 0.1841518 0.1910236
 0.1998248 0.2069702 0.2117463 0.2165232 0.2230338 0.2299307 0.234361 0.2350539 0.2335716 0.2330176
 0.2355676 0.2407072 0.2455774 0.2473977 0.2460998 0.2446292 0.2462247 0.2513062 0.2574027 0.2619479
 0.2643802 0.2656068 0.2664882 0.2671267 0.2668397 0.26472 0.2610414 0.2580882 0.258576 0.2629696
 0.2690042 0.2739471 0.2767399 0.27791 0.2781681 0.2776195 0.2761512 0.274119 0.2723619 0.271562
 0.271778 0.272627 0.273706 0.2747559 0.2756352 0.276316 0.276853 0.2772924 0.2776536 0.2779841
 0.278327 0.27863 0.2788014 0.2788892 0.2791009 0.2795706 0.280176 0.2806576 0.2808501 0.2806982
 0.2801206 0.2790217 0.2774455 0.2755717 0.2735154 0.2712543 0.2688669 0.2667946 0.2657202 0.2660739
 0.2676435 0.269703 0.2715182 0.2727252 0.2733235 0.273473 0.2733587 0.2731476 0.2729497 0.2727892
 0.2726357 0.2724685 0.2722975 0.2721332 0.2719721 0.2718254 0.2717378 0.27175 0.2718497 0.2719691
 0.2720266 0.2719733 0.2718214 0.2716393 0.2714986 0.2714121 0.2713205 0.2711401 0.2708238 0.2703889
 0.2698987 0.2694164 0.2689594 0.2684901 0.2679556 0.2673309 0.266602 0.2657209 0.2646356 0.2633954
 0.262168 0.2611037 0.2602134 0.2594081 0.2586051 0.2577539 0.2568082 0.2557362 0.2545463 0.2532703
 0.2519281 0.2505204 0.2490438 0.2475029 0.245908 0.2442613 0.242547 0.2407396 0.2388241 0.2367983
 0.2346454 0.2323005 0.2296522 0.2265793 0.2229885 0.2188257 0.2140872 0.2088479 0.2032737 0.1975866
 0.1920023 0.1866886 0.1817618 0.1773146 0.1734416 0.1702289 0.1677219 0.1659198 0.1648024 0.1643491
 0.1645376 0.1653386 0.1667031 0.1685406 0.1707136 0.1730583 0.1754099 0.1776264 0.1796276 0.181427
 0.1831098 0.1847607 0.1864026 0.1880027 0.1895202 0.1909298 0.1921991 0.1932814 0.1941503 0.1948191
 0.1953076 0.1956118 0.1957214 0.1956441 0.1954039 0.1950334 0.1945734 0.1940731 0.1935976 0.1932377
 0.1930933 0.1932312 0.1936654 0.194371 0.1953006 0.1963881 0.1975569 0.1987343 0.1998688 0.2009422
 0.2019675 0.2029839 0.2040633 0.2053115 0.2068273 0.2086454 0.2107221 0.2129632 0.2152513 0.2174624
 0.2194838 0.2212335 0.2226753 0.2238224 0.2247154 0.2253858 0.2258478 0.2261209 0.2262458 0.2262763
 0.2262625 0.2262319 0.2261771 0.2260719 0.2259033 0.2256803 0.2254229 0.2251592 0.2249201 0.2247168
 0.2245291 0.2243288 0.2241078 0.2238806 0.223663 0.2234511 0.2232206 0.2229509 0.2226423 0.222302
 0.2219231 0.2214824 0.2209449 0.2202651 0.2194057 0.2183632 0.217161 0.2158161 0.2143321 0.2127239
 0.2110343 0.2093244 0.2076457 0.2060151 0.2044081 0.2027727 0.2010485 0.1991906 0.1972024 0.1951427
 0.1930868 0.1910817 0.1891412 0.1872635 0.1854404 0.1836684 0.1819578 0.1803202 0.1787504 0.1772344
 0.1757693 0.174361 0.1730173 0.1717527 0.1705907 0.1695509 0.1686387 0.1678453 0.1671523 0.1665377
 0.1659819 0.1654717 0.1650127 0.1646388 0.1643847 0.1642296 0.1640881 0.1638724 0.1635571 0.1631795
 0.162795 0.162439 0.1621211 0.1618364 0.1615663 0.1612634 0.1608523 0.1602563 0.1594141 0.1582767
 0.1568191 0.1550658 0.1530935 0.1510134 0.1489582 0.1470582 0.1454037 0.1440333 0.1429476 0.1421103
 0.1414461 0.1408793 0.1403859 0.1400022 0.1397849 0.1397431 0.1397825 0.1397451 0.1395537 0.1393059
 0.1391913 0.139332 0.1397135 0.1402231 0.1407259 0.1411291 0.1414003 0.1415394 0.141557 0.1414752
 0.1413137 0.1410753 0.1407662 0.1404092 0.1400165 0.1395788 0.1390893 0.1385427 0.1379187 0.1372032
 0.1364106 0.1355616 0.1346627 0.1337039 0.1326365 0.1313958 0.130025 0.1287542 0.1278856 0.1275973
 0.1278497 0.128433 0.1291161 0.1297947 0.1304425 0.1309113 0.1309669 0.1306789 0.1306272 0.1314796
 0.133336 0.1356035 0.1375201 0.1386953 0.1391473 0.1390149 0.1383961 0.1373587 0.1359183 0.134032
 0.1317117 0.1290761 0.1262482 0.1233305 0.1204933 0.1179343 0.1157553 0.1139685 0.1125592 0.1115612
 0.1110952 0.1108105 0.1089661 0.1033528 0.09469922 0.0881806 0.08907222 0.09681775 0.1054113 0.1097422
 0.10967 0.1079259 0.1064108 0.1054441 0.1049628 0.1051063 0.1059743 0.1073995 0.1089807 0.1103144
 0.1112367 0.1117744 0.1118715 0.1112046 0.10915 0.1049744 0.09842043 0.09026003 0.08204721 0.07520799
 0.07040878 0.06757826 0.06618898 0.06555057 0.06515818 0.06494618 0.06520041 0.0662081 0.06800142 0.07041077
 0.07324732 0.07630084 0.0792258 0.08166203 0.08352059 0.08497665 0.08614818 0.08694391 0.0872409 0.08705086
 0.086484 0.08566791 0.08472821 0.08376245 0.08277916 0.081701 0.08050648 0.07937711 0.07860187 0.07829038
 0.07828151 0.07836685 0.07847242 0.07859001 0.07868478 0.07872912 0.0787397 0.07877663 0.0789503 0.07935616
 0.07994107 0.08050631 0.08088699 0.08108169 0.08119787 0.08128333 0.08120327 0.08076512 0.08004433 0.07942086
 0.07910001 0.07876998 0.0780122 0.07693447 0.07610896 0.07592727 0.07624601 0.07664215 0.0768124 0.07670906
 0.0764869 0.07642844 0.07677545 0.0774509</values></Ydata></ScSm><ScRf><Ydata ylabel="Single channel"><values byteorder="INTEL" format="FLOAT32" numvalues="1820"> 0.06072278 0.06088256 0.06098575 0.06102403 0.06101595 0.06101023 0.06106591 0.06121144 0.06141764 0.06161359
 0.0617396 0.06178942 0.06179219 0.06176274 0.06170277 0.06165019 0.06168014 0.06183038 0.06204598 0.06221397
 0.0622545 0.06219295 0.06214657 0.06220747 0.06231609 0.0622798 0.06195644 0.06142021 0.0609131 0.06062233
 0.06056394 0.06072534 0.06118637 0.06189824 0.06242924 0.06226939 0.06146838 0.06067462 0.06041569 0.06059106
 0.06076863 0.06068939 0.06035176 0.05991262 0.05972973 0.06026658 0.06163593 0.06321985 0.06389113 0.0627285
 0.05967905 0.05576046 0.05267736 0.05190533 0.0536548 0.05658352 0.05880249 0.05938029 0.05878732 0.05793611
 0.05719661 0.05651702 0.05606876 0.05628667 0.05727074 0.05837606 0.05854825 0.05723169 0.0550306 0.05327423
 0.05280135 0.05343901 0.05471867 0.05638706 0.05768327 0.05692944 0.05318067 0.04830967 0.04617104 0.04893976
 0.05479328 0.05968914 0.06095632 0.0588045 0.05516981 0.05210689 0.05099278 0.05215347 0.05482758 0.05780094
 0.06013539 0.06119814 0.06049438 0.05810209 0.05509883 0.05304181 0.05301369 0.05519617 0.0588237 0.06224921
 0.06369537 0.06256851 0.05985364 0.05707586 0.05529664 0.05511281 0.05680703 0.06005694 0.0639158 0.06735493
 0.06967913 0.07060529 0.07033221 0.06941598 0.06834303 0.06743781 0.06715398 0.06780265 0.06880139 0.06888892
 0.06749757 0.06551617 0.06437744 0.0645754 0.06527008 0.06530811 0.06439054 0.06288996 0.06071183 0.05726029
 0.05281238 0.04889694 0.04676712 0.04643844 0.04759542 0.05008828 0.05286722 0.05391278 0.05244437 0.05033885
 0.050272 0.05286053 0.05633864 0.0587145 0.05962228 0.06017842 0.06154785 0.06375334 0.06553793 0.06531123
 0.06271835 0.05952591 0.05837889 0.06020635 0.06332397 0.0655052 0.06633321 0.06696495 0.06810809 0.06892318
 0.06790096 0.06466173 0.0609153 0.0593949 0.06146902 0.06577002 0.06919225 0.06918868 0.06547974 0.06011005
 0.05585904 0.0543216 0.05548955 0.05881698 0.0638261 0.0695307 0.07417767 0.0762289 0.07547639 0.07296935
 0.06981261 0.06614189 0.06168336 0.05744245 0.05592533 0.05877796 0.06468297 0.07045187 0.07386786 0.07479669
 0.07395674 0.07155783 0.06750321 0.06270835 0.05953566 0.05996142 0.06319214 0.06610853 0.06652562 0.06518787
 0.06417542 0.0643183 0.06487584 0.06512198 0.0653895 0.0665013 0.06858478 0.07075136 0.07195163 0.07193008
 0.07127377 0.07073298 0.07053754 0.07022594 0.06929395 0.06819716 0.06829515 0.07035959 0.07351138 0.07612413
 0.07745597 0.0779182 0.07798347 0.07734966 0.07537244 0.072275 0.06964365 0.06925467 0.07135887 0.07451946
 0.07710132 0.07844867 0.07874486 0.07842348 0.07786937 0.07729334 0.07679866 0.07664605 0.07718389 0.07834579
 0.07954124 0.08024478 0.08042555 0.08027944 0.07985191 0.07911927 0.07826123 0.07765978 0.07762316 0.07815792
 0.07901797 0.07992029 0.08064117 0.08097975 0.08083385 0.08035119 0.07984108 0.07949219 0.07930625 0.0792965
 0.07955641 0.08007997 0.08066961 0.08110352 0.08131338 0.08135714 0.08129665 0.0811539 0.08094858 0.08074531
 0.08065975 0.08078308 0.08107218 0.08137076 0.08158979 0.08179881 0.08206797 0.08230026 0.08233166 0.08215541
 0.08194301 0.08185579 0.08191203 0.0820301 0.08212106 0.08210535 0.08190322 0.0815068 0.08107671 0.08088034
 0.08107741 0.08160555 0.08228181 0.08293387 0.08342613 0.08368212 0.08374087 0.0837179 0.08367231 0.0835647
 0.0833614 0.08313632 0.08305047 0.08322991 0.08364963 0.08414348 0.08453973 0.08477001 0.08486177 0.08489704
 0.0849833 0.08517227 0.08537776 0.08545209 0.08537043 0.08527337 0.08530164 0.08543859 0.08554424 0.08552217
 0.08542878 0.08541054 0.08554597 0.08577554 0.08598917 0.08614888 0.08630505 0.0865056 0.0867054 0.08678392
 0.08667535 0.08646388 0.08630292 0.08625199 0.08625726 0.08628625 0.0863917 0.08660863 0.08685764 0.08701116
 0.08703357 0.08700949 0.08703193 0.08709445 0.08710986 0.08701697 0.08684569 0.08668469 0.08660759 0.08662982
 0.08671062 0.08678256 0.08679113 0.08672424 0.08661141 0.08649357 0.08639687 0.08634175 0.08636846 0.08652119
 0.08677857 0.08701429 0.08706989 0.08689483 0.0866061 0.08638845 0.08632755 0.08634654 0.0863017 0.08612353
 0.08585948 0.08560478 0.08541815 0.08529817 0.08521052 0.08512785 0.08506137 0.08506303 0.08517232 0.08534002
 0.08542904 0.08533041 0.08507396 0.08479714 0.08461527 0.08454747 0.08454451 0.08454847 0.08453977 0.08455423
 0.08463309 0.08474095 0.08477664 0.08469161 0.08455619 0.08448717 0.08454969 0.08473385 0.08496609 0.08512944
 0.0851381 0.08502477 0.08491534 0.08489968 0.08496212 0.08504321 0.08512066 0.08520606 0.08530085 0.08539632
 0.0855065 0.08566931 0.0859063 0.08619003 0.08645438 0.08663927 0.08673852 0.08681446 0.08695659 0.08721009
 0.08753915 0.08785982 0.08811004 0.08829356 0.08846086 0.08864951 0.08885311 0.08905572 0.08927649 0.08955009
 0.08987167 0.09019587 0.09049158 0.09076937 0.09105263 0.09134722 0.09164812 0.09196354 0.0923216 0.09274185
 0.09319095 0.09358072 0.09383721 0.09397432 0.09408816 0.09428428 0.09460735 0.09500673 0.09535533 0.09554596
 0.09560457 0.09567735 0.09587204 0.09614615 0.09639315 0.0966049 0.09688483 0.0973018 0.09778625 0.09819425
 0.09844892 0.09859879 0.09874708 0.09893959 0.09912984 0.09925398 0.09932124 0.09940315 0.09954197 0.09971717
 0.09991653 0.1001852 0.1005609 0.1009955 0.101389 0.1016826 0.1018849 0.1020288 0.1021395 0.1022276
 0.1022866 0.102312 0.102334 0.1023982 0.1025024 0.1025888 0.1026231 0.1026442 0.102715 0.102858
 0.1030638 0.1033274 0.103635 0.1039407 0.1042079 0.1044707 0.1048016 0.1051961 0.1055385 0.1057202
 0.1057594 0.1057591 0.105779 0.1058115 0.1058659 0.1059996 0.1062482 0.1065765 0.1069249 0.1072713
 0.1076255 0.1079836 0.1083069 0.1085412 0.1086527 0.1086562 0.1086153 0.1086138 0.1087174 0.1089429
 0.1092513 0.1095733 0.109852 0.1100565 0.1101636 0.1101609 0.1100923 0.1100666 0.1101722 0.1103769
 0.1105416 0.110537 0.1103261 0.1099397 0.1094132 0.1087756 0.1080806 0.1074134 0.1068553 0.1064511
 0.106218 0.1061826 0.1063883 0.1068497 0.1075 0.1082109 0.1088665 0.1093921 0.1097101 0.1097243
 0.1093925 0.1087878 0.1080545 0.1073159 0.1066387 0.1060388 0.1054857 0.1049377 0.1044245 0.104092
 0.1041341 0.1046762 0.1057119 0.1071098 0.1086549 0.1101182 0.1113464 0.1123186 0.1131162 0.1138323
 0.1145126 0.1151719 0.1158295 0.1164942 0.1171324 0.1176921 0.1181629 0.1185821 0.1189848 0.1193707
 0.1197174 0.1200042 0.1202314 0.1204309 0.1206377 0.1208353 0.1209546 0.1209491 0.1208487 0.1207194
 0.120587 0.1204193 0.1201646 0.1197965 0.1193488 0.118939 0.1187527 0.1189677 0.1196506 0.120712
 0.1219749 0.1232895 0.1245711 0.1257436 0.1267065 0.1273939 0.1278392 0.1281462 0.1284105 0.1286831
 0.1289812 0.1292997 0.129617 0.129911 0.1301787 0.1304423 0.1307335 0.1310648 0.1314083 0.1317163
 0.1319684 0.1321972 0.1324622 0.1327994 0.1331886 0.1335711 0.1339105 0.1342277 0.1345556 0.1348744
 0.1351283 0.1353042 0.1354551 0.1356482 0.1359179 0.1362605 0.1366357 0.1369742 0.1372235 0.1373967
 0.1375572 0.1377543 0.1379903 0.1382435 0.1384994 0.1387528 0.1390025 0.1392564 0.1395328 0.1398357
 0.1401322 0.1403725 0.1405397 0.1406721 0.1408283 0.1410345 0.1412684 0.1414893 0.1416857 0.1418934
 0.14216 0.1424859 0.1428105 0.143064 0.1432282 0.1433413 0.1434535 0.143593 0.1437655 0.1439671
 0.144187 0.1444086 0.1446206 0.1448256 0.1450342 0.14525 0.145466 0.145674 0.145874 0.146074
 0.146283 0.1465035 0.1467347 0.1469836 0.1472636 0.1475713 0.1478689 0.1481077 0.1482707 0.1483868
 0.1485009 0.1486398 0.1488052 0.1489866 0.1491744 0.1493653 0.1495626 0.1497706 0.1499872 0.1502037
 0.1504118 0.1506112 0.1508088 0.1510112 0.1512222 0.1514446 0.1516796 0.1519197 0.1521493 0.1523566
 0.1525427 0.1527196 0.1529005 0.1530901 0.153282 0.1534683 0.1536521 0.1538447 0.1540498 0.154257
 0.1544536 0.1546359 0.1548093 0.1549842 0.1551709 0.1553727 0.1555838 0.1557947 0.1560004 0.1562006
 0.1563969 0.1565913 0.1567866 0.1569865 0.1571921 0.1573984 0.1575994 0.157796 0.1579961 0.1582048
 0.1584164 0.158618 0.158803 0.1589797 0.1591642 0.1593613 0.1595609 0.1597549 0.1599493 0.1601537
 0.1603672 0.1605814 0.160791 0.1609966 0.1612026 0.1614132 0.1616268 0.1618365 0.1620387 0.1622381
 0.1624427 0.1626585 0.162885 0.1631156 0.1633433 0.1635665 0.1637861 0.1639987 0.1641998 0.1643881
 0.1645648 0.1647333 0.1649011 0.1650743 0.1652525 0.1654329 0.1656156 0.1658003 0.1659859 0.1661735
 0.1663636 0.1665522 0.1667377 0.1669273 0.1671291 0.1673417 0.1675566 0.1677655 0.1679652 0.1681599
 0.1683565 0.1685578 0.1687636 0.1689745 0.1691893 0.169405 0.1696222 0.1698416 0.1700569 0.1702618
 0.1704603 0.1706593 0.1708597 0.1710621 0.1712695 0.1714805 0.1716909 0.1719007 0.1721116 0.1723221
 0.1725334 0.1727483 0.1729626 0.1731722 0.173382 0.173598 0.1738177 0.1740373 0.1742544 0.1744632
 0.1746628 0.1748652 0.1750821 0.175312 0.1755459 0.1757746 0.1759898 0.1761934 0.1763981 0.1766097
 0.176823 0.1770366 0.1772478 0.1774334 0.1775417 0.1774572 0.1768978 0.1753054 0.1718321 0.1655136
 0.1556657 0.1423291 0.126405 0.1093245 0.09252241 0.07707569 0.06361067 0.05239356 0.04347369 0.03677253
 0.03213475 0.02941946 0.02860506 0.02989964 0.03385549 0.04104237 0.05081972 0.06024897 0.06523758 0.06377327
 0.05784855 0.05164294 0.04804626 0.04725781 0.04803342 0.04931106 0.05075487 0.05255995 0.05506142 0.05835851
 0.06229863 0.06688223 0.07245871 0.07928519 0.08699779 0.09476218 0.1019916 0.1088114 0.1157782 0.1232156
 0.130877 0.1381913 0.1447207 0.1503804 0.155348 0.1598614 0.1640832 0.1680881 0.1719129 0.1755517
 0.1788703 0.1815799 0.1833826 0.1841983 0.1842575 0.1839678 0.1836802 0.1835619 0.1836395 0.1838983
 0.1843232 0.1848921 0.1855744 0.1863365 0.1871448 0.1879721 0.1888031 0.1896239 0.190414 0.1911564
 0.1918433 0.1924703 0.1930368 0.1935528 0.1940304 0.1944721 0.1948783 0.1952609 0.1956352 0.1960033
 0.1963546 0.1966784 0.1969724 0.1972397 0.1974833 0.197705 0.1979096 0.1981057 0.1982992 0.1984921
 0.1986906 0.1989039 0.1991315 0.1993599 0.1995778 0.1997854 0.199988 0.2001896 0.2003905 0.2005868
 0.2007717 0.2009465 0.2011236 0.2013161 0.2015259 0.2017445 0.2019593 0.2021617 0.2023523 0.2025377
 0.2027232 0.2029113 0.2031038 0.2033008 0.2035022 0.2037119 0.2039339 0.2041605 0.2043785 0.2045861
 0.2047924 0.2050028 0.2052158 0.2054284 0.2056313 0.2058066 0.2059465 0.2060727 0.2062259 0.2064308
 0.2066721 0.2069084 0.2071129 0.2072961 0.2074843 0.2076878 0.2078959 0.2080909 0.2082672 0.2084448
 0.2086574 0.2089135 0.2091846 0.2094423 0.2096844 0.2099188 0.2101494 0.2103835 0.2106195 0.2108295
 0.2109833 0.2110988 0.2112477 0.2115007 0.2118599 0.2122478 0.2125746 0.2128181 0.2130232 0.2132438
 0.2135074 0.213793 0.2140032 0.2140291 0.2139124 0.2138812 0.214141 0.2146691 0.2152686 0.2157753
 0.216157 0.216459 0.2167199 0.216935 0.2170649 0.217081 0.2170343 0.2170766 0.2173584 0.2178692
 0.2184273 0.2188655 0.2191686 0.2194043 0.2196124 0.2197946 0.219897 0.2197745 0.2193427 0.2188324
 0.2187208 0.2192765 0.2202571 0.2211642 0.2217318 0.2220602 0.2223385 0.2226127 0.2228362 0.2229122
 0.2225905 0.2216111 0.2202113 0.2192658 0.2195671 0.2210283 0.2228262 0.2242237 0.2250385 0.2254611
 0.2257287 0.225963 0.2260776 0.2257921 0.2249406 0.2238755 0.2233807 0.2239552 0.2252588 0.2264788
 0.2271609 0.2274531 0.2276781 0.2279623 0.2281467 0.2277521 0.2262579 0.2238777 0.2219376 0.2219432
 0.2241107 0.2271025 0.2293454 0.230381 0.230746 0.2308133 0.2302457 0.2286113 0.2260462 0.2231958
 0.2209906 0.2205044 0.2222482 0.2252905 0.2277835 0.2287813 0.2290427 0.2298024 0.2313057 0.2328163
 0.2335694 0.2333655 0.2324399 0.2310377 0.2292946 0.2276281 0.2269732 0.2281179 0.2307481 0.2335618
 0.2354728 0.2364328 0.2368643 0.2363961 0.2336115 0.2277502 0.2208382 0.2171313 0.2193661 0.2259008
 0.2324754 0.2363998 0.2380383 0.2388157 0.2392978 0.2390279 0.2368056 0.231356 0.2233463 0.216635
 0.2156574 0.2210419 0.2289027 0.2344657 0.2353061 0.2315929 0.2252503 0.2194018 0.2170914 0.2194302
 0.225106 0.2316802 0.2370566 0.2400579 0.2404066 0.2386159 0.235969 0.234208 0.2342614 0.2348748
 0.2335725 0.2297775 0.225758 0.2232985 0.2209534 0.2167396 0.2125036 0.2127052 0.2186131 0.2261643
 0.2305194 0.2309662 0.230049 0.2289563 0.2255126 0.2173193 0.206287 0.1987475 0.1999184 0.208482
 0.2177559 0.2222362 0.2219763 0.2206419 0.2206215 0.2205862 0.2173584 0.2100557 0.2022267 0.198883
 0.2011796 0.2053913 0.2073436 0.2057499 0.2007628 0.1926392 0.1841466 0.1814565 0.1889551 0.2038905
 0.2185077 0.2264332 0.2250426 0.2141091 0.1966981 0.1810205 0.1764546 0.1851605 0.199452 0.208851
 0.2084138 0.1996629 0.1861136 0.1708367 0.1578479 0.1526138 0.158816 0.1745948 0.1924952 0.2031554
 0.2005169 0.1865685 0.1717829 0.1675926 0.1759763 0.1880577 0.1940153 0.1919819 0.1867162 0.1834966
 0.1850668 0.1910677 0.1984205 0.204245 0.2081657 0.2090681 0.2020127 0.1841702 0.162684 0.1499515
 0.1507537 0.1598454 0.1718608 0.186117 0.2001019 0.2061918 0.2002419 0.1894134 0.1860505 0.1945778
 0.2077239 0.215409 0.2147178 0.2104241 0.2076521 0.2064376 0.204256 0.2018981 0.2036965 0.2115231
 0.2214992 0.2283275 0.2308142 0.2313709 0.23194 0.2325206 0.2325621 0.2318687 0.2305168 0.2289782
 0.2279762 0.2276821 0.2275581 0.2271652 0.2261361 0.222951 0.2152884 0.2032878 0.19159 0.1856555
 0.1859853 0.1885257 0.1906912 0.1928732 0.1928244 0.1840636 0.1644349 0.1431474 0.13407 0.1423272
 0.1604863 0.1770405 0.1852223 0.183599 0.1726597 0.1550272 0.1381781 0.1320723 0.1410206 0.1595522
 0.1782677 0.1919271 0.1999821 0.2020675 0.197063 0.1863263 0.1749384 0.1687817 0.1709834 0.1805606
 0.1927202 0.2000658 0.196245 0.1822954 0.1693865 0.1705356 0.1869351 0.2059253 0.2152227 0.2153351
 0.2144717 0.2157778 0.2158331 0.2136896 0.2144293 0.2222401 0.2342837 0.2435008 0.2448116 0.2371225
 0.2226515 0.2074101 0.1996323 0.2031404 0.2129279 0.2205356 0.2221935 0.2183396 0.2086574 0.1941329
 0.1822768 0.1826153 0.1956702 0.2117242 0.2218542 0.2260582 0.229208 0.2326557 0.2325799 0.2257625
 0.2149515 0.2071685 0.2067736 0.2116682 0.2168849 0.2198255 0.2202997 0.2175773 0.2108455 0.2025874
 0.1985962 0.2029473 0.2137633 0.2249356 0.2315552 0.2329773 0.2314155 0.2290622 0.2265991 0.2233599
 0.2188104 0.2144665 0.2135878 0.2176988 0.224168 0.2289146 0.2310731 0.2332748 0.2375101 0.2423903
 0.2448436 0.2434739 0.2398964 0.2373314 0.2380138 0.2414138 0.2446341 0.2448846 0.2421347 0.2393886
 0.2399191 0.2441469 0.2495965 0.2537053 0.2559106 0.2571069 0.25813 0.2590321 0.2590438 0.2571502
 0.253516 0.2503273 0.2502458 0.2537679 0.2587567 0.2626621 0.2645882 0.2651437 0.2650328 0.2643159
 0.2628356 0.2608948 0.259264 0.2585718 0.2588568 0.2597277 0.2607707 0.2617251 0.2624596 0.262955
 0.2632713 0.2634656 0.2635717 0.2636478 0.2637407 0.2637953 0.2637135 0.263542 0.2634925 0.2637064
 0.2640745 0.264358 0.264409 0.2641805 0.2636037 0.2626107 0.2612767 0.2597978 0.2582772 0.2566505
 0.2549357 0.253519 0.2530457 0.2539277 0.2559588 0.2584433 0.2606795 0.2623125 0.2633271 0.2638614
 0.264081 0.2641357 0.2641247 0.2640725 0.2639512 0.263737 0.2634393 0.2630826 0.262683 0.2622606
 0.2618619 0.261537 0.2612882 0.2610544 0.2607555 0.2603477 0.2598449 0.2593009 0.2587618 0.258219
 0.2576099 0.2568724 0.255997 0.2550308 0.254052 0.2531364 0.2523172 0.2515603 0.2507964 0.2499785
 0.249086 0.2480884 0.2469699 0.2458049 0.2447483 0.2439058 0.243238 0.2426167 0.2419411 0.2411765
 0.2403191 0.2393713 0.2383441 0.2372587 0.2361382 0.2349969 0.2338279 0.2325981 0.2312691 0.2298288
 0.2282975 0.2267101 0.2250982 0.2234771 0.2218243 0.2200629 0.2180778 0.2157491 0.212971 0.2096556
 0.2057577 0.2013209 0.1964985 0.1915165 0.1865996 0.1819182 0.1775882 0.1737007 0.1703417 0.1675854
 0.1654805 0.1640493 0.1633027 0.1632535 0.1639104 0.1652507 0.1671998 0.1696383 0.1724261 0.1754114
 0.1784236 0.18129 0.1838959 0.1862417 0.1884205 0.1905145 0.1925159 0.1943558 0.1959894 0.1974218
 0.1986686 0.1997288 0.2006055 0.201324 0.2019185 0.2024151 0.2028325 0.2031881 0.2034919 0.2037439
 0.2039459 0.2041163 0.2042836 0.2044656 0.2046639 0.2048815 0.2051338 0.2054424 0.2058244 0.2062849
 0.2068079 0.2073604 0.2079177 0.2084816 0.2090697 0.2097024 0.2104103 0.2112384 0.2122241 0.2133743
 0.2146651 0.21605 0.2174599 0.2188049 0.2199952 0.2209695 0.2217076 0.2222168 0.2225131 0.2226153
 0.2225471 0.2223362 0.2220129 0.2216111 0.2211605 0.2206695 0.2201283 0.2195298 0.2188802 0.2181883
 0.2174621 0.2167203 0.2159919 0.215296 0.2146298 0.2139803 0.2133444 0.2127286 0.2121343 0.2115504
 0.2109638 0.2103739 0.2097893 0.2092167 0.2086538 0.2080841 0.2074713 0.2067684 0.2059475 0.2050157
 0.2039958 0.2028968 0.2017097 0.2004243 0.199046 0.1975942 0.196086 0.1945227 0.1928933 0.1911862
 0.1893882 0.1874828 0.1854751 0.1834234 0.1814267 0.1795684 0.1778714 0.1763006 0.1748042 0.1733571
 0.1719698 0.1706605 0.1694291 0.1682643 0.1671586 0.1661063 0.1650998 0.1641404 0.1632445 0.1624363
 0.1617338 0.1611355 0.1606142 0.1601383 0.159705 0.1593387 0.1590646 0.1588989 0.1588493 0.1588955
 0.1589768 0.1590211 0.1589867 0.1588753 0.1587198 0.1585635 0.1584393 0.1583598 0.1583191 0.1582843
 0.1581836 0.1579174 0.157386 0.156517 0.1552909 0.1537545 0.1520012 0.1501441 0.1483094 0.1466232
 0.1451741 0.1439983 0.1430946 0.1424249 0.1419128 0.141486 0.1411308 0.1408997 0.1408654 0.1410441
 0.1413318 0.1415518 0.1416147 0.141616 0.1417474 0.1421365 0.142772 0.1435349 0.1442842 0.1449363
 0.1454674 0.14586 0.1461018 0.1462246 0.1462798 0.1462771 0.1461924 0.1460137 0.145745 0.1454
 0.1450056 0.1445748 0.1440854 0.1435174 0.1428763 0.1421646 0.1413783 0.1405213 0.1395644 0.1384422
 0.1371858 0.1360203 0.1352528 0.1350791 0.1354941 0.1363187 0.1373253 0.1383835 0.1394253 0.1402583
 0.1406204 0.1405781 0.1407242 0.1417489 0.143779 0.1462412 0.1483807 0.1498106 0.150538 0.1506577
 0.150218 0.1492729 0.1478442 0.1458784 0.1433782 0.1404873 0.1373751 0.1341884 0.1311324 0.1284152
 0.1261244 0.1242652 0.1228326 0.1218655 0.1214861 0.1213046 0.1194041 0.1133549 0.1039895 0.09705164
 0.09834625 0.1071922 0.1169122 0.1218766 0.1219727 0.1202423 0.1187675 0.11784 0.1173267 0.1173662
 0.1181002 0.1193862 0.1208175 0.1219772 0.1227096 0.1230771 0.1230514 0.1222655 0.1199608 0.1152537
 0.1078449 0.09863303 0.08940049 0.08176054 0.07642709 0.07326196 0.07165175 0.07085539 0.07034776 0.07006346
 0.07030398 0.07137145 0.0733088 0.07596462 0.07915843 0.08264214 0.08599733 0.08881073 0.09098727 0.09272398
 0.09415887 0.09520026 0.09571148 0.09570836 0.09533134 0.09472714 0.09400117 0.09320961 0.09232636 0.09125822
 0.08999921 0.08877503 0.08791377 0.08753277 0.0874566 0.08745492 0.08743194 0.08737953 0.08729641 0.08719435
 0.0871057 0.08708562 0.08722866 0.08760542 0.08814443 0.08864961 0.08896624 0.08909358 0.08913486 0.08913277
 0.08894339 0.08837233 0.08751132 0.08675189 0.08627726 0.08573462 0.08469367 0.08330707 0.08222194 0.08187521
 0.08210433 0.08243074 0.08251509 0.08231796 0.08203316 0.08198148 0.0824044 0.0831697 0.08376236 0.08375058
</values></Ydata></ScRf><Data_Parameters_AB><parameter name="DPF">1</parameter><parameter name="NPT">3497</parameter><parameter name="FXV">3996</parameter><parameter name="LXV">500</parameter><parameter name="CSF">1</parameter><parameter name="MXY">0.189857631921768</parameter><parameter name="MNY">-0.0825682878494263</parameter><parameter name="DAT">01/06/2022</parameter><parameter name="TIM">11:24:45.467 (GMT+2)</parameter><parameter name="DXU">WN</parameter></Data_Parameters_AB><AB__Qtest><MainReport name="Quality Test Report"><Header><Line><Legend>Test result ok/not ok [1/0]: </Legend><Value>0</Value></Line><Line><Legend>Method file: </Legend><Value>C:\Users\Public\Documents\Bruker\OPUS_8.2.28\QT\IRBT_v3_default.QT</Value></Line></Header><Matrix><Line><Legend></Legend><Legend>min</Legend><Legend>max</Legend><Legend>measured</Legend></Line><Line><Value>Absorption (X-Range 1):</Value><Value>0.400000</Value><Value>2.000000</Value><Value>0.206443</Value></Line><Line><Value>Noise (X-Range 4):</Value><Value></Value><Value>0.000300</Value><Value>0.000043</Value></Line><Line><Value>Signal/Noise (X-Range 2):</Value><Value>200.000000</Value><Value></Value><Value>116.610621</Value></Line><Line><Value>Signal/Noise (X-Range 3):</Value><Value>40.000000</Value><Value></Value><Value>40.004092</Value></Line><Line><Value>Water vapour (X-Range 5):</Value><Value></Value><Value>0.000300</Value><Value>0.000073</Value></Line><Line><Value>Signal/Water (X-Range 2):</Value><Value>100.000000</Value><Value></Value><Value>68.529356</Value></Line><Line><Value>Signal/Water (X-Range 3):</Value><Value>20.000000</Value><Value></Value><Value>23.509476</Value></Line><Line><Value>Fringes (X-Range 6):</Value><Value></Value><Value>0.000100</Value><Value>0.000087</Value></Line></Matrix></MainReport></AB__Qtest><Data_Parameters_ScSm><parameter name="DPF">1</parameter><parameter name="NPT">1814</parameter><parameter name="FXV">3996.33169228125</parameter><parameter name="LXV">499.541461535156</parameter><parameter name="CSF">1</parameter><parameter name="MXY">0.288163125514984</parameter><parameter name="MNY">0.0340416692197323</parameter><parameter name="DAT">01/06/2022</parameter><parameter name="TIM">11:24:45.467 (GMT+2)</parameter><parameter name="DXU">WN</parameter></Data_Parameters_ScSm><Data_Parameters_ScRf><parameter name="DPF">1</parameter><parameter name="NPT">1820</parameter><parameter name="FXV">4004.04661832813</parameter><parameter name="LXV">495.683998511719</parameter><parameter name="CSF">1</parameter><parameter name="MXY">0.265143692493439</parameter><parameter name="MNY">0.0286050587892532</parameter><parameter name="DAT">01/06/2022</parameter><parameter name="TIM">11:24:19.749 (GMT+2)</parameter><parameter name="DXU">WN</parameter></Data_Parameters_ScRf><Optic_Parameters_Rf><parameter name="APR">0</parameter><parameter name="APT">Open</parameter><parameter name="BMS">KBr</parameter><parameter name="DTC">RT-DLaTGS_IR-Biotyper [Microplate reader]</parameter><parameter name="HPF">0</parameter><parameter name="LPF">10.0</parameter><parameter name="LPV">4000</parameter><parameter name="PGR">0</parameter><parameter name="RCH">Module port</parameter><parameter name="RDX">0</parameter><parameter name="SRC">MIR</parameter><parameter name="VEL">10.0</parameter><parameter name="SON">Off</parameter></Optic_Parameters_Rf><Acquisition_Parameters_Rf><parameter name="ADT">1</parameter><parameter name="AQM">DD</parameter><parameter name="CFE">0</parameter><parameter name="COR">0</parameter><parameter name="DEL">0</parameter><parameter name="DLY">0</parameter><parameter name="HFW">8000</parameter><parameter name="LFW">0</parameter><parameter name="NSR">32</parameter><parameter name="PLF">AB</parameter><parameter name="RES">6</parameter><parameter name="RGN">-1</parameter><parameter name="STR">0</parameter><parameter name="TCL">MakeCompatibleScalar (0, {WSV=1.000000, ARV=0});</parameter><parameter name="TDL">37</parameter><parameter name="RPO">0</parameter></Acquisition_Parameters_Rf><FT_-_Parameters_Rf><parameter name="APF">B3</parameter><parameter name="HFQ">500</parameter><parameter name="LFQ">4000</parameter><parameter name="NLI">0</parameter><parameter name="PHR">24</parameter><parameter name="PHZ">ML</parameter><parameter name="SPZ">NO</parameter><parameter name="ZFF">1</parameter></FT_-_Parameters_Rf><Optic_Parameters_><parameter name="APR">0</parameter><parameter name="APT">Open</parameter><parameter name="BMS">KBr</parameter><parameter name="CHN">Module port</parameter><parameter name="DTC">RT-DLaTGS_IR-Biotyper [Microplate reader]</parameter><parameter name="HPF">0</parameter><parameter name="LPF">10.0</parameter><parameter name="LPV">4000</parameter><parameter name="PGN">0</parameter><parameter name="RDX">0</parameter><parameter name="SRC">MIR</parameter><parameter name="VEL">10.0</parameter><parameter name="SON">Off</parameter></Optic_Parameters_><FT_-_Parameters_><parameter name="APF">B3</parameter><parameter name="HFQ">500</parameter><parameter name="LFQ">4000</parameter><parameter name="NLI">0</parameter><parameter name="PHR">24</parameter><parameter name="PHZ">ML</parameter><parameter name="SPZ">NO</parameter><parameter name="ZFF">1</parameter></FT_-_Parameters_><Acquisition_Parameters_><parameter name="ADT">1</parameter><parameter name="AQM">DD</parameter><parameter name="CFE">0</parameter><parameter name="COR">0</parameter><parameter name="DEL">0</parameter><parameter name="DLY">0</parameter><parameter name="HFW">8000</parameter><parameter name="LFW">0</parameter><parameter name="NSS">32</parameter><parameter name="PLF">AB</parameter><parameter name="RES">6</parameter><parameter name="SOT">0</parameter><parameter name="TCL">MakeCompatibleScalar (0, {WSV=1.000000, ARV=0});</parameter><parameter name="TDL">37</parameter><parameter name="SPO">0</parameter><parameter name="SGN">-1</parameter></Acquisition_Parameters_><Instrument_Parameters_Rf><parameter name="HFL">15800.168544</parameter><parameter name="LFL">0</parameter><parameter name="LWN">15800.168544</parameter><parameter name="ABP">32197</parameter><parameter name="SSP">1</parameter><parameter name="ARG">2</parameter><parameter name="ASG">2</parameter><parameter name="ASS">32</parameter><parameter name="GFW">16</parameter><parameter name="GBW">16</parameter><parameter name="BFW">0</parameter><parameter name="BBW">0</parameter><parameter name="PKA">7307</parameter><parameter name="PKL">4990</parameter><parameter name="PRA">7479</parameter><parameter name="PRL">5001</parameter><parameter name="P2A">1</parameter><parameter name="P2L">1</parameter><parameter name="P2R">1</parameter><parameter name="P2K">1</parameter><parameter name="DAQ">0</parameter><parameter name="AG2">1</parameter><parameter name="SSM">1</parameter><parameter name="RSN">25891</parameter><parameter name="CRR">0</parameter><parameter name="SRT">1654082659.749</parameter><parameter name="DUR">19.6389923095703</parameter><parameter name="TSC">29</parameter><parameter name="MVD">0.840731143951416</parameter><parameter name="AN1">0.225769771524836</parameter><parameter name="AN2">0</parameter><parameter name="VSN">2.485 Apr  4 2017</parameter><parameter name="SRN">0085</parameter><parameter name="CAM">0</parameter><parameter name="INS">IR-Biotyper</parameter><parameter name="FOC">69</parameter><parameter name="RDY">1</parameter><parameter name="ARS">32</parameter></Instrument_Parameters_Rf><Sample_Parameters_><parameter name="BLD"></parameter><parameter name="CNM">Admin</parameter><parameter name="CPY"></parameter><parameter name="DPM"></parameter><parameter name="EXP">IRBT_v3_32Scans.XPM</parameter><parameter name="LCT"></parameter><parameter name="SFM">Microplate, HTS-XT</parameter><parameter name="SNM">220601-1028(v.3)_JMJ44M (D_2)_D4_b7ee1d02-4a83-48cc-a891-0cea973d8f16.0</parameter><parameter name="XPP">C:\Users\Public\Documents\Bruker\OPUS_8.2.28\XPM</parameter><parameter name="IST">OK</parameter><parameter name="CPG">1252</parameter><parameter name="UID">d95b36ea-4e53-4c4b-b0d4-033a6176136e</parameter></Sample_Parameters_><Instrument_Parameters_><parameter name="HFL">15800.168544</parameter><parameter name="LFL">0</parameter><parameter name="LWN">15800.168544</parameter><parameter name="ABP">32197</parameter><parameter name="SSP">1</parameter><parameter name="ASG">2</parameter><parameter name="ARG">2</parameter><parameter name="ASS">32</parameter><parameter name="GFW">16</parameter><parameter name="GBW">16</parameter><parameter name="BFW">0</parameter><parameter name="BBW">0</parameter><parameter name="PKA">7581</parameter><parameter name="PKL">4988</parameter><parameter name="PRA">7843</parameter><parameter name="PRL">4993</parameter><parameter name="P2A">1</parameter><parameter name="P2L">1</parameter><parameter name="P2R">1</parameter><parameter name="P2K">1</parameter><parameter name="DAQ">0</parameter><parameter name="AG2">1</parameter><parameter name="SSM">1</parameter><parameter name="RSN">13571</parameter><parameter name="CRR">0</parameter><parameter name="SRT">1654082685.468</parameter><parameter name="DUR">19.6389923095703</parameter><parameter name="TSC">29</parameter><parameter name="MVD">0.251900166273117</parameter><parameter name="AN1">0.225839326276664</parameter><parameter name="AN2">0</parameter><parameter name="VSN">2.485 Apr  4 2017</parameter><parameter name="SRN">0085</parameter><parameter name="CAM">0</parameter><parameter name="INS">IR-Biotyper</parameter><parameter name="FOC">69</parameter><parameter name="RDY">1</parameter></Instrument_Parameters_><History/></OPUSDataFile>
