<?xml version="1.0" encoding="UTF-8" ?>
<OPUSDataFile><AB><Ydata ylabel="Absorbance Units"><values byteorder="INTEL" format="FLOAT32" numvalues="3497"> -0.08029915 -0.080322 -0.08033223 -0.08032948 -0.08031859 -0.08029985 -0.08028108 -0.0802624 -0.08024703 -0.08023485
 -0.08022663 -0.08022278 -0.08022536 -0.08023426 -0.08025075 -0.08027326 -0.08029997 -0.08032942 -0.08035912 -0.08038895
 -0.08041801 -0.08044659 -0.08047452 -0.08050232 -0.08052993 -0.08055872 -0.08058897 -0.08062191 -0.08065796 -0.08069608
 -0.08073639 -0.08077513 -0.08081206 -0.08084133 -0.08086289 -0.08087373 -0.0808754 -0.0808749 -0.08087487 -0.08088939
 -0.08091755 -0.0809659 -0.08102814 -0.08109704 -0.0811674 -0.0812294 -0.08128396 -0.08132912 -0.0813652 -0.08139365
 -0.08140784 -0.081405 -0.08138311 -0.08133809 -0.0812873 -0.08123164 -0.08119515 -0.08118106 -0.0811936 -0.08123317
 -0.08128101 -0.08133624 -0.08138127 -0.08141873 -0.08145516 -0.08149467 -0.08155802 -0.08164131 -0.08174835 -0.08186708
 -0.08197865 -0.08207638 -0.08214221 -0.08218364 -0.08219953 -0.0822013 -0.08219647 -0.08218618 -0.08217323 -0.08215329
 -0.08212424 -0.08209145 -0.0820542 -0.08202705 -0.08201119 -0.08201934 -0.08205229 -0.08211456 -0.0822055 -0.08231832
 -0.08244941 -0.08257427 -0.08268772 -0.08275463 -0.08277956 -0.08275092 -0.0826877 -0.08261621 -0.08255073 -0.08252201
 -0.08252411 -0.08256751 -0.08262625 -0.08269045 -0.0827353 -0.08274412 -0.08272649 -0.08267681 -0.08263461 -0.08260648
 -0.08261379 -0.08266184 -0.08272687 -0.08280786 -0.08286816 -0.08290821 -0.08292728 -0.08292996 -0.08294597 -0.08297579
 -0.08303934 -0.0831289 -0.08323696 -0.08335333 -0.08345614 -0.0835434 -0.08360266 -0.08364005 -0.0836573 -0.08365709
 -0.08364082 -0.08361173 -0.08356818 -0.0835264 -0.08348851 -0.08347556 -0.0834918 -0.08354767 -0.08364613 -0.08377496
 -0.08393401 -0.08406073 -0.08415145 -0.08413274 -0.08401511 -0.08382814 -0.08358812 -0.08337387 -0.08318788 -0.08307688
 -0.08303318 -0.08307017 -0.08316424 -0.08329788 -0.08343726 -0.08354577 -0.08361405 -0.08361804 -0.08359203 -0.08354212
 -0.08350319 -0.08348993 -0.08349784 -0.08353055 -0.08356313 -0.08359287 -0.0836084 -0.08360869 -0.08360501 -0.08359848
 -0.08360904 -0.08363605 -0.08368745 -0.08375727 -0.08382843 -0.08389325 -0.08392089 -0.08391536 -0.08386496 -0.08378845
 -0.08370265 -0.08362477 -0.08357617 -0.08356068 -0.0835885 -0.08365034 -0.083748 -0.08385976 -0.08398271 -0.08408855
 -0.08417154 -0.08421701 -0.08422155 -0.08419417 -0.08413514 -0.08405936 -0.08396708 -0.08386352 -0.08374866 -0.08362413
 -0.08349188 -0.08335923 -0.08323053 -0.08311971 -0.08303171 -0.08298238 -0.0829716 -0.08300909 -0.08308173 -0.08318561
 -0.08329751 -0.08340304 -0.08348781 -0.08354036 -0.08356554 -0.08356109 -0.08354035 -0.0835048 -0.08346727 -0.08342901
 -0.08340202 -0.08338714 -0.0833915 -0.08341471 -0.08345112 -0.08349878 -0.08354119 -0.08357821 -0.08359925 -0.08360827
 -0.0836098 -0.08360793 -0.08361232 -0.08362389 -0.08364789 -0.0836833 -0.08372997 -0.08379017 -0.08386385 -0.08395755
 -0.08407602 -0.08421437 -0.08437742 -0.08453205 -0.08467475 -0.08476949 -0.0848098 -0.08480167 -0.08474499 -0.08465336
 -0.08452639 -0.08435337 -0.08413775 -0.0838949 -0.08363632 -0.08341709 -0.08324286 -0.08316121 -0.08315941 -0.08324569
 -0.08338176 -0.08352367 -0.08364359 -0.08369242 -0.08369261 -0.08364086 -0.08357032 -0.08349674 -0.08342803 -0.08337149
 -0.0833165 -0.08326251 -0.0831985 -0.08312254 -0.08303501 -0.08293564 -0.08283406 -0.0827311 -0.08264174 -0.082567
 -0.08252309 -0.08250721 -0.08252089 -0.08255236 -0.0825709 -0.08256914 -0.08251332 -0.08241903 -0.08229186 -0.08214741
 -0.08200555 -0.08186078 -0.08171745 -0.08156093 -0.08138378 -0.08118633 -0.08096349 -0.08073764 -0.08051108 -0.08030748
 -0.08013082 -0.07998428 -0.07986889 -0.07975875 -0.07965211 -0.07951338 -0.07934501 -0.07914664 -0.07892505 -0.07871006
 -0.07850122 -0.07831246 -0.07814044 -0.07798487 -0.07784449 -0.07772054 -0.07760336 -0.07748975 -0.07735677 -0.07718936
 -0.07697431 -0.07669938 -0.07637346 -0.07599758 -0.07557513 -0.075107 -0.07459334 -0.07403267 -0.07344376 -0.07282751
 -0.07220832 -0.07158726 -0.07098218 -0.07039402 -0.06983934 -0.06931692 -0.06883315 -0.06838096 -0.06794462 -0.06751852
 -0.06708349 -0.0666417 -0.06619196 -0.06572606 -0.06524281 -0.06471478 -0.06411946 -0.06345934 -0.06271991 -0.06195259
 -0.06117088 -0.06040188 -0.05965572 -0.0589241 -0.05820714 -0.05749663 -0.05679175 -0.05609843 -0.05541744 -0.05476621
 -0.05414413 -0.05356013 -0.05300327 -0.05243743 -0.05184177 -0.0511308 -0.05031702 -0.04936605 -0.04834467 -0.047333
 -0.04635814 -0.0454867 -0.04467776 -0.0439284 -0.04318927 -0.0424362 -0.04164908 -0.04081292 -0.03994421 -0.03904174
 -0.03813481 -0.03722772 -0.03632962 -0.03544207 -0.03454555 -0.0336391 -0.03270229 -0.03173801 -0.03075892 -0.02976962
 -0.02879852 -0.0278434 -0.02691368 -0.02600296 -0.02510379 -0.02421063 -0.02331288 -0.02240854 -0.02148899 -0.02056448
 -0.01963704 -0.0187219 -0.01783171 -0.01695183 -0.01608683 -0.01519016 -0.01425157 -0.01325205 -0.01218293 -0.01109328
 -0.009985438 -0.008914832 -0.007882486 -0.006894321 -0.005947799 -0.00502621 -0.004127891 -0.003237917 -0.002354538 -0.00146467
 -0.0005689149 0.0003377442 0.001253898 0.002176767 0.00311409 0.004069819 0.005056951 0.006088931 0.007158595 0.008271838
 0.009396562 0.01052536 0.01163167 0.01270838 0.01374537 0.01473979 0.01569485 0.01661002 0.01750658 0.01838585
 0.01927512 0.02017441 0.02109597 0.02203867 0.0230043 0.02399176 0.02500146 0.02602687 0.02705689 0.02808323
 0.02908633 0.03007306 0.03103963 0.03200413 0.03297986 0.03396876 0.03497942 0.0359911 0.0370008 0.03798532
 0.03893807 0.03985469 0.04073177 0.0415905 0.04243159 0.04328893 0.04416371 0.04507341 0.04601565 0.04697849
 0.04795898 0.04893694 0.04991306 0.05087917 0.05183659 0.0527844 0.05372296 0.05465253 0.05557288 0.05648509
 0.05738495 0.05827031 0.05913728 0.05998148 0.06081 0.06162348 0.06243092 0.06323563 0.06403326 0.06482363
 0.06560269 0.06636968 0.06713609 0.0679024 0.06867719 0.06945951 0.07024341 0.07102954 0.07181719 0.07260877
 0.07341335 0.07422689 0.07504714 0.07586619 0.07667052 0.07746013 0.07822882 0.07898291 0.07972456 0.0804593
 0.08118927 0.08192131 0.08265822 0.08340262 0.08415742 0.08491062 0.0856613 0.08639716 0.08711676 0.08782485
 0.0885217 0.08921466 0.08990257 0.09057816 0.09124029 0.09187882 0.09249587 0.09309185 0.09367055 0.09423855
 0.09480128 0.09536867 0.0959451 0.09654085 0.09714963 0.09777288 0.09839565 0.09901111 0.09961106 0.1001911
 0.1007501 0.1012873 0.101803 0.1022957 0.10278 0.1032562 0.1037557 0.1042797 0.1048419 0.1054393
 0.1060511 0.1066753 0.1072901 0.1078999 0.1085071 0.1091135 0.1097262 0.110338 0.1109429 0.1115317
 0.1120927 0.1126208 0.1131075 0.1135557 0.1139619 0.114341 0.1146951 0.1150427 0.1153885 0.1157408
 0.1161017 0.1164711 0.1168492 0.1172357 0.1176305 0.1180323 0.1184411 0.1188573 0.1192819 0.1197206
 0.1201704 0.1206287 0.1210853 0.1215172 0.1219211 0.1222759 0.1226027 0.1229101 0.1232303 0.1235928
 0.1239984 0.124465 0.1249454 0.1254321 0.1258713 0.1262455 0.126552 0.1267835 0.1269924 0.1271822
 0.1273983 0.1276416 0.1278957 0.1281565 0.1283738 0.12855 0.1286665 0.1287359 0.1287859 0.1288286
 0.1289039 0.1290133 0.1291792 0.1293883 0.1296385 0.129909 0.1301819 0.1304553 0.1307162 0.1309983
 0.1313087 0.1316788 0.1321246 0.1326132 0.1331488 0.1336406 0.1340816 0.1344064 0.134613 0.1347209
 0.1347363 0.1347294 0.1347009 0.1346929 0.1346977 0.1347092 0.1347317 0.1347645 0.1348302 0.1349656
 0.1351739 0.1354859 0.1358526 0.1362561 0.1366352 0.1369472 0.1371924 0.1373512 0.1374882 0.1376127
 0.1377829 0.1380123 0.1382956 0.1386359 0.1389738 0.1393063 0.1395678 0.139759 0.139858 0.1398766
 0.1398587 0.139823 0.1398523 0.1399557 0.1401989 0.1405623 0.1410558 0.1416276 0.142235 0.1428196
 0.1433225 0.1437294 0.1440062 0.1442062 0.1443326 0.1444623 0.1446136 0.1448298 0.1451204 0.1454978
 0.1459634 0.1465334 0.1472084 0.1479926 0.1488791 0.1498068 0.1507564 0.1515976 0.1523184 0.1528
 0.1530702 0.1531137 0.1530048 0.1528402 0.1526925 0.1526852 0.152815 0.1531406 0.1535612 0.1540557
 0.1544953 0.1548294 0.1549941 0.1549556 0.1547529 0.1543795 0.1539415 0.1534466 0.1529887 0.152572
 0.1522183 0.1519233 0.1516506 0.1513988 0.1511392 0.1508807 0.1506378 0.1504155 0.1502399 0.1500897
 0.149955 0.1497864 0.1495318 0.1491467 0.1485736 0.1478231 0.1468699 0.1457957 0.1446134 0.143427
 0.1422625 0.1411823 0.1402023 0.1393262 0.1385579 0.1378603 0.1372314 0.1366057 0.13598 0.1352933
 0.134554 0.1337682 0.1329568 0.1321961 0.1314875 0.1308839 0.1303447 0.1298349 0.1293114 0.1287038
 0.1280255 0.1272504 0.1264452 0.1256329 0.1248755 0.124204 0.1236297 0.1231687 0.1227728 0.1224429
 0.1220889 0.1217033 0.1212128 0.1206142 0.1199178 0.1191311 0.1183406 0.1175521 0.1168462 0.1162137
 0.1156697 0.1151961 0.1147608 0.1143506 0.1139306 0.1134978 0.1130345 0.1125465 0.1120314 0.1115
 0.1109569 0.1104112 0.1098672 0.10933 0.1088014 0.108285 0.1077818 0.10729 0.1068102 0.1063297
 0.1058479 0.1053471 0.1048271 0.1042778 0.1037008 0.103098 0.1024737 0.1018409 0.1012052 0.1005861
 0.09998517 0.09941635 0.09887007 0.09834365 0.0978214 0.09728935 0.09674244 0.09617112 0.09558791 0.09499461
 0.094404 0.09382144 0.09324221 0.09266724 0.09208326 0.09148856 0.09088323 0.09026732 0.08965604 0.08905002
 0.08846184 0.08789016 0.08733423 0.08679184 0.08625501 0.08572247 0.08518717 0.08464944 0.08410653 0.08355993
 0.08300948 0.0824587 0.08190762 0.08136739 0.08083944 0.08034828 0.07990287 0.07951996 0.07921278 0.07894561
 0.07872234 0.07845059 0.07812261 0.07766387 0.07707042 0.07636597 0.07555901 0.07476009 0.07397712 0.0733167
 0.07276881 0.07236299 0.07206861 0.07183478 0.0716266 0.07136264 0.07103389 0.07058799 0.07006378 0.06946544
 0.06885637 0.06827434 0.06774597 0.06729776 0.06689741 0.06654262 0.06620014 0.06585893 0.06554429 0.06525522
 0.06505211 0.06493811 0.06492788 0.06501521 0.0651281 0.06525393 0.06527958 0.06520518 0.06496232 0.06457856
 0.064077 0.06349972 0.06292786 0.06237874 0.06191266 0.0615013 0.06114512 0.06080688 0.06045911 0.06010864
 0.05974661 0.05940884 0.05910692 0.05884048 0.0586155 0.05838969 0.05815828 0.05790847 0.05763934 0.05739924
 0.05719059 0.05706139 0.05700488 0.05700763 0.057057 0.05709937 0.05713172 0.05711741 0.05706673 0.0569799
 0.05686769 0.05674669 0.05661023 0.05646531 0.05628135 0.05604564 0.05572968 0.05531199 0.05481387 0.05422601
 0.0536299 0.0530346 0.0525202 0.05209897 0.05177099 0.05153701 0.05130986 0.05108413 0.0507628 0.05035149
 0.04982854 0.04921566 0.04857766 0.04793401 0.04736889 0.04687576 0.04648817 0.04617457 0.0459135 0.04567445
 0.04542379 0.04515302 0.04484516 0.04451348 0.0441563 0.04379866 0.04344571 0.04311944 0.04282719 0.04255881
 0.04231698 0.04204849 0.04175045 0.04137542 0.04092569 0.04042194 0.03987364 0.03935301 0.03885867 0.03842983
 0.03804626 0.03767781 0.03731032 0.03689896 0.03646 0.03599037 0.03552075 0.03507718 0.03467175 0.03432154
 0.0340165 0.03375644 0.03353247 0.03334095 0.03318425 0.03306272 0.0329759 0.03292542 0.03288865 0.03286455
 0.03280632 0.03271183 0.03253874 0.03229156 0.03197309 0.03159723 0.03121584 0.03084077 0.03052927 0.03027957
 0.03011579 0.03002814 0.03001359 0.03006622 0.0301802 0.03035243 0.03058166 0.03085909 0.03118362 0.0315384
 0.03192039 0.03231017 0.03270336 0.03309231 0.0334736 0.03387213 0.03428886 0.03478178 0.03535352 0.03605567
 0.03688344 0.03783583 0.03889934 0.04002374 0.04119831 0.04236961 0.0435386 0.0446818 0.04580707 0.04691513
 0.04801164 0.04910183 0.05018799 0.05127189 0.05235784 0.05344788 0.05454499 0.05565339 0.05675809 0.0578613
 0.0589205 0.05993317 0.06084741 0.06165991 0.06233934 0.06288543 0.06329202 0.06355923 0.06368368 0.06366628
 0.06350153 0.0632054 0.06280289 0.06233742 0.06188725 0.06150386 0.0612842 0.0612427 0.0614355 0.06181915
 0.06239153 0.06308755 0.06387949 0.06473414 0.0656331 0.06658646 0.06759166 0.0686731 0.06983389 0.07108145
 0.07241675 0.07381871 0.07528515 0.07677769 0.07829568 0.07981367 0.08133778 0.08287767 0.08444011 0.0860545
 0.08770551 0.08940025 0.09106696 0.0926558 0.09400786 0.09500891 0.09543719 0.09513796 0.09396734 0.09179191
 0.08872998 0.08473258 0.08021076 0.07519864 0.07020584 0.06528907 0.0608017 0.05677109 0.05328467 0.05033633
 0.04782199 0.04572659 0.04390078 0.04233756 0.0409328 0.03968336 0.03853258 0.03747166 0.03646101 0.03549166
 0.03453362 0.03359413 0.03266431 0.03176952 0.03092057 0.03014116 0.02944491 0.02883758 0.02832431 0.02789995
 0.02756399 0.02731441 0.02715044 0.027078 0.02709751 0.0272123 0.0274207 0.02769732 0.02803278 0.02835284
 0.02864392 0.02880862 0.02884845 0.02870842 0.02841992 0.02800507 0.02751413 0.02701486 0.02655054 0.02618075
 0.0259275 0.02582029 0.02586412 0.02606557 0.0264316 0.02696009 0.0276829 0.02860386 0.02976118 0.03116799
 0.03275883 0.03453552 0.03619339 0.03770566 0.03857246 0.03877834 0.03793985 0.0361284 0.03338759 0.02987613
 0.0260184 0.02195456 0.01814641 0.01461519 0.01159295 0.008988477 0.006808965 0.004940869 0.003315494 0.001869843
 0.0005593965 -0.0006304704 -0.001711621 -0.002687065 -0.003557688 -0.004332772 -0.005012357 -0.005614789 -0.006140915 -0.006619716
 -0.0070527 -0.007467753 -0.007864439 -0.008253609 -0.008632418 -0.008994861 -0.00933923 -0.009657418 -0.009950501 -0.01021554
 -0.01045722 -0.01067777 -0.01088864 -0.01109816 -0.01132233 -0.01157491 -0.01185871 -0.01218447 -0.01252375 -0.01287511
 -0.01319298 -0.01346714 -0.01367863 -0.01382046 -0.01392594 -0.01399623 -0.01408479 -0.01419274 -0.01433806 -0.01451592
 -0.0146977 -0.0148812 -0.01503805 -0.01517858 -0.01531447 -0.0154596 -0.01564915 -0.01587976 -0.01616753 -0.01648725
 -0.01682474 -0.01715217 -0.01744723 -0.01769885 -0.01789419 -0.018043 -0.01814223 -0.01821847 -0.01827388 -0.01834349
 -0.01843176 -0.0185607 -0.01873274 -0.0189374 -0.01917318 -0.01940753 -0.01963923 -0.01984325 -0.02002197 -0.02017156
 -0.02029593 -0.02040321 -0.02049716 -0.02058806 -0.02067913 -0.02078 -0.02088824 -0.02100766 -0.02112655 -0.02123998
 -0.02133514 -0.02140296 -0.02144664 -0.02146138 -0.02147215 -0.02148106 -0.02151945 -0.02159227 -0.02170949 -0.02187293
 -0.02205895 -0.02226577 -0.02245606 -0.02263016 -0.02277192 -0.0228867 -0.02298869 -0.02308257 -0.02319035 -0.02330904
 -0.02344543 -0.02358942 -0.02373119 -0.02386107 -0.02396492 -0.02404387 -0.02409044 -0.02412285 -0.02414415 -0.02418041
 -0.02424058 -0.02433715 -0.0244766 -0.02464638 -0.02484714 -0.02505301 -0.02526226 -0.02545516 -0.02563124 -0.02578572
 -0.02591964 -0.02603854 -0.0261437 -0.02624342 -0.02633849 -0.02643527 -0.02653415 -0.0266389 -0.02674934 -0.02686755
 -0.02699074 -0.02711799 -0.02724406 -0.02736535 -0.0274786 -0.02758044 -0.02767411 -0.02775922 -0.02784223 -0.02792453
 -0.02800909 -0.02809675 -0.02818562 -0.02827566 -0.02836403 -0.02845055 -0.02853257 -0.02860948 -0.02867558 -0.02872999
 -0.02876463 -0.0287814 -0.02877936 -0.02876586 -0.02875346 -0.02875072 -0.02877568 -0.0288291 -0.0289207 -0.02903994
 -0.02918463 -0.02933999 -0.02949891 -0.02965256 -0.02979598 -0.02992968 -0.03005238 -0.03016976 -0.03028242 -0.0303942
 -0.03050559 -0.03061388 -0.03071881 -0.0308142 -0.03090021 -0.0309751 -0.03104017 -0.03110041 -0.03115694 -0.03121592
 -0.03127667 -0.03134101 -0.03140734 -0.03147413 -0.03154036 -0.0316045 -0.03166623 -0.03172521 -0.03178034 -0.03183111
 -0.03187651 -0.03191552 -0.03195069 -0.03198158 -0.03201537 -0.03205282 -0.03210002 -0.03215769 -0.0322237 -0.03229773
 -0.03237093 -0.03244295 -0.03250683 -0.03256347 -0.03261313 -0.0326573 -0.03270055 -0.03274352 -0.03278971 -0.0328387
 -0.03289132 -0.03294713 -0.03300574 -0.03306761 -0.03313304 -0.03320203 -0.03327536 -0.03334991 -0.03342587 -0.03349601
 -0.03355902 -0.03360904 -0.03364448 -0.03366847 -0.03368075 -0.03369487 -0.03371148 -0.03374249 -0.03378699 -0.03384266
 -0.03390678 -0.03396463 -0.03401625 -0.03405238 -0.03407843 -0.03410051 -0.03412386 -0.03416019 -0.03420671 -0.03426678
 -0.03433101 -0.03439398 -0.03444977 -0.03449277 -0.03452672 -0.03455051 -0.0345737 -0.03459822 -0.0346298 -0.03467011
 -0.03471532 -0.0347655 -0.03481124 -0.03485222 -0.03488456 -0.03490927 -0.03493405 -0.03495996 -0.03499719 -0.03504378
 -0.0351001 -0.03516164 -0.035219 -0.03527032 -0.03530788 -0.03533491 -0.03535164 -0.03536168 -0.03536814 -0.03537108
 -0.03537106 -0.03536839 -0.03536244 -0.03535759 -0.0353547 -0.03535642 -0.03536376 -0.03537249 -0.03538238 -0.03539
 -0.03539539 -0.03540396 -0.035416 -0.03543763 -0.03546703 -0.03549886 -0.03553071 -0.03555134 -0.03556221 -0.03556024
 -0.03554939 -0.03553471 -0.03551707 -0.03549954 -0.03548086 -0.03545986 -0.03543985 -0.03542114 -0.03541012 -0.03540972
 -0.0354198 -0.03544202 -0.03546755 -0.03549548 -0.03551854 -0.03553584 -0.03554843 -0.03555642 -0.03556357 -0.03556971
 -0.03557442 -0.03557749 -0.03557701 -0.03557431 -0.03557219 -0.03557279 -0.03558248 -0.03560087 -0.03563103 -0.03566925
 -0.0357134 -0.03575906 -0.03580238 -0.03584132 -0.03587362 -0.0359 -0.03591989 -0.03593593 -0.03594853 -0.03595995
 -0.03597073 -0.03598051 -0.03598936 -0.03599589 -0.03600011 -0.03600385 -0.03600752 -0.03601642 -0.03603048 -0.03605277
 -0.03608188 -0.0361151 -0.03615087 -0.0361842 -0.0362154 -0.03624262 -0.03626704 -0.03628968 -0.03630986 -0.03632794
 -0.03634145 -0.03634892 -0.0363503 -0.03634448 -0.0363357 -0.03632449 -0.03631532 -0.03630915 -0.03630627 -0.03630689
 -0.03630884 -0.03631207 -0.03631701 -0.03632385 -0.03633492 -0.03634991 -0.03636876 -0.03639021 -0.03641032 -0.03642803
 -0.03643878 -0.03644313 -0.03643955 -0.03643003 -0.0364157 -0.03639931 -0.03638306 -0.03636903 -0.03635921 -0.03635282
 -0.03635072 -0.03634857 -0.03634556 -0.03633857 -0.03632655 -0.03631238 -0.03629604 -0.03628347 -0.03627488 -0.03627045
 -0.03626949 -0.03626465 -0.03625559 -0.03623593 -0.03620749 -0.03617224 -0.03613321 -0.0360981 -0.03606828 -0.03604997
 -0.03604091 -0.03604173 -0.03604805 -0.0360572 -0.03606538 -0.03607007 -0.03606914 -0.03606137 -0.03604573 -0.03602144
 -0.03599023 -0.03595169 -0.03591221 -0.03587217 -0.03583879 -0.03581236 -0.0357943 -0.03578413 -0.03577735 -0.03577351
 -0.03576797 -0.03576076 -0.03574963 -0.03573461 -0.03571434 -0.0356897 -0.03566095 -0.03563016 -0.03559951 -0.03557066
 -0.03554586 -0.0355245 -0.03550683 -0.03549208 -0.03547993 -0.03547055 -0.03546411 -0.03545983 -0.03545798 -0.03545474
 -0.03544993 -0.03543831 -0.03541963 -0.0353915 -0.03535454 -0.03531415 -0.03527226 -0.03524156 -0.0352238 -0.03523155
 -0.03526483 -0.03532967 -0.03542568 -0.03555416 -0.03571666 -0.03591517 -0.03615124 -0.03642743 -0.03674168 -0.03709407
 -0.03748083 -0.03789965 -0.03835287 -0.03883866 -0.03937109 -0.03995153 -0.04059505 -0.04130442 -0.04206981 -0.04289012
 -0.04369732 -0.04448231 -0.04512209 -0.04560852 -0.04582797 -0.04579095 -0.0454642 -0.04488014 -0.0440825 -0.04312645
 -0.04210624 -0.04108515 -0.04016849 -0.03938311 -0.03878504 -0.03836645 -0.0381382 -0.03808457 -0.03820825 -0.03847119
 -0.03887919 -0.03932221 -0.03979258 -0.0401417 -0.04035077 -0.04040212 -0.04029509 -0.04014459 -0.03995412 -0.03980099
 -0.039677 -0.03957693 -0.03949143 -0.03938512 -0.03925779 -0.03908887 -0.03888883 -0.03866434 -0.03842626 -0.0381912
 -0.03795833 -0.03773367 -0.03750942 -0.03728133 -0.03705058 -0.03681434 -0.03658552 -0.03636623 -0.03616812 -0.03599388
 -0.03584525 -0.03572324 -0.03561816 -0.03552948 -0.03543949 -0.03534769 -0.0352413 -0.03512241 -0.03499516 -0.03486345
 -0.03474334 -0.03463581 -0.03455227 -0.03448871 -0.03444409 -0.03441385 -0.03439167 -0.0343775 -0.03436876 -0.03436828
 -0.03437802 -0.03439566 -0.03442254 -0.03444848 -0.03447152 -0.03448332 -0.03448142 -0.0344687 -0.03444473 -0.03442004
 -0.03439516 -0.0343779 -0.03436825 -0.03436827 -0.03437765 -0.03439594 -0.03442262 -0.0344562 -0.03449534 -0.03453641
 -0.03457781 -0.03461524 -0.0346482 -0.03467419 -0.03469413 -0.03470767 -0.0347166 -0.03472145 -0.03472479 -0.03472751
 -0.03473189 -0.03473877 -0.03474867 -0.03476205 -0.03477685 -0.03479306 -0.03480709 -0.03481875 -0.03482567 -0.03482795
 -0.03482619 -0.03482056 -0.03481245 -0.03480162 -0.03478759 -0.03477067 -0.03475051 -0.03472961 -0.03471131 -0.03469903
 -0.03469861 -0.0347098 -0.03473575 -0.0347706 -0.03481302 -0.03485507 -0.03489361 -0.03492359 -0.03494288 -0.0349508
 -0.03494664 -0.03493306 -0.03490999 -0.03488369 -0.03485449 -0.03483067 -0.03481239 -0.03480448 -0.03480592 -0.03481337
 -0.03482544 -0.03483495 -0.03484226 -0.03484422 -0.03484295 -0.03484079 -0.03483869 -0.0348392 -0.03484095 -0.03484364
 -0.03484619 -0.03484716 -0.03484898 -0.03485144 -0.03486005 -0.03487623 -0.03490325 -0.03494276 -0.03498921 -0.0350428
 -0.03509054 -0.03513171 -0.03515839 -0.03517109 -0.03517497 -0.03517118 -0.03516979 -0.03517008 -0.03517494 -0.03518269
 -0.03519006 -0.03519778 -0.03520499 -0.03521433 -0.03522903 -0.03524938 -0.0352779 -0.03531009 -0.03534486 -0.03537627
 -0.03540128 -0.03541891 -0.03542719 -0.03543295 -0.03543667 -0.03544635 -0.03546324 -0.03548697 -0.03551761 -0.03554679
 -0.03557424 -0.03559399 -0.03560705 -0.03561638 -0.03562355 -0.03563629 -0.03565449 -0.03568244 -0.03571761 -0.03575798
 -0.03580071 -0.0358413 -0.03587926 -0.03591217 -0.03594212 -0.03596959 -0.03599644 -0.0360239 -0.03605117 -0.03607864
 -0.03610348 -0.03612531 -0.03614198 -0.03615293 -0.0361609 -0.03616598 -0.03617668 -0.03619331 -0.03622268 -0.03626357
 -0.03631216 -0.03636631 -0.03641545 -0.03646004 -0.03649522 -0.03652395 -0.03654956 -0.03657289 -0.036597 -0.0366196
 -0.03663922 -0.03665602 -0.03666816 -0.03668192 -0.0366989 -0.03672548 -0.03676467 -0.0368143 -0.03687546 -0.03693785
 -0.0370005 -0.03705586 -0.03710336 -0.03714577 -0.03718344 -0.0372225 -0.03726231 -0.03730181 -0.03733964 -0.03736941
 -0.03739191 -0.03740525 -0.03741224 -0.03741695 -0.03742121 -0.03742893 -0.03744036 -0.03745659 -0.03747861 -0.03750711
 -0.03754317 -0.03758803 -0.03763934 -0.03769744 -0.03775634 -0.03781526 -0.03786858 -0.03791533 -0.03795597 -0.03799042
 -0.0380253 -0.03806086 -0.03810213 -0.03814838 -0.03819711 -0.03824755 -0.03829487 -0.03834033 -0.03838465 -0.03842928
 -0.03847814 -0.03852899 -0.03858141 -0.03863111 -0.03867358 -0.03870864 -0.03873348 -0.03875438 -0.03877244 -0.03879547
 -0.03882611 -0.03886717 -0.03892022 -0.03898112 -0.0390499 -0.03911933 -0.03918895 -0.03925421 -0.03931511 -0.03937149
 -0.03942358 -0.03947257 -0.03951856 -0.03956247 -0.03960455 -0.03964591 -0.03968683 -0.0397283 -0.03977037 -0.03981324
 -0.03985763 -0.03990387 -0.03995362 -0.04000815 -0.04006772 -0.04013367 -0.04020182 -0.04027188 -0.04033767 -0.04039768
 -0.0404508 -0.04049613 -0.04054145 -0.04058713 -0.04064277 -0.04070831 -0.04078408 -0.04086852 -0.0409512 -0.0410309
 -0.04109659 -0.04114971 -0.04118738 -0.04121397 -0.04123517 -0.0412561 -0.04128563 -0.04132593 -0.04138316 -0.04145312
 -0.04153633 -0.04162438 -0.041714 -0.04179977 -0.04187912 -0.04195204 -0.04201806 -0.0420784 -0.04213315 -0.04218306
 -0.04222814 -0.04227175 -0.0423142 -0.04236154 -0.04241385 -0.04247506 -0.04254418 -0.0426199 -0.04270031 -0.04277985
 -0.04285732 -0.0429276 -0.04299163 -0.04304788 -0.04309933 -0.04314785 -0.04319626 -0.04324692 -0.04330076 -0.04335915
 -0.04342038 -0.04348472 -0.0435481 -0.04360997 -0.04366652 -0.04371708 -0.04376154 -0.04379983 -0.04383398 -0.0438641
 -0.0438916 -0.04391683 -0.04394249 -0.04396968 -0.04400467 -0.04404747 -0.04410254 -0.0441663 -0.04423503 -0.04430391
 -0.04436438 -0.04441644 -0.04445563 -0.04448818 -0.0445159 -0.04454605 -0.04458272 -0.04462729 -0.04468208 -0.04474092
 -0.04480351 -0.04486157 -0.04491395 -0.04495716 -0.04499076 -0.04501856 -0.04504098 -0.04506565 -0.04509274 -0.04512753
 -0.04516905 -0.04521626 -0.04526787 -0.04531952 -0.04537142 -0.04542189 -0.04547166 -0.04552181 -0.04557028 -0.04561644
 -0.04565602 -0.04568552 -0.04570512 -0.0457125 -0.04571534 -0.04571464 -0.04571968 -0.04573239 -0.04575804 -0.04579776
 -0.04585102 -0.04591802 -0.04599125 -0.04607018 -0.04614411 -0.0462133 -0.04627409 -0.04632831 -0.04638199 -0.04643575
 -0.04649552 -0.04655814 -0.04662108 -0.04667997 -0.04672706 -0.04676295 -0.04678334 -0.04679672 -0.04680615 -0.0468212
 -0.04684791 -0.04688627 -0.04693912 -0.04699613 -0.04705607 -0.0471095 -0.04715462 -0.04719212 -0.04722176 -0.0472506
 -0.0472789 -0.04731148 -0.04734796 -0.04738786 -0.0474306 -0.04747326 -0.04751594 -0.04755708 -0.04759808 -0.04764099
 -0.04768656 -0.04773776 -0.04779147 -0.04784653 -0.04789833 -0.04794286 -0.04798031 -0.04800885 -0.04803343 -0.0480551
 -0.04807762 -0.04810207 -0.04812907 -0.04815885 -0.04819105 -0.04822565 -0.04826237 -0.0483013 -0.04834481 -0.04839323
 -0.04845096 -0.04851712 -0.04859134 -0.04867024 -0.04874425 -0.04881098 -0.04885971 -0.04889439 -0.04891478 -0.04892791
 -0.0489413 -0.04895584 -0.04897542 -0.04899505 -0.04901355 -0.04902678 -0.04903239 -0.04903262 -0.04902684 -0.04902204
 -0.04901897 -0.04902289 -0.0490343 -0.04905402 -0.04908204 -0.04911789 -0.04916118 -0.04920962 -0.04926151 -0.0493081
 -0.04934818 -0.04937222 -0.04938416 -0.04938643 -0.04938453 -0.04938756 -0.04939666 -0.04941594 -0.0494454 -0.04948626
 -0.04953785 -0.04960217 -0.04967014 -0.04974115 -0.04980006 -0.04984304 -0.04986546 -0.04986517 -0.04985261 -0.04982832
 -0.04980145 -0.04977224 -0.04974274 -0.0497131 -0.04968554 -0.04966029 -0.04963972 -0.04962364 -0.04961271 -0.04960665
 -0.04960581 -0.04960854 -0.04961337 -0.04961737 -0.04961608 -0.04961171 -0.04960323 -0.04959707 -0.04959745 -0.04960167
 -0.04961152 -0.04961487 -0.04960884 -0.04958997 -0.0495563 -0.04951948 -0.04948017 -0.04944852 -0.04942459 -0.04940492
 -0.04938813 -0.04936128 -0.0493234 -0.04926189 -0.04917983 -0.04907849 -0.04896371 -0.04884897 -0.04873406 -0.04862556
 -0.04851804 -0.04840725 -0.04829353 -0.04817396 -0.04805642 -0.04794451 -0.04784052 -0.04774745 -0.04765789 -0.04757173
 -0.04747776 -0.04737544 -0.04724806 -0.04709427 -0.04690289 -0.04667427 -0.04642725 -0.04616378 -0.04591082 -0.04566504
 -0.04542599 -0.04518771 -0.04493159 -0.04465668 -0.04435113 -0.0440192 -0.04366137 -0.04328316 -0.04288964 -0.04248565
 -0.04207829 -0.04166129 -0.04123823 -0.04078363 -0.04028958 -0.03974218 -0.03913197 -0.0384885 -0.03781429 -0.03713427
 -0.03645174 -0.03574892 -0.03502527 -0.03427103 -0.03348981 -0.03271235 -0.03193847 -0.03118871 -0.03044911 -0.02968763
 -0.02889559 -0.02803051 -0.02711661 -0.0261667 -0.02521186 -0.0242943 -0.0234085 -0.02256653 -0.02174668 -0.0209401
 -0.02013882 -0.01933862 -0.01853751 -0.01774118 -0.0169072 -0.01603909 -0.01501967 -0.0138393 -0.01242532 -0.01078006
 -0.00906347 -0.007287404 -0.005638666 -0.004092495 -0.002628686 -0.001217307 0.0002451196 0.001763409 0.003394308 0.005137318
 0.007000051 0.009024765 0.01123111 0.01372809 0.01659232 0.01990382 0.02376774 0.02801779 0.03266868 0.03735757
 0.0420053 0.04640925 0.05051992 0.05435308 0.05790191 0.06128174 0.06450161 0.06778204 0.07114565 0.07492071
 0.07907458 0.0836798 0.08857505 0.09326737 0.09773076 0.1016169 0.1051191 0.108375 0.1115239 0.114777
 0.118134 0.1216636 0.1253162 0.1290803 0.1329355 0.1368883 0.1408533 0.1448224 0.1486758 0.1523854
 0.1559855 0.1594757 0.1629278 0.1663406 0.1695677 0.1725933 0.1751923 0.1773839 0.1791401 0.1804984
 0.1815679 0.1823503 0.1829008 0.1832089 0.1832639 0.1831119 0.1827877 0.1823499 0.1818515 0.1813188
 0.1807825 0.18023 0.1796729 0.179051 0.1783624 0.1775076 0.1764766 0.1751625 0.1735517 0.171653
 0.16947 0.1671894 0.1648145 0.1624572 0.1600926 0.1576518 0.1551186 0.1523961 0.1495085 0.1464421
 0.1432727 0.1400995 0.1369935 0.1340756 0.131341 0.1288278 0.1264996 0.1243368 0.1223576 0.1205565
 0.118987 0.1176665 0.1165893 0.1157616 0.1151285 0.1146858 0.1144019 0.1142754 0.1143073 0.1144971
 0.1148439 0.1153443 0.115981 0.1167505 0.1176332 0.1186277 0.1197217 0.1209158 0.1222044 0.1235925
 0.125081 0.1266813 0.1284011 0.1302487 0.132232 0.1343469 0.1365948 0.1389666 0.141463 0.1440649
 0.1467741 0.1495356 0.1523456 0.1551463 0.1579363 0.1607483 0.1635893 0.1665617 0.169642 0.1727804
 0.1759133 0.1787875 0.1814134 0.1836694 0.1856439 0.1874351 0.1890586 0.1905882 0.1919515 0.1931095
 0.1940401 0.1947086 0.1951658 0.1954238 0.1955101 0.1954381 0.1951894 0.1947619 0.1941513 0.1933573
 0.1923771 0.1912099 0.1898212 0.1882103 0.186358 0.1842714 0.1819769 0.179482 0.1768382 0.1740165
 0.1710075 0.1677106 0.1639483 0.1597123 0.1548141 0.149636 0.144398 0.1393741 0.1348462 0.1305836
 0.1265672 0.1225891 0.1185679 0.1145679 0.1105797 0.1067442 0.1030787 0.09957264 0.09622486 0.09292276
 0.08966575 0.08640569 0.08315703 0.0799748 0.0768661 0.0738909 0.07102913 0.06826781 0.06558196 0.06292435
 0.06028961 0.05765921 0.0550196 0.05237657 0.04964763 0.04680271 0.04374324 0.04037135 0.03690382 0.03332721
 0.03010667 0.0273456 0.02502749 0.02317564 0.02145838 0.0198601 0.01818524 0.01644186 0.01465762 0.01285092
 0.01114403 0.009525472 0.008020764 0.006609921 0.005247174 0.003955059 0.002739707 0.001648818 0.0007454462 3.119715E-05
 -0.0004633314 -0.0007799187 -0.0009338734 -0.0009495874 -0.0008449238 -0.0006042782 -0.0002366447 0.0003274551 0.001087214 0.00218146
 0.003624795 0.005493712 0.007790205 0.01025011 0.01284462 0.01513954 0.01714581 0.01869677 0.01983531 0.02061638
 0.0210732 0.0212987 0.02132831 0.02124621 0.02110385 0.02097774 0.02093121 0.02104641 0.02131859 0.02179762
 0.02234157 0.02291009 0.02340607 0.02378483 0.02408332 0.02429812 0.02449177 0.02467087 0.02485901 0.02505753
 0.02524995 0.02543503 0.02559153 0.02572223 0.02582904 0.02592122 0.02602793 0.02616353 0.02637416 0.02667052
 0.02708892 0.02763542 0.02832454 0.02917582 0.03020546 0.03143596 0.03289066 0.03455191 0.03642517 0.03846144
 0.04064284 0.04297651 0.04545 0.04816982 0.05114526 0.05445654 0.05810759 0.06194117 0.06593701 0.06978962
 0.07350086 0.07692549 0.08008476 0.08298922 0.08562433 0.08797351 0.08998732 0.0915787 0.09271526 0.09331982
 0.09340494 0.09294985 0.09199305 0.09054461 0.08865087 0.08632227 0.08362397 0.08055709 0.0772555 0.07372578
 0.07017845 0.06663422 0.06323518 0.0599898 0.05686475 0.05385337 0.05085418 0.04787432 0.04489892 0.04195257
 0.03911983 0.03640461 0.03386777 0.03147763 0.02921193 0.02703745 0.02490476 0.02280519 0.02071157 0.01864063
 0.01659013 0.014591 0.01265385 0.01080015 0.009040859 0.007365571 0.005776979 0.004241379 0.002755339 0.001300293
 -0.0001249825 -0.001494266 -0.002804031 -0.00399946 -0.005080441 -0.006015916 -0.006814178 -0.007487874 -0.008045291 -0.008512729
 -0.008892837 -0.009201756 -0.009438565 -0.009607405 -0.009709373 -0.009742236 -0.009721473 -0.009647715 -0.00955912 -0.009465509
 -0.009411793 -0.00941125 -0.009488831 -0.009652557 -0.009898076 -0.01022693 -0.01061638 -0.01106524 -0.01155016 -0.01207036
 -0.01261114 -0.01317124 -0.01373678 -0.01430406 -0.01485285 -0.01537947 -0.0158645 -0.01630764 -0.0167004 -0.01704211
 -0.01733016 -0.01756023 -0.017727 -0.01783136 -0.01786832 -0.0178551 -0.01779335 -0.01771206 -0.01761731 -0.0175361
 -0.01747336 -0.01744762 -0.0174613 -0.0175241 -0.01763674 -0.01779831 -0.01800803 -0.01825527 -0.01853824 -0.01884139
 -0.01916256 -0.01948571 -0.01980974 -0.02012319 -0.02042799 -0.02072142 -0.0210078 -0.021291 -0.02157456 -0.021863
 -0.02215678 -0.02245824 -0.0227636 -0.02307309 -0.02337878 -0.02367937 -0.02396586 -0.02423664 -0.0244857 -0.02471222
 -0.02491368 -0.02508988 -0.02523933 -0.02536193 -0.02545604 -0.02552153 -0.02555672 -0.02556159 -0.02553522 -0.0254776
 -0.02538869 -0.02526731 -0.02511249 -0.02492027 -0.02468625 -0.0244058 -0.0240732 -0.02368768 -0.02324644 -0.02275293
 -0.0222066 -0.02161546 -0.02097943 -0.02031512 -0.01962356 -0.01892925 -0.01823458 -0.01755918 -0.01690443 -0.01627455
 -0.01566912 -0.01508173 -0.01451201 -0.01395423 -0.0134092 -0.01287687 -0.01235847 -0.01185711 -0.01137328 -0.0109087
 -0.01046498 -0.01004253 -0.009649266 -0.009289157 -0.008976686 -0.00872067 -0.00853166 -0.008417905 -0.008374772 -0.008404759
 -0.008490785 -0.008631098 -0.008807814 -0.009018828 -0.009253516 -0.009511083 -0.009788015 -0.01008436 -0.01040041 -0.01073666
 -0.01109581 -0.01147914 -0.01189292 -0.01233795 -0.01282073 -0.01333803 -0.01388896 -0.01446565 -0.01505874 -0.01566143
 -0.01626461 -0.01686603 -0.01746189 -0.0180522 -0.0186355 -0.01921493 -0.01978952 -0.02037007 -0.02095759 -0.02156525
 -0.02219521 -0.02284805 -0.02352419 -0.02420468 -0.02488776 -0.02554305 -0.02616919 -0.0267412 -0.02726125 -0.02772303
 -0.02813204 -0.02849924 -0.02882805 -0.02913048 -0.0294048 -0.0296532 -0.02987466 -0.03006764 -0.03023608 -0.03038234
 -0.03050741 -0.03061426 -0.03069391 -0.03074537 -0.03075702 -0.03072566 -0.03065115 -0.0305319 -0.03038383 -0.03020762
 -0.03002956 -0.02985097 -0.02969645 -0.02956554 -0.02946889 -0.02940235 -0.02935721 -0.02932596 -0.02928556 -0.02922964
 -0.02913481 -0.0290029 -0.02882462 -0.0286105 -0.0283659 -0.02810063 -0.02782238 -0.02753482 -0.02723983 -0.02694431
 -0.02664888 -0.02636679 -0.02610136 -0.0258552 -0.02563062 -0.02540796 -0.02518639 -0.02493701 -0.02465861 -0.02432951
 -0.02394969 -0.02350818 -0.0230059 -0.02244043 -0.02181294 -0.02112573 -0.02037844 -0.01957092 -0.01870406 -0.01777575
 -0.01679642 -0.01576997 -0.01471849 -0.01365346 -0.01259885 -0.01156683 -0.01057162 -0.009621065 -0.008712936 -0.007849743
 -0.007015143 -0.006207817 -0.005412841 -0.004628943 -0.003857631 -0.003099219 -0.002361205 -0.001642441 -0.0009385361 -0.0002470982
 0.0004441663 0.001136098 0.001836323 0.002546522 0.003272597 0.004017212 0.004787306 0.005580569 0.006398492 0.007234809
 0.008085574 0.008948804 0.009822283 0.01070765 0.01160503 0.01251544 0.01343937 0.01437571 0.01532514 0.01627837
 0.01723513 0.01817439 0.01909532 0.01998257 0.0208373 0.0216617 0.02245574 0.02322285 0.02395685 0.02464475
 0.02527688 0.02583052 0.02629713 0.02665656 0.02690522 0.02702983 0.02704105 0.02693629 0.02674436 0.02647366
 0.02615626 0.02580252 0.02543266 0.02505177 0.02467162 0.02429364 0.02392954 0.02358008 0.02325788 0.02296368
 0.0227105 0.02249894 0.02233999 0.02223316 0.02218197 0.02218642 0.02224679 0.02236703 0.02255417 0.02281252
 0.02315272 0.02357032 0.02406901 0.02463113 0.02525279 0.02590017 0.02656608 0.02719534 0.02777703 0.02824404
 0.02858341 0.0287443 0.02871786 0.02848965 0.0280573 0.02744259 0.02664788 0.02572085 0.02466627 0.02354124
 0.0223505 0.02114301 0.01992375 0.01872969 0.01756716 0.01646517 0.01542645 0.01446858 0.01358429 0.01277622
 0.01202702 0.01133084 0.0106606 0.01000761 0.009337125 0.008638002 0.007886088 0.007072401 0.006202505 0.005274518
 0.004312077 0.00331674 0.002303538 0.001272908 0.0002290011 -0.0008272731 -0.001887481 -0.002949156 -0.003996937 -0.005029489
 -0.006034174 -0.007013567 -0.007964807 -0.008895654 -0.009813395 -0.01072913 -0.01165484 -0.01259951 -0.01357219 -0.01457708
 -0.01561813 -0.01669645 -0.01781397 -0.01896629 -0.0201542 -0.02136527 -0.02259872 -0.02383924 -0.02508574 -0.02632692
 -0.02756233 -0.02878539 -0.02999616 -0.03119239 -0.03237399 -0.03354028 -0.03468928 -0.03581547 -0.03691629 -0.03798329
 -0.03901784 -0.04001786 -0.04098651 -0.04192695 -0.04283832 -0.04372034 -0.04457428 -0.04539798 -0.04620373 -0.04699425
 -0.04778096 -0.04856864 -0.04934974 -0.05012532 -0.05087382 -0.0515939 -0.05226645 -0.05289078 -0.05345676 -0.05396526
 -0.05441766 -0.05481678 -0.05517578 -0.0554966 -0.0557925 -0.05606141 -0.05630513 -0.05652225 -0.05670993 -0.05687242
 -0.0570129 -0.05713414 -0.05724147 -0.05732667 -0.05738927 -0.05741487 -0.05739808 -0.0573345 -0.05721988 -0.05706963
 -0.0568836 -0.05668996 -0.05649078 -0.05630548 -0.05613448 -0.05597715 -0.05583275 -0.05569397 -0.05556232 -0.05544067
 -0.05533137 -0.05524346 -0.05517637 -0.05513345 -0.05511282 -0.05511318 -0.05513332 -0.05517259 -0.05522714 -0.05529635
 -0.0553702 -0.05544593 -0.05550938 -0.05555696 -0.05557362 -0.05555606 -0.055493 -0.05538227 -0.05522072 -0.0550077
 -0.05474826 -0.05444285 -0.05410286 -0.05372976 -0.05334111 -0.05293804 -0.05253601 -0.05213311 -0.05173203 -0.0513298
 -0.05092041 -0.05050552 -0.05008458 -0.04966056 -0.04923777 -0.04881272 -0.04838456 -0.04794952 -0.04750263 -0.04705448
 -0.04660508 -0.04617419 -0.0457668 -0.0453895 -0.04504519 -0.04472165 -0.04441818 -0.04412409 -0.04383934 -0.04357144
 -0.04332149 -0.0431039 -0.04291598 -0.04275439 -0.04261249 -0.04246794 -0.04231866 -0.0421475 -0.04196142 -0.04176325
 -0.04155853 -0.04135652 -0.04115104 -0.04094193 -0.04071927 -0.04047607 -0.040216 -0.03993587 -0.03965442 -0.03937448
 -0.03911279 -0.03887304 -0.03865407 -0.03845659 -0.03826629 -0.03808255 -0.03789572 -0.03770625 -0.037515 -0.0373214
 -0.03712391 -0.03691978 -0.0366987 -0.03646135 -0.03620147 -0.03592786 -0.03564917 -0.03537563 -0.03512239 -0.03488878
 -0.03468234 -0.03448791 -0.0343019 -0.03410647 -0.03389427 -0.03365956 -0.03339875 -0.0331178 -0.03281702 -0.03250137
 -0.03217124 -0.03182946 -0.03147643 -0.03112409 -0.03077356 -0.03044173 -0.03012667 -0.02982969 -0.02954451 -0.02925252
 -0.02894976 -0.02861704 -0.02825914 -0.02787202 -0.02746912 -0.02706037 -0.02666168 -0.02628766 -0.02594459 -0.02564242
 -0.02536864 -0.02512432 -0.0248844 -0.02464475 -0.02438224 -0.02409262 -0.0237669 -0.02340312 -0.0230163 -0.0226075
 -0.02220756 -0.021816 -0.02144301 -0.02108195 -0.02070426 -0.02030654 -0.01985851 -0.01937224 -0.01885555 -0.01832706
 -0.01781927 -0.01733751 -0.01690277 -0.01650242 -0.01613608 -0.01578516 -0.01544027 -0.01509135 -0.0147312 -0.01436531
 -0.01399281 -0.01362483 -0.01326352 -0.01290938 -0.01256289 -0.01221695 -0.01187133 -0.01152571 -0.0111806 -0.01084136
 -0.01050782 -0.01018182 -0.009862771 -0.009550479 -0.00924301 -0.008937704 -0.008629186 -0.008307445 -0.007971842 -0.007614631
 -0.007247728 -0.006876578 -0.006512056 -0.006162694 -0.005826367 -0.00550358 -0.005193842 -0.004895816 -0.004617888 -0.004361749
 -0.004126865 -0.003913687 -0.003713345 -0.00352554 -0.003351234 -0.003189886 -0.003039504 -0.002894371 -0.002724904 -0.002524652
 -0.002254782 -0.001919519 -0.001505897 -0.001028491 -0.0005012775 5.868978E-05 0.0006293113 0.001198707 0.001750906 0.002284087
 0.002794762 0.003279 0.003738674 0.004152413 0.004515113 0.004815076 0.0050449 0.005244724 0.005415515 0.005623969
 0.005873066 0.00619187 0.006577477 0.007010821 0.007487099 0.007972308 0.008463917 0.008935716 0.00938873 0.00981258
 0.01020912 0.01058002 0.01091716 0.01121581 0.01145991 0.011632 0.01173786 0.01176766 0.01176165 0.01172901
 0.011709 0.01171465 0.0117526 0.01182732 0.01192313 0.0120395 0.01215588 0.01227126 0.01237328 0.01246371
 0.01255703 0.01265644 0.01278982 0.01295171 0.0131413 0.01334667 0.01353897 0.01371663 0.0138623 0.01398532
 0.01408663 0.0141823 0.01427479 0.01440794 0.01459613 0.01490134 0.0153655 0.01594116 0.01664433 0.01730823
 0.01790269 0.01838566 0.0187463 0.019052 0.01930575 0.01955371 0.01979567 0.02004446 0.02029797 0.02055462
 0.02080841 0.02104057 0.02124292 0.02138677 0.02147147 0.02148244 0.02142531 0.02130025 0.02111386 0.02086787
 0.02057771 0.0202489 0.01990196 0.01954464 0.01919093 0.01884279 0.01852277 0.01823224 0.01800679 0.01785103
 0.01776797 0.01775734 0.01776091 0.01777345 0.01771734 0.0175906 0.01734097 0.01697304 0.01646684 0.01584459
 0.01513462 0.01438362 0.01367667 0.01304285 0.01255934 0.01219218 0.01194706 0.01176773 0.01162438 0.01149073
 0.01135027 0.01119648 0.01102193 0.01084334 0.01065758 0.01051837 0.01042985 0.0104374 0.01054333 0.01075075
 0.01105876 0.01146026 0.01195176 0.01251632 0.0131403 0.01376818 0.01439058 0.01495254 0.01546865 0.01593466
 0.01637455 0.01681357 0.01726607 0.01775091 0.01827393 0.01884591 0.01945632 0.02010825 0.02077116 0.02143773
 0.02209059 0.02272329 0.02335142 0.02397574 0.02461113 0.02525835 0.02591239 0.02657247 0.02723045 0.02788195
 0.02850302 0.02908062 0.02955568 0.02992262 0.03013207 0.0302041 0.03014416 0.02998406 0.02975898 0.02949619
 0.02922569 0.02896765 0.02874545 0.02854759 0.0283833 0.02820081 0.02798723 0.02771742 0.02737766 0.02702325
 0.02665589 0.02635428 0.02612264 0.02598299 0.02593217 0.02593668 0.02599164 0.02605254 0.02611773 0.02615828
 0.02617466 0.0261559 0.02609761 0.02598803 0.02582384 0.02558773 0.02530758 0.02499101 0.02468812 0.02443783
 0.02423046 0.02408807 0.02391582 0.02369505 0.0233546 0.02287121 0.02228236 0.02158538 0.02087595 0.02015921
 0.01950722 0.01891996 0.01841816 0.01799393 0.01761542 0.01726959 0.01689081 0.01647839 0.01599043 0.01545168
 0.01488051 0.0143068 0.01377293 0.01329216 0.0128906 0.012564 0.01232232 0.01213778 0.01200704 0.01188826
 0.01176791 0.01163445 0.01147981 0.0113368 0.01120776 0.01111839 0.01107023</values></Ydata></AB><ScSm><Ydata ylabel="Single channel"><values byteorder="INTEL" format="FLOAT32" numvalues="1814"> 0.07335244 0.07336198 0.07344183 0.07361936 0.0738636 0.07409899 0.07425842 0.0743292 0.07433661 0.07429412
 0.07420938 0.07413856 0.07417738 0.07436734 0.0746341 0.07483725 0.07488278 0.07480642 0.07475314 0.07483606
 0.0749862 0.07497233 0.07461721 0.07399976 0.07340612 0.07306538 0.07300219 0.07320087 0.0737531 0.07459906
 0.07522421 0.07502301 0.07406101 0.07311825 0.07282559 0.07305887 0.07329617 0.07322214 0.07283098 0.07231141
 0.07209685 0.07274615 0.07439415 0.0763002 0.07711636 0.07574101 0.07210699 0.06742471 0.06373075 0.06279694
 0.06488587 0.06839716 0.07106732 0.07177337 0.0710692 0.07004182 0.06913786 0.06830741 0.06776614 0.06803459
 0.06922559 0.07056291 0.07078458 0.06922515 0.06660582 0.06451753 0.06396594 0.06474376 0.06628805 0.06829464
 0.06985031 0.06893928 0.06442696 0.05856887 0.05600351 0.0593414 0.06637836 0.07224832 0.07375133 0.07115544
 0.06678899 0.06310937 0.06176593 0.06316026 0.06638958 0.06999423 0.07283339 0.07413116 0.07328457 0.07039101
 0.06675989 0.0642778 0.06424972 0.06688593 0.07125784 0.07538526 0.07713611 0.0757975 0.07254782 0.0692137
 0.06707083 0.06684385 0.06888035 0.07279348 0.07743885 0.08157353 0.08436218 0.08547093 0.08514251 0.08403975
 0.08274041 0.08164041 0.08130079 0.08210054 0.08332489 0.08343926 0.08175738 0.07935858 0.07797875 0.07821756
 0.07906061 0.0791126 0.07801037 0.07620422 0.07358335 0.06943148 0.06407995 0.05936436 0.05679108 0.05638251
 0.05775959 0.06073149 0.06402505 0.06522211 0.06341397 0.06087912 0.06082778 0.06397671 0.06818561 0.07105863
 0.07215961 0.07283071 0.07447203 0.07711208 0.07923786 0.0789363 0.07578918 0.0719308 0.07053617 0.07270633
 0.07641181 0.07898723 0.07993981 0.08065463 0.08197325 0.08288892 0.08160086 0.07766183 0.07311888 0.07123944
 0.07366049 0.07874588 0.08277771 0.08271112 0.07822137 0.07175645 0.06662637 0.06471843 0.06600553 0.06981573
 0.0755637 0.08208434 0.08733077 0.08952491 0.08845343 0.08535765 0.08151808 0.07708038 0.07172824 0.06663228
 0.06468241 0.06775691 0.0743179 0.08069281 0.08434847 0.08515064 0.08394077 0.0809828 0.07618695 0.07057655
 0.0667683 0.06694905 0.07024421 0.07320756 0.07342331 0.07170636 0.0703384 0.07022443 0.07055449 0.07053933
 0.07053345 0.07141611 0.0733263 0.07532373 0.0762967 0.07597566 0.07498145 0.07410406 0.0735921 0.07297812
 0.07173645 0.07031287 0.07008679 0.07185332 0.0747259 0.07705237 0.07808166 0.07823443 0.07799258 0.07706137
 0.07480454 0.07144013 0.06852366 0.06779271 0.06948829 0.07220973 0.07437789 0.07536829 0.07535599 0.07474883
 0.07391267 0.07305039 0.07225949 0.07178684 0.07196295 0.07272302 0.07351039 0.07383902 0.07369132 0.07325932
 0.07258979 0.0716546 0.07060174 0.06976739 0.06943255 0.06960764 0.07007052 0.07056819 0.07090805 0.07092138
 0.07052571 0.06985231 0.06916349 0.06861387 0.06820434 0.06794925 0.067926 0.0681261 0.06838289 0.06850865
 0.06844337 0.06823823 0.06795044 0.06759988 0.06720391 0.06681848 0.0665357 0.06642325 0.06644703 0.06648822
 0.06647769 0.06646615 0.06650195 0.06650065 0.06633075 0.0659948 0.06563693 0.06538646 0.06525867 0.06519255
 0.06511775 0.06496717 0.06467374 0.06422342 0.0637305 0.06340174 0.06337304 0.0636058 0.06395799 0.06429501
 0.06451588 0.06456624 0.06447948 0.06434489 0.06420164 0.06400957 0.06373863 0.06344846 0.06326631 0.06328954
 0.06349611 0.06375484 0.06393719 0.06400284 0.06397948 0.06391697 0.06387501 0.0638878 0.06391314 0.06387022
 0.06374533 0.06361716 0.06356661 0.06359145 0.06361626 0.06357618 0.06348931 0.06343828 0.06347571 0.06356998
 0.06365409 0.06369929 0.06372298 0.06374395 0.06374451 0.0636797 0.06353418 0.06336348 0.06324919 0.0632149
 0.06321977 0.06323139 0.06326197 0.06332526 0.0633931 0.0634176 0.06338623 0.06333588 0.0633025 0.06326995
 0.06319056 0.06305259 0.06289946 0.0627788 0.06269617 0.06262393 0.0625369 0.06243148 0.06231906 0.0622073
 0.06209051 0.06195804 0.06180581 0.06163891 0.06147441 0.06134269 0.06126737 0.06123406 0.06119068 0.06109031
 0.06093346 0.06076284 0.06061739 0.06049772 0.06038262 0.06027033 0.06018471 0.0601414 0.06012851 0.06012574
 0.06012437 0.06012416 0.06013249 0.0601769 0.06029611 0.06049705 0.06073039 0.06092925 0.06107116 0.06118855
 0.06132224 0.06148245 0.0616562 0.06183637 0.06203441 0.06226477 0.06251629 0.06274599 0.06291685 0.06304106
 0.06316952 0.06334141 0.06356193 0.06381925 0.0640913 0.06433849 0.06452508 0.06465905 0.06478842 0.06494896
 0.06513384 0.0653211 0.06551031 0.06571658 0.0659427 0.06617931 0.06642954 0.06671444 0.06704724 0.06741071
 0.06776305 0.06806575 0.06831583 0.06855862 0.0688581 0.06924137 0.06967337 0.07009068 0.07045621 0.07078102
 0.07110061 0.07143651 0.07178447 0.07213996 0.07252076 0.0729464 0.07340305 0.07385236 0.07427515 0.07468563
 0.07510239 0.07552619 0.07595073 0.07637918 0.07682179 0.07728156 0.07774498 0.07818747 0.07859202 0.07896299
 0.0793215 0.07969195 0.08009118 0.08051379 0.08092068 0.08126436 0.08154448 0.08182134 0.08214977 0.08251293
 0.08284914 0.08313659 0.08341776 0.08373818 0.08409275 0.08444674 0.08478643 0.08512793 0.08548374 0.08583665
 0.08614783 0.08638865 0.08656874 0.08673365 0.08692917 0.08717152 0.08745779 0.08778998 0.08816452 0.08854661
 0.08888441 0.08915132 0.08935697 0.08952557 0.08968716 0.08987741 0.09011564 0.09038427 0.09064738 0.09088022
 0.0910734 0.09123484 0.09140372 0.09163235 0.09193245 0.09226535 0.09260288 0.09296484 0.09337244 0.09379776
 0.09419875 0.09458536 0.09500537 0.09546392 0.09589827 0.09624639 0.09650801 0.09671981 0.09690653 0.09709097
 0.09732424 0.09765713 0.09808287 0.09853968 0.098972 0.09936736 0.09973586 0.1000781 0.1003816 0.1006359
 0.1008405 0.1010013 0.1011314 0.1012588 0.1014226 0.1016411 0.101882 0.1020805 0.1021895 0.1021996
 0.1021128 0.1019257 0.1016562 0.1013594 0.1010835 0.1008079 0.1004493 0.09993409 0.09925076 0.09843013
 0.09750047 0.09647973 0.09540275 0.09434003 0.0933831 0.09261157 0.09207568 0.09181096 0.09185714 0.09223611
 0.09289719 0.09369635 0.09444313 0.09496594 0.09514267 0.09491111 0.09428827 0.09337255 0.09229739 0.09117155
 0.09005726 0.08897692 0.08791949 0.08686262 0.08582774 0.08492247 0.0843215 0.08421604 0.08478555 0.0861688
 0.08838083 0.09121981 0.09428934 0.09716987 0.09960795 0.1015693 0.1031553 0.1044995 0.1057122 0.106855
 0.1079319 0.108916 0.1097943 0.1105777 0.1112745 0.1118735 0.1123528 0.1126932 0.1128929 0.1129832
 0.1130237 0.1130679 0.1131413 0.1132493 0.1133851 0.1135137 0.1135636 0.1134488 0.1130998 0.1124765
 0.1115794 0.110494 0.1094702 0.1089535 0.1094438 0.111198 0.1140101 0.1173042 0.1204697 0.1231357
 0.1252064 0.126751 0.1279026 0.1287996 0.1295491 0.1302137 0.1308256 0.1314031 0.1319536 0.1324763
 0.1329699 0.1334415 0.1339081 0.1343845 0.1348674 0.1353362 0.1357754 0.1361927 0.1366133 0.1370575
 0.1375243 0.137992 0.1384393 0.138866 0.1392855 0.1397001 0.1400991 0.1404803 0.1408564 0.1412404
 0.1416391 0.1420558 0.1424825 0.1428935 0.143262 0.1435876 0.1438954 0.1442091 0.1445343 0.1448659
 0.1452015 0.14554 0.1458741 0.1461985 0.1465215 0.1468561 0.1471955 0.1475141 0.1477968 0.1480577
 0.1483253 0.1486149 0.1489196 0.1492212 0.1495136 0.1498146 0.1501498 0.1505195 0.1508899 0.1512227
 0.151509 0.1517695 0.1520302 0.1523048 0.1525953 0.1528992 0.153209 0.1535133 0.1538065 0.154096
 0.1543921 0.1546924 0.1549864 0.155271 0.1555552 0.1558473 0.1561438 0.1564335 0.1567121 0.1569914
 0.15729 0.157611 0.1579325 0.1582273 0.1584877 0.1587265 0.1589602 0.159199 0.1594495 0.1597157
 0.1599942 0.1602738 0.1605445 0.1608064 0.1610683 0.1613362 0.1616074 0.1618756 0.1621392 0.162401
 0.162665 0.1629357 0.1632161 0.1635016 0.1637804 0.1640432 0.1642929 0.1645416 0.1647985 0.1650601
 0.1653128 0.1655481 0.1657751 0.1660123 0.1662694 0.1665384 0.1668017 0.1670465 0.1672748 0.1675012
 0.1677404 0.1679936 0.1682483 0.1684926 0.1687275 0.1689634 0.1692079 0.1694588 0.1697082 0.1699521
 0.1701934 0.1704353 0.1706771 0.1709171 0.1711564 0.1713985 0.1716455 0.1718952 0.1721396 0.1723703
 0.1725848 0.1727886 0.1729916 0.173205 0.1734363 0.1736819 0.1739293 0.1741686 0.1743991 0.1746249
 0.1748515 0.1750842 0.1753233 0.1755611 0.1757891 0.1760077 0.176228 0.1764622 0.176712 0.1769668
 0.1772164 0.1774608 0.177702 0.1779338 0.1781494 0.1783531 0.1785565 0.1787678 0.1789874 0.1792102
 0.1794298 0.1796439 0.179853 0.1800567 0.1802574 0.1804637 0.1806818 0.1809095 0.1811432 0.1813832
 0.1816283 0.1818749 0.1821206 0.1823615 0.18259 0.1828044 0.1830134 0.183226 0.183446 0.1836741
 0.1839081 0.1841434 0.1843803 0.1846221 0.1848646 0.1851001 0.1853274 0.1855505 0.1857706 0.1859891
 0.1862075 0.1864229 0.1866361 0.1868562 0.1870844 0.1873078 0.1875187 0.1877256 0.1879388 0.1881602
 0.188388 0.1886157 0.1888329 0.1890375 0.1892363 0.1894359 0.1896445 0.1898715 0.1901116 0.1903457
 0.1905666 0.1907819 0.1909927 0.1911972 0.191404 0.1916194 0.191837 0.192052 0.1922618 0.1924454
 0.1925501 0.1924504 0.1918368 0.1900952 0.1862995 0.1794116 0.1687097 0.1542548 0.1370257 0.1185631
 0.1004074 0.08371569 0.06916448 0.05704519 0.04741153 0.04017428 0.03516134 0.03222097 0.03133306 0.0327214
 0.03697157 0.04468459 0.05517022 0.06528281 0.07063993 0.06908291 0.06274104 0.05608694 0.05221459 0.05134312
 0.05215134 0.05350897 0.05505314 0.05698606 0.05966554 0.06320171 0.06743419 0.07236546 0.07837244 0.08573185
 0.09405062 0.1024294 0.1102365 0.1176064 0.1251376 0.1331775 0.1414596 0.149367 0.1564256 0.1625432
 0.1679138 0.1728004 0.1773848 0.1817439 0.1859021 0.1898432 0.1934339 0.1963829 0.1983688 0.199283
 0.199361 0.1990561 0.19877 0.198687 0.1988188 0.1991297 0.199598 0.2002102 0.200948 0.2017827
 0.2026741 0.203585 0.2044934 0.2053837 0.2062354 0.2070311 0.2077658 0.2084428 0.2090678 0.2096486
 0.21019 0.2106906 0.2111482 0.2115632 0.2119392 0.2122892 0.2126342 0.2129837 0.2133238 0.2136355
 0.2139167 0.2141769 0.2144234 0.2146595 0.2148894 0.2151189 0.2153562 0.2156069 0.2158662 0.2161206
 0.2163633 0.2165992 0.2168337 0.2170656 0.2172922 0.2175154 0.2177406 0.2179726 0.2182113 0.2184495
 0.2186799 0.2189048 0.2191309 0.2193597 0.2195865 0.2198082 0.2200273 0.220251 0.2204846 0.2207263
 0.2209709 0.2212213 0.2214828 0.22175 0.2220109 0.2222624 0.2225101 0.2227577 0.2230093 0.2232689
 0.2235276 0.2237667 0.2239814 0.2241905 0.2244182 0.224673 0.2249444 0.2252129 0.2254674 0.2257134
 0.2259615 0.2262123 0.2264589 0.2266917 0.2269074 0.2271252 0.2273806 0.2276843 0.2280053 0.2283136
 0.228612 0.2289117 0.2292119 0.2295118 0.2298074 0.2300713 0.2302745 0.2304398 0.2306478 0.2309745
 0.2314171 0.2318853 0.2322814 0.2325881 0.2328612 0.2331582 0.2335014 0.2338621 0.2341375 0.2342178
 0.2341531 0.2341867 0.2345336 0.2351649 0.2358669 0.2364603 0.2369113 0.2372801 0.2376226 0.2379325
 0.2381493 0.2382277 0.2382255 0.2383205 0.2386868 0.239318 0.2400155 0.2405851 0.2409887 0.2412865
 0.2415355 0.2417729 0.2419619 0.2419294 0.241549 0.2410549 0.2409797 0.2416366 0.242769 0.2438296
 0.2445247 0.2449631 0.2453463 0.2457181 0.2460273 0.2461737 0.2458836 0.2448649 0.2433762 0.2423849
 0.2427687 0.2444311 0.2464633 0.248055 0.2490071 0.2495274 0.249872 0.2501707 0.2503281 0.2500424
 0.2491444 0.2480345 0.2475742 0.248296 0.2498053 0.2511979 0.2519768 0.252318 0.2525905 0.252942
 0.253197 0.25282 0.2512238 0.2486305 0.2465026 0.2465189 0.2489385 0.2522935 0.2548441 0.2560764
 0.2565717 0.2567292 0.2561721 0.254426 0.2516403 0.2485208 0.2460953 0.2455674 0.2475276 0.25096
 0.2538086 0.2549986 0.2553503 0.256232 0.2579285 0.2596347 0.2605044 0.2603088 0.2593045 0.2577735
 0.255879 0.2540819 0.2534075 0.254728 0.2577009 0.2608798 0.263052 0.2641642 0.2646947 0.2642385
 0.2612151 0.2547591 0.2471083 0.2430067 0.2455251 0.2528461 0.2602131 0.2646139 0.2664503 0.2673172
 0.267856 0.2675675 0.2651177 0.2590823 0.2501934 0.2427392 0.2416654 0.2476918 0.2564985 0.2627529
 0.2637369 0.2596354 0.2525888 0.2460706 0.2434781 0.2460675 0.2523875 0.2597206 0.2657256 0.2690826
 0.269477 0.2674807 0.2645206 0.2625328 0.2625644 0.2632352 0.2617757 0.2575155 0.2529855 0.2502034
 0.2475651 0.2428362 0.2380511 0.2381784 0.2446514 0.2529653 0.2577258 0.2581136 0.2569519 0.2555827
 0.2516015 0.2423388 0.2299114 0.221343 0.2224167 0.2316782 0.2417287 0.2464534 0.2458851 0.2440779
 0.2436847 0.2432458 0.2392701 0.2307904 0.2216781 0.2174071 0.2192636 0.2231935 0.2246169 0.2221355
 0.2159972 0.2065485 0.1967281 0.1930578 0.2001665 0.2151213 0.2297128 0.2372292 0.2349595 0.2227408
 0.203789 0.1865305 0.1805315 0.1879962 0.2011218 0.2092668 0.2074283 0.1972093 0.1822278 0.1655288
 0.1508859 0.1433249 0.1461115 0.1573906 0.1704006 0.1769999 0.1721779 0.1578044 0.1426919 0.1362919
 0.1402787 0.1475098 0.1500447 0.1463185 0.1400721 0.1353686 0.134158 0.136105 0.1390339 0.1409018
 0.1414464 0.1401477 0.1340463 0.1213988 0.1068053 0.09826142 0.09881312 0.1049595 0.1131245 0.122827
 0.1324184 0.1369058 0.1335933 0.1272718 0.1261963 0.1333553 0.1438626 0.1508559 0.1522775 0.1513272
 0.1514392 0.1524677 0.1525065 0.1521645 0.1547111 0.1615672 0.169802 0.1753917 0.1774168 0.1777068
 0.1777585 0.1776148 0.1769001 0.1754839 0.1734245 0.1710785 0.1689854 0.1672614 0.1654997 0.1633829
 0.1606908 0.1564648 0.1492311 0.1391536 0.1293829 0.1236431 0.1223757 0.1228978 0.1233724 0.1239832
 0.1233706 0.1174603 0.1048431 0.09132105 0.085706 0.09130831 0.1034817 0.1149461 0.1213359 0.1215736
 0.1157425 0.1054135 0.09566773 0.09352849 0.102185 0.1179101 0.1340971 0.1469518 0.1558135 0.1599964
 0.1583669 0.1519167 0.1447048 0.1415709 0.1452781 0.1552691 0.1676759 0.1761174 0.1748294 0.1645282
 0.155199 0.1586846 0.1760441 0.1955489 0.2058454 0.2075299 0.2083473 0.2111547 0.2125771 0.2117184
 0.213558 0.222156 0.2346387 0.2439772 0.2451203 0.2369719 0.2216975 0.2051795 0.1955373 0.1967537
 0.2043674 0.2105004 0.2115619 0.207812 0.1987116 0.1849563 0.1735277 0.1734826 0.185456 0.2003561
 0.2097363 0.2135333 0.2163182 0.2193881 0.2191743 0.2126439 0.2023307 0.1947602 0.1939568 0.1978767
 0.201773 0.2031505 0.2018763 0.1974314 0.1891906 0.1793649 0.1730226 0.1737457 0.180017 0.1867437
 0.1899329 0.1892845 0.1868922 0.1846994 0.183258 0.1819389 0.1801722 0.1790425 0.1810988 0.1874824
 0.1958614 0.2027183 0.207351 0.212076 0.218575 0.225506 0.2300514 0.2309415 0.2296785 0.2292815
 0.2318824 0.237 0.2418582 0.243736 0.2425546 0.2412034 0.2428832 0.248027 0.2542045 0.2588781
 0.2614871 0.2629209 0.2640187 0.264869 0.2647814 0.2628363 0.2592804 0.2563629 0.2567772 0.2609978
 0.2668022 0.2715217 0.2741603 0.2752794 0.2755802 0.2751235 0.2737414 0.2717506 0.2699872 0.2691702
 0.2694108 0.2703556 0.2715946 0.2728442 0.2739405 0.2748368 0.2755686 0.2761653 0.276641 0.2770548
 0.2774742 0.2778656 0.2781355 0.2783134 0.2785885 0.2790884 0.2796956 0.2801608 0.2803237 0.2801263
 0.2794902 0.2783384 0.2767363 0.2748634 0.2728077 0.2705115 0.2680294 0.2658034 0.264537 0.2646833
 0.2660417 0.2678866 0.2694831 0.2704702 0.2708517 0.2707895 0.2704645 0.27004 0.2696404 0.2693242
 0.269087 0.2689005 0.2687485 0.2686263 0.2685314 0.2684752 0.2684971 0.2686407 0.2689092 0.2692504
 0.2695847 0.2698511 0.2700399 0.2701861 0.2703227 0.2704406 0.270498 0.2704597 0.27032 0.2700978
 0.2698239 0.2695274 0.2692139 0.2688484 0.2683738 0.2677557 0.2669934 0.2660815 0.2650037 0.2637989
 0.2625921 0.261509 0.2605735 0.2597215 0.2588813 0.2580023 0.2570366 0.2559412 0.2547032 0.2533439
 0.2518971 0.2503856 0.2488133 0.247175 0.2454689 0.2436892 0.241815 0.2398192 0.2376908 0.2354344
 0.2330352 0.2304253 0.2274916 0.2241216 0.2202413 0.2158177 0.2108616 0.2054543 0.199761 0.1939944
 0.188359 0.1830198 0.1780957 0.1736691 0.1697998 0.1665313 0.1638889 0.1618906 0.1605614 0.1599232
 0.1599681 0.1606518 0.1618977 0.1635967 0.1656109 0.1677892 0.1699775 0.1720385 0.1739034 0.1756163
 0.1772997 0.1790526 0.1808795 0.1827109 0.1844751 0.1861311 0.1876447 0.1889699 0.190078 0.1909823
 0.1917149 0.1922949 0.1927251 0.1929987 0.1930963 0.1929978 0.1927134 0.1923045 0.19188 0.1915752
 0.1915189 0.1917966 0.192435 0.19341 0.1946624 0.1961083 0.1976486 0.1991829 0.2006388 0.2019985
 0.203293 0.2045734 0.2059049 0.2073738 0.2090636 0.2110086 0.2131815 0.2155167 0.2179269 0.2203058
 0.2225413 0.2245436 0.2262705 0.2277355 0.2289912 0.2301015 0.2311206 0.2320833 0.2329997 0.2338609
 0.2346557 0.2353804 0.2360353 0.2366219 0.2371372 0.2375679 0.2379016 0.2381509 0.2383469 0.2385082
 0.2386356 0.2387369 0.2388304 0.2389234 0.2389972 0.2390138 0.2389326 0.2387328 0.2384254 0.2380385
 0.2375921 0.2370838 0.2364865 0.2357566 0.2348605 0.2337931 0.2325657 0.231186 0.2296639 0.2280219
 0.2262885 0.2244887 0.2226444 0.2207745 0.2188883 0.2169732 0.2149861 0.2128731 0.2106231 0.2082979
 0.2059908 0.203764 0.2016299 0.1995733 0.197576 0.1956343 0.1937622 0.1919717 0.1902572 0.1886068
 0.1870171 0.1854879 0.1840193 0.1826191 0.1813058 0.1801019 0.1790312 0.1781092 0.1773295 0.1766644
 0.1760827 0.1755643 0.1751137 0.1747639 0.1745417 0.1744174 0.1743102 0.1741499 0.1739181 0.1736358
 0.1733351 0.1730422 0.1727707 0.1725254 0.1723017 0.172065 0.1717378 0.1712225 0.1704338 0.1693096
 0.1678216 0.1659939 0.1639079 0.1616881 0.1594856 0.157444 0.1556581 0.1541675 0.1529763 0.1520478
 0.1512989 0.1506502 0.1500922 0.1496845 0.1494878 0.1494828 0.1495375 0.1494806 0.1492561 0.1489938
 0.1488976 0.149077 0.149489 0.1499973 0.150467 0.1508315 0.1510872 0.1512363 0.1512665 0.1511812
 0.1510012 0.1507329 0.1503745 0.1499408 0.1494522 0.1489161 0.1483326 0.1476928 0.1469747 0.1461679
 0.1452844 0.14433 0.1432972 0.1421839 0.1409746 0.1396396 0.138235 0.1369762 0.1361381 0.1358786
 0.1361578 0.1367781 0.1375155 0.1382544 0.1389456 0.139422 0.1394502 0.1391234 0.1390574 0.1399409
 0.1418573 0.1441697 0.1460849 0.1472188 0.1476087 0.1473931 0.1466553 0.1454632 0.1438542 0.141806
 0.1393319 0.1365331 0.1335163 0.1303903 0.1273555 0.1246351 0.1223316 0.1204423 0.1189418 0.1178735
 0.1173887 0.1171314 0.1152384 0.1093308 0.1001726 0.09328235 0.09427851 0.1025548 0.111712 0.1163297
 0.1162829 0.1144762 0.1129004 0.1118608 0.1112797 0.1113229 0.112124 0.1135266 0.1151136 0.1164543
 0.1173644 0.1178646 0.1179003 0.1171429 0.1149421 0.1105275 0.1036298 0.09506056 0.08644246 0.07925788
 0.07419597 0.07117625 0.06964279 0.06888229 0.06839383 0.06813242 0.06838955 0.06942979 0.07125507 0.07368985
 0.07657151 0.07971804 0.08277258 0.08532414 0.08724038 0.08869867 0.08985128 0.09063481 0.09092882 0.09073171
 0.09014307 0.08928931 0.08829603 0.0872584 0.08619519 0.08505934 0.08385392 0.08275001 0.08200535 0.08171421
 0.08171996 0.08181369 0.08191121 0.08200565 0.08207755 0.08210327 0.08208087 0.08205051 0.08212218 0.0824101
 0.08289391 0.08341358 0.08381874 0.08407134 0.08421892 0.08429128 0.08419628 0.08379379 0.08316846 0.08266327
 0.08243106 0.08212747 0.08134405 0.08023241 0.07940325 0.07925589 0.07963511 0.08010148 0.08032829 0.08024548
 0.08001377 0.07995078 0.08031964 0.0810217</values></Ydata></ScSm><ScRf><Ydata ylabel="Single channel"><values byteorder="INTEL" format="FLOAT32" numvalues="1820"> 0.06069192 0.06085742 0.06095364 0.06098182 0.06097134 0.06097352 0.06104058 0.06119287 0.06140085 0.06159995
 0.06173378 0.06179068 0.06179127 0.06174819 0.0616696 0.06160285 0.06162748 0.06177762 0.06199072 0.06214945
 0.06217631 0.06210298 0.06205271 0.06212052 0.06224495 0.0622267 0.06191622 0.06138483 0.0608766 0.0605829
 0.06052422 0.06069113 0.06116122 0.06187669 0.06239848 0.06222149 0.0614093 0.06061707 0.06036372 0.06053621
 0.06070198 0.06061269 0.06027452 0.05984193 0.05966617 0.06020752 0.06157951 0.06316688 0.0638461 0.06269807
 0.05966659 0.05576094 0.05267937 0.05189905 0.05363753 0.05655731 0.05876876 0.0593394 0.05874229 0.05789267
 0.0571571 0.05647588 0.05601683 0.05621994 0.05719361 0.05829651 0.05847234 0.05716335 0.05497276 0.05322697
 0.0527606 0.05339986 0.05467861 0.05634439 0.05763581 0.05687831 0.05313216 0.0482692 0.04613768 0.04890951
 0.05476379 0.0596575 0.06091679 0.05875434 0.0551152 0.05205756 0.05095086 0.05211161 0.05477817 0.05774454
 0.06007955 0.06114952 0.0604522 0.05805877 0.05504796 0.05298589 0.05296133 0.05515049 0.05877683 0.06219082
 0.06362392 0.06249177 0.05978138 0.05701474 0.0552488 0.05507571 0.05677645 0.06003207 0.06389996 0.06735039
 0.06968245 0.07060676 0.0703181 0.06937414 0.06827185 0.06735084 0.06707282 0.067743 0.06876417 0.06886271
 0.06746829 0.06547578 0.06432664 0.06452008 0.06521566 0.06525607 0.06433838 0.0628341 0.06065124 0.05719755
 0.05275168 0.04884104 0.04671631 0.04639158 0.04755116 0.05004402 0.05281696 0.05384861 0.05236256 0.05024359
 0.05017187 0.05276275 0.05624854 0.05863729 0.05956081 0.06012982 0.06150591 0.06371398 0.06549971 0.06527218
 0.06267586 0.05947834 0.05832391 0.06013931 0.06324264 0.06541578 0.0662483 0.06689507 0.06805587 0.06888361
 0.06786554 0.06462379 0.06087366 0.05935236 0.06142807 0.06573017 0.06915013 0.0691395 0.06542137 0.06004684
 0.05579978 0.05427177 0.05544619 0.05877072 0.06376797 0.06945935 0.07410201 0.07616258 0.07542782 0.07293718
 0.06978941 0.066119 0.06165322 0.05740105 0.05587482 0.05872507 0.0646342 0.07041075 0.0738354 0.0747709
 0.07393123 0.07152431 0.06745768 0.06265436 0.05947921 0.05990397 0.06313038 0.06604043 0.06645472 0.06512132
 0.06411859 0.06427132 0.06483349 0.06507643 0.0653341 0.06643423 0.06851032 0.07067688 0.07188201 0.0718648
 0.07120876 0.07066424 0.07046425 0.07015235 0.0692272 0.06814031 0.06824339 0.07030566 0.07345252 0.07606062
 0.07738672 0.07784374 0.07791181 0.0772941 0.07534108 0.07226306 0.06963581 0.0692353 0.07132142 0.07446734
 0.07704163 0.07838641 0.07868192 0.07836042 0.07780764 0.07723594 0.07674658 0.07659344 0.07712118 0.07827055
 0.07946333 0.08017756 0.0803742 0.0802395 0.07981672 0.07908523 0.07822712 0.07762513 0.07758804 0.07812162
 0.07897718 0.07987164 0.08058657 0.0809269 0.08078992 0.08031738 0.07981281 0.07946151 0.07926447 0.07923801
 0.07948136 0.07999247 0.08057465 0.08100686 0.08122154 0.08127338 0.08121744 0.08107228 0.08086233 0.08065993
 0.08058253 0.08071603 0.08101355 0.0813233 0.08156293 0.08179822 0.0820839 0.08230953 0.0823126 0.08210137
 0.08186388 0.08176974 0.08183607 0.08197504 0.08209023 0.0820947 0.08190326 0.08150709 0.08107033 0.08086428
 0.08105065 0.08156936 0.08224232 0.08290078 0.08340624 0.08367397 0.08373672 0.0837097 0.08365454 0.08353318
 0.08331341 0.0830736 0.08298032 0.08316138 0.08358986 0.08409718 0.08450893 0.0847517 0.08484852 0.08488339
 0.0849707 0.08516531 0.08537795 0.08545776 0.08537953 0.0852825 0.0853057 0.08543561 0.085538 0.08551535
 0.08541594 0.08538379 0.08550608 0.08573207 0.08594977 0.0861134 0.08627053 0.08647188 0.08667286 0.08674901
 0.08663259 0.08641234 0.08624843 0.08620239 0.08621636 0.08625246 0.08636115 0.08657765 0.08682229 0.08696786
 0.08698507 0.08696902 0.08701399 0.08709747 0.08711294 0.0869983 0.08680095 0.08662411 0.08654161 0.08656389
 0.08665015 0.08673421 0.08675689 0.08669843 0.08658594 0.08646546 0.08636907 0.08631686 0.08634385 0.08649182
 0.08674487 0.08698432 0.08705217 0.08688967 0.08660594 0.08638534 0.08631809 0.08632922 0.08627475 0.08608866
 0.08582532 0.08558108 0.08540568 0.08528642 0.08518696 0.08508903 0.08501463 0.08501711 0.08512799 0.08529207
 0.08537616 0.08527908 0.08503145 0.0847635 0.08458482 0.08451624 0.08451425 0.08452334 0.08451954 0.08453198
 0.08460131 0.08470005 0.08473621 0.08466201 0.08453824 0.08447035 0.08452192 0.08469391 0.08492565 0.08510141
 0.085123 0.08500919 0.08488411 0.08484977 0.08490419 0.0849897 0.08507445 0.08516239 0.0852576 0.0853571
 0.0854739 0.08564021 0.08587573 0.08615679 0.08642092 0.08660688 0.08670438 0.08677382 0.08690774 0.08715599
 0.08748342 0.08780284 0.08805008 0.08823033 0.08839594 0.08858422 0.08878776 0.0889919 0.08921825 0.08950113
 0.08983201 0.09016302 0.09046437 0.0907477 0.09103348 0.09132357 0.09161422 0.09192059 0.09227772 0.09270558
 0.09316252 0.09354907 0.09378789 0.09390278 0.09400479 0.09420451 0.09453824 0.0949451 0.09529796 0.09549688
 0.09556957 0.09565447 0.09585264 0.09612508 0.09637321 0.09658904 0.09686708 0.09726947 0.09773052 0.09811737
 0.09836266 0.09851825 0.09868442 0.09889885 0.09910403 0.09922735 0.09927791 0.09933692 0.09945974 0.09963345
 0.0998446 0.1001325 0.1005291 0.1009808 0.1013813 0.1016688 0.1018574 0.1019914 0.1021024 0.102199
 0.1022703 0.1023094 0.1023449 0.1024188 0.1025233 0.1025965 0.102604 0.1025918 0.102636 0.1027707
 0.1029887 0.1032769 0.1036105 0.1039364 0.1042157 0.1044828 0.1048116 0.1052003 0.1055358 0.1057114
 0.1057471 0.1057452 0.1057626 0.1057907 0.1058439 0.1059843 0.1062444 0.1065809 0.1069297 0.1072691
 0.107611 0.1079549 0.108267 0.1084944 0.1086009 0.1086003 0.1085593 0.1085652 0.1086829 0.1089263
 0.109252 0.1095846 0.1098638 0.1100614 0.1101595 0.1101464 0.1100634 0.1100216 0.1101176 0.1103241
 0.1104985 0.1105042 0.1103022 0.1099269 0.1094162 0.1087935 0.1081021 0.1074245 0.106852 0.1064401
 0.1062039 0.1061593 0.1063478 0.1067924 0.1074347 0.1081462 0.1088085 0.1093474 0.1096851 0.1097183
 0.1093906 0.1087675 0.1080026 0.1072402 0.1065581 0.1059633 0.1054094 0.1048493 0.1043189 0.1039723
 0.1040096 0.1045614 0.1056221 0.1070514 0.1086207 0.1100932 0.1113188 0.1122826 0.1130686 0.1137715
 0.1144414 0.1150989 0.1157667 0.1164516 0.117111 0.117682 0.11815 0.1185588 0.1189515 0.1193301
 0.1196696 0.1199491 0.1201726 0.1203749 0.1205891 0.1207918 0.1209087 0.1208967 0.1207946 0.1206725
 0.1205546 0.1204053 0.1201687 0.1198118 0.119364 0.1189461 0.1187494 0.1189529 0.1196223 0.1206722
 0.1219323 0.1232541 0.1245466 0.1257259 0.1266872 0.1273653 0.1277968 0.1280901 0.1283463 0.1286183
 0.1289189 0.1292354 0.1295463 0.1298399 0.1301219 0.1304086 0.1307186 0.1310583 0.1314034 0.1317055
 0.13194 0.1321453 0.1323989 0.1327453 0.1331508 0.1335387 0.1338698 0.1341744 0.1344929 0.1348079
 0.1350646 0.1352489 0.1354102 0.1356113 0.1358846 0.1362266 0.1365989 0.1369353 0.1371841 0.1373558
 0.1375101 0.1376978 0.1379278 0.1381837 0.1384479 0.1387061 0.1389509 0.139194 0.1394641 0.139773
 0.1400858 0.1403403 0.1405092 0.1406319 0.1407771 0.1409763 0.1412045 0.1414181 0.1416065 0.141806
 0.1420648 0.1423885 0.142722 0.1429926 0.1431721 0.1432921 0.1434072 0.1435539 0.1437403 0.1439572
 0.144187 0.1444103 0.1446167 0.1448112 0.1450076 0.1452135 0.1454252 0.1456373 0.1458502 0.1460672
 0.1462869 0.1465023 0.1467131 0.146938 0.1472035 0.1475102 0.1478155 0.1480652 0.1482401 0.1483654
 0.1484802 0.1486102 0.1487633 0.1489368 0.1491231 0.1493146 0.1495091 0.1497082 0.1499135 0.1501228
 0.1503313 0.1505363 0.1507393 0.1509441 0.1511566 0.1513824 0.1516213 0.1518602 0.1520802 0.1522753
 0.1524587 0.1526502 0.1528575 0.1530708 0.1532725 0.1534537 0.153623 0.1537972 0.1539851 0.1541835
 0.1543858 0.1545887 0.1547901 0.154987 0.1551789 0.1553707 0.1555698 0.1557754 0.1559767 0.1561658
 0.1563486 0.1565386 0.156741 0.1569495 0.157154 0.1573491 0.1575383 0.1577313 0.1579337 0.1581385
 0.1583353 0.1585235 0.1587112 0.1589013 0.1590895 0.1592738 0.1594615 0.1596621 0.1598767 0.160098
 0.1603193 0.1605355 0.1607392 0.1609276 0.161114 0.1613185 0.1615441 0.1617749 0.161998 0.1622144
 0.162429 0.1626432 0.1628575 0.163073 0.1632905 0.1635095 0.1637272 0.1639384 0.1641385 0.1643263
 0.1645027 0.164672 0.1648414 0.1650161 0.165196 0.1653792 0.1655624 0.1657421 0.1659205 0.166107
 0.1663046 0.1665042 0.1666991 0.1668941 0.1670959 0.1673037 0.1675137 0.1677232 0.1679293 0.1681312
 0.1683313 0.1685311 0.1687331 0.1689405 0.1691506 0.1693562 0.1695586 0.1697671 0.169985 0.1702067
 0.1704274 0.1706442 0.1708532 0.1710559 0.1712598 0.171467 0.1716749 0.1718839 0.1720955 0.1723078
 0.1725219 0.1727412 0.1729617 0.1731757 0.1733826 0.1735854 0.1737832 0.1739791 0.1741818 0.1743948
 0.1746169 0.1748464 0.1750764 0.1752956 0.1755045 0.1757136 0.1759257 0.1761375 0.1763514 0.1765682
 0.1767818 0.1769889 0.177187 0.1773582 0.1774593 0.1773823 0.1768446 0.1752706 0.1717861 0.165416
 0.1554907 0.1420754 0.1260854 0.1089556 0.09212206 0.07666178 0.06319731 0.0519873 0.04307172 0.03636623
 0.0317196 0.02900248 0.02820073 0.02951637 0.03348329 0.04065278 0.05038319 0.0597573 0.06470959 0.06323865
 0.05732976 0.05114949 0.04757626 0.04680042 0.04757458 0.04884093 0.05027063 0.05206376 0.05455746 0.05785055
 0.06178888 0.06637344 0.07195616 0.07879479 0.08652272 0.09430236 0.1015452 0.1083782 0.1153662 0.1228419
 0.1305564 0.1379222 0.1444855 0.1501605 0.1551345 0.159653 0.1638796 0.1678872 0.171713 0.1753556
 0.1786903 0.1814335 0.1832763 0.1841145 0.1841664 0.1838542 0.1835563 0.1834512 0.1835541 0.1838317
 0.1842604 0.1848229 0.1854978 0.1862572 0.1870671 0.1878984 0.1887346 0.1895605 0.1903552 0.1911032
 0.191799 0.1924367 0.1930092 0.1935199 0.1939833 0.1944142 0.1948219 0.1952093 0.1955757 0.1959228
 0.196257 0.1965799 0.1968844 0.1971653 0.1974248 0.1976669 0.1978934 0.198109 0.19832 0.198528
 0.1987305 0.1989266 0.1991203 0.1993196 0.1995307 0.1997498 0.199966 0.2001737 0.2003759 0.2005743
 0.2007664 0.2009534 0.2011435 0.2013426 0.2015477 0.2017501 0.201943 0.2021276 0.2023124 0.2025038
 0.2026984 0.2028893 0.2030752 0.20326 0.2034498 0.2036517 0.2038677 0.2040889 0.2043047 0.2045172
 0.204735 0.2049569 0.2051729 0.2053762 0.2055665 0.2057446 0.2059135 0.2060836 0.2062715 0.2064888
 0.2067265 0.2069549 0.2071508 0.2073212 0.2074927 0.2076789 0.2078695 0.2080466 0.2082096 0.2083868
 0.2086126 0.2088871 0.2091727 0.2094381 0.2096828 0.2099142 0.2101355 0.2103567 0.2105842 0.2107928
 0.2109451 0.211054 0.2111978 0.2114538 0.2118171 0.2121984 0.2125126 0.212756 0.2129836 0.2132366
 0.2135191 0.2137978 0.213985 0.213993 0.2138758 0.2138564 0.2141288 0.2146644 0.215266 0.2157675
 0.2161371 0.2164277 0.2166859 0.2169045 0.2170358 0.2170505 0.2170039 0.2170448 0.2173157 0.2178109
 0.2183685 0.2188318 0.2191693 0.2194197 0.2196121 0.2197667 0.2198554 0.2197397 0.2193184 0.2188064
 0.2186852 0.2192369 0.2202219 0.2211329 0.2216968 0.2220165 0.2222867 0.2225577 0.2227845 0.2228692
 0.2225553 0.2215751 0.2201655 0.2192097 0.2195081 0.2209733 0.2227802 0.2241932 0.2250264 0.2254557
 0.2257062 0.2259069 0.2259926 0.2256984 0.2248592 0.2238186 0.2233484 0.2239387 0.2252488 0.2264702
 0.2271484 0.2274284 0.2276335 0.2278994 0.2280767 0.2276864 0.2261993 0.2238213 0.2218803 0.2218888
 0.2240655 0.2270698 0.2293238 0.2303653 0.2307318 0.2308023 0.2302443 0.2286202 0.2260551 0.2231927
 0.2209739 0.220483 0.2222316 0.225283 0.2277862 0.2287952 0.2290655 0.2298252 0.231317 0.23281
 0.2335462 0.2333267 0.2323842 0.2309664 0.2292155 0.2275514 0.2269052 0.2280598 0.2306989 0.2335187
 0.2354318 0.2363908 0.2368243 0.2363656 0.2335941 0.2277427 0.2208355 0.2171312 0.2193654 0.2258925
 0.232454 0.2363676 0.2380034 0.238783 0.2392662 0.2389959 0.2367788 0.2313452 0.2233579 0.2166633
 0.2156897 0.2210686 0.2289224 0.2344795 0.2353107 0.2315843 0.2252316 0.2193812 0.2170703 0.2194012
 0.225065 0.2316344 0.2370169 0.2400295 0.2403895 0.2386073 0.235962 0.2341917 0.2342277 0.2348246
 0.2335147 0.2297231 0.2257147 0.2232698 0.2209398 0.2167374 0.2125013 0.2126874 0.2185746 0.2261175
 0.2304832 0.2309449 0.2300268 0.2289123 0.2254393 0.2172252 0.2061834 0.1986372 0.1997999 0.208359
 0.2176365 0.2221263 0.2218791 0.220563 0.2205687 0.2205615 0.217353 0.2100542 0.2022161 0.1988616
 0.2011593 0.2053889 0.2073644 0.2057807 0.2007827 0.1926346 0.1841148 0.1813993 0.1888769 0.2038038
 0.2184345 0.2263899 0.225023 0.2140872 0.1966538 0.1809594 0.1764 0.1851268 0.1994332 0.2088311
 0.2083819 0.1996166 0.1860554 0.1707706 0.1577794 0.1525484 0.1587544 0.1745283 0.1924103 0.2030475
 0.2003967 0.1864541 0.1716887 0.1675225 0.1759251 0.1880165 0.1939797 0.1919552 0.1867043 0.1834999
 0.1850782 0.1910782 0.1984238 0.2042362 0.2081375 0.2090125 0.2019287 0.1840662 0.1625699 0.1498325
 0.1506348 0.1597354 0.1717702 0.1860541 0.2000696 0.2061822 0.2002357 0.1893925 0.186009 0.1945181
 0.2076493 0.2153244 0.214633 0.2103491 0.2075906 0.2063882 0.2042169 0.201866 0.2036652 0.2114894
 0.2214698 0.2283135 0.2308153 0.2313713 0.2319252 0.2324969 0.2325501 0.2318754 0.2305249 0.2289684
 0.2279531 0.2276678 0.2275621 0.2271742 0.2261356 0.2229456 0.2152943 0.2033112 0.1916195 0.1856749
 0.1859877 0.1885154 0.1906761 0.1928594 0.1928173 0.1840686 0.1644527 0.1431747 0.1341029 0.1423595
 0.1605044 0.1770299 0.1851807 0.1835392 0.1726013 0.1549883 0.1381691 0.1320896 0.1410491 0.159576
 0.1782766 0.1919146 0.1999437 0.2020026 0.1969775 0.1862331 0.1748529 0.16871 0.1709152 0.1804806
 0.1926262 0.1999704 0.1961613 0.1822267 0.1693277 0.170478 0.1868688 0.2058401 0.2151139 0.2152091
 0.2143427 0.2156574 0.2157262 0.2136001 0.214361 0.2221882 0.2342345 0.2434411 0.2447364 0.2370345
 0.2225615 0.2073324 0.1995711 0.2030821 0.2128552 0.2204485 0.2221092 0.2182721 0.2086051 0.1940876
 0.1822402 0.1825974 0.195673 0.2117363 0.2218641 0.2260644 0.2292123 0.2326545 0.2325672 0.2257354
 0.2149099 0.2071123 0.2067071 0.2116048 0.2168407 0.2198053 0.2202936 0.2175714 0.2108329 0.202568
 0.1985735 0.2029277 0.2137525 0.2249311 0.2315464 0.2329559 0.2313815 0.2290224 0.2265645 0.2233386
 0.2187984 0.2144495 0.2135571 0.2176598 0.2241283 0.2288721 0.2310205 0.2332112 0.2374427 0.242328
 0.2447943 0.2434432 0.2398812 0.2373151 0.2379766 0.2413537 0.244574 0.2448514 0.2421315 0.2393886
 0.2398863 0.2440664 0.2494882 0.2536107 0.2558619 0.2571098 0.2581718 0.2590935 0.2591007 0.2571771
 0.2535009 0.2502814 0.2501914 0.2537224 0.2587257 0.262642 0.2645681 0.2651081 0.2649694 0.2642258
 0.2627347 0.2608014 0.2591852 0.2585041 0.258799 0.2596852 0.260745 0.2617067 0.2624361 0.2629253
 0.2632472 0.2634567 0.2635716 0.2636341 0.2636925 0.2637096 0.2636048 0.2634258 0.2633737 0.2635836
 0.2639508 0.264244 0.2643161 0.2641168 0.2635741 0.262616 0.2613087 0.2598368 0.2583008 0.2566504
 0.2549274 0.2535309 0.2530967 0.2540146 0.2560607 0.2585333 0.2607365 0.2623289 0.2633089 0.2638219
 0.2640355 0.2640991 0.2641065 0.2640685 0.2639453 0.2637143 0.2633968 0.2630301 0.2626372 0.2622384
 0.2618713 0.261571 0.2613254 0.2610706 0.2607386 0.2603038 0.2597898 0.2592459 0.258707 0.2581579
 0.2575351 0.2567772 0.2558787 0.2548988 0.2539318 0.2530561 0.2522862 0.2515609 0.2507979 0.2499595
 0.2490463 0.2480431 0.2469304 0.2457619 0.2446788 0.2437989 0.2431122 0.2425059 0.2418641 0.2411214
 0.2402573 0.2392875 0.2382532 0.2371889 0.2361003 0.2349774 0.2338078 0.2325694 0.2312332 0.2297883
 0.2282506 0.2266482 0.2250106 0.2233604 0.2216844 0.2199101 0.2179239 0.2156079 0.2128537 0.2095637
 0.2056813 0.2012461 0.1964183 0.191434 0.186521 0.1818452 0.1775209 0.1736435 0.1702974 0.1675445
 0.1654266 0.163978 0.1632295 0.1631995 0.1638825 0.1652423 0.1672098 0.1696778 0.1724955 0.1754797
 0.1784476 0.1812542 0.183824 0.1861719 0.1883764 0.1904945 0.1925014 0.1943319 0.1959611 0.1974079
 0.198678 0.1997481 0.2006103 0.2013018 0.2018807 0.2023866 0.2028301 0.2032083 0.2035182 0.2037584
 0.2039351 0.2040737 0.2042144 0.2043892 0.2046065 0.2048605 0.2051478 0.2054756 0.20586 0.2063108
 0.206813 0.2073359 0.2078664 0.2084224 0.2090314 0.2097077 0.2104554 0.2112867 0.2122316 0.2133246
 0.2145727 0.2159342 0.2173297 0.21867 0.219875 0.2208822 0.2216548 0.2221838 0.222484 0.222587
 0.2225301 0.2223429 0.2220436 0.221648 0.2211755 0.2206454 0.2200717 0.2194614 0.2188158 0.2181361
 0.2174286 0.2167078 0.215995 0.2153064 0.2146399 0.2139788 0.2133168 0.212671 0.2120615 0.2114885
 0.2109334 0.2103736 0.2097938 0.2091951 0.2085916 0.2079843 0.2073391 0.2066085 0.2057769 0.2048675
 0.2039001 0.2028557 0.2016953 0.2004058 0.1990118 0.1975454 0.19602 0.1944375 0.1928014 0.1911054
 0.1893162 0.1873964 0.1853569 0.1832787 0.1812701 0.1794032 0.1776928 0.1761163 0.1746384 0.173229
 0.1718783 0.1705942 0.1693808 0.168227 0.1671233 0.1660742 0.1650867 0.1641538 0.1632642 0.1624276
 0.1616805 0.161051 0.1605243 0.1600599 0.1596377 0.1592724 0.1589909 0.1588156 0.1587571 0.1587951
 0.1588728 0.1589238 0.1589065 0.1588161 0.1586814 0.1585437 0.1584281 0.1583391 0.1582764 0.1582221
 0.1581095 0.1578286 0.157272 0.1563747 0.1551308 0.1535901 0.1518379 0.1499825 0.1481564 0.1464878
 0.1450508 0.1438648 0.1429366 0.1422583 0.1417767 0.1414172 0.1411467 0.1409897 0.1409878 0.1411363
 0.1413421 0.1414733 0.1414885 0.1414932 0.1416479 0.1420488 0.142691 0.143478 0.1442626 0.1449297
 0.1454454 0.145822 0.1460756 0.1462278 0.1462944 0.1462685 0.1461459 0.1459483 0.1456955 0.1453886
 0.1450253 0.1445982 0.1440916 0.1435103 0.1428724 0.1421664 0.1413655 0.1404663 0.1394534 0.1382885
 0.1370275 0.1358933 0.1351597 0.1349912 0.1353857 0.1361931 0.1372031 0.138275 0.1393189 0.140135
 0.1404759 0.1404251 0.140577 0.1416152 0.1436706 0.1461765 0.1483667 0.1498282 0.1505512 0.1506377
 0.1501547 0.1491676 0.1476965 0.1456877 0.1431576 0.1402648 0.1371732 0.1340066 0.1309536 0.128221
 0.1259033 0.1240142 0.1225537 0.1215608 0.1211592 0.1209652 0.1190622 0.1130132 0.1036515 0.09673274
 0.09806336 0.1069449 0.1166837 0.1216484 0.1217317 0.1199747 0.1184565 0.1174755 0.1169207 0.1169521
 0.1177129 0.1190456 0.1205305 0.1217419 0.1225079 0.1228777 0.1228321 0.1220315 0.1197399 0.1150794
 0.1077341 0.0985685 0.08934008 0.08167224 0.07631131 0.07313482 0.07151454 0.07068826 0.07013281 0.0698107
 0.07005028 0.0711491 0.07311639 0.07577454 0.07895029 0.08242207 0.08578299 0.08860461 0.09077375 0.09249648
 0.09394217 0.09503689 0.09562619 0.09568769 0.09533192 0.09470049 0.09392115 0.09308566 0.09219019 0.09113613
 0.08989349 0.08866408 0.08777088 0.08735614 0.08727926 0.08731297 0.08732921 0.08729944 0.08723912 0.08717792
 0.08713013 0.08711454 0.08721472 0.08752941 0.08802611 0.08852284 0.08885085 0.08899541 0.08905831 0.08907384
 0.08887475 0.08825602 0.0873313 0.08652961 0.08606092 0.08557696 0.08462633 0.08332023 0.08226883 0.08190734
 0.08211366 0.08245891 0.08261088 0.08247849 0.08219512 0.08207567 0.08240929 0.08311175 0.0836854 0.08369373
</values></Ydata></ScRf><Data_Parameters_AB><parameter name="DPF">1</parameter><parameter name="NPT">3497</parameter><parameter name="FXV">3996</parameter><parameter name="LXV">500</parameter><parameter name="CSF">1</parameter><parameter name="MXY">0.195510104298592</parameter><parameter name="MNY">-0.0848098024725914</parameter><parameter name="DAT">01/06/2022</parameter><parameter name="TIM">12:04:30.332 (GMT+2)</parameter><parameter name="DXU">WN</parameter></Data_Parameters_AB><AB__Qtest><MainReport name="Quality Test Report"><Header><Line><Legend>Test result ok/not ok [1/0]: </Legend><Value>0</Value></Line><Line><Legend>Method file: </Legend><Value>C:\Users\Public\Documents\Bruker\OPUS_8.2.28\QT\IRBT_v3_default.QT</Value></Line></Header><Matrix><Line><Legend></Legend><Legend>min</Legend><Legend>max</Legend><Legend>measured</Legend></Line><Line><Value>Absorption (X-Range 1):</Value><Value>0.400000</Value><Value>2.000000</Value><Value>0.233129</Value></Line><Line><Value>Noise (X-Range 4):</Value><Value></Value><Value>0.000300</Value><Value>0.000055</Value></Line><Line><Value>Signal/Noise (X-Range 2):</Value><Value>200.000000</Value><Value></Value><Value>135.740548</Value></Line><Line><Value>Signal/Noise (X-Range 3):</Value><Value>40.000000</Value><Value></Value><Value>41.385270</Value></Line><Line><Value>Water vapour (X-Range 5):</Value><Value></Value><Value>0.000300</Value><Value>0.000036</Value></Line><Line><Value>Signal/Water (X-Range 2):</Value><Value>100.000000</Value><Value></Value><Value>206.920309</Value></Line><Line><Value>Signal/Water (X-Range 3):</Value><Value>20.000000</Value><Value></Value><Value>63.086918</Value></Line><Line><Value>Fringes (X-Range 6):</Value><Value></Value><Value>0.000100</Value><Value>0.000059</Value></Line></Matrix></MainReport></AB__Qtest><Data_Parameters_ScSm><parameter name="DPF">1</parameter><parameter name="NPT">1814</parameter><parameter name="FXV">3996.33169228125</parameter><parameter name="LXV">499.541461535156</parameter><parameter name="CSF">1</parameter><parameter name="MXY">0.280323654413223</parameter><parameter name="MNY">0.0313330590724945</parameter><parameter name="DAT">01/06/2022</parameter><parameter name="TIM">12:04:30.332 (GMT+2)</parameter><parameter name="DXU">WN</parameter></Data_Parameters_ScSm><Data_Parameters_ScRf><parameter name="DPF">1</parameter><parameter name="NPT">1820</parameter><parameter name="FXV">4004.04661832813</parameter><parameter name="LXV">495.683998511719</parameter><parameter name="CSF">1</parameter><parameter name="MXY">0.265108108520508</parameter><parameter name="MNY">0.0282007269561291</parameter><parameter name="DAT">01/06/2022</parameter><parameter name="TIM">12:04:04.196 (GMT+2)</parameter><parameter name="DXU">WN</parameter></Data_Parameters_ScRf><Optic_Parameters_Rf><parameter name="APR">0</parameter><parameter name="APT">Open</parameter><parameter name="BMS">KBr</parameter><parameter name="DTC">RT-DLaTGS_IR-Biotyper [Microplate reader]</parameter><parameter name="HPF">0</parameter><parameter name="LPF">10.0</parameter><parameter name="LPV">4000</parameter><parameter name="PGR">0</parameter><parameter name="RCH">Module port</parameter><parameter name="RDX">0</parameter><parameter name="SRC">MIR</parameter><parameter name="VEL">10.0</parameter><parameter name="SON">Off</parameter></Optic_Parameters_Rf><Acquisition_Parameters_Rf><parameter name="ADT">1</parameter><parameter name="AQM">DD</parameter><parameter name="CFE">0</parameter><parameter name="COR">0</parameter><parameter name="DEL">0</parameter><parameter name="DLY">0</parameter><parameter name="HFW">8000</parameter><parameter name="LFW">0</parameter><parameter name="NSR">32</parameter><parameter name="PLF">AB</parameter><parameter name="RES">6</parameter><parameter name="RGN">-1</parameter><parameter name="STR">0</parameter><parameter name="TCL">MakeCompatibleScalar (0, {WSV=1.000000, ARV=0});</parameter><parameter name="TDL">37</parameter><parameter name="RPO">0</parameter></Acquisition_Parameters_Rf><FT_-_Parameters_Rf><parameter name="APF">B3</parameter><parameter name="HFQ">500</parameter><parameter name="LFQ">4000</parameter><parameter name="NLI">0</parameter><parameter name="PHR">24</parameter><parameter name="PHZ">ML</parameter><parameter name="SPZ">NO</parameter><parameter name="ZFF">1</parameter></FT_-_Parameters_Rf><Optic_Parameters_><parameter name="APR">0</parameter><parameter name="APT">Open</parameter><parameter name="BMS">KBr</parameter><parameter name="CHN">Module port</parameter><parameter name="DTC">RT-DLaTGS_IR-Biotyper [Microplate reader]</parameter><parameter name="HPF">0</parameter><parameter name="LPF">10.0</parameter><parameter name="LPV">4000</parameter><parameter name="PGN">0</parameter><parameter name="RDX">0</parameter><parameter name="SRC">MIR</parameter><parameter name="VEL">10.0</parameter><parameter name="SON">Off</parameter></Optic_Parameters_><FT_-_Parameters_><parameter name="APF">B3</parameter><parameter name="HFQ">500</parameter><parameter name="LFQ">4000</parameter><parameter name="NLI">0</parameter><parameter name="PHR">24</parameter><parameter name="PHZ">ML</parameter><parameter name="SPZ">NO</parameter><parameter name="ZFF">1</parameter></FT_-_Parameters_><Acquisition_Parameters_><parameter name="ADT">1</parameter><parameter name="AQM">DD</parameter><parameter name="CFE">0</parameter><parameter name="COR">0</parameter><parameter name="DEL">0</parameter><parameter name="DLY">0</parameter><parameter name="HFW">8000</parameter><parameter name="LFW">0</parameter><parameter name="NSS">32</parameter><parameter name="PLF">AB</parameter><parameter name="RES">6</parameter><parameter name="SOT">0</parameter><parameter name="TCL">MakeCompatibleScalar (0, {WSV=1.000000, ARV=0});</parameter><parameter name="TDL">37</parameter><parameter name="SPO">0</parameter><parameter name="SGN">-1</parameter></Acquisition_Parameters_><Instrument_Parameters_Rf><parameter name="HFL">15800.168544</parameter><parameter name="LFL">0</parameter><parameter name="LWN">15800.168544</parameter><parameter name="ABP">32197</parameter><parameter name="SSP">1</parameter><parameter name="ARG">2</parameter><parameter name="ASG">2</parameter><parameter name="ASS">32</parameter><parameter name="GFW">16</parameter><parameter name="GBW">16</parameter><parameter name="BFW">0</parameter><parameter name="BBW">0</parameter><parameter name="PKA">7310</parameter><parameter name="PKL">4996</parameter><parameter name="PRA">7481</parameter><parameter name="PRL">5001</parameter><parameter name="P2A">1</parameter><parameter name="P2L">1</parameter><parameter name="P2R">1</parameter><parameter name="P2K">1</parameter><parameter name="DAQ">0</parameter><parameter name="AG2">1</parameter><parameter name="SSM">1</parameter><parameter name="RSN">25979</parameter><parameter name="CRR">0</parameter><parameter name="SRT">1654085044.196</parameter><parameter name="DUR">19.6389923095703</parameter><parameter name="TSC">28.9</parameter><parameter name="MVD">0.261080592870712</parameter><parameter name="AN1">0.225830860390832</parameter><parameter name="AN2">0</parameter><parameter name="VSN">2.485 Apr  4 2017</parameter><parameter name="SRN">0085</parameter><parameter name="CAM">0</parameter><parameter name="INS">IR-Biotyper</parameter><parameter name="FOC">69</parameter><parameter name="RDY">1</parameter><parameter name="ARS">32</parameter></Instrument_Parameters_Rf><Sample_Parameters_><parameter name="BLD"></parameter><parameter name="CNM">Admin</parameter><parameter name="CPY"></parameter><parameter name="DPM"></parameter><parameter name="EXP">IRBT_v3_32Scans.XPM</parameter><parameter name="LCT"></parameter><parameter name="SFM">Microplate, HTS-XT</parameter><parameter name="SNM">220601-1028(v.3)_JMJ44M (D_6)_H9_bee9288f-146f-459b-a96b-764afa425707.0</parameter><parameter name="XPP">C:\Users\Public\Documents\Bruker\OPUS_8.2.28\XPM</parameter><parameter name="IST">OK</parameter><parameter name="CPG">1252</parameter><parameter name="UID">c5a85cef-7139-41b2-bfce-a6ce299f328e</parameter></Sample_Parameters_><Instrument_Parameters_><parameter name="HFL">15800.168544</parameter><parameter name="LFL">0</parameter><parameter name="LWN">15800.168544</parameter><parameter name="ABP">32197</parameter><parameter name="SSP">1</parameter><parameter name="ASG">2</parameter><parameter name="ARG">2</parameter><parameter name="ASS">32</parameter><parameter name="GFW">16</parameter><parameter name="GBW">16</parameter><parameter name="BFW">0</parameter><parameter name="BBW">0</parameter><parameter name="PKA">7383</parameter><parameter name="PKL">4988</parameter><parameter name="PRA">7666</parameter><parameter name="PRL">4993</parameter><parameter name="P2A">1</parameter><parameter name="P2L">1</parameter><parameter name="P2R">1</parameter><parameter name="P2K">1</parameter><parameter name="DAQ">0</parameter><parameter name="AG2">1</parameter><parameter name="SSM">1</parameter><parameter name="RSN">13615</parameter><parameter name="CRR">0</parameter><parameter name="SRT">1654085070.332</parameter><parameter name="DUR">19.6389923095703</parameter><parameter name="TSC">28.9</parameter><parameter name="MVD">0.880011320114136</parameter><parameter name="AN1">0.225833662871056</parameter><parameter name="AN2">0</parameter><parameter name="VSN">2.485 Apr  4 2017</parameter><parameter name="SRN">0085</parameter><parameter name="CAM">0</parameter><parameter name="INS">IR-Biotyper</parameter><parameter name="FOC">69</parameter><parameter name="RDY">1</parameter></Instrument_Parameters_><History/></OPUSDataFile>
