<?xml version="1.0" encoding="UTF-8" ?>
<OPUSDataFile><AB><Ydata ylabel="Absorbance Units"><values byteorder="INTEL" format="FLOAT32" numvalues="3497"> -0.07586672 -0.075914 -0.07594518 -0.07596084 -0.07595164 -0.07591711 -0.07586025 -0.07578199 -0.07569359 -0.07559753
 -0.07551433 -0.07544507 -0.07540678 -0.07539363 -0.07540176 -0.07542259 -0.07543825 -0.07545032 -0.07545163 -0.07545201
 -0.07545875 -0.07547221 -0.07549757 -0.07552157 -0.07554009 -0.07554559 -0.07553357 -0.07551182 -0.07548067 -0.07544901
 -0.07541811 -0.07538723 -0.07535639 -0.07532277 -0.07528679 -0.07525261 -0.0752214 -0.07520238 -0.07519595 -0.07520905
 -0.07524001 -0.07528955 -0.07535297 -0.07542411 -0.07549628 -0.07555928 -0.0756098 -0.07564004 -0.07565574 -0.07565675
 -0.07565263 -0.07564845 -0.07564304 -0.07563884 -0.075623 -0.07559305 -0.07554548 -0.07547838 -0.07541028 -0.07534213
 -0.07529677 -0.07527398 -0.07527668 -0.07530193 -0.07533328 -0.07536948 -0.07539666 -0.07541695 -0.07542873 -0.07543379
 -0.07543398 -0.07543146 -0.0754283 -0.07542934 -0.07543989 -0.07546007 -0.075495 -0.07552958 -0.07556145 -0.07556961
 -0.07554606 -0.07549071 -0.07539906 -0.07530041 -0.07519622 -0.07512265 -0.07508188 -0.07509139 -0.07515009 -0.07524751
 -0.07537889 -0.07551145 -0.07563936 -0.07572252 -0.07576203 -0.07573628 -0.07565966 -0.07554401 -0.07540796 -0.07527871
 -0.07516421 -0.07508318 -0.07502522 -0.07499202 -0.07496443 -0.07493299 -0.0748971 -0.07485142 -0.0748181 -0.0748004
 -0.07481213 -0.07485683 -0.0749165 -0.07499039 -0.07504642 -0.07508433 -0.07509337 -0.07507747 -0.07505546 -0.0750311
 -0.07503002 -0.07504912 -0.07509658 -0.07516073 -0.07522555 -0.07528234 -0.07531139 -0.07531881 -0.07530319 -0.07527075
 -0.07522702 -0.07516634 -0.07508533 -0.07498998 -0.07487547 -0.07477914 -0.07470377 -0.07469805 -0.07476892 -0.07493047
 -0.0751848 -0.07543293 -0.07566622 -0.07572354 -0.07562069 -0.07537587 -0.07501975 -0.07468228 -0.07436762 -0.07415204
 -0.07402358 -0.07400133 -0.07405774 -0.07417407 -0.07430959 -0.07442373 -0.07449538 -0.07449286 -0.07444315 -0.07434569
 -0.07424159 -0.07414467 -0.07406291 -0.07400148 -0.07394681 -0.07389732 -0.073852 -0.07381053 -0.07378853 -0.07378646
 -0.07381482 -0.07387099 -0.07394465 -0.07403026 -0.07410086 -0.07415423 -0.07416935 -0.07415145 -0.07409865 -0.07402012
 -0.07392523 -0.07382291 -0.07372295 -0.07363237 -0.0735581 -0.07350206 -0.07346785 -0.07344964 -0.07344753 -0.07345132
 -0.07345921 -0.07346545 -0.07346943 -0.073466 -0.07345492 -0.07342326 -0.07337062 -0.07328828 -0.07317813 -0.07304817
 -0.07290111 -0.07275128 -0.07260069 -0.0724608 -0.07233408 -0.07223053 -0.07214975 -0.0720982 -0.07206523 -0.07204583
 -0.07202591 -0.07199343 -0.07194991 -0.07189042 -0.07183093 -0.07177565 -0.07173109 -0.07170011 -0.07167707 -0.07166117
 -0.07165435 -0.07165665 -0.07167435 -0.07170676 -0.07174367 -0.07178225 -0.07179648 -0.07178745 -0.07174283 -0.07167148
 -0.07158933 -0.07150485 -0.07144137 -0.0713999 -0.07139285 -0.07141259 -0.07145759 -0.0715187 -0.07158864 -0.07166767
 -0.07175441 -0.07184998 -0.07195838 -0.07205892 -0.07215066 -0.07220218 -0.07220858 -0.07216705 -0.07207696 -0.07194766
 -0.07177928 -0.07157083 -0.07132586 -0.07106634 -0.07080045 -0.07057399 -0.07038866 -0.07027564 -0.07022382 -0.07023252
 -0.07027828 -0.07033122 -0.07037693 -0.07038781 -0.0703757 -0.07033949 -0.07029276 -0.07024305 -0.07018893 -0.0701331
 -0.07006364 -0.06997873 -0.06986992 -0.06973489 -0.06958275 -0.06941364 -0.06925184 -0.06909879 -0.06898094 -0.06889825
 -0.06886674 -0.06887912 -0.06892031 -0.06897178 -0.06897391 -0.06892286 -0.06877301 -0.06855895 -0.06830532 -0.06804224
 -0.06781114 -0.06760538 -0.06743754 -0.06727788 -0.067116 -0.06693499 -0.06672306 -0.06649949 -0.06626359 -0.06604929
 -0.06586129 -0.06571179 -0.06560259 -0.06550658 -0.06542122 -0.06529561 -0.06513112 -0.0649106 -0.06464414 -0.06436533
 -0.064079 -0.06381565 -0.06357335 -0.06336212 -0.06317978 -0.06303047 -0.06290327 -0.06279592 -0.0626807 -0.06254175
 -0.06235569 -0.06210537 -0.06179555 -0.06142305 -0.06100132 -0.06053225 -0.06002574 -0.05948256 -0.05891552 -0.05832545
 -0.05772423 -0.05711275 -0.05650578 -0.05590599 -0.05534085 -0.05481124 -0.05433914 -0.05391588 -0.05353093 -0.05317263
 -0.05281226 -0.05244964 -0.05207412 -0.05168479 -0.0512839 -0.05084942 -0.05036819 -0.04982661 -0.04920769 -0.04854143
 -0.04783189 -0.04710872 -0.04637957 -0.04565139 -0.04492552 -0.04420774 -0.04349834 -0.0428091 -0.04214058 -0.04150354
 -0.04089704 -0.04032231 -0.03977214 -0.03922087 -0.03865394 -0.03801328 -0.03730293 -0.03649106 -0.03562025 -0.0347352
 -0.03386147 -0.03304608 -0.03227136 -0.03154244 -0.0308309 -0.03012562 -0.02940853 -0.02867023 -0.0279124 -0.02713239
 -0.02634511 -0.02555277 -0.02475841 -0.02396291 -0.02314681 -0.02230944 -0.02143704 -0.02053306 -0.01961781 -0.01869554
 -0.01779651 -0.01691896 -0.01607342 -0.01525647 -0.01446772 -0.01370142 -0.01295314 -0.01220908 -0.01145432 -0.01068274
 -0.009881526 -0.00906661 -0.008243032 -0.007418445 -0.006601672 -0.005766213 -0.004907729 -0.00400916 -0.003063243 -0.00211307
 -0.001160569 -0.0002608055 0.0005855168 0.001378346 0.002122479 0.002855619 0.003580779 0.00433266 0.005106942 0.005912187
 0.006736455 0.007560603 0.008377079 0.009162582 0.009930513 0.01067891 0.01144013 0.01223481 0.01308175 0.01400213
 0.01496951 0.01598538 0.01700107 0.01800719 0.01897252 0.01989064 0.02075959 0.02157809 0.02236934 0.02313466
 0.02390024 0.02466582 0.02544019 0.02622301 0.02701657 0.02782332 0.02865269 0.02950379 0.03038203 0.03127842
 0.03218348 0.03308915 0.03398346 0.03486603 0.03573319 0.03658649 0.03742618 0.03825209 0.03906399 0.03986291
 0.0406487 0.04142419 0.04218937 0.04294965 0.0437053 0.0444636 0.04522473 0.04599013 0.04675924 0.04752699
 0.0482944 0.04906279 0.04983504 0.05062082 0.05142042 0.05224022 0.0530759 0.05392585 0.05478168 0.0556364
 0.0564796 0.05730119 0.05810004 0.05886911 0.05962706 0.06037697 0.06113877 0.06191954 0.0627136 0.06352233
 0.06432591 0.06512266 0.06590696 0.06667881 0.06744417 0.0682028 0.06895552 0.06970116 0.07043513 0.07115625
 0.07185871 0.07254232 0.0732022 0.07384334 0.07446902 0.07508787 0.07571077 0.07633817 0.0769747 0.07761472
 0.07825568 0.07889795 0.07954191 0.08018487 0.08082913 0.08145367 0.08205569 0.08262309 0.08315344 0.08367477
 0.08418885 0.08473678 0.08531697 0.08593502 0.08658358 0.0872315 0.08787415 0.08847997 0.08905318 0.08958474
 0.09008674 0.09057178 0.09105019 0.0915396 0.09203514 0.09254121 0.09304319 0.09353331 0.09401048 0.09446996
 0.09492738 0.09538543 0.09585387 0.09633549 0.09682345 0.0973177 0.09780531 0.09828584 0.09875378 0.09921099
 0.0996708 0.1001369 0.1006361 0.1011655 0.101735 0.102329 0.1029219 0.1034994 0.1040267 0.1045092
 0.104936 0.1053263 0.1056894 0.1060394 0.1063857 0.1067317 0.1070808 0.1074307 0.107782 0.1081286
 0.1084698 0.108801 0.1091214 0.1094367 0.1097474 0.1100692 0.1104029 0.1107622 0.111145 0.1115506
 0.1119733 0.1123953 0.1128118 0.1132018 0.11357 0.113911 0.1142403 0.1145706 0.1149147 0.1152886
 0.115687 0.1161166 0.1165489 0.1169792 0.1173732 0.11772 0.1180153 0.1182532 0.1184718 0.1186734
 0.1188935 0.1191327 0.1193737 0.1196125 0.119803 0.119949 0.1200411 0.120093 0.1201416 0.1201957
 0.1202938 0.120431 0.1206183 0.1208422 0.1210938 0.1213608 0.1216304 0.1219021 0.1221688 0.1224481
 0.1227439 0.1230715 0.1234401 0.1238268 0.1242343 0.1245995 0.1249177 0.1251359 0.1252525 0.1252794
 0.1252231 0.1251522 0.1250705 0.1250346 0.125036 0.1250765 0.1251509 0.1252442 0.1253686 0.1255379
 0.1257546 0.1260387 0.1263502 0.1266724 0.1269575 0.1271678 0.1273182 0.1273945 0.1274702 0.1275592
 0.1277112 0.1279407 0.1282203 0.1285513 0.1288603 0.1291437 0.129345 0.1294664 0.1295051 0.1294716
 0.1294159 0.1293512 0.1293462 0.1294045 0.1295722 0.1298317 0.1301847 0.1305922 0.1310195 0.1314259
 0.1317671 0.1320383 0.1322156 0.1323465 0.1324362 0.1325476 0.1326969 0.1329139 0.1332066 0.133575
 0.1340195 0.1345433 0.1351467 0.13583 0.1365885 0.1373783 0.1381855 0.1389155 0.1395588 0.1400267
 0.1403374 0.1404744 0.14049 0.1404489 0.140407 0.1404535 0.1405947 0.1408785 0.1412397 0.1416693
 0.1420731 0.1424167 0.1426464 0.142737 0.1427073 0.1425513 0.1423383 0.1420726 0.1418222 0.1415902
 0.1414079 0.1412743 0.1411882 0.1411481 0.1411455 0.141181 0.1412529 0.1413594 0.1415006 0.141662
 0.1418301 0.14197 0.1420455 0.1420166 0.1418378 0.1415078 0.1410004 0.1403791 0.1396502 0.138906
 0.1381683 0.1374974 0.1369079 0.1364076 0.1360004 0.1356564 0.1353739 0.135098 0.1348262 0.1345067
 0.1341456 0.1337441 0.1333179 0.1329235 0.1325618 0.1322729 0.1320247 0.1317892 0.13153 0.1311891
 0.1307738 0.1302581 0.1297025 0.1291237 0.1285931 0.1281421 0.1277985 0.1275841 0.1274497 0.127399
 0.127322 0.1272103 0.1269698 0.1265963 0.1260905 0.1254606 0.1247962 0.124106 0.1234845 0.1229259
 0.1224639 0.1220819 0.1217602 0.1214833 0.1212194 0.1209586 0.1206781 0.1203743 0.1200356 0.1196693
 0.119273 0.1188656 0.1184521 0.1180507 0.1176681 0.1173045 0.1169628 0.1166239 0.1162867 0.1159317
 0.1155579 0.1151622 0.1147454 0.1143171 0.1138784 0.1134405 0.1130048 0.1125827 0.112175 0.1117914
 0.1114267 0.1110798 0.1107385 0.1103891 0.1100239 0.1096305 0.1092154 0.1087774 0.1083281 0.1078724
 0.1074136 0.1069536 0.1064902 0.1060228 0.1055545 0.1050852 0.1046226 0.1041671 0.1037234 0.1032914
 0.1028732 0.1024687 0.1020798 0.1017051 0.101342 0.1009879 0.1006353 0.1002841 0.09992979 0.09957536
 0.09922273 0.09887262 0.09852429 0.09818445 0.09785008 0.0975509 0.09729461 0.09711266 0.09702273 0.09699243
 0.09702938 0.09701978 0.09695512 0.09673059 0.09634063 0.0957948 0.09510278 0.09438463 0.09365199 0.09303657
 0.09253205 0.09219474 0.09199364 0.0918925 0.09184867 0.09177615 0.09165557 0.09142065 0.0911061 0.09070799
 0.09029081 0.08989264 0.08953507 0.08924472 0.0889772 0.08872622 0.08845653 0.08815391 0.08786294 0.08758333
 0.08740268 0.08732565 0.08738216 0.08756559 0.08780311 0.08808038 0.08827489 0.08838435 0.08832763 0.08812951
 0.08780003 0.08738071 0.08694468 0.08651344 0.08614802 0.08582669 0.08555508 0.08530077 0.0850408 0.08478209
 0.08451729 0.08427899 0.0840786 0.08391131 0.08378249 0.08364637 0.08349772 0.08332317 0.08312177 0.08294447
 0.08279385 0.08272053 0.0827175 0.08277101 0.08286837 0.08295518 0.0830293 0.08305607 0.08304565 0.083
 0.08292655 0.0828387 0.08272756 0.08259504 0.08241763 0.08218305 0.08187605 0.081481 0.08102383 0.08049935
 0.07997905 0.07947134 0.0790448 0.07870978 0.07846908 0.07832349 0.07820011 0.07809401 0.07791891 0.07767844
 0.07734589 0.07693831 0.07650114 0.07605099 0.07565328 0.07530677 0.07504304 0.07484271 0.07469832 0.07458533
 0.07448275 0.07437252 0.07423752 0.07407608 0.0738795 0.07366982 0.07344873 0.07324632 0.07307073 0.07291843
 0.07279298 0.07264293 0.07246553 0.07221548 0.07189514 0.07152724 0.07112084 0.07074687 0.07040324 0.07012592
 0.06989425 0.06967544 0.06945515 0.06918667 0.06888752 0.06855454 0.06822193 0.06791901 0.06765863 0.06746075
 0.06730909 0.06720227 0.06712435 0.067069 0.06703848 0.06703247 0.06705379 0.06710444 0.06716295 0.06722838
 0.06725714 0.0672475 0.0671641 0.06701082 0.06679071 0.06651483 0.06622418 0.06592947 0.06567805 0.06547246
 0.06533898 0.06527365 0.06528215 0.06535906 0.0655033 0.06570575 0.06596366 0.06626133 0.06659407 0.06694353
 0.06730457 0.06766363 0.06801654 0.06836399 0.06870376 0.06906183 0.06943937 0.0698854 0.07040175 0.07102658
 0.07175479 0.07257639 0.07347886 0.07441007 0.07536183 0.07628538 0.07718554 0.07804714 0.07888144 0.07969633
 0.08049925 0.08129796 0.0820993 0.08290567 0.08373404 0.0845901 0.08549129 0.08644748 0.08744563 0.08849102
 0.08952617 0.09054786 0.09148573 0.09233526 0.09305937 0.09365839 0.0941347 0.09448977 0.09473358 0.09486629
 0.09488855 0.09481065 0.0946493 0.09443645 0.09422883 0.09406491 0.09401725 0.09409422 0.09433636 0.09470753
 0.09520246 0.09577481 0.09640174 0.0970704 0.09776875 0.09851851 0.09932081 0.1002 0.10116 0.1022014
 0.1033249 0.104495 0.1057078 0.1068963 0.1080575 0.1091318 0.1101284 0.1110452 0.1119047 0.1127643
 0.1136371 0.1145848 0.1155751 0.1166199 0.1176067 0.1184808 0.1190433 0.1191848 0.1187068 0.1174849
 0.115503 0.1126858 0.1093109 0.105382 0.1013543 0.09727206 0.09350608 0.09008382 0.08712468 0.0846236
 0.08249505 0.08072488 0.07917821 0.07785039 0.07665484 0.07558941 0.07460951 0.07370446 0.07283651 0.07199565
 0.07115045 0.07031014 0.0694669 0.06864814 0.06786677 0.06714512 0.06649712 0.06592529 0.06543408 0.06501545
 0.06466849 0.0643878 0.06417227 0.06402375 0.06394225 0.06393403 0.06399848 0.06412895 0.06431907 0.06452484
 0.06473414 0.06487367 0.06494009 0.06488077 0.06471546 0.06444899 0.06411702 0.06376392 0.06341948 0.06312499
 0.06289218 0.06273963 0.0626675 0.062677 0.06277802 0.06296771 0.06328388 0.06373149 0.06435078 0.06515396
 0.06608855 0.06715591 0.06811801 0.06895519 0.06929971 0.06914296 0.0682229 0.06659402 0.06430787 0.06147923
 0.05842537 0.05524591 0.05227713 0.04953069 0.04717196 0.04512857 0.04339987 0.04189792 0.0405675 0.03936166
 0.03824617 0.03721138 0.03624859 0.03535653 0.03453421 0.03377912 0.03309123 0.03246569 0.03190244 0.03138588
 0.03091465 0.03046346 0.0300313 0.02959834 0.0291662 0.02873008 0.0282938 0.02786404 0.02744578 0.02705145
 0.02668311 0.02635165 0.02604723 0.02576897 0.02549521 0.02521216 0.02490755 0.02456757 0.0242109 0.02383593
 0.0234807 0.0231529 0.02287206 0.02264392 0.02244803 0.02228391 0.0221127 0.02193331 0.02172688 0.02149618
 0.02125356 0.02100088 0.02075484 0.02050987 0.02026046 0.01999871 0.01970474 0.01938147 0.01902046 0.01863862
 0.01824593 0.017862 0.0175013 0.01717633 0.01689694 0.01666342 0.01648139 0.01633 0.01620993 0.01607947
 0.01593414 0.01574096 0.01549655 0.01521171 0.01488848 0.01457225 0.01426458 0.01400037 0.01377457 0.0135856
 0.0134256 0.01327193 0.01312109 0.01295496 0.01277618 0.01257955 0.01237234 0.01215776 0.01194627 0.01174449
 0.01156164 0.01140444 0.01127254 0.01117 0.01108029 0.01100312 0.01091078 0.01079997 0.01065138 0.01046291
 0.0102419 0.009989592 0.009734373 0.009477458 0.00924244 0.009026528 0.008831022 0.008651173 0.008473542 0.008297727
 0.008114431 0.007931091 0.007752522 0.007588382 0.007451519 0.00733992 0.007261127 0.007192912 0.007130573 0.007045063
 0.006925245 0.006762206 0.006549014 0.006306826 0.006035917 0.005768922 0.0055083 0.005271978 0.005060051 0.004867969
 0.004694133 0.004523786 0.004356499 0.004182195 0.004002482 0.003816436 0.003626255 0.003435417 0.003246088 0.003062207
 0.002886039 0.002721477 0.0025682 0.00242857 0.002296497 0.00217118 0.002042739 0.001907965 0.001761255 0.00160006
 0.001427987 0.001244547 0.00105965 0.0008738824 0.0006969036 0.0005291363 0.0003771992 0.0002412383 0.0001258245 3.032758E-05
 -4.428126E-05 -0.0001013253 -0.0001481149 -0.0001910658 -0.0002457862 -0.0003168964 -0.0004185814 -0.0005479435 -0.0007090959 -0.0008923752
 -0.001093847 -0.001302731 -0.001513706 -0.001719023 -0.001915095 -0.002099094 -0.002269218 -0.002429086 -0.002578628 -0.002724178
 -0.002866275 -0.00300684 -0.003145834 -0.003280509 -0.003410907 -0.003536118 -0.00365663 -0.00377445 -0.003889372 -0.004001776
 -0.004111398 -0.004217205 -0.004320906 -0.004423927 -0.004529042 -0.004640031 -0.00475644 -0.004880141 -0.005006371 -0.005133913
 -0.005257415 -0.005374674 -0.005484187 -0.00558472 -0.005679729 -0.005769211 -0.005858816 -0.005948917 -0.006044609 -0.006146126
 -0.006257277 -0.006377872 -0.006508591 -0.006648104 -0.006791186 -0.00693575 -0.007072452 -0.007201516 -0.007317638 -0.007425375
 -0.007528388 -0.007631539 -0.007741966 -0.007858537 -0.007984295 -0.00811128 -0.008237003 -0.008354224 -0.008459155 -0.008553067
 -0.008634548 -0.008712505 -0.008787676 -0.008868835 -0.008956823 -0.00905417 -0.00916087 -0.009274341 -0.009394165 -0.00951595
 -0.009639013 -0.009758022 -0.009872247 -0.009976458 -0.01007112 -0.01015376 -0.0102275 -0.01029497 -0.01036069 -0.01042977
 -0.0105057 -0.0105927 -0.01069078 -0.01080185 -0.01092153 -0.01104964 -0.01117906 -0.01130862 -0.01143178 -0.01154753
 -0.01165228 -0.01174565 -0.01182606 -0.01189347 -0.01194812 -0.01199044 -0.01202399 -0.0120497 -0.0120738 -0.01209669
 -0.01212272 -0.01215191 -0.01218555 -0.01222557 -0.01227465 -0.01233598 -0.01241471 -0.01250927 -0.01262264 -0.01274407
 -0.01287064 -0.01298939 -0.01309469 -0.01318361 -0.01325318 -0.01331245 -0.0133618 -0.01341274 -0.01346631 -0.01352752
 -0.01359646 -0.01367107 -0.01375097 -0.01383197 -0.01391374 -0.01399277 -0.01406848 -0.01413739 -0.01419911 -0.01425061
 -0.01429343 -0.01432741 -0.01435715 -0.01438693 -0.01442052 -0.01446297 -0.01451189 -0.01456835 -0.014626 -0.01468228
 -0.01473652 -0.01478689 -0.01484174 -0.01490181 -0.01497504 -0.0150625 -0.01516093 -0.01527 -0.01537747 -0.01548274
 -0.01557493 -0.0156549 -0.0157204 -0.01577384 -0.01582092 -0.0158645 -0.0159131 -0.01596857 -0.01603792 -0.01611946
 -0.0162154 -0.01631933 -0.01642846 -0.01653474 -0.01663363 -0.01672058 -0.01679258 -0.01685052 -0.01689344 -0.01692653
 -0.01694984 -0.01697205 -0.01699368 -0.01702458 -0.01706519 -0.01712118 -0.01719207 -0.01727551 -0.01737019 -0.0174687
 -0.01756972 -0.0176654 -0.01775519 -0.01783391 -0.01790245 -0.01795941 -0.01800729 -0.01804757 -0.01808382 -0.01811851
 -0.01815542 -0.01819687 -0.01824538 -0.01830296 -0.01836736 -0.01843916 -0.01851164 -0.01858375 -0.01865242 -0.01871703
 -0.01878233 -0.01884855 -0.0189207 -0.01899824 -0.01907793 -0.01915868 -0.01923316 -0.01930132 -0.01935888 -0.01940722
 -0.01944666 -0.01947998 -0.01951087 -0.01954291 -0.01958202 -0.01962729 -0.0196817 -0.0197373 -0.01979115 -0.01983689
 -0.01987009 -0.01989579 -0.01991347 -0.01993329 -0.01995713 -0.01998711 -0.02002389 -0.02006183 -0.0201007 -0.02013697
 -0.02017096 -0.02020463 -0.02023821 -0.02027401 -0.02031144 -0.02034991 -0.0203885 -0.02042467 -0.02045861 -0.02048902
 -0.02051774 -0.02054599 -0.02057584 -0.02060964 -0.02064687 -0.02068862 -0.02073117 -0.02077375 -0.02081246 -0.0208459
 -0.02087405 -0.02089614 -0.02091779 -0.02093929 -0.02096735 -0.02100224 -0.02104497 -0.02109478 -0.0211442 -0.02119221
 -0.02122923 -0.02125554 -0.02126632 -0.02126377 -0.02124941 -0.02122735 -0.02120375 -0.0211834 -0.02117403 -0.021177
 -0.02119712 -0.02122921 -0.02127298 -0.02132009 -0.02136767 -0.02141034 -0.02144599 -0.02147414 -0.02149412 -0.02150896
 -0.02151874 -0.02152806 -0.02153718 -0.02154981 -0.02156603 -0.02158761 -0.02161485 -0.02164985 -0.02169373 -0.02175074
 -0.0218229 -0.02191608 -0.02203316 -0.02218028 -0.02236131 -0.02258214 -0.02284641 -0.02315906 -0.02352023 -0.02393262
 -0.02439013 -0.02489258 -0.02542908 -0.02599713 -0.0265895 -0.02720397 -0.02784417 -0.02851029 -0.02920677 -0.02993345
 -0.03066144 -0.03138413 -0.03202162 -0.0325626 -0.03290336 -0.03304051 -0.03289906 -0.03250274 -0.031849 -0.03100815
 -0.03007725 -0.02913552 -0.0283124 -0.02762552 -0.02713464 -0.02681198 -0.02665898 -0.02664752 -0.02677103 -0.02699888
 -0.0273313 -0.02769983 -0.02809989 -0.02843491 -0.02869365 -0.02884786 -0.02889625 -0.0288951 -0.0288474 -0.02880548
 -0.02876689 -0.0287458 -0.02873663 -0.028729 -0.02871771 -0.02868466 -0.02863079 -0.02854802 -0.02844345 -0.02832158
 -0.02818864 -0.02805037 -0.02791139 -0.02777479 -0.02764569 -0.02752662 -0.02742 -0.0273268 -0.02724831 -0.02718451
 -0.02713918 -0.02711285 -0.02710538 -0.02711671 -0.02713533 -0.02716062 -0.02718083 -0.02719758 -0.02721391 -0.02723214
 -0.027263 -0.02730472 -0.02735946 -0.02742252 -0.02748696 -0.02755089 -0.02760874 -0.02766293 -0.02771321 -0.02776305
 -0.02781434 -0.02786876 -0.02792734 -0.02799062 -0.02805874 -0.02813281 -0.02821284 -0.02830101 -0.02839763 -0.02850304
 -0.02861725 -0.02873501 -0.02885579 -0.02897157 -0.0290826 -0.02918589 -0.029283 -0.02937787 -0.02947144 -0.02956835
 -0.02966749 -0.02976915 -0.0298721 -0.02997435 -0.03007756 -0.03018183 -0.03029044 -0.03040586 -0.03052747 -0.03065692
 -0.03078705 -0.03091686 -0.03103878 -0.03115106 -0.03125245 -0.03134239 -0.03142481 -0.0314999 -0.03157135 -0.03163926
 -0.03170556 -0.03177047 -0.03183622 -0.03190297 -0.03197252 -0.03204487 -0.03212097 -0.03220072 -0.03228476 -0.03237192
 -0.03246181 -0.03255141 -0.03263825 -0.03272034 -0.03279519 -0.03286502 -0.03292967 -0.03299301 -0.03305614 -0.03312064
 -0.03318709 -0.03325488 -0.033324 -0.03339396 -0.03346473 -0.03353634 -0.03360892 -0.03368398 -0.0337619 -0.03384608
 -0.0339363 -0.03403423 -0.03413776 -0.03424322 -0.03434769 -0.03444442 -0.03453285 -0.03460891 -0.03467549 -0.03473271
 -0.03478589 -0.03483732 -0.03489273 -0.03495474 -0.03502653 -0.03511017 -0.03520243 -0.03530402 -0.03540473 -0.03550387
 -0.03559056 -0.03566412 -0.03572221 -0.03576551 -0.03580246 -0.03583425 -0.03587255 -0.03591718 -0.03597403 -0.03604157
 -0.036119 -0.03620527 -0.03629824 -0.03639755 -0.03650268 -0.03661131 -0.03672254 -0.03683117 -0.0369342 -0.03702822
 -0.03711015 -0.03718355 -0.03724794 -0.03731102 -0.03737417 -0.03744097 -0.03751228 -0.03758452 -0.03765754 -0.03772711
 -0.03779336 -0.03785733 -0.03791962 -0.03798469 -0.03805232 -0.03812454 -0.03819963 -0.03827462 -0.03834767 -0.0384137
 -0.03847378 -0.0385259 -0.03857547 -0.03862581 -0.03868195 -0.03874909 -0.03882393 -0.0389079 -0.03899088 -0.03907034
 -0.03914048 -0.03919896 -0.03925088 -0.03929612 -0.03934435 -0.03939615 -0.0394565 -0.03952531 -0.03960164 -0.03968514
 -0.03977314 -0.03986554 -0.03996076 -0.04005845 -0.0401575 -0.04025649 -0.04035272 -0.04044461 -0.04052854 -0.04060587
 -0.04067552 -0.04074214 -0.04080829 -0.04087622 -0.04094852 -0.04102091 -0.04109311 -0.04115973 -0.04121911 -0.04127335
 -0.04132211 -0.04137312 -0.04142686 -0.04148677 -0.04155252 -0.0416192 -0.04168643 -0.04174887 -0.04180781 -0.04186521
 -0.04192264 -0.04198578 -0.04205325 -0.04212595 -0.04220043 -0.04227242 -0.04234121 -0.04240372 -0.0424638 -0.04252234
 -0.04258409 -0.04265142 -0.04272565 -0.04280809 -0.04289613 -0.0429898 -0.04308479 -0.0431807 -0.0432738 -0.04336381
 -0.04344949 -0.0435309 -0.0436086 -0.04368293 -0.04375613 -0.0438287 -0.04390387 -0.04398186 -0.04406503 -0.0441528
 -0.04424556 -0.04434187 -0.04444072 -0.04453946 -0.04463641 -0.044727 -0.0448079 -0.04487725 -0.04493184 -0.04497888
 -0.04501864 -0.04506242 -0.04511283 -0.04517249 -0.04524249 -0.0453162 -0.04539325 -0.04547083 -0.04554924 -0.04563379
 -0.04572438 -0.0458238 -0.04593001 -0.04603666 -0.04614192 -0.04623718 -0.04632371 -0.04639892 -0.04646697 -0.04653166
 -0.04659696 -0.04666792 -0.04674525 -0.04683141 -0.04692356 -0.04702143 -0.04712152 -0.04722295 -0.04732314 -0.04742163
 -0.04751604 -0.04760597 -0.04769095 -0.04777087 -0.04784898 -0.04792547 -0.0480044 -0.0480855 -0.04816909 -0.04825468
 -0.04834041 -0.04842624 -0.04851117 -0.04859516 -0.0486775 -0.04875872 -0.04883857 -0.04891934 -0.04900277 -0.04909088
 -0.04918601 -0.04928662 -0.04939324 -0.04950163 -0.04961066 -0.04971782 -0.04982225 -0.04992451 -0.05002454 -0.05012354
 -0.05022161 -0.05031911 -0.05041591 -0.0505098 -0.05060034 -0.05068301 -0.05075801 -0.05082291 -0.05087972 -0.05093205
 -0.05098246 -0.05103765 -0.05109771 -0.05116614 -0.05124 -0.05131776 -0.05139757 -0.05147725 -0.05155847 -0.05164146
 -0.05172754 -0.05181795 -0.05190879 -0.05199998 -0.05208546 -0.05216424 -0.0522361 -0.05230088 -0.05236353 -0.05242417
 -0.05248504 -0.05254579 -0.0526047 -0.0526618 -0.05271631 -0.05276841 -0.05281835 -0.05286594 -0.05291029 -0.05295309
 -0.05299497 -0.05304067 -0.05309486 -0.0531596 -0.05323973 -0.05332728 -0.05342166 -0.05350993 -0.05358743 -0.05365092
 -0.05369767 -0.05373758 -0.05377137 -0.05380798 -0.05384825 -0.05388965 -0.05393193 -0.0539689 -0.0540013 -0.05403148
 -0.05406088 -0.05409732 -0.05414026 -0.05419251 -0.05425224 -0.05431688 -0.0543866 -0.05446045 -0.05453919 -0.05462448
 -0.05471252 -0.05480277 -0.05488766 -0.05496332 -0.05502747 -0.05507718 -0.0551201 -0.05515659 -0.05519694 -0.05524272
 -0.05529689 -0.05535991 -0.05542493 -0.0554916 -0.0555528 -0.0556093 -0.05566339 -0.05571641 -0.05577607 -0.05584112
 -0.05591292 -0.05598764 -0.05605835 -0.05612361 -0.05617765 -0.05622373 -0.05626231 -0.0562978 -0.05633333 -0.05637057
 -0.05641125 -0.05645476 -0.05650137 -0.05654983 -0.05659996 -0.05665078 -0.05670219 -0.05675306 -0.05680332 -0.05685217
 -0.05689965 -0.05694671 -0.05699358 -0.05704259 -0.05709337 -0.05714574 -0.05719871 -0.05724895 -0.05729698 -0.05734161
 -0.05738525 -0.05743131 -0.0574793 -0.05753127 -0.0575821 -0.05762873 -0.05766909 -0.05769992 -0.05772764 -0.05775318
 -0.05778309 -0.05781978 -0.05786005 -0.05790425 -0.05794393 -0.05797833 -0.05800752 -0.05803203 -0.05806454 -0.05810585
 -0.05816921 -0.05825254 -0.05835548 -0.05847229 -0.05858778 -0.05869581 -0.05877635 -0.05882989 -0.05884573 -0.05883567
 -0.05880483 -0.05876882 -0.05873958 -0.05872408 -0.05873031 -0.0587513 -0.05878787 -0.05882669 -0.05886474 -0.05889701
 -0.0589218 -0.05894532 -0.05896784 -0.05899609 -0.05903025 -0.05907259 -0.05912286 -0.05918078 -0.05924518 -0.05931143
 -0.05937728 -0.0594332 -0.05947974 -0.05951261 -0.05953555 -0.0595522 -0.05956429 -0.05957483 -0.05958411 -0.05959257
 -0.05960222 -0.05961409 -0.05962921 -0.05964876 -0.05966965 -0.05969184 -0.05971033 -0.05972456 -0.05973053 -0.05972788
 -0.05971432 -0.05968998 -0.05965868 -0.05962134 -0.05958731 -0.05955674 -0.05953563 -0.05952279 -0.05951782 -0.05951982
 -0.05952733 -0.05953864 -0.05955181 -0.05956277 -0.0595663 -0.0595622 -0.05954647 -0.05952829 -0.05951036 -0.05950103
 -0.05950517 -0.05951815 -0.05954115 -0.05956054 -0.05957458 -0.05957529 -0.05956152 -0.05954082 -0.05951371 -0.05949375
 -0.05948002 -0.05947205 -0.05946558 -0.05943972 -0.0593942 -0.0593143 -0.05920942 -0.05909128 -0.05896716 -0.05885429
 -0.05874901 -0.05865484 -0.05856429 -0.05847251 -0.05837782 -0.05827722 -0.05817499 -0.05807148 -0.05797189 -0.05787835
 -0.05778804 -0.05770273 -0.05760081 -0.05748111 -0.05731798 -0.05711126 -0.05687194 -0.05660317 -0.05633833 -0.056076
 -0.05582804 -0.0555889 -0.05534822 -0.05510264 -0.05484013 -0.05456076 -0.05425892 -0.05393785 -0.05359751 -0.05324445
 -0.05288453 -0.05251648 -0.05214546 -0.05175122 -0.05132877 -0.05086207 -0.05034245 -0.04979175 -0.04921051 -0.04862927
 -0.04805114 -0.04747603 -0.04690387 -0.04632831 -0.04575064 -0.04518163 -0.04462045 -0.04407186 -0.04352807 -0.0429678
 -0.04238658 -0.04175988 -0.0411012 -0.04041676 -0.0397256 -0.039052 -0.03839608 -0.0377673 -0.03715406 -0.03655281
 -0.0359567 -0.03536282 -0.03476889 -0.03417823 -0.03356417 -0.03292991 -0.03219223 -0.03134496 -0.03032108 -0.02912143
 -0.02784199 -0.0264929 -0.02521474 -0.02399351 -0.02283623 -0.02172271 -0.02059426 -0.01944545 -0.01823972 -0.01697309
 -0.01563495 -0.01419397 -0.01263117 -0.010875 -0.008874656 -0.006574 -0.003904588 -0.0009632239 0.002264341 0.005544077
 0.008827668 0.01197016 0.01493806 0.01773147 0.02034483 0.02285083 0.02525537 0.02770652 0.03022062 0.0330282
 0.03610933 0.03953018 0.04317812 0.04672 0.05012918 0.05315015 0.05591112 0.05849344 0.0609914 0.06354555
 0.06615039 0.06884818 0.07160111 0.07439686 0.07722617 0.08009304 0.08294715 0.08578432 0.08852927 0.0911634
 0.09371801 0.09619317 0.09864755 0.1010807 0.1033997 0.1055934 0.1075084 0.1091573 0.1105188 0.1116204
 0.1125411 0.1132851 0.1139009 0.1143791 0.1147135 0.1149351 0.1150643 0.115152 0.1152443 0.1153538
 0.1155091 0.1156647 0.1158184 0.1159026 0.1159039 0.1157701 0.1154916 0.1150405 0.1144107 0.113643
 0.1127408 0.1118092 0.1108472 0.1098889 0.1089198 0.1078831 0.1067733 0.1055358 0.1041922 0.10275
 0.1012607 0.09980179 0.09841085 0.09716308 0.09604724 0.09507867 0.09423816 0.09351398 0.09291774 0.09245072
 0.09212414 0.09194572 0.0918898 0.09195516 0.0921094 0.09234906 0.09266712 0.09306346 0.09355064 0.09412909
 0.09480926 0.09558778 0.09645498 0.09740347 0.09840479 0.09945477 0.1005285 0.1016317 0.1027596 0.1039264
 0.1051425 0.106426 0.1077916 0.1092544 0.1108262 0.1125104 0.1143109 0.116225 0.1182535 0.1203898
 0.122637 0.1249557 0.1273452 0.1297333 0.1321164 0.1344503 0.1367346 0.1389609 0.1411147 0.143122
 0.1449576 0.1464847 0.1477294 0.1486661 0.1493662 0.1499278 0.150394 0.1508562 0.1512982 0.1517473
 0.1521415 0.1524797 0.1526284 0.1525778 0.1520682 0.1510293 0.1493407 0.1469162 0.1442555 0.1413914
 0.138757 0.1363691 0.1340959 0.1319254 0.1296832 0.1273835 0.125017 0.1225984 0.1201866 0.1177486
 0.1152689 0.1126421 0.1096905 0.106375 0.1024993 0.09834601 0.09405497 0.08985505 0.08596536 0.0822218
 0.07861154 0.07499762 0.07131711 0.06767103 0.06405872 0.06063293 0.05741269 0.05439319 0.05157369 0.04884691
 0.04621152 0.04361442 0.04106724 0.03860728 0.03623989 0.03400933 0.03189732 0.029888 0.02795672 0.02605742
 0.02417942 0.02229869 0.02039863 0.01847532 0.01646534 0.01433842 0.01204009 0.009495919 0.006912674 0.004294166
 0.001994943 0.0001005312 -0.001449779 -0.002642077 -0.003760669 -0.004819016 -0.005967911 -0.007199535 -0.008474703 -0.009777572
 -0.01099521 -0.01213743 -0.01317964 -0.01413493 -0.01503429 -0.01584989 -0.01655807 -0.01711743 -0.01746202 -0.01760647
 -0.01753145 -0.01728917 -0.01690394 -0.01640158 -0.01580093 -0.0150917 -0.01427923 -0.01332599 -0.01222997 -0.01093584
 -0.009434721 -0.007742548 -0.005861338 -0.003998077 -0.002166301 -0.0005978938 0.0007214353 0.001750863 0.002515282 0.003076661
 0.003448371 0.003685454 0.003803952 0.003843439 0.003839016 0.00383189 0.003880808 0.004045607 0.00435036 0.004847472
 0.005443895 0.006122962 0.006790381 0.007411459 0.007988156 0.008514429 0.009016393 0.009497331 0.00995233 0.01038114
 0.01075684 0.01107911 0.0113348 0.01152823 0.01167432 0.01178213 0.01188775 0.01200285 0.01217128 0.01240016
 0.01271923 0.01313216 0.01364938 0.01428632 0.01505585 0.01597472 0.01706121 0.01829938 0.01969259 0.02120177
 0.02281168 0.02453279 0.02635468 0.0283747 0.03060074 0.03311602 0.03592471 0.03891007 0.04205393 0.04509102
 0.0480185 0.0506838 0.05310342 0.0552628 0.05715686 0.05877358 0.06008581 0.06104339 0.06163156 0.06180895
 0.06158945 0.06096589 0.05996882 0.05860854 0.05692091 0.05491552 0.05263786 0.05008932 0.04736147 0.04445772
 0.0415313 0.0385965 0.03576771 0.03305168 0.03043708 0.02791958 0.02543475 0.02298784 0.02057398 0.01820939
 0.01595402 0.01380705 0.01180399 0.009917924 0.008123369 0.006391753 0.004680159 0.002975147 0.001249392 -0.0004896737
 -0.002251564 -0.004002461 -0.005736437 -0.007409308 -0.009006836 -0.01051495 -0.01192546 -0.01326637 -0.01453913 -0.01577414
 -0.01697319 -0.01812269 -0.01921903 -0.02020873 -0.02109125 -0.02183274 -0.02244343 -0.02294093 -0.02333689 -0.02366818
 -0.02393912 -0.02417313 -0.02436977 -0.02453637 -0.02467422 -0.02478405 -0.02487497 -0.02494873 -0.02502406 -0.02510629
 -0.02521618 -0.02535961 -0.02555008 -0.02579117 -0.02608564 -0.0264346 -0.02683209 -0.02727786 -0.02776178 -0.02828305
 -0.02882987 -0.02939951 -0.02997156 -0.0305398 -0.03107116 -0.0315609 -0.03197877 -0.03232973 -0.03260589 -0.03282077
 -0.03298611 -0.0331144 -0.03321945 -0.03330763 -0.0333861 -0.03345678 -0.03352173 -0.03358192 -0.03363685 -0.03369294
 -0.03374993 -0.03382203 -0.03391039 -0.03402807 -0.03417591 -0.03435616 -0.03456846 -0.03480793 -0.03507409 -0.03536223
 -0.0356713 -0.03599581 -0.03633349 -0.03667635 -0.03702244 -0.03736474 -0.03770295 -0.03803393 -0.03835835 -0.03867587
 -0.03898688 -0.03929253 -0.03958932 -0.03987768 -0.04014825 -0.04039881 -0.04062258 -0.04081678 -0.0409883 -0.04113704
 -0.04127634 -0.04140702 -0.04153363 -0.0416557 -0.04176658 -0.04186557 -0.04194512 -0.04200494 -0.04204065 -0.04205093
 -0.04203082 -0.04197821 -0.04188677 -0.04175677 -0.04158435 -0.04137564 -0.0411327 -0.04086581 -0.04058118 -0.04028545
 -0.03998388 -0.03967349 -0.0393551 -0.03902186 -0.03867204 -0.03830609 -0.03792322 -0.03753297 -0.03713582 -0.03674401
 -0.03635802 -0.03598722 -0.03563126 -0.03529328 -0.03497146 -0.03466113 -0.03435975 -0.03405814 -0.03375629 -0.03344876
 -0.03313994 -0.0328318 -0.03253147 -0.03224505 -0.03197846 -0.03173666 -0.03152253 -0.03133801 -0.03118535 -0.03106507
 -0.03098075 -0.03093331 -0.03092328 -0.03095143 -0.03100971 -0.03109776 -0.03120245 -0.0313234 -0.03145291 -0.03159184
 -0.03174229 -0.03190525 -0.03208618 -0.03228403 -0.03249967 -0.03272979 -0.03296897 -0.0332151 -0.03346222 -0.03371345
 -0.03396847 -0.03423339 -0.03451187 -0.03480706 -0.03512183 -0.03545381 -0.03580328 -0.03616596 -0.03654131 -0.03692538
 -0.03731788 -0.03771407 -0.03811372 -0.03851018 -0.03890279 -0.03928082 -0.03964298 -0.03997486 -0.04027651 -0.04053903
 -0.04076621 -0.04096247 -0.04113298 -0.04128963 -0.04143342 -0.04157167 -0.04169951 -0.04181651 -0.04191431 -0.04198837
 -0.04203172 -0.04203984 -0.0420123 -0.04194704 -0.04185095 -0.04172441 -0.0415762 -0.04140707 -0.04122518 -0.04103098
 -0.04083659 -0.04064281 -0.04046428 -0.04030062 -0.04015743 -0.04003171 -0.0399153 -0.0398042 -0.03968422 -0.0395526
 -0.03939757 -0.03921936 -0.03901264 -0.03878154 -0.03852695 -0.03825518 -0.03796984 -0.03767606 -0.03737622 -0.03707521
 -0.03677425 -0.03647923 -0.03619155 -0.03591365 -0.03564642 -0.03538529 -0.03513018 -0.03486945 -0.03460192 -0.03430708
 -0.03398289 -0.03360418 -0.03317157 -0.03267219 -0.03211194 -0.03149905 -0.03083995 -0.03015023 -0.02943252 -0.02869526
 -0.02794214 -0.02717732 -0.02640861 -0.0256419 -0.02488121 -0.02413087 -0.02338633 -0.02264737 -0.0219087 -0.02116845
 -0.02042978 -0.01969233 -0.01896536 -0.01824949 -0.01754872 -0.01686264 -0.01618281 -0.01550831 -0.01482735 -0.01414186
 -0.01345285 -0.01276399 -0.01208701 -0.01142047 -0.01076879 -0.01012499 -0.009482399 -0.008834602 -0.008174522 -0.007496085
 -0.00679468 -0.006063568 -0.005297774 -0.004498696 -0.003663982 -0.002805419 -0.00192455 -0.001031522 -0.0001278606 0.0007829067
 0.001700489 0.002621068 0.003544535 0.00446893 0.005394641 0.00632481 0.007257766 0.008190409 0.009116325 0.01001799
 0.01088772 0.01170373 0.01246102 0.0131445 0.01375235 0.01427669 0.01472164 0.01508521 0.01537971 0.01560753
 0.01578658 0.01592031 0.01603045 0.01611994 0.01621363 0.01631453 0.01644053 0.01659319 0.01677638 0.01699022
 0.0172353 0.01751305 0.01783369 0.01820022 0.01862974 0.01912593 0.01970648 0.0203756 0.02114998 0.02202974
 0.02302473 0.02412471 0.02532768 0.02661307 0.02797213 0.02937534 0.03081317 0.03224695 0.03366711 0.03503343
 0.0363379 0.03755004 0.03866588 0.03966178 0.04053586 0.04127072 0.04186676 0.04233361 0.04267767 0.04294946
 0.04315943 0.04337779 0.04361215 0.04391957 0.04430109 0.04478663 0.0453695 0.04605556 0.04683041 0.04768673
 0.0486021 0.04956628 0.05054454 0.05152565 0.05246328 0.05334351 0.05412974 0.05481085 0.05538074 0.05583666
 0.05618773 0.05643492 0.05656832 0.05658602 0.05644782 0.05614842 0.05563034 0.05488733 0.05386224 0.0525517
 0.05091527 0.04895722 0.04666324 0.04404847 0.04112029 0.03791095 0.03444201 0.03076926 0.02692363 0.02297636
 0.01895936 0.01493899 0.01093754 0.007008177 0.003162823 -0.0005569052 -0.004144607 -0.007575665 -0.01084754 -0.01395698
 -0.01690414 -0.01969627 -0.02233338 -0.02481872 -0.02715169 -0.02933039 -0.03135625 -0.03322984 -0.03495871 -0.0365542
 -0.03803094 -0.03941162 -0.04071001 -0.04194803 -0.04312828 -0.04425994 -0.04533708 -0.04635898 -0.04732173 -0.04822398
 -0.04906375 -0.04984072 -0.0505516 -0.05119535 -0.05177576 -0.05229264 -0.05276122 -0.05318234 -0.05357181 -0.0539298
 -0.05426449 -0.05457549 -0.05486585 -0.05513436 -0.05537962 -0.05559957 -0.0557888 -0.05594806 -0.05607532 -0.05617414
 -0.05624799 -0.05629675 -0.05632203 -0.0563206 -0.05629015 -0.05623364 -0.05615041 -0.05604879 -0.05593093 -0.05579849
 -0.05565267 -0.05548591 -0.05529771 -0.05508243 -0.05484026 -0.05457923 -0.05430185 -0.05403223 -0.0537731 -0.05355122
 -0.05336391 -0.05321936 -0.05310885 -0.05301882 -0.05294373 -0.05286822 -0.05279652 -0.05272694 -0.05266493 -0.05261623
 -0.05257484 -0.05254248 -0.05250146 -0.05244809 -0.0523636 -0.05224304 -0.05207876 -0.05186802 -0.0516194 -0.05133297
 -0.05102567 -0.05069828 -0.05036364 -0.05002176 -0.04967817 -0.04933253 -0.04898645 -0.04863928 -0.04828988 -0.04793797
 -0.04758174 -0.04722326 -0.04686446 -0.04650762 -0.04615691 -0.04580939 -0.04546534 -0.04511854 -0.04476472 -0.04440603
 -0.04403966 -0.04368125 -0.04333263 -0.04301113 -0.04272025 -0.04246083 -0.04223384 -0.04202209 -0.04182483 -0.04162765
 -0.04143202 -0.04124492 -0.04106884 -0.04092131 -0.040799 -0.04070371 -0.04062508 -0.04054343 -0.04045061 -0.04032481
 -0.04016879 -0.03997513 -0.03975578 -0.03951585 -0.03926667 -0.03901543 -0.0387654 -0.03851958 -0.0382757 -0.03803395
 -0.03779107 -0.03754684 -0.03729688 -0.03704081 -0.0367754 -0.03650081 -0.03622515 -0.03595006 -0.03569473 -0.0354588
 -0.03525314 -0.03507132 -0.03490117 -0.03473374 -0.03454417 -0.03432978 -0.03407364 -0.03378437 -0.03346143 -0.03312207
 -0.03277677 -0.03244038 -0.03212359 -0.03182889 -0.03156023 -0.03131194 -0.03108364 -0.03087009 -0.03067127 -0.03047735
 -0.03028813 -0.03008308 -0.02986122 -0.0296058 -0.02931811 -0.02900285 -0.02866333 -0.02831809 -0.02796848 -0.02762847
 -0.0272969 -0.02697836 -0.02667033 -0.02637213 -0.02607892 -0.02578695 -0.02548879 -0.02517905 -0.02485053 -0.02449774
 -0.02412009 -0.02371385 -0.02329182 -0.02285433 -0.02242241 -0.02199931 -0.02159601 -0.02121439 -0.02084441 -0.02048535
 -0.02011603 -0.01973578 -0.01932904 -0.01889779 -0.01844207 -0.01796689 -0.01748766 -0.01700775 -0.01654368 -0.01609092
 -0.01565074 -0.01521591 -0.01477701 -0.01433765 -0.01389471 -0.01346186 -0.01304516 -0.01265263 -0.01228983 -0.01195221
 -0.01164104 -0.0113438 -0.01105976 -0.01077259 -0.01048096 -0.01017192 -0.009844988 -0.00950011 -0.009138395 -0.008770361
 -0.008397425 -0.008031935 -0.007674709 -0.007335306 -0.007012413 -0.00670856 -0.006420404 -0.006142756 -0.005877233 -0.005621627
 -0.005384084 -0.005171107 -0.004983107 -0.00482462 -0.004683472 -0.004555969 -0.004436408 -0.004321532 -0.004217868 -0.004126517
 -0.004047213 -0.003980499 -0.003915754 -0.003852477 -0.003783196 -0.003707594 -0.003619913 -0.003519698 -0.003400192 -0.003263767
 -0.003114807 -0.002954694 -0.002792304 -0.002617909 -0.002421958 -0.002193447 -0.001911956 -0.001589215 -0.001221612 -0.0008400162
 -0.000458725 -9.754182E-05 0.0002301078 0.0005331761 0.0008079366 0.001085258 0.001368793 0.001683237 0.002032449 0.002403367
 0.002795068 0.003170319 0.003529502 0.003861622 0.004172403 0.004487699 0.004808294 0.005153403 0.005513216 0.005876682
 0.006233211 0.006562183 0.006857634 0.007105564 0.007304694 0.007446505 0.007543702 0.00759748 0.007629503 0.007649698
 0.007660208 0.007665805 0.007648375 0.00760443 0.007533501 0.007433656 0.007336154 0.007242643 0.007187429 0.007170767
 0.007208196 0.007296739 0.007430471 0.00760391 0.007795665 0.008003697 0.00821302 0.008424438 0.008636894 0.008839733
 0.009022355 0.009173947 0.009272819 0.009350541 0.009404938 0.009511221 0.009705074 0.009986106 0.0103788 0.01075611
 0.01109763 0.01135784 0.01152628 0.01166781 0.01178541 0.01193571 0.01211707 0.01233232 0.01257353 0.01280005
 0.01300652 0.01315107 0.01323995 0.0132651 0.01323798 0.01317581 0.01307736 0.01294855 0.01278381 0.01257328
 0.01233934 0.01208501 0.01184978 0.01165067 0.0114992 0.01140383 0.01134995 0.01133659 0.01135272 0.01139836
 0.01144965 0.01150495 0.01150499 0.01144638 0.01126918 0.01097689 0.0105527 0.01001153 0.009386637 0.008706669
 0.008048452 0.007438874 0.006963826 0.006604038 0.00638282 0.006239623 0.006131281 0.006034376 0.005918912 0.005805564
 0.005699366 0.00559883 0.005504406 0.005412405 0.005316685 0.005264516 0.005258727 0.005349962 0.005540736 0.005833813
 0.006227735 0.006709323 0.007273613 0.007892303 0.008550667 0.009180423 0.009779016 0.0102971 0.01076463 0.0112051
 0.01164917 0.01214308 0.01269214 0.01331349 0.01400941 0.0147853 0.01564114 0.01658615 0.01758134 0.01862448
 0.01965483 0.02066079 0.02162072 0.02253004 0.02340491 0.02424599 0.02506138 0.02585004 0.0266027 0.02731581
 0.02796809 0.02855064 0.0290227 0.02937599 0.02956858 0.02960482 0.02946947 0.02917995 0.02874351 0.02819335
 0.02754833 0.02685973 0.02615813 0.0254782 0.02484573 0.02424478 0.02367904 0.0231133 0.02253955 0.02195868
 0.02136745 0.02080979 0.02028802 0.01986066 0.01952806 0.01931692 0.01921481 0.01916761 0.01915648 0.01907827
 0.01894377 0.01871611 0.01844019 0.01817638 0.01794514 0.01780652 0.01772214 0.01768911 0.01764822 0.01756753
 0.01740924 0.01715019 0.01678359 0.0162969 0.01572941 0.01507857 0.01443143 0.01379479 0.01324947 0.01280015
 0.01246023 0.01222516 0.01204104 0.01190009 0.01172811 0.01152491 0.01124473 0.0109049 0.01051882 0.01011308
 0.009740007 0.00940678 0.009145807 0.008942724 0.008796238 0.008694587 0.008630732 0.008599078 0.008597141 0.008617611
 0.008658811 0.008713921 0.008783597 0.00884837 0.00890783 0.008924851 0.00889731</values></Ydata></AB><ScSm><Ydata ylabel="Single channel"><values byteorder="INTEL" format="FLOAT32" numvalues="1814"> 0.0727319 0.07273862 0.07281328 0.07297435 0.07318992 0.07339655 0.07354228 0.07361674 0.0736344 0.07360055
 0.07352586 0.0734693 0.07351819 0.07370164 0.0739446 0.07412042 0.07415059 0.07407424 0.07402638 0.07410789
 0.07424828 0.07422764 0.07388119 0.07328714 0.07271631 0.07238278 0.07231039 0.07249162 0.07301989 0.07383293
 0.07442744 0.07422128 0.07328635 0.07237811 0.07209709 0.07231276 0.07251841 0.07241604 0.07201099 0.07149507
 0.07128878 0.07192262 0.0735122 0.07533503 0.07609691 0.07474793 0.07123004 0.06670981 0.06315063 0.06226089
 0.0642858 0.0676676 0.07021829 0.07086685 0.07016413 0.06916417 0.06829308 0.06749807 0.0669858 0.06725574
 0.0684112 0.06969862 0.06990032 0.06837843 0.06583436 0.06380602 0.06326273 0.06400289 0.06548408 0.06741108
 0.0688929 0.06797461 0.06356951 0.05788092 0.05540416 0.0586479 0.06545866 0.07112993 0.07258496 0.07009092
 0.06588502 0.06232557 0.06100747 0.06233296 0.0654377 0.06890638 0.0716298 0.07286011 0.07202515 0.06922857
 0.06573468 0.06335342 0.06333006 0.06585992 0.07004807 0.07399111 0.07564387 0.07433162 0.07119666 0.06799464
 0.06594474 0.06573679 0.06769846 0.07144996 0.07588711 0.07982095 0.08246224 0.08350334 0.08318234 0.08212945
 0.08088726 0.07982746 0.07948755 0.08023444 0.08138871 0.08148754 0.07987703 0.07758369 0.07625742 0.07646888
 0.07725693 0.07729961 0.07625271 0.07453401 0.07201704 0.06800944 0.06284378 0.05829652 0.05581266 0.05540762
 0.05672253 0.05958366 0.06276496 0.06392846 0.0621905 0.0597414 0.0596725 0.06267903 0.06671073 0.06946908
 0.07052998 0.07116955 0.07272188 0.07521692 0.07721841 0.07691006 0.07389832 0.0702155 0.06887782 0.07092508
 0.07442546 0.0768519 0.07774411 0.07841769 0.07966486 0.08052494 0.07928969 0.07553668 0.07120883 0.06940869
 0.07169588 0.07652389 0.08036213 0.08030885 0.07604414 0.06989144 0.06500337 0.06318332 0.06441203 0.06805155
 0.07353915 0.07975517 0.08474414 0.08681755 0.08578658 0.08284602 0.07921521 0.07502085 0.06995111 0.06512165
 0.06329057 0.06624529 0.07251193 0.07858694 0.08206348 0.08282617 0.08168165 0.07887185 0.07429941 0.06894465
 0.06532133 0.06552272 0.06870109 0.07155506 0.07178523 0.07018264 0.06892424 0.06885931 0.06920405 0.06920767
 0.06921734 0.07007632 0.07191453 0.07383341 0.07477935 0.07450478 0.07360058 0.07280485 0.07233865 0.07175511
 0.07056858 0.06922346 0.06904404 0.07078445 0.07358971 0.07587482 0.076913 0.07709536 0.07688044 0.07599854
 0.07385875 0.07067932 0.06794599 0.06731025 0.0689888 0.07163174 0.07372881 0.07469287 0.07470335 0.07415611
 0.07339866 0.0726171 0.07189614 0.07146826 0.0716539 0.07240194 0.07319066 0.07355733 0.07347533 0.07311212
 0.07250242 0.07162407 0.07063375 0.06986502 0.0695859 0.0697956 0.07027207 0.07077198 0.07111591 0.07114628
 0.07078286 0.07014694 0.06948705 0.06895308 0.06855233 0.06830697 0.06829611 0.06850849 0.06877574 0.06891303
 0.06886667 0.06869161 0.06844173 0.06812941 0.06776792 0.06741385 0.06715998 0.06707266 0.06711884 0.06718366
 0.0671979 0.06720565 0.06725136 0.06725745 0.06710287 0.06679262 0.06646517 0.06624479 0.06614646 0.06611001
 0.06606279 0.06593233 0.06564849 0.06520341 0.06472461 0.06442562 0.06443325 0.06469303 0.06505738 0.0654005
 0.06563251 0.06570112 0.06563434 0.06551699 0.06538808 0.06520942 0.06495294 0.06467967 0.06451517 0.06455167
 0.06476483 0.06502841 0.06521937 0.06529415 0.06527285 0.06520605 0.06516305 0.06518261 0.06521583 0.06517453
 0.06504825 0.06492476 0.06488752 0.06492676 0.0649581 0.06491491 0.06482104 0.06476587 0.06480367 0.06489892
 0.06498104 0.06502444 0.0650555 0.06509866 0.06513256 0.06510417 0.0649932 0.06485175 0.06475423 0.06471734
 0.06470439 0.06469825 0.06472506 0.06480105 0.06489202 0.06494161 0.06492805 0.06488107 0.06483883 0.06479768
 0.06472148 0.06459773 0.06446092 0.06435502 0.06429268 0.06425461 0.0642131 0.06415093 0.06406662 0.06396645
 0.06385386 0.06372731 0.06358457 0.06342949 0.06328246 0.06317895 0.06313702 0.06312296 0.0630684 0.06293269
 0.06274102 0.06255551 0.06241387 0.06230131 0.06218064 0.06203956 0.06189993 0.06178676 0.06170387 0.06163938
 0.06157917 0.06151298 0.06144579 0.06141044 0.06145003 0.06156945 0.06171285 0.0618079 0.06183247 0.06182562
 0.06183758 0.06188542 0.06195635 0.06203622 0.06212836 0.06224781 0.06239397 0.06253351 0.06262907 0.06268719
 0.0627556 0.06287006 0.06302762 0.06320937 0.0633973 0.06356549 0.06369102 0.06378579 0.0638921 0.06403452
 0.0641951 0.06434488 0.06448193 0.0646268 0.06479318 0.06497934 0.06518471 0.0654202 0.06569557 0.06600009
 0.0662995 0.06655708 0.0667659 0.06696293 0.06720348 0.06751534 0.06787694 0.06823812 0.06855986 0.06883979
 0.06910527 0.06938034 0.06966415 0.06995091 0.07025889 0.07061407 0.07100792 0.07139914 0.07176083 0.07210255
 0.0724436 0.0727881 0.07313275 0.07348067 0.0738384 0.07420629 0.07457528 0.07493081 0.07526302 0.07557566
 0.07588411 0.07620516 0.0765472 0.0768995 0.07722668 0.07749142 0.07769902 0.07790677 0.0781674 0.07847133
 0.07876658 0.07902914 0.07928598 0.07956631 0.07985996 0.0801387 0.08039956 0.08066635 0.08095418 0.08124615
 0.08150537 0.08170545 0.08185331 0.08198477 0.08213627 0.08232418 0.082554 0.08283424 0.08316189 0.08350261
 0.08380775 0.08405114 0.08423793 0.08438911 0.08453352 0.08470073 0.08490013 0.08511376 0.08531915 0.08550477
 0.08565994 0.08577982 0.08589159 0.08604422 0.08625598 0.0864998 0.0867539 0.08703409 0.08735482 0.08768963
 0.08800423 0.08831216 0.08865754 0.08904119 0.0893996 0.0896717 0.08985788 0.08999604 0.09011255 0.09022879
 0.09038917 0.09063695 0.09096569 0.09132499 0.09167175 0.09199476 0.0922965 0.09257436 0.09281985 0.09302259
 0.09317447 0.09327848 0.09335551 0.09344144 0.09357134 0.0937544 0.0939585 0.09412959 0.0942312 0.09425588
 0.0942001 0.09405404 0.09383251 0.09359232 0.09338672 0.09320147 0.09295744 0.09258004 0.09205172 0.09139678
 0.09063879 0.0897897 0.08887336 0.08794568 0.0870869 0.08637407 0.08586172 0.08558789 0.0855875 0.08587594
 0.08640689 0.08705755 0.0876695 0.08810331 0.08826046 0.08808683 0.08758697 0.08683085 0.08592331 0.08495802
 0.08399788 0.08307917 0.08221546 0.08140849 0.08068145 0.080107 0.07979423 0.0798528 0.08038278 0.08147797
 0.0831821 0.08539779 0.08785442 0.09021394 0.09224075 0.09388253 0.09521674 0.09635491 0.09738754 0.09836446
 0.09928972 0.1001412 0.1009057 0.101591 0.1022072 0.1027512 0.1032085 0.1035624 0.1038066 0.1039575
 0.1040495 0.1041111 0.1041563 0.1041986 0.1042534 0.104314 0.1043357 0.1042535 0.1040131 0.1035867
 0.102982 0.102276 0.1016696 0.1014988 0.1021182 0.103684 0.1060115 0.1086619 0.1111895 0.1133298
 0.1150154 0.1162966 0.1172732 0.1180536 0.1187245 0.119337 0.1199163 0.120475 0.1210167 0.1215378
 0.1220355 0.1225153 0.1229901 0.1234684 0.1239443 0.1244027 0.1248377 0.1252624 0.1256994 0.1261613
 0.1266387 0.1271077 0.1275545 0.1279896 0.128428 0.1288618 0.1292696 0.1296493 0.1300241 0.1304172
 0.1308356 0.1312737 0.1317162 0.1321386 0.1325209 0.1328631 0.1331825 0.1334977 0.1338206 0.1341592
 0.1345164 0.1348859 0.1352534 0.1356118 0.1359691 0.1363343 0.136696 0.1370275 0.1373181 0.1375888
 0.1378727 0.1381848 0.1385136 0.1388378 0.1391506 0.1394679 0.1398103 0.140177 0.1405433 0.1408831
 0.1411876 0.1414655 0.1417328 0.1420062 0.1423 0.1426195 0.1429568 0.1432942 0.143618 0.1439295
 0.1442392 0.1445524 0.1448653 0.1451727 0.1454749 0.1457757 0.1460787 0.1463855 0.146696 0.1470127
 0.1473409 0.1476798 0.148016 0.1483315 0.1486199 0.1488887 0.1491485 0.1494047 0.1496627 0.1499303
 0.1502129 0.1505074 0.150805 0.1510991 0.1513891 0.1516753 0.1519582 0.1522408 0.1525286 0.1528236
 0.1531224 0.1534215 0.1537202 0.1540157 0.1543015 0.1545748 0.1548439 0.1551215 0.1554117 0.155703
 0.155979 0.1562363 0.1564889 0.1567524 0.1570262 0.1572985 0.1575641 0.1578301 0.1581039 0.1583846
 0.1586652 0.1589402 0.159208 0.1594707 0.1597325 0.1599982 0.1602707 0.160548 0.1608239 0.1610931
 0.1613558 0.1616152 0.1618747 0.1621368 0.1624006 0.1626609 0.162912 0.1631534 0.1633911 0.1636334
 0.1638862 0.1641488 0.1644156 0.1646828 0.1649506 0.165219 0.1654859 0.1657516 0.1660189 0.1662883
 0.1665581 0.1668253 0.1670858 0.1673377 0.1675863 0.1678394 0.1680988 0.1683626 0.168632 0.1689098
 0.1691945 0.1694795 0.1697581 0.1700265 0.1702853 0.1705368 0.1707815 0.1710207 0.1712592 0.1714994
 0.1717379 0.1719718 0.1722026 0.1724324 0.1726637 0.1729027 0.1731548 0.173418 0.1736858 0.1739526
 0.1742143 0.1744718 0.1747311 0.1749943 0.1752558 0.1755134 0.1757723 0.1760345 0.1762984 0.1765654
 0.1768361 0.177104 0.1773625 0.1776112 0.1778521 0.1780932 0.1783496 0.1786251 0.1789018 0.1791606
 0.1794009 0.1796332 0.1798667 0.1801081 0.1803578 0.1806098 0.1808614 0.1811145 0.1813655 0.1816096
 0.1818512 0.1820977 0.1823489 0.1826026 0.1828582 0.1831099 0.1833547 0.1836 0.1838522 0.1841053
 0.1843527 0.1845926 0.1848228 0.1850471 0.185279 0.1855215 0.1857626 0.1859955 0.1862217 0.1864271
 0.1865658 0.1865189 0.1859893 0.1843897 0.1808335 0.1743186 0.1641303 0.150298 0.1337418 0.1159411
 0.09839002 0.08221646 0.06808476 0.05629116 0.04690468 0.03985079 0.03496698 0.03210812 0.03125768 0.03263591
 0.03681686 0.04439241 0.05468961 0.06462459 0.06989662 0.06838401 0.06217159 0.05564675 0.05184993 0.0510018
 0.05180773 0.05315896 0.05470332 0.05664412 0.05933088 0.06286229 0.06706955 0.07194751 0.07786521 0.08509925
 0.09327152 0.1015076 0.1091944 0.1164644 0.1238945 0.131813 0.1399567 0.1477298 0.1546747 0.1606991
 0.165989 0.1707995 0.1753074 0.1795918 0.1836885 0.1875927 0.1911733 0.1941333 0.1961475 0.197107
 0.1972454 0.197011 0.1967983 0.1967867 0.196987 0.1973672 0.1979081 0.1985911 0.1993898 0.2002754
 0.201218 0.2021893 0.2031652 0.2041215 0.2050347 0.2058934 0.2066989 0.2074509 0.208143 0.2087718
 0.2093425 0.209868 0.2103668 0.2108527 0.2113248 0.2117745 0.2122006 0.2126095 0.2130029 0.2133754
 0.2137217 0.2140423 0.2143448 0.2146411 0.21494 0.2152451 0.2155575 0.2158736 0.2161815 0.2164702
 0.2167437 0.2170165 0.2172976 0.2175871 0.2178834 0.2181846 0.2184855 0.2187821 0.2190734 0.219359
 0.2196395 0.2199184 0.2201973 0.2204718 0.2207393 0.2210062 0.221281 0.2215656 0.2218537 0.2221378
 0.2224194 0.2227116 0.2230234 0.223343 0.2236506 0.2239422 0.2242289 0.2245201 0.2248199 0.2251295
 0.2254382 0.2257262 0.2259846 0.2262293 0.2264893 0.2267853 0.2271118 0.2274381 0.2277367 0.2280098
 0.2282805 0.2285622 0.2288481 0.2291217 0.2293782 0.229641 0.2299466 0.2303009 0.2306691 0.2310206
 0.2313578 0.2316917 0.2320243 0.2323608 0.2327014 0.2330173 0.2332733 0.2334855 0.233732 0.234091
 0.2345634 0.2350642 0.2355006 0.2358553 0.2361745 0.236506 0.2368738 0.2372599 0.2375692 0.2376909
 0.2376726 0.2377563 0.238152 0.2388237 0.2395575 0.2401826 0.2406733 0.2410875 0.2414727 0.2418192
 0.2420717 0.2421912 0.2422345 0.2423725 0.2427723 0.2434251 0.2441364 0.2447245 0.2451654 0.2455195
 0.2458274 0.2461083 0.246325 0.2463207 0.2459818 0.2455424 0.2455266 0.2462407 0.2474245 0.2485277
 0.2492529 0.2497073 0.2500966 0.2504706 0.2507817 0.2509319 0.2506557 0.2496727 0.2482405 0.2473082
 0.247733 0.2494156 0.2514594 0.2530637 0.25403 0.2545634 0.2549192 0.255231 0.2554128 0.2551732
 0.2543401 0.253289 0.2528518 0.2535551 0.2550296 0.256403 0.2571892 0.257552 0.2578447 0.2582129
 0.2584922 0.2581613 0.25664 0.2541428 0.2521077 0.2521837 0.2546185 0.2579618 0.2605018 0.2617362
 0.2622386 0.2624037 0.2618634 0.2601512 0.2574068 0.2543183 0.2519064 0.2513798 0.253334 0.2567567
 0.2596036 0.2608155 0.2612133 0.2621442 0.2638699 0.2655819 0.2664506 0.2662647 0.2652811 0.263769
 0.261885 0.2600963 0.2594347 0.260771 0.2637613 0.2669605 0.2691512 0.2702703 0.2707966 0.2703385
 0.2673285 0.2609064 0.253305 0.2492494 0.251783 0.2590815 0.2664173 0.2708135 0.2726774 0.2735819
 0.2741536 0.2738941 0.2714656 0.2654283 0.2565144 0.2490432 0.2479936 0.254081 0.2629473 0.2692246
 0.2701876 0.2660395 0.2589531 0.2524284 0.2498631 0.2524869 0.258822 0.2661459 0.27213 0.27547
 0.2758638 0.2738913 0.2709762 0.2690359 0.2690928 0.2697607 0.2682942 0.2640519 0.2595623 0.2568099
 0.2541671 0.2494137 0.244618 0.2447613 0.2512556 0.2595694 0.2643149 0.2647054 0.2635773 0.2622427
 0.2582539 0.2489333 0.2364367 0.227841 0.2289477 0.2382701 0.2483634 0.2531041 0.2525527 0.2507835
 0.2504372 0.2500284 0.246058 0.2375853 0.2285287 0.2243828 0.2263975 0.2304634 0.231983 0.2295648
 0.2234408 0.2139507 0.2041157 0.2006021 0.2080992 0.2235704 0.2386344 0.246471 0.2443328 0.232049
 0.2129075 0.19555 0.1897772 0.197814 0.211625 0.2203034 0.2187411 0.2085623 0.1934275 0.1764764
 0.1617249 0.1545395 0.1583995 0.1713342 0.1861238 0.1940003 0.1894932 0.174584 0.1588623 0.1526409
 0.1577062 0.1661911 0.1694153 0.1657432 0.1593508 0.1547387 0.154075 0.1569733 0.1609642 0.1637474
 0.1650257 0.1641028 0.1574295 0.142954 0.1260712 0.1161183 0.1166375 0.1235303 0.1325994 0.1432782
 0.1537476 0.1583792 0.1541126 0.1463424 0.1443579 0.1514954 0.1622591 0.1690004 0.1694722 0.1672465
 0.1661336 0.1660393 0.1649584 0.1635493 0.1652726 0.1716286 0.1795429 0.1848025 0.186449 0.186391
 0.1861786 0.1858483 0.1850193 0.183574 0.1815718 0.1793531 0.1774368 0.1759126 0.17435 0.1724254
 0.1699049 0.1657689 0.1584851 0.1482953 0.1385872 0.1332784 0.1327511 0.1340986 0.1353537 0.1366466
 0.136377 0.130118 0.116547 0.1022566 0.09696203 0.1041418 0.1184669 0.1317714 0.1391724 0.1394421
 0.132677 0.120712 0.1093387 0.1064759 0.1157137 0.1329098 0.1506871 0.1647628 0.1743543 0.1787117
 0.1766191 0.1691917 0.160901 0.1570495 0.1606164 0.1709185 0.1837142 0.1921666 0.1901994 0.1786373
 0.1680679 0.1710004 0.1885795 0.2084976 0.2188156 0.2201073 0.2204622 0.2229154 0.223993 0.2227099
 0.2241103 0.2323308 0.2444627 0.2533861 0.2540042 0.2452527 0.2294142 0.2125792 0.203069 0.2048541
 0.2131713 0.2197834 0.2209662 0.2170581 0.2076181 0.1934382 0.1816854 0.1815857 0.1937129 0.208723
 0.2180077 0.2215741 0.2241546 0.227109 0.226808 0.2201501 0.2096965 0.2020791 0.2013892 0.2055424
 0.2097171 0.2114045 0.2104917 0.2064239 0.1985078 0.1889787 0.1830522 0.1844377 0.1915783 0.1992051
 0.2031594 0.2030741 0.2010494 0.1990519 0.1976396 0.1961655 0.1940652 0.19252 0.1942418 0.2004587
 0.2087581 0.2154728 0.2198515 0.2242877 0.2305402 0.2372445 0.2415071 0.2420383 0.2404161 0.2397632
 0.2422476 0.2473237 0.2521069 0.2538164 0.2524037 0.2508348 0.252356 0.2573912 0.263485 0.2680965
 0.2706845 0.2721633 0.2733878 0.2744362 0.2745737 0.272825 0.2694077 0.2665793 0.2670582 0.2713363
 0.2771914 0.2819378 0.2845516 0.2855809 0.285753 0.2851891 0.2837809 0.2818681 0.2802638 0.2796336
 0.2800295 0.2810607 0.2823176 0.2835456 0.2846136 0.2854965 0.2862448 0.2869002 0.2874725 0.28799
 0.2884809 0.2888952 0.2891483 0.2892817 0.2894911 0.2899185 0.2904712 0.2909169 0.2910942 0.2909378
 0.2903594 0.2892675 0.2877165 0.285896 0.2839199 0.2817516 0.2794561 0.2774802 0.2765241 0.2770227
 0.2787482 0.2809539 0.282893 0.2841915 0.2848366 0.2849813 0.2848135 0.2845058 0.2841721 0.2838437
 0.2835029 0.2831408 0.2827781 0.2824394 0.2821309 0.2818571 0.2816428 0.2815174 0.2814767 0.2814684
 0.2814187 0.2812761 0.2810478 0.2807969 0.2805882 0.2804216 0.280224 0.2799097 0.2794484 0.2788785
 0.2782691 0.277672 0.2770935 0.2764989 0.2758445 0.2751038 0.2742496 0.2732261 0.2719938 0.2706206
 0.2692778 0.2681046 0.2671039 0.2661857 0.2652641 0.2642831 0.2631996 0.2619914 0.2606671 0.2592492
 0.2577562 0.2562012 0.2545903 0.2529153 0.2511615 0.2493211 0.2473947 0.2453806 0.2432681 0.2410406
 0.2386721 0.236111 0.2332661 0.2300248 0.2262903 0.2220018 0.2171429 0.2117682 0.2060336 0.2001744
 0.194428 0.1889676 0.1839013 0.179315 0.1753003 0.1719396 0.1692819 0.1673432 0.1661184 0.1655819
 0.1656935 0.1664137 0.1676964 0.1694576 0.1715594 0.173829 0.1760851 0.1781686 0.1799948 0.1815966
 0.1830942 0.1845956 0.1861194 0.1876096 0.1890054 0.1902711 0.1913716 0.192264 0.192935 0.1934151
 0.1937376 0.1939026 0.1938893 0.1936779 0.1932522 0.1926063 0.1917613 0.1907724 0.1897221 0.1887077
 0.1878194 0.1871201 0.1866485 0.1864263 0.1864427 0.186634 0.1868915 0.1871007 0.1871851 0.1871272
 0.1869592 0.1867443 0.1865754 0.1865707 0.1868359 0.1874221 0.1883279 0.1895366 0.1910408 0.1928491
 0.1949824 0.1974661 0.2003173 0.2035275 0.2070387 0.2107348 0.2144705 0.2181112 0.2215451 0.2246869
 0.2274925 0.229959 0.2320947 0.2338969 0.2353595 0.2364905 0.2373272 0.2379434 0.238423 0.2388122
 0.2391069 0.239289 0.2393594 0.2393354 0.2392347 0.239066 0.2388298 0.2385267 0.2381643 0.2377501
 0.2372848 0.2367577 0.2361355 0.2353605 0.2343868 0.2332185 0.2318935 0.2304382 0.228856 0.2271509
 0.225347 0.2234842 0.221599 0.2197028 0.2177782 0.2157944 0.2137173 0.2115164 0.2091913 0.2067947
 0.2044123 0.2021168 0.1999427 0.1978887 0.1959303 0.1940444 0.1922283 0.190487 0.1888149 0.1872049
 0.1856636 0.1842 0.1828109 0.181494 0.1802663 0.1791575 0.1781842 0.1773363 0.1765929 0.1759493
 0.175412 0.1749648 0.1745724 0.17423 0.1739731 0.1738162 0.1737074 0.1735616 0.1733265 0.1730089
 0.1726575 0.172323 0.1720284 0.1717722 0.1715432 0.1713065 0.1709828 0.1704649 0.1696585 0.1685059
 0.166995 0.1651665 0.1631119 0.1609583 0.1588454 0.1568893 0.1551574 0.1536845 0.1524923 0.1515633
 0.1508203 0.1501777 0.149613 0.1491734 0.1489221 0.1488662 0.1489053 0.1488755 0.1486935 0.1484482
 0.1483221 0.1484398 0.1487978 0.1492886 0.14977 0.1501429 0.1503795 0.1504869 0.1504773 0.1503741
 0.1501981 0.1499411 0.1495886 0.1491549 0.1486678 0.1481422 0.14758 0.146969 0.1462871 0.1455336
 0.1447321 0.1438843 0.1429646 0.1419584 0.1408522 0.1396213 0.1383165 0.1371427 0.136369 0.1361614
 0.1365009 0.1372157 0.1380915 0.1389929 0.1398347 0.1404326 0.1405654 0.1403329 0.1403194 0.1411745
 0.143002 0.1452507 0.1471972 0.14844 0.1489424 0.1487976 0.1481058 0.1469703 0.1454309 0.1434366
 0.1409791 0.1381721 0.1351565 0.1320658 0.1290927 0.1264271 0.1241451 0.1222525 0.1207557 0.1197117
 0.1192528 0.1189991 0.1170795 0.111116 0.1018829 0.09494215 0.09597819 0.1044077 0.1137738 0.1185664
 0.1186167 0.1168481 0.1152939 0.1142849 0.1137408 0.1138085 0.1146037 0.1159639 0.1174761 0.11872
 0.1195305 0.1199506 0.1199352 0.1191435 0.1169016 0.1124141 0.1053945 0.09665436 0.0878429 0.08048461
 0.07530032 0.07221608 0.07066485 0.06991544 0.06944129 0.06916627 0.06936745 0.07033465 0.07212102 0.07458245
 0.07753995 0.08076541 0.08386384 0.08641225 0.08828636 0.08967597 0.09073767 0.09140424 0.09155764 0.09121509
 0.09049997 0.08954921 0.08848571 0.08740152 0.08631676 0.08518761 0.08402413 0.08300711 0.08239239 0.08225186
 0.08240224 0.0826267 0.08285087 0.08307444 0.08326885 0.08339235 0.08343144 0.08343609 0.08354709 0.08390187
 0.08446164 0.08501755 0.0853979 0.08560324 0.08574031 0.0858563 0.08582406 0.08545378 0.08479743 0.0841907
 0.08380748 0.08334827 0.08244719 0.08126625 0.08039604 0.08021217 0.08054741 0.08095816 0.08112022 0.08097509
 0.08069324 0.08058849 0.08091883 0.08159564</values></Ydata></ScSm><ScRf><Ydata ylabel="Single channel"><values byteorder="INTEL" format="FLOAT32" numvalues="1820"> 0.06080763 0.06097344 0.06107011 0.06109504 0.06107698 0.0610704 0.06112953 0.06127395 0.06147542 0.06167442
 0.06181648 0.06188473 0.06189515 0.06186294 0.06179998 0.06174983 0.06178413 0.06193427 0.06214219 0.06229835
 0.06233227 0.0622767 0.0622462 0.06232326 0.06244377 0.06241927 0.06211184 0.06159276 0.06109754 0.0608108
 0.06075017 0.06090367 0.06134951 0.06204158 0.06255913 0.06240372 0.06162426 0.06085502 0.06060952 0.06078484
 0.06095567 0.06087 0.06052987 0.06009232 0.05990971 0.06043581 0.06177979 0.06333693 0.06400512 0.0628811
 0.05990743 0.05607505 0.05305351 0.05229411 0.05400887 0.05688229 0.0590585 0.05962282 0.05903982 0.05820684
 0.05748441 0.05681834 0.05637625 0.05658615 0.05754864 0.05863441 0.05880989 0.05752598 0.05537139 0.05365101
 0.05318988 0.05381767 0.05507532 0.05671735 0.05799193 0.05723438 0.05350669 0.04866719 0.04654027 0.04928235
 0.05508482 0.05994188 0.06121122 0.05910186 0.05552401 0.05250183 0.05139588 0.05253543 0.05517493 0.05811545
 0.06042559 0.06147409 0.06077021 0.05839735 0.05543008 0.05340849 0.05339031 0.05553982 0.05909766 0.06245092
 0.0638651 0.06276548 0.06011871 0.05741313 0.05568161 0.0555093 0.05717906 0.06037593 0.06416596 0.06753713
 0.06981261 0.07072239 0.07046364 0.06957772 0.06853646 0.06765622 0.06738384 0.0680261 0.06900932 0.06909214
 0.0677176 0.06576288 0.06464013 0.06483763 0.06553008 0.06558106 0.06469095 0.06321818 0.06106346 0.05764257
 0.05323942 0.04936895 0.04726508 0.04694066 0.04809 0.05056903 0.0533309 0.05436665 0.05290577 0.05081538
 0.05074555 0.05330212 0.05674077 0.05910029 0.06001872 0.06058699 0.06194569 0.06411799 0.06586796 0.06562994
 0.0630593 0.05990432 0.05877181 0.06056921 0.06363177 0.06577057 0.06658287 0.06720987 0.06834356 0.06915189
 0.06814656 0.06495367 0.06125738 0.05975159 0.06179054 0.06603445 0.06942336 0.06943721 0.06579003 0.06049663
 0.05630474 0.05479349 0.05595417 0.05924036 0.06417216 0.06977845 0.07434399 0.0763654 0.07563809 0.0731872
 0.07009409 0.06648938 0.06210161 0.05792087 0.05641834 0.05921835 0.06502528 0.07070129 0.07406682 0.07499032
 0.07417384 0.07181673 0.06782089 0.06309118 0.05995825 0.06036986 0.06354617 0.0664207 0.06684849 0.06556234
 0.06459956 0.06476268 0.06531633 0.06555186 0.06580546 0.06688835 0.06892357 0.07104056 0.07221529 0.07219831
 0.07155868 0.07102501 0.0708234 0.0705096 0.06959741 0.06853392 0.06864266 0.07066834 0.07374641 0.07629137
 0.07758614 0.07803611 0.07810168 0.07748733 0.07556562 0.07255514 0.07000203 0.06963538 0.07169379 0.0747705
 0.07727212 0.07856855 0.07884884 0.07853822 0.07800633 0.07745166 0.07697067 0.07681534 0.07732525 0.0784416
 0.07960019 0.08029632 0.08049543 0.080377 0.07997811 0.07927519 0.07844383 0.07785528 0.07780904 0.07831144
 0.07912499 0.07998193 0.08067577 0.08101536 0.08089302 0.08043946 0.07994993 0.07961181 0.07943296 0.07942875
 0.07968923 0.08020712 0.08078741 0.08120941 0.08140373 0.081431 0.08135914 0.08121293 0.08101121 0.0808178
 0.08074384 0.0808681 0.08113873 0.08140999 0.08161555 0.0818345 0.0821235 0.08236559 0.0823895 0.08219583
 0.08196783 0.08187483 0.08193669 0.08206847 0.08217745 0.08218311 0.08200452 0.08162677 0.08120032 0.08099048
 0.08116823 0.08168473 0.08235871 0.08300794 0.08348884 0.08372824 0.08377619 0.08375512 0.08372007 0.08362118
 0.08341804 0.08318563 0.08308955 0.08325996 0.08367544 0.08417192 0.08457588 0.08481459 0.08491293 0.08495283
 0.08504152 0.08522959 0.08543204 0.0855059 0.08543115 0.08534744 0.08538802 0.08552855 0.085628 0.08559521
 0.08549167 0.08546526 0.08559393 0.08581847 0.08603033 0.08619152 0.08634935 0.08654867 0.08674609 0.0868264
 0.08672516 0.08652099 0.08636211 0.08631016 0.08631726 0.08635211 0.08646271 0.08667876 0.08691917 0.08705945
 0.08707196 0.08704931 0.08708248 0.08715081 0.08715487 0.08703807 0.08684722 0.08668193 0.0866133 0.08664834
 0.08674003 0.08681729 0.08682394 0.08675092 0.08663601 0.08652757 0.08644968 0.08641079 0.08644079 0.08658554
 0.08683448 0.08706965 0.08713315 0.08696948 0.08668797 0.08646651 0.08639158 0.08639653 0.08634847 0.0861789
 0.08592565 0.08567145 0.08547027 0.08532866 0.08522699 0.08514531 0.08508848 0.08509761 0.08521055 0.08538631
 0.085494 0.08541891 0.08517674 0.08489544 0.08469439 0.08460636 0.08459336 0.0845978 0.0845903 0.08459592
 0.08465509 0.08474524 0.08478148 0.08471842 0.08461063 0.08455387 0.0846073 0.08477497 0.08500221 0.08517794
 0.08520563 0.08510229 0.08498801 0.08496177 0.08502114 0.0851084 0.08519056 0.08527151 0.08535825 0.08545166
 0.08556597 0.08573073 0.08596045 0.08622827 0.08647566 0.08665225 0.086756 0.08684391 0.08699663 0.08725621
 0.0875898 0.08791648 0.08817329 0.08835977 0.08852094 0.08869165 0.08886988 0.08905047 0.08926208 0.08954111
 0.08987812 0.09022166 0.09053507 0.09082417 0.09111027 0.09140078 0.09169304 0.0919977 0.09234911 0.09277599
 0.09324525 0.09365314 0.09390707 0.09401911 0.09410224 0.09427993 0.09460118 0.09500902 0.09537144 0.09558188
 0.09566498 0.09575732 0.09595592 0.09621927 0.09645419 0.09666309 0.09694554 0.09735915 0.09783126 0.09822652
 0.09847783 0.09863529 0.09879661 0.09900172 0.09920125 0.09933028 0.09939675 0.09947065 0.09959522 0.09975581
 0.09994843 0.1002224 0.1006123 0.1010624 0.1014662 0.1017622 0.1019605 0.1020985 0.1022045 0.1022885
 0.1023422 0.1023637 0.1023877 0.1024609 0.1025749 0.1026645 0.1026917 0.1026969 0.1027468 0.1028705
 0.1030685 0.1033426 0.1036748 0.1040055 0.1042862 0.1045511 0.1048794 0.1052707 0.105608 0.1057826
 0.1058168 0.1058158 0.1058373 0.1058703 0.1059238 0.1060568 0.1063068 0.1066407 0.1069985 0.1073517
 0.1077027 0.1080501 0.1083646 0.1085958 0.108704 0.1086992 0.1086481 0.1086412 0.1087466 0.10898
 0.1092995 0.1096308 0.1099135 0.110118 0.1102252 0.1102229 0.1101518 0.1101221 0.1102285 0.1104416
 0.1106152 0.1106113 0.1103939 0.1100028 0.1094787 0.1088461 0.1081521 0.1074825 0.1069248 0.1065245
 0.1062896 0.1062368 0.1064123 0.1068451 0.1074824 0.1081985 0.1088704 0.1094162 0.1097567 0.1097954
 0.1094824 0.1088805 0.1081336 0.1073785 0.1066933 0.1060906 0.1055295 0.1049646 0.1044334 0.1040908
 0.1041332 0.104682 0.1057242 0.1071241 0.1086652 0.1101209 0.1113435 0.1123168 0.1131208 0.1138429
 0.1145252 0.1151862 0.1158513 0.1165303 0.1171822 0.1177456 0.1182065 0.1186086 0.1189971 0.1193782
 0.11973 0.1200287 0.1202689 0.1204752 0.1206768 0.1208573 0.1209551 0.120935 0.1208347 0.1207173
 0.1205989 0.1204382 0.1201804 0.119805 0.1193584 0.1189649 0.1187996 0.1190186 0.1196819 0.1207195
 0.1219755 0.1232986 0.1245858 0.1257517 0.1267033 0.1273861 0.1278344 0.1281451 0.1284094 0.1286808
 0.1289813 0.1293078 0.1296375 0.1299458 0.1302255 0.1304928 0.1307781 0.1311018 0.131446 0.1317617
 0.1320204 0.1322531 0.1325268 0.1328793 0.1332814 0.1336671 0.134002 0.1343101 0.1346233 0.1349235
 0.1351635 0.1353366 0.1354934 0.1356936 0.1359686 0.1363171 0.1367005 0.1370454 0.1372933 0.1374553
 0.1375993 0.1377821 0.1380121 0.1382678 0.1385291 0.1387848 0.1390312 0.1392791 0.1395533 0.1398658
 0.1401857 0.1404528 0.1406333 0.1407561 0.1408874 0.1410688 0.1412887 0.1415084 0.1417117 0.1419268
 0.142196 0.1425216 0.1428494 0.1431117 0.1432834 0.1433955 0.1435024 0.143643 0.1438267 0.1440417
 0.144268 0.1444873 0.1446917 0.1448897 0.1450987 0.1453255 0.1455582 0.1457778 0.1459757 0.1461591
 0.1463433 0.1465418 0.1467631 0.1470152 0.1473028 0.1476125 0.1479062 0.1481449 0.1483199 0.1484535
 0.1485745 0.1487023 0.1488475 0.1490144 0.149201 0.1494014 0.1496098 0.1498208 0.1500312 0.1502411
 0.1504514 0.1506616 0.1508704 0.1510785 0.1512891 0.151507 0.1517347 0.1519656 0.1521859 0.1523866
 0.1525708 0.1527511 0.1529392 0.1531364 0.1533323 0.153515 0.1536859 0.1538584 0.1540431 0.1542401
 0.1544446 0.1546525 0.1548598 0.1550618 0.1552547 0.1554393 0.1556215 0.1558108 0.156013 0.1562264
 0.1564423 0.1566495 0.1568395 0.1570127 0.1571795 0.1573524 0.1575402 0.1577477 0.1579734 0.1582072
 0.1584349 0.1586498 0.1588545 0.1590508 0.1592356 0.1594083 0.1595796 0.1597672 0.1599785 0.1602026
 0.1604224 0.1606312 0.1608339 0.1610367 0.1612433 0.1614561 0.1616751 0.1618961 0.162114 0.1623264
 0.1625364 0.1627511 0.162974 0.1631973 0.1634089 0.1636065 0.1637996 0.163999 0.1642072 0.1644169
 0.1646142 0.1647892 0.1649459 0.165098 0.1652579 0.1654327 0.1656242 0.1658274 0.1660325 0.1662319
 0.1664232 0.166608 0.1667912 0.1669795 0.167177 0.1673854 0.1676057 0.1678317 0.1680497 0.1682525
 0.1684472 0.168645 0.1688489 0.1690544 0.169256 0.1694521 0.1696472 0.1698464 0.1700499 0.1702567
 0.17047 0.1706916 0.1709173 0.1711406 0.1713559 0.1715588 0.1717542 0.1719555 0.1721676 0.1723823
 0.1725941 0.1728061 0.1730188 0.173229 0.1734372 0.1736452 0.1738523 0.1740622 0.1742807 0.1745031
 0.1747187 0.1749254 0.1751281 0.1753323 0.1755457 0.1757728 0.176007 0.1762379 0.1764614 0.1766728
 0.1768672 0.1770528 0.1772413 0.1774212 0.177545 0.1774927 0.1769761 0.1754332 0.1720177 0.1657704
 0.1560068 0.1427541 0.1268927 0.1098412 0.09303675 0.07756691 0.06407135 0.05282778 0.04388845 0.03716898
 0.03251075 0.0297803 0.02896835 0.03028853 0.03428593 0.0415135 0.05131551 0.06075118 0.06573795 0.06427257
 0.05834703 0.05213508 0.04852419 0.04771812 0.04848016 0.0497529 0.05120112 0.05302019 0.05554646 0.05887746
 0.06285358 0.06746644 0.07305902 0.07988753 0.08759435 0.09535496 0.1025874 0.109413 0.1163812 0.1238099
 0.1314484 0.1387253 0.1452081 0.1508208 0.1557467 0.1602247 0.1644153 0.1683887 0.1721768 0.1757728
 0.1790505 0.1817314 0.1835195 0.1843259 0.1843745 0.1840784 0.1837994 0.183705 0.1838081 0.1840762
 0.1844844 0.1850147 0.1856535 0.1863865 0.1871889 0.1880292 0.1888793 0.1897133 0.1905057 0.1912427
 0.191924 0.1925488 0.1931142 0.1936246 0.1940908 0.1945224 0.1949297 0.1953222 0.1956994 0.1960542
 0.1963853 0.1966957 0.1969819 0.1972372 0.1974654 0.1976807 0.1978974 0.1981221 0.1983514 0.1985758
 0.1987888 0.1989916 0.1991896 0.1993907 0.1996023 0.1998237 0.2000438 0.2002529 0.2004517 0.2006426
 0.200824 0.2009982 0.2011767 0.2013677 0.2015673 0.2017659 0.2019581 0.2021449 0.2023303 0.2025183
 0.2027096 0.2029035 0.2031009 0.2033044 0.2035162 0.2037359 0.2039579 0.2041746 0.2043858 0.2045996
 0.204819 0.205037 0.2052487 0.2054563 0.2056546 0.2058287 0.2059737 0.2061109 0.206274 0.2064809
 0.2067168 0.2069475 0.2071541 0.2073484 0.2075486 0.2077546 0.2079546 0.2081416 0.2083193 0.2085046
 0.2087209 0.208974 0.2092427 0.2095044 0.2097545 0.2099926 0.2102161 0.2104336 0.210653 0.2108548
 0.2110099 0.2111315 0.2112859 0.2115377 0.2118836 0.2122465 0.2125473 0.2127782 0.2129936 0.2132428
 0.2135351 0.2138338 0.2140464 0.2140832 0.2139916 0.2139815 0.2142382 0.2147421 0.2153162 0.2158101
 0.2161886 0.2164899 0.2167507 0.2169669 0.2170961 0.2171091 0.2170616 0.2171077 0.2173914 0.2178977
 0.2184518 0.2188947 0.2192069 0.219444 0.2196408 0.2198084 0.2199071 0.2197987 0.2193907 0.2188974
 0.2187862 0.2193269 0.2202869 0.2211801 0.2217502 0.2220961 0.2223918 0.2226671 0.2228731 0.2229286
 0.2226039 0.2216483 0.2202885 0.2193737 0.2196743 0.221102 0.2228533 0.2242147 0.2250135 0.2254331
 0.2256997 0.2259322 0.2260492 0.2257783 0.2249584 0.223937 0.2234769 0.2240522 0.2253201 0.2264932
 0.2271459 0.2274327 0.2276608 0.227944 0.2281327 0.2277722 0.2263532 0.2240646 0.2221833 0.2221791
 0.2242758 0.2271823 0.2293715 0.2303948 0.2307698 0.2308563 0.230326 0.2287554 0.2262682 0.2234862
 0.2213177 0.2208187 0.2224996 0.225464 0.2279164 0.2289294 0.2292265 0.2299922 0.2314572 0.2329102
 0.2336197 0.233402 0.2324896 0.2311192 0.2294204 0.2278012 0.2271771 0.2283168 0.2309075 0.2336697
 0.2355424 0.2364856 0.2369183 0.2364738 0.2337583 0.2280287 0.221277 0.2176718 0.2198824 0.2262899
 0.232722 0.2365511 0.2381406 0.2388917 0.239364 0.2391123 0.2369561 0.2316356 0.2237942 0.2172127
 0.2162497 0.2215315 0.2292474 0.2347099 0.2355401 0.2319107 0.2257136 0.2200058 0.2177574 0.2200473
 0.2255918 0.2320121 0.2372611 0.2401891 0.2405328 0.2388025 0.2362481 0.2345565 0.2346234 0.2352215
 0.2339365 0.2302157 0.2262895 0.2239027 0.2216232 0.2174926 0.2133184 0.2134824 0.2192408 0.2266178
 0.2308725 0.2313084 0.2304177 0.2293538 0.2259679 0.2179029 0.2070464 0.1996296 0.2007807 0.2091994
 0.2183149 0.222721 0.222477 0.2211862 0.2211872 0.2211661 0.2180053 0.2108531 0.2032068 0.1999846
 0.2022988 0.2064609 0.2083517 0.2067083 0.2016972 0.1935995 0.1851722 0.1825078 0.1899084 0.2046312
 0.2190239 0.2268199 0.2254464 0.2146812 0.1975459 0.1821367 0.1776886 0.1863078 0.2004072 0.2096724
 0.2092453 0.2006125 0.1872089 0.1720599 0.1591677 0.1539679 0.1600933 0.1756806 0.1933602 0.2039023
 0.2013278 0.1875856 0.1730104 0.1688967 0.177192 0.1891128 0.1949635 0.1929331 0.1877461 0.1845984
 0.1861568 0.1920446 0.1992389 0.2049293 0.2087608 0.2096219 0.202615 0.1849421 0.1636821 0.1511163
 0.1519757 0.1610345 0.1729328 0.1869881 0.2007695 0.2067917 0.2009522 0.1902877 0.1869724 0.1953866
 0.2083679 0.2159724 0.2153187 0.211107 0.2083809 0.2071688 0.2049836 0.2026182 0.204362 0.212073
 0.2219235 0.2286703 0.2311136 0.231628 0.2321473 0.2326918 0.2327203 0.2320247 0.2306679 0.2291152
 0.2280856 0.2277483 0.2275671 0.2271114 0.22604 0.2228799 0.2153469 0.2035576 0.1920645 0.1862472
 0.1866102 0.1891668 0.1913684 0.1935848 0.1935695 0.1849084 0.1654887 0.1444459 0.1355129 0.1437524
 0.1617869 0.1782072 0.1863097 0.1846882 0.173841 0.1563681 0.1396677 0.1336078 0.1424802 0.1608852
 0.1794987 0.193095 0.2011176 0.2032261 0.19833 0.1877666 0.1765527 0.1705096 0.1727263 0.1822115
 0.1942182 0.2014563 0.1976673 0.1838588 0.1710364 0.172074 0.1882057 0.2069548 0.2161536 0.2162539
 0.2153659 0.2166458 0.2167459 0.2146952 0.2154447 0.2231016 0.2349022 0.2439364 0.245217 0.2376567
 0.2234234 0.2084189 0.2007334 0.2041288 0.2136973 0.2211375 0.2227532 0.2189718 0.2094617 0.1951718
 0.1834946 0.183826 0.1966892 0.2125062 0.2224775 0.2265983 0.2296705 0.233034 0.2329367 0.2262183
 0.2155854 0.207945 0.2075771 0.2123999 0.2175155 0.2203772 0.2208177 0.2181272 0.2114999 0.2033718
 0.1994466 0.2037402 0.2143988 0.2253952 0.2318912 0.2332642 0.2317097 0.22939 0.2269743 0.2238121
 0.2193816 0.2151574 0.2143124 0.2183294 0.2246409 0.2292734 0.2313978 0.233593 0.237794 0.2426222
 0.2450602 0.2437437 0.2402557 0.2377403 0.2383808 0.2416763 0.2448195 0.2450889 0.2424326 0.2397581
 0.2402549 0.2443527 0.2496642 0.2537034 0.2559105 0.2571346 0.2581748 0.2590791 0.2591043 0.2572777
 0.2537746 0.2507187 0.2506745 0.2541064 0.2589403 0.262712 0.2645586 0.265074 0.2649499 0.264255
 0.262836 0.2609766 0.2594179 0.2587705 0.2590671 0.2599148 0.2609053 0.2617966 0.2624774 0.2629362
 0.2632351 0.2634341 0.2635614 0.2636518 0.2637323 0.2637566 0.2636561 0.2634916 0.2634581 0.2636716
 0.2640202 0.2642825 0.2643263 0.2641096 0.2635643 0.262621 0.2613447 0.2599111 0.2584053 0.2567607
 0.2550131 0.2535723 0.253094 0.2539811 0.2560118 0.2584793 0.260677 0.2622524 0.2632031 0.2636901
 0.2638959 0.2639674 0.2639835 0.26395 0.2638382 0.2636326 0.263344 0.2629941 0.2626066 0.2622134
 0.2618537 0.2615505 0.2612884 0.2610198 0.2606919 0.2602717 0.2597612 0.2592015 0.2586413 0.2580839
 0.2574714 0.2567353 0.255859 0.2548938 0.2539274 0.253037 0.252244 0.251502 0.2507406 0.2499196
 0.2490233 0.2480249 0.2469088 0.2457405 0.2446612 0.2437781 0.2430755 0.2424464 0.2417842 0.241029
 0.2401615 0.2391947 0.2381638 0.2370991 0.2360083 0.2348852 0.2337195 0.2324906 0.2311718 0.2297505
 0.2282359 0.2266495 0.2250208 0.2233792 0.2217187 0.2199667 0.2179988 0.2156827 0.2129047 0.2095802
 0.2056759 0.2012445 0.1964392 0.1914773 0.1865721 0.1818873 0.1775432 0.1736426 0.1702747 0.1675081
 0.1653934 0.1639683 0.1632519 0.1632403 0.1639141 0.1652415 0.1671686 0.1696035 0.1724078 0.1754062
 0.1784148 0.1812746 0.1838881 0.1862513 0.1884401 0.1905299 0.1925203 0.1943531 0.1959849 0.1974111
 0.1986344 0.1996542 0.2004881 0.2011769 0.2017584 0.2022524 0.2026695 0.2030243 0.2033321 0.2035995
 0.2038259 0.2040173 0.2041915 0.2043709 0.2045742 0.2048122 0.2050856 0.2053923 0.2057435 0.2061628
 0.2066609 0.2072209 0.2078151 0.208428 0.2090594 0.20972 0.2104315 0.2112275 0.2121504 0.2132386
 0.2145003 0.2158934 0.2173299 0.2187014 0.2199086 0.2208863 0.2216162 0.2221124 0.2223977 0.2224966
 0.2224381 0.22225 0.2219513 0.2215587 0.221094 0.2205768 0.2200151 0.2194101 0.218766 0.2180892
 0.2173842 0.2166585 0.2159302 0.2152185 0.214526 0.2138453 0.2131822 0.2125576 0.2119801 0.2114307
 0.2108818 0.2103192 0.2097441 0.2091673 0.2085992 0.2080322 0.207428 0.2067335 0.2059135 0.2049665
 0.2039109 0.2027652 0.2015426 0.2002542 0.1989047 0.1974875 0.1959918 0.1944199 0.1927861 0.1910924
 0.1893086 0.1873974 0.1853667 0.1832935 0.1812855 0.1794199 0.1777144 0.1761425 0.1746631 0.1732473
 0.1718904 0.1705992 0.1693704 0.1681933 0.1670674 0.1660046 0.1650129 0.1640889 0.163227 0.1624303
 0.1617122 0.1610855 0.1605492 0.1600899 0.1596921 0.1593447 0.1590498 0.1588379 0.1587486 0.1587772
 0.1588546 0.1588944 0.1588499 0.1587318 0.1585901 0.1584748 0.1583958 0.1583277 0.1582488 0.1581491
 0.1579938 0.1577071 0.1571919 0.1563612 0.1551723 0.1536532 0.1518943 0.1500218 0.1481792 0.1465
 0.1450655 0.1439016 0.143006 0.1423458 0.1418445 0.1414255 0.1410782 0.140862 0.1408502 0.1410536
 0.1413634 0.1415988 0.1416662 0.1416605 0.1417797 0.1421615 0.142802 0.1435783 0.144334 0.1449745
 0.1454864 0.1458744 0.14613 0.1462613 0.1462911 0.1462265 0.1460736 0.1458614 0.1456169 0.1453414
 0.1450206 0.1446307 0.1441478 0.1435781 0.1429442 0.1422351 0.141422 0.1405051 0.1394798 0.1383161
 0.1370651 0.1359408 0.1352194 0.1350726 0.135489 0.1362931 0.1372665 0.1382936 0.1393174 0.1401453
 0.1405111 0.1404793 0.140639 0.1416782 0.1437345 0.1462451 0.1484417 0.1499054 0.1506269 0.1507179
 0.1502567 0.1493106 0.1478942 0.1459463 0.1434757 0.1406301 0.1375609 0.1343871 0.1313061 0.1285445
 0.1262139 0.1243338 0.1229004 0.1219475 0.1215937 0.1214468 0.119577 0.1135318 0.1041316 0.09713099
 0.09835742 0.1071512 0.1168542 0.1218452 0.1219939 0.1202996 0.1188097 0.117825 0.1172601 0.117287
 0.11803 0.1193141 0.1207373 0.1219151 0.1226995 0.1231246 0.1231317 0.1223438 0.1200093 0.1152614
 0.1078186 0.09858759 0.0893506 0.08171673 0.07639126 0.07322878 0.07161932 0.07082686 0.07031728 0.07001226
 0.07021794 0.07125716 0.07319149 0.07587391 0.07910903 0.08262199 0.08597706 0.08876362 0.09089851 0.09259706
 0.09402814 0.09512226 0.09572146 0.09578671 0.09542016 0.09477173 0.09397518 0.09311976 0.09220764 0.09115809
 0.08995049 0.08877417 0.08792408 0.08751576 0.08740604 0.08740146 0.08741787 0.08743042 0.08740836 0.08733886
 0.08724895 0.08720582 0.08731209 0.08763646 0.08812004 0.08860311 0.08895544 0.0891552 0.08925507 0.08926116
 0.08902963 0.08839339 0.0874733 0.0866749 0.08618456 0.08565354 0.08465263 0.08332086 0.08228295 0.08196692
 0.08222462 0.08259717 0.08274315 0.08259659 0.08232496 0.08224247 0.08259869 0.08327946 0.08380467 0.08378144
</values></Ydata></ScRf><Data_Parameters_AB><parameter name="DPF">1</parameter><parameter name="NPT">3497</parameter><parameter name="FXV">3996</parameter><parameter name="LXV">500</parameter><parameter name="CSF">1</parameter><parameter name="MXY">0.152628391981125</parameter><parameter name="MNY">-0.0759608373045921</parameter><parameter name="DAT">31/05/2022</parameter><parameter name="TIM">14:41:40.762 (GMT+2)</parameter><parameter name="DXU">WN</parameter></Data_Parameters_AB><AB__Qtest><MainReport name="Quality Test Report"><Header><Line><Legend>Test result ok/not ok [1/0]: </Legend><Value>0</Value></Line><Line><Legend>Method file: </Legend><Value>C:\Users\Public\Documents\Bruker\OPUS_8.2.28\QT\IRBT_v3_default.QT</Value></Line></Header><Matrix><Line><Legend></Legend><Legend>min</Legend><Legend>max</Legend><Legend>measured</Legend></Line><Line><Value>Absorption (X-Range 1):</Value><Value>0.400000</Value><Value>2.000000</Value><Value>0.175634</Value></Line><Line><Value>Noise (X-Range 4):</Value><Value></Value><Value>0.000300</Value><Value>0.000055</Value></Line><Line><Value>Signal/Noise (X-Range 2):</Value><Value>200.000000</Value><Value></Value><Value>85.837250</Value></Line><Line><Value>Signal/Noise (X-Range 3):</Value><Value>40.000000</Value><Value></Value><Value>97.821842</Value></Line><Line><Value>Water vapour (X-Range 5):</Value><Value></Value><Value>0.000300</Value><Value>0.000047</Value></Line><Line><Value>Signal/Water (X-Range 2):</Value><Value>100.000000</Value><Value></Value><Value>99.827707</Value></Line><Line><Value>Signal/Water (X-Range 3):</Value><Value>20.000000</Value><Value></Value><Value>113.765646</Value></Line><Line><Value>Fringes (X-Range 6):</Value><Value></Value><Value>0.000100</Value><Value>0.000062</Value></Line></Matrix></MainReport></AB__Qtest><Data_Parameters_ScSm><parameter name="DPF">1</parameter><parameter name="NPT">1814</parameter><parameter name="FXV">3996.33169228125</parameter><parameter name="LXV">499.541461535156</parameter><parameter name="CSF">1</parameter><parameter name="MXY">0.291094213724136</parameter><parameter name="MNY">0.0312576778233051</parameter><parameter name="DAT">31/05/2022</parameter><parameter name="TIM">14:41:40.762 (GMT+2)</parameter><parameter name="DXU">WN</parameter></Data_Parameters_ScSm><Data_Parameters_ScRf><parameter name="DPF">1</parameter><parameter name="NPT">1820</parameter><parameter name="FXV">4004.04661832813</parameter><parameter name="LXV">495.683998511719</parameter><parameter name="CSF">1</parameter><parameter name="MXY">0.265073955059052</parameter><parameter name="MNY">0.0289683490991592</parameter><parameter name="DAT">31/05/2022</parameter><parameter name="TIM">14:41:13.867 (GMT+2)</parameter><parameter name="DXU">WN</parameter></Data_Parameters_ScRf><Optic_Parameters_Rf><parameter name="APR">0</parameter><parameter name="APT">Open</parameter><parameter name="BMS">KBr</parameter><parameter name="DTC">RT-DLaTGS_IR-Biotyper [Microplate reader]</parameter><parameter name="HPF">0</parameter><parameter name="LPF">10.0</parameter><parameter name="LPV">4000</parameter><parameter name="PGR">0</parameter><parameter name="RCH">Module port</parameter><parameter name="RDX">0</parameter><parameter name="SRC">MIR</parameter><parameter name="VEL">10.0</parameter><parameter name="SON">Off</parameter></Optic_Parameters_Rf><Acquisition_Parameters_Rf><parameter name="ADT">1</parameter><parameter name="AQM">DD</parameter><parameter name="CFE">0</parameter><parameter name="COR">0</parameter><parameter name="DEL">0</parameter><parameter name="DLY">0</parameter><parameter name="HFW">8000</parameter><parameter name="LFW">0</parameter><parameter name="NSR">32</parameter><parameter name="PLF">AB</parameter><parameter name="RES">6</parameter><parameter name="RGN">-1</parameter><parameter name="STR">0</parameter><parameter name="TCL">MakeCompatibleScalar (0, {WSV=1.000000, ARV=0});</parameter><parameter name="TDL">37</parameter><parameter name="RPO">0</parameter></Acquisition_Parameters_Rf><FT_-_Parameters_Rf><parameter name="APF">B3</parameter><parameter name="HFQ">500</parameter><parameter name="LFQ">4000</parameter><parameter name="NLI">0</parameter><parameter name="PHR">24</parameter><parameter name="PHZ">ML</parameter><parameter name="SPZ">NO</parameter><parameter name="ZFF">1</parameter></FT_-_Parameters_Rf><Optic_Parameters_><parameter name="APR">0</parameter><parameter name="APT">Open</parameter><parameter name="BMS">KBr</parameter><parameter name="CHN">Module port</parameter><parameter name="DTC">RT-DLaTGS_IR-Biotyper [Microplate reader]</parameter><parameter name="HPF">0</parameter><parameter name="LPF">10.0</parameter><parameter name="LPV">4000</parameter><parameter name="PGN">0</parameter><parameter name="RDX">0</parameter><parameter name="SRC">MIR</parameter><parameter name="VEL">10.0</parameter><parameter name="SON">Off</parameter></Optic_Parameters_><FT_-_Parameters_><parameter name="APF">B3</parameter><parameter name="HFQ">500</parameter><parameter name="LFQ">4000</parameter><parameter name="NLI">0</parameter><parameter name="PHR">24</parameter><parameter name="PHZ">ML</parameter><parameter name="SPZ">NO</parameter><parameter name="ZFF">1</parameter></FT_-_Parameters_><Acquisition_Parameters_><parameter name="ADT">1</parameter><parameter name="AQM">DD</parameter><parameter name="CFE">0</parameter><parameter name="COR">0</parameter><parameter name="DEL">0</parameter><parameter name="DLY">0</parameter><parameter name="HFW">8000</parameter><parameter name="LFW">0</parameter><parameter name="NSS">32</parameter><parameter name="PLF">AB</parameter><parameter name="RES">6</parameter><parameter name="SOT">0</parameter><parameter name="TCL">MakeCompatibleScalar (0, {WSV=1.000000, ARV=0});</parameter><parameter name="TDL">37</parameter><parameter name="SPO">0</parameter><parameter name="SGN">-1</parameter></Acquisition_Parameters_><Instrument_Parameters_Rf><parameter name="HFL">15800.168544</parameter><parameter name="LFL">0</parameter><parameter name="LWN">15800.168544</parameter><parameter name="ABP">32197</parameter><parameter name="SSP">1</parameter><parameter name="ARG">2</parameter><parameter name="ASG">2</parameter><parameter name="ASS">32</parameter><parameter name="GFW">16</parameter><parameter name="GBW">16</parameter><parameter name="BFW">0</parameter><parameter name="BBW">0</parameter><parameter name="PKA">7264</parameter><parameter name="PKL">4996</parameter><parameter name="PRA">7451</parameter><parameter name="PRL">5001</parameter><parameter name="P2A">1</parameter><parameter name="P2L">1</parameter><parameter name="P2R">1</parameter><parameter name="P2K">1</parameter><parameter name="DAQ">0</parameter><parameter name="AG2">1</parameter><parameter name="SSM">1</parameter><parameter name="RSN">25827</parameter><parameter name="CRR">0</parameter><parameter name="SRT">1654008073.867</parameter><parameter name="DUR">19.6379852294922</parameter><parameter name="TSC">29.2</parameter><parameter name="MVD">0.365115970373154</parameter><parameter name="AN1">0.225838104058238</parameter><parameter name="AN2">0</parameter><parameter name="VSN">2.485 Apr  4 2017</parameter><parameter name="SRN">0085</parameter><parameter name="CAM">0</parameter><parameter name="INS">IR-Biotyper</parameter><parameter name="FOC">69</parameter><parameter name="RDY">1</parameter><parameter name="ARS">32</parameter></Instrument_Parameters_Rf><Sample_Parameters_><parameter name="BLD"></parameter><parameter name="CNM">Admin</parameter><parameter name="CPY"></parameter><parameter name="DPM"></parameter><parameter name="EXP">IRBT_v3_32Scans.XPM</parameter><parameter name="LCT"></parameter><parameter name="SFM">Microplate, HTS-XT</parameter><parameter name="SNM">220531-1301_JMJ44M (D_1)_E12_be4b405a-5c92-4b2f-95eb-14003271145c.0</parameter><parameter name="XPP">C:\Users\Public\Documents\Bruker\OPUS_8.2.28\XPM</parameter><parameter name="IST">OK</parameter><parameter name="CPG">1252</parameter><parameter name="UID">34930de3-a486-4d9c-8c49-305303523526</parameter></Sample_Parameters_><Instrument_Parameters_><parameter name="HFL">15800.168544</parameter><parameter name="LFL">0</parameter><parameter name="LWN">15800.168544</parameter><parameter name="ABP">32197</parameter><parameter name="SSP">1</parameter><parameter name="ASG">2</parameter><parameter name="ARG">2</parameter><parameter name="ASS">32</parameter><parameter name="GFW">16</parameter><parameter name="GBW">16</parameter><parameter name="BFW">0</parameter><parameter name="BBW">0</parameter><parameter name="PKA">7330</parameter><parameter name="PKL">4988</parameter><parameter name="PRA">7623</parameter><parameter name="PRL">4993</parameter><parameter name="P2A">1</parameter><parameter name="P2L">1</parameter><parameter name="P2R">1</parameter><parameter name="P2K">1</parameter><parameter name="DAQ">0</parameter><parameter name="AG2">1</parameter><parameter name="SSM">1</parameter><parameter name="RSN">13539</parameter><parameter name="CRR">0</parameter><parameter name="SRT">1654008100.762</parameter><parameter name="DUR">19.6379852294922</parameter><parameter name="TSC">29.2</parameter><parameter name="MVD">0.225652560591698</parameter><parameter name="AN1">0.225802488255371</parameter><parameter name="AN2">0</parameter><parameter name="VSN">2.485 Apr  4 2017</parameter><parameter name="SRN">0085</parameter><parameter name="CAM">0</parameter><parameter name="INS">IR-Biotyper</parameter><parameter name="FOC">69</parameter><parameter name="RDY">1</parameter></Instrument_Parameters_><History/></OPUSDataFile>
