<?xml version="1.0" encoding="UTF-8" ?>
<OPUSDataFile><AB><Ydata ylabel="Absorbance Units"><values byteorder="INTEL" format="FLOAT32" numvalues="3497"> -0.0643997 -0.06437976 -0.06434254 -0.06428752 -0.06422193 -0.06414613 -0.06406861 -0.06399018 -0.06392343 -0.0638689
 -0.06383751 -0.0638263 -0.06383166 -0.06384823 -0.06386008 -0.06386807 -0.06386406 -0.06385744 -0.06385628 -0.06386565
 -0.06389591 -0.06393582 -0.06398442 -0.0640237 -0.06404538 -0.06404514 -0.06401761 -0.06397846 -0.06392813 -0.06388927
 -0.0638646 -0.06386223 -0.06388272 -0.06390736 -0.06393438 -0.0639346 -0.06390997 -0.06385475 -0.06377684 -0.06370136
 -0.06363352 -0.06360059 -0.06359702 -0.06362791 -0.06368084 -0.06374362 -0.06380738 -0.06386059 -0.06390139 -0.06392637
 -0.06393379 -0.06392327 -0.06388932 -0.06382909 -0.06374679 -0.06363981 -0.06353531 -0.06343477 -0.06337199 -0.06334897
 -0.06337287 -0.06344133 -0.06352396 -0.0636173 -0.0636833 -0.0637248 -0.06373066 -0.06370785 -0.06366761 -0.06361419
 -0.06355928 -0.06350534 -0.06345974 -0.0634229 -0.06339936 -0.06338214 -0.06336998 -0.06335232 -0.06332342 -0.06328367
 -0.06322992 -0.06317656 -0.06312484 -0.06309023 -0.06307444 -0.06308682 -0.063128 -0.06320048 -0.06330351 -0.06342891
 -0.06357301 -0.06371065 -0.06383617 -0.06391346 -0.06394453 -0.06391192 -0.06383083 -0.06371773 -0.06358742 -0.06346527
 -0.06335372 -0.06326538 -0.06319029 -0.06312699 -0.06306419 -0.06299421 -0.06292409 -0.06285117 -0.06279962 -0.06277385
 -0.06278487 -0.06283639 -0.06290348 -0.06298501 -0.06304289 -0.06307725 -0.0630818 -0.06306124 -0.06304245 -0.0630276
 -0.06304066 -0.06307652 -0.06313554 -0.06321029 -0.06328727 -0.0633649 -0.06343611 -0.06350131 -0.06356189 -0.06360754
 -0.06363422 -0.0636297 -0.06358346 -0.06351073 -0.06340759 -0.06332009 -0.06325359 -0.06325416 -0.06332929 -0.06348233
 -0.06371474 -0.06391943 -0.06408875 -0.06407527 -0.06389701 -0.06359459 -0.06319648 -0.06283573 -0.06251399 -0.0623021
 -0.06218889 -0.06219269 -0.06228641 -0.06245397 -0.06264751 -0.06282362 -0.06294885 -0.06298162 -0.06295004 -0.06284873
 -0.06273542 -0.06262778 -0.06254316 -0.06249011 -0.06245055 -0.0624231 -0.06239826 -0.06237526 -0.06236231 -0.06235954
 -0.06237132 -0.06239557 -0.06242109 -0.06244525 -0.06245125 -0.06244001 -0.06240392 -0.0623486 -0.06227882 -0.06220322
 -0.06213318 -0.0620767 -0.06204465 -0.06203921 -0.06206624 -0.06211902 -0.0621989 -0.06228869 -0.06238659 -0.06246733
 -0.06252677 -0.06254511 -0.062519 -0.06244721 -0.06232928 -0.06218116 -0.06200396 -0.06181691 -0.06162042 -0.06142572
 -0.06123361 -0.0610517 -0.06088383 -0.06074274 -0.06063304 -0.06057044 -0.0605519 -0.06058429 -0.06065027 -0.06074105
 -0.0608324 -0.06090645 -0.06095469 -0.06096574 -0.06095544 -0.06092438 -0.06089398 -0.06086909 -0.06085575 -0.06085585
 -0.06086224 -0.06087458 -0.06088707 -0.06089969 -0.06091219 -0.06092426 -0.06093441 -0.06094064 -0.06093362 -0.06091335
 -0.06087295 -0.06081868 -0.06075722 -0.06069719 -0.06065257 -0.06062628 -0.06062631 -0.06065011 -0.060698 -0.06076868
 -0.06086326 -0.06097431 -0.061104 -0.0612254 -0.06133511 -0.06140666 -0.06143555 -0.06142267 -0.061368 -0.0612631
 -0.06110725 -0.0608812 -0.06059225 -0.0602787 -0.05995468 -0.05969999 -0.05951552 -0.05945069 -0.05948325 -0.05960527
 -0.05977224 -0.05992332 -0.06003634 -0.0600604 -0.06002689 -0.05993839 -0.05982994 -0.05971908 -0.05961526 -0.05952573
 -0.05944524 -0.05937424 -0.05930508 -0.05923666 -0.05916717 -0.05909627 -0.05903041 -0.05897026 -0.05892855 -0.05890562
 -0.05891288 -0.05894493 -0.05899044 -0.0590349 -0.05903082 -0.05897721 -0.05884064 -0.05865239 -0.05843857 -0.05822343
 -0.05804305 -0.05788935 -0.05777136 -0.05766406 -0.05755789 -0.05744119 -0.05730573 -0.05716362 -0.05701554 -0.05687404
 -0.05674188 -0.05661206 -0.0564846 -0.0563378 -0.0561712 -0.05597546 -0.05575429 -0.05553108 -0.05530813 -0.05510872
 -0.05492904 -0.05476939 -0.0546289 -0.05450622 -0.05440126 -0.05431822 -0.05424222 -0.05416695 -0.05406385 -0.05391034
 -0.05370235 -0.05342723 -0.05311238 -0.05276577 -0.05239303 -0.0519981 -0.05156901 -0.05110317 -0.05061132 -0.0500937
 -0.04957176 -0.04904635 -0.04853046 -0.04802541 -0.04754657 -0.04709621 -0.04669407 -0.04633717 -0.04603002 -0.04576292
 -0.04552127 -0.0452948 -0.04506896 -0.04482415 -0.04454445 -0.04419662 -0.04374767 -0.04320886 -0.04256327 -0.04188592
 -0.04119689 -0.04053752 -0.03992334 -0.0393412 -0.03879192 -0.03825482 -0.03772821 -0.03721015 -0.03670142 -0.03622056
 -0.03576782 -0.03535854 -0.034983 -0.03461425 -0.03423075 -0.03375249 -0.03318394 -0.03247831 -0.03169597 -0.03089968
 -0.03012586 -0.02944241 -0.02882036 -0.02826596 -0.027732 -0.0271976 -0.02664131 -0.02604733 -0.0254363 -0.02480828
 -0.02419177 -0.02359257 -0.02300249 -0.02242219 -0.0218121 -0.02117094 -0.02047573 -0.01973085 -0.01895965 -0.01816703
 -0.01738741 -0.01661927 -0.01587482 -0.01515326 -0.01445894 -0.0137907 -0.01315277 -0.01253192 -0.01191886 -0.01129974
 -0.01065926 -0.01000477 -0.009336122 -0.008659902 -0.007983445 -0.007281716 -0.006551065 -0.005771114 -0.004934282 -0.004080954
 -0.003212673 -0.002388612 -0.001609854 -0.0008841647 -0.0002074733 0.0004487885 0.001087189 0.001734385 0.002388647 0.00306037
 0.003743114 0.004429916 0.005114565 0.005782614 0.006440799 0.007085075 0.007739073 0.008416462 0.009133792 0.009907925
 0.01071939 0.01156955 0.0124221 0.01326955 0.01409245 0.01488637 0.01565342 0.01639296 0.01712293 0.01784434
 0.01857751 0.01932226 0.02008628 0.02086842 0.02166745 0.02248321 0.02331642 0.02416321 0.02501949 0.02587397
 0.02670957 0.0275194 0.02828738 0.02902309 0.02972571 0.03041234 0.03109132 0.03176942 0.03245254 0.03313136
 0.0338052 0.03446405 0.03510456 0.03574133 0.03637432 0.0370414 0.03774381 0.03850122 0.03930922 0.04014022
 0.04098833 0.04181027 0.04260888 0.04336901 0.04409818 0.04480512 0.04549216 0.04616615 0.04682722 0.04747617
 0.04811799 0.04875466 0.04939469 0.05004221 0.05070283 0.05137978 0.05207202 0.05278024 0.05350035 0.05423185
 0.05497311 0.05572416 0.05648064 0.05724185 0.05799031 0.05872423 0.05941986 0.06007816 0.06068946 0.06125885
 0.06179497 0.06230424 0.06280238 0.06329568 0.0637992 0.06431627 0.06485705 0.06541664 0.0659957 0.06658628
 0.06718396 0.06778797 0.06839762 0.06901143 0.06963104 0.07024149 0.07084113 0.07141765 0.07196924 0.0725081
 0.07303521 0.07357559 0.07412893 0.07470452 0.07529809 0.07589546 0.07649148 0.07706266 0.07760907 0.07811699
 0.07859578 0.0790517 0.07949551 0.07994246 0.08039024 0.08084313 0.08129244 0.08173241 0.08216885 0.08260111
 0.08304137 0.08349434 0.08395272 0.08441731 0.08486911 0.08530626 0.08572692 0.08613139 0.08653393 0.08693513
 0.08734579 0.08776597 0.08820154 0.08865246 0.08912376 0.08961059 0.09010809 0.0906054 0.09108516 0.09154045
 0.09195577 0.09233681 0.09267974 0.0930014 0.09330749 0.09361421 0.09392944 0.09425428 0.09459221 0.0949287
 0.09526222 0.0955819 0.09588605 0.09618475 0.09647883 0.09679127 0.09712259 0.09748805 0.09788441 0.09830638
 0.09874609 0.0991784 0.09959494 0.09996459 0.100289 0.1005523 0.1007742 0.1009645 0.1011516 0.1013596
 0.1015999 0.1018905 0.1022068 0.1025487 0.1028748 0.1031736 0.1034351 0.1036526 0.1038603 0.1040603
 0.1042748 0.1045034 0.1047089 0.104888 0.1049889 0.1050192 0.1049863 0.1049077 0.1048425 0.1047975
 0.1048188 0.1048941 0.1050278 0.105199 0.1053895 0.105583 0.1057606 0.1059228 0.1060603 0.1061984
 0.1063417 0.1065174 0.106737 0.1069857 0.1072678 0.1075228 0.1077464 0.1078876 0.1079449 0.1079265
 0.1078373 0.1077279 0.1075993 0.107485 0.1073792 0.1072769 0.1071815 0.1070916 0.1070266 0.1070174
 0.107068 0.107206 0.1073897 0.107605 0.1077974 0.10793 0.1080013 0.1079936 0.1079624 0.1079157
 0.1079018 0.1079323 0.108002 0.1081134 0.1082197 0.1083183 0.1083585 0.1083406 0.1082438 0.1080769
 0.1078678 0.1076321 0.1074331 0.1072794 0.1072266 0.1072581 0.1073826 0.1075565 0.1077415 0.1078963
 0.1079726 0.1079757 0.107885 0.1077571 0.1076036 0.1074786 0.1073993 0.107375 0.1074099 0.1074962
 0.1076323 0.107835 0.1081053 0.1084615 0.1088988 0.1093782 0.1098844 0.1103185 0.1106709 0.1108508
 0.1108772 0.1107346 0.1104749 0.1101622 0.1098518 0.1096311 0.1095094 0.1095356 0.1096484 0.1098413
 0.1100201 0.110151 0.1101785 0.110076 0.1098672 0.1095458 0.1091899 0.1088048 0.1084591 0.1081559
 0.1079136 0.1077301 0.1075892 0.1074905 0.1074217 0.1073866 0.1073924 0.1074398 0.1075397 0.1076751
 0.1078352 0.1079769 0.1080565 0.1080287 0.1078388 0.1074942 0.1069678 0.1063429 0.1056333 0.1049408
 0.1042938 0.1037366 0.1032834 0.1029173 0.1026389 0.1024151 0.1022439 0.1020895 0.1019495 0.1017849
 0.1015984 0.1013801 0.1011419 0.1009199 0.1007157 0.1005604 0.1004251 0.1002838 0.1001016 0.09982247
 0.0994573 0.09898151 0.09846339 0.09792404 0.09743925 0.09704441 0.09676067 0.09660898 0.09653401 0.09653693
 0.09651751 0.09646739 0.09630969 0.09604083 0.09566225 0.09517994 0.09466057 0.09410974 0.09359371 0.09310881
 0.09267852 0.09229479 0.09195141 0.09164206 0.09135655 0.09108488 0.09081502 0.09053321 0.09022356 0.08988548
 0.08950906 0.08911886 0.08871841 0.08833962 0.08799265 0.08768472 0.0874215 0.0871768 0.08694964 0.08670538
 0.08644228 0.08614582 0.08581721 0.08546539 0.08509286 0.08471736 0.08434094 0.08397975 0.08363464 0.08331721
 0.08302273 0.0827522 0.08249183 0.08222838 0.08194798 0.08163293 0.08128714 0.08090368 0.08050548 0.08009884
 0.07970135 0.07932102 0.07895086 0.07859237 0.07822535 0.07784764 0.07745198 0.07703803 0.07661956 0.07619768
 0.07579065 0.07539752 0.07502337 0.0746646 0.07431168 0.07396202 0.073604 0.07323942 0.07286508 0.07248609
 0.07210653 0.07173122 0.07136327 0.07101167 0.0706784 0.07038274 0.07013209 0.06993892 0.06981441 0.06972487
 0.06967346 0.06957654 0.06942733 0.06915427 0.06875353 0.06823493 0.06760581 0.0669573 0.06629936 0.06573852
 0.06527096 0.06494831 0.06474261 0.06462301 0.06454669 0.06442983 0.064252 0.06394565 0.06354728 0.063053
 0.06253175 0.06202323 0.06155454 0.06115357 0.06078396 0.06044105 0.06009796 0.05974286 0.0594187 0.05912643
 0.05893373 0.05884423 0.05886093 0.05897703 0.05910896 0.05924572 0.05927805 0.05920788 0.05897647 0.05860905
 0.05812912 0.05757339 0.057014 0.05646581 0.05598112 0.05553646 0.05513184 0.0547399 0.05433849 0.05394018
 0.05354055 0.05317231 0.05284752 0.05256008 0.05231467 0.05206928 0.05181898 0.05155353 0.05127212 0.0510199
 0.05079871 0.0506476 0.05055966 0.05051511 0.05050303 0.05047178 0.05042136 0.05032343 0.05018946 0.05002653
 0.04984189 0.0496513 0.0494433 0.04921918 0.04895126 0.04862478 0.04822229 0.04772618 0.04716429 0.04653116
 0.04590243 0.04528714 0.04475707 0.04432296 0.04398954 0.04375771 0.04355866 0.04338752 0.04316051 0.04287997
 0.0425132 0.04207484 0.04159776 0.04109868 0.04063591 0.04021211 0.03986229 0.03956981 0.03933249 0.03912483
 0.03892621 0.03871908 0.03848541 0.03822881 0.03794222 0.03765196 0.03736212 0.03709944 0.03687249 0.0366695
 0.0364931 0.03628834 0.03605219 0.03574498 0.03536967 0.03495878 0.03452084 0.0341296 0.03377986 0.03349827
 0.03326046 0.03301946 0.03276051 0.03242883 0.03204547 0.03160734 0.03115451 0.03071979 0.03032406 0.02999164
 0.0297147 0.02949632 0.02932376 0.02919357 0.02910205 0.02904925 0.02902588 0.02903303 0.0290369 0.02903577
 0.02897806 0.02886221 0.02865319 0.02835629 0.02798333 0.02754686 0.02709845 0.02664823 0.02624823 0.02589792
 0.02562097 0.02540967 0.02526401 0.0251774 0.025145 0.02516088 0.02522304 0.02531847 0.02544531 0.02557941
 0.02571604 0.02582921 0.02591234 0.02596057 0.02597005 0.02597524 0.02597766 0.0260393 0.02616234 0.02639186
 0.02672267 0.02714724 0.0276533 0.02819152 0.02875288 0.0292886 0.02980077 0.03026952 0.03070418 0.03110817
 0.03148919 0.03185508 0.03220905 0.03255441 0.03289435 0.03323071 0.03356575 0.03390252 0.03423073 0.03455184
 0.03483687 0.03508366 0.03526181 0.03536918 0.03540236 0.03536312 0.03527947 0.03515384 0.03501719 0.03486727
 0.03471104 0.03454682 0.0343696 0.03418951 0.03401892 0.03387403 0.03378329 0.03374387 0.03376991 0.03383189
 0.03391777 0.0340025 0.03406828 0.03412518 0.03416898 0.03423056 0.03431543 0.03443894 0.03460487 0.03480173
 0.03502934 0.03525661 0.03548067 0.03565263 0.03576862 0.03577595 0.03567807 0.03545466 0.03512327 0.03471499
 0.03425104 0.03378507 0.03332183 0.03289421 0.03248152 0.03208411 0.03166144 0.03119541 0.03063983 0.02997155
 0.02916706 0.02820791 0.02712634 0.025917 0.02466773 0.02338506 0.02216023 0.02099966 0.01993938 0.01897834
 0.01809785 0.01729608 0.01655067 0.01586502 0.01524292 0.0146837 0.01419286 0.01375543 0.01334947 0.01295792
 0.01254639 0.01211989 0.0116649 0.01121023 0.01076793 0.01036271 0.01001061 0.009710011 0.009465806 0.009260259
 0.009090409 0.008947177 0.008828042 0.008743154 0.008692862 0.008695068 0.008749451 0.00885402 0.009002266 0.009150886
 0.00928889 0.009347773 0.009325453 0.009175773 0.008916999 0.0085553 0.00812166 0.007655973 0.007182085 0.006735705
 0.00632185 0.005955773 0.005626221 0.00533379 0.005061121 0.004803658 0.004549542 0.004295111 0.0040404 0.003784986
 0.003531721 0.003281164 0.003016874 0.002736349 0.002393289 0.001984177 0.001457629 0.0008203818 6.455841E-05 -0.0007850783
 -0.00167126 -0.002566506 -0.003389209 -0.004141254 -0.004782324 -0.005352626 -0.005870506 -0.006377496 -0.006909364 -0.007468071
 -0.008068653 -0.008679257 -0.009294962 -0.009886259 -0.0104462 -0.01096313 -0.01143445 -0.01186051 -0.01224092 -0.01258768
 -0.01290195 -0.01320611 -0.01350101 -0.01380469 -0.01411455 -0.01443094 -0.0147482 -0.01505176 -0.01533725 -0.01558824
 -0.01580799 -0.01599023 -0.01615071 -0.01629818 -0.01645398 -0.01663532 -0.0168478 -0.01710327 -0.01737803 -0.01767141
 -0.01794525 -0.01819149 -0.01839139 -0.01853925 -0.01865579 -0.01874143 -0.01883801 -0.0189467 -0.01908794 -0.01925808
 -0.01943907 -0.01962802 -0.0197999 -0.0199622 -0.02012075 -0.02028722 -0.02048944 -0.02072478 -0.02100649 -0.02131315
 -0.02163272 -0.02194103 -0.02221948 -0.02245569 -0.02263801 -0.0227709 -0.02284951 -0.02289938 -0.02292132 -0.02295654
 -0.02300998 -0.02310918 -0.02325707 -0.02344254 -0.02366405 -0.02388763 -0.02411285 -0.02431997 -0.02451204 -0.02469235
 -0.02486172 -0.02502521 -0.02517913 -0.02531773 -0.02544091 -0.02554369 -0.02563429 -0.02571815 -0.02580224 -0.02589491
 -0.02599046 -0.02608937 -0.02618212 -0.02626337 -0.02634082 -0.02641267 -0.02650322 -0.02661568 -0.0267618 -0.02694337
 -0.0271399 -0.0273498 -0.02753896 -0.02770774 -0.02784191 -0.02794652 -0.02803528 -0.02811302 -0.02820158 -0.02829917
 -0.02841477 -0.02853926 -0.02866474 -0.0287829 -0.02888074 -0.02896266 -0.02902386 -0.02908346 -0.02914759 -0.02923365
 -0.02935004 -0.02949553 -0.0296732 -0.02986617 -0.03007313 -0.03027799 -0.03047941 -0.03067124 -0.03085339 -0.03102623
 -0.03118981 -0.03134442 -0.03149004 -0.03162627 -0.03175402 -0.03187477 -0.03199133 -0.03210979 -0.03223205 -0.03236425
 -0.03250368 -0.03265063 -0.03280028 -0.03294853 -0.03309631 -0.0332418 -0.03339187 -0.03354876 -0.03371447 -0.03389118
 -0.03406964 -0.03424949 -0.03441823 -0.03457482 -0.03471421 -0.03483641 -0.03494395 -0.03503703 -0.03511837 -0.03518774
 -0.03524458 -0.03529068 -0.03532913 -0.03536584 -0.03541327 -0.03547669 -0.03557043 -0.03569061 -0.035841 -0.03600948
 -0.03618935 -0.03637234 -0.03655223 -0.03672934 -0.03690308 -0.03707231 -0.03723767 -0.03739156 -0.03753276 -0.03765913
 -0.03777 -0.0378774 -0.03798203 -0.03809885 -0.0382273 -0.03836995 -0.03852424 -0.03867995 -0.03883557 -0.03898094
 -0.03911737 -0.03924228 -0.03935841 -0.03946843 -0.03957434 -0.03967913 -0.03978322 -0.03988807 -0.03999225 -0.04009596
 -0.04019594 -0.04029103 -0.0403801 -0.04046168 -0.04054247 -0.04062257 -0.04071318 -0.04081535 -0.04093174 -0.04106211
 -0.04119647 -0.04133401 -0.04146302 -0.04158455 -0.04169668 -0.041802 -0.04190699 -0.0420134 -0.04212818 -0.04225065
 -0.04238362 -0.04252332 -0.04266797 -0.04281209 -0.04295159 -0.04308298 -0.04320333 -0.0433126 -0.04340984 -0.04349735
 -0.04357482 -0.04364789 -0.04371659 -0.0437916 -0.04387368 -0.04397194 -0.04408646 -0.0442132 -0.0443505 -0.04448176
 -0.04460636 -0.04471113 -0.04479988 -0.04487597 -0.04494552 -0.04502318 -0.0451104 -0.04521768 -0.04533738 -0.04546738
 -0.04559627 -0.04571477 -0.04581949 -0.04590393 -0.04597875 -0.04604468 -0.0461166 -0.04619851 -0.04629475 -0.04640754
 -0.04652697 -0.04665269 -0.04677093 -0.04688123 -0.04697895 -0.04706496 -0.04714515 -0.04722048 -0.04729874 -0.0473794
 -0.04746522 -0.04755457 -0.04764529 -0.04773657 -0.04782597 -0.04791444 -0.04800155 -0.04808971 -0.0481804 -0.04827524
 -0.04837618 -0.04848057 -0.04858927 -0.04869374 -0.04879282 -0.04887755 -0.04894603 -0.04899821 -0.04903352 -0.04906274
 -0.04908647 -0.04911774 -0.04915658 -0.04920883 -0.04927328 -0.0493475 -0.04943006 -0.04951537 -0.0496029 -0.04968874
 -0.04977336 -0.04985589 -0.04993676 -0.05001612 -0.05009425 -0.05017107 -0.05024781 -0.05032472 -0.05040395 -0.05048661
 -0.0505722 -0.05066149 -0.05074921 -0.05083482 -0.05091365 -0.05098508 -0.05105111 -0.05111192 -0.05117388 -0.05123698
 -0.05130357 -0.05137303 -0.05144303 -0.05151395 -0.0515854 -0.0516591 -0.05173875 -0.05182481 -0.05192043 -0.0520227
 -0.05213061 -0.0522393 -0.05234512 -0.05244506 -0.05253619 -0.05261972 -0.05269484 -0.05276593 -0.0528335 -0.05290238
 -0.05297327 -0.0530494 -0.0531312 -0.05321873 -0.05331192 -0.053407 -0.05350352 -0.05359559 -0.05368333 -0.05376379
 -0.05383829 -0.05390923 -0.05397785 -0.05404806 -0.05411982 -0.05419471 -0.0542724 -0.05435308 -0.05443665 -0.05452351
 -0.05461211 -0.05470231 -0.05479101 -0.05487724 -0.05495878 -0.05503479 -0.05510543 -0.05517041 -0.05523162 -0.05528907
 -0.05534675 -0.0554049 -0.05546919 -0.05553967 -0.05561928 -0.05570712 -0.0558005 -0.05589793 -0.05599322 -0.05608574
 -0.0561708 -0.05624925 -0.05631994 -0.05638496 -0.05644591 -0.0565048 -0.0565638 -0.05662308 -0.05668332 -0.05674397
 -0.05680459 -0.05686672 -0.05693028 -0.05699859 -0.05707221 -0.05715245 -0.05723968 -0.05733093 -0.05742601 -0.05751869
 -0.05760852 -0.0576882 -0.0577579 -0.05781377 -0.05785808 -0.05789538 -0.05792912 -0.0579695 -0.05801699 -0.05807771
 -0.05814793 -0.05822603 -0.05830871 -0.05839241 -0.05847768 -0.05856412 -0.05865191 -0.05874218 -0.05882952 -0.05891336
 -0.05898679 -0.05904834 -0.05909728 -0.05913308 -0.05916223 -0.05918507 -0.05920928 -0.05923518 -0.05926863 -0.05930983
 -0.05936328 -0.0594282 -0.05950535 -0.05959182 -0.05968188 -0.05977282 -0.05985715 -0.05993638 -0.06000862 -0.06007785
 -0.06014724 -0.06021652 -0.06028736 -0.06035497 -0.06041776 -0.06047372 -0.06052129 -0.06056475 -0.06060421 -0.06064558
 -0.06068938 -0.06073974 -0.06079688 -0.0608637 -0.06094018 -0.06102705 -0.0611239 -0.06122863 -0.06134149 -0.06146136
 -0.06159066 -0.06173342 -0.06189343 -0.06207848 -0.06229009 -0.06253387 -0.0628066 -0.06310805 -0.063434 -0.06378036
 -0.064152 -0.06454661 -0.064983 -0.06546365 -0.06601074 -0.06662921 -0.06732201 -0.0680915 -0.06891063 -0.06977763
 -0.07063597 -0.07147912 -0.07221983 -0.07284758 -0.07325752 -0.07344877 -0.07335331 -0.07299862 -0.07239719 -0.07161295
 -0.07074002 -0.06985049 -0.06906163 -0.06839766 -0.06791867 -0.06760534 -0.06746496 -0.06746858 -0.06761148 -0.06785688
 -0.06820321 -0.06858145 -0.06898589 -0.06932753 -0.06959601 -0.06976321 -0.06982778 -0.06983342 -0.06978288 -0.06972104
 -0.06964721 -0.06958152 -0.06952023 -0.06946277 -0.06940316 -0.06932721 -0.06923251 -0.06910713 -0.06895652 -0.06878119
 -0.06858901 -0.0683857 -0.06817741 -0.06796768 -0.06776396 -0.06756879 -0.0673904 -0.06723139 -0.06709527 -0.06698363
 -0.06689202 -0.06682055 -0.06675951 -0.0667084 -0.06665591 -0.06660171 -0.06653795 -0.06646548 -0.06638415 -0.06629641
 -0.06621011 -0.06612793 -0.06605996 -0.06600738 -0.06597729 -0.06596719 -0.06597827 -0.06600406 -0.06604097 -0.06608132
 -0.06611992 -0.06615349 -0.06617872 -0.06619952 -0.06621576 -0.06623381 -0.06625483 -0.06628101 -0.0663128 -0.06634869
 -0.06638861 -0.06643242 -0.06648022 -0.06653354 -0.06659204 -0.06665473 -0.06672063 -0.06678566 -0.06684966 -0.06690992
 -0.06696761 -0.06702352 -0.06707846 -0.06713393 -0.0671894 -0.06724489 -0.06730008 -0.06735468 -0.06740901 -0.06746349
 -0.06751661 -0.0675685 -0.06761538 -0.06765655 -0.06769042 -0.06771652 -0.06773869 -0.06775713 -0.06777661 -0.06779709
 -0.06781906 -0.06784208 -0.06786346 -0.06788365 -0.06790247 -0.06792144 -0.06794437 -0.06797153 -0.06800582 -0.06804484
 -0.06808723 -0.06813039 -0.06817121 -0.06821057 -0.06824762 -0.06828552 -0.06832555 -0.06836852 -0.06841534 -0.06846327
 -0.06851193 -0.06855981 -0.06860642 -0.06865551 -0.06870726 -0.06876734 -0.06883555 -0.06891122 -0.06899294 -0.06907168
 -0.06914651 -0.06920836 -0.06925918 -0.06929831 -0.06932957 -0.06935924 -0.06938903 -0.06942403 -0.06946239 -0.06950439
 -0.06954782 -0.069591 -0.06963477 -0.06967858 -0.06972551 -0.06977633 -0.06983244 -0.06989467 -0.06995973 -0.07002755
 -0.07009317 -0.07015631 -0.07021691 -0.0702754 -0.0703378 -0.07040416 -0.07047843 -0.07055884 -0.07064126 -0.07072361
 -0.07079843 -0.0708657 -0.07092152 -0.07096811 -0.07100596 -0.07103865 -0.07106832 -0.07110015 -0.0711373 -0.07118352
 -0.07124214 -0.07130918 -0.07138558 -0.07146024 -0.07153144 -0.0715915 -0.07163888 -0.07167786 -0.07170859 -0.07174313
 -0.07178182 -0.07183215 -0.0718931 -0.07196223 -0.07203835 -0.07211537 -0.07219402 -0.0722731 -0.07235379 -0.07243852
 -0.07252531 -0.07261374 -0.0726992 -0.07277712 -0.07284719 -0.0729065 -0.07296146 -0.07301376 -0.07306853 -0.07312876
 -0.07318962 -0.07325137 -0.07330475 -0.07334833 -0.07338268 -0.07340769 -0.07343706 -0.07347145 -0.07352369 -0.07359244
 -0.07367647 -0.07377274 -0.07386917 -0.07396446 -0.07404885 -0.07412385 -0.07418725 -0.07424193 -0.07428996 -0.07433505
 -0.0743805 -0.07442975 -0.07448617 -0.07454934 -0.0746209 -0.07469505 -0.07477071 -0.07484292 -0.07491008 -0.07497399
 -0.07503437 -0.07509718 -0.07516278 -0.07523295 -0.07530738 -0.07538158 -0.07545512 -0.07552277 -0.07558538 -0.07564317
 -0.07569783 -0.07575408 -0.07581202 -0.07587467 -0.07593966 -0.07600547 -0.07606986 -0.0761298 -0.07618629 -0.0762385
 -0.07628988 -0.07634152 -0.07639603 -0.07645465 -0.07651667 -0.07658257 -0.07664842 -0.0767139 -0.07677578 -0.07683381
 -0.07688972 -0.07694376 -0.07700089 -0.07706089 -0.07712498 -0.07719222 -0.07725932 -0.07732653 -0.07739244 -0.07745887
 -0.07752895 -0.0776023 -0.07768081 -0.07776024 -0.07783777 -0.07790996 -0.07797302 -0.07802942 -0.07807845 -0.07812607
 -0.07817385 -0.07822504 -0.07828083 -0.0783397 -0.07840163 -0.07846485 -0.07852925 -0.07859548 -0.07866354 -0.07873353
 -0.07880501 -0.07887463 -0.07894225 -0.07900492 -0.07906415 -0.07912227 -0.07918067 -0.07924365 -0.07930973 -0.07937939
 -0.07944939 -0.07951672 -0.07958079 -0.0796396 -0.07969639 -0.07975157 -0.07980944 -0.07987124 -0.07993963 -0.08001565
 -0.08009811 -0.08018748 -0.08027681 -0.08036576 -0.08044448 -0.08051281 -0.08056743 -0.08060965 -0.08064651 -0.08067966
 -0.0807199 -0.08076654 -0.08082396 -0.08088919 -0.08095904 -0.081031 -0.0811004 -0.08116687 -0.08122828 -0.08128583
 -0.08133934 -0.08139105 -0.08144157 -0.08149351 -0.08154775 -0.08160559 -0.08166767 -0.08173247 -0.08179998 -0.08186782
 -0.08193579 -0.08200413 -0.08207291 -0.08214377 -0.08221648 -0.08229033 -0.08236454 -0.08243558 -0.08250285 -0.08256268
 -0.08261581 -0.08266145 -0.08270168 -0.08273855 -0.08277432 -0.08281197 -0.08285162 -0.08289466 -0.08293863 -0.08298262
 -0.08302575 -0.08306681 -0.08310977 -0.08315498 -0.08320699 -0.08326688 -0.08333099 -0.08339927 -0.08346109 -0.08351607
 -0.08355749 -0.0835864 -0.08360683 -0.08362048 -0.08363668 -0.08365553 -0.08368242 -0.08371569 -0.08375467 -0.0837983
 -0.08384464 -0.08389407 -0.08394666 -0.08400169 -0.08405983 -0.08411654 -0.08417072 -0.08421646 -0.08425128 -0.08427481
 -0.08428554 -0.0842914 -0.08429275 -0.0842999 -0.08431362 -0.08433819 -0.08437347 -0.08441599 -0.08446508 -0.08451404
 -0.08456279 -0.08460718 -0.08464813 -0.08468565 -0.08472122 -0.08475752 -0.08479555 -0.08483794 -0.08488423 -0.08493555
 -0.08498918 -0.08504444 -0.08509673 -0.08514404 -0.08518314 -0.08521196 -0.08523317 -0.08524623 -0.08525869 -0.08527141
 -0.08528923 -0.08531264 -0.0853398 -0.08537053 -0.0854011 -0.08543188 -0.08546366 -0.08549724 -0.08553655 -0.08558153
 -0.08563443 -0.08569361 -0.08575787 -0.0858235 -0.08588603 -0.0859404 -0.08597974 -0.08600392 -0.08600838 -0.08600355
 -0.08599147 -0.08598546 -0.08599088 -0.08600979 -0.08604514 -0.08608479 -0.08612818 -0.08616022 -0.0861797 -0.08618177
 -0.08616672 -0.08614247 -0.08611017 -0.08608219 -0.08605873 -0.08604755 -0.08604746 -0.08605914 -0.08608148 -0.08611257
 -0.08615226 -0.0862002 -0.0862545 -0.08631498 -0.08637498 -0.08643126 -0.08647581 -0.0865034 -0.08651405 -0.08650476
 -0.08648719 -0.08646248 -0.08644347 -0.08643237 -0.08643106 -0.08644006 -0.08645067 -0.08646265 -0.08647169 -0.08647899
 -0.08649213 -0.08651197 -0.08654782 -0.0865961 -0.08665337 -0.08671205 -0.08675551 -0.08678069 -0.08677352 -0.08674348
 -0.08669265 -0.08663458 -0.08657935 -0.08653182 -0.08649792 -0.08647274 -0.08645628 -0.08644252 -0.08642969 -0.08641798
 -0.08640686 -0.08640081 -0.08640009 -0.08640859 -0.0864264 -0.08645505 -0.08649386 -0.08653893 -0.08658784 -0.08662795
 -0.08665722 -0.08666174 -0.08664521 -0.08660694 -0.08655417 -0.08649638 -0.08643816 -0.08638669 -0.08634511 -0.08631749
 -0.08630487 -0.08631068 -0.08632639 -0.08635236 -0.0863708 -0.08637837 -0.08636253 -0.08632026 -0.0862558 -0.08616894
 -0.08607368 -0.0859707 -0.08587168 -0.08577669 -0.08569137 -0.08561562 -0.08555198 -0.08550072 -0.08546446 -0.0854422
 -0.08543515 -0.08543728 -0.08544231 -0.08544161 -0.08542339 -0.08538751 -0.08532756 -0.08525579 -0.08517569 -0.08509799
 -0.08502796 -0.08496498 -0.08491077 -0.08485701 -0.08480295 -0.08474173 -0.0846726 -0.08459719 -0.08451567 -0.08443391
 -0.0843507 -0.08425942 -0.08415657 -0.08402039 -0.0838535 -0.08364889 -0.08341849 -0.08318362 -0.08294983 -0.08273649
 -0.08253601 -0.08234838 -0.08216513 -0.08197842 -0.08179129 -0.08160166 -0.08141958 -0.08124842 -0.08109165 -0.08095259
 -0.08081927 -0.08069254 -0.08054262 -0.08036729 -0.08014518 -0.07987651 -0.07958327 -0.07926831 -0.07896743 -0.07867806
 -0.07840783 -0.07815123 -0.07789562 -0.07763875 -0.07736979 -0.07708975 -0.07679473 -0.07648876 -0.07617315 -0.07585492
 -0.0755406 -0.07522921 -0.0749264 -0.07461117 -0.07427971 -0.0739089 -0.07349031 -0.07303088 -0.07252925 -0.07200596
 -0.0714628 -0.07090438 -0.07033116 -0.06975061 -0.06916442 -0.06859358 -0.06803462 -0.06748743 -0.06693708 -0.0663392
 -0.0656831 -0.06491622 -0.06406219 -0.06312607 -0.06214757 -0.06117412 -0.06020819 -0.05926966 -0.05833776 -0.05740459
 -0.05646693 -0.05551961 -0.05457643 -0.05364395 -0.05270483 -0.05176485 -0.0507359 -0.04961173 -0.04831848 -0.04685693
 -0.04532713 -0.04373979 -0.04224215 -0.04082034 -0.03948472 -0.03821628 -0.03696109 -0.03571574 -0.03444926 -0.03316083
 -0.03184415 -0.0304772 -0.02904709 -0.02750312 -0.02580853 -0.02392673 -0.02181017 -0.01953109 -0.01708166 -0.01462519
 -0.01219651 -0.009890974 -0.007731329 -0.005713355 -0.003840508 -0.00206075 -0.0003697622 0.001339977 0.003081202 0.005028941
 0.007170587 0.009569075 0.01214017 0.01464402 0.01705406 0.01917096 0.02108263 0.02283461 0.02449405 0.02615467
 0.02781987 0.02952006 0.03124393 0.03298957 0.03476253 0.03657219 0.03838289 0.04019384 0.04194317 0.04361734
 0.04522706 0.04677128 0.04828687 0.04977366 0.05117958 0.05249831 0.05364216 0.05462024 0.05542754 0.05608552
 0.05665977 0.05715858 0.05763709 0.05807718 0.0584713 0.05881614 0.05909497 0.05934182 0.05957615 0.05981921
 0.06009508 0.06037602 0.06066179 0.06091009 0.06110813 0.06125128 0.06133288 0.06139525 0.06144017 0.06152602
 0.0616547 0.06182618 0.06203521 0.06222783 0.06240395 0.06253377 0.06262459 0.06268161 0.06271562 0.06275117
 0.06279626 0.06287558 0.06298484 0.06312586 0.06330235 0.0635068 0.06377972 0.06413557 0.06461513 0.06524593
 0.06599576 0.0668681 0.06779616 0.0687675 0.06977205 0.07080673 0.07189619 0.07304119 0.07424336 0.0755011
 0.07679806 0.07813434 0.07950317 0.0809039 0.08233196 0.08378424 0.08525016 0.08673224 0.08822788 0.0897453
 0.09129228 0.09287382 0.09449646 0.09615996 0.09786639 0.09961241 0.1013981 0.1032178 0.1050721 0.1069474
 0.1088449 0.1107278 0.112594 0.1144 0.1161442 0.1178367 0.1194832 0.1211533 0.1228389 0.1245453
 0.1262361 0.1277893 0.1291967 0.1303729 0.1313472 0.1321349 0.1327391 0.133173 0.1334219 0.1334768
 0.133336 0.1330124 0.1324434 0.1316385 0.1304143 0.1287155 0.126506 0.123725 0.1208221 0.1178345
 0.1150249 0.1124021 0.109756 0.1070777 0.1041984 0.1011383 0.09791927 0.09455966 0.09114911 0.08764888
 0.08404128 0.08022729 0.07600417 0.07143772 0.06640664 0.06135282 0.05659637 0.05231151 0.04876186 0.04561264
 0.04280187 0.04007936 0.03735266 0.03463314 0.03190374 0.02926057 0.02671432 0.02426383 0.02190857 0.01957163
 0.01725254 0.0149158 0.0125741 0.01027641 0.008034775 0.005919749 0.003922408 0.002060857 0.000314011 -0.00134224
 -0.002924142 -0.004452365 -0.005953068 -0.007437786 -0.008970756 -0.01058502 -0.01233177 -0.01427544 -0.0162514 -0.01825664
 -0.02001281 -0.02145179 -0.02263064 -0.02353963 -0.02440105 -0.02522534 -0.0261178 -0.02707155 -0.02804231 -0.0290193
 -0.02991473 -0.03074032 -0.03149052 -0.03217849 -0.03284172 -0.03345906 -0.0340191 -0.03448761 -0.0348132 -0.03500691
 -0.03505217 -0.03499402 -0.0348528 -0.03465348 -0.03441298 -0.03412513 -0.03379636 -0.03339089 -0.03291113 -0.03227201
 -0.03146734 -0.03040736 -0.02908836 -0.02759034 -0.0259293 -0.0243263 -0.02277875 -0.02138794 -0.02013175 -0.0189828
 -0.01793793 -0.01697645 -0.01610377 -0.01533221 -0.0146299 -0.01398209 -0.01331571 -0.01256206 -0.01170682 -0.01069576
 -0.009648452 -0.008597712 -0.007621082 -0.006757284 -0.005958894 -0.005227249 -0.00449179 -0.003745032 -0.002957351 -0.002127124
 -0.001278256 -0.0004129499 0.0004318325 0.001261016 0.002078659 0.00290078 0.00378328 0.004739769 0.005835502 0.007058083
 0.008418649 0.009896548 0.01146466 0.01313567 0.01490941 0.0168025 0.01883513 0.020972 0.02321287 0.02549233
 0.02778929 0.03009254 0.03238939 0.034749 0.03717709 0.0397256 0.04239704 0.04508369 0.04777197 0.05025719
 0.05253986 0.05451953 0.05620739 0.05759859 0.05868033 0.05942629 0.05980793 0.05976241 0.05928767 0.0583457
 0.05697967 0.05520259 0.05307581 0.05063376 0.04791857 0.04495091 0.04175817 0.0383374 0.03477637 0.03107376
 0.02741228 0.02380897 0.02039493 0.01717789 0.01411953 0.01121329 0.008357837 0.005560176 0.002805862 0.0001170598
 -0.002429671 -0.004833126 -0.007043573 -0.009091888 -0.01100437 -0.01281154 -0.01456138 -0.0162604 -0.01793323 -0.01956338
 -0.02115095 -0.02267174 -0.02411558 -0.025473 -0.02673618 -0.02792276 -0.02903221 -0.03009699 -0.03112059 -0.03212019
 -0.03309693 -0.03402781 -0.03490959 -0.03569146 -0.03637365 -0.03692861 -0.03736557 -0.03770241 -0.03794796 -0.03813311
 -0.03825881 -0.03834039 -0.0383755 -0.03836534 -0.03831342 -0.03821849 -0.038098 -0.03795557 -0.03782401 -0.03771327
 -0.03765771 -0.03766852 -0.03776107 -0.03794207 -0.03819764 -0.03852855 -0.03890204 -0.03931631 -0.03974441 -0.04018603
 -0.04063261 -0.04108364 -0.04153318 -0.04197701 -0.04239709 -0.04278892 -0.04313119 -0.04342583 -0.04366492 -0.04385628
 -0.04400549 -0.04411976 -0.04420673 -0.04427008 -0.0443137 -0.04433928 -0.04434785 -0.04434189 -0.04432115 -0.0442928
 -0.04425697 -0.04422654 -0.04420254 -0.04419722 -0.04421134 -0.04425066 -0.04431513 -0.04440556 -0.04452123 -0.04465892
 -0.04481655 -0.04498493 -0.0451623 -0.04533879 -0.04551646 -0.04569362 -0.04587463 -0.04606459 -0.04626434 -0.04647706
 -0.04669985 -0.04693225 -0.04717084 -0.04741495 -0.04765913 -0.04790266 -0.04813743 -0.04836171 -0.04857231 -0.04876808
 -0.04895663 -0.0491383 -0.04932404 -0.04951379 -0.04970932 -0.04990876 -0.05010188 -0.05028585 -0.05044489 -0.05057736
 -0.05067078 -0.05072658 -0.05074064 -0.05071758 -0.05066037 -0.05057527 -0.0504677 -0.05034373 -0.05020779 -0.05006454
 -0.04991639 -0.04976714 -0.04961791 -0.04947232 -0.04933108 -0.04919678 -0.04906981 -0.04895065 -0.04883935 -0.04873538
 -0.04863869 -0.04854849 -0.04846467 -0.04838624 -0.04831315 -0.04824432 -0.04818061 -0.04812317 -0.04807395 -0.04803644
 -0.04801315 -0.04800809 -0.04802381 -0.04806394 -0.04812887 -0.04822119 -0.04833519 -0.04847088 -0.04861673 -0.04877025
 -0.04892084 -0.04906614 -0.04920131 -0.04932539 -0.04943847 -0.04954044 -0.04963475 -0.04972164 -0.04980534 -0.04988551
 -0.0499621 -0.05003406 -0.05009672 -0.05015069 -0.0501942 -0.05023045 -0.05026415 -0.0502978 -0.05033689 -0.05038079
 -0.05043118 -0.05048567 -0.05054391 -0.05060191 -0.05065872 -0.05070877 -0.05075008 -0.0507809 -0.05079951 -0.05081368
 -0.05082349 -0.05084213 -0.05087044 -0.05091484 -0.05097494 -0.05104531 -0.05112462 -0.05120139 -0.051275 -0.05133734
 -0.05138785 -0.05142243 -0.05143752 -0.05142612 -0.05138251 -0.05129604 -0.05116612 -0.05098624 -0.05076579 -0.05050773
 -0.05022186 -0.04991468 -0.0495834 -0.04923051 -0.04884136 -0.04841383 -0.04793676 -0.04740766 -0.04683259 -0.04621153
 -0.04556542 -0.04489536 -0.04422178 -0.04354382 -0.04286601 -0.04218554 -0.04149345 -0.04078844 -0.04006213 -0.03931591
 -0.03854877 -0.0377615 -0.03695508 -0.03612877 -0.03528104 -0.03441544 -0.03353103 -0.03264019 -0.03174556 -0.0308647
 -0.0300029 -0.02917103 -0.02837334 -0.02760462 -0.02686598 -0.02613745 -0.02541798 -0.02468574 -0.02394021 -0.02317137
 -0.02238063 -0.02157279 -0.02074921 -0.01991898 -0.01907967 -0.01823077 -0.01736654 -0.01647546 -0.01555636 -0.01460024
 -0.01361656 -0.01260829 -0.01159012 -0.01057126 -0.009562024 -0.008569092 -0.007595823 -0.006645219 -0.005713733 -0.00480217
 -0.00389984 -0.003005353 -0.002113819 -0.001224452 -0.0003531549 0.000498847 0.001306775 0.002072092 0.002791478 0.003471439
 0.004136169 0.004791465 0.00546581 0.006159029 0.006885118 0.007638345 0.008417932 0.009216183 0.01002584 0.01084284
 0.01166237 0.01248419 0.01330811 0.01413031 0.01495052 0.01576165 0.01656152 0.01735152 0.01813098 0.01890895
 0.01968611 0.02046422 0.02124285 0.02201306 0.02277415 0.02351712 0.02424187 0.02494393 0.02562201 0.02627173
 0.02688854 0.0274646 0.02798971 0.02844964 0.02883184 0.02911883 0.02930899 0.02939224 0.02938581 0.02929188
 0.0291349 0.02892152 0.02867014 0.02838436 0.02807979 0.02775783 0.02743698 0.02711846 0.02681891 0.0265389
 0.02628815 0.02606617 0.02587473 0.02571213 0.02557238 0.02545426 0.02535068 0.02526326 0.02519259 0.02513795
 0.02510232 0.02507369 0.02504542 0.02499873 0.02491978 0.02479902 0.02462767 0.02440903 0.02414323 0.02383024
 0.02347261 0.02305253 0.0225694 0.02199608 0.02133031 0.02056601 0.01970482 0.01878444 0.01781029 0.01684252
 0.01588133 0.01496197 0.01407607 0.01321855 0.01238234 0.01155013 0.01072314 0.009896099 0.00907121 0.008251163
 0.007429647 0.006606768 0.005765947 0.00490283 0.003995129 0.003036135 0.002009007 0.0009078016 -0.0002653076 -0.001512353
 -0.002812252 -0.004163925 -0.005543509 -0.006950105 -0.008369776 -0.009802639 -0.01124393 -0.01269268 -0.01414374 -0.01559247
 -0.01702476 -0.01843368 -0.01979889 -0.02111812 -0.02237793 -0.02358519 -0.02474031 -0.02585348 -0.02693115 -0.02798004
 -0.02900393 -0.0300087 -0.03099599 -0.03197319 -0.03294239 -0.03390552 -0.03486399 -0.03580833 -0.03673826 -0.03763705
 -0.0385039 -0.03932406 -0.04009761 -0.04081798 -0.04148646 -0.04210493 -0.04267503 -0.04320197 -0.04368731 -0.04413567
 -0.04454999 -0.04493531 -0.04529566 -0.04563653 -0.04596008 -0.04626907 -0.04656481 -0.04684774 -0.04712148 -0.04738729
 -0.04764698 -0.04790222 -0.04814626 -0.04837898 -0.04858956 -0.04877714 -0.04893628 -0.04906691 -0.04916985 -0.04924555
 -0.04929748 -0.04932667 -0.04933937 -0.04933676 -0.049326 -0.04930639 -0.04928052 -0.04924575 -0.0491995 -0.04914001
 -0.04906406 -0.04897295 -0.04886555 -0.04874695 -0.0486181 -0.04848689 -0.04835589 -0.04823017 -0.04811228 -0.04799733
 -0.04788587 -0.04776451 -0.04763224 -0.04748069 -0.04731001 -0.04712883 -0.04693955 -0.0467657 -0.04660939 -0.04649368
 -0.04641669 -0.04638667 -0.04639681 -0.04643961 -0.04650445 -0.04657588 -0.04664065 -0.04668205 -0.04668858 -0.04664649
 -0.04655566 -0.0464095 -0.0462239 -0.04600059 -0.04576067 -0.04550933 -0.04525577 -0.0450032 -0.04474147 -0.04447043
 -0.04417153 -0.04384414 -0.04348052 -0.04308222 -0.0426593 -0.0422137 -0.04175998 -0.04129783 -0.04083301 -0.04036616
 -0.03989915 -0.039438 -0.03899099 -0.0385648 -0.03817046 -0.03780607 -0.03747626 -0.03716853 -0.03687997 -0.03659482
 -0.03630741 -0.03600906 -0.03569537 -0.03537326 -0.03504177 -0.03472017 -0.03440973 -0.03412716 -0.03387304 -0.0336525
 -0.03346489 -0.03330766 -0.03317906 -0.03307111 -0.03297979 -0.03288973 -0.03279678 -0.03268457 -0.03255331 -0.03239578
 -0.03221563 -0.03201351 -0.03179361 -0.03155745 -0.03131298 -0.03106225 -0.03081829 -0.03058519 -0.03037322 -0.03018652
 -0.03002203 -0.02988113 -0.02974781 -0.02962124 -0.02948236 -0.02933031 -0.02915302 -0.0289511 -0.02872428 -0.02847482
 -0.02821286 -0.02794075 -0.02767183 -0.02740465 -0.02714452 -0.02688426 -0.02661574 -0.0263341 -0.02602747 -0.0257072
 -0.02537309 -0.02505001 -0.02475067 -0.02448642 -0.02426882 -0.02407559 -0.02390756 -0.02372345 -0.02351762 -0.02326435
 -0.02295999 -0.02261596 -0.02223341 -0.02185009 -0.02146735 -0.02111473 -0.02078837 -0.02048577 -0.02020127 -0.01991459
 -0.01962692 -0.01932973 -0.01902931 -0.01873203 -0.01843995 -0.01815878 -0.01788457 -0.01761653 -0.01735063 -0.01708473
 -0.01681652 -0.01654497 -0.01626822 -0.01598563 -0.01569659 -0.01540073 -0.01509974 -0.01479348 -0.014488 -0.01418369
 -0.01389045 -0.0136082 -0.0133408 -0.01308638 -0.01283721 -0.01259274 -0.01234632 -0.0121006 -0.01185935 -0.01162118
 -0.01138787 -0.01115133 -0.01090276 -0.01064054 -0.01035782 -0.01006582 -0.009768076 -0.009473524 -0.009187529 -0.008906185
 -0.008629272 -0.008354113 -0.008078634 -0.00781698 -0.007569595 -0.007359338 -0.007187054 -0.007059174 -0.006972482 -0.006899387
 -0.006833876 -0.006729304 -0.006586942 -0.006382008 -0.006128977 -0.005844742 -0.005545508 -0.005264842 -0.005004179 -0.004780876
 -0.0045803 -0.004398781 -0.004219685 -0.00403191 -0.003834254 -0.003620263 -0.003410088 -0.003206116 -0.003029663 -0.002886229
 -0.002768841 -0.00267861 -0.002583015 -0.002480535 -0.002347793 -0.002185882 -0.001997236 -0.001784009 -0.001558561 -0.001321036
 -0.001078803 -0.0008297651 -0.0005736272 -0.0003068826 -2.347077E-05 0.0002767356 0.0005985498 0.0009333811 0.001277928 0.00162118
 0.001956083 0.002279673 0.00258842 0.002887084 0.003175379 0.003461702 0.003746653 0.004040863 0.004345216 0.004667913
 0.005009366 0.005373665 0.005761156 0.006177953 0.00662296 0.007096678 0.007592008 0.008088789 0.008575973 0.009019636
 0.009414305 0.009735356 0.009987425 0.01016347 0.01027815 0.01033603 0.01036112 0.01036478 0.0103683 0.01038256
 0.01041209 0.01046003 0.01052483 0.01060605 0.0107084 0.01083281 0.01097234 0.01112645 0.01127249 0.01141144
 0.01154385 0.01167533 0.01183839 0.01203203 0.01227272 0.0125502 0.01284896 0.0131637 0.01347912 0.01379527
 0.01410662 0.01441435 0.01471178 0.01502092 0.01534417 0.01572543 0.01618973 0.01671952 0.01732744 0.01791669
 0.01846977 0.01896502 0.01939615 0.01980937 0.02020662 0.02061067 0.02101945 0.02141901 0.02180413 0.02214256
 0.02242644 0.02261263 0.02269781 0.02264637 0.02247782 0.02219899 0.02184895 0.02147123 0.02109389 0.02075394
 0.02045379 0.02020608 0.01999827 0.01982901 0.0196862 0.01956487 0.01946932 0.01939834 0.01936811 0.01938126
 0.01942766 0.01950647 0.01956732 0.01960759 0.01957982 0.01948717 0.01932089 0.01908843 0.01880743 0.01848833
 0.01815944 0.01783602 0.01755528 0.01732215 0.01716153 0.01705483 0.01699695 0.01696917 0.01695874 0.01696224
 0.01697601 0.01699868 0.01702685 0.0170745 0.01714011 0.01726258 0.01744615 0.0177042 0.01803729 0.01841051
 0.01882263 0.01924865 0.01969044 0.02014947 0.02062082 0.02108824 0.02154687 0.02197227 0.02237658 0.02276788
 0.02315795 0.02356895 0.02398774 0.02441395 0.02482691 0.02521271 0.02557077 0.02589584 0.02620025 0.02648579
 0.02676288 0.02703348 0.02730324 0.02757359 0.02783584 0.02808951 0.02831362 0.02850802 0.02866439 0.02878467
 0.02887617 0.02893952 0.028979 0.02899777 0.02900306 0.02900277 0.02901649 0.02903809 0.02907444 0.02909933
 0.02909226 0.02904451 0.02893761 0.02880363 0.02864729 0.02850638 0.02839438 0.02831362 0.02826997 0.02823017
 0.02819256 0.02811716 0.02800179 0.02783613 0.02762266 0.02739033 0.02714175 0.02690859 0.02668659 0.02647796
 0.02627675 0.02606987 0.02585484 0.02562267 0.02537085 0.02509123 0.02478893 0.02446155 0.02412674 0.02379531
 0.02347085 0.02316174 0.02284542 0.0225161 0.02216712 0.02179315 0.02142189 0.02105631 0.02070546 0.02036992
 0.02001233 0.01963134 0.01919697 0.01871514 0.01820403 0.01767304 0.01716454 0.01668398 0.01626671 0.01590923
 0.01562546 0.01539896 0.01521792 0.01506517 0.01492108 0.01478445 0.01464947 0.01451884 0.01439565 0.01426677
 0.0141292 0.01397457 0.01379737 0.01362408 0.01345577 0.01332822 0.01324351</values></Ydata></AB><ScSm><Ydata ylabel="Single channel"><values byteorder="INTEL" format="FLOAT32" numvalues="1814"> 0.07070547 0.07068881 0.07073767 0.07088565 0.07110469 0.07132365 0.07148021 0.07155828 0.07157201 0.07152919
 0.07144298 0.07137485 0.0714152 0.07159501 0.07183769 0.07201362 0.07204373 0.07196835 0.07192071 0.07199682
 0.07212362 0.07208432 0.07172064 0.07111542 0.07053986 0.07020551 0.07013334 0.07031317 0.07083628 0.07164165
 0.07223172 0.07202765 0.07109582 0.0701831 0.06989011 0.0700952 0.07029937 0.07020557 0.06981408 0.0693064
 0.06909219 0.06970204 0.07126727 0.073084 0.07386345 0.07254883 0.06907323 0.06459367 0.06105792 0.06015962
 0.06214792 0.06549011 0.06802122 0.06867099 0.0679765 0.06698332 0.06611714 0.06532227 0.06479922 0.06504776
 0.06617988 0.06745175 0.06765147 0.06614268 0.06362279 0.06162129 0.06109993 0.06185142 0.06332645 0.06522951
 0.06669408 0.06580885 0.06150201 0.0559236 0.05348196 0.05665116 0.0633308 0.06889756 0.07031518 0.06784131
 0.06368776 0.06018652 0.0589036 0.06022407 0.06329316 0.06671964 0.06941207 0.07063158 0.06980916 0.06703931
 0.06356656 0.06118764 0.0611485 0.06364985 0.06780501 0.07172827 0.07339247 0.07212069 0.06903351 0.06586489
 0.06382126 0.06358576 0.06549058 0.06917739 0.07356799 0.077485 0.08013378 0.08119409 0.0808915 0.07984911
 0.0786102 0.07755072 0.07720983 0.07795589 0.07911365 0.07922214 0.07762365 0.07534041 0.0740217 0.07423877
 0.07503023 0.07507288 0.07402189 0.07230353 0.06981218 0.06586776 0.06078321 0.05630036 0.0538516 0.05345944
 0.05475995 0.05756856 0.06068188 0.06181249 0.06009699 0.05768998 0.0576353 0.0606174 0.06460665 0.06732389
 0.06835133 0.06896809 0.07051318 0.07301922 0.07504845 0.07477961 0.07180837 0.06815119 0.06681542 0.06885038
 0.07234449 0.07478044 0.07568939 0.07637417 0.07762647 0.07849673 0.07728581 0.07356752 0.06927046 0.06748367
 0.06976396 0.07457438 0.07840212 0.07836099 0.0741316 0.06802148 0.06316574 0.06136199 0.06259315 0.0662244
 0.07170154 0.07792187 0.08294147 0.08506413 0.08408123 0.08117628 0.07757441 0.07341352 0.06838156 0.06357995
 0.06175604 0.06470868 0.07099222 0.07712057 0.08067504 0.08151235 0.08042349 0.07765691 0.07312687 0.06781416
 0.0642284 0.06446847 0.06769601 0.07060394 0.0708739 0.06929033 0.068049 0.06802298 0.06843035 0.06850295
 0.06857722 0.06950419 0.07142295 0.07342549 0.07443707 0.07420193 0.07332543 0.0725668 0.07215182 0.07161602
 0.0704539 0.06911682 0.06896546 0.07078253 0.07369856 0.07608668 0.07719763 0.0774343 0.077268 0.07641308
 0.07425055 0.07100266 0.06820758 0.06758039 0.06935704 0.072148 0.07438244 0.07543463 0.07547812 0.07492402
 0.07414171 0.07333384 0.07259518 0.07217346 0.07240916 0.07325029 0.07413999 0.07457571 0.07452317 0.07416961
 0.07356402 0.07267989 0.07166822 0.07087332 0.07058681 0.07082571 0.07136718 0.07195237 0.07238097 0.07247381
 0.07213615 0.0714949 0.0708227 0.07028887 0.06989958 0.06966725 0.06967042 0.06990527 0.07020856 0.07039411
 0.07040054 0.07027088 0.07004994 0.06975034 0.06939225 0.06904058 0.06879556 0.06872631 0.06879298 0.06887043
 0.06888863 0.06890114 0.06895828 0.0689774 0.06883028 0.06852296 0.06820173 0.06799577 0.06791598 0.06789219
 0.06784455 0.06770283 0.06740694 0.06695856 0.06648726 0.06620261 0.06622909 0.06651491 0.06691423 0.06729549
 0.06755897 0.06764728 0.06759021 0.06747621 0.06734695 0.06716645 0.06690811 0.06663304 0.06646845 0.06651098
 0.06673828 0.06701972 0.06722683 0.06731717 0.06731658 0.06727746 0.06726469 0.06731246 0.06737107 0.06735134
 0.06723781 0.06711499 0.0670734 0.06711815 0.0671732 0.0671649 0.06710319 0.06707144 0.06712917 0.06724919
 0.06736503 0.06745002 0.06752688 0.06761548 0.06768858 0.06768583 0.06758289 0.06743918 0.06734663 0.0673353
 0.06736686 0.06741325 0.06749229 0.06761643 0.06774785 0.06782913 0.06784515 0.06783683 0.06784839 0.06787133
 0.06785771 0.06778623 0.0676925 0.06762984 0.06761944 0.06764422 0.06767452 0.06769007 0.06768461 0.06765831
 0.06761162 0.06754659 0.06746806 0.06738394 0.06731409 0.06729268 0.06733807 0.06741417 0.06744445 0.06738063
 0.06724975 0.06712317 0.06704387 0.06699339 0.06692812 0.06683363 0.06673317 0.06665325 0.06659847 0.06655791
 0.06651854 0.06647006 0.06641619 0.06638919 0.06643382 0.06655668 0.06669981 0.06678577 0.06678977 0.06675442
 0.06673727 0.06675985 0.06680612 0.06685489 0.066909 0.06699349 0.06711795 0.06724684 0.06733178 0.06737345
 0.06742302 0.06752146 0.06766722 0.06784059 0.06802014 0.06817269 0.0682705 0.06833182 0.06841287 0.06854613
 0.06870978 0.06886751 0.06901444 0.06917013 0.06934482 0.0695333 0.06973632 0.06996985 0.07024682 0.07055493
 0.07085536 0.07110734 0.07130426 0.07148874 0.07172295 0.07203562 0.07239926 0.07275829 0.07307558 0.07335446
 0.07362249 0.07389766 0.07417588 0.07445647 0.07476518 0.07512973 0.07553829 0.0759465 0.07632609 0.07668626
 0.07704814 0.07741914 0.07779622 0.07817855 0.07857055 0.07897499 0.07938275 0.07977125 0.08012222 0.08044198
 0.0807582 0.08109841 0.08147332 0.0818679 0.08223948 0.08254372 0.0827844 0.08302505 0.08332556 0.08367454
 0.08401106 0.08430842 0.08460389 0.08493927 0.08530371 0.08565527 0.0859796 0.08630353 0.08665521 0.08702521
 0.08736869 0.08764328 0.08784828 0.08802706 0.08822862 0.08847415 0.08876724 0.08911541 0.08951542 0.08992757
 0.09029484 0.09058855 0.09081945 0.09101589 0.09121136 0.09143757 0.09170306 0.09198527 0.09225592 0.09249945
 0.09270232 0.09285773 0.09299655 0.09317928 0.09343496 0.09373599 0.09405108 0.09438984 0.09476842 0.09516251
 0.0955354 0.09589784 0.09629532 0.09673149 0.09714192 0.09746039 0.09768235 0.09784628 0.0979865 0.09813578
 0.09834693 0.09866419 0.09907367 0.09951193 0.09992582 0.1003053 0.1006616 0.1009966 0.1013 0.1015623
 0.101783 0.1019704 0.1021405 0.1023185 0.1025334 0.1027983 0.1030901 0.1033608 0.1035732 0.103716
 0.1037839 0.1037681 0.1036848 0.10359 0.1035332 0.1034948 0.1033929 0.1031559 0.1027675 0.1022472
 0.1016127 0.1008813 0.1000941 0.09932441 0.09865834 0.09816682 0.09789374 0.09786603 0.09810226 0.09859201
 0.09926625 0.1000055 0.1006864 0.1012114 0.1015002 0.101488 0.1011609 0.1005802 0.09985413 0.09908494
 0.09834488 0.09767561 0.09709293 0.09660672 0.0962612 0.09615421 0.09640419 0.09709351 0.09823303 0.09975418
 0.1015169 0.1033387 0.1050525 0.106564 0.1078685 0.1090142 0.1100516 0.111016 0.1119328 0.1128136
 0.1136459 0.1144072 0.1150934 0.1157194 0.1162946 0.1168099 0.1172476 0.1175898 0.1178306 0.1179913
 0.1181137 0.1182273 0.1183369 0.1184458 0.1185685 0.1187046 0.1188156 0.1188425 0.118743 0.1185131
 0.1182016 0.1179268 0.1178725 0.1182339 0.1191265 0.1205164 0.1222316 0.1240473 0.1257744 0.1272938
 0.1285499 0.1295451 0.130334 0.1309955 0.1315936 0.1321598 0.1327026 0.1332238 0.1337257 0.1342101
 0.1346779 0.1351327 0.1355846 0.1360425 0.1365005 0.1369397 0.1373511 0.1377518 0.138173 0.1386305
 0.1391098 0.1395787 0.1400197 0.1404448 0.1408719 0.1412942 0.1416883 0.1420489 0.1424004 0.1427727
 0.1431795 0.1436145 0.1440547 0.1444677 0.1448313 0.1451502 0.1454501 0.1457575 0.1460848 0.1464301
 0.1467837 0.1471359 0.1474824 0.1478282 0.1481851 0.148559 0.1489336 0.149276 0.1495666 0.1498222
 0.1500818 0.1503694 0.1506765 0.1509809 0.1512775 0.1515883 0.1519394 0.1523288 0.1527193 0.1530671
 0.1533589 0.1536202 0.153889 0.1541853 0.1545051 0.1548338 0.1551584 0.1554716 0.1557769 0.1560882
 0.1564167 0.1567602 0.1571071 0.1574494 0.1577851 0.1581133 0.1584307 0.1587351 0.1590324 0.1593402
 0.1596779 0.1600466 0.1604207 0.1607663 0.1610681 0.1613377 0.1615998 0.1618729 0.1621613 0.1624575
 0.1627526 0.1630462 0.1633456 0.1636582 0.1639838 0.1643156 0.1646436 0.1649605 0.1652655 0.1655662
 0.1658736 0.1661939 0.1665219 0.1668458 0.1671576 0.1674594 0.167758 0.1680592 0.1683641 0.1686696
 0.1689692 0.1692593 0.169545 0.1698361 0.170136 0.1704377 0.1707313 0.1710161 0.1713013 0.1715958
 0.1718977 0.172197 0.172489 0.1727805 0.1730796 0.1733853 0.1736886 0.1739807 0.1742589 0.1745308
 0.1748099 0.1751047 0.1754111 0.1757192 0.1760244 0.1763292 0.1766358 0.1769401 0.1772329 0.1775103
 0.1777804 0.1780573 0.1783482 0.1786484 0.1789473 0.1792359 0.1795126 0.1797842 0.1800592 0.1803422
 0.1806358 0.1809411 0.1812532 0.1815615 0.1818596 0.1821497 0.1824393 0.1827354 0.1830401 0.1833492
 0.1836575 0.1839645 0.1842709 0.1845724 0.1848644 0.1851476 0.1854255 0.1857014 0.1859773 0.1862504
 0.1865142 0.1867684 0.187022 0.187284 0.1875594 0.1878522 0.1881613 0.1884747 0.1887808 0.1890771
 0.1893657 0.189649 0.1899343 0.1902286 0.1905298 0.1908311 0.1911296 0.1914258 0.1917222 0.1920239
 0.1923303 0.192634 0.1929318 0.1932294 0.1935305 0.1938325 0.1941344 0.1944366 0.1947382 0.1950401
 0.1953444 0.1956492 0.195953 0.1962592 0.1965658 0.1968624 0.1971464 0.1974289 0.1977187 0.1980168
 0.1983216 0.1986274 0.1989278 0.1992266 0.1995303 0.1998313 0.2001197 0.2004019 0.2006895 0.2009858
 0.2012926 0.2016103 0.2019259 0.2022267 0.20252 0.2028178 0.2031188 0.2034176 0.2037092 0.2039748
 0.2041658 0.204151 0.2035964 0.2018445 0.1979104 0.1906901 0.1794083 0.1641174 0.1458478 0.1262367
 0.1069316 0.0891757 0.07369764 0.06081082 0.05057316 0.04288934 0.03757377 0.0344613 0.03352949 0.03502183
 0.03957363 0.04783765 0.05908116 0.06993595 0.07570138 0.07405425 0.06727034 0.06014836 0.05601501 0.05510786
 0.05600328 0.05748248 0.05915702 0.06124894 0.06414592 0.06796608 0.07253318 0.07784371 0.08430022 0.09220603
 0.1011492 0.1101684 0.1185798 0.1265185 0.1346225 0.1432692 0.1521796 0.160695 0.1683053 0.1749093
 0.1807117 0.1859889 0.190932 0.19563 0.2001237 0.2044023 0.208313 0.211525 0.2136862 0.2146894
 0.2147991 0.2145032 0.2142256 0.2141629 0.2143347 0.2147105 0.2152656 0.2159756 0.2168098 0.2177331
 0.2187086 0.2197077 0.2207119 0.2217002 0.2226453 0.2235309 0.2243581 0.2251304 0.2258451 0.2265009
 0.2271027 0.2276588 0.22818 0.2286769 0.2291558 0.22962 0.2300722 0.2305087 0.2309159 0.2312837
 0.2316167 0.2319288 0.2322318 0.2325312 0.2328283 0.2331243 0.2334246 0.2337331 0.2340435 0.2343454
 0.2346392 0.2349358 0.2352403 0.2355469 0.2358481 0.23614 0.2364213 0.2366974 0.236982 0.2372869
 0.2376084 0.2379285 0.2382276 0.238501 0.2387639 0.2390386 0.2393349 0.2396474 0.2399665 0.2402842
 0.2405955 0.2409014 0.2412092 0.2415226 0.2418392 0.2421552 0.2424666 0.2427703 0.2430722 0.2433833
 0.2436984 0.243992 0.2442494 0.2444916 0.24476 0.2450795 0.2454364 0.2457903 0.2461127 0.2464102
 0.2467074 0.2470155 0.2473238 0.2476124 0.2478766 0.2481469 0.2484688 0.2488484 0.2492421 0.2496123
 0.249961 0.2503014 0.2506387 0.2509831 0.2513362 0.2516609 0.2519147 0.2521212 0.2523758 0.2527643
 0.2532774 0.2538111 0.2542617 0.2546136 0.2549255 0.2552593 0.2556443 0.2560543 0.2563743 0.2564769
 0.2564149 0.2564605 0.2568565 0.2575735 0.2583729 0.2590508 0.259564 0.2599757 0.2603496 0.2606859
 0.2609274 0.2610295 0.2610506 0.261173 0.2615762 0.2622551 0.2630062 0.2636323 0.2640947 0.2644488
 0.2647417 0.2650032 0.2651926 0.2651339 0.2647063 0.2641734 0.2641082 0.2648391 0.2660815 0.2672429
 0.2680048 0.2684815 0.2688895 0.2692804 0.2696034 0.2697485 0.2694137 0.2682813 0.2666387 0.2655479
 0.2659698 0.2677964 0.2700297 0.2717794 0.2728253 0.2733919 0.2737573 0.2740684 0.2742332 0.2739299
 0.2729656 0.2717583 0.2712353 0.2719804 0.2735789 0.2750629 0.2759006 0.2762783 0.2765809 0.2769569
 0.2772191 0.2767967 0.2750586 0.2722484 0.2699575 0.2700085 0.2726721 0.2763374 0.2791064 0.2804233
 0.2809275 0.281059 0.2804126 0.2784774 0.2754214 0.272016 0.2693775 0.2688042 0.2709215 0.2746156
 0.2776626 0.2789174 0.2792834 0.2802362 0.2820653 0.2838876 0.2847915 0.2845418 0.2834232 0.2817379
 0.2796613 0.2777006 0.276974 0.2784168 0.2816378 0.28506 0.2873771 0.288541 0.2890686 0.2885109
 0.2851495 0.2780612 0.2696984 0.2652177 0.2679322 0.275845 0.2837918 0.2885233 0.2904911 0.2914203
 0.291991 0.2916498 0.2889449 0.2823305 0.2726129 0.264471 0.2632875 0.2698259 0.2793636 0.286097
 0.2870866 0.2825545 0.274842 0.2677237 0.2648747 0.2676412 0.2744448 0.2823419 0.2887932 0.2923674
 0.2927342 0.2905262 0.2872886 0.2851033 0.2850829 0.2857229 0.2840402 0.2793387 0.2743683 0.2712986
 0.2683843 0.2632135 0.2579843 0.2580479 0.2649345 0.2737842 0.2788011 0.279125 0.2777989 0.2762497
 0.2718767 0.2618131 0.2483518 0.2390627 0.2401731 0.2501117 0.2609064 0.2659798 0.2653801 0.2634756
 0.2631148 0.2627176 0.2585221 0.2494945 0.2398237 0.2354116 0.2376184 0.2420498 0.2437738 0.2412867
 0.2348219 0.2247177 0.2141637 0.2102525 0.2180042 0.2342174 0.2499706 0.257991 0.2553744 0.2419941
 0.2213783 0.202688 0.1962911 0.2045379 0.2189313 0.2279481 0.2262114 0.2154778 0.1996547 0.182062
 0.166904 0.1598256 0.1645327 0.1789738 0.1954603 0.2045709 0.2003778 0.184978 0.1687168 0.1627667
 0.1690815 0.1791213 0.1834278 0.1801845 0.1739208 0.1695926 0.1696725 0.173783 0.1791404 0.1831313
 0.1854057 0.1850919 0.178015 0.1617658 0.1425537 0.1311416 0.1316449 0.1394301 0.1497528 0.1619737
 0.1739323 0.1790764 0.1738447 0.1644114 0.1614197 0.1686907 0.1799597 0.1865375 0.1859065 0.1821614
 0.1796897 0.1785082 0.1764262 0.1740688 0.1750986 0.181121 0.188855 0.1937932 0.1949173 0.1942949
 0.1936049 0.1928802 0.1916928 0.1899015 0.187559 0.1850258 0.1828751 0.1812389 0.1796841 0.177875
 0.1755682 0.1716747 0.1645135 0.1542258 0.1442776 0.1387582 0.1381034 0.1393386 0.1405235 0.1419331
 0.1419263 0.1357237 0.1217373 0.1068124 0.1012597 0.108907 0.1242529 0.1387065 0.1470651 0.1479315
 0.1412785 0.1289769 0.1172364 0.1145963 0.1248656 0.1434355 0.1622631 0.1768198 0.186464 0.1905363
 0.1877702 0.1793752 0.1701765 0.1658592 0.1695666 0.1804965 0.194032 0.2027888 0.2002587 0.1874022
 0.1756341 0.1783507 0.1967427 0.2176423 0.2283076 0.2293481 0.2293718 0.2316105 0.2324014 0.2307601
 0.232109 0.2408698 0.2539453 0.2637556 0.2648727 0.2561451 0.2399544 0.2226958 0.2131067 0.215298
 0.2241264 0.2308095 0.2314412 0.2265293 0.2157992 0.200209 0.1873329 0.1868498 0.1993155 0.2148608
 0.2243954 0.2278729 0.2302036 0.2327905 0.2318652 0.2242337 0.2125781 0.2037789 0.2020845 0.2053857
 0.2087655 0.2096848 0.2080722 0.2034316 0.1951308 0.1854637 0.1796736 0.1814493 0.1891818 0.19754
 0.2023095 0.2030909 0.2019776 0.2009267 0.2004458 0.1997996 0.1983745 0.197435 0.1998668 0.2069696
 0.2161907 0.2236669 0.228629 0.2336191 0.2404796 0.2477345 0.2522993 0.2528025 0.2509131 0.2499443
 0.2522256 0.2572354 0.2619554 0.2634349 0.2616075 0.2596321 0.2609862 0.2661303 0.2724262 0.2771299
 0.2796414 0.2809342 0.2819323 0.2827394 0.2826035 0.2805181 0.2767258 0.2736096 0.2740275 0.2784715
 0.2845653 0.2894655 0.2921162 0.2931247 0.2932582 0.2926188 0.2910697 0.2889627 0.2871581 0.286363
 0.2866415 0.2875901 0.2887752 0.2899167 0.2908671 0.2915979 0.2921606 0.2925993 0.2929431 0.2932622
 0.2936201 0.2939689 0.2942052 0.2943605 0.29463 0.2951463 0.2957988 0.2963489 0.2966464 0.2966302
 0.2961919 0.2952111 0.2937377 0.2919894 0.290116 0.288095 0.2859865 0.2842366 0.2835609 0.2844093
 0.2865452 0.2891855 0.2915403 0.2932146 0.294207 0.294701 0.2949095 0.295009 0.2950986 0.2951851
 0.2952216 0.2951701 0.2950273 0.2948054 0.2945137 0.2941762 0.2938458 0.2935707 0.2933455 0.2931136
 0.2928157 0.2924258 0.2919554 0.2914368 0.2908894 0.290291 0.2895896 0.2887536 0.2878065 0.2868127
 0.2858412 0.2849354 0.2840918 0.2832515 0.282328 0.2812583 0.2800146 0.2785753 0.2769343 0.2751622
 0.2734048 0.2717755 0.2702687 0.2687982 0.2672811 0.2656588 0.2638918 0.261977 0.2599531 0.2578613
 0.2557153 0.2535156 0.251267 0.2489773 0.2466498 0.2442822 0.2418641 0.239383 0.2368433 0.2342696
 0.2316614 0.2289423 0.2259707 0.2226071 0.2187607 0.2143838 0.2094727 0.2040989 0.1984206 0.1926454
 0.1869821 0.1816137 0.1766799 0.1722677 0.1684257 0.165185 0.1625709 0.1606085 0.1593215 0.15872
 0.1587916 0.1595051 0.1608022 0.1625776 0.1646829 0.1669562 0.1692397 0.1713924 0.1733309 0.1750727
 0.1767176 0.1783659 0.1800475 0.1817206 0.1833273 0.1848342 0.1862219 0.1874625 0.1885311 0.1894283
 0.1901755 0.1907975 0.1913179 0.1917527 0.1921038 0.1923752 0.1926 0.1928369 0.19314 0.1935407
 0.1940566 0.1947104 0.1955342 0.1965473 0.1977255 0.1990041 0.2003157 0.2016194 0.2029064 0.2041959
 0.205523 0.2069255 0.2084509 0.2101704 0.2121583 0.2144461 0.2170038 0.2197577 0.2226106 0.2254516
 0.2281653 0.2306424 0.2328005 0.2346102 0.2361005 0.2373303 0.2383566 0.2392209 0.2399442 0.2405299
 0.2409787 0.2412945 0.2414744 0.2415088 0.2413989 0.2411652 0.2408398 0.2404586 0.2400527 0.2396379
 0.2392168 0.2387891 0.2383512 0.2378917 0.2373994 0.236872 0.2363111 0.2357171 0.2350937 0.2344445
 0.233766 0.2330445 0.2322545 0.2313609 0.2303399 0.2291945 0.2279347 0.2265541 0.2250428 0.223415
 0.2217061 0.2199513 0.2181741 0.2163842 0.2145746 0.2127123 0.2107326 0.2085681 0.2062134 0.2037629
 0.2013566 0.1990858 0.1969539 0.194912 0.1929167 0.1909647 0.1890841 0.1872956 0.185592 0.1839625
 0.1824187 0.1809776 0.179633 0.1783624 0.1771573 0.1760376 0.1750357 0.1741675 0.1734229 0.1727849
 0.1722437 0.1717872 0.1714014 0.1710932 0.1708831 0.1707587 0.1706601 0.1705233 0.1703222 0.1700669
 0.1697842 0.1695019 0.169235 0.1689844 0.1687423 0.1684805 0.1681315 0.1675976 0.1667862 0.1656439
 0.1641729 0.1624204 0.1604492 0.158333 0.1561846 0.1541576 0.1523898 0.1509508 0.1498365 0.1489832
 0.1482922 0.1476806 0.1471325 0.1467035 0.146472 0.1464568 0.1465548 0.1465919 0.1464817 0.1463181
 0.1462866 0.1465093 0.1469772 0.1475822 0.1481892 0.1487053 0.1490944 0.1493377 0.14942 0.1493582
 0.1491953 0.1489605 0.1486693 0.1483451 0.148001 0.1476176 0.1471611 0.1466087 0.1459601 0.1452411
 0.1444778 0.1436565 0.1427427 0.1417242 0.1405915 0.1393221 0.1379693 0.1367379 0.1358972 0.1356209
 0.1359047 0.1365811 0.1374241 0.1382876 0.1390947 0.1396758 0.1398062 0.1395676 0.1395394 0.1403868
 0.1422172 0.1444499 0.1463323 0.1474792 0.1479056 0.147736 0.1470559 0.1459368 0.1444022 0.1424014
 0.1399297 0.137101 0.1340505 0.1309026 0.1278533 0.125119 0.1227997 0.120887 0.1193476 0.1182243
 0.1176733 0.1173391 0.1153592 0.1093672 0.1001443 0.09321186 0.09417512 0.1024157 0.1115337 0.1161146
 0.1160411 0.1142282 0.1126816 0.1117141 0.1112331 0.1113669 0.1122116 0.1135993 0.1151268 0.1163811
 0.1171925 0.117604 0.1175866 0.1168117 0.1145938 0.1101222 0.1031209 0.0944269 0.08569214 0.07841252
 0.07328207 0.07022615 0.06869096 0.06795062 0.06747469 0.06718451 0.06735972 0.06829651 0.07005742 0.0725034
 0.07544568 0.07863688 0.08167516 0.0841556 0.08598844 0.08739994 0.08857412 0.08944835 0.08987683 0.08983071
 0.08940119 0.08872376 0.08793394 0.08711913 0.08626265 0.08526535 0.08409594 0.08293781 0.08209787 0.08171689
 0.0816541 0.08169106 0.08173022 0.08176255 0.08178123 0.08178593 0.08179496 0.08184638 0.08202136 0.08239911
 0.0829422 0.08349237 0.08390531 0.08414915 0.08428629 0.08436735 0.08430506 0.08393361 0.08330114 0.08274215
 0.08244004 0.08208579 0.0812748 0.08013688 0.07926854 0.0790754 0.07941116 0.07983389 0.08001173 0.0798801
 0.07961239 0.07953216 0.0798991 0.08061087</values></Ydata></ScSm><ScRf><Ydata ylabel="Single channel"><values byteorder="INTEL" format="FLOAT32" numvalues="1820"> 0.06071269 0.06086669 0.06095552 0.06097842 0.06096077 0.06095241 0.06100935 0.06115712 0.06136701 0.06157114
 0.06171066 0.06177454 0.06178384 0.06174843 0.06167295 0.06160474 0.06162721 0.06177812 0.06199548 0.06216015
 0.06219229 0.06212243 0.06207489 0.06214648 0.06227568 0.06226088 0.06195064 0.06141598 0.06090172 0.06060012
 0.06053279 0.06069264 0.06116164 0.06188557 0.06242124 0.062251 0.06142894 0.06061658 0.06035119 0.06053211
 0.06072151 0.06065515 0.060328 0.05989483 0.05971347 0.06024907 0.06161645 0.06320056 0.06387816 0.06272971
 0.05969813 0.05579218 0.05270873 0.05192317 0.05365442 0.05657081 0.05878776 0.05937111 0.05878717 0.05794618
 0.05721386 0.05653096 0.05606601 0.05626219 0.05723245 0.05833614 0.05851255 0.0572001 0.05500403 0.05325536
 0.05278877 0.05342516 0.05469546 0.05635245 0.05764246 0.05689064 0.05314849 0.04828173 0.04614216 0.04890937
 0.05476598 0.05966719 0.06093488 0.05877644 0.05513331 0.05206652 0.05095442 0.05212053 0.05480132 0.05778152
 0.06012083 0.06118304 0.06047145 0.05806658 0.05505292 0.0529942 0.05297171 0.05515653 0.0587738 0.0621802
 0.06361263 0.06248754 0.05978816 0.05703087 0.05526866 0.05509298 0.05678692 0.06003542 0.06390023 0.0673537
 0.06969345 0.07062725 0.07034848 0.06941374 0.06831713 0.06739479 0.06710738 0.0677626 0.06876902 0.06885983
 0.06746669 0.06547876 0.06433082 0.06452429 0.0652265 0.0652812 0.06437742 0.06288004 0.06069823 0.05724357
 0.05279516 0.04887941 0.04674822 0.04641946 0.04758135 0.05008324 0.05286598 0.05389923 0.05240359 0.05027145
 0.05019423 0.05279167 0.05628984 0.05868553 0.05960433 0.06016123 0.06152779 0.06373423 0.06552252 0.06529489
 0.06269326 0.05948896 0.05833258 0.06015385 0.06326708 0.06544639 0.06627546 0.06690764 0.06804592 0.06885344
 0.06783128 0.06460543 0.06087686 0.05936341 0.06142968 0.06571934 0.06913771 0.0691359 0.06542738 0.06005791
 0.0558137 0.05428893 0.05546489 0.05878721 0.06378135 0.0694731 0.07412042 0.07618786 0.07545972 0.07297207
 0.06982127 0.06614451 0.06167513 0.05742329 0.0558956 0.05873824 0.06463683 0.07040693 0.07383223 0.07477323
 0.07394064 0.0715415 0.06748331 0.06268708 0.05951469 0.05993695 0.06315769 0.0660628 0.06647661 0.0651478
 0.06415056 0.06430398 0.06486149 0.06509973 0.06535658 0.06645706 0.06853049 0.07069339 0.07189976 0.07188903
 0.07123847 0.0706944 0.07049201 0.07017736 0.06924853 0.06815799 0.068261 0.07032712 0.07347833 0.07609056
 0.07742265 0.07788554 0.07795299 0.07732557 0.0753587 0.07227011 0.06963898 0.06923966 0.07132831 0.07447642
 0.07705333 0.07840125 0.07869934 0.07838027 0.07783058 0.07726042 0.0767688 0.07661331 0.07714472 0.07830235
 0.07949892 0.08020758 0.08039407 0.08025134 0.07982336 0.0790883 0.07823147 0.07763888 0.07761459 0.07815575
 0.07901227 0.07990639 0.08062087 0.08095606 0.0808075 0.08032133 0.07980703 0.07945561 0.07927291 0.07927314
 0.0795442 0.08007254 0.08065757 0.08107947 0.08127376 0.08130267 0.08123102 0.08108121 0.08087428 0.08067898
 0.08061091 0.08075066 0.08104322 0.08133394 0.08154756 0.08176289 0.08204511 0.08228508 0.08231188 0.08212295
 0.08190116 0.0818162 0.08188424 0.08201528 0.08211611 0.08210973 0.08191851 0.08153142 0.08110403 0.08090134
 0.08108446 0.08159631 0.08226196 0.08291365 0.08341107 0.08366837 0.08372207 0.08369476 0.08365236 0.08355298
 0.08335403 0.08312403 0.08302836 0.08320372 0.08363294 0.08414765 0.08456559 0.08480796 0.08489788 0.08491945
 0.08498655 0.08515967 0.08536112 0.08544658 0.08538587 0.08530691 0.08533846 0.0854623 0.08554882 0.08551376
 0.08541613 0.0853964 0.08552856 0.08575472 0.08596792 0.08612922 0.08628585 0.08648489 0.08668323 0.0867617
 0.08665316 0.08643956 0.08627403 0.08621826 0.08622133 0.08625208 0.08636202 0.08658247 0.08683038 0.08697801
 0.08699417 0.0869692 0.08699737 0.08706719 0.08708493 0.08698757 0.08680849 0.08664119 0.08656389 0.08659538
 0.08669283 0.08677898 0.08679014 0.08671713 0.08660203 0.08649272 0.08640777 0.08635426 0.08636847 0.08650383
 0.08675197 0.08699166 0.08705912 0.08689363 0.08660432 0.08637437 0.08629583 0.08630233 0.08625704 0.08608894
 0.08583853 0.08559373 0.08540919 0.08528498 0.08519414 0.08511587 0.08506 0.0850715 0.08518584 0.08535461
 0.08544229 0.08534068 0.08508068 0.0847996 0.08461087 0.08453417 0.08452581 0.08453269 0.0845321 0.08455177
 0.0846303 0.0847391 0.08478476 0.08471666 0.08459339 0.08452156 0.08456706 0.08473071 0.08495098 0.08511631
 0.0851375 0.08503814 0.08493517 0.08491547 0.08496792 0.08504123 0.08511768 0.0852055 0.08529891 0.08538627
 0.08548611 0.08564344 0.08588187 0.08616941 0.08643447 0.08661682 0.08671501 0.08679463 0.08694389 0.0872055
 0.0875428 0.08787102 0.08812587 0.08830982 0.08847381 0.08865525 0.08884627 0.0890321 0.08923797 0.08950623
 0.08983532 0.09017538 0.09048493 0.0907658 0.09104154 0.09132663 0.09162436 0.09194387 0.09230863 0.09273427
 0.09318575 0.09357274 0.09381865 0.09393889 0.09403776 0.09423056 0.09456482 0.09498374 0.09535119 0.09555453
 0.09561792 0.0956855 0.09586421 0.09611861 0.09635668 0.09657861 0.0968782 0.09730433 0.09777642 0.09815714
 0.0983859 0.09852542 0.09868395 0.09890094 0.09911555 0.09925054 0.09931055 0.09937243 0.09948982 0.09965493
 0.09986328 0.1001575 0.1005628 0.1010158 0.1014077 0.1016829 0.1018627 0.1019928 0.102102 0.1021947
 0.1022581 0.1022876 0.1023172 0.102393 0.1025067 0.1025946 0.1026222 0.1026319 0.1026895 0.1028204
 0.1030208 0.10329 0.1036114 0.1039306 0.1042051 0.1044693 0.1047976 0.1051856 0.1055184 0.1056923
 0.1057321 0.1057418 0.105775 0.1058172 0.1058748 0.1060059 0.1062482 0.1065701 0.1069156 0.1072633
 0.1076204 0.1079797 0.1082994 0.1085238 0.1086229 0.1086205 0.1085855 0.1085972 0.1087098 0.1089346
 0.1092381 0.1095609 0.1098485 0.1100634 0.1101735 0.1101636 0.1100813 0.1100416 0.1101357 0.1103324
 0.1104948 0.1104964 0.1103002 0.109933 0.109426 0.1088042 0.1081164 0.1074443 0.1068722 0.1064521
 0.1062062 0.1061616 0.1063627 0.1068242 0.1074774 0.1081918 0.1088529 0.109389 0.1097215 0.10975
 0.1094271 0.108823 0.1080815 0.1073284 0.106632 0.1060086 0.1054316 0.1048675 0.1043533 0.104032
 0.1040875 0.1046365 0.105673 0.1070718 0.1086213 0.1100885 0.1113159 0.1122843 0.1130782 0.1137883
 0.1144565 0.1151021 0.1157558 0.1164306 0.1170829 0.1176481 0.1181146 0.1185313 0.1189423 0.119344
 0.1197026 0.1199906 0.1202111 0.1204021 0.1206008 0.1207893 0.1209002 0.1208927 0.1208009 0.120687
 0.1205681 0.1204067 0.1201526 0.1197829 0.1193331 0.1189208 0.1187321 0.118945 0.1196272 0.1206926
 0.1219644 0.1232873 0.1245709 0.1257381 0.1266903 0.1273642 0.1277973 0.1280994 0.1283693 0.1286543
 0.1289637 0.1292869 0.1296023 0.1298936 0.1301633 0.1304339 0.130735 0.1310772 0.1314304 0.1317404
 0.1319834 0.1322 0.1324645 0.1328162 0.1332207 0.133604 0.133928 0.1342238 0.1345333 0.1348383
 0.1350813 0.1352477 0.1353928 0.1355886 0.1358738 0.1362422 0.1366429 0.1369976 0.1372527 0.1374236
 0.1375714 0.1377428 0.1379465 0.1381761 0.1384301 0.1387029 0.1389779 0.1392457 0.1395219 0.1398237
 0.1401284 0.1403777 0.1405393 0.1406517 0.1407893 0.1409895 0.1412263 0.141452 0.1416537 0.1418679
 0.1421393 0.1424651 0.1427851 0.143032 0.1431909 0.1433045 0.1434277 0.1435874 0.14378 0.1439916
 0.1442102 0.1444255 0.1446316 0.1448331 0.1450424 0.1452653 0.1454917 0.1457058 0.1459022 0.1460906
 0.1462829 0.1464838 0.1466963 0.1469334 0.1472127 0.1475281 0.1478355 0.1480831 0.1482564 0.1483853
 0.1485082 0.1486452 0.1488025 0.1489818 0.1491779 0.1493761 0.1495658 0.1497512 0.1499458 0.1501563
 0.1503762 0.1505935 0.150802 0.1510062 0.1512178 0.1514468 0.1516904 0.1519298 0.1521442 0.152332
 0.1525116 0.1527021 0.1529063 0.1531115 0.1533021 0.1534722 0.1536327 0.1538032 0.1539949 0.1542029
 0.1544155 0.1546246 0.1548248 0.155013 0.1551931 0.1553771 0.1555765 0.1557896 0.1560015 0.1561978
 0.156381 0.1565652 0.1567588 0.1569558 0.1571477 0.1573341 0.157523 0.1577227 0.157935 0.1581545
 0.1583731 0.1585838 0.158782 0.1589678 0.1591477 0.1593303 0.1595184 0.1597109 0.15991 0.1601204
 0.1603415 0.1605657 0.1607836 0.1609919 0.1611965 0.1614068 0.161624 0.1618403 0.1620493 0.1622525
 0.1624544 0.1626578 0.1628649 0.1630789 0.1633013 0.1635293 0.1637556 0.1639734 0.1641813 0.1643795
 0.1645651 0.1647373 0.1649026 0.1650689 0.1652376 0.1654082 0.1655827 0.1657617 0.1659449 0.1661359
 0.1663384 0.1665503 0.1667644 0.1669747 0.1671766 0.1673699 0.1675607 0.1677551 0.1679538 0.168156
 0.1683629 0.1685753 0.1687929 0.1690141 0.1692311 0.1694334 0.169623 0.1698143 0.1700177 0.170232
 0.1704517 0.1706722 0.1708911 0.1711096 0.1713274 0.1715379 0.1717379 0.1719345 0.1721349 0.1723402
 0.1725526 0.1727729 0.172992 0.1732021 0.1734068 0.1736092 0.1738046 0.1739968 0.1741991 0.1744154
 0.1746389 0.1748663 0.1750967 0.1753238 0.1755429 0.1757548 0.1759591 0.1761574 0.1763575 0.1765625
 0.1767698 0.1769819 0.1771986 0.1773979 0.1775287 0.1774705 0.1769289 0.1753324 0.1718304 0.1654685
 0.1555728 0.1421873 0.1262144 0.1090922 0.09226334 0.0768043 0.06333408 0.05211391 0.04319282 0.03649127
 0.03185061 0.02912981 0.02831222 0.02960859 0.03356335 0.04073189 0.05046865 0.05985019 0.06481059 0.063353
 0.05746076 0.05128906 0.04770966 0.0469219 0.04769279 0.04896767 0.0504081 0.05220439 0.0546949 0.05798813
 0.06193525 0.06653053 0.07211513 0.07894488 0.08666113 0.09443442 0.1016772 0.1085098 0.1154885 0.1229451
 0.1306412 0.1380024 0.1445753 0.1502608 0.1552328 0.1597387 0.1639573 0.1679736 0.171819 0.1754754
 0.1788073 0.1815322 0.1833481 0.1841618 0.1842028 0.1838966 0.1836108 0.1835119 0.1836139 0.1838906
 0.1843214 0.184885 0.1855574 0.1863144 0.1871274 0.1879661 0.188808 0.1896344 0.1904255 0.1911668
 0.1918523 0.1924811 0.1930555 0.1935815 0.1940636 0.1945035 0.1949082 0.1952906 0.1956585 0.196009
 0.1963363 0.1966389 0.1969206 0.1971869 0.1974409 0.1976809 0.1979069 0.1981246 0.1983394 0.1985521
 0.1987619 0.1989695 0.1991745 0.1993755 0.1995728 0.1997665 0.1999554 0.2001429 0.2003366 0.2005395
 0.2007471 0.2009543 0.2011599 0.2013642 0.2015697 0.2017794 0.2019906 0.202193 0.2023805 0.2025601
 0.2027443 0.2029386 0.2031365 0.2033279 0.2035126 0.2037039 0.2039118 0.2041285 0.2043415 0.2045542
 0.2047782 0.2050098 0.2052323 0.2054345 0.2056156 0.2057762 0.2059218 0.2060725 0.2062562 0.2064824
 0.206729 0.2069608 0.2071636 0.2073525 0.207546 0.2077444 0.2079358 0.2081108 0.2082739 0.2084495
 0.2086667 0.2089261 0.2091961 0.2094525 0.2096967 0.2099332 0.2101607 0.2103883 0.2106236 0.2108411
 0.2110024 0.2111194 0.2112702 0.2115324 0.2118994 0.2122781 0.2125803 0.2128033 0.2130067 0.2132394
 0.2135147 0.2138038 0.2140123 0.2140366 0.2139204 0.213891 0.2141567 0.214697 0.2153075 0.2158104
 0.2161707 0.2164502 0.2167056 0.2169314 0.2170713 0.2170821 0.2170144 0.217032 0.2173009 0.2178217
 0.218412 0.2188881 0.2192112 0.2194357 0.2196125 0.2197712 0.2198766 0.2197781 0.21937 0.2188677
 0.2187484 0.2192875 0.2202488 0.221139 0.2216967 0.2220238 0.2223065 0.2225877 0.2228189 0.2229006
 0.2225811 0.2216025 0.2202049 0.2192587 0.2195487 0.2209912 0.2227802 0.224193 0.2250402 0.2254891
 0.2257593 0.225974 0.2260617 0.2257578 0.2249056 0.2238597 0.2233969 0.224 0.2253134 0.2265209
 0.2271762 0.2274391 0.2276392 0.2279064 0.2280853 0.2277001 0.2262257 0.2238623 0.2219252 0.221923
 0.2240852 0.2270837 0.2293451 0.2304034 0.2307869 0.2308633 0.230298 0.2286645 0.2260978 0.2232377
 0.221015 0.2205126 0.2222486 0.2252889 0.2277798 0.2287736 0.2290326 0.2297952 0.2313085 0.2328339
 0.2335998 0.2333981 0.2324612 0.2310418 0.2292866 0.227618 0.2269702 0.2281298 0.2307799 0.2336077
 0.2355169 0.2364625 0.236883 0.2364172 0.233643 0.2277896 0.2208819 0.2171808 0.2194224 0.2259571
 0.2325208 0.2364303 0.2380598 0.2388348 0.2393132 0.2390334 0.2367981 0.2313393 0.22333 0.2166297
 0.2156695 0.2210715 0.228945 0.2345122 0.2353463 0.2316221 0.2252766 0.2194396 0.2171468 0.2194977
 0.2251782 0.2317552 0.237132 0.2401248 0.2404547 0.2386426 0.2359808 0.2342131 0.2342634 0.2348717
 0.2335594 0.2297494 0.225717 0.2232602 0.220941 0.216765 0.2125551 0.2127579 0.218651 0.2261898
 0.2305459 0.2310039 0.2300973 0.2290042 0.2255469 0.2173325 0.2062795 0.1987226 0.1998797 0.2084365
 0.2177134 0.2222039 0.2219558 0.2206329 0.2206254 0.2206027 0.217382 0.2100775 0.2022417 0.1988964
 0.2012087 0.2054556 0.2074447 0.205861 0.2008455 0.1926748 0.184147 0.1814435 0.1889368 0.2038648
 0.2184828 0.2264307 0.2250778 0.214173 0.1967638 0.1810658 0.1764775 0.1851747 0.1994714 0.2088776
 0.2084396 0.199681 0.1861248 0.170845 0.1578554 0.1526226 0.1588318 0.1746226 0.1925326 0.2031941
 0.2005476 0.1865852 0.1717858 0.1675909 0.1759859 0.1880911 0.1940731 0.1920539 0.1867905 0.1835666
 0.1851336 0.1911367 0.1984936 0.2043147 0.2082162 0.2090843 0.2019907 0.1841226 0.1626334 0.1499165
 0.1507377 0.1598388 0.1718536 0.1861069 0.2000908 0.2061804 0.2002316 0.1894124 0.1860712 0.1946248
 0.207789 0.21548 0.214791 0.2105028 0.2077347 0.2065133 0.204315 0.2019408 0.2037319 0.2115625
 0.2215524 0.2283981 0.2308928 0.2314374 0.2319805 0.2325461 0.2326019 0.2319435 0.2306211 0.2290912
 0.2280826 0.2277747 0.2276272 0.2272013 0.2261467 0.2229633 0.2153272 0.2033538 0.1916636 0.1857188
 0.1860366 0.1885784 0.1907632 0.192973 0.1929426 0.1841768 0.1645219 0.1432049 0.1341114 0.1423669
 0.1605242 0.177065 0.1852258 0.1835878 0.1726474 0.1550211 0.1381752 0.1320673 0.1410124 0.1595426
 0.1782557 0.1919092 0.199955 0.2020289 0.1970129 0.1862716 0.1748947 0.1687623 0.1709842 0.1805644
 0.1927182 0.2000657 0.1962544 0.1823069 0.1693894 0.1705349 0.1869459 0.2059473 0.215233 0.2153094
 0.2144071 0.2156927 0.2157504 0.2136237 0.2143862 0.2222194 0.2342802 0.2435045 0.2448114 0.23711
 0.2226254 0.207376 0.1995973 0.2031063 0.2128917 0.2204969 0.2221602 0.2183217 0.2086579 0.1941475
 0.1823038 0.1826608 0.1957385 0.2118059 0.2219323 0.2261269 0.2292795 0.2327431 0.2326763 0.2258435
 0.2149965 0.2071764 0.2067596 0.2116528 0.2168848 0.2198498 0.2203489 0.217644 0.2109174 0.2026531
 0.1986528 0.2030025 0.2138295 0.2250204 0.2316563 0.2330837 0.2315114 0.2291329 0.2266394 0.2233782
 0.2188226 0.2144823 0.2136058 0.2177138 0.224181 0.2289351 0.231114 0.2333443 0.2376038 0.2424919
 0.2449367 0.2435531 0.2399628 0.2373817 0.238043 0.2414288 0.2446535 0.2449187 0.242171 0.2394056
 0.2399132 0.2441385 0.2496112 0.2537547 0.2559915 0.2572103 0.2582455 0.2591438 0.2591273 0.2571819
 0.2534912 0.2502702 0.2501969 0.2537591 0.258795 0.262733 0.2646692 0.2652156 0.2650869 0.2643543
 0.2628651 0.2609191 0.2592844 0.2585915 0.2588817 0.2597628 0.2608157 0.2617737 0.2625016 0.2629827
 0.2632862 0.263474 0.2635738 0.2636327 0.2637001 0.2637385 0.2636647 0.2635216 0.2635028 0.2637347
 0.2641025 0.2643709 0.2644039 0.2641725 0.2636188 0.2626652 0.2613626 0.2598895 0.2583536 0.2567118
 0.2550008 0.2536073 0.2531617 0.2540617 0.2560963 0.2585677 0.2607714 0.2623555 0.2633196 0.2638227
 0.2640439 0.2641268 0.2641473 0.2641073 0.2639779 0.2637535 0.2634583 0.2631161 0.2627362 0.2623326
 0.2619441 0.2616145 0.2613484 0.2610968 0.2607925 0.2603972 0.2599181 0.2593894 0.2588394 0.2582622
 0.2576168 0.2568592 0.2559833 0.2550333 0.2540825 0.2531945 0.252385 0.2516141 0.2508271 0.2499971
 0.2491103 0.2481252 0.2470083 0.2458223 0.2447258 0.2438428 0.2431572 0.2425504 0.2419075 0.2411669
 0.2403106 0.2393516 0.2383254 0.2372664 0.2361877 0.2350798 0.2339174 0.232667 0.2313059 0.22984
 0.2282969 0.226705 0.2250856 0.2234518 0.2217868 0.2200214 0.2180425 0.2157246 0.2129529 0.2096353
 0.2057328 0.2012992 0.1964923 0.1915327 0.1866355 0.1819626 0.1776261 0.1737215 0.1703449 0.1675778
 0.1654703 0.1640469 0.163321 0.1632983 0.1639704 0.1653064 0.1672427 0.1696762 0.1724678 0.1754533
 0.1784553 0.1813104 0.1839191 0.1862861 0.188493 0.1906065 0.192612 0.1944449 0.1960662 0.1974839
 0.1987131 0.1997534 0.2006108 0.2013153 0.2019072 0.202416 0.2028561 0.2032333 0.2035501 0.203809
 0.2040144 0.2041794 0.2043317 0.2045038 0.2047128 0.2049518 0.2052089 0.2054942 0.2058454 0.2062955
 0.2068316 0.2073992 0.207956 0.2085114 0.209103 0.2097556 0.21048 0.2112983 0.2122453 0.2133468
 0.2146023 0.2159757 0.217394 0.2187583 0.2199717 0.2209657 0.2217119 0.2222161 0.2225023 0.2226043
 0.2225582 0.22239 0.2221052 0.2217042 0.2212058 0.2206453 0.220048 0.2194173 0.2187504 0.2180547
 0.217347 0.2166446 0.2159594 0.2152955 0.2146499 0.2140147 0.2133826 0.2127545 0.212139 0.2115437
 0.2109684 0.2104065 0.2098485 0.2092844 0.2087076 0.2081126 0.2074835 0.2067877 0.2059936 0.2050871
 0.2040665 0.2029331 0.2016995 0.2003904 0.1990217 0.1975848 0.1960636 0.1944578 0.1927835 0.1910522
 0.1892526 0.1873593 0.1853743 0.1833557 0.1813924 0.1795497 0.1778437 0.176256 0.1747568 0.1733271
 0.1719709 0.1706973 0.1694931 0.1683307 0.1672005 0.1661164 0.1650931 0.164137 0.1632559 0.1624607
 0.1617565 0.161136 0.1605836 0.1600884 0.1596553 0.1592975 0.1590272 0.1588609 0.1588142 0.1588674
 0.1589508 0.1589839 0.1589254 0.1587873 0.1586148 0.158459 0.1583496 0.158287 0.1582491 0.1581915
 0.1580463 0.1577372 0.157192 0.1563443 0.1551541 0.1536429 0.1518957 0.1500347 0.148199 0.14652
 0.145084 0.1439254 0.143047 0.1424142 0.1419421 0.1415418 0.1411906 0.1409461 0.1408904 0.1410467
 0.1413191 0.1415409 0.1416264 0.1416586 0.1418063 0.1421844 0.1427944 0.1435389 0.1442825 0.1449361
 0.14548 0.1459029 0.1461757 0.1463002 0.1463203 0.1462667 0.1461382 0.1459313 0.1456537 0.145322
 0.1449592 0.1445676 0.1441157 0.1435779 0.142958 0.1422593 0.1414743 0.1405972 0.1395959 0.1384222
 0.137136 0.135976 0.1352354 0.1350853 0.1355088 0.1363326 0.1373342 0.1383768 0.1393875 0.1401838
 0.1405211 0.1404724 0.1406241 0.1416586 0.1437011 0.1461788 0.1483378 0.1497929 0.1505526 0.1507069
 0.1502887 0.1493328 0.1478586 0.1458387 0.1433098 0.1404244 0.1373312 0.1341563 0.1311035 0.1283855
 0.1260839 0.124194 0.1227146 0.1217032 0.1213022 0.1211275 0.1192475 0.1132054 0.1038169 0.09683674
 0.09809764 0.1069392 0.1166855 0.1216947 0.1218374 0.1201389 0.1186671 0.1177082 0.1171365 0.1171113
 0.1178015 0.1190869 0.1205626 0.1217882 0.1225742 0.1229693 0.1229583 0.1221862 0.1198855 0.1151648
 0.1077394 0.09852183 0.0892792 0.08160254 0.07621792 0.07302489 0.07142669 0.07066195 0.07017741 0.0698994
 0.07014068 0.07121946 0.07318746 0.0758905 0.07913437 0.08265051 0.08600109 0.08876665 0.09086721 0.09253161
 0.09393156 0.09499352 0.0955693 0.09563529 0.09529163 0.09467486 0.0939137 0.09309572 0.09220918 0.09115335
 0.08990392 0.08867297 0.08778717 0.08737056 0.08725853 0.08723961 0.08724056 0.08725707 0.08725947 0.08721931
 0.08714912 0.08710974 0.0872091 0.08753151 0.08802546 0.08851372 0.08883668 0.0889641 0.08897896 0.08894129
 0.08874402 0.08820748 0.0874015 0.0866835 0.08622035 0.08566968 0.08462615 0.08326086 0.08222014 0.08192837
 0.08221541 0.08260139 0.08273631 0.08255428 0.08222595 0.0820796 0.08239932 0.083102 0.08369217 0.08372143
</values></Ydata></ScRf><Data_Parameters_AB><parameter name="DPF">1</parameter><parameter name="NPT">3497</parameter><parameter name="FXV">3996</parameter><parameter name="LXV">500</parameter><parameter name="CSF">1</parameter><parameter name="MXY">0.133476778864861</parameter><parameter name="MNY">-0.0867806896567345</parameter><parameter name="DAT">01/06/2022</parameter><parameter name="TIM">11:55:22.543 (GMT+2)</parameter><parameter name="DXU">WN</parameter></Data_Parameters_AB><AB__Qtest><MainReport name="Quality Test Report"><Header><Line><Legend>Test result ok/not ok [1/0]: </Legend><Value>0</Value></Line><Line><Legend>Method file: </Legend><Value>C:\Users\Public\Documents\Bruker\OPUS_8.2.28\QT\IRBT_v3_default.QT</Value></Line></Header><Matrix><Line><Legend></Legend><Legend>min</Legend><Legend>max</Legend><Legend>measured</Legend></Line><Line><Value>Absorption (X-Range 1):</Value><Value>0.400000</Value><Value>2.000000</Value><Value>0.172031</Value></Line><Line><Value>Noise (X-Range 4):</Value><Value></Value><Value>0.000300</Value><Value>0.000043</Value></Line><Line><Value>Signal/Noise (X-Range 2):</Value><Value>200.000000</Value><Value></Value><Value>52.209824</Value></Line><Line><Value>Signal/Noise (X-Range 3):</Value><Value>40.000000</Value><Value></Value><Value>56.428123</Value></Line><Line><Value>Water vapour (X-Range 5):</Value><Value></Value><Value>0.000300</Value><Value>0.000070</Value></Line><Line><Value>Signal/Water (X-Range 2):</Value><Value>100.000000</Value><Value></Value><Value>32.184679</Value></Line><Line><Value>Signal/Water (X-Range 3):</Value><Value>20.000000</Value><Value></Value><Value>34.785043</Value></Line><Line><Value>Fringes (X-Range 6):</Value><Value></Value><Value>0.000100</Value><Value>0.000053</Value></Line></Matrix></MainReport></AB__Qtest><Data_Parameters_ScSm><parameter name="DPF">1</parameter><parameter name="NPT">1814</parameter><parameter name="FXV">3996.33169228125</parameter><parameter name="LXV">499.541461535156</parameter><parameter name="CSF">1</parameter><parameter name="MXY">0.296646386384964</parameter><parameter name="MNY">0.0335294865071774</parameter><parameter name="DAT">01/06/2022</parameter><parameter name="TIM">11:55:22.543 (GMT+2)</parameter><parameter name="DXU">WN</parameter></Data_Parameters_ScSm><Data_Parameters_ScRf><parameter name="DPF">1</parameter><parameter name="NPT">1820</parameter><parameter name="FXV">4004.04661832813</parameter><parameter name="LXV">495.683998511719</parameter><parameter name="CSF">1</parameter><parameter name="MXY">0.265215635299683</parameter><parameter name="MNY">0.0283122174441814</parameter><parameter name="DAT">01/06/2022</parameter><parameter name="TIM">11:54:56.690 (GMT+2)</parameter><parameter name="DXU">WN</parameter></Data_Parameters_ScRf><Optic_Parameters_Rf><parameter name="APR">0</parameter><parameter name="APT">Open</parameter><parameter name="BMS">KBr</parameter><parameter name="DTC">RT-DLaTGS_IR-Biotyper [Microplate reader]</parameter><parameter name="HPF">0</parameter><parameter name="LPF">10.0</parameter><parameter name="LPV">4000</parameter><parameter name="PGR">0</parameter><parameter name="RCH">Module port</parameter><parameter name="RDX">0</parameter><parameter name="SRC">MIR</parameter><parameter name="VEL">10.0</parameter><parameter name="SON">Off</parameter></Optic_Parameters_Rf><Acquisition_Parameters_Rf><parameter name="ADT">1</parameter><parameter name="AQM">DD</parameter><parameter name="CFE">0</parameter><parameter name="COR">0</parameter><parameter name="DEL">0</parameter><parameter name="DLY">0</parameter><parameter name="HFW">8000</parameter><parameter name="LFW">0</parameter><parameter name="NSR">32</parameter><parameter name="PLF">AB</parameter><parameter name="RES">6</parameter><parameter name="RGN">-1</parameter><parameter name="STR">0</parameter><parameter name="TCL">MakeCompatibleScalar (0, {WSV=1.000000, ARV=0});</parameter><parameter name="TDL">37</parameter><parameter name="RPO">0</parameter></Acquisition_Parameters_Rf><FT_-_Parameters_Rf><parameter name="APF">B3</parameter><parameter name="HFQ">500</parameter><parameter name="LFQ">4000</parameter><parameter name="NLI">0</parameter><parameter name="PHR">24</parameter><parameter name="PHZ">ML</parameter><parameter name="SPZ">NO</parameter><parameter name="ZFF">1</parameter></FT_-_Parameters_Rf><Optic_Parameters_><parameter name="APR">0</parameter><parameter name="APT">Open</parameter><parameter name="BMS">KBr</parameter><parameter name="CHN">Module port</parameter><parameter name="DTC">RT-DLaTGS_IR-Biotyper [Microplate reader]</parameter><parameter name="HPF">0</parameter><parameter name="LPF">10.0</parameter><parameter name="LPV">4000</parameter><parameter name="PGN">0</parameter><parameter name="RDX">0</parameter><parameter name="SRC">MIR</parameter><parameter name="VEL">10.0</parameter><parameter name="SON">Off</parameter></Optic_Parameters_><FT_-_Parameters_><parameter name="APF">B3</parameter><parameter name="HFQ">500</parameter><parameter name="LFQ">4000</parameter><parameter name="NLI">0</parameter><parameter name="PHR">24</parameter><parameter name="PHZ">ML</parameter><parameter name="SPZ">NO</parameter><parameter name="ZFF">1</parameter></FT_-_Parameters_><Acquisition_Parameters_><parameter name="ADT">1</parameter><parameter name="AQM">DD</parameter><parameter name="CFE">0</parameter><parameter name="COR">0</parameter><parameter name="DEL">0</parameter><parameter name="DLY">0</parameter><parameter name="HFW">8000</parameter><parameter name="LFW">0</parameter><parameter name="NSS">32</parameter><parameter name="PLF">AB</parameter><parameter name="RES">6</parameter><parameter name="SOT">0</parameter><parameter name="TCL">MakeCompatibleScalar (0, {WSV=1.000000, ARV=0});</parameter><parameter name="TDL">37</parameter><parameter name="SPO">0</parameter><parameter name="SGN">-1</parameter></Acquisition_Parameters_><Instrument_Parameters_Rf><parameter name="HFL">15800.168544</parameter><parameter name="LFL">0</parameter><parameter name="LWN">15800.168544</parameter><parameter name="ABP">32197</parameter><parameter name="SSP">1</parameter><parameter name="ARG">2</parameter><parameter name="ASG">2</parameter><parameter name="ASS">32</parameter><parameter name="GFW">16</parameter><parameter name="GBW">16</parameter><parameter name="BFW">0</parameter><parameter name="BBW">0</parameter><parameter name="PKA">7312</parameter><parameter name="PKL">4990</parameter><parameter name="PRA">7480</parameter><parameter name="PRL">5001</parameter><parameter name="P2A">1</parameter><parameter name="P2L">1</parameter><parameter name="P2R">1</parameter><parameter name="P2K">1</parameter><parameter name="DAQ">0</parameter><parameter name="AG2">1</parameter><parameter name="SSM">1</parameter><parameter name="RSN">25959</parameter><parameter name="CRR">0</parameter><parameter name="SRT">1654084496.69</parameter><parameter name="DUR">19.6389923095703</parameter><parameter name="TSC">29</parameter><parameter name="MVD">0.333027809858322</parameter><parameter name="AN1">0.22581019464532</parameter><parameter name="AN2">0</parameter><parameter name="VSN">2.485 Apr  4 2017</parameter><parameter name="SRN">0085</parameter><parameter name="CAM">0</parameter><parameter name="INS">IR-Biotyper</parameter><parameter name="FOC">69</parameter><parameter name="RDY">1</parameter><parameter name="ARS">32</parameter></Instrument_Parameters_Rf><Sample_Parameters_><parameter name="BLD"></parameter><parameter name="CNM">Admin</parameter><parameter name="CPY"></parameter><parameter name="DPM"></parameter><parameter name="EXP">IRBT_v3_32Scans.XPM</parameter><parameter name="LCT"></parameter><parameter name="SFM">Microplate, HTS-XT</parameter><parameter name="SNM">220601-1028(v.3)_KSE27F (D_1)_F8_2ff1ff50-f82f-42db-8169-e222b4f797c0.0</parameter><parameter name="XPP">C:\Users\Public\Documents\Bruker\OPUS_8.2.28\XPM</parameter><parameter name="IST">OK</parameter><parameter name="CPG">1252</parameter><parameter name="UID">b254026f-62a7-40cb-9d75-9ffc911cd69d</parameter></Sample_Parameters_><Instrument_Parameters_><parameter name="HFL">15800.168544</parameter><parameter name="LFL">0</parameter><parameter name="LWN">15800.168544</parameter><parameter name="ABP">32197</parameter><parameter name="SSP">1</parameter><parameter name="ASG">2</parameter><parameter name="ARG">2</parameter><parameter name="ASS">32</parameter><parameter name="GFW">16</parameter><parameter name="GBW">16</parameter><parameter name="BFW">0</parameter><parameter name="BBW">0</parameter><parameter name="PKA">7779</parameter><parameter name="PKL">4988</parameter><parameter name="PRA">8013</parameter><parameter name="PRL">4993</parameter><parameter name="P2A">1</parameter><parameter name="P2L">1</parameter><parameter name="P2R">1</parameter><parameter name="P2K">1</parameter><parameter name="DAQ">0</parameter><parameter name="AG2">1</parameter><parameter name="SSM">1</parameter><parameter name="RSN">13605</parameter><parameter name="CRR">0</parameter><parameter name="SRT">1654084522.544</parameter><parameter name="DUR">19.6389923095703</parameter><parameter name="TSC">29</parameter><parameter name="MVD">0.281536430120468</parameter><parameter name="AN1">0.225794685028733</parameter><parameter name="AN2">0</parameter><parameter name="VSN">2.485 Apr  4 2017</parameter><parameter name="SRN">0085</parameter><parameter name="CAM">0</parameter><parameter name="INS">IR-Biotyper</parameter><parameter name="FOC">69</parameter><parameter name="RDY">1</parameter></Instrument_Parameters_><History/></OPUSDataFile>
