<?xml version="1.0" encoding="UTF-8" ?>
<OPUSDataFile><AB><Ydata ylabel="Absorbance Units"><values byteorder="INTEL" format="FLOAT32" numvalues="3497"> -0.08573073 -0.08574303 -0.08575359 -0.0857637 -0.08575307 -0.08572068 -0.08566617 -0.08559093 -0.08551162 -0.08543063
 -0.08537115 -0.08533236 -0.08532593 -0.08534469 -0.08537845 -0.08541957 -0.08544893 -0.08546935 -0.08547439 -0.0854755
 -0.08548027 -0.08549422 -0.08552463 -0.08556443 -0.08561353 -0.08566174 -0.08570619 -0.08574245 -0.08576901 -0.08578706
 -0.0857963 -0.08580206 -0.08580466 -0.08581136 -0.08582239 -0.08584243 -0.08587074 -0.08590606 -0.08594621 -0.08598332
 -0.08601476 -0.08602967 -0.08602875 -0.08600606 -0.08596966 -0.0859246 -0.08588277 -0.08585602 -0.08584832 -0.08586777
 -0.08590379 -0.08595724 -0.08600593 -0.08604522 -0.08605609 -0.08603272 -0.08598065 -0.08589792 -0.08581959 -0.08574752
 -0.08571827 -0.08573131 -0.08578947 -0.08588703 -0.08599081 -0.08609734 -0.08617464 -0.08622766 -0.08625092 -0.08625375
 -0.08624812 -0.08624304 -0.08625434 -0.08628408 -0.08634326 -0.08641666 -0.08650266 -0.08657508 -0.08662163 -0.0866357
 -0.08660852 -0.08656731 -0.08651369 -0.08648078 -0.08647262 -0.08650195 -0.08656974 -0.08667019 -0.0868023 -0.08695287
 -0.08711889 -0.08727754 -0.08742248 -0.08751711 -0.08756048 -0.08752607 -0.0874311 -0.08728885 -0.08712386 -0.08697131
 -0.08684136 -0.08675913 -0.08670761 -0.08668901 -0.08666916 -0.08663257 -0.08657062 -0.08647106 -0.08637381 -0.08628184
 -0.08624135 -0.08626001 -0.08633023 -0.08645225 -0.08656763 -0.08667475 -0.08673629 -0.08675889 -0.08676501 -0.08676235
 -0.08679462 -0.08685642 -0.08696124 -0.0870889 -0.08721119 -0.08731411 -0.08736408 -0.0873741 -0.08734111 -0.08728687
 -0.08722475 -0.08716094 -0.08710037 -0.0870458 -0.08699508 -0.08696996 -0.08697134 -0.08703484 -0.08716604 -0.08736977
 -0.08764754 -0.08788856 -0.08808481 -0.08808087 -0.08789644 -0.08757856 -0.0871587 -0.08678569 -0.08646082 -0.08626298
 -0.08617694 -0.08621852 -0.08635511 -0.08656269 -0.08679122 -0.08699229 -0.08713403 -0.08717459 -0.08714287 -0.0870336
 -0.08690555 -0.08677575 -0.08666746 -0.08658952 -0.08653269 -0.08649662 -0.08647638 -0.08647159 -0.08648644 -0.0865206
 -0.08657011 -0.08663309 -0.08669496 -0.08675446 -0.08679958 -0.08682929 -0.08683623 -0.0868172 -0.08676187 -0.08667265
 -0.08654366 -0.08639224 -0.08622739 -0.08607298 -0.08594438 -0.08585799 -0.08582572 -0.08584632 -0.08592529 -0.08603937
 -0.08618795 -0.08633503 -0.08647751 -0.08658152 -0.08664482 -0.0866439 -0.08657925 -0.08645499 -0.08627588 -0.08607509
 -0.08585633 -0.08565205 -0.08546099 -0.08529581 -0.08515507 -0.08504178 -0.08495506 -0.08489806 -0.08486066 -0.08483884
 -0.08481378 -0.08477174 -0.08470795 -0.08461318 -0.08450621 -0.08438925 -0.08428253 -0.08419064 -0.08411992 -0.08407146
 -0.08404914 -0.08405326 -0.08408746 -0.08415087 -0.08423032 -0.084322 -0.08439271 -0.08444133 -0.08444268 -0.08440484
 -0.08433401 -0.084242 -0.08415312 -0.08407267 -0.08401854 -0.0839866 -0.08397866 -0.08399205 -0.08402175 -0.08408102
 -0.08417447 -0.08431035 -0.08449956 -0.08470386 -0.08492339 -0.08508941 -0.08519286 -0.08520878 -0.08513474 -0.08497661
 -0.08473467 -0.08440896 -0.08400614 -0.0835686 -0.08311035 -0.08271134 -0.08237626 -0.0821624 -0.08205598 -0.08206856
 -0.08215865 -0.08228321 -0.08240067 -0.08245057 -0.08244559 -0.08237004 -0.08226606 -0.08214997 -0.08203927 -0.08194702
 -0.08185222 -0.08175457 -0.08162478 -0.08145762 -0.08125758 -0.08102414 -0.08078849 -0.08055231 -0.08034609 -0.08017053
 -0.08004793 -0.07997326 -0.07994511 -0.07994415 -0.07991815 -0.07985494 -0.07969788 -0.07947336 -0.07919119 -0.07887728
 -0.07856493 -0.07824472 -0.07792307 -0.0775781 -0.07719792 -0.07678656 -0.0763379 -0.07588436 -0.07543075 -0.07500208
 -0.07460416 -0.07422389 -0.07386161 -0.07346382 -0.07302861 -0.07251616 -0.07193513 -0.07132994 -0.07070973 -0.07014143
 -0.06961399 -0.06913113 -0.06868125 -0.06824429 -0.06781517 -0.06738622 -0.06693508 -0.06644624 -0.06588271 -0.0652116
 -0.06443461 -0.06353821 -0.06255923 -0.06150924 -0.06039317 -0.05921283 -0.05797292 -0.05667106 -0.05534809 -0.05400668
 -0.05267059 -0.05133988 -0.05000917 -0.0486799 -0.04736044 -0.04605384 -0.0447809 -0.04353608 -0.04231683 -0.04111293
 -0.03990622 -0.03868505 -0.03743746 -0.03612548 -0.03471631 -0.03316855 -0.03142344 -0.02954992 -0.02754713 -0.02554194
 -0.02358387 -0.0216808 -0.01984853 -0.0180298 -0.01621842 -0.01438717 -0.01253317 -0.01066381 -0.008780397 -0.006911961
 -0.005058911 -0.00324693 -0.001458966 0.0003542575 0.002227819 0.004303114 0.006551797 0.009017587 0.01158092 0.01408475
 0.0165017 0.01872399 0.02085051 0.02291114 0.02498845 0.02713849 0.02934775 0.03163278 0.0339204 0.03619615
 0.03842921 0.04060861 0.04278234 0.04495183 0.0471982 0.04952293 0.05194606 0.0544562 0.05697232 0.05948753
 0.06192356 0.06429518 0.0666034 0.06886323 0.07110333 0.0733323 0.07556887 0.07782913 0.08013821 0.08249172
 0.08490447 0.08733083 0.08974909 0.09215057 0.09451506 0.09691451 0.09936243 0.1018946 0.1045271 0.1071644
 0.1098015 0.1123429 0.1147884 0.1171618 0.1194709 0.1217886 0.1241162 0.1265004 0.1289293 0.1313996
 0.1338868 0.1363381 0.1387498 0.1410772 0.1433775 0.1456773 0.1480545 0.1505844 0.1532453 0.156069
 0.1589259 0.1617811 0.1645592 0.1672312 0.169819 0.1723198 0.1747756 0.1771886 0.1795995 0.18201
 0.1844503 0.1869181 0.1894089 0.1919195 0.1944308 0.1969472 0.1994721 0.2020081 0.2045655 0.2071342
 0.2097056 0.2122691 0.2148093 0.2173278 0.2198183 0.2222945 0.224759 0.2272304 0.2297186 0.2322169
 0.2347309 0.2372167 0.2396681 0.2420658 0.2444061 0.2467395 0.2490686 0.2514439 0.253861 0.2563028
 0.2587645 0.2612124 0.2636515 0.2660818 0.2685023 0.2709133 0.2733066 0.2756679 0.2780015 0.2803054
 0.2825879 0.2848552 0.2871068 0.2893422 0.2915674 0.2937846 0.2959959 0.2982066 0.3003862 0.3025314
 0.3046181 0.3066426 0.3086374 0.3106045 0.312592 0.3145994 0.3166429 0.3187209 0.3208377 0.3229873
 0.3251609 0.3273381 0.3294725 0.3315547 0.3335427 0.3354657 0.337335 0.3391804 0.3410314 0.3428809
 0.3447332 0.3465765 0.348406 0.3502238 0.3520311 0.3538196 0.3555878 0.3573374 0.3590672 0.3608128
 0.3625751 0.3643673 0.3661844 0.3679868 0.3697745 0.3715234 0.3732446 0.3749617 0.3766746 0.3783986
 0.3801182 0.3818173 0.383488 0.3851149 0.3867013 0.3882422 0.3897514 0.3912295 0.3927051 0.3941887
 0.39569 0.3972181 0.3987388 0.4002483 0.4017246 0.4031641 0.4045987 0.4060297 0.4074811 0.4089497
 0.4104124 0.4118694 0.4133084 0.4147354 0.4161672 0.417598 0.4190248 0.420439 0.421822 0.423184
 0.424529 0.4258628 0.4271972 0.4285101 0.4297943 0.4310321 0.4322113 0.4333484 0.4344419 0.4355254
 0.4366017 0.4377064 0.4388424 0.4400344 0.4412826 0.442571 0.4438955 0.4452122 0.4465213 0.4478026
 0.4490576 0.4502847 0.4514757 0.4526098 0.4536866 0.4546873 0.4556414 0.4565684 0.4575004 0.4584733
 0.4594749 0.4605178 0.4615489 0.4625551 0.4634929 0.4643438 0.4651276 0.4658383 0.466558 0.4672936
 0.4680942 0.4689598 0.4698181 0.4706607 0.4713712 0.4719614 0.4724204 0.4727801 0.4731364 0.4735015
 0.473955 0.4744745 0.4750643 0.4756932 0.4763287 0.4769581 0.4775543 0.4781449 0.478726 0.4793629
 0.4800777 0.4809056 0.4818712 0.4829074 0.4840167 0.4850643 0.486039 0.4868511 0.4874979 0.4880003
 0.4883674 0.4886942 0.4889854 0.4893176 0.4896813 0.4900842 0.4905219 0.4909804 0.49148 0.4920469
 0.4926878 0.4934365 0.4942369 0.4950683 0.4958597 0.4965582 0.4971781 0.4976985 0.4982118 0.4987346
 0.4993338 0.5000269 0.5007963 0.501645 0.5024911 0.5033298 0.504063 0.5046911 0.5051715 0.5055244
 0.5058213 0.5060936 0.5064815 0.5069909 0.5077149 0.5086104 0.5096663 0.5108085 0.5119592 0.5130636
 0.5140474 0.5149288 0.5156826 0.5163957 0.5170888 0.5178366 0.5186644 0.5195801 0.5205888 0.5216804
 0.5228529 0.5241299 0.5255122 0.5270072 0.5286061 0.5302264 0.5318484 0.5333255 0.5346516 0.5357192
 0.536561 0.5371813 0.5376476 0.5380588 0.5384705 0.5389907 0.5396012 0.5403439 0.5411159 0.5418907
 0.5425421 0.5430213 0.5432581 0.5432175 0.5429338 0.5423971 0.5417345 0.5409541 0.5401852 0.5394334
 0.5387323 0.538076 0.5374122 0.5367392 0.5360165 0.5352566 0.5344808 0.5336958 0.5329378 0.5321769
 0.5313992 0.5305325 0.5295026 0.528241 0.5266609 0.524778 0.5225518 0.5201143 0.5174866 0.5148343
 0.5122011 0.5096719 0.5072708 0.5049838 0.5028138 0.5007101 0.4986702 0.4966439 0.4946297 0.4925888
 0.4905278 0.4884563 0.486392 0.4844019 0.4824894 0.4807078 0.4790192 0.4773966 0.4757854 0.4741094
 0.4723618 0.4704947 0.4685824 0.4666356 0.464768 0.4630233 0.461461 0.4601185 0.4589274 0.4578957
 0.4568515 0.4557814 0.4545438 0.4531322 0.4515573 0.4498307 0.4480893 0.4463419 0.4447135 0.4431909
 0.4418 0.4405169 0.4393011 0.4381372 0.4369844 0.4358371 0.4346756 0.4334971 0.4322933 0.4310654
 0.4298093 0.4285376 0.4272506 0.4259713 0.4247046 0.4234674 0.4222649 0.4210879 0.4199375 0.4187822
 0.4176205 0.4164266 0.4152012 0.4139435 0.4126559 0.4113513 0.4100313 0.4087071 0.4073798 0.4060574
 0.4047396 0.4034322 0.402127 0.4008204 0.3994972 0.3981439 0.396755 0.3953196 0.3938547 0.3923616
 0.3908665 0.3893771 0.3879023 0.3864463 0.3849972 0.3835546 0.3821062 0.3806514 0.3791888 0.3777186
 0.3762444 0.3747669 0.3732919 0.3718209 0.3703629 0.368918 0.3674924 0.3660811 0.3646795 0.3632825
 0.36188 0.3604795 0.359078 0.3577002 0.3563551 0.3550719 0.3538664 0.3527403 0.3517058 0.3507076
 0.3497455 0.3487242 0.3476351 0.3464108 0.3450476 0.3435631 0.341965 0.3403482 0.3387239 0.3372074
 0.3357981 0.3345653 0.3334783 0.332513 0.3316128 0.3306753 0.3296677 0.3284965 0.3272088 0.325795
 0.3243543 0.3229413 0.3216025 0.3203796 0.3192286 0.3181457 0.317093 0.3160551 0.3150868 0.3141893
 0.3134497 0.3128726 0.3124495 0.3121703 0.3119057 0.3116421 0.3112287 0.3106724 0.3099077 0.3089707
 0.3079055 0.3067597 0.3056321 0.304543 0.303563 0.3026632 0.3018485 0.3010752 0.3003144 0.299565
 0.2988142 0.2980971 0.2974232 0.2967992 0.2962318 0.295685 0.2951551 0.2946263 0.2940974 0.2936015
 0.2931401 0.2927445 0.2924094 0.2921203 0.2918693 0.2916194 0.2913703 0.2911026 0.2908211 0.2905275
 0.290219 0.2899 0.2895473 0.289152 0.2886711 0.2880793 0.2873489 0.2864525 0.2854312 0.2842767
 0.2831011 0.2819181 0.2808322 0.2798591 0.2790063 0.2782751 0.2775685 0.2768798 0.2760926 0.2752112
 0.2741951 0.2730652 0.2718737 0.2706412 0.2694462 0.2682873 0.2672022 0.266169 0.2651791 0.2642084
 0.2632347 0.2622444 0.2612215 0.2601717 0.2590883 0.2580026 0.2569191 0.2558731 0.2548754 0.2539137
 0.2529919 0.2520396 0.251053 0.2499815 0.248829 0.2476406 0.2464272 0.2452856 0.2442074 0.2432212
 0.2422937 0.2413552 0.2403894 0.2393249 0.2381966 0.2370108 0.2358205 0.2346758 0.2335915 0.2325944
 0.2316647 0.2307975 0.2299905 0.2292379 0.2285673 0.2279838 0.2274993 0.2271191 0.2267991 0.2265376
 0.2262472 0.225924 0.2254923 0.2249579 0.2243122 0.2235751 0.2228123 0.2220462 0.2213654 0.2207769
 0.2203351 0.220029 0.2198679 0.2198354 0.2199208 0.2201145 0.2204069 0.2208002 0.2212919 0.2218895
 0.2225953 0.2234105 0.2243354 0.2253699 0.2265116 0.2277889 0.229203 0.2308199 0.2326422 0.2347244
 0.2370586 0.2396262 0.2424075 0.2453189 0.2483478 0.2514167 0.2545338 0.2576762 0.2608616 0.2641039
 0.2674099 0.2707907 0.2742456 0.2777721 0.2813877 0.2850935 0.2889245 0.2928936 0.2970042 0.301268
 0.305614 0.3100421 0.314424 0.318753 0.3228745 0.3267757 0.3302504 0.3332733 0.3355707 0.337137
 0.3377647 0.33755 0.3365693 0.3350549 0.3334022 0.331879 0.3309658 0.3307996 0.331685 0.3335472
 0.3364604 0.3401989 0.3447146 0.3497465 0.3552296 0.3609377 0.3668227 0.3727462 0.378681 0.3846425
 0.390628 0.3968137 0.4032144 0.4100851 0.4174416 0.4255165 0.4343081 0.4439535 0.4544005 0.4656351
 0.4774923 0.4897836 0.5020961 0.5140521 0.5247609 0.5335783 0.5391746 0.5406156 0.537096 0.5277811
 0.5136728 0.4945659 0.4730434 0.4494189 0.4262334 0.4038121 0.3835111 0.3654439 0.3497638 0.336442
 0.3249821 0.3153278 0.3068741 0.299587 0.2930199 0.2871552 0.2817288 0.2767271 0.2720087 0.2675686
 0.2633432 0.2593451 0.2555618 0.2520143 0.2487127 0.2456675 0.242886 0.2403693 0.2381164 0.2361405
 0.2344413 0.2330472 0.2319619 0.2311973 0.230755 0.2305982 0.2307208 0.2310264 0.2314994 0.2319908
 0.2324817 0.232812 0.2329851 0.2329106 0.2326452 0.2322268 0.2317643 0.2313921 0.2312307 0.231421
 0.2320545 0.233216 0.2349733 0.2373492 0.2404745 0.2443472 0.2492759 0.2552957 0.2627836 0.2718264
 0.2822463 0.2940679 0.3056604 0.3168602 0.3245955 0.3287589 0.3268842 0.31945 0.3068826 0.2900897
 0.2716628 0.2521895 0.2339808 0.2170421 0.2023476 0.1895636 0.178745 0.1695125 0.1616627 0.1549156
 0.1491218 0.1440879 0.1397448 0.1359315 0.1326151 0.1296589 0.1270455 0.1246738 0.1225362 0.1205636
 0.118753 0.1170578 0.1154769 0.1139805 0.1125685 0.1112239 0.1099482 0.1087362 0.1075906 0.1065165
 0.10551 0.1045745 0.1036887 0.1028404 0.1019975 0.1011352 0.1002428 0.09930202 0.09834726 0.09737941
 0.09645424 0.09558441 0.09479113 0.09408239 0.09341971 0.09280175 0.09216813 0.09151746 0.09082726 0.09010264
 0.08937168 0.08863752 0.08793216 0.08724558 0.08656892 0.08588762 0.08516592 0.08440818 0.08359827 0.08276542
 0.08192702 0.0811149 0.08035511 0.07965933 0.07904193 0.07849129 0.07801121 0.07756869 0.07716185 0.07674148
 0.07630183 0.0758069 0.07525301 0.0746503 0.0740009 0.07335153 0.07270432 0.07209805 0.07152936 0.0710053
 0.07052062 0.07006491 0.06963435 0.06921773 0.06881142 0.06840613 0.06800033 0.06758711 0.06717439 0.06676243
 0.06636735 0.0659973 0.06565771 0.06535657 0.0650701 0.06479833 0.06449974 0.06416848 0.06378587 0.06334914
 0.06288563 0.06239755 0.0619313 0.0614865 0.06108318 0.06071505 0.06036597 0.06003043 0.05968298 0.05932659
 0.05895229 0.05857194 0.05819668 0.05783778 0.05751348 0.05721627 0.05695367 0.05669219 0.05642216 0.05610777
 0.05573323 0.05529528 0.05478637 0.05423953 0.05365643 0.05307727 0.05250513 0.05196173 0.05144744 0.05096337
 0.05050792 0.05006951 0.04964643 0.04922471 0.04880491 0.04838036 0.04795497 0.04753302 0.04711763 0.04671606
 0.04632573 0.04594767 0.04557643 0.04520774 0.04484195 0.04447699 0.04411925 0.0437708 0.0434333 0.04310878
 0.04278798 0.04247021 0.04214596 0.04181425 0.0414768 0.04113404 0.04079726 0.0404675 0.04015839 0.03987014
 0.03961254 0.0393817 0.03917453 0.03898074 0.03878008 0.03856258 0.03830413 0.03800688 0.0376614 0.03728186
 0.03687367 0.03645084 0.0360206 0.03559179 0.03516726 0.03475742 0.03436417 0.03399795 0.03366102 0.03335238
 0.03307259 0.03280609 0.032552 0.03229299 0.03202894 0.03175127 0.03146092 0.03115712 0.03084137 0.03051661
 0.03018606 0.02985648 0.02953244 0.02922342 0.02893062 0.0286602 0.0284063 0.02816796 0.02793667 0.02770786
 0.02747861 0.02724652 0.0270138 0.0267808 0.02654746 0.02631414 0.0260771 0.0258361 0.02558853 0.02533438
 0.02507436 0.02480878 0.02454064 0.02427044 0.02400232 0.02373591 0.0234731 0.0232114 0.02294686 0.02267731
 0.0223968 0.02210819 0.02181074 0.02151152 0.02121504 0.02092575 0.0206475 0.0203791 0.02012111 0.01987124
 0.01962902 0.01939371 0.01916525 0.01894258 0.0187257 0.01851181 0.01830072 0.01808914 0.01787689 0.01766109
 0.0174417 0.01721666 0.01698665 0.01675191 0.01651454 0.01627851 0.01604616 0.01582303 0.01560849 0.0154053
 0.015208 0.01501467 0.0148182 0.01461435 0.0144012 0.01417596 0.0139452 0.01370914 0.0134775 0.01325175
 0.01303663 0.01283283 0.01263737 0.01245006 0.01226575 0.01208461 0.01190578 0.01172991 0.01155977 0.01139519
 0.01123747 0.0110853 0.01093659 0.01079043 0.01064452 0.01049894 0.01035315 0.01020688 0.01005996 0.009911628
 0.009761277 0.00960935 0.009455694 0.009301614 0.00914749 0.008993329 0.008839243 0.008684369 0.008528573 0.00837292
 0.008217527 0.00806596 0.007918365 0.007777664 0.007643542 0.007516181 0.007394887 0.007277938 0.007164227 0.007050878
 0.00693667 0.006818364 0.006696206 0.006568417 0.006438314 0.006307063 0.006179103 0.006057098 0.005942451 0.005836833
 0.005737156 0.00564322 0.005551451 0.005461274 0.00537119 0.005281044 0.005189912 0.005097707 0.005002067 0.004902905
 0.004798183 0.004688361 0.004574495 0.004457306 0.00434004 0.004221955 0.004104096 0.003982883 0.003853466 0.00371363
 0.003557228 0.003390411 0.003213267 0.003039003 0.002874477 0.002725833 0.002598966 0.002483934 0.002380781 0.002273663
 0.002159858 0.002034281 0.001895906 0.001750974 0.001599784 0.001448712 0.001297664 0.001147801 0.0009992555 0.0008528169
 0.0007098112 0.0005748019 0.0004488165 0.0003373097 0.0002376882 0.0001499998 6.741983E-05 -1.634289E-05 -0.0001079048 -0.0002147814
 -0.0003368565 -0.0004773414 -0.000629136 -0.0007911663 -0.0009553465 -0.001119648 -0.001279703 -0.001434477 -0.001583249 -0.001725785
 -0.001863591 -0.00199678 -0.002128887 -0.002260099 -0.002393829 -0.002529738 -0.002668256 -0.002808243 -0.002946316 -0.003081728
 -0.00321079 -0.003334567 -0.00345254 -0.003567299 -0.00368125 -0.003796384 -0.003915129 -0.00403742 -0.004164158 -0.004293581
 -0.004425498 -0.004557581 -0.004689268 -0.004819119 -0.004946576 -0.00507347 -0.005199812 -0.005329167 -0.005461663 -0.005597573
 -0.005736524 -0.005874726 -0.006011894 -0.006144521 -0.006272821 -0.006395585 -0.006513267 -0.00662588 -0.006734744 -0.006841263
 -0.006948037 -0.00705851 -0.007173571 -0.007295625 -0.007422222 -0.007552802 -0.00768519 -0.007817821 -0.007952971 -0.008090713
 -0.008234195 -0.00838444 -0.008538596 -0.008696899 -0.008849445 -0.008995733 -0.009126715 -0.009242922 -0.009345992 -0.009438219
 -0.009532517 -0.009630361 -0.009744434 -0.009872132 -0.01001489 -0.01016747 -0.01032226 -0.01047666 -0.01062432 -0.0107671
 -0.01090418 -0.01103846 -0.01117163 -0.0113038 -0.01143593 -0.01156502 -0.01169054 -0.01181011 -0.01192281 -0.01203171
 -0.01213668 -0.01224645 -0.01236148 -0.0124887 -0.01262788 -0.01277867 -0.01294062 -0.01311061 -0.01328973 -0.01347926
 -0.013682 -0.01390458 -0.01414927 -0.01442233 -0.01472498 -0.01505946 -0.01543048 -0.01583815 -0.01629945 -0.01681861
 -0.01742392 -0.01812667 -0.01894169 -0.0198804 -0.0209137 -0.02204444 -0.02320123 -0.02437925 -0.02550751 -0.02658235
 -0.02756943 -0.0284686 -0.0292713 -0.02997191 -0.030542 -0.03096235 -0.03115626 -0.031105 -0.03070963 -0.03001411
 -0.02901288 -0.02783524 -0.02661216 -0.0254513 -0.02447981 -0.02372719 -0.02324259 -0.02301805 -0.02306679 -0.02335006
 -0.02387785 -0.02452321 -0.02528093 -0.02595193 -0.02651437 -0.02689284 -0.02708379 -0.02718397 -0.02719837 -0.02721651
 -0.02723165 -0.02725246 -0.02726953 -0.02725478 -0.02720652 -0.02710523 -0.02695801 -0.02676692 -0.0265401 -0.02628741
 -0.02601322 -0.02572265 -0.02542144 -0.02511149 -0.02480498 -0.02450547 -0.02422569 -0.02396924 -0.02374356 -0.02355071
 -0.02339087 -0.02326483 -0.02316228 -0.02308263 -0.02300713 -0.02293538 -0.02285617 -0.02277167 -0.02268782 -0.02260736
 -0.02254353 -0.02249567 -0.02246996 -0.0224616 -0.02246633 -0.02247852 -0.02248936 -0.02249879 -0.02250177 -0.02250728
 -0.02251814 -0.02254321 -0.02258843 -0.0226487 -0.02272584 -0.02280308 -0.02287791 -0.02294039 -0.0229887 -0.02302822
 -0.0230592 -0.02309261 -0.02312879 -0.02317466 -0.02323014 -0.02329854 -0.02337935 -0.02347351 -0.02357871 -0.02369092
 -0.02380625 -0.02391666 -0.02401995 -0.02410978 -0.02418824 -0.02425408 -0.02431248 -0.02436582 -0.0244176 -0.02446998
 -0.02452279 -0.02457632 -0.02463004 -0.02468356 -0.02473955 -0.02479826 -0.02486139 -0.02492903 -0.02499667 -0.02506378
 -0.02512242 -0.02517287 -0.02521222 -0.0252423 -0.02526795 -0.02529073 -0.02531743 -0.02534665 -0.02537977 -0.02541339
 -0.02544357 -0.02546996 -0.0254896 -0.02550772 -0.02552593 -0.02554964 -0.02558225 -0.02562189 -0.02566946 -0.02571839
 -0.02576762 -0.02581371 -0.02585603 -0.02589591 -0.02593339 -0.02597046 -0.02600713 -0.02604387 -0.02608047 -0.02611594
 -0.02614997 -0.02618072 -0.02620863 -0.02623325 -0.0262565 -0.02628124 -0.02630904 -0.02634328 -0.02638302 -0.02642912
 -0.02647872 -0.02653055 -0.02658241 -0.02663309 -0.02668202 -0.02672859 -0.02677412 -0.02681857 -0.02686449 -0.02691217
 -0.02696283 -0.02701658 -0.02707053 -0.02712436 -0.02717268 -0.02721555 -0.02725018 -0.02727775 -0.02730071 -0.02732088
 -0.02734408 -0.02737078 -0.02740484 -0.02744479 -0.02749049 -0.02754033 -0.02759272 -0.02764747 -0.02770411 -0.02776247
 -0.02782269 -0.0278833 -0.02794401 -0.02800359 -0.02806176 -0.02811833 -0.02817331 -0.02822615 -0.02827684 -0.0283242
 -0.02836822 -0.02840838 -0.02844467 -0.02847658 -0.02850431 -0.02852794 -0.02854843 -0.02856793 -0.02858759 -0.02861068
 -0.02863659 -0.02866607 -0.0286977 -0.02872993 -0.02876393 -0.02879919 -0.02883961 -0.02888687 -0.02894212 -0.02900692
 -0.02907619 -0.02914986 -0.02921961 -0.02928444 -0.02934029 -0.02938679 -0.0294292 -0.02946812 -0.02951381 -0.029566
 -0.02962892 -0.02970032 -0.02977431 -0.02984857 -0.02991389 -0.02997067 -0.03001466 -0.03004925 -0.030076 -0.03009998
 -0.0301257 -0.03015667 -0.03019699 -0.03024465 -0.03030078 -0.03035876 -0.03041678 -0.03047193 -0.03052267 -0.03057394
 -0.03062598 -0.03068457 -0.03075012 -0.03082101 -0.03089679 -0.03097012 -0.03104075 -0.03110309 -0.03115808 -0.03120591
 -0.03124834 -0.03128978 -0.0313316 -0.03137865 -0.03143007 -0.03148748 -0.03154754 -0.03160826 -0.03166642 -0.03171903
 -0.03176657 -0.03180758 -0.03184743 -0.03188687 -0.03193201 -0.03198438 -0.03204503 -0.03211473 -0.03218677 -0.03226082
 -0.03232675 -0.03238434 -0.03242883 -0.03246136 -0.03248664 -0.03250672 -0.03253194 -0.03256316 -0.03260846 -0.03266595
 -0.03273674 -0.03281673 -0.0329019 -0.03298783 -0.03306942 -0.03314462 -0.03321024 -0.03326812 -0.03331739 -0.03336385
 -0.03340836 -0.03345778 -0.03351356 -0.03357898 -0.03365491 -0.03373802 -0.03382822 -0.03391778 -0.03400642 -0.03408872
 -0.03416524 -0.03423713 -0.03430504 -0.03437262 -0.03443895 -0.03450356 -0.03456542 -0.03462144 -0.03467414 -0.03472449
 -0.03477725 -0.03483753 -0.03490567 -0.03498463 -0.03506856 -0.03515602 -0.0352416 -0.03532299 -0.03540028 -0.03547294
 -0.03554331 -0.03561172 -0.03567816 -0.03574266 -0.03580369 -0.03586119 -0.0359137 -0.03596127 -0.0360033 -0.0360403
 -0.0360735 -0.03610444 -0.03613738 -0.0361742 -0.03622066 -0.03627619 -0.03634372 -0.03641812 -0.0364966 -0.03657342
 -0.03664346 -0.03670713 -0.03676238 -0.03681503 -0.03686667 -0.03691928 -0.03697419 -0.03702665 -0.0370762 -0.03712017
 -0.03715827 -0.03719492 -0.03723036 -0.03726911 -0.03731072 -0.03735411 -0.0373988 -0.03744213 -0.03748446 -0.03752576
 -0.03756559 -0.03760381 -0.03763823 -0.03766571 -0.0376859 -0.03769585 -0.03770107 -0.037703 -0.03770944 -0.0377247
 -0.03774999 -0.03778805 -0.0378299 -0.03787506 -0.03791147 -0.03793748 -0.03794815 -0.03794291 -0.03792531 -0.03789572
 -0.03786159 -0.03782323 -0.03778654 -0.03775112 -0.03771852 -0.0376881 -0.03765857 -0.03763049 -0.03760402 -0.03758059
 -0.03756249 -0.03754929 -0.03754194 -0.03753798 -0.03753632 -0.03753478 -0.03753211 -0.03752752 -0.03752051 -0.03751104
 -0.03749892 -0.03748508 -0.03746973 -0.0374521 -0.03743224 -0.03740538 -0.0373713 -0.03732569 -0.03726918 -0.03720405
 -0.03713134 -0.03705646 -0.03697986 -0.03690505 -0.03683321 -0.03676764 -0.0367105 -0.03666674 -0.03663495 -0.03661735
 -0.0366064 -0.0365991 -0.03658669 -0.0365645 -0.03652901 -0.03647755 -0.03641324 -0.03633572 -0.03625171 -0.03616183
 -0.03607203 -0.03598281 -0.03589568 -0.03581065 -0.03572692 -0.03564472 -0.03556522 -0.03548887 -0.0354183 -0.03535363
 -0.03529688 -0.03524721 -0.03520536 -0.03516678 -0.03512739 -0.03507925 -0.03501252 -0.03492694 -0.03481603 -0.03469429
 -0.03456536 -0.0344439 -0.03433676 -0.03424205 -0.03416194 -0.03408284 -0.0340035 -0.03391289 -0.03381001 -0.0336929
 -0.0335618 -0.03342276 -0.03327651 -0.03313153 -0.0329876 -0.03284841 -0.032713 -0.03258019 -0.03245038 -0.03232385
 -0.03220107 -0.03208364 -0.03196918 -0.03185615 -0.03174253 -0.03162595 -0.03150794 -0.03138887 -0.03126891 -0.03114858
 -0.03102568 -0.03089944 -0.03077158 -0.03064218 -0.03051342 -0.03038562 -0.03025384 -0.03011798 -0.02997591 -0.02982921
 -0.02968971 -0.02955861 -0.02944931 -0.02935774 -0.02928134 -0.02921152 -0.02913076 -0.0290336 -0.0289032 -0.02874495
 -0.02855562 -0.02834836 -0.02813011 -0.0279112 -0.0276987 -0.02749377 -0.02729846 -0.0271103 -0.02692865 -0.02675509
 -0.02658986 -0.02643324 -0.02628546 -0.02614019 -0.02599719 -0.02585242 -0.02570586 -0.0255568 -0.02540316 -0.02523518
 -0.02505137 -0.02483935 -0.02460646 -0.02436025 -0.02410915 -0.02386976 -0.0236402 -0.02342422 -0.02321956 -0.02302459
 -0.0228421 -0.02267507 -0.02251654 -0.02236808 -0.02220833 -0.02203319 -0.02182938 -0.02159342 -0.02133279 -0.02104755
 -0.02075081 -0.02044323 -0.02013646 -0.01983101 -0.0195373 -0.0192539 -0.01898067 -0.0187147 -0.01844692 -0.01817745
 -0.0179026 -0.01762241 -0.01733688 -0.01704177 -0.01673166 -0.01640833 -0.01606858 -0.01572469 -0.01538269 -0.01504526
 -0.01471729 -0.01438398 -0.01404325 -0.01368342 -0.01330172 -0.01290265 -0.0124862 -0.01206067 -0.01162611 -0.01118157
 -0.01072522 -0.01024195 -0.009729153 -0.00916416 -0.00855157 -0.007890329 -0.007191887 -0.006481387 -0.005758055 -0.005035149
 -0.004297577 -0.003533492 -0.002738608 -0.001900873 -0.001040637 -0.0001628855 0.0007118307 0.001572867 0.002425165 0.003263909
 0.004121926 0.005000158 0.005950643 0.00697802 0.008101851 0.009320864 0.01057845 0.01187186 0.01314835 0.01441866
 0.01570377 0.01701669 0.018409 0.01988008 0.02145484 0.02312343 0.02488282 0.02672376 0.02863597 0.03061475
 0.03264621 0.03475686 0.03694472 0.03927515 0.04177671 0.04444955 0.04731777 0.05024117 0.05320453 0.05610495
 0.05892908 0.06173336 0.06452031 0.06734841 0.0702097 0.07305115 0.07587209 0.07862867 0.08135452 0.08413234
 0.08697765 0.08998886 0.09309184 0.09622705 0.0993237 0.1022633 0.1050998 0.1078229 0.1105263 0.1132581
 0.1160466 0.1189146 0.1218449 0.1248255 0.1279152 0.1311065 0.1345903 0.1383854 0.1425384 0.1470404
 0.1515004 0.1559032 0.1599224 0.1636174 0.1671019 0.1704331 0.1738471 0.1773483 0.1810513 0.1849578
 0.189084 0.1935264 0.1983361 0.2037398 0.2099041 0.2169781 0.2251715 0.2341367 0.2438928 0.2537315
 0.2634916 0.2728128 0.2816001 0.2899282 0.2977872 0.3054317 0.3128806 0.3205861 0.3285929 0.3375633
 0.3474247 0.3582976 0.3698375 0.3809736 0.3916511 0.4011118 0.4097895 0.4179997 0.4260671 0.4344811
 0.4432426 0.4525123 0.4621729 0.4721934 0.482541 0.4932356 0.5040822 0.5150703 0.5258755 0.5364272
 0.5467712 0.5569022 0.5669862 0.5770186 0.5866039 0.5956979 0.6036829 0.6106077 0.6163876 0.6211051
 0.62501 0.6280532 0.6302366 0.6315341 0.6318284 0.6313455 0.6302604 0.6287723 0.6270741 0.6252602
 0.6234144 0.6216003 0.6198778 0.6181642 0.6164829 0.6145698 0.6124055 0.6096666 0.6063162 0.6023149
 0.5976698 0.592838 0.587835 0.5830096 0.5783049 0.5736156 0.5688878 0.5638838 0.5586233 0.553
 0.5471371 0.5411561 0.5351897 0.5294418 0.5239073 0.5186542 0.5136155 0.5087425 0.5041181 0.4997294
 0.4957916 0.4923613 0.4895074 0.487262 0.4855077 0.4842384 0.4833456 0.482825 0.4826511 0.4828236
 0.4833358 0.4841786 0.4853046 0.4866978 0.4882836 0.490052 0.4919449 0.4939626 0.4960801 0.4983034
 0.5006278 0.5030649 0.505619 0.5083078 0.5111413 0.5141298 0.51728 0.5205912 0.524067 0.5276912
 0.5314676 0.5353321 0.539281 0.5432394 0.5472052 0.5512261 0.5553134 0.5596274 0.5641384 0.568803
 0.5735278 0.5779596 0.5821046 0.5857763 0.5890906 0.5921737 0.5950227 0.5977142 0.6001219 0.6021574
 0.6038046 0.6050097 0.6058743 0.6064286 0.6067116 0.6067486 0.6064834 0.6059105 0.6049937 0.6037301
 0.6020891 0.6000683 0.5975831 0.5946305 0.5911474 0.5871424 0.5826301 0.5776162 0.5721611 0.5661873
 0.5596158 0.5522224 0.5435568 0.5336923 0.5222588 0.5102641 0.4983513 0.4871367 0.4773041 0.4682604
 0.4599498 0.451841 0.4437438 0.4357099 0.4277079 0.4199632 0.4125037 0.4052872 0.3983105 0.3913548
 0.3844196 0.3774182 0.3703796 0.3634191 0.3565482 0.3498833 0.3433774 0.336984 0.3306586 0.3242979
 0.3179211 0.3115214 0.3050885 0.2986717 0.2920556 0.2851757 0.2777479 0.26952 0.260992 0.2521147
 0.244052 0.2370546 0.2311406 0.2263743 0.2219455 0.2178162 0.213475 0.2089435 0.2042959 0.1995858
 0.1951657 0.191007 0.187203 0.1836879 0.1803278 0.1771624 0.1741683 0.171468 0.1692023 0.1674005
 0.1661496 0.1653741 0.1650469 0.1651465 0.1656316 0.1666236 0.1681015 0.1704001 0.1735275 0.1780682
 0.1840875 0.1918587 0.2013877 0.2115037 0.2220765 0.2311557 0.2387787 0.2441115 0.2473727 0.2488237
 0.2487085 0.2476645 0.245922 0.2441127 0.2423612 0.2410439 0.2401742 0.2399121 0.2401087 0.2407806
 0.2415961 0.2424338 0.2431145 0.2435513 0.2438013 0.2438577 0.243812 0.2436729 0.2434863 0.243255
 0.2429886 0.2426876 0.2423549 0.2419947 0.2416268 0.2412662 0.2409651 0.2407561 0.2407325 0.2409327
 0.2414547 0.2423286 0.2436123 0.2453565 0.247608 0.2504289 0.2538781 0.2579318 0.2626131 0.2678033
 0.2734676 0.2795824 0.2861172 0.2932611 0.3010312 0.3095592 0.3188513 0.3285226 0.3385287 0.348185
 0.3575042 0.366204 0.3743488 0.3820408 0.389263 0.3960566 0.402307 0.4078583 0.4125981 0.4163391
 0.4190311 0.4205732 0.4209656 0.4201701 0.4182504 0.4152006 0.4111613 0.4061359 0.4003832 0.393914
 0.3871483 0.3801225 0.3731956 0.3663886 0.359728 0.3532009 0.3466323 0.3400316 0.3333535 0.3266489
 0.3200836 0.3136738 0.30756 0.3016813 0.2960095 0.2904674 0.2849535 0.2794311 0.2738245 0.2681718
 0.2624489 0.2567889 0.2512228 0.2458999 0.2408732 0.2361702 0.2318151 0.2277058 0.2238356 0.2201081
 0.2165176 0.2130892 0.2098315 0.2068695 0.2042054 0.2019237 0.2 0.1983972 0.1970829 0.1959611
 0.195017 0.1941815 0.1934605 0.1928355 0.1923126 0.1918992 0.1915724 0.1913328 0.191121 0.1909217
 0.1906665 0.1903361 0.1898873 0.1893067 0.1886001 0.1877631 0.1868592 0.1858917 0.1849425 0.1840131
 0.1831409 0.1823216 0.181547 0.1808169 0.1801235 0.1794741 0.1788813 0.1783553 0.1779166 0.1775775
 0.1773582 0.1772718 0.1773377 0.1775533 0.1779322 0.1784313 0.1790502 0.1797011 0.1803696 0.1809547
 0.1814375 0.1817565 0.1819003 0.1818777 0.1816884 0.1813902 0.1809864 0.1805351 0.1800379 0.1795325
 0.1790213 0.1785331 0.1780688 0.1776484 0.1772629 0.17691 0.1765725 0.1762295 0.1758687 0.1754715
 0.1750386 0.1745629 0.1740566 0.1735203 0.1729739 0.1724202 0.1718853 0.1713723 0.1709105 0.1705033
 0.1701708 0.1699145 0.1697241 0.1695969 0.1694887 0.1693964 0.1692758 0.1691321 0.1689584 0.168768
 0.1685885 0.1684329 0.1683339 0.1683033 0.1683647 0.1685338 0.16883 0.1692654 0.1698569 0.1705918
 0.1714787 0.1724635 0.1735423 0.1746294 0.1757121 0.1767171 0.1776335 0.1784447 0.1791487 0.1797774
 0.1803325 0.1808461 0.181317 0.1817519 0.1821496 0.1825076 0.1828289 0.1831206 0.1833832 0.183626
 0.1838334 0.1839973 0.1840827 0.1840612 0.1838998 0.1835677 0.1830653 0.1823789 0.1815452 0.1805679
 0.1794911 0.1783219 0.1770934 0.1758089 0.1744983 0.1731634 0.1718328 0.1705061 0.1691854 0.1678637
 0.1664985 0.1650803 0.1635467 0.1619013 0.1601133 0.1582109 0.1562214 0.1541873 0.1521686 0.1501976
 0.1483227 0.1465521 0.1449058 0.1433738 0.1419593 0.1406407 0.1394167 0.1382528 0.1371451 0.136054
 0.1349746 0.1338843 0.1327813 0.1316769 0.1305738 0.1295126 0.1284976 0.1275775 0.1267542 0.1260625
 0.1255015 0.1250868 0.1248159 0.124694 0.1247133 0.1248702 0.1251459 0.1255242 0.1259903 0.1265239
 0.1271452 0.1278486 0.1286926 0.1296897 0.1308926 0.1323169 0.1339623 0.135835 0.1378759 0.1400825
 0.1423685 0.1447297 0.1470898 0.1494484 0.151763 0.154039 0.1562718 0.1584726 0.1606656 0.1628649
 0.1651067 0.1673989 0.1697694 0.1722089 0.1747238 0.1772895 0.1798963 0.1825166 0.1851384 0.1877396
 0.1903114 0.1928443 0.1953325 0.1977921 0.2002216 0.2026657 0.2051267 0.2076637 0.21028 0.2130353
 0.2159337 0.2190305 0.2223285 0.2258692 0.2296506 0.2336908 0.2379809 0.2425179 0.2472804 0.2522493
 0.2573841 0.2626531 0.2679992 0.273388 0.2787565 0.2840784 0.289289 0.2943703 0.2992595 0.3039445
 0.3083775 0.312552 0.3164369 0.3200299 0.3233058 0.3262645 0.3288989 0.3312156 0.3332516 0.3350223
 0.3366049 0.3380198 0.3393553 0.3406324 0.3419281 0.3432559 0.3446648 0.3461557 0.347744 0.349433
 0.3512245 0.3531353 0.3551739 0.3573466 0.3596627 0.3620931 0.3646375 0.3672471 0.3699175 0.3726034
 0.3753019 0.3779642 0.3805866 0.3831043 0.3855103 0.3877259 0.3897415 0.3914765 0.3929219 0.3940138
 0.3947468 0.3950843 0.3950186 0.3945279 0.3935999 0.3922132 0.3903714 0.3880608 0.3853238 0.3821639
 0.3786586 0.3748221 0.3707459 0.3664448 0.3620045 0.3574352 0.3528007 0.3481056 0.3433966 0.3386767
 0.3340003 0.3293722 0.3248559 0.3204538 0.3162102 0.3121235 0.3082109 0.3044724 0.3009163 0.2975415
 0.2943534 0.2913408 0.2884983 0.2858084 0.2832602 0.2808379 0.2785353 0.2763314 0.2742233 0.2721768
 0.2701874 0.2682184 0.2662648 0.2643044 0.2623349 0.2603607 0.2583836 0.256437 0.2545248 0.2526924
 0.2509402 0.2492962 0.2477541 0.2463128 0.2449606 0.2436782 0.2424497 0.2412501 0.2400601 0.2388585
 0.23762 0.2363303 0.2349488 0.2334625 0.2318154 0.2299907 0.2279445 0.2256628 0.2231417 0.2203759
 0.2173998 0.2142144 0.2108823 0.2074084 0.2038831 0.2003143 0.1968045 0.1933601 0.1900639 0.186918
 0.1839708 0.18122 0.1786852 0.176359 0.1742403 0.1723202 0.1705894 0.1690457 0.1676853 0.1665076
 0.1655159 0.1646912 0.1640355 0.1635007 0.1630848 0.1627096 0.1623705 0.1619613 0.1614753 0.1608065
 0.1599513 0.1588554 0.1575243 0.1559749 0.1542179 0.1523078 0.1502528 0.1481031 0.1458631 0.1435627
 0.141207 0.1388103 0.136389 0.1339565 0.1315462 0.129181 0.1268895 0.1246956 0.1225881 0.1205753
 0.1186095 0.1166841 0.1147536 0.1128101 0.1108382 0.1088352 0.1068193 0.1047925 0.1028042 0.1008599
 0.09902792 0.09731089 0.09576057 0.09436703 0.09313325 0.09203846 0.09104388 0.09013526 0.08927282 0.08846427
 0.0876993 0.08699939 0.08637664 0.08584189 0.08540518 0.08506119 0.0848104 0.08464701 0.0845708 0.0845732
 0.08465561 0.08478681 0.08496542 0.08514623 0.08532742 0.08548252 0.08561212 0.08571131 0.08577816 0.08580193
 0.08577817 0.08568593 0.08552842 0.08529811 0.08500987 0.08467838 0.0843224 0.08396342 0.08361726 0.08329885
 0.08302133 0.08279235 0.08262522 0.08252456 0.08250218 0.08256124 0.08270779 0.08294319 0.08326804 0.08368234
 0.08418991 0.084791 0.08549189 0.08629144 0.08718418 0.08816558 0.08921256 0.09032047 0.09146372 0.09264081
 0.09383734 0.09505195 0.09627854 0.09751182 0.09874602 0.09997322 0.1011871 0.1023812 0.1035507 0.1046933
 0.1058075 0.1068929 0.1079502 0.1089741 0.1099649 0.11091 0.1118085 0.1126479 0.1134278 0.1141414
 0.1147891 0.1153691 0.1158835 0.1163399 0.1167443 0.1171174 0.1174655 0.1178117 0.1181564 0.1185105
 0.1188692 0.1192317 0.1195928 0.1199494 0.1202955 0.1206289 0.1209424 0.1212336 0.121498 0.1217344
 0.1219406 0.1221164 0.1222591 0.1223685 0.1224431 0.122483 0.1224926 0.1224726 0.1224318 0.122371
 0.1222989 0.1222172 0.1221349 0.1220556 0.1219906 0.1219437 0.1219257 0.1219358 0.1219784 0.1220469
 0.1221386 0.1222462 0.1223655 0.122492 0.1226238 0.1227564 0.122889 0.1230176 0.1231411 0.1232627
 0.1233824 0.1235094 0.123644 0.123794 0.1239597 0.1241464 0.1243544 0.1245883 0.1248458 0.1251238
 0.1254168 0.1257133 0.1260072 0.1262866 0.1265431 0.1267641 0.1269436 0.1270671 0.1271545 0.1272025
 0.1272633 0.1273515 0.1275097 0.1277533 0.1280816 0.128498 0.1289822 0.1295327 0.1301388 0.1307995
 0.1314997 0.1322373 0.1329846 0.1337418 0.1344927 0.1352424 0.135998 0.1367632 0.1375516 0.1383574
 0.1391831 0.1400081 0.1408174 0.1415809 0.142271 0.1428774 0.1433797 0.1438119 0.1441756 0.1445245
 0.1448717 0.145244 0.1456494 0.146076 0.1465243 0.1469646 0.1473956 0.1477978 0.1481739 0.1485402
 0.1489037 0.1493092 0.1497553 0.1502662 0.1508257 0.1514117 0.1520114 0.1525922 0.1531611 0.1537111
 0.1542573 0.1548092 0.1553736 0.1559578 0.1565572 0.1571735 0.1577939 0.1584165 0.1590291 0.1596285
 0.1602183 0.160798 0.1613833 0.161975 0.162584 0.1632109 0.1638627 0.1645421 0.1652643 0.1660361
 0.1668821 0.1678184 0.1688849 0.1701094 0.1715511 0.1732244 0.1751817 0.1773752 0.1798174 0.1823612
 0.1849759 0.1874117 0.1896029 0.1912767 0.1923483 0.1927315 0.1923711 0.1915259 0.1902003 0.1888417
 0.1874721 0.1864152 0.1856668 0.185306 0.1853071 0.1855876 0.1861203 0.1867791 0.1875467 0.1883269
 0.1891095 0.1898437 0.190513 0.1910861 0.1915414 0.1918503 0.1920148 0.1920191 0.1919087 0.191688
 0.191425 0.1911327 0.1908737 0.1906584 0.1905277 0.190487 0.1905421 0.1906931 0.1909233 0.1912322
 0.1916127 0.1920627 0.1925733 0.1931322 0.1936955 0.1942513 0.1947485 0.1951905 0.1955612 0.1958648
 0.1961011 0.1962699 0.1963614 0.1964099 0.1964143 0.1964633 0.1965921 0.1968353 0.1972276 0.197651
 0.1980923 0.198467 0.1987622 0.1990092 0.1992097 0.1994208 0.1996439 0.199915 0.2002272 0.2005684
 0.2009205 0.2012189 0.2014486 0.2015409 0.2014999 0.2012982 0.2009551 0.2004757 0.1998921 0.1992206
 0.1985124 0.1977943 0.19711 0.1964843 0.1959202 0.1954236 0.1949846 0.1946008 0.1942827 0.1940319
 0.1938442 0.1937189 0.193603 0.1934925 0.1933248 0.1931005 0.1927894 0.1923959 0.1919156 0.191358
 0.1907371 0.1900744 0.1894074 0.1887556 0.1881573 0.1876111 0.1871312 0.1866996 0.1863152 0.1859449
 0.1855778 0.1851866 0.1847543 0.1843167 0.1838715 0.1834978 0.1832048 0.1830078 0.1829073 0.1828526
 0.1828438 0.1828675 0.1829285 0.1830504 0.1832281 0.1834553 0.1837283 0.1840311 0.1843733 0.1847663
 0.1852093 0.1857109 0.1862535 0.1868257 0.1874178 0.188023 0.1886333 0.1892482 0.1898449 0.1904153
 0.1909593 0.1914708 0.1919952 0.1925354 0.193133 0.1937901 0.1945186 0.1953189 0.1962003 0.1971586
 0.1981799 0.1992495 0.2003044 0.2013455 0.2023308 0.2033005 0.2042967 0.2053605 0.2065612 0.2078961
 0.2093892 0.2110152 0.2127662 0.2146255 0.2165853 0.2186369 0.2207756 0.2230054 0.2253276 0.2277372
 0.2302378 0.2327617 0.235305 0.2377547 0.2401062 0.242278 0.2442679 0.246025 0.2475426 0.2487652
 0.249698 0.2503185 0.2506517 0.2507302 0.2505654 0.2501873 0.249584 0.248753 0.2476923 0.2463959
 0.2448801 0.2431484 0.2412171 0.2390904 0.2367799 0.2342888 0.2316174 0.2287664 0.2257288 0.2225043
 0.2191234 0.2155919 0.2119912 0.2083285 0.2046855 0.2010692 0.1975439 0.1941203 0.1908586 0.1877556
 0.1848377 0.1820826 0.179469 0.176999 0.1746603 0.1724825 0.1704867 0.1686613 0.1670191 0.1654901
 0.1640613 0.1626727 0.1613114 0.1599554 0.1586011 0.1572365 0.1558607</values></Ydata></AB><ScSm><Ydata ylabel="Single channel"><values byteorder="INTEL" format="FLOAT32" numvalues="1814"> 0.07417737 0.07418385 0.07425664 0.07441566 0.07462994 0.07483745 0.07498749 0.07506968 0.07509765 0.07507534
 0.07501075 0.07496004 0.07501115 0.0751995 0.07545754 0.0756589 0.07571553 0.07565519 0.07561015 0.07568856
 0.0758283 0.0758104 0.0754654 0.07486873 0.07429463 0.07396406 0.07390499 0.07410686 0.07465363 0.07547472
 0.07606865 0.07586488 0.07494423 0.07405823 0.07379578 0.07402033 0.07423009 0.0741362 0.07374792 0.07325123
 0.07305554 0.07368704 0.07527156 0.07710291 0.07789062 0.07657011 0.07306463 0.06853645 0.06496232 0.06406926
 0.06611119 0.0695232 0.07210024 0.0727568 0.07204074 0.07101481 0.07011981 0.06931652 0.06881717 0.06911524
 0.07030076 0.07160952 0.07181962 0.07029189 0.06772991 0.06568304 0.06513686 0.06589581 0.06740922 0.06936905
 0.07086817 0.06992951 0.06545831 0.05969217 0.05718613 0.06047543 0.06737226 0.07311402 0.07459695 0.07209517
 0.06786242 0.06427358 0.06294302 0.06428609 0.06743225 0.07094821 0.07371332 0.07497444 0.07414774 0.07132511
 0.06777901 0.06534714 0.06529924 0.06783821 0.07206159 0.07604674 0.07772566 0.07641485 0.07326767 0.07005518
 0.06800416 0.06780895 0.06980019 0.07359334 0.0780749 0.08205102 0.08472876 0.0857923 0.08547316 0.08440365
 0.08313357 0.08204436 0.08168529 0.08242782 0.08358188 0.08367097 0.0820442 0.07974581 0.07843651 0.07867622
 0.07948081 0.0795173 0.07845204 0.07671443 0.07416864 0.07010687 0.06487087 0.06026598 0.05775236 0.05733959
 0.05866494 0.06155751 0.06477958 0.06596592 0.06422205 0.06176144 0.06170601 0.06475464 0.06883495 0.07162715
 0.07270093 0.07333656 0.07487562 0.0773525 0.07932571 0.07896984 0.07589681 0.07216425 0.07081155 0.07287544
 0.07639654 0.0788186 0.07967076 0.08027819 0.08144867 0.08222958 0.08090976 0.07705703 0.07260779 0.07067339
 0.07283372 0.07755212 0.08129046 0.08114007 0.07678066 0.07052569 0.06550905 0.06352489 0.06454742 0.06791623
 0.07304899 0.07884776 0.08341913 0.08513944 0.08385003 0.08072845 0.07696115 0.07267878 0.06758698 0.06272607
 0.06066991 0.06307732 0.06855389 0.07381867 0.07663733 0.07692723 0.07546552 0.07251102 0.06800343 0.0628208
 0.05918001 0.05892545 0.06131544 0.06344241 0.06327137 0.0614854 0.05999073 0.05953536 0.05944351 0.0590594
 0.05865973 0.05894861 0.06004675 0.06122066 0.06160111 0.06098371 0.05985241 0.05880272 0.05801491 0.05715076
 0.05583655 0.0544028 0.05385525 0.05476718 0.05648013 0.05778438 0.05813666 0.05784482 0.05726739 0.05622763
 0.05430761 0.05165238 0.04930475 0.04843621 0.04920668 0.05066319 0.05174112 0.05203184 0.0516624 0.05090737
 0.05001216 0.04911415 0.04827331 0.04763728 0.04740634 0.04753783 0.04768983 0.04756512 0.04714823 0.0465549
 0.045827 0.04496101 0.04404189 0.0432594 0.04277555 0.04259069 0.04256739 0.04256214 0.04247458 0.04221086
 0.04172138 0.04108157 0.0404409 0.03988756 0.03942761 0.03906928 0.03884134 0.03872427 0.03862504 0.0384479
 0.03817143 0.03783924 0.03748938 0.03712111 0.03673006 0.03634556 0.03601963 0.0357854 0.03562187 0.03546474
 0.03527471 0.03508137 0.03492081 0.03475396 0.03450654 0.03417528 0.03383686 0.03356034 0.03335347 0.03318155
 0.03300172 0.0327786 0.03248927 0.03213695 0.03177486 0.03149591 0.03136297 0.03135559 0.031404 0.03144694
 0.03143848 0.03134759 0.03118631 0.03100291 0.03082431 0.03063396 0.03041399 0.03018337 0.02999124 0.02988161
 0.02985392 0.0298571 0.02983539 0.02977096 0.02967476 0.02956451 0.02946445 0.02939242 0.02933247 0.02924838
 0.02913081 0.02900872 0.02891512 0.02885649 0.02880977 0.02874471 0.02865856 0.02858374 0.02854898 0.02854502
 0.02854055 0.02851636 0.02847261 0.0284157 0.02834579 0.02825518 0.02814353 0.0280316 0.02794458 0.02788372
 0.02783193 0.02778272 0.02774444 0.02771976 0.02769625 0.02765731 0.02759713 0.02752539 0.02745363 0.02737748
 0.02728328 0.02717313 0.02706704 0.02697726 0.02689507 0.02680529 0.02670228 0.02659085 0.02647796 0.02636443
 0.02624433 0.02611344 0.02597341 0.02582696 0.02567878 0.0255428 0.02543452 0.0253504 0.02526526 0.02515694
 0.02502865 0.02490397 0.02480321 0.02472821 0.0246709 0.02463135 0.02461772 0.02463012 0.02465666 0.02468836
 0.02472769 0.02478008 0.02484833 0.02494032 0.02507188 0.02525258 0.02547124 0.02570215 0.02592633 0.0261435
 0.0263638 0.02659347 0.02683055 0.02707149 0.02731819 0.02757533 0.02783768 0.02808477 0.02829941 0.02849177
 0.02869197 0.02891628 0.02915306 0.02938361 0.02960164 0.0298085 0.03000475 0.03019429 0.03038618 0.0305846
 0.03078327 0.03097507 0.03116276 0.03135549 0.03155825 0.03177033 0.03199257 0.03223013 0.03248668 0.0327576
 0.03302878 0.03328372 0.0335178 0.03374868 0.03400616 0.03430594 0.03463531 0.03496663 0.03528173 0.03558283
 0.03588361 0.03619294 0.03650885 0.0368292 0.03716303 0.03752314 0.03790767 0.03829778 0.03867582 0.03904019
 0.03940121 0.03976786 0.04014038 0.0405136 0.04088547 0.04126048 0.04164164 0.04202202 0.04239097 0.04274775
 0.04310238 0.04346316 0.04383005 0.04419784 0.04455708 0.04489557 0.04521133 0.04552346 0.04585531 0.04620359
 0.04653753 0.04683467 0.04710624 0.04738071 0.04767188 0.0479734 0.04827732 0.04858417 0.04889296 0.04919077
 0.04945831 0.04968537 0.04988046 0.05006552 0.05025961 0.0504687 0.05069339 0.05094016 0.05121228 0.05149248
 0.05175007 0.05196694 0.05214663 0.05230419 0.05246356 0.05265663 0.05290244 0.05318675 0.05347447 0.05373849
 0.05397102 0.05418392 0.05440959 0.05468445 0.05501642 0.05538072 0.05575588 0.05614708 0.05656403 0.05699485
 0.05741996 0.05784123 0.05827638 0.05872497 0.0591578 0.05954553 0.05988329 0.06018259 0.0604595 0.06074319
 0.06107572 0.06147984 0.06193395 0.0623929 0.0628259 0.06322414 0.06358401 0.06389984 0.06417203 0.06441219
 0.0646358 0.06485005 0.06505117 0.06523632 0.06541321 0.06558724 0.06574047 0.06583472 0.06583703 0.06573272
 0.06551491 0.06517835 0.06473169 0.06420262 0.0636153 0.06296436 0.06222066 0.06136138 0.06038705 0.05931265
 0.05815347 0.0569225 0.05563589 0.05432132 0.0530242 0.05180255 0.050716 0.04983298 0.0492524 0.04908701
 0.04937662 0.04999447 0.05065123 0.051017 0.05086803 0.05015649 0.04898671 0.04754307 0.04600991 0.04450637
 0.04305733 0.04160731 0.04006261 0.03834791 0.03646455 0.03451776 0.03269574 0.03125233 0.03053859 0.03099585
 0.03297377 0.03643918 0.04086297 0.04545885 0.04958762 0.05298718 0.05571239 0.05794726 0.0598696 0.06159975
 0.06319262 0.06465571 0.06598248 0.06717208 0.06822294 0.06911952 0.06983109 0.07032627 0.07059953 0.07069111
 0.07067712 0.07063711 0.07062933 0.07067795 0.07075545 0.07077006 0.0705861 0.07007231 0.06913097 0.06767043
 0.06556486 0.06274822 0.05952425 0.05684187 0.05606406 0.05815746 0.06296022 0.06926481 0.07563011 0.08112898
 0.08549153 0.0888266 0.09135434 0.09329893 0.09485339 0.0961573 0.09729613 0.0983184 0.09925194 0.1001146
 0.1009197 0.1016779 0.1023977 0.1030873 0.1037546 0.1044042 0.1050375 0.1056551 0.1062614 0.1068655
 0.107475 0.1080872 0.1086937 0.1092934 0.109891 0.1104828 0.1110566 0.1116062 0.1121394 0.1126699
 0.113206 0.1137477 0.1142872 0.1148126 0.1153134 0.1157878 0.116242 0.1166864 0.1171296 0.1175736
 0.1180151 0.11845 0.1188778 0.1193025 0.1197294 0.1201577 0.1205771 0.1209754 0.1213515 0.121717
 0.1220871 0.1224692 0.1228586 0.1232462 0.1236296 0.124018 0.1244231 0.1248481 0.1252864 0.1257288
 0.1261694 0.1266051 0.1270352 0.1274604 0.1278847 0.128313 0.1287455 0.1291742 0.1295902 0.1299932
 0.1303919 0.1307934 0.1311953 0.1315898 0.1319751 0.1323582 0.1327464 0.1331377 0.133525 0.1339071
 0.1342912 0.1346846 0.1350854 0.1354825 0.1358649 0.1362312 0.1365915 0.1369587 0.1373359 0.1377153
 0.1380883 0.1384545 0.1388191 0.1391868 0.1395599 0.1399377 0.1403136 0.1406782 0.141029 0.1413747
 0.1417274 0.1420914 0.1424627 0.1428332 0.1431954 0.143546 0.1438894 0.1442344 0.1445878 0.1449499
 0.1453153 0.1456777 0.1460346 0.1463878 0.1467395 0.1470883 0.1474316 0.1477686 0.1481012 0.1484307
 0.1487583 0.1490866 0.1494203 0.1497617 0.1501064 0.1504457 0.1507754 0.1511011 0.1514329 0.1517763
 0.1521261 0.1524691 0.1527953 0.1531064 0.1534124 0.1537201 0.1540284 0.1543331 0.1546329 0.15493
 0.1552286 0.1555313 0.1558372 0.1561424 0.1564436 0.1567393 0.1570325 0.1573297 0.1576326 0.1579341
 0.1582272 0.1585146 0.1588048 0.1591033 0.159408 0.1597111 0.1600055 0.1602913 0.1605736 0.1608544
 0.1611327 0.1614098 0.1616892 0.1619713 0.1622539 0.1625357 0.1628162 0.1630978 0.1633846 0.1636738
 0.1639545 0.1642227 0.1644877 0.1647585 0.1650355 0.1653192 0.1656146 0.1659215 0.1662316 0.166535
 0.1668274 0.1671128 0.1674009 0.1676979 0.1680028 0.1683134 0.1686277 0.1689405 0.1692485 0.1695582
 0.1698768 0.1702008 0.170522 0.170835 0.1711378 0.1714337 0.1717317 0.1720361 0.1723422 0.1726478
 0.172957 0.1732683 0.1735746 0.1738751 0.174176 0.1744829 0.1748002 0.1751251 0.1754447 0.1757495
 0.1760469 0.1763487 0.1766587 0.1769793 0.1773131 0.1776527 0.1779856 0.1783078 0.1786202 0.1789258
 0.1792362 0.1795617 0.1798952 0.180223 0.1805447 0.180865 0.1811842 0.1815032 0.1818205 0.1821156
 0.1823424 0.1823916 0.1819861 0.1805703 0.1772989 0.1712013 0.161563 0.1483693 0.1324703 0.1152849
 0.09827967 0.08257711 0.06883304 0.05732688 0.04812158 0.04116195 0.03632191 0.03348981 0.03266929 0.03408774
 0.03831039 0.04590105 0.05615784 0.06600444 0.07119496 0.06966601 0.06350915 0.05706558 0.05332632 0.05249919
 0.05330704 0.05465981 0.05620874 0.05814882 0.06082038 0.0643184 0.06847514 0.07328533 0.0791107 0.08621873
 0.09423617 0.102311 0.1098474 0.1169663 0.1242133 0.1318981 0.1397707 0.1472674 0.1539575 0.1597545
 0.1648316 0.169433 0.1737401 0.1778415 0.181768 0.1854958 0.1888854 0.1916593 0.1935301 0.1944155
 0.1945436 0.1943305 0.1941373 0.1941274 0.19431 0.1946539 0.1951395 0.1957524 0.1964763 0.1972925
 0.1981741 0.1990871 0.1999991 0.2008835 0.201719 0.2024967 0.2032191 0.2038874 0.2045013 0.2050672
 0.2055952 0.2060895 0.2065516 0.206987 0.2074011 0.2077954 0.2081721 0.2085353 0.2088847 0.2092134
 0.2095149 0.2097905 0.2100504 0.2103089 0.2105721 0.2108344 0.2110905 0.2113458 0.2116095 0.2118826
 0.2121578 0.2124257 0.2126797 0.2129199 0.2131556 0.2133963 0.2136451 0.213901 0.2141616 0.2144223
 0.2146794 0.2149346 0.2151901 0.215443 0.2156895 0.2159325 0.2161767 0.216423 0.2166682 0.2169086
 0.2171465 0.2173941 0.2176626 0.2179484 0.2182389 0.2185281 0.2188155 0.2190967 0.2193706 0.2196441
 0.219916 0.2201683 0.2203887 0.2205926 0.2208143 0.2210774 0.2213712 0.2216611 0.2219249 0.2221759
 0.2224406 0.2227239 0.2230061 0.2232652 0.223497 0.2237272 0.2239958 0.2243157 0.2246568 0.2249844
 0.2252913 0.2255856 0.2258776 0.2261829 0.2265036 0.2268012 0.2270279 0.227196 0.2273916 0.2277042
 0.228141 0.2286165 0.2290349 0.2293739 0.2296772 0.2299927 0.2303429 0.2307082 0.2309995 0.2311157
 0.231099 0.2311697 0.2315258 0.2321441 0.2328305 0.2334194 0.2338769 0.2342554 0.2346056 0.2349243
 0.2351591 0.235268 0.2353022 0.2354236 0.2357891 0.2363863 0.2370303 0.2375527 0.2379357 0.238244
 0.2385217 0.2387826 0.2389792 0.2389574 0.2386143 0.2381712 0.2381135 0.238724 0.2397663 0.2407378
 0.2413693 0.2417628 0.2421044 0.2424307 0.2426898 0.24279 0.2424862 0.2415176 0.2401248 0.2391971
 0.2395382 0.2410529 0.242899 0.24433 0.2451654 0.2455972 0.2458609 0.2460831 0.2461865 0.2458943
 0.2450388 0.243975 0.2434922 0.2440867 0.2454043 0.2466166 0.2472632 0.2474998 0.2476627 0.2478897
 0.2480268 0.2475912 0.2460484 0.2436023 0.2415951 0.2415629 0.2437263 0.2467188 0.2489436 0.2499481
 0.2502829 0.2503174 0.2497025 0.247998 0.2453298 0.2423326 0.2399481 0.239298 0.2409478 0.2439735
 0.2464772 0.2474591 0.2476664 0.2483463 0.2497487 0.2511369 0.2517538 0.2514053 0.2503241 0.2487576
 0.2468503 0.2450303 0.2442507 0.245315 0.2478935 0.2506424 0.2524531 0.2532889 0.2535878 0.2529731
 0.2500097 0.2439328 0.2368044 0.2329408 0.2350962 0.2415734 0.2480487 0.2518233 0.2532865 0.2538773
 0.2541714 0.2537208 0.2513077 0.2456165 0.237303 0.2302783 0.2290604 0.2343128 0.2420924 0.2475293
 0.2481611 0.2441955 0.2376009 0.2315095 0.2289579 0.2310462 0.2364496 0.2427353 0.2478277 0.2505549
 0.2506347 0.2485868 0.2456854 0.2436289 0.2433214 0.243544 0.2418689 0.237724 0.2333493 0.2305059
 0.2277499 0.2231075 0.2183852 0.2179479 0.2230321 0.2296841 0.2332018 0.2328806 0.2311766 0.2292553
 0.2250508 0.2162959 0.2048474 0.1967174 0.1967851 0.2037451 0.2112854 0.2142342 0.2126368 0.2099054
 0.2082414 0.2064366 0.2016803 0.1932556 0.1843004 0.1791713 0.1788791 0.1802132 0.1795634 0.175881
 0.1694875 0.1607589 0.1519099 0.1477321 0.1515424 0.1610463 0.1701386 0.1739574 0.1707091 0.1605092
 0.1457666 0.1323207 0.1266403 0.1301362 0.1375037 0.141616 0.1391805 0.1312985 0.1203469 0.1082567
 0.09736776 0.09074941 0.09030843 0.09482598 0.1002791 0.1020508 0.09747469 0.08771622 0.07757524 0.07204445
 0.07199224 0.07375632 0.07329589 0.06981506 0.06516807 0.06127118 0.05890984 0.05787035 0.0572689 0.05628927
 0.05484163 0.05288465 0.04954405 0.04427477 0.03867195 0.03549225 0.03573098 0.03806529 0.04116469 0.04482407
 0.04844668 0.05026788 0.04936121 0.04748054 0.04760918 0.05081249 0.05528449 0.05849304 0.05968276 0.06005631
 0.0608863 0.06206591 0.06282952 0.06343257 0.06518389 0.06861436 0.07247255 0.07507975 0.07606024 0.07618284
 0.07608054 0.07579641 0.07521725 0.07433197 0.07318975 0.07194076 0.07079393 0.06977981 0.06872734 0.06751676
 0.0660711 0.06402035 0.0607962 0.05647151 0.05227886 0.04967858 0.04885982 0.04878078 0.04871038 0.04871901
 0.04831224 0.04594903 0.04108893 0.03593815 0.03385089 0.03609642 0.04093686 0.04563584 0.04853935 0.04920217
 0.04758351 0.04424618 0.04126128 0.04159763 0.04665362 0.05487363 0.06343625 0.07068571 0.07624257 0.07963911
 0.08022182 0.0783976 0.0761176 0.07583003 0.07907236 0.08574364 0.09394069 0.1002129 0.101236 0.09726471
 0.09395815 0.0981761 0.1105012 0.1239582 0.1318196 0.1345368 0.1368045 0.1402358 0.1426203 0.1433922
 0.145722 0.1521551 0.1607645 0.1669369 0.1673078 0.1610211 0.1492733 0.1356511 0.1254191 0.1217772
 0.1230425 0.1251441 0.1258351 0.124555 0.1201789 0.1126514 0.1060432 0.1058832 0.1127653 0.1214692
 0.1270525 0.1294454 0.1312975 0.1333476 0.1334761 0.1298676 0.1239769 0.1196022 0.1190384 0.1209653
 0.1224726 0.1220464 0.1196804 0.1152437 0.1085352 0.100848 0.09495567 0.09279441 0.09360383 0.09478292
 0.09434146 0.0922212 0.08957754 0.08744603 0.08614935 0.08543719 0.08503829 0.08537388 0.08752006 0.09192171
 0.09742065 0.1023281 0.106327 0.1105424 0.1157496 0.121222 0.1255139 0.1279788 0.1294079 0.1313869
 0.134996 0.1398673 0.1443947 0.1470568 0.1478337 0.1483659 0.1504563 0.1543346 0.1586116 0.1618638
 0.1638168 0.165014 0.1659525 0.1667037 0.1669018 0.1660452 0.1643009 0.1629861 0.1636463 0.1665025
 0.1702108 0.173206 0.174925 0.1757042 0.1759315 0.1755998 0.1745757 0.1730469 0.1715594 0.1706363
 0.170454 0.1708703 0.1716327 0.1725101 0.1733395 0.1740452 0.1746142 0.1750517 0.175389 0.1757068
 0.176081 0.176499 0.1768871 0.1772317 0.1776098 0.1780598 0.1784867 0.1787611 0.1788598 0.1788235
 0.1786152 0.1781257 0.1773123 0.176228 0.1748966 0.1732687 0.1713972 0.169629 0.1685111 0.1684096
 0.1692091 0.1704077 0.171498 0.1722376 0.1726254 0.1727506 0.1727203 0.1726671 0.1727334 0.1730093
 0.173493 0.174122 0.1748349 0.1755921 0.1763584 0.1771118 0.17789 0.1787948 0.1799169 0.1812438
 0.1826496 0.183976 0.185125 0.1860799 0.1868588 0.187476 0.1879451 0.1882946 0.1885598 0.1887619
 0.1888987 0.1889478 0.1888654 0.188589 0.1880638 0.1872824 0.1862797 0.1850723 0.1836251 0.1819029
 0.1799344 0.1777979 0.1755672 0.1732953 0.171023 0.1687683 0.1665136 0.1642199 0.1618537 0.1594031
 0.1568849 0.1543379 0.1517987 0.1492853 0.1467972 0.1443166 0.1418028 0.1391967 0.1364422 0.1335008
 0.1303435 0.1269329 0.1232274 0.1192115 0.1149176 0.1104185 0.1058121 0.101221 0.09678447 0.09263016
 0.08885088 0.08550209 0.08260399 0.08014274 0.0780802 0.07636884 0.07496482 0.07384081 0.07298771 0.07239632
 0.07204226 0.07189456 0.07192789 0.07211725 0.07243038 0.07283166 0.07328944 0.07378612 0.0743361 0.07499473
 0.07583922 0.076933 0.07830115 0.07993058 0.08178596 0.08382001 0.08597304 0.08818206 0.09040287 0.09261308
 0.09478939 0.09689789 0.09890847 0.1007985 0.1025416 0.1041142 0.105517 0.1067777 0.1079359 0.109033
 0.1101082 0.1111905 0.1122955 0.1134249 0.1145673 0.1156997 0.1167961 0.1178392 0.1188344 0.1198148
 0.120829 0.1219304 0.1231903 0.1247058 0.1265683 0.1288171 0.131424 0.1343018 0.1373142 0.1402963
 0.1430897 0.1455726 0.1476718 0.1493618 0.1506482 0.1515518 0.1521092 0.1523796 0.1524459 0.1524192
 0.1524427 0.1526561 0.1531344 0.1538657 0.154787 0.1558307 0.1569507 0.1581215 0.1593107 0.1604569
 0.161503 0.1624525 0.1633678 0.1643113 0.1653036 0.1663224 0.1673051 0.1681584 0.1688034 0.1692295
 0.1694919 0.16964 0.1696562 0.1694777 0.1690701 0.168452 0.1676543 0.1666925 0.1655911 0.1644004
 0.1631718 0.16194 0.1607318 0.1595658 0.1584323 0.1572834 0.1560509 0.1546781 0.1531508 0.1515087
 0.1498189 0.1481331 0.1464635 0.1447889 0.1430801 0.1413285 0.1395554 0.1377938 0.1360692 0.1343988
 0.1327949 0.1312599 0.1297905 0.1283915 0.1270808 0.1258824 0.124819 0.1239035 0.123132 0.1224862
 0.1219417 0.1214747 0.1210731 0.1207487 0.1205197 0.120375 0.120268 0.1201482 0.1199903 0.1198011
 0.1196143 0.1194714 0.1193932 0.1193695 0.1193738 0.1193688 0.1192973 0.1190822 0.1186471 0.1179413
 0.1169589 0.115742 0.1143612 0.1128979 0.1114468 0.1101089 0.1089578 0.1080152 0.1072625 0.1066592
 0.1061549 0.1057155 0.1053535 0.1051197 0.1050522 0.1051201 0.1052091 0.1051823 0.1049868 0.1047018
 0.1044741 0.1044089 0.1045142 0.1047129 0.1048977 0.1050011 0.105026 0.1050067 0.1049587 0.1048726
 0.104732 0.1045231 0.1042457 0.1039159 0.1035473 0.1031349 0.1026658 0.1021341 0.101543 0.1008987
 0.1001988 0.09942873 0.09858391 0.09767902 0.09671085 0.09565367 0.09454069 0.09351753 0.09276697 0.09239119
 0.09236224 0.09253727 0.09272625 0.09278741 0.09264005 0.09219617 0.0914292 0.09061392 0.09035792 0.09117528
 0.09298547 0.09511942 0.0968397 0.09780691 0.09808148 0.0978452 0.09723631 0.09635159 0.09524143 0.0939015
 0.0923394 0.09061067 0.08876377 0.08683987 0.08493952 0.08318839 0.08164674 0.08032176 0.07922202 0.07840402
 0.07798091 0.07772765 0.07644598 0.07259717 0.06665671 0.06217756 0.06280755 0.06818458 0.07417549 0.07724355
 0.07726835 0.07611422 0.07509013 0.07442933 0.07410181 0.07420997 0.07482395 0.07582518 0.07692701 0.07784221
 0.07846059 0.07881104 0.07885725 0.07836267 0.07687768 0.07389028 0.06923816 0.06348029 0.05771193 0.05293214
 0.04960244 0.04765507 0.0467021 0.04626597 0.04601695 0.04591475 0.04613867 0.04687288 0.04814655 0.0498588
 0.05188886 0.05408694 0.05619308 0.05793106 0.05922532 0.06020382 0.06096876 0.06148165 0.06167292 0.06154519
 0.06115546 0.06057595 0.05988146 0.05912586 0.05831299 0.05740441 0.05638877 0.05536063 0.05448292 0.05383104
 0.05332423 0.05284072 0.05232913 0.05178526 0.05121019 0.05062521 0.05007344 0.04960954 0.04931492 0.04926682
 0.04944956 0.04974758 0.05005244 0.05034299 0.0506636 0.05104063 0.05140924 0.05166748 0.05185518 0.05217499
 0.05271055 0.05323157 0.0534546 0.05343198 0.05351722 0.05397207 0.05472719 0.05550675 0.05608284 0.05640739
 0.05660412 0.05689681 0.05746494 0.05825012</values></Ydata></ScSm><ScRf><Ydata ylabel="Single channel"><values byteorder="INTEL" format="FLOAT32" numvalues="1820"> 0.06058047 0.06073734 0.0608427 0.06088852 0.06088992 0.06089202 0.06095003 0.06108929 0.06128464 0.06147649
 0.06161143 0.06167593 0.06168841 0.06166342 0.06160958 0.0615656 0.06159839 0.06173977 0.06193995 0.06209821
 0.062142 0.06209142 0.06205134 0.06210827 0.06221228 0.06218855 0.06190423 0.06142312 0.06096398 0.06069781
 0.06064257 0.06079438 0.06123418 0.061915 0.0624238 0.0622749 0.06151639 0.06076519 0.06052191 0.06068996
 0.06085917 0.06078369 0.0604599 0.06003529 0.05985337 0.06036077 0.0616665 0.06318017 0.0638267 0.062726
 0.05982035 0.05607281 0.05311431 0.05237081 0.05405748 0.05688673 0.05903253 0.05958838 0.05900697 0.05817801
 0.05746943 0.05683137 0.05641663 0.05663263 0.05757769 0.05864176 0.05881333 0.0575485 0.05542159 0.05372007
 0.05326629 0.05389708 0.05515026 0.05676842 0.05800648 0.05723474 0.0535429 0.04877017 0.04668518 0.04940449
 0.05513389 0.05992173 0.06117111 0.05909423 0.05557055 0.05259058 0.05149846 0.05262369 0.05522937 0.05812849
 0.06040347 0.06143805 0.06075191 0.05842374 0.0555045 0.05350503 0.05346818 0.0555656 0.05906183 0.06237257
 0.06378166 0.06271075 0.06010524 0.05743294 0.05571807 0.05554356 0.05718982 0.06034278 0.06407794 0.06739929
 0.06964502 0.07054989 0.07030208 0.06942946 0.06839987 0.06753302 0.06727134 0.06790935 0.06887414 0.06894611
 0.06758773 0.06566903 0.06457609 0.06478116 0.06546818 0.06552272 0.06465723 0.06322475 0.06111559 0.05774149
 0.05338392 0.04954927 0.04746308 0.04713943 0.04827961 0.05074745 0.05351014 0.05457491 0.05316599 0.05111571
 0.05104211 0.05355771 0.05695419 0.0592945 0.0602085 0.06076325 0.06208513 0.06420403 0.06590963 0.06566563
 0.06313407 0.06003195 0.05892006 0.0606904 0.06370737 0.06581941 0.06662869 0.06725285 0.06836931 0.06916216
 0.06817251 0.06503337 0.06139769 0.05991289 0.06191256 0.06608113 0.06940858 0.0694133 0.06581233 0.06059102
 0.05645891 0.05497315 0.05612276 0.05936448 0.06422035 0.06973124 0.07421149 0.07619011 0.07547333 0.07306889
 0.07003418 0.06649509 0.06218899 0.05809434 0.05663917 0.05941214 0.06513046 0.07070599 0.07400041 0.07489423
 0.07408674 0.07177448 0.06785195 0.06320159 0.06012091 0.06053741 0.06368487 0.06653454 0.06696703 0.06570631
 0.06476206 0.0649206 0.06545235 0.06566298 0.06589503 0.06695631 0.06896805 0.07106613 0.07223435 0.07222319
 0.07159473 0.0710704 0.07087524 0.07057183 0.06968047 0.06863828 0.06874339 0.07072584 0.07373678 0.07622228
 0.07748439 0.07792747 0.07800426 0.07741821 0.07554629 0.07260105 0.07009974 0.06973617 0.0717423 0.07474324
 0.07718623 0.07845846 0.07874134 0.07844441 0.07792732 0.07738764 0.07692305 0.07677895 0.07728297 0.07837314
 0.07949623 0.08016182 0.08034281 0.08021954 0.07982711 0.07913934 0.07832998 0.07776652 0.07773989 0.07824763
 0.07905115 0.07988852 0.08055937 0.08087896 0.08074792 0.08030178 0.07983114 0.07951295 0.07934549 0.07933582
 0.07956783 0.08003838 0.08057129 0.08096783 0.08116591 0.08121453 0.08116452 0.08103298 0.08084092 0.08065434
 0.0805821 0.08070187 0.08096588 0.08123233 0.08143228 0.08163972 0.08191414 0.08215113 0.08218975 0.08202548
 0.08182293 0.08173597 0.08178544 0.08189966 0.08199599 0.08199485 0.08181568 0.08144894 0.08104588 0.08085864
 0.08104005 0.08153736 0.0821839 0.08281665 0.08330023 0.083555 0.08361609 0.08359414 0.08354536 0.083434
 0.08323448 0.08302321 0.08295172 0.08313291 0.08353993 0.08401806 0.08440638 0.08463625 0.08472882 0.08476283
 0.08484593 0.08502959 0.08522894 0.08530238 0.08523172 0.08515564 0.08520304 0.0853449 0.08543794 0.08539224
 0.08527419 0.08523846 0.08536639 0.08559489 0.08580758 0.08596382 0.08611636 0.08631645 0.08652094 0.08661088
 0.08651976 0.08632565 0.08617391 0.08612268 0.08612575 0.08615831 0.08627178 0.08649185 0.08673224 0.0868696
 0.08688201 0.08686501 0.08690834 0.08698988 0.08700839 0.0869014 0.08670866 0.08653075 0.08644892 0.0864786
 0.08656999 0.08664267 0.08663689 0.08655009 0.08642823 0.08632077 0.08624692 0.08621132 0.0862435 0.08639026
 0.08664095 0.08687608 0.08693558 0.08676489 0.08647959 0.0862641 0.08620362 0.08622253 0.08618041 0.08601004
 0.08575729 0.08551082 0.08531968 0.0851771 0.08505754 0.08495417 0.08489301 0.08492036 0.08505617 0.08523709
 0.08532745 0.08522803 0.08497433 0.08470009 0.08451287 0.08443008 0.08441102 0.08440845 0.08440322 0.08442086
 0.08449486 0.08459491 0.08463227 0.08456303 0.084447 0.08438525 0.0844387 0.08460965 0.0848404 0.08501747
 0.08504413 0.0849389 0.08482252 0.08479257 0.08484579 0.08492686 0.08500642 0.08508907 0.08517892 0.08527242
 0.0853807 0.08553484 0.08575734 0.08603008 0.08629438 0.08648947 0.08660334 0.08669186 0.08684032 0.08709399
 0.08742168 0.0877443 0.0879988 0.08818199 0.08833987 0.08851539 0.08871242 0.08891855 0.08914661 0.08942507
 0.08975112 0.09008415 0.09038998 0.09066936 0.09094107 0.09121774 0.09150487 0.09181441 0.09217127 0.09259158
 0.09304121 0.09343096 0.09368429 0.09381365 0.09391701 0.09410392 0.09442284 0.09482503 0.09518243 0.09538364
 0.09544806 0.09551688 0.09569995 0.09596601 0.09622136 0.09645933 0.0967688 0.09719992 0.09767662 0.09806392
 0.09829801 0.09843381 0.09857375 0.09876087 0.09894727 0.09906802 0.09913051 0.09920564 0.09933944 0.09951745
 0.09972818 0.100009 0.1003891 0.1008211 0.101213 0.1015124 0.1017269 0.1018825 0.1019976 0.1020821
 0.1021362 0.1021614 0.1021866 0.1022524 0.1023545 0.1024371 0.1024664 0.1024812 0.1025472 0.1026906
 0.1029028 0.1031749 0.1034895 0.1038008 0.1040733 0.1043382 0.1046601 0.1050297 0.1053377 0.1054923
 0.1055263 0.1055415 0.1055824 0.1056281 0.1056881 0.1058269 0.1060799 0.1064052 0.1067399 0.1070671
 0.1074049 0.1077554 0.1080818 0.108327 0.1084521 0.1084675 0.1084364 0.1084457 0.108564 0.1088063
 0.1091245 0.1094405 0.1096985 0.1098801 0.1099747 0.1099728 0.1099128 0.1098966 0.1100077 0.1102104
 0.1103657 0.1103501 0.110136 0.1097609 0.1092593 0.1086503 0.1079745 0.1073126 0.1067548 0.1063565
 0.1061334 0.1061008 0.1062982 0.1067474 0.1073895 0.1080965 0.1087489 0.1092704 0.1095862 0.1096049
 0.1092854 0.1086955 0.1079718 0.1072348 0.1065527 0.1059435 0.1053787 0.1048198 0.1043009 0.1039689
 0.1040154 0.104563 0.1056053 0.1070118 0.1085654 0.1100324 0.1112567 0.1122179 0.1130007 0.113704
 0.1143787 0.1150381 0.1156921 0.1163428 0.1169603 0.1175041 0.1179714 0.1183997 0.1188172 0.1192136
 0.1195616 0.1198451 0.1200728 0.1202773 0.1204858 0.1206742 0.1207749 0.1207511 0.1206443 0.1205255
 0.120417 0.1202767 0.1200418 0.119682 0.1192365 0.118831 0.1186526 0.1188709 0.1195461 0.1205933
 0.1218463 0.1231591 0.1244393 0.1256016 0.1265442 0.1272066 0.1276283 0.1279174 0.1281716 0.1284381
 0.1287259 0.1290273 0.1293308 0.1296288 0.1299223 0.130221 0.1305417 0.1308913 0.131245 0.1315554
 0.1317997 0.1320137 0.1322675 0.1326012 0.1329864 0.1333565 0.1336781 0.1339798 0.134299 0.134615
 0.1348684 0.1350416 0.1351892 0.1353857 0.1356694 0.1360323 0.1364267 0.1367808 0.1370403 0.1372132
 0.1373584 0.1375319 0.1377508 0.1380034 0.1382694 0.1385293 0.1387748 0.1390199 0.1392941 0.1396068
 0.1399201 0.1401717 0.1403372 0.1404598 0.1406087 0.1408134 0.141048 0.1412709 0.1414726 0.1416859
 0.1419518 0.1422709 0.14259 0.1428461 0.1430207 0.1431469 0.1432713 0.1434222 0.143606 0.143814
 0.1440293 0.1442364 0.1444325 0.1446273 0.1448296 0.1450386 0.1452502 0.1454634 0.1456791 0.1458949
 0.1461074 0.1463164 0.1465279 0.1467571 0.1470226 0.1473233 0.1476235 0.1478743 0.1480539 0.1481805
 0.1482894 0.1484106 0.1485634 0.1487528 0.1489691 0.1491937 0.1494109 0.1496152 0.1498082 0.1499947
 0.1501798 0.1503693 0.1505684 0.1507797 0.1510021 0.1512339 0.1514722 0.1517084 0.15193 0.1521304
 0.1523152 0.1524979 0.1526905 0.1528947 0.1530982 0.153286 0.1534579 0.1536286 0.1538096 0.1540001
 0.1541942 0.1543903 0.1545886 0.154787 0.1549822 0.1551733 0.1553627 0.1555543 0.1557505 0.1559511
 0.1561539 0.1563561 0.1565555 0.1567529 0.1569506 0.1571481 0.1573417 0.1575303 0.1577179 0.1579106
 0.1581108 0.1583153 0.1585192 0.158721 0.1589238 0.1591295 0.1593356 0.1595388 0.1597372 0.1599294
 0.1601179 0.1603107 0.160514 0.1607245 0.1609349 0.161145 0.1613584 0.1615753 0.1617921 0.1620062
 0.1622186 0.1624331 0.1626514 0.1628705 0.1630868 0.1633001 0.1635109 0.1637171 0.1639181 0.1641169
 0.1643126 0.1644981 0.1646693 0.1648318 0.1649978 0.1651765 0.1653658 0.165553 0.1657298 0.1659042
 0.1660893 0.1662873 0.1664918 0.1667004 0.1669158 0.1671385 0.1673618 0.1675746 0.1677719 0.167961
 0.1681529 0.1683496 0.1685498 0.1687579 0.1689761 0.1691965 0.1694109 0.1696193 0.169825 0.1700308
 0.1702398 0.1704507 0.1706572 0.1708597 0.171066 0.1712769 0.1714829 0.1716788 0.1718703 0.1720684
 0.1722824 0.1725112 0.1727414 0.1729596 0.1731657 0.1733671 0.1735707 0.1737828 0.1740031 0.1742199
 0.1744251 0.1746283 0.1748427 0.1750679 0.1752955 0.1755175 0.1757272 0.1759266 0.1761268 0.1763329
 0.1765399 0.1767477 0.176959 0.1771576 0.1772944 0.177251 0.1767484 0.1752489 0.1719386 0.1658788
 0.1563758 0.1434214 0.1278525 0.1110541 0.09444255 0.0790951 0.06565158 0.05440444 0.04543271 0.03867778
 0.03399293 0.03124325 0.03041687 0.03173464 0.03575835 0.04305355 0.05295472 0.06248399 0.06751634 0.06603426
 0.06005393 0.05378715 0.05014198 0.04931876 0.05007039 0.05133714 0.05278803 0.05461945 0.0571619 0.06050623
 0.06449197 0.06911284 0.07470886 0.08152762 0.08920769 0.09693278 0.1041313 0.1109207 0.1178315 0.1251678
 0.132686 0.1398353 0.1461974 0.1516961 0.15651 0.1608762 0.1649542 0.1688114 0.1724803 0.1759612
 0.179138 0.1817423 0.1834862 0.1842811 0.1843387 0.1840535 0.1837773 0.1836811 0.1837851 0.1840591
 0.184475 0.1850112 0.1856512 0.1863777 0.1871614 0.1879677 0.1887734 0.1895648 0.1903258 0.1910394
 0.1916968 0.1922986 0.1928533 0.1933707 0.1938512 0.1942875 0.1946822 0.1950506 0.1954041 0.1957427
 0.1960655 0.1963758 0.1966749 0.1969592 0.1972223 0.1974585 0.1976707 0.1978721 0.1980741 0.1982767
 0.1984766 0.198677 0.1988826 0.1990921 0.1993036 0.1995168 0.1997294 0.1999362 0.2001348 0.2003275
 0.2005185 0.2007111 0.2009046 0.2010953 0.2012825 0.2014699 0.2016604 0.2018521 0.2020434 0.202238
 0.2024409 0.2026523 0.2028641 0.2030669 0.2032621 0.203464 0.2036817 0.2039043 0.2041167 0.2043216
 0.2045324 0.2047522 0.2049714 0.2051799 0.2053707 0.2055389 0.2056901 0.2058451 0.2060289 0.2062488
 0.2064835 0.2067021 0.2068955 0.2070824 0.2072802 0.2074839 0.2076781 0.2078543 0.2080179 0.2081914
 0.2084027 0.2086543 0.2089171 0.2091663 0.2094043 0.2096398 0.209873 0.2101066 0.2103399 0.2105486
 0.2107053 0.2108288 0.2109899 0.2112519 0.211607 0.2119763 0.2122836 0.2125233 0.2127449 0.2129911
 0.2132718 0.2135555 0.2137529 0.2137759 0.213677 0.213669 0.2139326 0.2144404 0.2150145 0.2155065
 0.2158796 0.2161679 0.2164134 0.216624 0.216763 0.2167936 0.2167594 0.2168094 0.2170905 0.2175938
 0.2181496 0.2185996 0.2189175 0.2191508 0.2193369 0.2195009 0.2196156 0.2195422 0.2191764 0.2187169
 0.2186165 0.2191393 0.2200608 0.2209121 0.221448 0.2217671 0.2220406 0.2223043 0.2225185 0.2226026
 0.2223205 0.2214145 0.2201001 0.2192082 0.2194973 0.2208901 0.2226093 0.2239577 0.224759 0.2251858
 0.2254563 0.2256847 0.2257952 0.225533 0.22475 0.2237775 0.2233422 0.2238998 0.2251241 0.226257
 0.2268847 0.2271572 0.2273782 0.2276634 0.227863 0.2275241 0.226144 0.2239103 0.2220744 0.2220708
 0.2241137 0.2269439 0.229081 0.2300962 0.2304916 0.2306076 0.2301195 0.2286158 0.2262085 0.2234845
 0.2213284 0.2208023 0.2224381 0.2253578 0.2277759 0.2287657 0.2290404 0.2297748 0.2312053 0.2326396
 0.2333601 0.2331783 0.2323104 0.2309842 0.229331 0.2277547 0.2271482 0.228259 0.2307822 0.2334723
 0.2352939 0.2362077 0.2366291 0.2362076 0.2335772 0.2279972 0.2214056 0.2178808 0.2200384 0.2262994
 0.2325908 0.2363507 0.2379284 0.2386744 0.2391254 0.2388592 0.2367385 0.2315279 0.2238439 0.2173914
 0.2164587 0.2216673 0.2292656 0.2346339 0.2354316 0.2318389 0.2257306 0.2201205 0.2179243 0.220189
 0.2256442 0.2319561 0.2371226 0.2400177 0.2403813 0.2387117 0.2362301 0.2345819 0.2346413 0.2352114
 0.2339362 0.2302797 0.2264268 0.224081 0.2218294 0.2177489 0.2136223 0.2137639 0.2194178 0.2266839
 0.2309034 0.2313835 0.2305555 0.2295309 0.2261828 0.2182012 0.2074717 0.2001536 0.2012991 0.2096106
 0.2186001 0.2229425 0.222706 0.221444 0.2214547 0.2214381 0.2183269 0.2112931 0.2037908 0.2006582
 0.2029687 0.2070689 0.2088994 0.2072242 0.2022099 0.1941417 0.1857714 0.1831405 0.1904825 0.2050448
 0.2192489 0.2269253 0.2255584 0.2149315 0.1980213 0.1828237 0.1784554 0.1869783 0.2008899 0.210028
 0.2096279 0.2011461 0.1879176 0.1728971 0.1600755 0.1548887 0.1609519 0.1764033 0.1939328 0.2043985
 0.2018703 0.18827 0.17384 0.1697749 0.1779914 0.1897705 0.1955134 0.1934557 0.1882979 0.1851805
 0.1867271 0.1925571 0.199679 0.2053079 0.2090879 0.2099198 0.2029579 0.185434 0.1643716 0.1519598
 0.1528925 0.1619576 0.1737925 0.1877065 0.2013282 0.2072832 0.201508 0.1909415 0.1876196 0.1958926
 0.2087014 0.2162237 0.2156013 0.2114606 0.2087673 0.2075399 0.2053277 0.2029364 0.2046284 0.2122478
 0.2220031 0.2286981 0.2311342 0.2316474 0.2321417 0.2326394 0.2326215 0.2319033 0.2305564 0.2290276
 0.2280025 0.2276344 0.2274021 0.2268984 0.2257986 0.222652 0.2152028 0.2035649 0.1922323 0.1865181
 0.1869211 0.1894995 0.191725 0.1939504 0.1939424 0.1853529 0.1661048 0.1452667 0.1364542 0.1446762
 0.1626076 0.1789399 0.1870412 0.1855188 0.1748393 0.1575427 0.1409547 0.1348944 0.1436697 0.1619486
 0.1804618 0.1939926 0.2019835 0.2041133 0.1993015 0.1888517 0.1777281 0.1717241 0.1739289 0.1833578
 0.1952837 0.2024706 0.19872 0.1850262 0.1722804 0.1732364 0.1891372 0.2076468 0.21672 0.2168015
 0.2159288 0.2172424 0.2174275 0.2154825 0.216245 0.2237519 0.235308 0.2441459 0.2453725 0.2379088
 0.2238736 0.2090686 0.2014611 0.2047641 0.2141548 0.2214665 0.2230606 0.2193457 0.2099705 0.1958571
 0.1843092 0.1846179 0.1973062 0.2129147 0.2227528 0.2268122 0.2298239 0.2331047 0.2329632 0.2263045
 0.2158158 0.2083097 0.2079897 0.2127757 0.2178204 0.2206169 0.2210179 0.2183343 0.2117716 0.2037337
 0.1998485 0.2040733 0.214573 0.2254056 0.2318121 0.2331867 0.2316893 0.2294432 0.2271084 0.2240485
 0.219742 0.2156171 0.2147817 0.2187073 0.2248945 0.2294438 0.2315243 0.2336574 0.2377541 0.2424861
 0.2449077 0.2436739 0.2403151 0.2378922 0.2385365 0.2417623 0.2448334 0.2450949 0.2424956 0.239875
 0.2403546 0.2443652 0.2495788 0.2535572 0.2557399 0.2569524 0.257982 0.2588845 0.2589416 0.257203
 0.2538267 0.2508659 0.2508173 0.2541481 0.2588557 0.2625464 0.264374 0.2649038 0.2647966 0.2641169
 0.2627276 0.260914 0.2593894 0.2587324 0.2589768 0.2597629 0.260714 0.2615955 0.262286 0.2627606
 0.2630694 0.2632629 0.2633678 0.2634336 0.2635116 0.2635671 0.2635159 0.2633879 0.2633612 0.2635605
 0.2638897 0.2641341 0.264164 0.2639471 0.2634234 0.2625106 0.261242 0.259777 0.2582221 0.2565498
 0.2548096 0.2533876 0.25291 0.2537769 0.2557853 0.2582436 0.260448 0.2620428 0.2630202 0.2635302
 0.2637447 0.2638103 0.2638161 0.2637762 0.2636601 0.2634479 0.2631506 0.2627896 0.2623817 0.2619544
 0.2615606 0.2612485 0.2610089 0.2607686 0.2604488 0.2600251 0.2595313 0.2590173 0.258504 0.2579643
 0.2573391 0.2565804 0.2556883 0.2547176 0.2537547 0.2528749 0.2520958 0.2513683 0.2506238 0.249824
 0.2489471 0.247956 0.2468342 0.245658 0.2445779 0.2436985 0.2429961 0.2423632 0.241699 0.2409436
 0.24007 0.2390851 0.2380288 0.2369428 0.2358426 0.2347203 0.2335553 0.232317 0.2309806 0.2295481
 0.2280393 0.2264687 0.2248505 0.2232121 0.2215599 0.2198288 0.2178828 0.2155677 0.2127562 0.2093706
 0.2054021 0.2009316 0.1961254 0.1911947 0.1863368 0.1816996 0.1773919 0.1735106 0.1701482 0.1673814
 0.1652659 0.1638402 0.1631259 0.1631289 0.1638368 0.1652093 0.1671685 0.1696045 0.1723875 0.1753672
 0.1783692 0.1812193 0.1838068 0.1861402 0.1883202 0.1904293 0.1924525 0.1943141 0.1959649 0.1974021
 0.1986295 0.1996432 0.2004548 0.2011039 0.2016432 0.2021211 0.2025676 0.2029864 0.2033578 0.2036564
 0.2038735 0.2040307 0.2041721 0.2043366 0.2045363 0.2047595 0.2049941 0.2052503 0.205565 0.2059756
 0.2064836 0.2070526 0.2076451 0.2082512 0.2088813 0.2095488 0.2102734 0.2110907 0.2120457 0.2131639
 0.2144296 0.2157901 0.2171775 0.2185201 0.2197431 0.2207779 0.2215769 0.2221167 0.2223979 0.2224531
 0.2223405 0.2221135 0.2217993 0.2214069 0.2209426 0.2204136 0.2198295 0.2192048 0.218553 0.2178784
 0.2171819 0.2164725 0.2157661 0.2150746 0.2144031 0.2137527 0.2131224 0.2125065 0.211899 0.211302
 0.2107256 0.2101753 0.2096423 0.2091092 0.2085582 0.2079688 0.2073103 0.2065513 0.2056818 0.2047208
 0.2036937 0.2026002 0.2014152 0.2001241 0.1987445 0.1973072 0.1958241 0.1942859 0.1926785 0.1909884
 0.1891945 0.1872783 0.1852571 0.183205 0.181222 0.1793778 0.1776854 0.1761211 0.1746525 0.1732541
 0.1719115 0.1706225 0.169393 0.1682302 0.1671339 0.1660892 0.1650788 0.1641042 0.1631888 0.1623582
 0.1616274 0.1609994 0.1604629 0.1599953 0.1595804 0.1592212 0.1589385 0.1587639 0.1587176 0.1587754
 0.1588647 0.158907 0.1588608 0.1587315 0.1585599 0.1583999 0.1582851 0.1582141 0.1581644 0.1581017
 0.1579691 0.1576822 0.1571443 0.1562774 0.1550594 0.1535359 0.1517929 0.149933 0.1480856 0.146396
 0.1449715 0.1438481 0.1430053 0.142383 0.1418955 0.141476 0.1411179 0.1408731 0.140816 0.1409746
 0.1412566 0.1414856 0.1415684 0.1415964 0.1417476 0.1421343 0.1427525 0.1435091 0.1442734 0.1449462
 0.1454892 0.1458875 0.146132 0.1462473 0.146281 0.1462533 0.1461529 0.1459679 0.1456963 0.1453531
 0.1449734 0.1445715 0.1441146 0.1435659 0.1429174 0.1421702 0.1413315 0.1404183 0.1394097 0.1382529
 0.136998 0.1358729 0.1351578 0.1350152 0.1354302 0.136236 0.1372218 0.1382716 0.139327 0.1401973
 0.1406144 0.140631 0.1408173 0.1418455 0.1438526 0.1462955 0.1484354 0.1498744 0.1506061 0.1507317
 0.1503145 0.14941 0.1480284 0.1461083 0.1436565 0.140824 0.1377818 0.1346756 0.1317081 0.1290768
 0.1268539 0.1250378 0.1236247 0.1226511 0.1222401 0.1220238 0.1201204 0.1141102 0.1047825 0.09781086
 0.09897347 0.1076494 0.1172619 0.1222262 0.1223883 0.1207233 0.1192821 0.1183629 0.1178467 0.1178719
 0.1185675 0.119788 0.1211483 0.1222586 0.1229643 0.1233081 0.1232443 0.122398 0.1200153 0.1152398
 0.1078047 0.0986056 0.08938824 0.08174532 0.07640833 0.07325877 0.07167272 0.07088543 0.07036918 0.07007943
 0.07033202 0.07141666 0.07335252 0.07598028 0.0791318 0.08257881 0.08591931 0.08874238 0.09093555 0.0926766
 0.09410737 0.0951561 0.09569209 0.0957137 0.09533994 0.0947132 0.09395856 0.09316298 0.09231374 0.09129773
 0.09007174 0.08883607 0.08792049 0.08746807 0.08733542 0.08730967 0.08729674 0.08728893 0.08728032 0.08725616
 0.08720991 0.08717744 0.08726522 0.08757499 0.08807115 0.08857888 0.08892855 0.08907718 0.08909968 0.08905348
 0.08883885 0.08829331 0.08749445 0.08678511 0.08632025 0.08577372 0.08476038 0.08343579 0.08240414 0.08206815
 0.08228195 0.08261647 0.08275913 0.08264384 0.08240899 0.08233505 0.08265763 0.08327667 0.08374459 0.08369449
</values></Ydata></ScRf><Data_Parameters_AB><parameter name="DPF">1</parameter><parameter name="NPT">3497</parameter><parameter name="FXV">3996</parameter><parameter name="LXV">500</parameter><parameter name="CSF">1</parameter><parameter name="MXY">0.631828427314758</parameter><parameter name="MNY">-0.0880848094820976</parameter><parameter name="DAT">31/05/2022</parameter><parameter name="TIM">10:58:41.700 (GMT+2)</parameter><parameter name="DXU">WN</parameter></Data_Parameters_AB><AB__Qtest><MainReport name="Quality Test Report"><Header><Line><Legend>Test result ok/not ok [1/0]: </Legend><Value>1</Value></Line><Line><Legend>Method file: </Legend><Value>C:\Users\Public\Documents\Bruker\OPUS_8.2.28\QT\IRBT_v3_default.QT</Value></Line></Header><Matrix><Line><Legend></Legend><Legend>min</Legend><Legend>max</Legend><Legend>measured</Legend></Line><Line><Value>Absorption (X-Range 1):</Value><Value>0.400000</Value><Value>2.000000</Value><Value>0.669777</Value></Line><Line><Value>Noise (X-Range 4):</Value><Value></Value><Value>0.000300</Value><Value>0.000073</Value></Line><Line><Value>Signal/Noise (X-Range 2):</Value><Value>200.000000</Value><Value></Value><Value>225.392463</Value></Line><Line><Value>Signal/Noise (X-Range 3):</Value><Value>40.000000</Value><Value></Value><Value>136.912500</Value></Line><Line><Value>Water vapour (X-Range 5):</Value><Value></Value><Value>0.000300</Value><Value>0.000049</Value></Line><Line><Value>Signal/Water (X-Range 2):</Value><Value>100.000000</Value><Value></Value><Value>334.408823</Value></Line><Line><Value>Signal/Water (X-Range 3):</Value><Value>20.000000</Value><Value></Value><Value>203.133448</Value></Line><Line><Value>Fringes (X-Range 6):</Value><Value></Value><Value>0.000100</Value><Value>0.000093</Value></Line></Matrix></MainReport></AB__Qtest><Data_Parameters_ScSm><parameter name="DPF">1</parameter><parameter name="NPT">1814</parameter><parameter name="FXV">3996.33169228125</parameter><parameter name="LXV">499.541461535156</parameter><parameter name="CSF">1</parameter><parameter name="MXY">0.254171371459961</parameter><parameter name="MNY">0.0246177203953266</parameter><parameter name="DAT">31/05/2022</parameter><parameter name="TIM">10:58:41.700 (GMT+2)</parameter><parameter name="DXU">WN</parameter></Data_Parameters_ScSm><Data_Parameters_ScRf><parameter name="DPF">1</parameter><parameter name="NPT">1820</parameter><parameter name="FXV">4004.04661832813</parameter><parameter name="LXV">495.683998511719</parameter><parameter name="CSF">1</parameter><parameter name="MXY">0.264903843402863</parameter><parameter name="MNY">0.0304168686270714</parameter><parameter name="DAT">31/05/2022</parameter><parameter name="TIM">10:58:16.262 (GMT+2)</parameter><parameter name="DXU">WN</parameter></Data_Parameters_ScRf><Optic_Parameters_Rf><parameter name="APR">0</parameter><parameter name="APT">Open</parameter><parameter name="BMS">KBr</parameter><parameter name="DTC">RT-DLaTGS_IR-Biotyper [Microplate reader]</parameter><parameter name="HPF">0</parameter><parameter name="LPF">10.0</parameter><parameter name="LPV">4000</parameter><parameter name="PGR">0</parameter><parameter name="RCH">Module port</parameter><parameter name="RDX">0</parameter><parameter name="SRC">MIR</parameter><parameter name="VEL">10.0</parameter><parameter name="SON">Off</parameter></Optic_Parameters_Rf><Acquisition_Parameters_Rf><parameter name="ADT">1</parameter><parameter name="AQM">DD</parameter><parameter name="CFE">0</parameter><parameter name="COR">0</parameter><parameter name="DEL">0</parameter><parameter name="DLY">0</parameter><parameter name="HFW">8000</parameter><parameter name="LFW">0</parameter><parameter name="NSR">32</parameter><parameter name="PLF">AB</parameter><parameter name="RES">6</parameter><parameter name="RGN">-1</parameter><parameter name="STR">0</parameter><parameter name="TCL">MakeCompatibleScalar (0, {WSV=1.000000, ARV=0});</parameter><parameter name="TDL">37</parameter><parameter name="RPO">0</parameter></Acquisition_Parameters_Rf><FT_-_Parameters_Rf><parameter name="APF">B3</parameter><parameter name="HFQ">500</parameter><parameter name="LFQ">4000</parameter><parameter name="NLI">0</parameter><parameter name="PHR">24</parameter><parameter name="PHZ">ML</parameter><parameter name="SPZ">NO</parameter><parameter name="ZFF">1</parameter></FT_-_Parameters_Rf><Optic_Parameters_><parameter name="APR">0</parameter><parameter name="APT">Open</parameter><parameter name="BMS">KBr</parameter><parameter name="CHN">Module port</parameter><parameter name="DTC">RT-DLaTGS_IR-Biotyper [Microplate reader]</parameter><parameter name="HPF">0</parameter><parameter name="LPF">10.0</parameter><parameter name="LPV">4000</parameter><parameter name="PGN">0</parameter><parameter name="RDX">0</parameter><parameter name="SRC">MIR</parameter><parameter name="VEL">10.0</parameter><parameter name="SON">Off</parameter></Optic_Parameters_><FT_-_Parameters_><parameter name="APF">B3</parameter><parameter name="HFQ">500</parameter><parameter name="LFQ">4000</parameter><parameter name="NLI">0</parameter><parameter name="PHR">24</parameter><parameter name="PHZ">ML</parameter><parameter name="SPZ">NO</parameter><parameter name="ZFF">1</parameter></FT_-_Parameters_><Acquisition_Parameters_><parameter name="ADT">1</parameter><parameter name="AQM">DD</parameter><parameter name="CFE">0</parameter><parameter name="COR">0</parameter><parameter name="DEL">0</parameter><parameter name="DLY">0</parameter><parameter name="HFW">8000</parameter><parameter name="LFW">0</parameter><parameter name="NSS">32</parameter><parameter name="PLF">AB</parameter><parameter name="RES">6</parameter><parameter name="SOT">0</parameter><parameter name="TCL">MakeCompatibleScalar (0, {WSV=1.000000, ARV=0});</parameter><parameter name="TDL">37</parameter><parameter name="SPO">0</parameter><parameter name="SGN">-1</parameter></Acquisition_Parameters_><Instrument_Parameters_Rf><parameter name="HFL">15800.168544</parameter><parameter name="LFL">0</parameter><parameter name="LWN">15800.168544</parameter><parameter name="ABP">32197</parameter><parameter name="SSP">1</parameter><parameter name="ARG">2</parameter><parameter name="ASG">2</parameter><parameter name="ASS">32</parameter><parameter name="GFW">16</parameter><parameter name="GBW">16</parameter><parameter name="BFW">0</parameter><parameter name="BBW">0</parameter><parameter name="PKA">7269</parameter><parameter name="PKL">4996</parameter><parameter name="PRA">7450</parameter><parameter name="PRL">5001</parameter><parameter name="P2A">1</parameter><parameter name="P2L">1</parameter><parameter name="P2R">1</parameter><parameter name="P2K">1</parameter><parameter name="DAQ">0</parameter><parameter name="AG2">1</parameter><parameter name="SSM">1</parameter><parameter name="RSN">25391</parameter><parameter name="CRR">0</parameter><parameter name="SRT">1653994696.262</parameter><parameter name="DUR">19.6379852294922</parameter><parameter name="TSC">28.8</parameter><parameter name="MVD">0.231950238347054</parameter><parameter name="AN1">0.225832179904715</parameter><parameter name="AN2">0</parameter><parameter name="VSN">2.485 Apr  4 2017</parameter><parameter name="SRN">0085</parameter><parameter name="CAM">0</parameter><parameter name="INS">IR-Biotyper</parameter><parameter name="FOC">69</parameter><parameter name="RDY">1</parameter><parameter name="ARS">32</parameter></Instrument_Parameters_Rf><Sample_Parameters_><parameter name="BLD"></parameter><parameter name="CNM">Admin</parameter><parameter name="CPY"></parameter><parameter name="DPM"></parameter><parameter name="EXP">IRBT_v3_32Scans.XPM</parameter><parameter name="LCT"></parameter><parameter name="SFM">Microplate, HTS-XT</parameter><parameter name="SNM">220531-1021(v.3)_MBD34F (D_2)_E3_d96340e1-998d-4542-a159-11f6863e072c.0</parameter><parameter name="XPP">C:\Users\Public\Documents\Bruker\OPUS_8.2.28\XPM</parameter><parameter name="IST">OK</parameter><parameter name="CPG">1252</parameter><parameter name="UID">826ce6df-123b-4c8e-91df-3e52ad078cb5</parameter></Sample_Parameters_><Instrument_Parameters_><parameter name="HFL">15800.168544</parameter><parameter name="LFL">0</parameter><parameter name="LWN">15800.168544</parameter><parameter name="ABP">32197</parameter><parameter name="SSP">1</parameter><parameter name="ASG">4</parameter><parameter name="ARG">2</parameter><parameter name="ASS">32</parameter><parameter name="GFW">16</parameter><parameter name="GBW">16</parameter><parameter name="BFW">0</parameter><parameter name="BBW">0</parameter><parameter name="PKA">5926</parameter><parameter name="PKL">4988</parameter><parameter name="PRA">6133</parameter><parameter name="PRL">4993</parameter><parameter name="P2A">1</parameter><parameter name="P2L">1</parameter><parameter name="P2R">1</parameter><parameter name="P2K">1</parameter><parameter name="DAQ">0</parameter><parameter name="AG2">1</parameter><parameter name="SSM">1</parameter><parameter name="RSN">13321</parameter><parameter name="CRR">0</parameter><parameter name="SRT">1653994721.7</parameter><parameter name="DUR">19.6379852294922</parameter><parameter name="TSC">28.8</parameter><parameter name="MVD">0.29154509305954</parameter><parameter name="AN1">0.225794130602547</parameter><parameter name="AN2">0</parameter><parameter name="VSN">2.485 Apr  4 2017</parameter><parameter name="SRN">0085</parameter><parameter name="CAM">0</parameter><parameter name="INS">IR-Biotyper</parameter><parameter name="FOC">69</parameter><parameter name="RDY">1</parameter></Instrument_Parameters_><History/></OPUSDataFile>
