<?xml version="1.0" encoding="UTF-8" ?>
<OPUSDataFile><AB><Ydata ylabel="Absorbance Units"><values byteorder="INTEL" format="FLOAT32" numvalues="3497"> -0.05319233 -0.0531858 -0.05317622 -0.05316379 -0.05314575 -0.05312196 -0.05308792 -0.05304422 -0.05299669 -0.05294713
 -0.05290927 -0.05288342 -0.05287899 -0.05289312 -0.0529247 -0.05296904 -0.05301863 -0.05306887 -0.05311158 -0.05314492
 -0.05316346 -0.05317185 -0.05316916 -0.05316708 -0.05316916 -0.0531856 -0.0532208 -0.053273 -0.05334397 -0.05341921
 -0.05349791 -0.05356351 -0.05361504 -0.05364485 -0.05365365 -0.05364816 -0.05363074 -0.0536187 -0.05361336 -0.05362992
 -0.05366505 -0.05372022 -0.05378761 -0.05385525 -0.05391746 -0.05396113 -0.05399024 -0.05400212 -0.05400657 -0.05400976
 -0.05401216 -0.05401768 -0.05401413 -0.0539983 -0.05396615 -0.05391385 -0.0538621 -0.05381186 -0.0537899 -0.05379779
 -0.05383802 -0.0539088 -0.0539862 -0.0540687 -0.05413391 -0.05418474 -0.05421962 -0.05424218 -0.05426033 -0.05427584
 -0.05429443 -0.05431863 -0.05435458 -0.05440044 -0.05446101 -0.0545196 -0.05457059 -0.05459384 -0.05457658 -0.05452545
 -0.05443492 -0.05434056 -0.05424631 -0.05418548 -0.05416233 -0.05418969 -0.05426854 -0.0543953 -0.05456837 -0.05476743
 -0.05498698 -0.05518371 -0.05535243 -0.055446 -0.05547466 -0.05543504 -0.05534972 -0.05525716 -0.05516603 -0.05510532
 -0.05506382 -0.0550437 -0.05502794 -0.05500603 -0.05497344 -0.054922 -0.05486982 -0.05481809 -0.05479183 -0.05479696
 -0.05483708 -0.05491516 -0.05500285 -0.05509871 -0.05516923 -0.05521508 -0.05523875 -0.05524575 -0.05527317 -0.05532212
 -0.05542083 -0.05555705 -0.0557184 -0.0558855 -0.05601663 -0.05610994 -0.05614164 -0.05613194 -0.05609122 -0.05602957
 -0.0559566 -0.05587197 -0.05577119 -0.05568166 -0.05560458 -0.05558826 -0.05564317 -0.05578576 -0.05602426 -0.05629486
 -0.0565951 -0.05676395 -0.05679874 -0.05662005 -0.05625614 -0.05585501 -0.05543204 -0.05512798 -0.05492701 -0.0548615
 -0.05490877 -0.05505172 -0.05525503 -0.05547558 -0.05567401 -0.05579766 -0.05584712 -0.05579644 -0.05570105 -0.05557594
 -0.05546449 -0.05538694 -0.05533196 -0.05530139 -0.05527518 -0.05524973 -0.05523532 -0.0552323 -0.05526007 -0.05531796
 -0.05539919 -0.05549936 -0.05558585 -0.05565659 -0.05568438 -0.05567475 -0.05562709 -0.05554907 -0.05545315 -0.05534555
 -0.05523627 -0.05513554 -0.05505366 -0.05500133 -0.05498817 -0.05501685 -0.05509287 -0.05520612 -0.05535813 -0.05552399
 -0.05570219 -0.05585685 -0.05598463 -0.05605335 -0.05606064 -0.05600134 -0.0558772 -0.05571661 -0.05552255 -0.05532861
 -0.05513526 -0.05496106 -0.05480707 -0.05468506 -0.05459614 -0.05455034 -0.05454024 -0.05456513 -0.05460541 -0.05464588
 -0.05466863 -0.05465614 -0.05461094 -0.05452604 -0.0544242 -0.054308 -0.05420581 -0.05412305 -0.05407724 -0.0540718
 -0.05410463 -0.054176 -0.05426923 -0.05438302 -0.0544948 -0.05460337 -0.05468876 -0.05475231 -0.05478717 -0.05479842
 -0.05479537 -0.05478238 -0.05477238 -0.05476458 -0.0547622 -0.05476641 -0.05477471 -0.05480306 -0.054858 -0.05495841
 -0.05511943 -0.05532539 -0.05558385 -0.05583142 -0.0560592 -0.05621404 -0.05628619 -0.05628321 -0.05620506 -0.05605736
 -0.05584024 -0.05554841 -0.05519125 -0.05483008 -0.05447783 -0.05422464 -0.0540629 -0.05402648 -0.05408327 -0.05419708
 -0.05432803 -0.05440318 -0.05442683 -0.05436647 -0.05427353 -0.05417129 -0.05409037 -0.05405553 -0.05405095 -0.05408261
 -0.05410387 -0.05410767 -0.05405749 -0.053945 -0.05379009 -0.05359261 -0.05341798 -0.05326912 -0.05320146 -0.05321123
 -0.0533049 -0.0534655 -0.05363278 -0.05378423 -0.05381906 -0.0537534 -0.05355737 -0.05328709 -0.05300805 -0.05273977
 -0.05253174 -0.05235354 -0.0522025 -0.05204487 -0.05186 -0.05165421 -0.05141965 -0.05119666 -0.05099272 -0.0508282
 -0.0507105 -0.05060098 -0.05049866 -0.05031891 -0.05006 -0.04968394 -0.04920688 -0.04872919 -0.04826511 -0.04793612
 -0.04772235 -0.04763351 -0.04764434 -0.04771379 -0.0478247 -0.04794588 -0.04804798 -0.04809959 -0.04806783 -0.04791549
 -0.04765834 -0.04728742 -0.04685054 -0.04636458 -0.04583339 -0.04526078 -0.04463916 -0.0439648 -0.04327108 -0.04255973
 -0.04186634 -0.04119192 -0.04055074 -0.03994415 -0.03938968 -0.03888802 -0.03845589 -0.03808377 -0.03775677 -0.03746103
 -0.03716299 -0.03685788 -0.03653072 -0.03616704 -0.03575599 -0.03526528 -0.03466095 -0.03396532 -0.03316483 -0.03234643
 -0.03153701 -0.03076971 -0.03006057 -0.029382 -0.02873284 -0.02808681 -0.02744162 -0.0267973 -0.02615491 -0.02553906
 -0.0249499 -0.02440738 -0.02389712 -0.02337733 -0.02281733 -0.02209832 -0.02123485 -0.0201712 -0.01900563 -0.01785153
 -0.01675697 -0.01582712 -0.01500319 -0.01428518 -0.0135952 -0.01289439 -0.01215806 -0.01136316 -0.01054789 -0.009716027
 -0.008899455 -0.008106965 -0.007306835 -0.006498556 -0.005613849 -0.004651472 -0.003593626 -0.002450872 -0.001297577 -0.000142441
 0.0009324377 0.001938488 0.002863571 0.00372554 0.004553085 0.00535605 0.006158837 0.006965753 0.007791395 0.008628489
 0.0094792 0.01032685 0.01115724 0.01199114 0.01282103 0.01372197 0.01471102 0.01581664 0.017056 0.01831075
 0.01957531 0.0207035 0.0216931 0.02253576 0.02324351 0.0239077 0.02453545 0.02520916 0.02591937 0.02668577
 0.02748759 0.02829204 0.0290909 0.02985015 0.03059739 0.03133767 0.03212191 0.03299029 0.03395129 0.03503523
 0.03616669 0.03733464 0.03845575 0.03950723 0.04047118 0.04133907 0.04214516 0.04289035 0.04363136 0.04437077
 0.04515395 0.04597938 0.04685527 0.04777818 0.04873619 0.04973024 0.05076007 0.05182038 0.05290886 0.05399932
 0.05505783 0.05605904 0.05695914 0.05777267 0.05848833 0.05915132 0.05977972 0.06040075 0.06103128 0.06165762
 0.06228063 0.06287943 0.06344781 0.06401038 0.06456689 0.06518611 0.06587054 0.06666204 0.06755259 0.06849703
 0.06948075 0.07040985 0.07128654 0.07206191 0.07276136 0.07341067 0.07403246 0.07467499 0.07532964 0.07601142
 0.07668844 0.07734069 0.07795881 0.07852312 0.07907677 0.07962342 0.08022412 0.08089507 0.08165273 0.08250546
 0.08341405 0.08437712 0.08533928 0.08629809 0.08721504 0.08809025 0.08890773 0.08966912 0.09037189 0.09101975
 0.09161874 0.09217934 0.09272238 0.09326228 0.09383022 0.09442626 0.09506647 0.09573081 0.09640886 0.09709249
 0.0977698 0.09846228 0.0991775 0.09991539 0.1006848 0.1014309 0.102147 0.1027984 0.1033788 0.1039542
 0.1045292 0.1052128 0.1060005 0.1069098 0.1079151 0.1089083 0.1098681 0.1106658 0.1113203 0.1117962
 0.1121504 0.112447 0.1127273 0.1130661 0.1134442 0.1138765 0.1143197 0.1147498 0.1151696 0.1155688
 0.1159879 0.1164354 0.1169267 0.1174673 0.118038 0.118638 0.1192476 0.1198661 0.1204822 0.1210965
 0.121707 0.1223195 0.1229609 0.1236367 0.1243843 0.1251882 0.1260424 0.1269117 0.1277427 0.1285165
 0.1291884 0.129775 0.1302716 0.1307056 0.1310906 0.1314368 0.13175 0.132033 0.1322839 0.1325261
 0.13276 0.133027 0.1333304 0.133695 0.1341209 0.1345976 0.1351232 0.1356775 0.1362611 0.1368701
 0.1375013 0.1381479 0.138796 0.1394134 0.139992 0.1404978 0.1409553 0.1413684 0.1417841 0.1422404
 0.1427494 0.143341 0.1439538 0.1445811 0.1451423 0.145611 0.1459903 0.1462687 0.1465441 0.1468239
 0.1471761 0.1476012 0.1480362 0.1484722 0.1487919 0.1490045 0.1490844 0.1490634 0.1490257 0.148994
 0.1490615 0.1492192 0.1494996 0.1498698 0.1503117 0.1507897 0.1512702 0.1517449 0.1521919 0.1526519
 0.1531301 0.1536759 0.1543103 0.1550041 0.1557658 0.1564741 0.1571206 0.1576021 0.1579159 0.1580857
 0.1581226 0.1581438 0.1581526 0.1582303 0.1583625 0.1585434 0.1587687 0.1590196 0.1593156 0.1596832
 0.1601209 0.1606543 0.1612241 0.1618029 0.1623276 0.1627475 0.1630831 0.1633165 0.1635423 0.1637774
 0.1640929 0.1645068 0.1650029 0.1655843 0.1661698 0.166755 0.1672532 0.1676645 0.1679515 0.1681273
 0.1682314 0.1682867 0.1683856 0.1685406 0.168831 0.169236 0.1697704 0.1703781 0.1710126 0.1716162
 0.1721267 0.1725395 0.1728229 0.173042 0.1732049 0.1733923 0.1736251 0.1739403 0.1743476 0.1748499
 0.1754481 0.1761519 0.1769618 0.1778802 0.1789002 0.1799581 0.1810342 0.1819923 0.1828201 0.1833935
 0.1837421 0.1838516 0.1837991 0.1836869 0.1835876 0.1836271 0.1837993 0.1841606 0.18461 0.1851249
 0.18558 0.1859254 0.1861002 0.1860713 0.1858776 0.1855125 0.1850814 0.1845919 0.1841369 0.1837207
 0.1833628 0.1830591 0.1827716 0.1824985 0.1822098 0.1819132 0.1816186 0.1813317 0.1810766 0.1808357
 0.1806048 0.1803343 0.1799774 0.1794795 0.1787783 0.1778744 0.1767324 0.1754434 0.1740167 0.1725851
 0.1711795 0.1698863 0.1687267 0.1677052 0.1668268 0.166035 0.1653265 0.1646142 0.1638949 0.1630986
 0.1622348 0.161312 0.1603513 0.1594318 0.158555 0.157775 0.1570542 0.1563619 0.1556583 0.1548789
 0.1540355 0.1531023 0.1521476 0.1511925 0.1503122 0.1495415 0.1489036 0.1484213 0.1480325 0.1477395
 0.1474197 0.1470628 0.1465764 0.1459566 0.1452189 0.1443719 0.1435138 0.1426506 0.1418676 0.1411565
 0.1405374 0.1399955 0.1395086 0.1390646 0.1386362 0.1382155 0.1377833 0.1373394 0.1368754 0.1364025
 0.1359232 0.135451 0.1349922 0.1345499 0.1341271 0.1337162 0.1333171 0.1329179 0.1325177 0.1321037
 0.1316751 0.131222 0.1307447 0.1302447 0.1297247 0.129199 0.1286704 0.1281563 0.1276561 0.1271777
 0.1267163 0.1262692 0.125828 0.1253845 0.1249284 0.12445 0.1239423 0.1233966 0.1228201 0.1222096
 0.1215892 0.1209627 0.1203547 0.1197711 0.1192139 0.1186851 0.1181636 0.1176483 0.1171179 0.1165727
 0.1160126 0.1154403 0.1148724 0.1143093 0.1137623 0.1132271 0.1126995 0.1121755 0.1116458 0.1111119
 0.1105706 0.1100268 0.1094805 0.1089434 0.1084166 0.1079261 0.1074805 0.1071015 0.1068031 0.1065551
 0.1063626 0.1061359 0.105868 0.1054824 0.1049748 0.1043584 0.1036407 0.1029168 0.1021961 0.1015829
 0.1010729 0.1007139 0.1004788 0.1003365 0.1002442 0.1001188 0.09993766 0.09963159 0.09923426 0.09873869
 0.0982136 0.09769685 0.09721959 0.09681033 0.09643784 0.09609934 0.09576825 0.0954332 0.09513509 0.09487418
 0.09472483 0.09469101 0.09479143 0.09501923 0.09529591 0.0956066 0.09582272 0.09594136 0.0958749 0.09565017
 0.09527752 0.09480375 0.09431014 0.09382335 0.09341263 0.09306095 0.09277935 0.09254028 0.09232543 0.09214161
 0.09198466 0.0918759 0.09182563 0.09181447 0.09184454 0.09186708 0.09187586 0.09186295 0.09182765 0.09181757
 0.09183441 0.09191506 0.09205309 0.09222988 0.09243682 0.09263134 0.09281494 0.0929682 0.09310073 0.09322063
 0.09333257 0.09344967 0.09355913 0.09366252 0.09372428 0.09372917 0.09364028 0.09343336 0.09312061 0.09268796
 0.09222277 0.0917314 0.09132316 0.09101213 0.09083084 0.09078199 0.09078443 0.09083071 0.09079794 0.0906878
 0.09044203 0.09008083 0.08964259 0.08915107 0.08868393 0.08824817 0.08789389 0.0876075 0.08739631 0.08723485
 0.08710777 0.08698904 0.08685827 0.08670934 0.0865287 0.08634754 0.08616828 0.08603243 0.08595198 0.08591548
 0.08592717 0.08591256 0.08586759 0.08573858 0.08552943 0.08528301 0.08501041 0.08480655 0.08466644 0.08462816
 0.08466709 0.08473888 0.08483446 0.08490712 0.08498976 0.08509528 0.08527406 0.08557326 0.08601546 0.08662996
 0.08740688 0.08834793 0.08944587 0.0906966 0.09211077 0.09369189 0.09543257 0.0973378 0.09933 0.1014056
 0.1034087 0.1053291 0.1069923 0.1083956 0.1094302 0.1101112 0.1104317 0.1104195 0.110135 0.1096067
 0.1089054 0.1080567 0.1071125 0.1061023 0.1050588 0.1040223 0.1030161 0.1020907 0.1012662 0.100591
 0.100081 0.09976283 0.09964397 0.09972885 0.1000176 0.1005243 0.1012493 0.1022359 0.1034859 0.1050376
 0.1068837 0.1090028 0.1113762 0.1139233 0.1166302 0.1194179 0.1222929 0.1252269 0.1282407 0.1313477
 0.1345656 0.1379126 0.141402 0.1450423 0.1488536 0.1528452 0.1570306 0.1614239 0.1659845 0.1707198
 0.1755083 0.1803445 0.1850618 0.1896506 0.1939526 0.1979593 0.2015251 0.2046395 0.2071562 0.2090791
 0.2103193 0.2109413 0.2110231 0.2107137 0.2102768 0.209891 0.2098735 0.2103254 0.2114549 0.2132248
 0.2156895 0.2187213 0.2222892 0.2262733 0.2306371 0.2353067 0.2402658 0.2454628 0.2508919 0.2565065
 0.2623036 0.2682464 0.2743333 0.2805376 0.286857 0.2932659 0.2997563 0.3062942 0.3128531 0.3193713
 0.3257744 0.3319483 0.3377194 0.3429022 0.3471644 0.3502387 0.3516746 0.3511436 0.3483744 0.3430873
 0.3355983 0.3258131 0.3146911 0.3023187 0.28985 0.2774134 0.2658179 0.2551254 0.2455879 0.2371961
 0.2297949 0.2233521 0.2175852 0.2124721 0.2077838 0.2035047 0.1994859 0.1957084 0.1920728 0.1885664
 0.1851305 0.1817762 0.1784885 0.175298 0.1722162 0.169273 0.1664804 0.1638665 0.1614355 0.1592333
 0.1572634 0.1555953 0.154235 0.1532528 0.1526538 0.1524729 0.152707 0.1533097 0.1542608 0.1554047
 0.1567104 0.1579654 0.1591674 0.1601797 0.1610732 0.1618844 0.1627515 0.1638448 0.165305 0.167311
 0.1699342 0.1732793 0.1773159 0.1820702 0.1874394 0.1934064 0.1998692 0.2068136 0.2141435 0.2218713
 0.2296796 0.2375634 0.2445964 0.2506965 0.2543355 0.2554582 0.2528276 0.2466694 0.2371052 0.224648
 0.2106562 0.1955942 0.1809391 0.1668508 0.1541526 0.1427257 0.1327654 0.1240325 0.1164516 0.1097914
 0.1039512 0.09874778 0.09411949 0.089926 0.08613545 0.08265108 0.07945878 0.07650083 0.07377264 0.07123733
 0.06889319 0.06671156 0.06469095 0.06280735 0.06105854 0.05942294 0.0578985 0.05646854 0.05513288 0.05388474
 0.05272165 0.05164165 0.05063126 0.0496818 0.04877133 0.04788372 0.04700756 0.04613012 0.04526559 0.04441204
 0.0436003 0.04283643 0.04213707 0.04150757 0.0409254 0.04039009 0.03985356 0.0393143 0.03874524 0.03815058
 0.03754903 0.03694481 0.03636928 0.03581478 0.03527879 0.03474751 0.03419039 0.03360917 0.03298772 0.03234898
 0.03170574 0.03108238 0.0304986 0.02996391 0.02948845 0.02906825 0.02870669 0.02838596 0.02810649 0.02783262
 0.02756099 0.02725797 0.02692044 0.02654907 0.02614531 0.02574288 0.02534352 0.0249771 0.02464025 0.02433504
 0.02405638 0.02379078 0.023537 0.02328592 0.02303952 0.02279636 0.02255959 0.02233046 0.02211469 0.0219154
 0.02173906 0.02159101 0.02146717 0.02137123 0.02127933 0.02118921 0.02107175 0.0209219 0.02073528 0.02051038
 0.02027702 0.02003703 0.01982766 0.01964806 0.01951023 0.01940867 0.01932683 0.01925934 0.01918182 0.0190948
 0.01898548 0.01886294 0.01873264 0.01860592 0.01849789 0.01840592 0.01833845 0.01827003 0.01819424 0.01808202
 0.01792104 0.01770744 0.01743509 0.01712896 0.01679024 0.01644984 0.0161101 0.01578962 0.01548888 0.01521278
 0.01496036 0.01472694 0.01451083 0.01430212 0.01410019 0.01389717 0.01369588 0.01349706 0.01330587 0.01312984
 0.01297132 0.01283655 0.01272153 0.01262673 0.01254418 0.01247075 0.01240047 0.01233066 0.01225974 0.01218663
 0.01211325 0.01203942 0.01196957 0.01190397 0.01184618 0.01179625 0.01175353 0.01171809 0.01168935 0.01166866
 0.01166247 0.01167055 0.01169827 0.01173823 0.01178074 0.01181418 0.01181734 0.01178789 0.01171231 0.01160446
 0.01146714 0.01131941 0.01117107 0.01103078 0.01090496 0.0107874 0.01067894 0.0105667 0.01044923 0.01031697
 0.01016889 0.01000557 0.00982733 0.009642853 0.009452865 0.009267149 0.009085787 0.008914516 0.00875259 0.008601082
 0.008458713 0.008323552 0.008194583 0.008069386 0.007948188 0.007830285 0.007716323 0.007606361 0.007501478 0.007401591
 0.007309844 0.007226997 0.007156208 0.007099199 0.007051683 0.007014517 0.006971982 0.0069232 0.006850383 0.006753001
 0.00662567 0.00647 0.006296867 0.006108677 0.005922562 0.005738648 0.005566884 0.005404468 0.005250588 0.005102633
 0.004956004 0.004811136 0.004666463 0.00452398 0.004384825 0.004249477 0.004118778 0.003991374 0.003867287 0.003744139
 0.003621697 0.003496779 0.003368986 0.003235801 0.003096926 0.002952626 0.002803039 0.00265247 0.002501474 0.002356831
 0.002218631 0.002091593 0.001973951 0.001863437 0.001757312 0.001648147 0.001536634 0.001419353 0.001301399 0.001186759
 0.001078346 0.0009808318 0.0008898368 0.000805175 0.0007203447 0.0006329293 0.0005407009 0.0004427965 0.0003384684 0.000227552
 0.0001090258 -1.743112E-05 -0.0001471226 -0.0002796051 -0.0004028731 -0.0005166643 -0.0006127317 -0.0006930477 -0.0007620533 -0.0008227542
 -0.0008869416 -0.0009549892 -0.001033934 -0.001121187 -0.001216056 -0.001316182 -0.001418751 -0.001523178 -0.0016289 -0.001733538
 -0.001836984 -0.00193305 -0.002019713 -0.002093061 -0.00215051 -0.002199259 -0.002238956 -0.002285067 -0.002338827 -0.002410098
 -0.002499061 -0.002601441 -0.002716012 -0.002829737 -0.002941958 -0.003042358 -0.003131897 -0.00320778 -0.003271917 -0.003326719
 -0.003373965 -0.003416869 -0.003457378 -0.003498237 -0.003541544 -0.003589908 -0.003643053 -0.003702648 -0.003763283 -0.003824367
 -0.003878002 -0.003921917 -0.003954163 -0.003973321 -0.003987127 -0.003995783 -0.004012018 -0.004036407 -0.004077184 -0.004134072
 -0.004207972 -0.00429797 -0.004400356 -0.004514138 -0.004634612 -0.004760791 -0.004888557 -0.00501703 -0.005143473 -0.00526676
 -0.005385112 -0.005496923 -0.005600399 -0.005695251 -0.005779814 -0.00585865 -0.005931884 -0.006007847 -0.006088424 -0.00617863
 -0.006279951 -0.006389753 -0.006508112 -0.006628998 -0.006752135 -0.006873715 -0.006993619 -0.007109486 -0.007220856 -0.007324033
 -0.007418911 -0.00750239 -0.007576555 -0.007643298 -0.007706993 -0.00777487 -0.007849668 -0.007938112 -0.00803697 -0.008147157
 -0.008261546 -0.008376544 -0.008489069 -0.008596294 -0.008702358 -0.008807509 -0.008916392 -0.009030109 -0.009147564 -0.009268882
 -0.009390234 -0.009511466 -0.009631174 -0.009749475 -0.009867124 -0.009984088 -0.01010065 -0.01021648 -0.0103308 -0.01044302
 -0.01055141 -0.01065606 -0.01075586 -0.01085244 -0.01094696 -0.01104103 -0.01113697 -0.01123279 -0.01132871 -0.01142056
 -0.01150636 -0.01158641 -0.01165968 -0.01173182 -0.01180346 -0.01187892 -0.0119588 -0.0120419 -0.01212813 -0.01221505
 -0.01230275 -0.01239133 -0.01248084 -0.01257182 -0.01266355 -0.01275411 -0.01284276 -0.01292662 -0.01300622 -0.01308078
 -0.0131518 -0.01322058 -0.01328809 -0.01335539 -0.01342313 -0.0134918 -0.01356208 -0.01363449 -0.01370849 -0.01378442
 -0.01385937 -0.01393311 -0.01400225 -0.01406633 -0.01412559 -0.0141801 -0.01423501 -0.01429075 -0.01435411 -0.01442481
 -0.01450587 -0.01459509 -0.01468747 -0.01478026 -0.01486433 -0.01494023 -0.01500348 -0.01505942 -0.01511166 -0.01516534
 -0.01522627 -0.01529389 -0.01537029 -0.0154505 -0.01553349 -0.01561471 -0.01569286 -0.01576584 -0.01583297 -0.0158951
 -0.01595203 -0.0160084 -0.01606446 -0.01612637 -0.01619427 -0.0162716 -0.01635848 -0.01645645 -0.01656736 -0.0166969
 -0.01684937 -0.01703628 -0.01726225 -0.01753951 -0.01786965 -0.01825913 -0.01870706 -0.01921381 -0.01978139 -0.02040985
 -0.02110492 -0.02187082 -0.02270094 -0.02359882 -0.02453275 -0.02550018 -0.02646381 -0.0274192 -0.02836004 -0.02928582
 -0.0301992 -0.03109375 -0.0319058 -0.03261556 -0.0330821 -0.03329317 -0.03312275 -0.03259652 -0.03168443 -0.03047999
 -0.02909282 -0.02765362 -0.02635007 -0.02523947 -0.02443474 -0.02390637 -0.02367353 -0.02367836 -0.02391274 -0.0243
 -0.02483353 -0.0253897 -0.02595428 -0.02639944 -0.02670806 -0.02687285 -0.02689351 -0.02686244 -0.02678287 -0.02672167
 -0.02667373 -0.0266472 -0.0266323 -0.02660018 -0.02654594 -0.02644059 -0.02629368 -0.02610662 -0.02589113 -0.02566481
 -0.02542138 -0.02516301 -0.02487831 -0.0245561 -0.02421215 -0.0238445 -0.02349013 -0.02315823 -0.02286875 -0.02262852
 -0.02242589 -0.02226116 -0.0221116 -0.02197604 -0.02184324 -0.02171384 -0.02159271 -0.0214807 -0.02138545 -0.02130588
 -0.02124235 -0.02119335 -0.02115531 -0.02112809 -0.02111011 -0.02110103 -0.02110085 -0.02110639 -0.02111566 -0.02112509
 -0.02113188 -0.0211358 -0.02113567 -0.02113425 -0.02113194 -0.02113106 -0.02113198 -0.02113656 -0.0211449 -0.02116006
 -0.02118221 -0.02121547 -0.02125987 -0.02131726 -0.02138683 -0.02146523 -0.02155084 -0.02163634 -0.02172079 -0.02179814
 -0.02186908 -0.02193207 -0.02198798 -0.02203759 -0.02208051 -0.02211667 -0.02214583 -0.02216734 -0.02218314 -0.02219316
 -0.02220172 -0.02220964 -0.02222112 -0.02223734 -0.02225749 -0.02228203 -0.02230277 -0.02231926 -0.02232401 -0.0223175
 -0.02230377 -0.02228446 -0.02227176 -0.02226536 -0.02227143 -0.02228677 -0.02230672 -0.02232941 -0.02234877 -0.02236703
 -0.02238393 -0.02240298 -0.02242742 -0.02245746 -0.02249546 -0.02253555 -0.02257717 -0.02261111 -0.02263458 -0.02264421
 -0.02263786 -0.02262397 -0.02260276 -0.02258661 -0.02257624 -0.02257423 -0.02258 -0.02258602 -0.02259213 -0.02259318
 -0.02259067 -0.02258722 -0.02258402 -0.02258575 -0.0225914 -0.02260167 -0.02261467 -0.02262816 -0.02264194 -0.02265499
 -0.02266793 -0.02268137 -0.02269384 -0.02270553 -0.02271261 -0.02271382 -0.02270854 -0.02269574 -0.02268153 -0.02266628
 -0.02265665 -0.02265305 -0.02265433 -0.02266004 -0.0226634 -0.02266447 -0.02265999 -0.02265105 -0.02264006 -0.02262765
 -0.02261665 -0.02260696 -0.0225993 -0.02259453 -0.02259377 -0.02259816 -0.02260982 -0.0226264 -0.02264819 -0.02266948
 -0.02268823 -0.02270046 -0.02270432 -0.02270056 -0.02268886 -0.02267171 -0.02264931 -0.02262349 -0.02259435 -0.02256518
 -0.02253629 -0.02251299 -0.02249538 -0.02248717 -0.02248763 -0.02249657 -0.02251235 -0.02253144 -0.02255152 -0.02256718
 -0.02257711 -0.02257682 -0.02256863 -0.02255208 -0.02253231 -0.02251226 -0.02249452 -0.02248124 -0.02247117 -0.02246439
 -0.0224594 -0.02245575 -0.02245423 -0.02245485 -0.02245848 -0.02246516 -0.02247474 -0.02248714 -0.02250144 -0.02251733
 -0.02253248 -0.02254639 -0.02255599 -0.02256112 -0.02255962 -0.02255211 -0.02253837 -0.02251979 -0.02249739 -0.02247392
 -0.02245176 -0.02243317 -0.0224209 -0.02241279 -0.02240929 -0.0224054 -0.02239964 -0.02239027 -0.02237636 -0.02236047
 -0.02234281 -0.02232493 -0.02230695 -0.02228742 -0.02226631 -0.02224308 -0.0222179 -0.02219184 -0.02216491 -0.02213764
 -0.02211012 -0.02208247 -0.02205574 -0.02203167 -0.02201135 -0.02199731 -0.02198843 -0.02198527 -0.02198448 -0.02198456
 -0.02198236 -0.02197603 -0.02196517 -0.02194902 -0.02192962 -0.02190712 -0.02188367 -0.02185957 -0.02183562 -0.02181191
 -0.02178869 -0.02176594 -0.02174337 -0.02172089 -0.02169782 -0.02167391 -0.02164787 -0.02161948 -0.02158752 -0.02155193
 -0.02151172 -0.02146772 -0.02142013 -0.0213708 -0.02132129 -0.02127298 -0.0212273 -0.02118403 -0.02114337 -0.02110499
 -0.02106845 -0.02103562 -0.02100654 -0.02098409 -0.02096865 -0.02096135 -0.02096234 -0.02096912 -0.02098132 -0.02099273
 -0.02100267 -0.02100324 -0.02099456 -0.02097237 -0.02093851 -0.02089502 -0.02084479 -0.02079381 -0.0207438 -0.0206997
 -0.02066046 -0.02062742 -0.02059732 -0.02056862 -0.02053916 -0.02050712 -0.02047414 -0.02043994 -0.02040811 -0.02037937
 -0.02035515 -0.02033585 -0.02032007 -0.02030777 -0.02029654 -0.02028627 -0.02027519 -0.02026332 -0.02025005 -0.02023551
 -0.02022026 -0.02020374 -0.02018512 -0.02016281 -0.02013334 -0.0200964 -0.02004885 -0.01999511 -0.0199364 -0.01988103
 -0.01983408 -0.0198012 -0.01978707 -0.01978887 -0.01980805 -0.01983451 -0.01986699 -0.01989604 -0.01992013 -0.01993785
 -0.01994894 -0.01995805 -0.01996532 -0.01997359 -0.01998238 -0.01998944 -0.0199942 -0.01999304 -0.01998592 -0.01997077
 -0.01994804 -0.01991708 -0.01987974 -0.01983716 -0.01979337 -0.01975178 -0.01971647 -0.01969148 -0.01967644 -0.01967347
 -0.01967561 -0.01968206 -0.01968379 -0.0196787 -0.01966351 -0.01963714 -0.01960432 -0.01956527 -0.01952479 -0.01948284
 -0.01943859 -0.01939192 -0.01934127 -0.01928756 -0.01923382 -0.0191809 -0.01913316 -0.01908956 -0.01905022 -0.01901388
 -0.01897831 -0.01894474 -0.0189132 -0.01888571 -0.01886432 -0.01884716 -0.01883493 -0.01882163 -0.01880568 -0.01878319
 -0.01875248 -0.01871666 -0.01867562 -0.01863551 -0.01859679 -0.01856138 -0.01852923 -0.01849832 -0.01846859 -0.01843871
 -0.0184089 -0.01837939 -0.01835037 -0.01832214 -0.01829555 -0.01827221 -0.01825296 -0.01824055 -0.01823233 -0.01822807
 -0.01822176 -0.01820929 -0.01818839 -0.01815553 -0.01811724 -0.01807396 -0.01803465 -0.01800154 -0.01797701 -0.01796218
 -0.01795113 -0.01794364 -0.01793101 -0.01791315 -0.01788885 -0.01785934 -0.01783352 -0.01781207 -0.01780346 -0.01780547
 -0.01781693 -0.01783434 -0.01785073 -0.01786391 -0.01786841 -0.01786296 -0.01784395 -0.01781319 -0.01776885 -0.01771983
 -0.0176689 -0.01762458 -0.01759123 -0.01756622 -0.01755058 -0.01753521 -0.01751884 -0.01749856 -0.01747393 -0.01744922
 -0.01742455 -0.01740226 -0.01738212 -0.01736332 -0.01734584 -0.01732929 -0.01731362 -0.01729878 -0.01728417 -0.01726876
 -0.01725192 -0.0172323 -0.01720981 -0.01718368 -0.01715475 -0.01712322 -0.01709012 -0.01705625 -0.0170208 -0.01698385
 -0.0169439 -0.01690025 -0.01685498 -0.01680804 -0.01676331 -0.01672106 -0.01668323 -0.01665003 -0.0166251 -0.0166092
 -0.01661083 -0.01662897 -0.01666599 -0.01671582 -0.01676404 -0.01680307 -0.01680941 -0.01678556 -0.01672165 -0.01663274
 -0.01652865 -0.01642229 -0.01632634 -0.01624113 -0.01617114 -0.01610843 -0.01605158 -0.0159944 -0.0159347 -0.01587445
 -0.01581332 -0.01575667 -0.01570489 -0.01566026 -0.01562279 -0.01559235 -0.01556814 -0.01554517 -0.01552036 -0.01547732
 -0.01541416 -0.01531387 -0.01518426 -0.01503095 -0.01486471 -0.01470401 -0.01455022 -0.01441136 -0.01428512 -0.01417145
 -0.01407109 -0.01398576 -0.01391006 -0.01384541 -0.01377392 -0.01369296 -0.01358586 -0.01344933 -0.0132829 -0.0130859
 -0.01287067 -0.01263805 -0.01240532 -0.0121731 -0.01195516 -0.01174942 -0.01155452 -0.01136687 -0.01117451 -0.01097781
 -0.01077154 -0.01055798 -0.01033967 -0.01011363 -0.009877504 -0.00963049 -0.009368309 -0.009102235 -0.00883612 -0.008578611
 -0.00833584 -0.008098056 -0.007865295 -0.007622536 -0.007367174 -0.007097458 -0.006812978 -0.006517345 -0.006210211 -0.005881015
 -0.005527674 -0.005126587 -0.004678835 -0.004172919 -0.00361933 -0.003041839 -0.002450158 -0.001879047 -0.001320633 -0.0007821622
 -0.0002438563 0.0003118252 0.0008943578 0.001519189 0.002174506 0.002858318 0.003561586 0.004274577 0.005024601 0.005807064
 0.006698608 0.007704122 0.008923098 0.01036502 0.01205284 0.01398447 0.01606792 0.01830362 0.02064513 0.02311922
 0.02582198 0.0287822 0.03214596 0.03589517 0.04008806 0.04463149 0.04943939 0.05438672 0.05932238 0.06417482
 0.06883942 0.07333938 0.07765558 0.08184134 0.08593082 0.08985393 0.09362194 0.09704129 0.1000813 0.10268
 0.1048242 0.1066461 0.1081518 0.1094651 0.1105819 0.1115149 0.1122583 0.112789 0.1131143 0.1132439
 0.1131886 0.1129716 0.1126082 0.1121212 0.1115441 0.1109107 0.1102644 0.1096383 0.1090776 0.108608
 0.1082645 0.1080639 0.108019 0.1081306 0.1084303 0.1089159 0.1096807 0.1107347 0.1120825 0.1137167
 0.1153576 0.1169893 0.1183401 0.119437 0.1202678 0.1208631 0.1213062 0.1216127 0.121843 0.1220286
 0.1222216 0.1224934 0.1229133 0.1235887 0.124609 0.1260493 0.1280031 0.1303518 0.1331169 0.1359988
 0.138938 0.1417363 0.1443495 0.1467678 0.1489829 0.1510897 0.1530958 0.1551953 0.1574084 0.1600263
 0.163023 0.1664772 0.1702486 0.1739195 0.1774584 0.1805469 0.1833514 0.185979 0.1885629 0.1912937
 0.1941824 0.1973 0.200604 0.2040897 0.2077289 0.2115274 0.2153893 0.2193029 0.2231479 0.2268957
 0.2305838 0.2342127 0.2378364 0.241452 0.2448629 0.2480515 0.2507524 0.252991 0.2547486 0.256069
 0.2570928 0.2578087 0.2582636 0.2584254 0.2582373 0.2577654 0.2570418 0.2561644 0.2552158 0.2542361
 0.2532717 0.2523062 0.251351 0.2503505 0.2493004 0.2481271 0.2468226 0.2453146 0.2435942 0.2416619
 0.2395198 0.237278 0.2349383 0.2325652 0.2301418 0.2276163 0.2249725 0.2221276 0.2190894 0.2158183
 0.2123706 0.2088019 0.2051836 0.2016211 0.1981157 0.1947106 0.191354 0.1880164 0.1847191 0.1814427
 0.1783084 0.1753437 0.1726054 0.1701138 0.1678128 0.165699 0.1637388 0.1619318 0.1603238 0.1589175
 0.1577599 0.1568441 0.1561586 0.1556956 0.1554235 0.1553419 0.1554357 0.1557049 0.1561416 0.1567511
 0.15753 0.158503 0.1596798 0.1611016 0.1627834 0.1647804 0.1671052 0.1698345 0.1729889 0.1766112
 0.1807246 0.1852242 0.190112 0.1951421 0.2003005 0.2053176 0.2101703 0.2145438 0.2183916 0.2212881
 0.2232415 0.2240055 0.2237252 0.2225678 0.2207185 0.2185053 0.2160985 0.2137886 0.2116802 0.2099538
 0.2085783 0.2075775 0.2069231 0.2065741 0.2066874 0.2072869 0.2085307 0.2104969 0.2127985 0.2154179
 0.2178764 0.2201554 0.2223067 0.224346 0.2264614 0.228646 0.230957 0.23338 0.2358943 0.2385024
 0.2412305 0.2440038 0.2468391 0.2493309 0.2511178 0.2517286 0.2505658 0.2478834 0.2435922 0.2382138
 0.2318947 0.2250333 0.217701 0.2103939 0.2031857 0.1964611 0.190273 0.18462 0.1795018 0.1747248
 0.1702862 0.1660928 0.1621557 0.1584975 0.1551058 0.1519641 0.1490269 0.1461873 0.1434089 0.1405839
 0.1377144 0.1347639 0.1317399 0.1286546 0.125453 0.1221151 0.1185811 0.1147668 0.1109218 0.10705
 0.1035883 0.1006404 0.09814592 0.09612253 0.09423971 0.09248196 0.09068458 0.08885646 0.08704559 0.08526774
 0.08363705 0.08214751 0.0808318 0.07969192 0.07873362 0.07799786 0.07754937 0.07742132 0.07768555 0.0783195
 0.07933009 0.08068864 0.08237648 0.08439725 0.08673973 0.08944616 0.0924952 0.09608425 0.1002035 0.1053201
 0.1114825 0.1189542 0.1277418 0.1369164 0.1463735 0.1545554 0.1614913 0.1665266 0.169812 0.1714899
 0.1717169 0.1708738 0.1691485 0.1669873 0.16453 0.1620989 0.1597383 0.1575856 0.1556188 0.1538774
 0.1522623 0.1507509 0.1492532 0.1477322 0.1462069 0.1446669 0.1432069 0.1418342 0.1406235 0.1395785
 0.1386788 0.1379185 0.1372217 0.136586 0.1359597 0.1353451 0.1347256 0.1340971 0.1334466 0.1327585
 0.1319994 0.1311676 0.1302319 0.1292483 0.128227 0.1272868 0.1264814 0.1259284 0.1256884 0.1257917
 0.1262641 0.1270619 0.1281838 0.1295824 0.1312574 0.1331212 0.1351684 0.1371894 0.1391721 0.1409
 0.1423844 0.143573 0.1444941 0.1452173 0.1457618 0.1462081 0.1465578 0.1468534 0.1470762 0.1472273
 0.1472715 0.147186 0.1469335 0.1464872 0.1458305 0.1449443 0.1438569 0.1425605 0.1411438 0.1396125
 0.138086 0.1365763 0.1351579 0.1338352 0.1326212 0.1315161 0.1305252 0.1296528 0.1289282 0.1283533
 0.1279582 0.1277239 0.1276353 0.1276388 0.1276558 0.1276062 0.1273727 0.1268985 0.1260813 0.1249692
 0.12353 0.1219327 0.1202214 0.1185609 0.1170106 0.1156017 0.114357 0.1131998 0.1121254 0.1110656
 0.1100163 0.1089904 0.1079929 0.1070945 0.1062957 0.105639 0.1051122 0.1046952 0.1043763 0.1041175
 0.1039162 0.1037517 0.1036234 0.103525 0.1034496 0.1033929 0.1033396 0.103282 0.1032041 0.1030963
 0.1029602 0.1027901 0.1026151 0.102437 0.1022956 0.1021959 0.1021547 0.1021735 0.1022315 0.1023267
 0.1024259 0.1025304 0.10263 0.1027323 0.102858 0.1030155 0.1032365 0.1035215 0.1038877 0.1043249
 0.10483 0.1053876 0.1059868 0.1066095 0.107246 0.1078729 0.1084817 0.1090468 0.1095606 0.1100053
 0.1103756 0.1106721 0.1108927 0.1110633 0.1111851 0.1113007 0.1114118 0.11155 0.1117125 0.1118993
 0.1121044 0.112306 0.1125015 0.1126721 0.1128218 0.1129472 0.1130574 0.1131609 0.113266 0.1133834
 0.1135145 0.1136632 0.1138278 0.1140057 0.1142077 0.114433 0.1147076 0.1150362 0.1154339 0.1159047
 0.1164274 0.117001 0.1175752 0.1181472 0.1186684 0.1191394 0.1195378 0.1198695 0.1201416 0.1203629
 0.120557 0.1207329 0.1209148 0.1211118 0.1213428 0.1216155 0.121943 0.1223271 0.1227742 0.1232769
 0.1238357 0.1244356 0.1250742 0.1257326 0.1264078 0.1270825 0.1277543 0.1284177 0.1290721 0.1297258
 0.1303791 0.1310413 0.1317109 0.1323844 0.1330575 0.1337131 0.134345 0.1349306 0.1354624 0.1359189
 0.1362924 0.1365657 0.1367341 0.1367868 0.136727 0.136551 0.1362732 0.1358949 0.1354408 0.1349151
 0.1343478 0.1337439 0.1331281 0.1325044 0.1318791 0.1312531 0.1306102 0.129949 0.1292443 0.128496
 0.1276898 0.1268288 0.1259162 0.1249586 0.1239716 0.1229665 0.1219673 0.1209882 0.1200558 0.1191779
 0.1183719 0.117632 0.1169617 0.1163465 0.1157825 0.1152543 0.1147583 0.1142785 0.1138122 0.1133438
 0.1128709 0.1123904 0.1119018 0.1114266 0.1109671 0.1105628 0.1102153 0.1099567 0.1097835 0.109701
 0.1097022 0.1097718 0.1099051 0.1100874 0.1103164 0.1105854 0.1108888 0.11122 0.1115756 0.111948
 0.11235 0.1127811 0.1132682 0.1138186 0.1144499 0.1151688 0.1159665 0.1168448 0.1177723 0.1187473
 0.1197289 0.1207152 0.1216686 0.1225885 0.1234524 0.1242621 0.125012 0.1257058 0.1263492 0.126946
 0.1275052 0.1280285 0.1285226 0.128985 0.1294171 0.1298112 0.1301652 0.130466 0.1307098 0.1308803
 0.1309712 0.130978 0.1308951 0.1307485 0.130538 0.1303152 0.1300831 0.1298883 0.129732 0.1296352
 0.1295959 0.129612 0.1296802 0.1297863 0.1299279 0.1300907 0.130277 0.1304829 0.1307152 0.1309795
 0.1312864 0.1316428 0.1320696 0.1325755 0.1331934 0.133938 0.1348331 0.1358927 0.137104 0.1384723
 0.139945 0.1415197 0.1431246 0.1447554 0.1463446 0.1478896 0.1493448 0.1507097 0.1519597 0.1530934
 0.1540908 0.154953 0.1556658 0.1562472 0.156714 0.1571046 0.1574708 0.1578481 0.1582893 0.1587975
 0.1593971 0.1600526 0.16076 0.1614699 0.1621672 0.1628238 0.1634294 0.16399 0.1645042 0.1649902
 0.1654491 0.1658875 0.1663053 0.1666997 0.1670699 0.1674094 0.1677153 0.1679725 0.1681775 0.168312
 0.168377 0.1683655 0.1682804 0.1681233 0.1678939 0.1675914 0.1672185 0.1667733 0.1662687 0.1657069
 0.1651067 0.1644715 0.1638237 0.1631661 0.1625252 0.1619041 0.161321 0.1607776 0.1602692 0.1597947
 0.1593325 0.1588799 0.1584092 0.1579171 0.1573738 0.156779 0.1561138 0.1553871 0.1546042 0.1537789
 0.1529316 0.1520704 0.1512104 0.1503532 0.1495038 0.148662 0.1478277 0.147004 0.1461895 0.1453994
 0.1446352 0.1439178 0.1432517 0.1426319 0.1420595 0.1414922 0.1409278 0.1403235 0.13968 0.1389843
 0.1382382 0.1374427 0.1365963 0.1356938 0.134735 0.1337148 0.1326389 0.131511 0.1303398 0.1291338
 0.1279007 0.1266483 0.1253787 0.1240953 0.1227952 0.1214766 0.1201447 0.1187977 0.1174563 0.1161223
 0.1148129 0.1135299 0.1122744 0.1110464 0.1098464 0.1086752 0.1075414 0.1064441 0.105385 0.1043598
 0.1033573 0.1023748 0.1014021 0.1004393 0.09948283 0.09853302 0.09758795 0.09665179 0.09572468 0.09481669
 0.09393238 0.09307761 0.0922571 0.09146293 0.09069654 0.08993635 0.08918109 0.08840302 0.08759996 0.08675581
 0.08587102 0.08496156 0.08403175 0.08312292 0.0822385 0.08141521 0.08065347 0.07997173 0.07937226 0.07886626
 0.07845955 0.07816463 0.07798453 0.07793128 0.0779895 0.07816714 0.07840049 0.07868446 0.07888837 0.07898535
 0.07882392 0.07836599 0.07754467 0.07633562 0.07482681 0.07301839 0.07111248 0.06911988 0.06724197 0.06548022
 0.06394038 0.062608 0.06147928 0.06053407 0.0597139 0.0590064 0.05836026 0.05777175 0.05721631 0.0566906
 0.05618438 0.05569289 0.05520896 0.05473494 0.05426697 0.05382132 0.05340035 0.05302478 0.05270091 0.05242992
 0.05221497 0.05203057 0.05187524 0.05172439 0.05157768 0.05143917 0.05131101 0.05121362 0.0511469 0.05112067
 0.05113401 0.05118793 0.05128505 0.05143256 0.05162849 0.05187899 0.05216427 0.05247379 0.05277327 0.05303875
 0.05324403 0.0533676 0.05341378 0.05337429 0.05328372 0.05314571 0.05299838 0.05284777 0.05270981 0.05258647
 0.05247675 0.05238081 0.05230292 0.05224397 0.05221455 0.05221413 0.05224607 0.05230891 0.05239977 0.05251842
 0.05266478 0.05283455 0.0530254 0.0532233 0.05341581 0.0535874 0.05372189 0.05381906 0.05387068 0.05389714
 0.05390065 0.05390868 0.0539278 0.05397162 0.05404442 0.05413588 0.05424606 0.05435291 0.05445563 0.05454413
 0.0546197 0.05469024 0.05475613 0.05482483 0.05489226 0.05494968 0.05499485 0.05501518 0.05502081 0.05501844
 0.05502308 0.05505592 0.05511235 0.05520149 0.05529569 0.05538326 0.05544978 0.05548234 0.05550512 0.05551916
 0.0555568 0.05562494 0.05571963 0.05584229 0.05595783 0.05606471 0.05613719 0.05617678 0.05618649 0.05616942
 0.05614227 0.05610545 0.0560695 0.0560316 0.05599156 0.05594554 0.055888 0.05581662 0.05572615 0.0556189
 0.05549262 0.05535771 0.05521685 0.0550837 0.05496382 0.05486204 0.05478179 0.05471513 0.05466189 0.05461156
 0.05456333 0.05450978 0.05445055 0.05438035 0.05430032 0.05421693 0.0541347 0.05407929 0.05405329 0.05408165
 0.05415568 0.05427239 0.05441559 0.05456024 0.05469742 0.05480625 0.05489334 0.05495379 0.05500625 0.05505677
 0.05512447 0.05521774 0.05534252 0.05550291 0.05569129 0.05590731 0.05614335 0.05639876 0.05666967 0.05695579
 0.05725037 0.05755334 0.05786044 0.05817387 0.05850185 0.05884736 0.05922428 0.05963317 0.06008271 0.06056989
 0.06109766 0.06165242 0.06222674 0.06279403 0.06333292 0.06382953 0.06426428 0.0646635 0.06502681 0.0653998
 0.06579433 0.06622715 0.06670555 0.06720383 0.06772146 0.06821686 0.06868823 0.06911267 0.06949287 0.06984499
 0.07017519 0.07052413 0.07089207 0.07130337 0.07174975 0.07222484 0.07272328 0.07323277 0.07375599 0.07429115
 0.07484154 0.0754074 0.07599638 0.0766088 0.07726359 0.07796679 0.07873209 0.07956643 0.08045859 0.08140934
 0.08239532 0.08341427 0.08445721 0.0855241 0.08663295 0.08778697 0.08902498 0.09034973 0.09179601 0.09336291
 0.09506374 0.09690092 0.09888463 0.1010203 0.1033297 0.1057886 0.1084013 0.111081 0.1137926 0.1163909
 0.1188222 0.1208965 0.122556 0.1236071 0.1239844 0.1236483 0.1225553 0.1209637 0.1188798 0.1167297
 0.1145348 0.1126052 0.1109381 0.1096191 0.1086272 0.1079056 0.1074324 0.1071117 0.1069266 0.1067964
 0.1067117 0.1066257 0.106533 0.1064137 0.1062597 0.1060601 0.1058084 0.1054967 0.1051295 0.104703
 0.1042396 0.1037386 0.1032462 0.1027663 0.102352 0.1020098 0.1017494 0.1015709 0.1014229 0.1013023
 0.1011578 0.1009945 0.1008133 0.100621 0.1004422 0.1002742 0.1001248 0.09998609 0.09985092 0.09970966
 0.09954982 0.09936476 0.09913978 0.09889352 0.09862129 0.09837957 0.09819024 0.09807516 0.09805898 0.09805056
 0.09804121 0.09795067 0.09776818 0.09749813 0.09714086 0.09674016 0.09629985 0.09587708 0.09547218 0.09511944
 0.09481062 0.09453493 0.09428882 0.09405558 0.0938445 0.09366474 0.09351823 0.09341537 0.09334039 0.0932846
 0.09323731 0.09318773 0.0931433 0.09310254 0.09308039 0.09307807 0.09311771 0.09320284 0.09334925 0.09356136
 0.09380327 0.09407276 0.09428433 0.09443534 0.09446564 0.09438194 0.09418876 0.09389548 0.0935337 0.09311227
 0.09266105 0.09219756 0.0917592 0.09136436 0.09105086 0.0908148 0.09067071 0.09059159 0.0905731 0.09057265
 0.09057552 0.09054875 0.09047256 0.09038593 0.09028456 0.09026827 0.09034829 0.09055224 0.09088125 0.0912466
 0.0916449 0.09200543 0.09233759 0.09265993 0.09297828 0.0933248 0.09369239 0.0940804 0.09448179 0.09488704
 0.09528673 0.09566876 0.09602188 0.09632854 0.09660147 0.0968364 0.09706978 0.09731504 0.09758994 0.0979056
 0.09824282 0.0986021 0.09895101 0.09928626 0.09959073 0.09986354 0.1001211 0.100365 0.1006258 0.1008972
 0.101164 0.1014123 0.1015789 0.101672 0.1016684 0.1016072 0.1015423 0.1014978 0.1015301 0.1016194
 0.1017718 0.1019558 0.1021592 0.1023514 0.1025257 0.1026317 0.102656 0.1025656 0.102346 0.1020416
 0.1016514 0.1012707 0.1009046 0.100621 0.1004188 0.1003036 0.1002669 0.1002652 0.1002905 0.1002898
 0.100265 0.1001938 0.1000821 0.09993259 0.09974162 0.09950566 0.09922352 0.09888911 0.09851624 0.09811188
 0.09768101 0.09722956 0.0967463 0.09622625 0.09567993 0.09510584 0.09453445 0.09396999 0.09341099 0.09285753
 0.09227544 0.09166344 0.09099787 0.09027788 0.08948638 0.08862307 0.08766897 0.08664405 0.08557587 0.08450631
 0.08351827 0.08263074 0.08190609 0.08131937 0.0808759 0.08053499 0.08028141 0.08006845 0.07988103 0.07966673
 0.07940654 0.07908826 0.07869937 0.07830234 0.07789999 0.0775727 0.07732517</values></Ydata></AB><ScSm><Ydata ylabel="Single channel"><values byteorder="INTEL" format="FLOAT32" numvalues="1814"> 0.06885885 0.06886449 0.06893454 0.06908865 0.06929658 0.06949771 0.069642 0.06971955 0.06974576 0.06972589
 0.06966474 0.0696127 0.06965567 0.06983241 0.0700798 0.07027465 0.07033101 0.07027545 0.07023354 0.07030773
 0.07044175 0.07043374 0.07012644 0.06958687 0.0690639 0.06875805 0.06869473 0.06886736 0.06936027 0.07011636
 0.07067448 0.07049825 0.06965008 0.06882346 0.06857412 0.06878583 0.06899291 0.06891878 0.06856415 0.06809981
 0.06790978 0.06848904 0.06995918 0.07166424 0.07240189 0.07117929 0.0679228 0.06370974 0.06037381 0.05952236
 0.06140373 0.06457645 0.06698982 0.06762034 0.06696652 0.0660181 0.06519087 0.06444974 0.06399058 0.06427162
 0.06537707 0.0665983 0.06680238 0.06539431 0.06302121 0.06111781 0.06060341 0.06130232 0.06270386 0.06452447
 0.06593309 0.06509752 0.06097659 0.05561318 0.05323689 0.05624519 0.06264634 0.06801406 0.06943263 0.06713015
 0.0631924 0.05983046 0.05855961 0.05978755 0.06271762 0.06600987 0.06860523 0.06979406 0.0690347 0.06641446
 0.06311487 0.06084551 0.06079464 0.06316048 0.06710861 0.07084717 0.07244063 0.0712399 0.06831433 0.06531735
 0.06339426 0.06319246 0.06502918 0.06856018 0.07274947 0.07647447 0.07899242 0.08001201 0.07974474 0.07876924
 0.07759293 0.0765736 0.07623135 0.07692955 0.07803871 0.078171 0.07668896 0.07454951 0.07331403 0.07352929
 0.0742895 0.07434251 0.07336035 0.07174167 0.06937411 0.06560095 0.0607232 0.05641417 0.05405031 0.05365623
 0.05489144 0.05759467 0.06062141 0.06176519 0.06016858 0.05787712 0.05781467 0.06066287 0.064502 0.06715432
 0.06819862 0.06882484 0.07029293 0.07264329 0.07453314 0.07425046 0.07141313 0.06793107 0.06666291 0.06861238
 0.07195818 0.0742889 0.07514455 0.07576942 0.07693507 0.07775122 0.07659291 0.07302712 0.06887061 0.06708434
 0.06920123 0.07379223 0.07749878 0.07752655 0.07352971 0.06769262 0.06301986 0.06125531 0.06239804 0.06583285
 0.0710142 0.07688516 0.08159904 0.08355382 0.08257021 0.07978666 0.07636066 0.07240452 0.06761001 0.06302262
 0.06125445 0.06401558 0.06993307 0.07569532 0.07900877 0.07974681 0.07866898 0.07601085 0.07168002 0.0665879
 0.0631002 0.06321646 0.06617481 0.06886771 0.06909452 0.06757417 0.06636655 0.06629211 0.06661163 0.0665971
 0.0665606 0.06730597 0.06898288 0.07076407 0.07165079 0.0713885 0.07051935 0.06974012 0.0692718 0.06870471
 0.06757306 0.06626721 0.06601915 0.06756362 0.07013684 0.07226081 0.07323427 0.07340772 0.07321209 0.07240032
 0.07041432 0.06744113 0.06485408 0.06420162 0.0657139 0.06815648 0.07012071 0.0710379 0.07105218 0.07052271
 0.06977915 0.06900544 0.06828373 0.06783292 0.06796811 0.06866398 0.06943424 0.06982225 0.06978468 0.06948517
 0.0689669 0.06819511 0.06728595 0.06653988 0.06623413 0.06641151 0.06688452 0.06740709 0.06778039 0.06784762
 0.06754686 0.06699987 0.06642639 0.06594399 0.06554779 0.06526667 0.06519575 0.06534518 0.06557035 0.0657028
 0.065686 0.06555291 0.06533499 0.06504115 0.0646933 0.06434628 0.06407882 0.06395665 0.0639699 0.06402129
 0.06402112 0.06397247 0.06391501 0.06382564 0.06364737 0.06339093 0.06314126 0.06297284 0.06289764 0.06287669
 0.06284358 0.06271814 0.06243185 0.06198657 0.06150833 0.06119609 0.06116442 0.06135442 0.06161962 0.06184877
 0.06198363 0.06199838 0.06191805 0.06180643 0.06169412 0.06154913 0.06133825 0.06109695 0.06092675 0.06091712
 0.06105666 0.06123333 0.06133736 0.06134187 0.06127926 0.06119175 0.06112172 0.06109243 0.06107284 0.06100395
 0.06087404 0.06073694 0.06065334 0.06063378 0.06063478 0.06060507 0.0605434 0.06050078 0.06051277 0.06055283
 0.06057091 0.06055276 0.06051928 0.06048464 0.06043183 0.06032863 0.06016984 0.05999944 0.05987304 0.05980185
 0.05975644 0.05971888 0.05970153 0.05971323 0.05973155 0.05971868 0.05965836 0.05956987 0.05947888 0.0593801
 0.05924704 0.05907843 0.05891202 0.05878519 0.05869896 0.05862545 0.05853759 0.05842736 0.05830309 0.05817404
 0.05803952 0.05789194 0.05772455 0.05753784 0.05734898 0.05719212 0.05709229 0.05703442 0.05696953 0.05685733
 0.05669979 0.05653364 0.05639213 0.05627663 0.05616895 0.05606559 0.05598503 0.05594139 0.0559279 0.05593033
 0.0559413 0.05595908 0.0559909 0.05606227 0.05620489 0.05642129 0.05666946 0.05689497 0.05707677 0.05723465
 0.05739729 0.05757531 0.05776516 0.05796668 0.05819 0.05844494 0.05872018 0.05897716 0.05918081 0.05933999
 0.05950084 0.05969765 0.05992852 0.06017707 0.06042815 0.06065854 0.06084446 0.06099265 0.06114111 0.06131666
 0.06150939 0.06169821 0.06188221 0.06207303 0.06227161 0.06247109 0.06267798 0.06291361 0.06319124 0.06349777
 0.06379919 0.06406341 0.06428677 0.06450471 0.06476912 0.06510413 0.06548318 0.06585277 0.06617936 0.06647377
 0.06677084 0.06708749 0.06740966 0.06772643 0.06806077 0.06844468 0.06887102 0.06929673 0.06969372 0.07007263
 0.07045469 0.07084395 0.07123452 0.07162771 0.07203156 0.07244846 0.07286676 0.07326433 0.07362452 0.07395088
 0.07426439 0.07458813 0.07493523 0.07529919 0.0756473 0.07594012 0.07617805 0.0764163 0.07670785 0.07703906
 0.07734956 0.07761186 0.07785924 0.07813022 0.07841812 0.07869227 0.07894593 0.07920143 0.07947546 0.07975412
 0.07999994 0.08017985 0.08029367 0.08037825 0.080478 0.08061428 0.08079074 0.08101386 0.08128272 0.08156335
 0.08180268 0.08197239 0.08208236 0.08215809 0.08222732 0.08232123 0.08246031 0.08263531 0.08281408 0.08296283
 0.08306059 0.08311678 0.08318415 0.0833267 0.0835588 0.0838367 0.0841191 0.08440892 0.08472131 0.0850408
 0.08533915 0.08562009 0.08591419 0.08622654 0.08651474 0.08673009 0.08686191 0.08692998 0.08695574 0.08696334
 0.0869882 0.08704917 0.08711452 0.08711994 0.08701885 0.08679923 0.08646227 0.08601386 0.08548583 0.08495031
 0.08450153 0.0842202 0.08415236 0.08431232 0.08469111 0.08524901 0.08590361 0.08654336 0.08706549 0.08740172
 0.08751484 0.0873929 0.08705769 0.08656129 0.08594862 0.08521914 0.08433533 0.08326715 0.08201638 0.08059954
 0.07902469 0.07729606 0.07543791 0.07351115 0.07160908 0.06983576 0.06828718 0.06705531 0.06624003 0.06592284
 0.06609232 0.06658535 0.06711463 0.06737438 0.0671509 0.06637616 0.06511405 0.06350285 0.06169124 0.05979829
 0.05790152 0.05603578 0.05419977 0.05238709 0.05063592 0.0490548 0.04780214 0.0470584 0.04702947 0.04793724
 0.04992303 0.05289581 0.05647907 0.06015456 0.06350404 0.06635095 0.06872706 0.07075714 0.07257035 0.07425822
 0.07586025 0.07737812 0.07880779 0.0801536 0.08141145 0.08254834 0.0835015 0.08419628 0.08457703 0.08464061
 0.08444912 0.08410965 0.08373193 0.0833752 0.08299811 0.08245125 0.08154327 0.08014366 0.07824275 0.0759315
 0.07334312 0.07064938 0.06817271 0.06652137 0.06650498 0.068721 0.07309794 0.07884467 0.08488459 0.09037868
 0.09494586 0.09857315 0.1014342 0.1037525 0.1057182 0.1074533 0.1090184 0.1104369 0.1117151 0.1128587
 0.1138835 0.1148159 0.1156858 0.1165165 0.1173133 0.1180638 0.1187576 0.1194081 0.1200472 0.1206979
 0.1213544 0.1219935 0.122603 0.1231943 0.1237834 0.1243669 0.1249256 0.1254498 0.1259512 0.126451
 0.1269627 0.1274834 0.1279936 0.1284696 0.1289037 0.1293088 0.1297027 0.1300928 0.1304783 0.1308597
 0.1312385 0.1316114 0.1319706 0.1323144 0.1326537 0.1330016 0.1333542 0.1336884 0.1339831 0.1342421
 0.1344904 0.1347494 0.1350182 0.1352828 0.1355405 0.13581 0.1361151 0.1364596 0.1368222 0.1371743
 0.1375026 0.1378158 0.1381328 0.1384644 0.1388079 0.139154 0.1394939 0.1398191 0.1401239 0.1404113
 0.140692 0.1409731 0.1412514 0.1415184 0.141771 0.1420125 0.142246 0.1424724 0.1426971 0.1429331
 0.1431912 0.1434654 0.1437346 0.1439813 0.1442045 0.1444142 0.1446214 0.1448361 0.14507 0.145331
 0.1456165 0.1459146 0.1462151 0.1465161 0.1468201 0.1471253 0.1474251 0.147715 0.1479961 0.1482722
 0.1485462 0.1488179 0.1490848 0.1493447 0.1496018 0.1498684 0.150154 0.1504545 0.150757 0.1510536
 0.1513444 0.1516315 0.1519153 0.1521963 0.1524751 0.152752 0.1530286 0.153309 0.1535977 0.153896
 0.1541989 0.1544957 0.1547784 0.1550495 0.1553183 0.1555888 0.1558569 0.1561183 0.1563758 0.1566361
 0.1569044 0.1571808 0.1574613 0.1577384 0.1580049 0.1582597 0.1585101 0.1587667 0.1590339 0.1593077
 0.159583 0.1598555 0.1601183 0.1603656 0.1606001 0.1608349 0.161085 0.1613569 0.1616436 0.1619305
 0.1622084 0.1624779 0.162741 0.1629963 0.1632437 0.1634869 0.1637289 0.1639704 0.1642115 0.1644526
 0.1646954 0.1649452 0.1652078 0.1654826 0.1657626 0.1660385 0.1663035 0.1665586 0.1668111 0.1670649
 0.1673173 0.1675691 0.1678278 0.1680971 0.1683725 0.1686504 0.1689304 0.1692097 0.1694843 0.1697536
 0.1700199 0.1702884 0.1705671 0.1708576 0.1711514 0.1714406 0.1717276 0.1720199 0.1723217 0.1726305
 0.1729373 0.1732332 0.1735205 0.173809 0.1741002 0.1743899 0.1746795 0.1749712 0.1752592 0.1755396
 0.1758178 0.1760977 0.1763766 0.1766546 0.176936 0.1772225 0.1775132 0.1778037 0.1780856 0.1783556
 0.1786219 0.1788912 0.1791619 0.1794345 0.1797132 0.1799954 0.1802748 0.1805528 0.1808339 0.1811182
 0.1814058 0.1816939 0.1819708 0.1822336 0.1824965 0.1827688 0.1830426 0.1833121 0.183577 0.1838209
 0.1839975 0.1839937 0.1835302 0.1820508 0.1787055 0.1725175 0.1627696 0.1494526 0.1334247 0.1161067
 0.09895936 0.08310401 0.06920826 0.05756786 0.04825404 0.04121292 0.0363192 0.03345847 0.03262025 0.03401089
 0.03818623 0.04572846 0.05597342 0.06586547 0.07113189 0.06965196 0.06348363 0.05698712 0.05319655 0.0523418
 0.05313742 0.05447804 0.05601081 0.05793487 0.06059381 0.0640823 0.06822952 0.07302395 0.07882252 0.08589651
 0.09388199 0.1019287 0.109432 0.1165089 0.1237163 0.1313792 0.1392485 0.1467482 0.1534356 0.1592238
 0.1642935 0.1688906 0.1731847 0.1772497 0.1811173 0.1847842 0.1881327 0.1908897 0.1927553 0.1936319
 0.19374 0.1934963 0.1932673 0.1932211 0.1933685 0.193677 0.194127 0.194708 0.1954094 0.1962112
 0.1970729 0.1979464 0.1988017 0.1996309 0.2004304 0.2011906 0.2019 0.2025509 0.2031448 0.2036929
 0.2042052 0.2046817 0.2051191 0.2055221 0.2059024 0.2062703 0.2066278 0.2069683 0.2072859 0.2075827
 0.2078632 0.2081247 0.208364 0.2085912 0.2088215 0.2090568 0.2092845 0.2094958 0.2096961 0.2098986
 0.2101106 0.2103277 0.2105398 0.2107436 0.2109441 0.2111454 0.2113481 0.2115538 0.2117645 0.2119777
 0.212189 0.2123964 0.2125967 0.2127852 0.2129646 0.2131479 0.213348 0.2135668 0.2137924 0.2140055
 0.2141966 0.21438 0.2145792 0.2147979 0.2150207 0.2152371 0.2154518 0.215674 0.2159106 0.21616
 0.216402 0.2166069 0.2167661 0.2169083 0.2170765 0.2172926 0.2175398 0.217777 0.2179782 0.2181554
 0.218336 0.2185285 0.2187188 0.218891 0.2190459 0.2192089 0.2194136 0.2196655 0.2199331 0.2201865
 0.2204231 0.2206502 0.2208713 0.2210935 0.2213176 0.2215173 0.2216626 0.2217712 0.2219144 0.2221585
 0.2224979 0.2228512 0.2231354 0.2233406 0.2235192 0.2237211 0.2239652 0.2242292 0.2244276 0.2244661
 0.2243842 0.2243877 0.2246584 0.2251693 0.2257355 0.2262039 0.2265468 0.2268129 0.2270449 0.2272377
 0.2273475 0.2273443 0.2272812 0.2273098 0.2275766 0.2280715 0.2286212 0.229061 0.229361 0.2295687
 0.2297251 0.2298599 0.2299484 0.2298526 0.2294711 0.2290109 0.228934 0.2295068 0.2304946 0.2314086
 0.2319853 0.2323194 0.2325892 0.2328371 0.2330263 0.2330801 0.232763 0.2318132 0.2304484 0.2295171
 0.2297978 0.2312128 0.2329597 0.2343129 0.2350848 0.2354585 0.2356737 0.2358629 0.2359519 0.2356688
 0.2348467 0.2338198 0.2333398 0.2338836 0.2351223 0.2362759 0.2369092 0.2371645 0.2373521 0.2375999
 0.2377633 0.237379 0.2359272 0.2335949 0.2316702 0.2316407 0.2337404 0.2366683 0.2388794 0.2399159
 0.2402929 0.2403674 0.2398128 0.2382144 0.2356973 0.23287 0.230637 0.2300811 0.2317494 0.2347508
 0.2372541 0.2382916 0.2385802 0.2393282 0.2407886 0.2422528 0.2429779 0.2427637 0.2418278 0.2404052
 0.2386383 0.2369529 0.2362827 0.2374102 0.240019 0.2428047 0.2446804 0.2456011 0.2459993 0.2455238
 0.2427795 0.2370028 0.2301737 0.2264862 0.228652 0.2350618 0.2415153 0.2453563 0.2469356 0.2476473
 0.2480539 0.2477261 0.2454857 0.2400448 0.2320268 0.2252514 0.2241571 0.2294107 0.2371509 0.2425968
 0.243325 0.239531 0.2331442 0.2272406 0.2248042 0.2269236 0.2323088 0.2385702 0.2436588 0.2464196
 0.2465786 0.2446443 0.2418648 0.2399119 0.2396817 0.239981 0.2384241 0.2344438 0.2302393 0.227547
 0.2249417 0.2204573 0.2158668 0.2155165 0.2206808 0.2274608 0.231167 0.2310613 0.2295575 0.2278039
 0.2237336 0.2150466 0.2035148 0.1950592 0.1945158 0.2005783 0.2069286 0.2083458 0.2047967 0.1996835
 0.1954073 0.1911959 0.1847065 0.1753956 0.1661488 0.1609223 0.1606207 0.1623015 0.1626194 0.1604967
 0.1560715 0.1495911 0.143136 0.1413006 0.1473215 0.1590468 0.1705299 0.1768457 0.1759125 0.1675129
 0.1539576 0.141443 0.1370727 0.1426056 0.1524674 0.1589529 0.1583869 0.1518006 0.1416295 0.12998
 0.1197146 0.1147876 0.1178347 0.1275169 0.1386122 0.1446778 0.1416067 0.1307556 0.1191589 0.1144846
 0.1181418 0.1243516 0.1266535 0.1237768 0.1187827 0.1149896 0.1139909 0.1155251 0.1178266 0.1192274
 0.1195268 0.1183345 0.1132437 0.1028042 0.09078613 0.08381223 0.08444125 0.0897599 0.09673584 0.1049383
 0.1130418 0.1169364 0.114343 0.1091778 0.1083016 0.1142654 0.1230658 0.1290029 0.1303508 0.1297849
 0.1301965 0.1314798 0.1320519 0.1324622 0.1355051 0.1423807 0.1505577 0.1565443 0.1594743 0.1608359
 0.16187 0.1626043 0.1627127 0.1620788 0.1607585 0.1590658 0.1574469 0.1559418 0.1541045 0.1515629
 0.1480826 0.1429166 0.135051 0.1250453 0.1160523 0.1115158 0.1117285 0.1140692 0.1166062 0.1191264
 0.1199597 0.1150877 0.1032157 0.08994877 0.08374314 0.08779544 0.09768926 0.1065135 0.1102462 0.1081682
 0.1007579 0.08966699 0.07927504 0.07545558 0.08102195 0.09325866 0.1069537 0.1187688 0.1276348 0.1325545
 0.132416 0.1279849 0.1225941 0.1202922 0.123474 0.1317911 0.1421452 0.1493444 0.1486302 0.1404854
 0.1330269 0.1360223 0.1504611 0.166748 0.1754556 0.1769616 0.1776386 0.1799148 0.1810094 0.1800385
 0.1809071 0.1868479 0.1955178 0.20125 0.2000671 0.191253 0.1765617 0.1603591 0.1487236 0.1450936
 0.1470759 0.1496358 0.1502637 0.1486728 0.143782 0.1355284 0.128697 0.129891 0.1397761 0.1518757
 0.1599734 0.1638684 0.1668291 0.1698203 0.1702256 0.1658114 0.1585444 0.1534689 0.1537779 0.1580015
 0.1624662 0.1650732 0.1654754 0.1630796 0.1573723 0.1502747 0.1460918 0.1478898 0.1544683 0.1615734
 0.1657322 0.1664326 0.1651777 0.1635019 0.1619384 0.160103 0.1576547 0.1555806 0.1560261 0.1599559
 0.1654766 0.1696818 0.1719091 0.1739675 0.1772424 0.1807935 0.1826103 0.1819689 0.1802118 0.1795883
 0.1814452 0.1851532 0.1885383 0.1896351 0.1884803 0.1872506 0.1882945 0.1919125 0.1963175 0.199652
 0.2015097 0.2025566 0.203429 0.2042002 0.2043349 0.203087 0.2005431 0.1982767 0.1982447 0.2008373
 0.2044974 0.2073299 0.208627 0.2087887 0.2083195 0.2072891 0.2056276 0.203611 0.2018646 0.2009048
 0.2007909 0.2012281 0.2018653 0.2024441 0.2028241 0.2029987 0.203055 0.203068 0.203056 0.2030229
 0.2029694 0.2028535 0.2026175 0.2022806 0.2019503 0.2016998 0.2014799 0.2011929 0.2008057 0.2003231
 0.1996886 0.1988082 0.1976686 0.196343 0.1948644 0.1931931 0.1913913 0.1897948 0.1889032 0.1890174
 0.18997 0.1912329 0.1922869 0.1928923 0.1930784 0.1929928 0.192799 0.1926411 0.192616 0.1927465
 0.1929928 0.1932958 0.1936084 0.1939017 0.1941718 0.1944534 0.1948139 0.1953064 0.1959233 0.1965916
 0.1972084 0.197688 0.1979988 0.1981681 0.1982458 0.1982588 0.1981996 0.1980502 0.1978012 0.1974509
 0.1970047 0.1964784 0.1958871 0.1952222 0.1944549 0.1935721 0.1925831 0.1914802 0.190231 0.18884
 0.1873886 0.1859749 0.1846366 0.1833567 0.1821151 0.1809021 0.1797049 0.1785131 0.1773298 0.1761652
 0.1750283 0.1739308 0.1728894 0.1719136 0.1709922 0.1700862 0.1691366 0.1680897 0.1669264 0.1656651
 0.1643267 0.1628856 0.1612577 0.159329 0.1569861 0.1541283 0.1506943 0.1467149 0.1423379 0.1377899
 0.1333046 0.129072 0.1252255 0.1218578 0.119037 0.1167973 0.1151185 0.1139382 0.1131994 0.1128864
 0.1130207 0.1136246 0.1146797 0.1161066 0.1177857 0.1195912 0.1214111 0.12316 0.1248006 0.1263558
 0.1278849 0.1294337 0.1309962 0.1325236 0.1339689 0.135313 0.1365418 0.1376245 0.1385395 0.1393082
 0.1399859 0.1406331 0.1412971 0.1419994 0.142727 0.1434508 0.144153 0.1448327 0.1454934 0.1461343
 0.1467479 0.1473304 0.1479056 0.1485272 0.1492439 0.1500697 0.1509952 0.1520129 0.1531235 0.1543275
 0.1556182 0.1569844 0.1584288 0.1599764 0.1616515 0.1634524 0.1653552 0.1673222 0.1692923 0.1711836
 0.1729235 0.1744698 0.1758076 0.1769441 0.1779029 0.1787045 0.179354 0.179855 0.1802301 0.1805252
 0.1807944 0.1810705 0.1813399 0.1815516 0.1816509 0.1815979 0.1813667 0.1809478 0.180353 0.1796233
 0.1788664 0.1782946 0.1781658 0.1786164 0.1795322 0.1806001 0.1815044 0.1820939 0.1823952 0.1825097
 0.1825184 0.1824548 0.1823146 0.1820701 0.1816913 0.1811647 0.1804945 0.1796952 0.178788 0.17779
 0.1766982 0.175496 0.174171 0.172719 0.1711403 0.1694466 0.1676639 0.1658255 0.1639735 0.1621661
 0.1604638 0.1589011 0.1574746 0.156148 0.1548706 0.1536085 0.1523615 0.1511417 0.14995 0.1487893
 0.1476835 0.1466615 0.1457316 0.1448807 0.1440878 0.1433391 0.1426432 0.1420259 0.141498 0.1410431
 0.1406443 0.1403078 0.1400488 0.1398733 0.1397772 0.1397474 0.139753 0.1397475 0.1396906 0.1395736
 0.1394268 0.139294 0.1391989 0.1391373 0.1390934 0.1390421 0.1389351 0.1386997 0.1382588 0.1375527
 0.1365583 0.1352993 0.1338376 0.1322625 0.1306875 0.1292319 0.1279819 0.1269692 0.1261812 0.1255725
 0.1250796 0.1246596 0.1243221 0.1241138 0.1240717 0.1241755 0.1243236 0.1243811 0.124295 0.1241581
 0.1241311 0.1243095 0.1246683 0.1250973 0.1254721 0.1257212 0.1258478 0.1258905 0.1258752 0.125801
 0.1256433 0.1253717 0.1249909 0.1245505 0.124094 0.1236179 0.1230948 0.1225079 0.1218535 0.1211335
 0.1203446 0.1194656 0.1184697 0.1173415 0.1160619 0.1146152 0.113066 0.1115962 0.1104129 0.1096249
 0.1091967 0.1089686 0.1087433 0.108412 0.1079638 0.1073618 0.106577 0.1058714 0.1058851 0.107182
 0.109665 0.1125649 0.1150358 0.1166876 0.1175666 0.1178305 0.1175897 0.1169349 0.1159178 0.1145248
 0.1127716 0.1107618 0.1085997 0.1063573 0.1041552 0.1021516 0.1004472 0.09907192 0.09801271 0.09728263
 0.09698701 0.09685808 0.09542825 0.09077955 0.08349441 0.07802263 0.07896329 0.08590071 0.09366843 0.09781264
 0.09814845 0.09698758 0.09595113 0.09530246 0.0949647 0.09503718 0.09561701 0.09661204 0.09773523 0.0986622
 0.09923679 0.09946444 0.09930547 0.09850565 0.09653349 0.09273221 0.0868509 0.07955815 0.07223418 0.06615622
 0.06191295 0.05940927 0.05814188 0.05750241 0.0570826 0.05684394 0.05701303 0.05781697 0.05930489 0.06137214
 0.06386502 0.06657161 0.06916021 0.07130815 0.07294294 0.07422762 0.07527947 0.07602893 0.0763652 0.07628971
 0.07589714 0.07529733 0.07458548 0.07383123 0.07304867 0.07218921 0.07122887 0.07028805 0.0695861 0.06922342
 0.0690901 0.06903455 0.06901704 0.06905162 0.06911153 0.06915042 0.06915469 0.06916343 0.06926872 0.06955099
 0.06997819 0.07041556 0.07074968 0.07096849 0.0711302 0.07126105 0.07126114 0.07098366 0.07048658 0.07006551
 0.06987318 0.06965805 0.06910712 0.06833493 0.06779811 0.06778233 0.06815393 0.06857245 0.06879167 0.06877275
 0.06865963 0.06869994 0.06907237 0.06967279</values></Ydata></ScSm><ScRf><Ydata ylabel="Single channel"><values byteorder="INTEL" format="FLOAT32" numvalues="1820"> 0.06068692 0.06082615 0.06090446 0.06092747 0.06092085 0.06092773 0.06099327 0.06113623 0.0613317 0.06152283
 0.06165821 0.0617245 0.06173684 0.06170551 0.06164094 0.06159099 0.06162965 0.06178425 0.06199251 0.06214553
 0.06217449 0.06211147 0.0620713 0.06214073 0.06226081 0.0622455 0.06195662 0.06146224 0.06099045 0.06071801
 0.06066133 0.06081306 0.0612536 0.06193512 0.06244058 0.06228263 0.06151541 0.06076383 0.06052924 0.06070901
 0.06088729 0.06081602 0.06049211 0.06006645 0.05988792 0.06040585 0.06172687 0.0632555 0.06391165 0.06281064
 0.05989269 0.05612478 0.05314543 0.05238495 0.05405721 0.05687358 0.05901246 0.05957267 0.05900338 0.05818092
 0.05746331 0.05680743 0.0563839 0.05660876 0.05757014 0.05864222 0.05880989 0.05753831 0.05540974 0.05371006
 0.05325549 0.0538816 0.05513233 0.05675739 0.05801217 0.05725953 0.05357964 0.04880733 0.04671461 0.04942557
 0.05515066 0.05993687 0.06118501 0.0591092 0.05558989 0.05261092 0.05150858 0.05261666 0.05521318 0.05811963
 0.06041106 0.06145791 0.06077444 0.05844322 0.05552185 0.05352532 0.05349654 0.05560375 0.05910715 0.06241915
 0.0638225 0.06274053 0.06012306 0.05744176 0.05572107 0.0555422 0.05718606 0.06034102 0.06408268 0.06741153
 0.06966212 0.07056914 0.07032304 0.06945257 0.06842278 0.06755064 0.06728196 0.06792095 0.06890103 0.06899674
 0.06765579 0.06573712 0.06462829 0.06481284 0.06548566 0.06553493 0.06466886 0.06323722 0.06113089 0.05776152
 0.05340682 0.04957033 0.04747929 0.04714945 0.04828041 0.05073509 0.05348392 0.05453791 0.0531224 0.05107103
 0.05100477 0.05353541 0.05694732 0.05929593 0.06021092 0.06076587 0.06209335 0.06422281 0.0659354 0.06568529
 0.06313525 0.06001631 0.05890422 0.06069155 0.06372873 0.0658498 0.06665367 0.06726493 0.06836948 0.06915501
 0.06816167 0.06502199 0.06139162 0.05992008 0.06193687 0.0661175 0.06944585 0.06944171 0.06582883 0.06059894
 0.05646379 0.05497788 0.05612697 0.05936944 0.06423351 0.06976208 0.07426085 0.07624575 0.07551938 0.07309964
 0.07005618 0.06651585 0.06220669 0.05810087 0.05663107 0.05939544 0.06511609 0.07070279 0.07401167 0.07491739
 0.07411496 0.07179892 0.06786464 0.06319885 0.06010602 0.06051846 0.06366789 0.0665188 0.06694788 0.06568222
 0.06473743 0.06490278 0.06544683 0.06567125 0.06591587 0.06698781 0.06900796 0.07111224 0.07228637 0.0722822
 0.07165779 0.07112794 0.0709174 0.07059732 0.06969726 0.06865761 0.06877436 0.07077184 0.07379241 0.07627502
 0.07752294 0.07794914 0.07801452 0.07742451 0.07555275 0.07260698 0.07010247 0.06973606 0.07174492 0.07475444
 0.07720511 0.07847726 0.07875358 0.07845251 0.07794087 0.07741439 0.07696281 0.07682569 0.07733145 0.07842238
 0.07954739 0.08021486 0.08039597 0.0802708 0.07987435 0.07918014 0.07836331 0.07779589 0.07777251 0.07828883
 0.07910056 0.07994284 0.08061754 0.08094162 0.08081193 0.08035784 0.07986945 0.07953183 0.0793544 0.07934973
 0.07959966 0.08009374 0.08064555 0.08104645 0.0812324 0.08126281 0.08120254 0.08107162 0.08088204 0.08069237
 0.08061448 0.08073324 0.08100361 0.08128136 0.08149446 0.08171433 0.08199685 0.08223279 0.08225835 0.0820732
 0.08185401 0.08176515 0.08182608 0.08195408 0.0820587 0.08206111 0.08188335 0.0815153 0.08110814 0.08091691
 0.08109601 0.08158988 0.08222897 0.08285195 0.08332855 0.08358274 0.08364954 0.0836371 0.08359868 0.0834954
 0.08329886 0.08308525 0.08300943 0.08318754 0.08359233 0.08406725 0.08445237 0.08468159 0.08477543 0.08480988
 0.08489238 0.08507702 0.08527933 0.08535461 0.08528197 0.08520024 0.08523946 0.08537227 0.08546062 0.08542171
 0.08532293 0.08530942 0.08545132 0.08568265 0.08589055 0.08603738 0.08617994 0.08637676 0.08658639 0.0866788
 0.08657441 0.08635356 0.08617851 0.0861217 0.086137 0.08618939 0.08631968 0.08654839 0.08678965 0.08692243
 0.08692555 0.08689515 0.08692509 0.08700065 0.08702643 0.08693905 0.08677049 0.08661143 0.086538 0.08656844
 0.08665998 0.08673586 0.08673285 0.08664215 0.08650824 0.08638479 0.0862956 0.08624765 0.08627306 0.08642067
 0.08667731 0.08691777 0.08698012 0.08681228 0.08653045 0.08631593 0.08625188 0.08626381 0.08621272 0.08603208
 0.08577059 0.08552332 0.0853458 0.08523105 0.0851426 0.08505836 0.08499762 0.08501299 0.08513415 0.08530165
 0.08537933 0.08526744 0.08500144 0.0847169 0.08452791 0.08445858 0.08446506 0.08448648 0.08449165 0.08450539
 0.08456907 0.0846594 0.08468902 0.08461191 0.08448695 0.08441749 0.08446802 0.08464192 0.08487839 0.08505963
 0.08508756 0.08498266 0.08486681 0.08483642 0.08488952 0.08497626 0.0850694 0.08516602 0.0852612 0.08535343
 0.08546351 0.08562458 0.08584961 0.08611187 0.08635561 0.08653055 0.08663365 0.08672419 0.08688493 0.08715312
 0.08748802 0.08780642 0.08804991 0.08822349 0.08837716 0.0885517 0.08874805 0.08895501 0.08918847 0.08947513
 0.08980525 0.09013448 0.09043421 0.09071397 0.09099333 0.09127583 0.09155819 0.09185368 0.09219664 0.09261062
 0.09306009 0.09344944 0.09369893 0.09382325 0.09392378 0.09411132 0.09443481 0.0948467 0.09521926 0.09543893
 0.09552194 0.09560695 0.09580138 0.09607061 0.09631827 0.09654003 0.0968338 0.09726033 0.09774603 0.09814654
 0.0983851 0.09851236 0.09863804 0.0988162 0.09900489 0.09913772 0.0992154 0.09930068 0.09943476 0.09960601
 0.09981167 0.1000958 0.1004851 0.1009206 0.1013004 0.1015737 0.101762 0.1019073 0.1020322 0.1021359
 0.1022014 0.1022214 0.1022293 0.1022773 0.1023694 0.1024511 0.1024866 0.1025101 0.1025798 0.102717
 0.1029187 0.103188 0.1035133 0.1038404 0.1041216 0.1043866 0.10471 0.1050909 0.1054172 0.1055868
 0.1056252 0.1056369 0.1056755 0.1057255 0.1057922 0.1059325 0.1061816 0.1065057 0.1068487 0.1071895
 0.1075359 0.1078847 0.1082024 0.108437 0.108551 0.1085534 0.1085069 0.1085006 0.1086082 0.1088496
 0.1091795 0.1095165 0.1097964 0.1099922 0.1100913 0.1100879 0.110023 0.109998 0.1100971 0.1102903
 0.1104428 0.1104297 0.1102198 0.1098476 0.1093439 0.108725 0.1080361 0.1073667 0.1068092 0.1064106
 0.1061795 0.1061352 0.1063274 0.1067823 0.1074376 0.1081579 0.1088187 0.1093441 0.1096643 0.1096917
 0.1093814 0.1087922 0.1080562 0.1073004 0.1066038 0.1059893 0.1054256 0.1048703 0.1043565 0.1040319
 0.1040872 0.1046409 0.1056821 0.1070794 0.1086213 0.1100805 0.1113022 0.1122637 0.1130469 0.1137483
 0.1144182 0.1150754 0.1157406 0.116418 0.117064 0.1176199 0.1180788 0.1184897 0.1188943 0.1192891
 0.1196437 0.119934 0.1201615 0.1203595 0.1205618 0.1207497 0.1208556 0.1208413 0.1207451 0.1206313
 0.1205147 0.1203551 0.1201038 0.119742 0.1193075 0.1189155 0.1187456 0.1189668 0.1196386 0.1206739
 0.1219069 0.1231965 0.1244574 0.1256094 0.1265538 0.1272312 0.1276767 0.1279888 0.1282584 0.1285351
 0.1288346 0.1291507 0.129465 0.1297619 0.1300389 0.1303095 0.1306001 0.1309296 0.1312806 0.1316032
 0.1318643 0.1320916 0.1323557 0.1327024 0.133103 0.1334818 0.1337978 0.1340843 0.1343908 0.1347049
 0.1349671 0.1351542 0.1353124 0.1355087 0.1357801 0.1361233 0.1364971 0.1368355 0.1370918 0.1372801
 0.137456 0.1376599 0.1378924 0.1381372 0.1383844 0.1386297 0.1388703 0.1391143 0.1393839 0.1396896
 0.1399996 0.1402546 0.1404262 0.1405512 0.1406976 0.1408998 0.1411356 0.1413594 0.1415548 0.1417552
 0.14201 0.1423266 0.1426492 0.142906 0.1430725 0.1431852 0.1433004 0.1434526 0.1436453 0.1438628
 0.1440834 0.1442899 0.1444798 0.1446688 0.144877 0.1451085 0.145348 0.1455773 0.14579 0.145991
 0.1461889 0.1463889 0.1465962 0.1468245 0.1470926 0.1473976 0.1476986 0.147943 0.1481128 0.1482351
 0.1483518 0.1484902 0.1486572 0.1488453 0.1490394 0.1492276 0.1494099 0.1495968 0.1497979 0.1500124
 0.1502303 0.1504435 0.1506521 0.1508608 0.1510743 0.151297 0.1515308 0.1517683 0.1519943 0.1521995
 0.1523871 0.1525673 0.1527492 0.1529373 0.1531296 0.1533208 0.1535098 0.1536997 0.1538926 0.1540872
 0.1542818 0.1544763 0.1546716 0.1548697 0.155071 0.1552737 0.1554748 0.1556727 0.155866 0.1560558
 0.156247 0.1564431 0.1566421 0.156841 0.1570405 0.1572391 0.1574317 0.1576172 0.1578038 0.1579996
 0.1582051 0.1584141 0.1586214 0.1588256 0.159027 0.159224 0.1594144 0.1596016 0.1597949 0.1599986
 0.1602076 0.1604155 0.1606208 0.1608261 0.1610363 0.1612552 0.1614803 0.1617038 0.1619191 0.1621242
 0.162321 0.162518 0.1627268 0.1629517 0.1631844 0.1634135 0.1636333 0.1638422 0.1640388 0.1642212
 0.1643897 0.1645507 0.1647157 0.164893 0.1650815 0.1652754 0.1654697 0.1656601 0.1658449 0.1660283
 0.1662156 0.1664077 0.1666062 0.1668138 0.1670273 0.1672379 0.1674421 0.167644 0.1678472 0.1680508
 0.1682528 0.1684539 0.1686589 0.1688704 0.1690815 0.1692827 0.1694762 0.1696729 0.1698772 0.1700858
 0.1702969 0.1705087 0.1707176 0.1709267 0.1711418 0.171359 0.1715695 0.1717745 0.1719812 0.1721913
 0.1724037 0.1726175 0.1728288 0.1730351 0.173241 0.1734502 0.1736593 0.1738673 0.174079 0.1742959
 0.1745169 0.174743 0.1749712 0.175192 0.1754024 0.1756088 0.1758149 0.1760225 0.1762351 0.1764482
 0.1766517 0.1768471 0.1770421 0.1772249 0.1773498 0.1773012 0.1768013 0.1753096 0.1720053 0.1659418
 0.1564187 0.143426 0.1278072 0.110956 0.09429632 0.07891335 0.06545542 0.05421386 0.04525071 0.03848936
 0.03378562 0.031026 0.03021342 0.03156016 0.03560739 0.04290993 0.05280716 0.06233067 0.06736017 0.06587923
 0.05990429 0.05364615 0.05001133 0.04919975 0.04996245 0.0512341 0.05268007 0.05450143 0.05703611 0.06037423
 0.06434847 0.06895255 0.07453676 0.08135702 0.08904773 0.0967816 0.103983 0.1107752 0.1176955 0.1250481
 0.1325871 0.1397612 0.1461504 0.1516725 0.1565 0.1608723 0.1649583 0.1688305 0.1725158 0.1760073
 0.1791894 0.181797 0.1835381 0.1843177 0.1843521 0.1840512 0.1837735 0.1836814 0.1837837 0.1840498
 0.1844614 0.1850054 0.1856645 0.1864125 0.1872119 0.1880288 0.1888455 0.1896479 0.1904136 0.1911252
 0.1917807 0.192383 0.1929317 0.1934293 0.1938825 0.1943011 0.1946987 0.1950869 0.1954647 0.1958226
 0.1961582 0.1964766 0.1967794 0.1970639 0.1973265 0.1975643 0.1977795 0.1979837 0.1981908 0.1984051
 0.1986213 0.1988328 0.1990354 0.1992309 0.1994281 0.1996332 0.1998415 0.2000455 0.2002448 0.2004413
 0.2006322 0.2008152 0.2009959 0.2011832 0.2013818 0.2015896 0.2017997 0.2020042 0.2021998 0.2023901
 0.2025814 0.2027769 0.2029734 0.2031644 0.2033497 0.2035401 0.2037466 0.2039655 0.204183 0.2043914
 0.2045944 0.2047994 0.2050131 0.2052358 0.2054528 0.2056415 0.2057977 0.2059478 0.2061285 0.2063527
 0.2065974 0.2068261 0.2070233 0.2072045 0.2073921 0.2075917 0.2077919 0.2079784 0.2081503 0.2083306
 0.2085502 0.2088099 0.2090749 0.2093177 0.2095434 0.2097664 0.2099922 0.2102244 0.2104599 0.210672
 0.2108315 0.2109559 0.2111145 0.2113728 0.211728 0.2121041 0.2124203 0.2126621 0.2128745 0.2131046
 0.2133708 0.2136487 0.2138517 0.2138878 0.2137994 0.2137938 0.2140585 0.2145744 0.2151596 0.2156544
 0.2160213 0.2163055 0.2165546 0.2167695 0.2169065 0.2169303 0.2168886 0.2169281 0.2171929 0.2176767
 0.2182151 0.2186507 0.2189576 0.2191887 0.2193875 0.2195722 0.2196975 0.2196152 0.219231 0.2187612
 0.2186651 0.2192007 0.2201367 0.2210012 0.2215471 0.2218716 0.2221492 0.2224202 0.2226438 0.2227337
 0.2224518 0.2215457 0.2202366 0.2193533 0.2196474 0.2210374 0.222749 0.2240891 0.2248802 0.2252906
 0.2255415 0.2257603 0.2258801 0.225639 0.2248717 0.2239011 0.2234589 0.2240108 0.2252375 0.2263812
 0.2270207 0.2272956 0.2275056 0.2277726 0.2279566 0.2276094 0.2262276 0.2239963 0.2221659 0.2221716
 0.2242271 0.2270676 0.2292045 0.2302081 0.230588 0.2306881 0.2301781 0.2286448 0.2262134 0.2234854
 0.221343 0.2208334 0.2224801 0.2254102 0.2278458 0.2288587 0.2291532 0.2298963 0.2313242 0.2327519
 0.233467 0.2332777 0.2323935 0.2310431 0.2293665 0.2277743 0.2271625 0.2282813 0.2308285 0.2335528
 0.2354055 0.2363351 0.2367528 0.236312 0.2336551 0.2280492 0.221437 0.2179007 0.22006 0.2263349
 0.2326437 0.2364149 0.2379972 0.2387464 0.2392022 0.2389404 0.2368194 0.2315969 0.2238867 0.2174056
 0.2164645 0.2216965 0.2293364 0.2347417 0.2355599 0.231972 0.2258542 0.22022 0.217994 0.2202404
 0.2256967 0.2320176 0.2371856 0.2400755 0.240439 0.2387762 0.2362965 0.2346396 0.2346891 0.2352571
 0.2339822 0.2303169 0.2264449 0.22408 0.2218179 0.2177369 0.2136199 0.2137857 0.2194794 0.2267891
 0.2310357 0.231513 0.2306574 0.2295979 0.2262217 0.2182199 0.2074728 0.2001399 0.2012825 0.2096073
 0.2186162 0.2229684 0.2227274 0.2214573 0.2214686 0.2214626 0.2183622 0.2113291 0.2038157 0.2006676
 0.202966 0.2070589 0.2088843 0.2072049 0.2021878 0.1941177 0.1857451 0.1831145 0.1904631 0.205038
 0.219256 0.2269444 0.2255859 0.2149563 0.198023 0.1827868 0.1783893 0.1869151 0.2008546 0.2100109
 0.2095906 0.2010563 0.1877792 0.1727446 0.1599412 0.1547806 0.1608632 0.1763351 0.193895 0.2043903
 0.2018727 0.1882614 0.1738147 0.1697437 0.1779682 0.1897619 0.1955194 0.1934721 0.1883163 0.185187
 0.1867109 0.1925233 0.1996506 0.2053103 0.2091304 0.209991 0.2030346 0.1854947 0.1644037 0.1519607
 0.152868 0.1619216 0.1737622 0.1876896 0.2013146 0.2072548 0.2014599 0.190888 0.1875813 0.1958798
 0.2087119 0.2162505 0.2156388 0.2115038 0.2088114 0.2075836 0.205376 0.2029957 0.2046973 0.2123144
 0.2220543 0.2287292 0.2311501 0.2316574 0.2321576 0.2326749 0.2326838 0.2319853 0.2306388 0.2290942
 0.2280508 0.2276712 0.2274339 0.2269302 0.2258402 0.2227149 0.215288 0.2036564 0.1923106 0.1865782
 0.1869722 0.1895496 0.1917748 0.1939989 0.1939863 0.1853783 0.1660926 0.1452138 0.1363815 0.1446076
 0.1625455 0.1788653 0.1869341 0.1853728 0.1746627 0.1573512 0.1407655 0.1347218 0.1435203 0.1618205
 0.1803505 0.1938956 0.201896 0.2040221 0.1991947 0.1887349 0.1776191 0.1716297 0.1738359 0.1832508
 0.1951628 0.2023461 0.1985961 0.1848972 0.1721426 0.1731018 0.1890302 0.2075853 0.2166991 0.2167984
 0.2159205 0.2172166 0.217384 0.215433 0.2162113 0.2237513 0.235337 0.2441826 0.2453963 0.2379149
 0.223867 0.2090556 0.2014511 0.2047705 0.2141847 0.2215133 0.2231107 0.219385 0.2099828 0.1958302
 0.1842526 0.1845638 0.1972813 0.2129159 0.2227591 0.2268155 0.2298393 0.2331499 0.2330323 0.2263665
 0.2158443 0.2083097 0.2079891 0.2127923 0.2178468 0.2206391 0.221035 0.2183538 0.2117933 0.2037488
 0.1998542 0.2040813 0.2145991 0.225454 0.2318741 0.2332531 0.2317567 0.2295069 0.2271557 0.2240636
 0.2197177 0.2155649 0.2147295 0.218683 0.2249079 0.2294867 0.2315843 0.2337267 0.2378282 0.2425603
 0.2449777 0.2437382 0.2403778 0.2379638 0.2386257 0.241866 0.2449359 0.2451797 0.2425556 0.2399148
 0.2403863 0.2444007 0.2496235 0.2536127 0.2558091 0.2570389 0.2580829 0.2589866 0.2590244 0.2572493
 0.2538362 0.2508633 0.2508398 0.2542198 0.258971 0.2626782 0.2644969 0.2650103 0.2648928 0.2642056
 0.2627982 0.2609532 0.2594 0.2587382 0.2590052 0.2598238 0.2607959 0.261678 0.2623546 0.2628135
 0.2631159 0.2633164 0.2634372 0.263516 0.2635906 0.2636209 0.2635309 0.2633705 0.2633374 0.2635623
 0.2639365 0.2642234 0.2642727 0.2640433 0.2634839 0.262535 0.2612509 0.259789 0.2582356 0.2565523
 0.2548038 0.2533993 0.2529644 0.253872 0.2558954 0.2583463 0.2605423 0.2621436 0.2631406 0.2636679
 0.2638819 0.2639244 0.2638948 0.2638243 0.2636935 0.2634834 0.2632034 0.2628739 0.262506 0.2621135
 0.2617334 0.2614073 0.2611355 0.2608669 0.2605398 0.2601255 0.2596367 0.2591092 0.2585738 0.2580245
 0.2574118 0.2566772 0.2558029 0.2548344 0.2538615 0.2529693 0.2521828 0.2514505 0.2506953 0.249875
 0.2489762 0.2479723 0.2468457 0.2456612 0.2445646 0.243668 0.2429569 0.2423258 0.2416723 0.2409387
 0.2400995 0.2391574 0.2381407 0.2370795 0.2359844 0.2348532 0.2336768 0.2324321 0.2310938 0.2296603
 0.228151 0.2265825 0.2249674 0.2233238 0.2216487 0.2198789 0.2178953 0.2155626 0.2127583 0.2093938
 0.2054483 0.2009964 0.1961984 0.1912565 0.1863659 0.1816874 0.1773514 0.1734696 0.1701315 0.1673958
 0.1652988 0.1638735 0.1631514 0.1631491 0.1638566 0.165235 0.1672133 0.1696807 0.1724863 0.1754561
 0.1784211 0.1812416 0.1838339 0.1861979 0.1884053 0.1905224 0.1925367 0.1943777 0.1959984 0.197406
 0.1986223 0.1996509 0.2004938 0.2011773 0.2017463 0.2022382 0.2026687 0.2030384 0.2033477 0.2036044
 0.2038221 0.2040147 0.2041906 0.2043556 0.2045267 0.2047352 0.2050068 0.2053474 0.2057522 0.2062149
 0.2067204 0.2072468 0.2077866 0.208353 0.2089617 0.2096209 0.2103425 0.2111544 0.2120955 0.2131957
 0.2144532 0.215823 0.2172288 0.2185811 0.2197905 0.2207838 0.2215235 0.2220139 0.2222859 0.2223773
 0.2223199 0.2221357 0.2218416 0.2214554 0.2209927 0.2204664 0.2198914 0.2192836 0.2186481 0.2179771
 0.217268 0.2165404 0.2158263 0.2151428 0.2144791 0.2138184 0.2131661 0.212543 0.211951 0.2113651
 0.2107672 0.2101684 0.2095878 0.209026 0.208469 0.2078977 0.2072778 0.206559 0.2057081 0.2047398
 0.2036974 0.202602 0.2014372 0.2001825 0.1988408 0.1974252 0.1959376 0.194376 0.1927505 0.1910714
 0.189318 0.1874437 0.185432 0.1833472 0.1813126 0.1794296 0.1777219 0.1761498 0.1746623 0.1732348
 0.1718704 0.1705774 0.1693531 0.1681879 0.1670738 0.1660061 0.1649858 0.1640269 0.163147 0.1623524
 0.1616409 0.1610138 0.1604707 0.1600026 0.1595979 0.1592506 0.1589647 0.1587661 0.1586879 0.1587183
 0.1587815 0.1587973 0.1587471 0.158664 0.1585797 0.1585015 0.1584237 0.1583458 0.158272 0.1581875
 0.1580351 0.1577219 0.157152 0.1562593 0.1550346 0.1535267 0.1518152 0.1499925 0.1481737 0.1464846
 0.1450174 0.1438186 0.1429057 0.1422538 0.1417792 0.1413916 0.1410706 0.14087 0.1408576 0.1410391
 0.1413109 0.1415128 0.1415752 0.1415982 0.1417572 0.1421584 0.1427854 0.1435309 0.1442635 0.1448987
 0.1454133 0.1458004 0.1460573 0.1462098 0.146288 0.146282 0.1461689 0.1459572 0.1456721 0.1453308
 0.1449504 0.1445385 0.1440793 0.1435571 0.1429661 0.1422849 0.141492 0.1405933 0.1395826 0.138427
 0.1371753 0.1360365 0.1352857 0.1351059 0.1355012 0.1363005 0.1372794 0.1383225 0.1393792 0.1402532
 0.1406627 0.14066 0.1408282 0.1418437 0.1438301 0.1462343 0.1483338 0.1497634 0.1505316 0.1507158
 0.1503395 0.1494431 0.1480541 0.1461316 0.1436837 0.1408506 0.1377976 0.1346731 0.1316876 0.1290466
 0.1268207 0.1249952 0.1235553 0.1225419 0.1220921 0.121855 0.1199646 0.1140023 0.104732 0.09779487
 0.09896474 0.1076462 0.1172828 0.1222823 0.1224682 0.1208024 0.1193421 0.1184008 0.1178663 0.1178717
 0.1185439 0.1197498 0.1211163 0.122246 0.1229621 0.1232957 0.1232126 0.122359 0.1199886 0.1152302
 0.1077935 0.09856597 0.08931004 0.08164474 0.07631436 0.07319021 0.0716247 0.07083499 0.07029435 0.06997532
 0.07021168 0.07130113 0.07326186 0.07592934 0.07912623 0.08261208 0.08597563 0.08880438 0.09098901 0.09271194
 0.09412385 0.0951682 0.09572454 0.09578065 0.09542803 0.09478985 0.09399731 0.09315767 0.09227228 0.09123296
 0.0900033 0.08879313 0.08792987 0.08753604 0.08744466 0.0874339 0.08741136 0.08736736 0.08729696 0.08720845
 0.08713336 0.087124 0.08726281 0.08761115 0.08811135 0.08859405 0.08891227 0.08904846 0.08908759 0.08906914
 0.08886197 0.08829178 0.08745402 0.08671613 0.08624301 0.08570543 0.08470793 0.0833891 0.08234231 0.0819831
 0.08219258 0.08255059 0.08272626 0.08263121 0.08239538 0.08230332 0.08260729 0.08323367 0.08374612 0.08375376
</values></Ydata></ScRf><Data_Parameters_AB><parameter name="DPF">1</parameter><parameter name="NPT">3497</parameter><parameter name="FXV">3996</parameter><parameter name="LXV">500</parameter><parameter name="CSF">1</parameter><parameter name="MXY">0.3516745865345</parameter><parameter name="MNY">-0.0567987449467182</parameter><parameter name="DAT">31/05/2022</parameter><parameter name="TIM">11:14:47.263 (GMT+2)</parameter><parameter name="DXU">WN</parameter></Data_Parameters_AB><AB__Qtest><MainReport name="Quality Test Report"><Header><Line><Legend>Test result ok/not ok [1/0]: </Legend><Value>0</Value></Line><Line><Legend>Method file: </Legend><Value>C:\Users\Public\Documents\Bruker\OPUS_8.2.28\QT\IRBT_v3_default.QT</Value></Line></Header><Matrix><Line><Legend></Legend><Legend>min</Legend><Legend>max</Legend><Legend>measured</Legend></Line><Line><Value>Absorption (X-Range 1):</Value><Value>0.400000</Value><Value>2.000000</Value><Value>0.280309</Value></Line><Line><Value>Noise (X-Range 4):</Value><Value></Value><Value>0.000300</Value><Value>0.000071</Value></Line><Line><Value>Signal/Noise (X-Range 2):</Value><Value>200.000000</Value><Value></Value><Value>102.520032</Value></Line><Line><Value>Signal/Noise (X-Range 3):</Value><Value>40.000000</Value><Value></Value><Value>46.701706</Value></Line><Line><Value>Water vapour (X-Range 5):</Value><Value></Value><Value>0.000300</Value><Value>0.000081</Value></Line><Line><Value>Signal/Water (X-Range 2):</Value><Value>100.000000</Value><Value></Value><Value>90.118986</Value></Line><Line><Value>Signal/Water (X-Range 3):</Value><Value>20.000000</Value><Value></Value><Value>41.052566</Value></Line><Line><Value>Fringes (X-Range 6):</Value><Value></Value><Value>0.000100</Value><Value>0.000085</Value></Line></Matrix></MainReport></AB__Qtest><Data_Parameters_ScSm><parameter name="DPF">1</parameter><parameter name="NPT">1814</parameter><parameter name="FXV">3996.33169228125</parameter><parameter name="LXV">499.541461535156</parameter><parameter name="CSF">1</parameter><parameter name="MXY">0.248053908348083</parameter><parameter name="MNY">0.0326202511787415</parameter><parameter name="DAT">31/05/2022</parameter><parameter name="TIM">11:14:47.263 (GMT+2)</parameter><parameter name="DXU">WN</parameter></Data_Parameters_ScSm><Data_Parameters_ScRf><parameter name="DPF">1</parameter><parameter name="NPT">1820</parameter><parameter name="FXV">4004.04661832813</parameter><parameter name="LXV">495.683998511719</parameter><parameter name="CSF">1</parameter><parameter name="MXY">0.265010297298431</parameter><parameter name="MNY">0.0302134212106466</parameter><parameter name="DAT">31/05/2022</parameter><parameter name="TIM">11:14:20.180 (GMT+2)</parameter><parameter name="DXU">WN</parameter></Data_Parameters_ScRf><Optic_Parameters_Rf><parameter name="APR">0</parameter><parameter name="APT">Open</parameter><parameter name="BMS">KBr</parameter><parameter name="DTC">RT-DLaTGS_IR-Biotyper [Microplate reader]</parameter><parameter name="HPF">0</parameter><parameter name="LPF">10.0</parameter><parameter name="LPV">4000</parameter><parameter name="PGR">0</parameter><parameter name="RCH">Module port</parameter><parameter name="RDX">0</parameter><parameter name="SRC">MIR</parameter><parameter name="VEL">10.0</parameter><parameter name="SON">Off</parameter></Optic_Parameters_Rf><Acquisition_Parameters_Rf><parameter name="ADT">1</parameter><parameter name="AQM">DD</parameter><parameter name="CFE">0</parameter><parameter name="COR">0</parameter><parameter name="DEL">0</parameter><parameter name="DLY">0</parameter><parameter name="HFW">8000</parameter><parameter name="LFW">0</parameter><parameter name="NSR">32</parameter><parameter name="PLF">AB</parameter><parameter name="RES">6</parameter><parameter name="RGN">-1</parameter><parameter name="STR">0</parameter><parameter name="TCL">MakeCompatibleScalar (0, {WSV=1.000000, ARV=0});</parameter><parameter name="TDL">37</parameter><parameter name="RPO">0</parameter></Acquisition_Parameters_Rf><FT_-_Parameters_Rf><parameter name="APF">B3</parameter><parameter name="HFQ">500</parameter><parameter name="LFQ">4000</parameter><parameter name="NLI">0</parameter><parameter name="PHR">24</parameter><parameter name="PHZ">ML</parameter><parameter name="SPZ">NO</parameter><parameter name="ZFF">1</parameter></FT_-_Parameters_Rf><Optic_Parameters_><parameter name="APR">0</parameter><parameter name="APT">Open</parameter><parameter name="BMS">KBr</parameter><parameter name="CHN">Module port</parameter><parameter name="DTC">RT-DLaTGS_IR-Biotyper [Microplate reader]</parameter><parameter name="HPF">0</parameter><parameter name="LPF">10.0</parameter><parameter name="LPV">4000</parameter><parameter name="PGN">0</parameter><parameter name="RDX">0</parameter><parameter name="SRC">MIR</parameter><parameter name="VEL">10.0</parameter><parameter name="SON">Off</parameter></Optic_Parameters_><FT_-_Parameters_><parameter name="APF">B3</parameter><parameter name="HFQ">500</parameter><parameter name="LFQ">4000</parameter><parameter name="NLI">0</parameter><parameter name="PHR">24</parameter><parameter name="PHZ">ML</parameter><parameter name="SPZ">NO</parameter><parameter name="ZFF">1</parameter></FT_-_Parameters_><Acquisition_Parameters_><parameter name="ADT">1</parameter><parameter name="AQM">DD</parameter><parameter name="CFE">0</parameter><parameter name="COR">0</parameter><parameter name="DEL">0</parameter><parameter name="DLY">0</parameter><parameter name="HFW">8000</parameter><parameter name="LFW">0</parameter><parameter name="NSS">32</parameter><parameter name="PLF">AB</parameter><parameter name="RES">6</parameter><parameter name="SOT">0</parameter><parameter name="TCL">MakeCompatibleScalar (0, {WSV=1.000000, ARV=0});</parameter><parameter name="TDL">37</parameter><parameter name="SPO">0</parameter><parameter name="SGN">-1</parameter></Acquisition_Parameters_><Instrument_Parameters_Rf><parameter name="HFL">15800.168544</parameter><parameter name="LFL">0</parameter><parameter name="LWN">15800.168544</parameter><parameter name="ABP">32197</parameter><parameter name="SSP">1</parameter><parameter name="ARG">2</parameter><parameter name="ASG">2</parameter><parameter name="ASS">32</parameter><parameter name="GFW">16</parameter><parameter name="GBW">16</parameter><parameter name="BFW">0</parameter><parameter name="BBW">0</parameter><parameter name="PKA">7269</parameter><parameter name="PKL">4996</parameter><parameter name="PRA">7447</parameter><parameter name="PRL">5001</parameter><parameter name="P2A">1</parameter><parameter name="P2L">1</parameter><parameter name="P2R">1</parameter><parameter name="P2K">1</parameter><parameter name="DAQ">0</parameter><parameter name="AG2">1</parameter><parameter name="SSM">1</parameter><parameter name="RSN">25427</parameter><parameter name="CRR">0</parameter><parameter name="SRT">1653995660.18</parameter><parameter name="DUR">19.6379852294922</parameter><parameter name="TSC">28.8</parameter><parameter name="MVD">4.05758571624756</parameter><parameter name="AN1">0.225785242131007</parameter><parameter name="AN2">0</parameter><parameter name="VSN">2.485 Apr  4 2017</parameter><parameter name="SRN">0085</parameter><parameter name="CAM">0</parameter><parameter name="INS">IR-Biotyper</parameter><parameter name="FOC">69</parameter><parameter name="RDY">1</parameter><parameter name="ARS">32</parameter></Instrument_Parameters_Rf><Sample_Parameters_><parameter name="BLD"></parameter><parameter name="CNM">Admin</parameter><parameter name="CPY"></parameter><parameter name="DPM"></parameter><parameter name="EXP">IRBT_v3_32Scans.XPM</parameter><parameter name="LCT"></parameter><parameter name="SFM">Microplate, HTS-XT</parameter><parameter name="SNM">220531-1021(v.3)_MBD34F (D_3)_G5_cff054b0-4d69-416b-b006-f31b3e477239.0</parameter><parameter name="XPP">C:\Users\Public\Documents\Bruker\OPUS_8.2.28\XPM</parameter><parameter name="IST">OK</parameter><parameter name="CPG">1252</parameter><parameter name="UID">d0f32e89-0b10-46a7-90d7-f0fa7bdf8f57</parameter></Sample_Parameters_><Instrument_Parameters_><parameter name="HFL">15800.168544</parameter><parameter name="LFL">0</parameter><parameter name="LWN">15800.168544</parameter><parameter name="ABP">32197</parameter><parameter name="SSP">1</parameter><parameter name="ASG">2</parameter><parameter name="ARG">2</parameter><parameter name="ASS">32</parameter><parameter name="GFW">16</parameter><parameter name="GBW">16</parameter><parameter name="BFW">0</parameter><parameter name="BBW">0</parameter><parameter name="PKA">6505</parameter><parameter name="PKL">4988</parameter><parameter name="PRA">6758</parameter><parameter name="PRL">4993</parameter><parameter name="P2A">1</parameter><parameter name="P2L">1</parameter><parameter name="P2R">1</parameter><parameter name="P2K">1</parameter><parameter name="DAQ">0</parameter><parameter name="AG2">1</parameter><parameter name="SSM">1</parameter><parameter name="RSN">13339</parameter><parameter name="CRR">0</parameter><parameter name="SRT">1653995687.263</parameter><parameter name="DUR">19.6379852294922</parameter><parameter name="TSC">28.8</parameter><parameter name="MVD">0.718951761722565</parameter><parameter name="AN1">0.225797714407281</parameter><parameter name="AN2">0</parameter><parameter name="VSN">2.485 Apr  4 2017</parameter><parameter name="SRN">0085</parameter><parameter name="CAM">0</parameter><parameter name="INS">IR-Biotyper</parameter><parameter name="FOC">69</parameter><parameter name="RDY">1</parameter></Instrument_Parameters_><History/></OPUSDataFile>
