<?xml version="1.0" encoding="UTF-8" ?>
<OPUSDataFile><AB><Ydata ylabel="Absorbance Units"><values byteorder="INTEL" format="FLOAT32" numvalues="3497"> -0.08426595 -0.08426858 -0.08423555 -0.0841655 -0.08407709 -0.08397131 -0.0838768 -0.08379442 -0.08374299 -0.08372117
 -0.0837323 -0.08377238 -0.08383064 -0.08390131 -0.08396501 -0.0840203 -0.08405367 -0.08407345 -0.08408277 -0.08409217
 -0.08411311 -0.08414388 -0.08418858 -0.08423631 -0.08428288 -0.08432575 -0.08436247 -0.08439916 -0.08443745 -0.08447386
 -0.0845089 -0.08452798 -0.08453031 -0.08451159 -0.08447316 -0.08443154 -0.08438841 -0.08436316 -0.08435338 -0.08436146
 -0.08438256 -0.08440612 -0.08442985 -0.08444446 -0.08445224 -0.08445169 -0.08444698 -0.08444108 -0.08443634 -0.0844356
 -0.08443692 -0.08444131 -0.08444182 -0.08443701 -0.08442131 -0.08439256 -0.08435569 -0.08431017 -0.08427198 -0.084242
 -0.08423519 -0.0842512 -0.0842896 -0.08434755 -0.08440784 -0.08446857 -0.08451262 -0.08454279 -0.08455627 -0.0845587
 -0.08455833 -0.08455847 -0.0845671 -0.08458242 -0.08460688 -0.0846338 -0.08466133 -0.08468042 -0.08468735 -0.08467624
 -0.08464302 -0.0845953 -0.08453137 -0.08447608 -0.08443086 -0.0844264 -0.08446452 -0.08456127 -0.08471506 -0.08491027
 -0.08513979 -0.08535374 -0.08554449 -0.08565361 -0.0856877 -0.08562806 -0.08549751 -0.08532501 -0.08512948 -0.08494534
 -0.08477832 -0.08464539 -0.0845418 -0.08447091 -0.08442131 -0.08438892 -0.08436809 -0.08435429 -0.08435843 -0.08438095
 -0.08443692 -0.08452931 -0.08464884 -0.08479529 -0.08493072 -0.08505397 -0.08513904 -0.0851904 -0.08522228 -0.08524047
 -0.08527624 -0.08532646 -0.08540234 -0.08549061 -0.08557347 -0.08564232 -0.08567676 -0.08568375 -0.0856618 -0.0856196
 -0.08556207 -0.08549282 -0.08541097 -0.08533279 -0.08525869 -0.08522019 -0.08522239 -0.08528927 -0.0854267 -0.08561364
 -0.0858499 -0.08602281 -0.08612739 -0.08605721 -0.08583215 -0.08552804 -0.08516597 -0.08486991 -0.08463453 -0.0845098
 -0.08447926 -0.08454326 -0.08467156 -0.08483513 -0.08499261 -0.08509785 -0.08513616 -0.08507421 -0.08495858 -0.08479375
 -0.08464376 -0.08453081 -0.08446827 -0.08446584 -0.08449297 -0.08454805 -0.08460005 -0.08464688 -0.08467992 -0.08469981
 -0.084716 -0.08472972 -0.08475449 -0.08478849 -0.08483422 -0.08488428 -0.08492142 -0.08494022 -0.08491984 -0.08486877
 -0.08478601 -0.08468918 -0.08459193 -0.08450804 -0.08444915 -0.08442151 -0.08443151 -0.08447519 -0.08455604 -0.0846518
 -0.08476194 -0.08484984 -0.08491204 -0.08491769 -0.08486449 -0.08474782 -0.0845694 -0.08435649 -0.08411319 -0.08388034
 -0.08365936 -0.08347824 -0.0833339 -0.08323364 -0.08317164 -0.08314271 -0.08313818 -0.08314799 -0.08315892 -0.08315662
 -0.08313318 -0.08307568 -0.08299803 -0.08289884 -0.08280744 -0.08273244 -0.08268761 -0.0826792 -0.08269398 -0.08273164
 -0.08277545 -0.08282426 -0.08287326 -0.08292224 -0.08296901 -0.08301234 -0.08304296 -0.08305953 -0.08305047 -0.08301838
 -0.0829618 -0.08288898 -0.0828129 -0.08274192 -0.08269255 -0.08266582 -0.082669 -0.08269773 -0.08275035 -0.08282728
 -0.08292918 -0.08305322 -0.08320283 -0.08335368 -0.08350353 -0.08362363 -0.08371002 -0.08375408 -0.0837554 -0.08368638
 -0.0835454 -0.08329479 -0.08294404 -0.08253691 -0.08209234 -0.08171209 -0.08139994 -0.08122264 -0.08116135 -0.08122232
 -0.08136189 -0.08153122 -0.08169111 -0.08178276 -0.0818157 -0.08177474 -0.08169229 -0.08157924 -0.08145344 -0.08132392
 -0.08118823 -0.08104789 -0.08089387 -0.08072444 -0.08054385 -0.08035194 -0.08016936 -0.07999748 -0.07986207 -0.07976343
 -0.07971988 -0.07972388 -0.07976115 -0.07981118 -0.07980969 -0.07975079 -0.07958307 -0.07934014 -0.07904384 -0.07872188
 -0.07841175 -0.07810857 -0.07782158 -0.07753548 -0.07724442 -0.07694457 -0.07663217 -0.07631485 -0.07599336 -0.07567479
 -0.07536095 -0.07504577 -0.07472932 -0.074388 -0.07402132 -0.07361834 -0.07318452 -0.07275599 -0.07233528 -0.07195583
 -0.07160763 -0.07127936 -0.07096577 -0.07065109 -0.07033647 -0.07002245 -0.06969459 -0.06934657 -0.06894752 -0.06847292
 -0.06791917 -0.06727366 -0.06656307 -0.0657956 -0.06497356 -0.06409827 -0.0631702 -0.06218689 -0.06118097 -0.06015445
 -0.05913139 -0.05811206 -0.05709646 -0.05608548 -0.055086 -0.05409969 -0.05313991 -0.05220183 -0.05127983 -0.05036753
 -0.04945094 -0.04852542 -0.0475877 -0.04661015 -0.04557399 -0.04443738 -0.04315279 -0.04175829 -0.04024369 -0.03870929
 -0.03719034 -0.03570642 -0.03427201 -0.03285058 -0.03143831 -0.03002053 -0.0285954 -0.02717854 -0.02577122 -0.02440075
 -0.02306575 -0.02177667 -0.02051651 -0.01922627 -0.01787612 -0.01633559 -0.0146338 -0.01273658 -0.01075429 -0.00883277
 -0.007001485 -0.005363666 -0.003831986 -0.002387322 -0.0009371825 0.0005691947 0.002157137 0.003853892 0.005610521 0.007424499
 0.009237911 0.01104045 0.01282984 0.01460404 0.01641136 0.01825329 0.02015848 0.02211957 0.02409166 0.02606767
 0.02798932 0.02986447 0.03168495 0.03346087 0.0352077 0.03693134 0.03864285 0.04035386 0.04208031 0.04382394
 0.04559525 0.04737466 0.04915063 0.05093226 0.05271059 0.05454504 0.05644991 0.05843933 0.06052573 0.06261114
 0.06469002 0.06667111 0.06855376 0.07035322 0.07207657 0.07378581 0.07548414 0.07721927 0.07898671 0.0808027
 0.08265156 0.08451058 0.08636908 0.08819505 0.0900097 0.09181638 0.09365004 0.09554289 0.09748317 0.0994827
 0.1014874 0.1034796 0.1054433 0.1073682 0.1092785 0.1111757 0.1130776 0.1149856 0.1169072 0.1188426
 0.1207933 0.1227578 0.1247256 0.126697 0.1286671 0.1306402 0.1326289 0.1346295 0.1366453 0.1386614
 0.1406574 0.1426266 0.1445518 0.1464439 0.148303 0.150146 0.15198 0.1538185 0.1556692 0.1575282
 0.1593993 0.1612548 0.1630911 0.1648934 0.1666594 0.1684184 0.1701721 0.1719547 0.173764 0.1755953
 0.1774452 0.1792951 0.1811461 0.1829933 0.1848337 0.18666 0.1884685 0.1902486 0.1920075 0.1937484
 0.1954767 0.1971996 0.1989101 0.2006054 0.2022866 0.2039516 0.2056113 0.2072693 0.2089231 0.2105726
 0.2122145 0.2138477 0.2154895 0.2171403 0.2188068 0.2204858 0.2221529 0.223807 0.2254301 0.2270266
 0.2286019 0.2301555 0.2316892 0.2332019 0.2346897 0.2361608 0.2376221 0.2390777 0.2405336 0.241986
 0.2434316 0.2448796 0.2463321 0.2477963 0.2492787 0.2507506 0.2522097 0.2536274 0.2549999 0.2563509
 0.257682 0.2590327 0.2604009 0.2617857 0.2631825 0.2645687 0.2659446 0.2673 0.2686355 0.2699473
 0.2712353 0.2724964 0.2737343 0.2749524 0.2761504 0.2773286 0.278487 0.279622 0.2807499 0.2818752
 0.2830087 0.2841576 0.2852986 0.2864294 0.2875318 0.2886024 0.2896707 0.2907385 0.2918442 0.2929863
 0.2941647 0.2953759 0.2966022 0.2978414 0.2990804 0.3003114 0.3015127 0.3026791 0.3037887 0.3048559
 0.3058842 0.3068944 0.3079043 0.308917 0.3099414 0.3109626 0.3119795 0.3129718 0.3139348 0.3148566
 0.3157325 0.3165822 0.3174058 0.3182497 0.3191161 0.320033 0.3209981 0.3220015 0.3230385 0.3240843
 0.3251314 0.3261469 0.327121 0.3280127 0.328832 0.3295658 0.3302553 0.3309356 0.3316407 0.3324142
 0.3332376 0.3341226 0.335011 0.3358878 0.336709 0.3374579 0.3381416 0.3387549 0.3393487 0.3399267
 0.3405252 0.3411446 0.3417536 0.3423475 0.3428658 0.3433147 0.3436885 0.3440067 0.3443253 0.3446564
 0.3450555 0.3455139 0.3460481 0.3466305 0.3472435 0.3478535 0.3484266 0.3489615 0.3494357 0.3499095
 0.3503936 0.3509541 0.3516181 0.3523573 0.3531815 0.3539658 0.3547018 0.3552843 0.3557102 0.3559925
 0.3561416 0.3562625 0.3563608 0.3565241 0.3567399 0.3570134 0.3573334 0.3576719 0.3580416 0.3584502
 0.3589069 0.3594367 0.3600032 0.360595 0.3611608 0.3616634 0.3621129 0.3624944 0.3628759 0.3632705
 0.3637211 0.3642405 0.3648041 0.3654127 0.3660045 0.3665765 0.3670757 0.3675037 0.3678524 0.3681341
 0.3684027 0.3686744 0.3690321 0.3694758 0.3700541 0.3707387 0.3715169 0.3723412 0.373161 0.3739365
 0.3746175 0.3752082 0.3756858 0.3761112 0.3764927 0.3769095 0.3773808 0.3779537 0.3786391 0.3794476
 0.3803816 0.3814335 0.3826027 0.3838562 0.3851875 0.3865207 0.3878425 0.3890458 0.3901214 0.3909765
 0.3916284 0.3920543 0.3923142 0.3924772 0.3926185 0.3928508 0.3931888 0.3937028 0.3942988 0.3949673
 0.395559 0.3960196 0.3962653 0.3962525 0.396037 0.3956102 0.3951212 0.3945819 0.3940979 0.3936734
 0.3932874 0.3929332 0.3925277 0.392076 0.3915563 0.3909895 0.3904352 0.3898995 0.3894372 0.3890122
 0.388607 0.3881524 0.3875735 0.386813 0.3857951 0.3845322 0.3829904 0.3812729 0.3793939 0.3774919
 0.3756001 0.3738066 0.3721327 0.370589 0.3691807 0.3678666 0.3666443 0.3654378 0.3642425 0.3629778
 0.3616506 0.3602473 0.3587932 0.3573659 0.3559778 0.3547075 0.3535206 0.352406 0.3513104 0.3501642
 0.3489618 0.3476613 0.3463267 0.3449708 0.3436776 0.3424829 0.3414195 0.3405137 0.3397032 0.3389919
 0.3382469 0.3374573 0.3365213 0.3354343 0.3342209 0.3328916 0.3315725 0.3302705 0.3290939 0.3280291
 0.3270922 0.3262592 0.3254851 0.3247534 0.3240192 0.323276 0.3225017 0.3216916 0.3208359 0.3199333
 0.318976 0.317982 0.3169492 0.3159225 0.3149107 0.3139511 0.3130555 0.3122056 0.3114037 0.3105842
 0.3097439 0.3088353 0.3078608 0.3068319 0.3057556 0.3046769 0.3035989 0.3025572 0.3015474 0.3005792
 0.299641 0.2987213 0.2978059 0.2968749 0.2959215 0.2949317 0.2939126 0.2928622 0.291795 0.2907157
 0.2896344 0.2885554 0.287477 0.2864004 0.2853144 0.2842177 0.283104 0.2819731 0.2808387 0.2797022
 0.2785874 0.2774929 0.2764257 0.2753795 0.2743368 0.2732947 0.2722346 0.2711644 0.2700865 0.2690124
 0.2679576 0.266924 0.2659191 0.2649376 0.2639755 0.2630415 0.262135 0.2612766 0.2604763 0.2597197
 0.2590134 0.2582811 0.2575177 0.2566405 0.255645 0.254529 0.2532999 0.2520482 0.2507844 0.2496193
 0.248549 0.2476263 0.2468235 0.2461101 0.2454447 0.2447459 0.2439946 0.2431257 0.2421768 0.2411449
 0.2401008 0.2390848 0.2381259 0.2372532 0.2364304 0.2356536 0.2348945 0.234141 0.2334359 0.23278
 0.2322424 0.231827 0.2315325 0.231351 0.2311813 0.2310108 0.2307104 0.2302857 0.2296782 0.2289234
 0.2280691 0.2271577 0.2262845 0.2254544 0.22472 0.2240393 0.2233959 0.2227583 0.222093 0.2214314
 0.2207722 0.2201686 0.2196409 0.2191789 0.2187898 0.2184101 0.2180327 0.2176383 0.2172257 0.2168524
 0.2165205 0.2162799 0.2161213 0.2160168 0.2159522 0.2158592 0.2157378 0.2155512 0.2153144 0.2150362
 0.2147275 0.2144095 0.2140704 0.2137157 0.2133074 0.2128292 0.2122459 0.2115324 0.2107083 0.2097612
 0.2087834 0.2077831 0.2068668 0.2060485 0.2053565 0.2047931 0.2042808 0.2038127 0.2032741 0.202666
 0.2019316 0.2010894 0.2001723 0.199203 0.1982545 0.1973322 0.1964824 0.1956887 0.1949528 0.1942503
 0.1935625 0.1928727 0.1921647 0.1914393 0.1906891 0.1899364 0.1891838 0.1884582 0.1877678 0.1871033
 0.1864681 0.1858037 0.1851069 0.1843286 0.1834714 0.1825623 0.1816113 0.1806985 0.1798213 0.1790187
 0.1782673 0.1775285 0.1767874 0.175992 0.1751639 0.1743021 0.1734459 0.1726297 0.1718687 0.1711848
 0.1705658 0.1700102 0.169514 0.1690726 0.1687039 0.1684113 0.1682016 0.1680793 0.1680034 0.1679723
 0.1679032 0.1677923 0.1675666 0.1672314 0.1667767 0.1662205 0.1656209 0.1649985 0.1644335 0.1639342
 0.1635531 0.1632828 0.1631361 0.1630981 0.1631602 0.1633133 0.1635482 0.1638667 0.1642677 0.1647538
 0.1653272 0.1659793 0.1667084 0.1675106 0.1683825 0.1693606 0.1704465 0.1717148 0.1731678 0.1748564
 0.176772 0.1788892 0.1811906 0.1835978 0.1861014 0.1886368 0.1912103 0.193803 0.1964259 0.1990859
 0.2017892 0.2045413 0.2073513 0.2102215 0.2131741 0.2162171 0.2193708 0.2226474 0.2260295 0.2295229
 0.2330605 0.2366399 0.2401656 0.2436322 0.2469233 0.2500287 0.2527822 0.2551658 0.256972 0.2582023
 0.2587222 0.2586087 0.2579444 0.2568997 0.255778 0.2547702 0.2542285 0.2542442 0.2550351 0.2565329
 0.2587827 0.2616124 0.2649777 0.2687048 0.2727443 0.2769693 0.2813509 0.2858168 0.2903529 0.2949608
 0.2996387 0.304473 0.3094718 0.314774 0.32039 0.3264595 0.3329836 0.3400546 0.3476408 0.3557429
 0.364249 0.3730395 0.3818243 0.3903411 0.3979697 0.4042598 0.4082935 0.4094374 0.4070883 0.400675
 0.3907611 0.3771662 0.3616162 0.3442905 0.3270789 0.3102087 0.2948221 0.2810106 0.2689941 0.2587524
 0.2499399 0.2425104 0.2359958 0.2303695 0.225286 0.2207345 0.2165189 0.2126296 0.2089634 0.2055137
 0.2022308 0.1991208 0.1961712 0.1933968 0.1908035 0.1884012 0.1861952 0.1841913 0.1823893 0.1808063
 0.1794433 0.1783273 0.1774619 0.1768591 0.1765206 0.1764198 0.1765523 0.1768418 0.177275 0.1777262
 0.1781783 0.1784919 0.1786706 0.1786369 0.1784408 0.1781182 0.1777583 0.1774756 0.1773613 0.1775263
 0.1780375 0.1789573 0.1803417 0.182209 0.1846623 0.1877048 0.1915526 0.1962333 0.2019932 0.2088933
 0.2167732 0.2256482 0.2343248 0.2426846 0.2485197 0.251744 0.2505307 0.2451975 0.2358976 0.2232991
 0.2092048 0.194119 0.1798217 0.1663811 0.1546353 0.1443473 0.1356096 0.1281218 0.1217348 0.1162252
 0.1114755 0.1073347 0.1037489 0.1005921 0.09783848 0.09538274 0.0932112 0.091251 0.08949673 0.08789387
 0.08643936 0.08507978 0.08381257 0.08259201 0.08141997 0.08027723 0.07917187 0.07811499 0.07711424 0.07619189
 0.07534292 0.07457614 0.07386639 0.07319961 0.07254075 0.0718635 0.07115164 0.07038479 0.06959018 0.0687653
 0.06796627 0.06720368 0.06651162 0.06589899 0.06534116 0.06483787 0.06433314 0.06382546 0.06328914 0.06272863
 0.06216642 0.06160424 0.06106556 0.06053915 0.06000763 0.05945835 0.0588541 0.05820412 0.05749836 0.05676816
 0.05603636 0.05533047 0.05467577 0.05407895 0.05355063 0.05308242 0.05267667 0.05231196 0.05198815 0.05166584
 0.05134125 0.05097773 0.05057187 0.0501245 0.04963712 0.04914502 0.04864979 0.04818061 0.04773436 0.04731297
 0.04691351 0.0465281 0.04615759 0.04580074 0.04545663 0.04512481 0.04480069 0.04447839 0.04416007 0.04384222
 0.04353905 0.04325626 0.04300211 0.042785 0.04258331 0.04239802 0.04218549 0.04194003 0.04163805 0.04127645
 0.04088034 0.04045203 0.04004143 0.03964906 0.03930353 0.03899885 0.03872528 0.03847557 0.03822338 0.03796836
 0.03769503 0.03741259 0.03712577 0.03684565 0.03658738 0.03634651 0.03613081 0.03591198 0.03568202 0.035411
 0.0350848 0.03470559 0.03426702 0.03380614 0.03332552 0.03286485 0.0324275 0.03202685 0.03166265 0.03132311
 0.03100647 0.03069373 0.03038447 0.03006653 0.02974136 0.02940641 0.02906393 0.02871679 0.02836697 0.028018
 0.02767182 0.02733126 0.02699796 0.02667408 0.02635911 0.0260538 0.02575549 0.02546345 0.02517613 0.02489277
 0.02461501 0.02434304 0.02407762 0.02381897 0.02356232 0.02330744 0.02304894 0.02278782 0.02252929 0.02227567
 0.0220415 0.02182518 0.02163246 0.02145406 0.02127573 0.02108768 0.02086874 0.0206201 0.0203328 0.02001891
 0.01968257 0.01933655 0.01898753 0.01864255 0.01830501 0.01797826 0.01766375 0.01736114 0.01707089 0.01678852
 0.01651374 0.01624286 0.01597586 0.0157137 0.01545645 0.01520522 0.01495969 0.01471863 0.01448255 0.0142519
 0.01402796 0.01381451 0.01360944 0.01341327 0.01321868 0.01301891 0.012809 0.01258096 0.01234269 0.01209324
 0.01185005 0.01161865 0.0114085 0.01122458 0.01105698 0.01090624 0.01075177 0.01059206 0.01041283 0.01021376
 0.00999523 0.00975846 0.009513824 0.00926239 0.009014848 0.008770547 0.008533604 0.008301774 0.008072276 0.007844163
 0.007614254 0.007384448 0.00715516 0.006928939 0.00670811 0.006492333 0.006282444 0.006076003 0.005872529 0.005669768
 0.005467101 0.005263698 0.00505922 0.004854882 0.004650701 0.004449039 0.004249966 0.004054172 0.003861395 0.003669425
 0.003478291 0.003286582 0.003095359 0.002907195 0.002722591 0.002544528 0.002371003 0.00220128 0.002031226 0.001856681
 0.001674613 0.001481083 0.001277217 0.001061536 0.0008397508 0.0006124869 0.0003879849 0.0001676119 -4.05895E-05 -0.0002353833
 -0.0004119058 -0.000569505 -0.0007095069 -0.0008321768 -0.0009459137 -0.001051567 -0.001160477 -0.001272593 -0.001394289 -0.001523685
 -0.001658507 -0.001797086 -0.001934141 -0.002071105 -0.002207315 -0.002345732 -0.002490257 -0.002638892 -0.00279358 -0.002944721
 -0.003088849 -0.003217273 -0.003324665 -0.003415526 -0.003487951 -0.003559247 -0.003631291 -0.003718205 -0.003821711 -0.00393986
 -0.004072269 -0.004204188 -0.004335133 -0.004453927 -0.004562436 -0.004663261 -0.004759347 -0.004861457 -0.004969968 -0.005091983
 -0.005223564 -0.00536297 -0.005504238 -0.005641211 -0.005768879 -0.005881632 -0.005978344 -0.006055982 -0.006119411 -0.006168452
 -0.006212388 -0.006252772 -0.006298185 -0.006350138 -0.006412309 -0.006485279 -0.006567453 -0.006658641 -0.006752392 -0.00684816
 -0.006937718 -0.007021653 -0.007097517 -0.007168206 -0.007241268 -0.007319038 -0.007411185 -0.007515376 -0.007633535 -0.007759567
 -0.007888016 -0.008014727 -0.008134372 -0.008247986 -0.008353954 -0.008457103 -0.008558311 -0.008662723 -0.008771714 -0.008887637
 -0.009011289 -0.009141139 -0.009277361 -0.009413693 -0.009549763 -0.009677195 -0.009795766 -0.009899401 -0.009989331 -0.01006765
 -0.01013723 -0.01020797 -0.01028193 -0.01036916 -0.0104677 -0.01058025 -0.01070057 -0.01082388 -0.01094389 -0.01105363
 -0.01115368 -0.01124046 -0.01132412 -0.01140653 -0.01149859 -0.01160413 -0.01172271 -0.01185584 -0.01199196 -0.01213033
 -0.01226088 -0.01238321 -0.0124955 -0.01259809 -0.01269329 -0.01278159 -0.01286597 -0.01294776 -0.0130327 -0.01312158
 -0.01321967 -0.01332475 -0.01343644 -0.01355078 -0.01366295 -0.01377235 -0.01387597 -0.01397811 -0.01407989 -0.01418545
 -0.01429708 -0.01441383 -0.01453659 -0.01465972 -0.0147827 -0.01489986 -0.0150106 -0.01511267 -0.01520598 -0.0152916
 -0.01536982 -0.01544354 -0.01551346 -0.01558469 -0.01565798 -0.01573887 -0.01582662 -0.01592294 -0.01602536 -0.01613118
 -0.01623783 -0.01634154 -0.01644131 -0.01653486 -0.01662351 -0.01670649 -0.01678845 -0.01687016 -0.01695806 -0.01705414
 -0.0171598 -0.01727624 -0.01739678 -0.01752105 -0.01764164 -0.01775824 -0.01787003 -0.01797732 -0.01808328 -0.01818773
 -0.01829113 -0.01839322 -0.0184928 -0.01859101 -0.01868948 -0.01878985 -0.01889595 -0.01900678 -0.01912362 -0.01924233
 -0.01936029 -0.01947477 -0.01958281 -0.01968684 -0.01978637 -0.01988702 -0.01999014 -0.02009863 -0.02021359 -0.02033206
 -0.02045409 -0.02057352 -0.02069004 -0.02080052 -0.02090551 -0.02100942 -0.02111394 -0.0212301 -0.02135966 -0.02151402
 -0.02169406 -0.02190715 -0.02215363 -0.02243666 -0.02275767 -0.02311793 -0.02352267 -0.02397413 -0.0244826 -0.0250533
 -0.0256947 -0.02641371 -0.02720097 -0.02805869 -0.0289592 -0.02989845 -0.03085966 -0.03184002 -0.03285023 -0.03389037
 -0.03494334 -0.03599913 -0.03694356 -0.03775946 -0.03828683 -0.03853283 -0.0384269 -0.03800775 -0.03731644 -0.03641076
 -0.0353856 -0.03431193 -0.03329916 -0.03239346 -0.03166638 -0.03112246 -0.0307842 -0.03063564 -0.03068107 -0.03088329
 -0.03124458 -0.03167904 -0.03217981 -0.03263782 -0.03304002 -0.03335992 -0.03359612 -0.03379616 -0.03396054 -0.03410978
 -0.03423917 -0.03433206 -0.03438636 -0.03438506 -0.034332 -0.03422582 -0.03407509 -0.03389222 -0.03368413 -0.03346454
 -0.03323187 -0.03298943 -0.03273378 -0.03246085 -0.03218041 -0.03189208 -0.03161702 -0.03135991 -0.03113604 -0.03094944
 -0.03079969 -0.03068785 -0.03060066 -0.03053742 -0.03048015 -0.0304283 -0.03036957 -0.03030527 -0.03023554 -0.03016326
 -0.03009805 -0.03004223 -0.0300064 -0.0299899 -0.02999764 -0.03002457 -0.03006823 -0.03012069 -0.03017542 -0.03022658
 -0.03026856 -0.03030227 -0.03032564 -0.03034604 -0.03036434 -0.03038912 -0.030422 -0.03046692 -0.03052469 -0.03059292
 -0.0306715 -0.03075492 -0.03084302 -0.03093224 -0.03102282 -0.03111415 -0.03120657 -0.03130102 -0.03139744 -0.03149652
 -0.03159726 -0.03169888 -0.03179923 -0.03189567 -0.03198678 -0.03207014 -0.03214685 -0.03221639 -0.03228173 -0.0323438
 -0.03240465 -0.03246502 -0.03252558 -0.03258677 -0.03264701 -0.03270638 -0.03276085 -0.03281023 -0.03285205 -0.03288665
 -0.03291741 -0.03294491 -0.03297453 -0.03300561 -0.03303875 -0.03307308 -0.03310626 -0.03313937 -0.03317312 -0.03320868
 -0.03324844 -0.03329051 -0.03333439 -0.03337776 -0.03341817 -0.03345848 -0.03349873 -0.03354354 -0.03359514 -0.03365028
 -0.03370971 -0.03376262 -0.03380787 -0.03384018 -0.03385921 -0.03387423 -0.03388607 -0.03390887 -0.03394175 -0.03398726
 -0.03404238 -0.03409735 -0.03415081 -0.03419349 -0.03422851 -0.03425621 -0.03428143 -0.03431002 -0.03434452 -0.03438976
 -0.03444338 -0.0345068 -0.03457219 -0.0346375 -0.03469493 -0.03474122 -0.03477734 -0.03480199 -0.03482508 -0.03484741
 -0.03487673 -0.03491352 -0.03495608 -0.035004 -0.03505099 -0.03509712 -0.0351395 -0.03517924 -0.03521854 -0.03525903
 -0.03530584 -0.03535957 -0.03542447 -0.03549781 -0.03557947 -0.03566279 -0.03574302 -0.03581379 -0.03586936 -0.03591035
 -0.03593402 -0.03594982 -0.03595889 -0.03597244 -0.03599297 -0.03602346 -0.03606499 -0.03611087 -0.03616077 -0.0362069
 -0.03624925 -0.03628608 -0.03631791 -0.03634685 -0.03637345 -0.03640052 -0.03642878 -0.03646133 -0.03649858 -0.03654317
 -0.03659347 -0.0366492 -0.03670703 -0.03676464 -0.03681827 -0.0368654 -0.03690325 -0.03692942 -0.03694607 -0.03695197
 -0.03695676 -0.03696138 -0.03697662 -0.03700412 -0.03704466 -0.03709842 -0.03715644 -0.03721821 -0.03727467 -0.037326
 -0.0373685 -0.03740315 -0.03743114 -0.0374541 -0.03747651 -0.03749957 -0.03752805 -0.03756028 -0.03759694 -0.03763393
 -0.03766787 -0.03769689 -0.03771811 -0.03773447 -0.03774578 -0.03775762 -0.03777119 -0.03779121 -0.03781886 -0.03785541
 -0.03790142 -0.03795321 -0.03801062 -0.03806702 -0.03812223 -0.03817216 -0.03821725 -0.0382582 -0.03829549 -0.03833141
 -0.0383656 -0.03839836 -0.03842903 -0.03845623 -0.03848061 -0.03850185 -0.03852236 -0.03854402 -0.03856844 -0.03859771
 -0.03862992 -0.03866515 -0.0387001 -0.0387334 -0.03876581 -0.03879667 -0.03883152 -0.03887093 -0.03891845 -0.0389744
 -0.03903424 -0.03909739 -0.03915396 -0.03920375 -0.03924006 -0.03926435 -0.03927821 -0.03928407 -0.03928875 -0.03929407
 -0.03930615 -0.03932595 -0.03935726 -0.03939934 -0.03945394 -0.03951631 -0.03958552 -0.03965323 -0.03971586 -0.03976858
 -0.03980814 -0.03983959 -0.03986242 -0.03988798 -0.03991755 -0.03995747 -0.0400083 -0.04006529 -0.04012782 -0.04018441
 -0.04023498 -0.04027253 -0.04029913 -0.04031879 -0.04033401 -0.04035386 -0.04037784 -0.0404099 -0.04044673 -0.04048532
 -0.04052457 -0.04056145 -0.04059933 -0.0406392 -0.04068436 -0.04073729 -0.04079577 -0.04086044 -0.04092495 -0.04098826
 -0.04104614 -0.04109776 -0.0411442 -0.04118543 -0.0412252 -0.0412636 -0.04130269 -0.0413422 -0.04138147 -0.04141987
 -0.04145469 -0.04148536 -0.04150865 -0.04152543 -0.04153481 -0.04154037 -0.0415457 -0.04155485 -0.04157323 -0.04160061
 -0.04163952 -0.04168455 -0.04173452 -0.04178376 -0.04183032 -0.04187187 -0.04190742 -0.04193791 -0.04196311 -0.04198667
 -0.04200877 -0.04203445 -0.04206378 -0.04209829 -0.04213719 -0.04217557 -0.04221256 -0.04224165 -0.04226363 -0.04227708
 -0.04228344 -0.04228503 -0.04228164 -0.0422737 -0.04226146 -0.04224386 -0.04222577 -0.04220925 -0.04219969 -0.04220125
 -0.04221065 -0.04222912 -0.04224604 -0.04225933 -0.04226414 -0.04225919 -0.04224858 -0.04223254 -0.04221316 -0.0421903
 -0.04216065 -0.04212454 -0.04208233 -0.04203539 -0.04198985 -0.04194599 -0.04190779 -0.04187449 -0.04184612 -0.04182321
 -0.04180625 -0.04179631 -0.04179559 -0.04180104 -0.04181276 -0.04182342 -0.04183038 -0.04182724 -0.04181072 -0.04178253
 -0.04174147 -0.04169721 -0.04165073 -0.04160901 -0.04157277 -0.04153707 -0.04150145 -0.04145617 -0.04140175 -0.04133684
 -0.04126332 -0.04118823 -0.04111265 -0.04104282 -0.04097936 -0.04092598 -0.04088352 -0.04085553 -0.04083914 -0.04083509
 -0.0408341 -0.04083159 -0.04081837 -0.04078852 -0.04074164 -0.04067512 -0.0405974 -0.04050907 -0.04042038 -0.04033268
 -0.04025166 -0.04017791 -0.04011031 -0.04004876 -0.03999028 -0.03993514 -0.03988399 -0.03983689 -0.03979493 -0.03975702
 -0.03972062 -0.03968509 -0.03964816 -0.03960945 -0.03956881 -0.03952232 -0.03946701 -0.03939824 -0.03931054 -0.03920799
 -0.03908941 -0.03896555 -0.03883945 -0.03871713 -0.03860083 -0.03848905 -0.03838206 -0.03827602 -0.03817072 -0.03806211
 -0.03795006 -0.03783188 -0.03770796 -0.03757979 -0.03744821 -0.03731747 -0.03718854 -0.03706587 -0.03695093 -0.03684893
 -0.03675943 -0.03668553 -0.03662169 -0.03656526 -0.03650797 -0.03644386 -0.03636829 -0.03627728 -0.03617141 -0.03604915
 -0.03591646 -0.03577328 -0.03563055 -0.03548956 -0.03535779 -0.03523607 -0.03512018 -0.03500988 -0.03489938 -0.0347898
 -0.03468778 -0.03459428 -0.03451891 -0.03445743 -0.03440468 -0.03435241 -0.03428134 -0.03418981 -0.03406432 -0.0339161
 -0.03374944 -0.03357767 -0.033412 -0.03325448 -0.03311056 -0.0329712 -0.03283479 -0.03269437 -0.03254709 -0.03239768
 -0.03224608 -0.03209967 -0.0319591 -0.03182485 -0.03169691 -0.0315748 -0.03145827 -0.03134677 -0.03123747 -0.03111793
 -0.03098502 -0.03082061 -0.03063059 -0.03041623 -0.03018773 -0.02996074 -0.02973744 -0.02952509 -0.02932397 -0.02913497
 -0.02896241 -0.02880974 -0.02867395 -0.02855766 -0.02844328 -0.02832857 -0.0281956 -0.0280413 -0.02786087 -0.02765344
 -0.02742588 -0.02717884 -0.0269271 -0.0266714 -0.02642531 -0.02618698 -0.02595563 -0.02572865 -0.0254969 -0.02526231
 -0.02502473 -0.02478537 -0.0245482 -0.02430683 -0.02405596 -0.02379323 -0.02351198 -0.0232248 -0.0229358 -0.02265376
 -0.02238516 -0.02211897 -0.0218552 -0.02157681 -0.02128117 -0.02096264 -0.02062044 -0.02025754 -0.01987393 -0.01946873
 -0.0190407 -0.01857848 -0.01808145 -0.01753776 -0.01695406 -0.01634187 -0.01571093 -0.01508936 -0.01447331 -0.0138727
 -0.01327134 -0.01265595 -0.01201933 -0.0113488 -0.01065681 -0.009945342 -0.009227159 -0.008509264 -0.007785711 -0.007059538
 -0.006304582 -0.005519654 -0.004666753 -0.003742159 -0.002739591 -0.001660557 -0.0005602079 0.0005600171 0.001659023 0.002748505
 0.00385935 0.005005538 0.006247018 0.007582345 0.009041603 0.01060608 0.01226505 0.01399534 0.01577046 0.01757782
 0.01939379 0.02124146 0.02311635 0.02507724 0.02714833 0.02933473 0.03165663 0.03400677 0.03637322 0.03868186
 0.04092252 0.04314891 0.04536336 0.04761701 0.04990313 0.05217872 0.05444166 0.05665053 0.05882803 0.06102485
 0.06324995 0.06556326 0.06791653 0.07026565 0.07257578 0.07477716 0.07691854 0.07900602 0.08110262 0.08324528
 0.08544516 0.08771612 0.09004052 0.09240727 0.09486268 0.09740092 0.1001697 0.1031835 0.1064753 0.1100381
 0.1135671 0.1170504 0.120234 0.1231624 0.1259169 0.1285395 0.1312028 0.1339103 0.1367458 0.1397124
 0.1428259 0.1461556 0.1497416 0.1537406 0.158268 0.1634299 0.1693704 0.1758601 0.1829173 0.1900517
 0.1971561 0.2039563 0.2103846 0.2164692 0.2222006 0.227753 0.2331398 0.2386921 0.2444435 0.2508832
 0.2579611 0.2657797 0.2740926 0.2821434 0.2898891 0.296786 0.3031355 0.309151 0.3150552 0.3211852
 0.3275327 0.334204 0.3411058 0.34821 0.3554865 0.3629424 0.3704534 0.3780095 0.3854214 0.3926446
 0.3997381 0.4067019 0.4136462 0.4205675 0.4271827 0.4334625 0.4389905 0.4438015 0.4478471 0.4511852
 0.4539927 0.4562434 0.4579595 0.4591218 0.459663 0.4597176 0.4593871 0.4588023 0.4580842 0.4573025
 0.4565184 0.4557643 0.4550803 0.4543918 0.453709 0.4528501 0.4517992 0.4503527 0.4484867 0.4461901
 0.4434678 0.440617 0.4376457 0.4347609 0.4319233 0.4290439 0.4260875 0.4228868 0.4194595 0.4157383
 0.4118154 0.4077884 0.4037527 0.399859 0.3961008 0.3925241 0.3890854 0.3857484 0.3825893 0.3796042
 0.3769594 0.3747017 0.37287 0.3714878 0.3704493 0.3697484 0.3692926 0.3690778 0.3690796 0.3692977
 0.3697241 0.3703511 0.371137 0.3720694 0.373087 0.3741855 0.3753245 0.3765119 0.37774 0.3790223
 0.3803677 0.3817935 0.3833136 0.3849429 0.3866943 0.3885663 0.3905608 0.3926764 0.3949108 0.3972789
 0.3997852 0.4024157 0.4051724 0.4079876 0.4108582 0.4137398 0.416633 0.4195428 0.4224501 0.4252682
 0.4279577 0.4303254 0.4323964 0.4341162 0.4355605 0.4368339 0.4379496 0.4389731 0.4398559 0.4405776
 0.4411188 0.4414651 0.4416071 0.4415523 0.4412292 0.4406183 0.4396941 0.4384313 0.437002 0.4354222
 0.4337577 0.4320095 0.4300305 0.4278153 0.425254 0.4223588 0.4191386 0.4156053 0.4118284 0.4077522
 0.4033396 0.3984092 0.3926318 0.3859964 0.3781705 0.3698265 0.3613468 0.3532266 0.3459594 0.3391807
 0.3328742 0.3266857 0.3204856 0.3143424 0.3082375 0.3023628 0.2967421 0.291352 0.2861906 0.2810874
 0.2760402 0.2709642 0.2658774 0.2608367 0.2558518 0.2509952 0.2462423 0.2415753 0.2369677 0.2323643
 0.2277708 0.2231837 0.2185784 0.2139807 0.2092163 0.204226 0.1987948 0.1927262 0.1864159 0.179828
 0.173869 0.1687347 0.1644379 0.1610282 0.1578763 0.1549523 0.1518597 0.1486147 0.1452715 0.1418718
 0.1386879 0.1356992 0.1329834 0.1304909 0.1281233 0.1259111 0.1238383 0.1219995 0.1205041 0.1193757
 0.1186824 0.1183667 0.1184087 0.1187917 0.1194842 0.120578 0.122056 0.1241783 0.126951 0.1308294
 0.1358655 0.1422503 0.1499871 0.1581182 0.1665437 0.1737455 0.1797599 0.1839809 0.1865771 0.1877702
 0.1877416 0.1869766 0.1856494 0.1842382 0.1828395 0.1817403 0.1809527 0.1805968 0.1805726 0.1808969
 0.181336 0.1818082 0.1821738 0.1823694 0.1824246 0.1823321 0.1821581 0.1819084 0.1816231 0.1813044
 0.1809599 0.1805891 0.1801877 0.1797587 0.179312 0.1788607 0.1784471 0.1780981 0.1778923 0.177857
 0.1780693 0.1785428 0.1793117 0.1804101 0.1818625 0.1837309 0.1860606 0.1888608 0.1921599 0.195881
 0.2000065 0.2045021 0.2093455 0.2146496 0.2204244 0.2267485 0.2336255 0.2407655 0.2481363 0.2552376
 0.2620799 0.268463 0.2744379 0.280094 0.2854272 0.2904947 0.2952179 0.2995082 0.3032693 0.3063644
 0.3087243 0.310251 0.3109213 0.3106848 0.3095916 0.3076313 0.3049253 0.3014798 0.2974962 0.2929862
 0.2882541 0.2833268 0.2784598 0.2736681 0.2689717 0.2643617 0.2597181 0.2550487 0.2503293 0.245596
 0.2409726 0.2364659 0.2321693 0.2280309 0.2240142 0.2200561 0.2160688 0.212023 0.2078554 0.2036013
 0.1992401 0.1948941 0.1905906 0.1864729 0.1825897 0.1789792 0.1756656 0.1725652 0.1696736 0.1668999
 0.1642387 0.1616969 0.1592809 0.1570816 0.1551007 0.1534002 0.1519616 0.1507554 0.1497579 0.1488984
 0.1481655 0.1475085 0.1469267 0.1464021 0.145932 0.1455137 0.1451301 0.1447758 0.1444222 0.1440589
 0.1436626 0.1432249 0.1427372 0.1421954 0.1416077 0.1409729 0.1403203 0.1396513 0.1390042 0.1383797
 0.1377962 0.1372515 0.13674 0.1362609 0.1358064 0.135381 0.134989 0.1346395 0.1343468 0.1341248
 0.1339931 0.133966 0.1340639 0.1342844 0.1346405 0.1350937 0.1356429 0.1362131 0.136791 0.137295
 0.1377092 0.1379876 0.1381215 0.1381197 0.1379819 0.1377531 0.137436 0.1370792 0.1366849 0.1362904
 0.1358975 0.1355331 0.1351959 0.1348978 0.1346314 0.1343911 0.1341674 0.1339477 0.1337258 0.1334927
 0.1332448 0.1329771 0.1326904 0.1323818 0.1320623 0.1317321 0.1314107 0.1311006 0.1308223 0.130578
 0.1303816 0.1302338 0.1301318 0.1300736 0.1300326 0.1300058 0.1299587 0.1298938 0.1297989 0.1296855
 0.1295731 0.1294763 0.1294272 0.1294366 0.1295288 0.1297099 0.1299925 0.1303789 0.130876 0.131475
 0.1321798 0.1329568 0.1338044 0.1346639 0.1355272 0.1363407 0.1370968 0.1377781 0.1383829 0.1389229
 0.1393991 0.1398232 0.1401956 0.140522 0.1408047 0.141055 0.1412767 0.1414869 0.1416843 0.1418779
 0.1420536 0.1422037 0.1423002 0.1423207 0.1422358 0.1420204 0.141669 0.1411672 0.1405449 0.1398028
 0.1389875 0.1381059 0.137197 0.1362656 0.1353362 0.1344108 0.1334982 0.1325972 0.1316917 0.1307763
 0.1298083 0.1287831 0.1276566 0.1264357 0.1251096 0.123701 0.1222406 0.120756 0.1192925 0.1178673
 0.1165102 0.1152258 0.1140246 0.1129063 0.1118747 0.1109199 0.1100443 0.1092158 0.1084322 0.1076493
 0.1068616 0.106046 0.1052002 0.1043436 0.1034788 0.1026551 0.1018759 0.1011888 0.1005929 0.1001105
 0.09973738 0.09947331 0.09931648 0.09926336 0.09931426 0.09947026 0.09972563 0.1000772 0.1005166 0.1010348
 0.1016402 0.1023285 0.1031312 0.1040539 0.105129 0.106365 0.1077684 0.1093434 0.1110605 0.1129187
 0.1148582 0.1168751 0.1189004 0.1209326 0.1229256 0.1248861 0.1268118 0.128716 0.1306308 0.1325669
 0.1345607 0.1366107 0.1387327 0.1409118 0.1431423 0.1454054 0.147689 0.1499803 0.1522721 0.1545541
 0.1568228 0.1590697 0.161291 0.1634944 0.165678 0.167874 0.170084 0.172355 0.1746899 0.1771372
 0.1796995 0.1824191 0.1852964 0.1883575 0.1915978 0.1950209 0.1986166 0.2023721 0.2062692 0.2102866
 0.2143923 0.2185593 0.2227432 0.2269163 0.2310324 0.2350699 0.2389895 0.2427777 0.2464068 0.2498702
 0.2531507 0.2562467 0.2591369 0.26182 0.2642657 0.2664734 0.2684315 0.2701454 0.2716449 0.2729389
 0.2740767 0.2750674 0.2759535 0.2767535 0.2775135 0.2782635 0.2790579 0.2799208 0.2808932 0.2819798
 0.2831971 0.2845336 0.2859914 0.2875467 0.289196 0.2909091 0.2926811 0.2944879 0.2963272 0.2981764
 0.3000346 0.3018594 0.3036472 0.3053315 0.3069061 0.3082969 0.3094977 0.3104437 0.3111326 0.3115247
 0.3116221 0.3114126 0.3108935 0.3100581 0.3088993 0.3074039 0.3055834 0.3034328 0.300994 0.2982787
 0.2953347 0.2921749 0.2888421 0.2853411 0.2817309 0.2780158 0.2742713 0.2705026 0.2667664 0.2630641
 0.2594175 0.2558262 0.2522971 0.2488319 0.2454404 0.2421264 0.2389043 0.2357796 0.2327688 0.2298771
 0.2271184 0.2244935 0.2220093 0.2196601 0.2174472 0.2153547 0.2133804 0.2114959 0.2096946 0.207948
 0.2062491 0.2045866 0.2029574 0.2013652 0.1998098 0.1982978 0.1968298 0.1954197 0.1940695 0.1928017
 0.1916159 0.1905248 0.1895208 0.1885922 0.1877268 0.1868977 0.1860932 0.185288 0.1844736 0.1836348
 0.182763 0.1818517 0.180885 0.179858 0.1787471 0.177545 0.1762357 0.1748136 0.1732807 0.1716357
 0.1698892 0.1680415 0.1661091 0.164094 0.1620317 0.1599264 0.1578275 0.1557378 0.1536952 0.1517005
 0.1497733 0.1479174 0.1461475 0.1444686 0.1428935 0.1414242 0.1400666 0.138822 0.137693 0.1366793
 0.1357847 0.1349955 0.1343137 0.1337033 0.1331625 0.1326357 0.1321188 0.1315468 0.1309154 0.1301693
 0.1293066 0.1283025 0.1271592 0.1258818 0.1244742 0.1229541 0.1213265 0.1196126 0.1178195 0.1159695
 0.1140696 0.1121363 0.1101802 0.108212 0.1062535 0.1043196 0.1024313 0.1006058 0.09883557 0.09712707
 0.09544328 0.093779 0.09210082 0.09040255 0.08867896 0.08692846 0.08517207 0.08341166 0.08168745 0.08000346
 0.07841023 0.07691031 0.07554425 0.07430699 0.07320872 0.07223521 0.07136568 0.07058442 0.06986007 0.06918844
 0.06855135 0.06796034 0.06741688 0.0669338 0.0665198 0.06617155 0.0658922 0.06566519 0.06548836 0.06534608
 0.06523637 0.06514762 0.06507904 0.0650181 0.06496407 0.06490387 0.06483661 0.06474921 0.06464103 0.06450091
 0.06433108 0.06412997 0.06390505 0.06366925 0.06343052 0.06320646 0.06299727 0.06281073 0.06264035 0.06248273
 0.06233772 0.06220028 0.06208844 0.06200346 0.06197473 0.06200862 0.06212251 0.06232087 0.06259746 0.06295242
 0.06337243 0.06385724 0.06440695 0.06502242 0.06571283 0.06647597 0.06730907 0.06820372 0.06913567 0.07009434
 0.07104614 0.07198839 0.07290001 0.07379249 0.0746676 0.07554122 0.07642655 0.07732565 0.07824595 0.07917258
 0.08010426 0.081021 0.08191979 0.0827799 0.08359926 0.08435493 0.08504498 0.08565419 0.08618227 0.08663255
 0.0870068 0.08732115 0.08757833 0.08779853 0.08798517 0.08815894 0.08832126 0.08848668 0.08864976 0.08881014
 0.08895942 0.08908804 0.0891947 0.0892741 0.08933271 0.08937276 0.08939701 0.08940837 0.08939993 0.08937097
 0.08931455 0.08922883 0.08911801 0.08898196 0.08883177 0.08866782 0.08849454 0.08831137 0.08811449 0.08790416
 0.08767918 0.0874416 0.0871963 0.08694616 0.08669816 0.08645714 0.08623235 0.0860282 0.08585478 0.08570615
 0.0855843 0.08547316 0.08536477 0.08525244 0.0851292 0.08500885 0.08489235 0.08479607 0.0847236 0.08467289
 0.08464474 0.08462034 0.08459873 0.08456132 0.0845089 0.08443943 0.08435784 0.08428546 0.08422897 0.08422162
 0.08426226 0.08437008 0.08452654 0.08471897 0.08491548 0.0850793 0.08519172 0.08521954 0.08518949 0.08509636
 0.08500291 0.08492774 0.08491476 0.0849808 0.08512086 0.08533789 0.08560861 0.08593114 0.08629505 0.0866998
 0.08713867 0.08761065 0.08810296 0.0886151 0.08913849 0.08967253 0.09021291 0.09075493 0.09128781 0.09180516
 0.09229254 0.09274832 0.09316418 0.09354528 0.0938903 0.09421242 0.09451606 0.09481636 0.09512103 0.09542967
 0.09574578 0.09605216 0.09634639 0.09662054 0.09687297 0.09711719 0.09735394 0.0976002 0.09785614 0.09812982
 0.09842037 0.09872904 0.09905276 0.09938338 0.0997171 0.1000398 0.1003555 0.100662 0.1009705 0.101293
 0.1016337 0.1020015 0.1023878 0.102792 0.1032007 0.1036105 0.1040079 0.1043895 0.1047469 0.1050776
 0.1053858 0.1056713 0.1059466 0.1062124 0.1064848 0.1067664 0.1070879 0.107454 0.1079056 0.1084439
 0.1090926 0.1098524 0.110732 0.1117425 0.1129039 0.1142225 0.1157233 0.1173717 0.1191706 0.121025
 0.1229142 0.1246778 0.1262781 0.1275183 0.1283438 0.1286589 0.1284202 0.127785 0.1267521 0.1256574
 0.1245178 0.123602 0.1229072 0.1225072 0.1223812 0.1224648 0.1227379 0.1231039 0.1235519 0.1240138
 0.1244814 0.1249182 0.1253073 0.1256207 0.1258398 0.1259377 0.1259234 0.1257861 0.1255715 0.1252882
 0.1249897 0.124689 0.1244214 0.1241943 0.1240232 0.1239109 0.1238504 0.1238415 0.1238658 0.1239237
 0.1240139 0.1241369 0.1242986 0.1244907 0.1246895 0.1248863 0.1250462 0.1251759 0.1252712 0.1253386
 0.1253868 0.125409 0.1253957 0.1253659 0.1253114 0.1253074 0.1253825 0.1255656 0.1258897 0.1262307
 0.126575 0.1268315 0.1269865 0.1270731 0.1270928 0.1271084 0.127121 0.1271669 0.1272394 0.1273253
 0.1274127 0.1274541 0.1274479 0.1273641 0.127216 0.1270127 0.1267599 0.12647 0.1261357 0.1257496
 0.1253257 0.1248611 0.1243997 0.1239553 0.123561 0.1232296 0.1229622 0.1227627 0.1226116 0.1225089
 0.1224124 0.1223194 0.122169 0.1219593 0.1216485 0.1212407 0.1207355 0.1201414 0.1194825 0.1187729
 0.1180522 0.117339 0.1166832 0.1160832 0.1155638 0.1150935 0.1146542 0.1142317 0.1138068 0.1134029
 0.1130236 0.1126903 0.1124102 0.1121863 0.1120206 0.1119068 0.1118453 0.1118169 0.1118208 0.1118527
 0.1119155 0.112044 0.1122369 0.1125103 0.1128486 0.1132035 0.1135689 0.1138987 0.1142152 0.1145329
 0.1148739 0.115273 0.1157257 0.1162421 0.1168045 0.1174069 0.118033 0.1186757 0.1193251 0.1199742
 0.1206375 0.1213144 0.1220337 0.1227996 0.1236084 0.1244599 0.1253207 0.1261905 0.1270594 0.1279288
 0.1288049 0.1296828 0.130545 0.1313944 0.1322206 0.1330497 0.1339188 0.1348475 0.1358785 0.1369982
 0.13821 0.1394974 0.1408475 0.1422699 0.1437636 0.1453462 0.1470226 0.1488 0.1506826 0.1526552
 0.1547195 0.156819 0.1589506 0.1610336 0.163065 0.1649844 0.166792 0.1684571 0.1699836 0.1713676
 0.1726134 0.1737396 0.1747226 0.1755481 0.1761524 0.1764543 0.1764272 0.1760002 0.1752529 0.1742
 0.1729401 0.1715263 0.1699521 0.1682346 0.1663006 0.1641369 0.1617248 0.1590555 0.156209 0.1531892
 0.1501364 0.1470552 0.1440478 0.1411013 0.138195 0.135311 0.1323609 0.1293708 0.1263399 0.1233426
 0.1205031 0.1178619 0.1155318 0.1134638 0.1116698 0.1100545 0.1085739 0.1071486 0.105736 0.1043116
 0.1028524 0.1014063 0.09997337 0.09862927 0.09738416 0.09624234 0.0952045</values></Ydata></AB><ScSm><Ydata ylabel="Single channel"><values byteorder="INTEL" format="FLOAT32" numvalues="1814"> 0.07395113 0.0739563 0.07402389 0.07418378 0.07440886 0.07463056 0.07478763 0.07486448 0.07487814 0.07484113
 0.0747697 0.07472372 0.07478788 0.07498877 0.07525138 0.07544903 0.07549852 0.07543155 0.07538185 0.07545863
 0.07560019 0.0755862 0.07524566 0.07465377 0.07408383 0.07375336 0.07368723 0.07387666 0.07441266 0.07523128
 0.07582947 0.07562673 0.07469681 0.07379639 0.07352589 0.07375387 0.07397469 0.07389292 0.07351101 0.07300939
 0.07279906 0.07341579 0.07499269 0.07682044 0.07760196 0.07627326 0.07276406 0.06823853 0.06466618 0.06376529
 0.06579016 0.0691859 0.07175633 0.07241549 0.07170591 0.07068806 0.06980284 0.06900945 0.06851862 0.06882507
 0.07001922 0.07133339 0.07154334 0.0700136 0.06745308 0.065411 0.06486822 0.06562589 0.06713435 0.06909086
 0.0705965 0.06967708 0.06522557 0.05945899 0.05692712 0.06018483 0.06706828 0.07281859 0.07431821 0.07182953
 0.06760329 0.0640121 0.06266765 0.06399094 0.06712601 0.07064863 0.07343049 0.07470167 0.07386984 0.07103309
 0.06747518 0.06503937 0.06499468 0.06754169 0.07177646 0.07577394 0.07746219 0.0761551 0.07300738 0.06979153
 0.06773064 0.06751435 0.0694779 0.07324961 0.07772452 0.08170709 0.08439919 0.08548081 0.085179 0.08412208
 0.08285927 0.08177343 0.08141661 0.08216649 0.08333812 0.08344947 0.08183585 0.07953444 0.07821296 0.07844368
 0.07924841 0.0792909 0.07823186 0.07650176 0.07397069 0.06992854 0.06470411 0.06009682 0.05757764 0.057167
 0.05849742 0.06138979 0.06461139 0.06580584 0.06407389 0.06161682 0.06155691 0.06460542 0.06869464 0.07149467
 0.07256691 0.07319865 0.0747446 0.07724331 0.07924709 0.07892047 0.07586569 0.07213676 0.07078131 0.07284964
 0.07638657 0.07882933 0.07970378 0.08034137 0.08155443 0.08238073 0.08109136 0.07724849 0.07280645 0.07090411
 0.07313251 0.07794002 0.08176009 0.08166039 0.0773145 0.0710526 0.06603897 0.06409246 0.06519753 0.06869644
 0.07400452 0.08000688 0.08477525 0.08664842 0.08545132 0.08237579 0.07863201 0.07435294 0.06923535 0.06435108
 0.06235686 0.06497319 0.07077373 0.07637578 0.07946257 0.07993551 0.07858875 0.07567637 0.07111829 0.06582957
 0.06215146 0.06204103 0.06472348 0.0671304 0.06710888 0.06537533 0.06394286 0.06360395 0.06364373 0.06337008
 0.06308651 0.0635508 0.06488962 0.0663098 0.066873 0.06635734 0.06528755 0.06431481 0.06363355 0.06285807
 0.06156439 0.06012087 0.05965432 0.06081404 0.06287903 0.06450583 0.06508055 0.06493446 0.06445795 0.06344248
 0.06141505 0.05855371 0.05605922 0.05526561 0.05634227 0.05818901 0.05958349 0.06005925 0.05976953 0.05903767
 0.0581467 0.05724981 0.05641444 0.0558164 0.05569474 0.05600065 0.05632998 0.0563317 0.05599026 0.05544212
 0.05472829 0.05383717 0.05287244 0.05206678 0.05161697 0.05152722 0.05163684 0.05177102 0.05180127 0.05160905
 0.05113264 0.05046394 0.04978822 0.04921522 0.04874801 0.04839276 0.04819136 0.04813278 0.04811159 0.04801027
 0.04779185 0.04749219 0.04714861 0.04676791 0.04635683 0.04595388 0.04562058 0.04539909 0.04526715 0.04514726
 0.04498944 0.04482411 0.04468897 0.04453713 0.04428581 0.04393615 0.04357989 0.0432976 0.04309783 0.04294084
 0.04277738 0.04256147 0.04225652 0.04186253 0.04145123 0.04114463 0.04102151 0.04105601 0.041163 0.04126586
 0.04130444 0.04123818 0.0410797 0.04088411 0.04068231 0.04045869 0.04020163 0.03994435 0.0397501 0.03966521
 0.03967725 0.03972019 0.03973272 0.0396985 0.03962578 0.03952683 0.03942934 0.03936073 0.03930421 0.03921136
 0.0390701 0.03892608 0.03882979 0.03878398 0.03874607 0.03867437 0.03857407 0.03849142 0.03845771 0.03845638
 0.03845376 0.03843835 0.03841781 0.03839438 0.03835402 0.03827652 0.03816148 0.03804163 0.03795359 0.03789784
 0.03784937 0.03780131 0.03777197 0.03777017 0.03777528 0.03775593 0.03770027 0.03762501 0.03755282 0.03748253
 0.0373924 0.03727299 0.03714161 0.03702104 0.03691831 0.03682686 0.03673792 0.03664645 0.03655145 0.03645192
 0.03634272 0.0362157 0.03606418 0.03588927 0.03570884 0.03555476 0.03544656 0.03536771 0.03527994 0.03516167
 0.03502472 0.03489546 0.03478839 0.03470001 0.03462369 0.03456264 0.03452343 0.03450299 0.03449371 0.03449792
 0.03452412 0.03457068 0.03462947 0.03470676 0.03482445 0.03499302 0.03519363 0.03539512 0.03558329 0.0357665
 0.03595714 0.03615629 0.03635793 0.03656179 0.03677814 0.03701708 0.0372702 0.03750814 0.03770705 0.03787644
 0.03804976 0.03824856 0.03846853 0.03869675 0.03892427 0.03914065 0.03933583 0.03951372 0.03969075 0.03987502
 0.04005782 0.04023074 0.04040118 0.04058381 0.04078538 0.04100533 0.0412446 0.0415048 0.0417828 0.04207108
 0.04235932 0.04263414 0.04288791 0.04313361 0.04340127 0.04371127 0.04405371 0.04439757 0.0447189 0.04501991
 0.04532113 0.04563579 0.04595909 0.04628741 0.04663543 0.04701789 0.04742281 0.04782132 0.04820111 0.04857406
 0.04895339 0.04933828 0.04972215 0.05010508 0.05049405 0.05089386 0.05129863 0.0516931 0.05206573 0.05242021
 0.05277232 0.05313713 0.0535202 0.05391289 0.05429067 0.05462715 0.05492291 0.05521416 0.05553637 0.05588194
 0.05621091 0.05650364 0.05678324 0.05708166 0.05740336 0.05773147 0.05805414 0.05837148 0.05868459 0.05898773
 0.05926828 0.0595122 0.05971644 0.05989815 0.06008438 0.0602921 0.06052548 0.06078749 0.06107781 0.06137895
 0.06166037 0.06190109 0.06210072 0.06227329 0.06244289 0.06263892 0.06287776 0.06314848 0.06342398 0.06368003
 0.06390256 0.06409641 0.06429677 0.06455053 0.06487147 0.06523038 0.06559937 0.06598324 0.066393 0.06681201
 0.06721547 0.06761097 0.06802949 0.06847434 0.06890431 0.06927696 0.06958821 0.06985915 0.0701087 0.07036007
 0.07065354 0.0710196 0.07144274 0.07187319 0.07227263 0.07263277 0.07295598 0.07323872 0.07347807 0.07368197
 0.07386504 0.07403807 0.07420621 0.07437699 0.07456215 0.0747629 0.07495402 0.07509149 0.07513864 0.07507834
 0.07490158 0.07460028 0.07418231 0.07368097 0.07313003 0.07252773 0.0718378 0.0710271 0.0700908 0.06904071
 0.06788501 0.06663013 0.06529866 0.06393953 0.06261951 0.06140359 0.06034693 0.05951377 0.0589992 0.05890091
 0.05923298 0.05985444 0.06049234 0.06085341 0.06074044 0.06010367 0.0590225 0.05765093 0.05615355 0.05465019
 0.05318493 0.05172632 0.05019664 0.04852705 0.0467202 0.04487845 0.04318354 0.04188094 0.04130737 0.04187594
 0.04389937 0.04732133 0.05162127 0.05604627 0.05999304 0.06322294 0.06580216 0.06791957 0.06975248 0.07141242
 0.0729389 0.07432871 0.07557938 0.07670396 0.07770932 0.0785767 0.07926881 0.07975277 0.08002432 0.08012241
 0.08011849 0.08008622 0.08007792 0.08011402 0.08016866 0.08015877 0.07996353 0.07946689 0.07858142 0.07722701
 0.07530454 0.07277761 0.06992834 0.06759098 0.06696498 0.06891669 0.07331982 0.07910152 0.08495727 0.09003316
 0.09406886 0.0971534 0.09948678 0.1012821 0.1027248 0.1039429 0.105007 0.1059564 0.1068211 0.1076262
 0.1083865 0.1091058 0.1097863 0.1104366 0.1110659 0.1116785 0.1122778 0.1128708 0.1134644 0.1140595
 0.1146507 0.1152314 0.1158 0.1163638 0.11693 0.1174921 0.1180356 0.1185559 0.1190637 0.1195727
 0.1200882 0.1206054 0.1211106 0.1215887 0.1220348 0.1224599 0.1228806 0.1233067 0.1237385 0.1241705
 0.1245951 0.1250055 0.1254008 0.1257888 0.1261807 0.1265795 0.1269746 0.1273519 0.1277093 0.1280583
 0.1284128 0.1287768 0.1291412 0.1294947 0.1298391 0.130194 0.1305813 0.1310037 0.1314407 0.1318657
 0.1322639 0.1326386 0.1330048 0.1333771 0.1337632 0.1341626 0.1345685 0.1349712 0.1353649 0.1357532
 0.136144 0.1365385 0.1369288 0.1373075 0.1376747 0.1380363 0.138397 0.1387586 0.1391238 0.1394981
 0.1398853 0.1402807 0.1406719 0.1410474 0.1414036 0.1417445 0.1420777 0.1424127 0.1427573 0.1431133
 0.143476 0.143838 0.1441933 0.14454 0.1448811 0.1452224 0.1455672 0.1459171 0.146274 0.1466377
 0.1470007 0.1473535 0.147694 0.1480279 0.1483607 0.1486946 0.1490324 0.1493765 0.1497243 0.1500698
 0.150409 0.1507421 0.1510716 0.1513994 0.1517265 0.1520542 0.1523844 0.1527178 0.153052 0.1533828
 0.1537083 0.1540303 0.1543509 0.15467 0.1549866 0.1553028 0.1556244 0.1559546 0.1562893 0.1566208
 0.1569464 0.1572672 0.1575838 0.1578938 0.1581955 0.1584894 0.1587785 0.1590655 0.159353 0.1596449
 0.1599446 0.1602473 0.1605393 0.1608119 0.1610732 0.1613396 0.1616205 0.1619124 0.1622054 0.1624934
 0.1627805 0.1630761 0.163383 0.163693 0.1639945 0.16428 0.1645489 0.164809 0.1650713 0.1653401
 0.165613 0.1658897 0.1661722 0.166458 0.1667413 0.1670183 0.1672869 0.1675469 0.1678026 0.1680599
 0.1683203 0.1685836 0.1688524 0.1691283 0.1694088 0.1696902 0.1699692 0.1702428 0.1705127 0.1707855
 0.1710662 0.1713555 0.1716504 0.1719434 0.172227 0.1725051 0.1727899 0.1730854 0.1733855 0.1736862
 0.1739866 0.1742824 0.1745734 0.1748682 0.1751722 0.1754795 0.1757821 0.1760774 0.1763689 0.1766643
 0.1769676 0.1772726 0.1775704 0.1778609 0.1781473 0.1784304 0.1787137 0.1790017 0.17929 0.1795727
 0.1798541 0.180142 0.1804386 0.180745 0.1810615 0.1813796 0.1816921 0.1820041 0.1823201 0.1826338
 0.1829423 0.1832528 0.1835694 0.1838891 0.1842068 0.1845149 0.1848092 0.1850997 0.1853957 0.1856797
 0.1859006 0.1859398 0.1855109 0.1840488 0.1806925 0.17445 0.1645916 0.1511102 0.1348824 0.1173551
 0.1000112 0.08398318 0.06993988 0.05817636 0.04876885 0.04166863 0.03674528 0.03387208 0.03303644 0.03446374
 0.03873846 0.04645108 0.05689941 0.06695132 0.07226863 0.07072811 0.06444788 0.05785879 0.05402869 0.05318197
 0.05401314 0.05539962 0.05697954 0.05895349 0.0616729 0.06523623 0.06947003 0.07436523 0.08029006 0.08752166
 0.09568489 0.1039123 0.1115941 0.1188532 0.1262481 0.1340956 0.1421372 0.1497937 0.1566249 0.1625477
 0.1677436 0.1724565 0.1768558 0.1810217 0.1849961 0.1887785 0.1922404 0.195093 0.1970277 0.1979493
 0.1980867 0.1978666 0.1976657 0.1976594 0.1978591 0.1982281 0.1987398 0.1993765 0.2001221 0.2009585
 0.2018556 0.2027764 0.2036928 0.2045878 0.2054447 0.2062473 0.2069888 0.2076711 0.2082997 0.2088813
 0.209421 0.209924 0.2103982 0.2108504 0.2112788 0.2116805 0.2120626 0.2124329 0.2127875 0.2131173
 0.2134221 0.2137111 0.213994 0.2142771 0.214559 0.2148303 0.2150856 0.2153342 0.215591 0.2158608
 0.216138 0.2164154 0.2166879 0.2169531 0.2172149 0.2174794 0.2177479 0.2180127 0.218263 0.2184948
 0.2187191 0.2189539 0.2192058 0.219463 0.2197117 0.2199511 0.220191 0.220441 0.2207014 0.2209633
 0.2212203 0.2214802 0.221753 0.2220325 0.2223039 0.2225668 0.2228336 0.2231081 0.2233836 0.2236513
 0.2239011 0.2241233 0.2243224 0.2245202 0.224741 0.2249969 0.2252794 0.2255634 0.2258272 0.2260724
 0.2263153 0.226564 0.2268094 0.2270381 0.2272531 0.2274836 0.2277617 0.2280808 0.2283979 0.228688
 0.2289656 0.2292486 0.2295379 0.2298359 0.2301432 0.2304307 0.2306565 0.2308265 0.2310144 0.2313044
 0.2317073 0.2321429 0.2325205 0.2328268 0.2331127 0.233421 0.2337598 0.2341021 0.2343658 0.2344599
 0.2344279 0.2344832 0.2348174 0.2354086 0.2360697 0.2366404 0.2370846 0.2374488 0.2377806 0.2380786
 0.2382924 0.2383782 0.2383829 0.2384695 0.2388054 0.2393899 0.2400391 0.2405702 0.2409457 0.2412203
 0.2414466 0.2416582 0.2418182 0.2417642 0.241382 0.2408992 0.2408203 0.2414377 0.2425041 0.2434955
 0.2441274 0.2445024 0.2448202 0.2451303 0.24538 0.2454652 0.2451285 0.244106 0.2426497 0.2416726
 0.2419994 0.2435326 0.2454062 0.2468537 0.2476937 0.248125 0.2483854 0.2486003 0.2486933 0.2483862
 0.2475065 0.2464098 0.2458967 0.246476 0.2477981 0.2490312 0.2497052 0.2499607 0.250123 0.2503359
 0.2504646 0.2500347 0.2484993 0.2460471 0.2440235 0.2439831 0.2461586 0.2491765 0.2514259 0.2524492
 0.2527999 0.2528467 0.252232 0.250509 0.2478081 0.244779 0.2423843 0.2417599 0.2434639 0.246543
 0.2490715 0.2500481 0.2502445 0.2509332 0.252367 0.2537917 0.2544329 0.2540953 0.2530221 0.2514676
 0.249575 0.2477708 0.2470121 0.2481086 0.2507299 0.2535213 0.255363 0.2562213 0.2565461 0.2559577
 0.2529932 0.2468639 0.2396514 0.2357358 0.2379294 0.2445305 0.2511525 0.2550371 0.2565628 0.2571913
 0.257515 0.2570846 0.2546662 0.248924 0.2405199 0.2334225 0.2322209 0.2375909 0.2455297 0.2510934
 0.2517805 0.2477977 0.2411445 0.2350087 0.2324757 0.2346539 0.2401878 0.2466068 0.2518115 0.2546203
 0.2547488 0.2527218 0.2498321 0.2478062 0.247561 0.2478515 0.2462075 0.2420505 0.2376602 0.2348228
 0.2320621 0.2273721 0.2226107 0.2222469 0.2275455 0.2344576 0.2381685 0.2379623 0.2363598 0.2345484
 0.2303906 0.2215407 0.209897 0.2016459 0.2018244 0.2091082 0.2170073 0.2201865 0.2186721 0.2159729
 0.2143851 0.2127047 0.2080488 0.1996658 0.190787 0.1859134 0.1860752 0.1879237 0.1877041 0.1843175
 0.1780687 0.1693314 0.1604619 0.1565621 0.1611597 0.1718147 0.1820304 0.1866194 0.1836305 0.1731277
 0.1576761 0.1436177 0.1380105 0.1423952 0.150977 0.1559792 0.1538112 0.1456642 0.1341237 0.1213394
 0.1099875 0.1035892 0.104342 0.1108603 0.1184767 0.1217251 0.1173413 0.1066466 0.0954568 0.08990382
 0.09104237 0.09429322 0.0946223 0.09107527 0.08602641 0.08195657 0.07994702 0.0797356 0.08007921 0.07983115
 0.07886282 0.07701016 0.07284585 0.06551932 0.0574444 0.05277194 0.05302359 0.05627864 0.06059426 0.06567729
 0.07066477 0.07299218 0.07130843 0.06813206 0.06774142 0.07165954 0.07732649 0.08117704 0.08216368 0.08197566
 0.08239889 0.08332664 0.0837426 0.08398168 0.08577634 0.08983704 0.09453759 0.09769671 0.09883648 0.09896849
 0.09892076 0.09874293 0.09826782 0.09745301 0.09633745 0.09510271 0.09401841 0.09312674 0.09220271 0.09107786
 0.08962172 0.08729602 0.08331174 0.07780583 0.07253686 0.06953764 0.06901926 0.06948786 0.06993181 0.07044407
 0.0702414 0.0670473 0.06011157 0.05271787 0.04979779 0.05317982 0.0602525 0.06695437 0.07085734 0.07134549
 0.06841968 0.06294771 0.05789895 0.05744071 0.06349947 0.07388782 0.08467462 0.09356272 0.100075 0.1036803
 0.1035912 0.1003849 0.09662375 0.09545039 0.09874752 0.10626 0.1155109 0.1222459 0.1225086 0.116707
 0.111656 0.1155166 0.128985 0.1438442 0.1521642 0.1544247 0.1561012 0.1591422 0.1610659 0.161223
 0.1632044 0.1698993 0.1791501 0.185788 0.1860768 0.1791215 0.1663381 0.1518137 0.1414414 0.138617
 0.1410933 0.1440025 0.1448054 0.1430875 0.1378121 0.1290665 0.121551 0.1215582 0.1296855 0.139873
 0.146424 0.1492725 0.1514821 0.1539085 0.1541067 0.1499844 0.1432393 0.1382989 0.1378684 0.1404721
 0.1427734 0.143011 0.1411137 0.136828 0.129853 0.1217346 0.1158362 0.1145035 0.1167745 0.1194065
 0.1198766 0.1180238 0.1152138 0.1127297 0.1110096 0.1097662 0.1086794 0.108318 0.1100823 0.1145687
 0.1203585 0.1253582 0.1291552 0.1331162 0.1382094 0.1436041 0.1476113 0.1494927 0.1501969 0.1515803
 0.1548902 0.1596903 0.1641223 0.1664413 0.1666409 0.1666155 0.1684371 0.1723793 0.1768724 0.1803
 0.1823439 0.1836182 0.1846876 0.1856181 0.1859528 0.1850642 0.183086 0.1814798 0.1820041 0.1849501
 0.1888431 0.1919448 0.1936388 0.194322 0.194448 0.1940188 0.1928828 0.191235 0.189662 0.1887224
 0.1885855 0.1890675 0.1898739 0.1907536 0.1915447 0.1921876 0.1926916 0.1930743 0.1933582 0.1936033
 0.1938714 0.1941501 0.194376 0.1945551 0.1947907 0.1951426 0.1955165 0.1957577 0.1958085 0.1956894
 0.1953682 0.194757 0.1938322 0.1926539 0.1912466 0.1895644 0.1876726 0.1859349 0.1849068 0.1849468
 0.1859218 0.1873153 0.1886055 0.1895246 0.1900405 0.1902303 0.1902156 0.1901475 0.1901691 0.1903619
 0.1907231 0.1911976 0.1917259 0.1922625 0.1927737 0.1932559 0.1937668 0.1944084 0.1952494 0.1962579
 0.1973134 0.1982824 0.1990903 0.1997281 0.2002117 0.2005534 0.2007702 0.2008927 0.2009461 0.2009324
 0.2008429 0.2006739 0.2004125 0.2000112 0.1994046 0.1985612 0.1974966 0.1962221 0.194716 0.1929726
 0.1910475 0.1890206 0.1869372 0.1848153 0.182675 0.180526 0.1783431 0.1760876 0.1737443 0.171327
 0.168861 0.1663704 0.1638719 0.1613733 0.1588741 0.1563629 0.1538097 0.1511685 0.1483943 0.1454565
 0.1423341 0.138999 0.1354173 0.1315724 0.1274823 0.1231923 0.1187641 0.1142814 0.1098561 0.1056168
 0.1016864 0.09815793 0.09507643 0.09244379 0.09024465 0.08846024 0.08705951 0.08599846 0.08523828 0.0847591
 0.08455653 0.08462888 0.08495957 0.08550555 0.08620807 0.08701487 0.08788924 0.08881135 0.08978906 0.0908657
 0.09210473 0.09355742 0.09523487 0.09710625 0.09912723 0.1012662 0.1034921 0.1057498 0.1079739 0.1101274
 0.1122091 0.1142276 0.1161785 0.1180411 0.1197852 0.1213849 0.1228296 0.1241274 0.125306 0.1264104
 0.1274849 0.1285524 0.1296132 0.1306614 0.131689 0.1326809 0.1336211 0.1345106 0.135375 0.136253
 0.1371769 0.1381743 0.1392891 0.1405838 0.1421089 0.143883 0.1459009 0.1481302 0.1504888 0.1528497
 0.1550857 0.1571024 0.1588422 0.1602797 0.1614171 0.162271 0.1628641 0.1632299 0.1634224 0.1635211
 0.1636257 0.1638296 0.1641897 0.1647213 0.1654092 0.1662117 0.1670761 0.1679688 0.1688767 0.1697733
 0.1706163 0.1713957 0.172156 0.1729528 0.173802 0.1746718 0.1754989 0.1762074 0.1767352 0.1770673
 0.1772416 0.1773069 0.1772659 0.1770705 0.1766785 0.1760979 0.1753645 0.1745003 0.1735159 0.1724396
 0.1713161 0.1701776 0.1690241 0.1678308 0.1665702 0.1652246 0.1637798 0.1622184 0.1605378 0.1587712
 0.1569786 0.1552143 0.1535004 0.1518226 0.1501474 0.1484532 0.146751 0.1450721 0.1434415 0.1418695
 0.1403596 0.138913 0.1375292 0.1362093 0.1349628 0.1338151 0.1328031 0.1319533 0.131263 0.1307083
 0.1302609 0.1298952 0.1295962 0.1293752 0.1292559 0.1292334 0.1292598 0.1292806 0.1292711 0.1292375
 0.1292001 0.1291831 0.1292034 0.1292637 0.1293516 0.1294364 0.1294626 0.1293512 0.1290172 0.1283978
 0.1274767 0.126287 0.1248944 0.12339 0.121893 0.1205272 0.1193743 0.1184545 0.1177422 0.1171799
 0.1166999 0.1162747 0.1159479 0.1157914 0.1158283 0.1159928 0.1161515 0.1161777 0.1160459 0.1158614
 0.1157786 0.1158848 0.1161574 0.116505 0.1168376 0.1171098 0.1173105 0.1174264 0.1174427 0.1173708
 0.1172408 0.1170668 0.1168446 0.1165697 0.1162386 0.1158473 0.1154017 0.1149087 0.114361 0.1137475
 0.1130606 0.1122905 0.1114377 0.1105244 0.109555 0.1085017 0.1073919 0.1063794 0.1056657 0.105363
 0.1054379 0.1057403 0.1060815 0.106329 0.1064064 0.106203 0.1056385 0.1049453 0.1047522 0.1056475
 0.1076036 0.1099367 0.1118636 0.1130241 0.113476 0.1133809 0.1128469 0.1119625 0.1107858 0.1093096
 0.1075358 0.1055344 0.1033852 0.101162 0.09899392 0.09702525 0.09532157 0.09388828 0.09272854 0.09189796
 0.09152238 0.09133263 0.08990936 0.08543031 0.07845582 0.07318771 0.07394972 0.08033678 0.0874804 0.09119463
 0.09131924 0.09004711 0.0889191 0.08819541 0.0878205 0.08790883 0.08855754 0.08965345 0.09088106 0.09190592
 0.09258702 0.09295256 0.09297162 0.09238394 0.09066476 0.08719553 0.08175895 0.07499346 0.06818461 0.06251661
 0.05854658 0.05621184 0.05506596 0.05453856 0.05422484 0.05407503 0.05431152 0.05515606 0.05663718 0.05863311
 0.0610055 0.06358209 0.06605732 0.06810168 0.06962071 0.07076882 0.07167664 0.07229179 0.07250143 0.07228734
 0.07173511 0.07097439 0.07013001 0.06927478 0.06839137 0.067394 0.06624186 0.06505595 0.06406213 0.06337475
 0.06290001 0.0624775 0.06202452 0.06152056 0.06096221 0.06037439 0.05980503 0.05930942 0.05896405 0.05883378
 0.05889372 0.05904731 0.05923297 0.05946179 0.05976573 0.06013569 0.06048141 0.0606939 0.06082458 0.06109779
 0.06159522 0.06204892 0.06215607 0.06201581 0.06204634 0.06251191 0.06329226 0.06407917 0.06465185 0.06497286
 0.06516594 0.06546271 0.06605476 0.0668736</values></Ydata></ScSm><ScRf><Ydata ylabel="Single channel"><values byteorder="INTEL" format="FLOAT32" numvalues="1820"> 0.060637 0.0607968 0.06089242 0.06092067 0.06090982 0.06091461 0.06098885 0.061148 0.06135555 0.06154546
 0.06166597 0.06171115 0.06170644 0.06166893 0.06160759 0.06156287 0.06160323 0.06175624 0.06196233 0.0621147
 0.06214655 0.06209091 0.0620596 0.06213417 0.06225432 0.0622381 0.06195121 0.06146097 0.06099248 0.06072187
 0.06066745 0.06082259 0.06126589 0.06194793 0.06245241 0.06229308 0.06152324 0.06076719 0.06052843 0.06070693
 0.06088694 0.06081969 0.06050214 0.06008247 0.05990287 0.0604099 0.06171721 0.06323831 0.06389253 0.06278726
 0.05985937 0.05608172 0.05310049 0.05234794 0.05403544 0.05687144 0.05903049 0.05960461 0.05903719 0.05820673
 0.05748019 0.05681967 0.05639227 0.05660919 0.05756048 0.05862586 0.0587924 0.05752342 0.05539908 0.05370401
 0.05325349 0.05388285 0.05513647 0.0567635 0.05801708 0.05725805 0.05356727 0.04878418 0.04668681 0.04940163
 0.05513541 0.05992919 0.06118069 0.0591053 0.05558776 0.05261688 0.05153024 0.05265541 0.0552599 0.05815999
 0.06043645 0.06147034 0.06077994 0.05844189 0.05550673 0.05349151 0.0534488 0.05555277 0.05905954 0.06237417
 0.06377733 0.06269571 0.06008228 0.05740942 0.05570085 0.05553636 0.05719489 0.06036276 0.06411339 0.06744471
 0.06969023 0.07058794 0.07033534 0.06946608 0.06844294 0.06757483 0.06730013 0.06792179 0.06887926 0.06895664
 0.0676087 0.0656949 0.06459799 0.06479596 0.06548017 0.0655366 0.06467218 0.06323791 0.06112898 0.05776081
 0.05341024 0.04957572 0.04748046 0.04714266 0.04826996 0.05073157 0.05349589 0.05456427 0.05315205 0.05108941
 0.05100215 0.05351226 0.05691352 0.05926394 0.06018774 0.0607503 0.06208012 0.06420916 0.06592426 0.06568222
 0.06314179 0.06002651 0.05890906 0.06068762 0.06372184 0.06584938 0.06666467 0.06728569 0.06839667 0.06918807
 0.06820047 0.06506099 0.06141962 0.05992819 0.06192704 0.06610261 0.06944075 0.06945305 0.06585057 0.06061672
 0.05646572 0.05496338 0.056105 0.05934828 0.06421332 0.06973752 0.07422903 0.07621051 0.07548815 0.07307696
 0.07004008 0.06650025 0.06218705 0.05807793 0.05661036 0.05938464 0.06512131 0.07072518 0.0740473 0.07496011
 0.07415822 0.07183594 0.06789118 0.06321733 0.06012364 0.06053858 0.06368453 0.06652068 0.066928 0.06564423
 0.06469488 0.0648711 0.06543292 0.06566918 0.06591283 0.06697538 0.06898761 0.07109066 0.072267 0.07226378
 0.07164103 0.07111922 0.07092258 0.07061374 0.06971381 0.06866202 0.06875997 0.07074188 0.07376011 0.07625505
 0.07751895 0.0779518 0.07801386 0.07742133 0.07555529 0.07261918 0.07011797 0.06974204 0.07173011 0.07471699
 0.07715581 0.07843426 0.07872956 0.07844606 0.07794124 0.07741432 0.07696418 0.07683317 0.07734358 0.07843088
 0.07954398 0.08019756 0.08036992 0.08024547 0.0798592 0.07917883 0.07836968 0.07779698 0.07775947 0.07826476
 0.07907567 0.079923 0.08060034 0.08092239 0.08078948 0.08033395 0.0798462 0.07951029 0.0793342 0.0793303
 0.07958157 0.08007838 0.08063363 0.0810388 0.08123121 0.08126901 0.08121265 0.08108041 0.0808886 0.08070227
 0.08063649 0.08077358 0.08105982 0.08134034 0.08153883 0.08173367 0.08199292 0.08221589 0.08224056 0.08206271
 0.08184991 0.08175745 0.08180437 0.08191757 0.08201545 0.0820178 0.08183844 0.08146328 0.08104825 0.08085653
 0.08104677 0.08156107 0.08222267 0.08286123 0.08333993 0.08358379 0.08363722 0.08361806 0.08357926 0.08347305
 0.08326578 0.08303881 0.08295482 0.083131 0.08353706 0.08401641 0.08441189 0.08465721 0.08476861 0.08481675
 0.08490609 0.0850921 0.08529527 0.08537296 0.08529863 0.08520481 0.08522622 0.08534867 0.08543983 0.0854085
 0.08531138 0.08529345 0.08543125 0.08566099 0.08586776 0.08601473 0.08616227 0.08636835 0.08658699 0.0866867
 0.08659223 0.08638717 0.0862292 0.08618053 0.08618698 0.08621432 0.08631376 0.08651986 0.08675543 0.08689816
 0.08691832 0.08690221 0.08693676 0.08700518 0.08701381 0.08690339 0.08671167 0.08653598 0.08645628 0.08648916
 0.08658911 0.08668098 0.08670427 0.0866456 0.08653748 0.08642463 0.08633155 0.08627155 0.08628134 0.08641182
 0.08665306 0.08688407 0.08694382 0.08677673 0.08649595 0.08628449 0.08622906 0.08625493 0.08621848 0.08604831
 0.0857911 0.0855419 0.08535638 0.08522807 0.08512405 0.08502985 0.08497038 0.08499424 0.0851195 0.08527973
 0.08534415 0.0852255 0.08496667 0.08469948 0.08452687 0.08446467 0.08447061 0.08449053 0.08449447 0.08450196
 0.08455318 0.08463396 0.08466709 0.08460572 0.08449808 0.08443803 0.08448783 0.08465305 0.08487534 0.0850402
 0.08505515 0.0849465 0.08483775 0.08482029 0.08488218 0.08496596 0.08504643 0.08513117 0.0852222 0.08531374
 0.08542022 0.0855786 0.08581124 0.0860924 0.08635663 0.08654424 0.08664864 0.08672961 0.08687378 0.08712619
 0.08745191 0.08776674 0.08800949 0.08818735 0.08835283 0.08854097 0.08874201 0.08894107 0.08916182 0.08944164
 0.08977348 0.09010597 0.09040192 0.09067091 0.09094334 0.09123413 0.09153853 0.09185422 0.09220101 0.09260436
 0.09304389 0.09343469 0.09369357 0.0938266 0.09393324 0.09412652 0.09445243 0.09485713 0.09521368 0.09541802
 0.09549353 0.09557621 0.0957675 0.09603246 0.09627964 0.09650636 0.09680432 0.09722516 0.09769396 0.09807769
 0.0983153 0.09846275 0.09861822 0.09881672 0.09900473 0.09911965 0.09917662 0.0992512 0.09938594 0.09956101
 0.09976734 0.1000528 0.1004533 0.1009138 0.101325 0.1016218 0.1018157 0.1019499 0.1020566 0.1021429
 0.1021945 0.1022036 0.1022045 0.1022504 0.1023453 0.1024344 0.1024797 0.1025116 0.1025867 0.1027286
 0.1029352 0.1032076 0.1035315 0.1038551 0.1041348 0.1044013 0.1047271 0.1051105 0.1054403 0.1056121
 0.1056457 0.1056422 0.105659 0.1056896 0.1057473 0.10589 0.1061464 0.106473 0.1068089 0.1071388
 0.1074815 0.1078382 0.108169 0.1084126 0.1085274 0.1085256 0.1084764 0.1084742 0.108591 0.1088389
 0.1091662 0.1094952 0.1097711 0.1099707 0.1100728 0.1100617 0.1099803 0.109941 0.1100344 0.1102276
 0.1103851 0.1103871 0.1102018 0.1098513 0.1093528 0.1087227 0.1080154 0.1073277 0.1067553 0.1063514
 0.1061326 0.1061154 0.1063316 0.1067894 0.1074241 0.1081145 0.1087534 0.1092738 0.1096037 0.1096454
 0.1093424 0.1087501 0.1080093 0.1072595 0.1065823 0.1059904 0.1054405 0.1048891 0.1043769 0.104056
 0.1041134 0.1046639 0.1056993 0.1070922 0.1086286 0.1100772 0.1112864 0.1122414 0.1130278 0.1137383
 0.1144169 0.1150773 0.1157372 0.1164026 0.1170363 0.1175862 0.1180488 0.1184704 0.1188848 0.1192803
 0.1196261 0.1199069 0.1201333 0.1203376 0.120546 0.1207341 0.1208355 0.120815 0.1207118 0.1205899
 0.1204651 0.1202989 0.1200445 0.1196849 0.1192557 0.1188672 0.1186956 0.1189151 0.119594 0.1206463
 0.121894 0.1231858 0.1244405 0.1255902 0.1265384 0.1272162 0.1276528 0.1279539 0.1282198 0.1284996
 0.1288034 0.1291218 0.1294354 0.1297275 0.1299985 0.1302699 0.1305717 0.130916 0.1312752 0.1315953
 0.1318473 0.1320644 0.1323185 0.1326521 0.133037 0.1334077 0.1337355 0.1340525 0.1343878 0.1347082
 0.1349524 0.135115 0.13526 0.1354569 0.135733 0.136077 0.1364487 0.1367852 0.1370394 0.1372236
 0.1373946 0.1375956 0.1378289 0.1380796 0.138337 0.1385908 0.1388314 0.1390679 0.1393316 0.1396387
 0.1399542 0.1402122 0.140382 0.1405034 0.1406477 0.1408504 0.1410878 0.1413143 0.1415147 0.1417229
 0.1419865 0.1423085 0.142629 0.1428751 0.1430274 0.143131 0.1432497 0.1434164 0.1436265 0.1438565
 0.1440846 0.1442977 0.1444946 0.1446856 0.1448849 0.1450981 0.1453171 0.1455308 0.1457372 0.145944
 0.146157 0.1463726 0.1465883 0.1468173 0.1470805 0.1473762 0.1476665 0.1479065 0.1480829 0.1482158
 0.1483351 0.148464 0.1486169 0.1487958 0.1489907 0.1491895 0.149387 0.1495822 0.1497773 0.1499794
 0.1501965 0.150427 0.1506583 0.1508774 0.151085 0.1512958 0.151523 0.1517621 0.1519935 0.1522015
 0.1523892 0.1525719 0.152761 0.1529548 0.1531449 0.1533274 0.1535071 0.1536907 0.15388 0.1540731
 0.1542686 0.1544659 0.1546639 0.1548612 0.1550567 0.1552495 0.1554405 0.1556335 0.1558308 0.156031
 0.1562305 0.1564248 0.1566091 0.1567838 0.156958 0.1571446 0.157351 0.1575734 0.1577989 0.1580134
 0.1582121 0.1584015 0.1585913 0.1587849 0.1589796 0.159172 0.1593637 0.159561 0.159768 0.1599788
 0.1601835 0.1603803 0.1605779 0.1607841 0.1609983 0.1612143 0.1614259 0.1616313 0.1618335 0.1620386
 0.1622512 0.1624728 0.1627011 0.1629273 0.1631432 0.1633505 0.1635599 0.1637797 0.1640057 0.1642224
 0.1644138 0.1645797 0.1647373 0.164904 0.1650824 0.1652656 0.165448 0.1656269 0.1658019 0.1659779
 0.1661632 0.1663624 0.1665727 0.1667849 0.1669892 0.1671847 0.1673817 0.1675887 0.167801 0.1680083
 0.168205 0.1683937 0.1685833 0.1687842 0.1689982 0.169218 0.1694382 0.1696582 0.1698759 0.1700884
 0.1702977 0.1705058 0.1707099 0.1709101 0.1711105 0.1713127 0.1715167 0.1717259 0.1719419 0.1721608
 0.1723782 0.1725902 0.1727914 0.1729821 0.1731748 0.1733815 0.1736032 0.1738334 0.174062 0.1742778
 0.1744827 0.1746919 0.1749113 0.1751308 0.1753468 0.1755674 0.175793 0.1760142 0.176226 0.1764294
 0.176627 0.1768261 0.1770267 0.1772074 0.1773228 0.1772688 0.1767766 0.1753013 0.1720073 0.1659377
 0.1563978 0.1433938 0.127778 0.1109398 0.09429458 0.07892407 0.06547497 0.0542355 0.04526727 0.03849938
 0.0337939 0.03103791 0.03023097 0.03158237 0.03563004 0.04292427 0.05280464 0.06231333 0.06734417 0.06588358
 0.0599352 0.05369193 0.05005013 0.04921241 0.04994381 0.05119596 0.05264146 0.0544742 0.05702096 0.06036833
 0.06435077 0.0689611 0.07454646 0.08136325 0.08905062 0.09678568 0.1039925 0.1107898 0.1177112 0.1250633
 0.1326051 0.1397843 0.1461744 0.1516895 0.1565048 0.1608639 0.1649387 0.1688068 0.1724975 0.1759971
 0.1791784 0.1817745 0.183506 0.1842905 0.1843428 0.1840596 0.183791 0.1837028 0.1838117 0.1840886
 0.184508 0.1850483 0.1856905 0.1864161 0.1871997 0.1880126 0.1888325 0.1896382 0.1904064 0.1911215
 0.1917804 0.1923829 0.1929301 0.1934312 0.1938962 0.1943259 0.1947199 0.1950886 0.1954469 0.1958007
 0.196142 0.196457 0.196739 0.196997 0.1972457 0.1974899 0.1977237 0.1979424 0.1981465 0.1983416
 0.1985383 0.1987454 0.1989614 0.1991781 0.1993925 0.1996076 0.199823 0.2000318 0.2002275 0.2004093
 0.200583 0.200759 0.2009444 0.2011384 0.2013352 0.2015315 0.2017266 0.2019197 0.2021104 0.2023012
 0.2024974 0.202702 0.2029094 0.203107 0.2032919 0.2034801 0.2036912 0.2039265 0.2041701 0.204405
 0.2046241 0.2048286 0.2050266 0.2052253 0.2054212 0.2056027 0.2057644 0.2059178 0.2060865 0.2062919
 0.206533 0.2067827 0.2070106 0.2072085 0.2073889 0.2075649 0.2077391 0.2079064 0.208068 0.2082468
 0.2084724 0.2087407 0.2090116 0.2092559 0.2094817 0.209708 0.2099417 0.2101844 0.2104276 0.2106389
 0.2107876 0.210896 0.2110425 0.2112996 0.2116628 0.2120452 0.2123554 0.2125803 0.2127766 0.2130016
 0.2132746 0.2135639 0.2137749 0.2138131 0.2137264 0.2137287 0.2140056 0.2145284 0.2151093 0.215596
 0.2159633 0.2162592 0.2165212 0.2167401 0.2168728 0.2168911 0.216846 0.2168845 0.2171525 0.217646
 0.2181991 0.218651 0.2189738 0.2192164 0.2194151 0.2195857 0.219691 0.2195935 0.2192024 0.2187301
 0.2186336 0.2191718 0.2201112 0.2209739 0.2215112 0.221828 0.2221076 0.2223902 0.2226267 0.2227218
 0.2224301 0.2214985 0.2201599 0.2192622 0.2195636 0.2209701 0.2226929 0.2240415 0.2248493 0.2252851
 0.2255564 0.2257768 0.2258747 0.2255938 0.2247835 0.2237838 0.2233367 0.2239034 0.2251496 0.2263072
 0.2269569 0.227243 0.2274626 0.2277322 0.2279156 0.2275719 0.2261965 0.2239669 0.2221313 0.2221291
 0.2241781 0.2270146 0.2291518 0.2301598 0.2305433 0.2306428 0.230131 0.2285987 0.22617 0.2234431
 0.2213 0.2207899 0.2224382 0.2253714 0.227809 0.2288197 0.2291086 0.2298474 0.2312759 0.2327087
 0.233432 0.2332561 0.232392 0.2310614 0.2293921 0.2277911 0.2271626 0.2282679 0.230807 0.2335239
 0.2353659 0.2362851 0.2367015 0.236273 0.2336346 0.2280406 0.2214298 0.2178925 0.2200544 0.2263297
 0.2326267 0.2363746 0.2379341 0.238673 0.2391329 0.238882 0.2367697 0.2315517 0.2238442 0.2173645
 0.21642 0.221644 0.2292791 0.2346905 0.2355238 0.2319501 0.2258395 0.2202098 0.2179888 0.2202335
 0.2256717 0.2319641 0.2371121 0.2400003 0.2403708 0.2387111 0.2362324 0.2345836 0.2346467 0.2352214
 0.23394 0.2302637 0.2263873 0.2240249 0.2217681 0.2176983 0.213605 0.2137992 0.2195042 0.2267938
 0.2309988 0.2314402 0.2305757 0.2295347 0.2261875 0.2182087 0.2074724 0.2001394 0.2012693 0.2095672
 0.2185423 0.2228695 0.2226237 0.221368 0.2214035 0.2214217 0.2183408 0.2113219 0.2038162 0.2006657
 0.2029495 0.207021 0.2088293 0.2071473 0.2021456 0.1941033 0.1857563 0.1831334 0.1904716 0.2050337
 0.2192509 0.2269463 0.2255884 0.2149527 0.1980227 0.1828071 0.1784298 0.1869497 0.200856 0.2099804
 0.2095559 0.2010425 0.1877872 0.1727597 0.1599543 0.1547942 0.1608804 0.1763484 0.1938904 0.2043609
 0.2018233 0.1882013 0.1737503 0.1696793 0.1779082 0.1897073 0.1954657 0.1934161 0.1882643 0.1851515
 0.1866982 0.192525 0.1996488 0.2052907 0.2090926 0.2099441 0.2029865 0.1854461 0.1643536 0.1519114
 0.1528221 0.1618772 0.1737154 0.1876417 0.201274 0.2072301 0.2014474 0.1908698 0.1875405 0.195818
 0.2086447 0.2161873 0.2155759 0.2114402 0.2087576 0.2075471 0.205347 0.2029585 0.204652 0.2122802
 0.2220493 0.2287537 0.2311902 0.2316997 0.2321948 0.2326992 0.2326848 0.2319562 0.230585 0.2290321
 0.2279991 0.2276406 0.2274191 0.2269112 0.2257953 0.2226385 0.215195 0.2035698 0.1922436 0.1865265
 0.1869212 0.1894891 0.1917069 0.1939338 0.1939337 0.1853431 0.1660756 0.1452147 0.1364017 0.1446498
 0.1626064 0.1789312 0.1869879 0.1854075 0.1746841 0.1573696 0.1407866 0.1347447 0.1435412 0.1618347
 0.180353 0.1938834 0.2018723 0.203997 0.1991769 0.1887209 0.1775968 0.1715918 0.1737867 0.183202
 0.1951262 0.2023316 0.1986086 0.1849332 0.1721901 0.1731473 0.1890681 0.2076181 0.2167286 0.2168177
 0.2159169 0.2171825 0.2173215 0.2153508 0.2161224 0.2236738 0.2352904 0.2441803 0.2454369 0.2379766
 0.2239162 0.2090709 0.2014392 0.2047531 0.2141723 0.221498 0.2230831 0.2193472 0.2099429 0.1957918
 0.1842122 0.1845185 0.1972379 0.2128908 0.2227661 0.2268518 0.2298862 0.2331865 0.2330482 0.2263643
 0.2158334 0.2082987 0.2079806 0.2127841 0.2178364 0.2206274 0.2210246 0.2183462 0.2117877 0.2037406
 0.1998334 0.2040347 0.2145194 0.2253473 0.2317564 0.2331419 0.2316656 0.2294432 0.2271177 0.2240424
 0.2197056 0.2155596 0.2147288 0.2186805 0.2248991 0.2294743 0.2315747 0.2337222 0.2378232 0.2425441
 0.2449417 0.24368 0.2402994 0.2378683 0.2385215 0.2417727 0.2448763 0.2451634 0.2425738 0.2399496
 0.2404196 0.2444154 0.2496076 0.2535655 0.2557414 0.2569604 0.2579942 0.2588863 0.2589232 0.2571728
 0.2538061 0.2508745 0.2508599 0.2542154 0.2589324 0.2626172 0.2644252 0.2649287 0.2648029 0.2641243
 0.2627527 0.2609595 0.2594484 0.2588019 0.2590629 0.2598697 0.2608272 0.2616823 0.2623187 0.2627422
 0.2630285 0.263226 0.2633432 0.2634188 0.2635034 0.2635608 0.263503 0.2633631 0.2633269 0.2635228
 0.2638537 0.2641032 0.2641341 0.2639009 0.263342 0.2623992 0.2611347 0.2597047 0.2581824 0.2565185
 0.2547766 0.2533679 0.2529207 0.2538171 0.255843 0.258313 0.2605321 0.2621424 0.2631251 0.2636243
 0.2638189 0.2638695 0.2638708 0.2638282 0.2637008 0.263472 0.2631675 0.2628189 0.2624387 0.2620408
 0.2616641 0.2613485 0.2610898 0.2608358 0.2605263 0.2601312 0.2596578 0.2591384 0.2586038 0.2580491
 0.257426 0.2566777 0.2557869 0.2547973 0.2538029 0.2528999 0.2521185 0.2513966 0.2506421 0.2498111
 0.2489026 0.2479014 0.2467899 0.2456238 0.2445402 0.2436521 0.2429533 0.2423411 0.2417 0.2409522
 0.2400678 0.2390712 0.2380222 0.2369641 0.2358937 0.2347862 0.2336226 0.2323846 0.231052 0.2296212
 0.2281084 0.2265316 0.2249088 0.2232618 0.2215878 0.2198207 0.2178385 0.2155077 0.2127164 0.2093833
 0.2054756 0.2010405 0.1962244 0.1912465 0.18633 0.1816465 0.1773156 0.173434 0.1700865 0.1673393
 0.1652417 0.1638296 0.1631207 0.163115 0.1638029 0.1651576 0.1671151 0.1695666 0.1723704 0.1753643
 0.1783738 0.1812351 0.1838465 0.1862141 0.1884252 0.1905469 0.1925554 0.1943797 0.1959877 0.1973943
 0.1986107 0.1996287 0.200453 0.2011184 0.2016726 0.2021548 0.2025856 0.2029674 0.2032941 0.2035633
 0.2037808 0.203961 0.2041243 0.2042926 0.2044849 0.204714 0.2049843 0.2052991 0.2056722 0.2061192
 0.2066348 0.2071924 0.207771 0.2083681 0.2089874 0.209637 0.210342 0.2111421 0.2120717 0.2131486
 0.2143725 0.2157181 0.2171236 0.2184942 0.219724 0.2207314 0.2214817 0.2219827 0.2222646 0.2223663
 0.2223257 0.222166 0.2218916 0.2215032 0.2210127 0.2204434 0.2198253 0.2191881 0.2185464 0.2178907
 0.217203 0.2164847 0.2157644 0.2150716 0.2144105 0.2137656 0.2131278 0.2125024 0.2118952 0.2113031
 0.210723 0.2101559 0.2095999 0.2090493 0.2084979 0.2079308 0.2073146 0.2066082 0.205791 0.2048712
 0.2038619 0.2027589 0.2015521 0.2002517 0.1988869 0.1974729 0.195993 0.1944219 0.1927581 0.1910175
 0.1891966 0.1872659 0.1852198 0.1831249 0.1810971 0.1792255 0.1775263 0.1759623 0.174492 0.1730983
 0.1717819 0.1705341 0.1693272 0.1681431 0.1670006 0.1659345 0.1649556 0.1640462 0.1631888 0.1623841
 0.161647 0.1609922 0.1604237 0.1599368 0.1595283 0.159198 0.1589474 0.1587853 0.1587224 0.1587451
 0.1588022 0.1588319 0.1587961 0.1586927 0.1585518 0.1584164 0.1583129 0.1582406 0.1581836 0.1581128
 0.1579736 0.1576878 0.1571678 0.1563316 0.1551344 0.1536034 0.1518343 0.1499586 0.148119 0.1464435
 0.1450098 0.1438429 0.1429406 0.1422743 0.1417783 0.1413844 0.141075 0.1408877 0.140875 0.1410393
 0.1412822 0.1414526 0.1414945 0.1415222 0.1417147 0.142165 0.1428359 0.1436081 0.1443532 0.1449921
 0.1454984 0.1458596 0.1460761 0.146185 0.1462263 0.1461982 0.1460853 0.1458968 0.1456479 0.1453432
 0.1449899 0.1445837 0.1440982 0.1435208 0.142864 0.1421276 0.1413023 0.1403971 0.1393985 0.1382598
 0.1370202 0.1358905 0.1351496 0.1349793 0.135387 0.1362136 0.1372372 0.1383214 0.1393915 0.140255
 0.1406567 0.1406658 0.1408579 0.1418927 0.1438873 0.1462934 0.148392 0.149814 0.1505617 0.1507166
 0.150317 0.1494116 0.148018 0.1460798 0.1436058 0.140755 0.1377101 0.1346182 0.1316684 0.1290427
 0.1268074 0.124966 0.1235231 0.1225236 0.1220992 0.1218893 0.1200089 0.1140203 0.1046948 0.09771004
 0.0988674 0.1075613 0.1172065 0.1221994 0.1223758 0.120707 0.1192396 0.118273 0.1177054 0.117703
 0.1184079 0.1196596 0.121049 0.1221807 0.1229122 0.1232903 0.1232561 0.122421 0.120031 0.1152371
 0.107778 0.09855566 0.08932313 0.08167095 0.07631658 0.07313272 0.07150923 0.07070931 0.07021876 0.06997509
 0.07026175 0.07135527 0.0732922 0.07593702 0.07912224 0.08259632 0.08593427 0.08872376 0.09087415 0.09259273
 0.09403506 0.09511382 0.09566668 0.0956748 0.09526826 0.09461281 0.09384811 0.09306228 0.09223393 0.09123384
 0.09000454 0.08874796 0.08781018 0.08734906 0.08722585 0.08722629 0.0872491 0.08727061 0.08727271 0.08724799
 0.08720688 0.0871866 0.08728039 0.08758669 0.08808005 0.08858575 0.08892022 0.08904129 0.08905073 0.08902355
 0.08883575 0.08828169 0.08742917 0.08666126 0.08618526 0.08568743 0.08473951 0.08343735 0.08237027 0.08198865
 0.08220485 0.08259444 0.08279326 0.08268245 0.0823946 0.08225179 0.08254106 0.08317976 0.08368887 0.08365332
</values></Ydata></ScRf><Data_Parameters_AB><parameter name="DPF">1</parameter><parameter name="NPT">3497</parameter><parameter name="FXV">3996</parameter><parameter name="LXV">500</parameter><parameter name="CSF">1</parameter><parameter name="MXY">0.459717631340027</parameter><parameter name="MNY">-0.0861273854970932</parameter><parameter name="DAT">31/05/2022</parameter><parameter name="TIM">11:12:58.256 (GMT+2)</parameter><parameter name="DXU">WN</parameter></Data_Parameters_AB><AB__Qtest><MainReport name="Quality Test Report"><Header><Line><Legend>Test result ok/not ok [1/0]: </Legend><Value>0</Value></Line><Line><Legend>Method file: </Legend><Value>C:\Users\Public\Documents\Bruker\OPUS_8.2.28\QT\IRBT_v3_default.QT</Value></Line></Header><Matrix><Line><Legend></Legend><Legend>min</Legend><Legend>max</Legend><Legend>measured</Legend></Line><Line><Value>Absorption (X-Range 1):</Value><Value>0.400000</Value><Value>2.000000</Value><Value>0.502003</Value></Line><Line><Value>Noise (X-Range 4):</Value><Value></Value><Value>0.000300</Value><Value>0.000072</Value></Line><Line><Value>Signal/Noise (X-Range 2):</Value><Value>200.000000</Value><Value></Value><Value>158.435620</Value></Line><Line><Value>Signal/Noise (X-Range 3):</Value><Value>40.000000</Value><Value></Value><Value>108.691924</Value></Line><Line><Value>Water vapour (X-Range 5):</Value><Value></Value><Value>0.000300</Value><Value>0.000075</Value></Line><Line><Value>Signal/Water (X-Range 2):</Value><Value>100.000000</Value><Value></Value><Value>152.932265</Value></Line><Line><Value>Signal/Water (X-Range 3):</Value><Value>20.000000</Value><Value></Value><Value>104.916445</Value></Line><Line><Value>Fringes (X-Range 6):</Value><Value></Value><Value>0.000100</Value><Value>0.000074</Value></Line></Matrix></MainReport></AB__Qtest><Data_Parameters_ScSm><parameter name="DPF">1</parameter><parameter name="NPT">1814</parameter><parameter name="FXV">3996.33169228125</parameter><parameter name="LXV">499.541461535156</parameter><parameter name="CSF">1</parameter><parameter name="MXY">0.257514983415604</parameter><parameter name="MNY">0.0330364406108856</parameter><parameter name="DAT">31/05/2022</parameter><parameter name="TIM">11:12:58.256 (GMT+2)</parameter><parameter name="DXU">WN</parameter></Data_Parameters_ScSm><Data_Parameters_ScRf><parameter name="DPF">1</parameter><parameter name="NPT">1820</parameter><parameter name="FXV">4004.04661832813</parameter><parameter name="LXV">495.683998511719</parameter><parameter name="CSF">1</parameter><parameter name="MXY">0.264928698539734</parameter><parameter name="MNY">0.0302309710532427</parameter><parameter name="DAT">31/05/2022</parameter><parameter name="TIM">11:12:32.404 (GMT+2)</parameter><parameter name="DXU">WN</parameter></Data_Parameters_ScRf><Optic_Parameters_Rf><parameter name="APR">0</parameter><parameter name="APT">Open</parameter><parameter name="BMS">KBr</parameter><parameter name="DTC">RT-DLaTGS_IR-Biotyper [Microplate reader]</parameter><parameter name="HPF">0</parameter><parameter name="LPF">10.0</parameter><parameter name="LPV">4000</parameter><parameter name="PGR">0</parameter><parameter name="RCH">Module port</parameter><parameter name="RDX">0</parameter><parameter name="SRC">MIR</parameter><parameter name="VEL">10.0</parameter><parameter name="SON">Off</parameter></Optic_Parameters_Rf><Acquisition_Parameters_Rf><parameter name="ADT">1</parameter><parameter name="AQM">DD</parameter><parameter name="CFE">0</parameter><parameter name="COR">0</parameter><parameter name="DEL">0</parameter><parameter name="DLY">0</parameter><parameter name="HFW">8000</parameter><parameter name="LFW">0</parameter><parameter name="NSR">32</parameter><parameter name="PLF">AB</parameter><parameter name="RES">6</parameter><parameter name="RGN">-1</parameter><parameter name="STR">0</parameter><parameter name="TCL">MakeCompatibleScalar (0, {WSV=1.000000, ARV=0});</parameter><parameter name="TDL">37</parameter><parameter name="RPO">0</parameter></Acquisition_Parameters_Rf><FT_-_Parameters_Rf><parameter name="APF">B3</parameter><parameter name="HFQ">500</parameter><parameter name="LFQ">4000</parameter><parameter name="NLI">0</parameter><parameter name="PHR">24</parameter><parameter name="PHZ">ML</parameter><parameter name="SPZ">NO</parameter><parameter name="ZFF">1</parameter></FT_-_Parameters_Rf><Optic_Parameters_><parameter name="APR">0</parameter><parameter name="APT">Open</parameter><parameter name="BMS">KBr</parameter><parameter name="CHN">Module port</parameter><parameter name="DTC">RT-DLaTGS_IR-Biotyper [Microplate reader]</parameter><parameter name="HPF">0</parameter><parameter name="LPF">10.0</parameter><parameter name="LPV">4000</parameter><parameter name="PGN">0</parameter><parameter name="RDX">0</parameter><parameter name="SRC">MIR</parameter><parameter name="VEL">10.0</parameter><parameter name="SON">Off</parameter></Optic_Parameters_><FT_-_Parameters_><parameter name="APF">B3</parameter><parameter name="HFQ">500</parameter><parameter name="LFQ">4000</parameter><parameter name="NLI">0</parameter><parameter name="PHR">24</parameter><parameter name="PHZ">ML</parameter><parameter name="SPZ">NO</parameter><parameter name="ZFF">1</parameter></FT_-_Parameters_><Acquisition_Parameters_><parameter name="ADT">1</parameter><parameter name="AQM">DD</parameter><parameter name="CFE">0</parameter><parameter name="COR">0</parameter><parameter name="DEL">0</parameter><parameter name="DLY">0</parameter><parameter name="HFW">8000</parameter><parameter name="LFW">0</parameter><parameter name="NSS">32</parameter><parameter name="PLF">AB</parameter><parameter name="RES">6</parameter><parameter name="SOT">0</parameter><parameter name="TCL">MakeCompatibleScalar (0, {WSV=1.000000, ARV=0});</parameter><parameter name="TDL">37</parameter><parameter name="SPO">0</parameter><parameter name="SGN">-1</parameter></Acquisition_Parameters_><Instrument_Parameters_Rf><parameter name="HFL">15800.168544</parameter><parameter name="LFL">0</parameter><parameter name="LWN">15800.168544</parameter><parameter name="ABP">32197</parameter><parameter name="SSP">1</parameter><parameter name="ARG">2</parameter><parameter name="ASG">2</parameter><parameter name="ASS">32</parameter><parameter name="GFW">16</parameter><parameter name="GBW">16</parameter><parameter name="BFW">0</parameter><parameter name="BBW">0</parameter><parameter name="PKA">7265</parameter><parameter name="PKL">4996</parameter><parameter name="PRA">7449</parameter><parameter name="PRL">5001</parameter><parameter name="P2A">1</parameter><parameter name="P2L">1</parameter><parameter name="P2R">1</parameter><parameter name="P2K">1</parameter><parameter name="DAQ">0</parameter><parameter name="AG2">1</parameter><parameter name="SSM">1</parameter><parameter name="RSN">25423</parameter><parameter name="CRR">0</parameter><parameter name="SRT">1653995552.404</parameter><parameter name="DUR">19.6379852294922</parameter><parameter name="TSC">28.8</parameter><parameter name="MVD">0.838760018348694</parameter><parameter name="AN1">0.225786437384736</parameter><parameter name="AN2">0</parameter><parameter name="VSN">2.485 Apr  4 2017</parameter><parameter name="SRN">0085</parameter><parameter name="CAM">0</parameter><parameter name="INS">IR-Biotyper</parameter><parameter name="FOC">69</parameter><parameter name="RDY">1</parameter><parameter name="ARS">32</parameter></Instrument_Parameters_Rf><Sample_Parameters_><parameter name="BLD"></parameter><parameter name="CNM">Admin</parameter><parameter name="CPY"></parameter><parameter name="DPM"></parameter><parameter name="EXP">IRBT_v3_32Scans.XPM</parameter><parameter name="LCT"></parameter><parameter name="SFM">Microplate, HTS-XT</parameter><parameter name="SNM">220531-1021(v.3)_MBD34F (D_2)_E5_67442f4b-97c5-42ac-85f0-6c1b474f9552.0</parameter><parameter name="XPP">C:\Users\Public\Documents\Bruker\OPUS_8.2.28\XPM</parameter><parameter name="IST">OK</parameter><parameter name="CPG">1252</parameter><parameter name="UID">70e9cce3-3f13-4a33-b1c8-985d4313180c</parameter></Sample_Parameters_><Instrument_Parameters_><parameter name="HFL">15800.168544</parameter><parameter name="LFL">0</parameter><parameter name="LWN">15800.168544</parameter><parameter name="ABP">32197</parameter><parameter name="SSP">1</parameter><parameter name="ASG">4</parameter><parameter name="ARG">2</parameter><parameter name="ASS">32</parameter><parameter name="GFW">16</parameter><parameter name="GBW">16</parameter><parameter name="BFW">0</parameter><parameter name="BBW">0</parameter><parameter name="PKA">6278</parameter><parameter name="PKL">4988</parameter><parameter name="PRA">6496</parameter><parameter name="PRL">4993</parameter><parameter name="P2A">1</parameter><parameter name="P2L">1</parameter><parameter name="P2R">1</parameter><parameter name="P2K">1</parameter><parameter name="DAQ">0</parameter><parameter name="AG2">1</parameter><parameter name="SSM">1</parameter><parameter name="RSN">13337</parameter><parameter name="CRR">0</parameter><parameter name="SRT">1653995578.256</parameter><parameter name="DUR">19.6379852294922</parameter><parameter name="TSC">28.8</parameter><parameter name="MVD">0.717158019542694</parameter><parameter name="AN1">0.225794392154676</parameter><parameter name="AN2">0</parameter><parameter name="VSN">2.485 Apr  4 2017</parameter><parameter name="SRN">0085</parameter><parameter name="CAM">0</parameter><parameter name="INS">IR-Biotyper</parameter><parameter name="FOC">69</parameter><parameter name="RDY">1</parameter></Instrument_Parameters_><History/></OPUSDataFile>
