<?xml version="1.0" encoding="UTF-8" ?>
<OPUSDataFile><AB><Ydata ylabel="Absorbance Units"><values byteorder="INTEL" format="FLOAT32" numvalues="3497"> -0.06759086 -0.06759792 -0.06761263 -0.06763585 -0.0676555 -0.06767093 -0.06766703 -0.06764413 -0.06760165 -0.06754249
 -0.06748345 -0.06742642 -0.06738841 -0.0673659 -0.06736034 -0.06736489 -0.06736836 -0.06736845 -0.06735642 -0.06733821
 -0.06731457 -0.06729426 -0.06728286 -0.06728294 -0.06729838 -0.06732187 -0.06735378 -0.06738002 -0.06739879 -0.06739756
 -0.06737452 -0.06732833 -0.06725885 -0.06718065 -0.06709521 -0.06702602 -0.06697334 -0.06695224 -0.06695899 -0.0669897
 -0.06703811 -0.06708753 -0.06713406 -0.06716294 -0.06717597 -0.06716839 -0.06714645 -0.06711302 -0.06707437 -0.06703486
 -0.06699723 -0.06696402 -0.06693367 -0.06690659 -0.06687906 -0.06685019 -0.06681982 -0.0667873 -0.06676131 -0.06674232
 -0.06674299 -0.06676327 -0.06680598 -0.06686858 -0.06693748 -0.06700997 -0.06706857 -0.06711368 -0.06713756 -0.067142
 -0.06712618 -0.06709268 -0.06704286 -0.06698254 -0.06691574 -0.06684958 -0.06678982 -0.06673703 -0.06669363 -0.06665447
 -0.06661794 -0.06658453 -0.06655324 -0.06653199 -0.06652147 -0.06652728 -0.06654978 -0.06659007 -0.06664809 -0.06672447
 -0.06681724 -0.06691756 -0.06701797 -0.06708577 -0.06711727 -0.06708101 -0.06699292 -0.06686264 -0.0667123 -0.0665739
 -0.06645322 -0.06636884 -0.06630818 -0.06627057 -0.0662398 -0.06620735 -0.06617326 -0.06613365 -0.0661042 -0.06608724
 -0.06609224 -0.06612164 -0.06616315 -0.06621625 -0.06625669 -0.06628417 -0.0662891 -0.06627442 -0.06625365 -0.06622973
 -0.06622215 -0.06622848 -0.06625465 -0.06629194 -0.06632857 -0.06635758 -0.06636416 -0.0663514 -0.06631637 -0.0662649
 -0.06619947 -0.0661241 -0.06603825 -0.06595563 -0.06587677 -0.06582713 -0.065811 -0.06584642 -0.06593806 -0.06606688
 -0.06623255 -0.06634854 -0.06641162 -0.06635045 -0.06618041 -0.06596676 -0.06572305 -0.06553842 -0.06540603 -0.06535465
 -0.06537015 -0.06544517 -0.06555849 -0.06568536 -0.065802 -0.0658784 -0.06591003 -0.06587967 -0.06581461 -0.06571957
 -0.06562427 -0.06553985 -0.06546974 -0.06541728 -0.06537259 -0.06533464 -0.06530092 -0.0652712 -0.06524748 -0.06522954
 -0.06521413 -0.06520103 -0.06518619 -0.06517167 -0.06516404 -0.06516337 -0.06517679 -0.06519447 -0.06520315 -0.06519389
 -0.06514572 -0.06506985 -0.06496421 -0.06485416 -0.06475266 -0.06467982 -0.06464832 -0.06466016 -0.06472194 -0.06481172
 -0.06492946 -0.06503772 -0.0651328 -0.06518576 -0.06519439 -0.06515687 -0.06507443 -0.06496748 -0.06483753 -0.0647045
 -0.06456842 -0.06443922 -0.06431791 -0.06421147 -0.0641221 -0.06405772 -0.06401719 -0.06400399 -0.06401123 -0.0640355
 -0.06406784 -0.06410235 -0.06413329 -0.06415728 -0.06417068 -0.06417162 -0.06415959 -0.06413309 -0.06410064 -0.06406243
 -0.06403217 -0.06401076 -0.06400384 -0.06401096 -0.06402493 -0.06404462 -0.06405804 -0.06406611 -0.06406537 -0.06405893
 -0.06405329 -0.06404988 -0.06405512 -0.06406665 -0.06408446 -0.06410529 -0.06412533 -0.06414607 -0.06416666 -0.06419128
 -0.06422354 -0.06425699 -0.06429328 -0.06431191 -0.06430832 -0.06427658 -0.06421322 -0.06414627 -0.06407738 -0.06402422
 -0.06398576 -0.06394205 -0.06389224 -0.06381849 -0.06372666 -0.06363081 -0.06353616 -0.06346537 -0.06341517 -0.06339291
 -0.06338625 -0.06338202 -0.06337352 -0.06334691 -0.06331188 -0.06327061 -0.06323051 -0.06319772 -0.06316458 -0.06313122
 -0.06308524 -0.06302337 -0.06294528 -0.06284946 -0.06275059 -0.06264941 -0.06256205 -0.06248915 -0.06244179 -0.06241978
 -0.06242925 -0.062466 -0.06251984 -0.06257964 -0.06260912 -0.0626054 -0.06253996 -0.06243263 -0.06229606 -0.06214934
 -0.06201609 -0.06189798 -0.06180426 -0.06172607 -0.0616622 -0.06160392 -0.06154783 -0.06149285 -0.06143804 -0.06138557
 -0.06133625 -0.06128445 -0.06123009 -0.06115707 -0.06106507 -0.06094632 -0.06080465 -0.06066417 -0.06052852 -0.06042767
 -0.06035733 -0.06032123 -0.06031423 -0.06032871 -0.06036144 -0.06040825 -0.06045844 -0.0605053 -0.06052823 -0.06051125
 -0.06044795 -0.06032608 -0.06017051 -0.0599848 -0.0597938 -0.05960444 -0.0594185 -0.05923754 -0.05905316 -0.05886479
 -0.05867033 -0.05847031 -0.05827559 -0.05808821 -0.057929 -0.05779766 -0.05770679 -0.0576489 -0.0576114 -0.05758533
 -0.05754608 -0.05749508 -0.05742399 -0.05733697 -0.05723894 -0.05711988 -0.0569756 -0.05679652 -0.05657184 -0.05632163
 -0.05604737 -0.05577601 -0.05551369 -0.05527108 -0.05505046 -0.05485316 -0.05467945 -0.0545289 -0.05440152 -0.05429819
 -0.05421862 -0.0541636 -0.05412864 -0.05409931 -0.05406302 -0.05397582 -0.05383463 -0.05360185 -0.0533109 -0.05298735
 -0.05266621 -0.05239449 -0.05216971 -0.05200922 -0.05188368 -0.05178735 -0.05168663 -0.05156828 -0.05142485 -0.05124981
 -0.05106423 -0.05087002 -0.0506819 -0.05050151 -0.05032082 -0.05013922 -0.049943 -0.04973296 -0.04950894 -0.04927295
 -0.04903337 -0.04879174 -0.04855533 -0.04832733 -0.04811681 -0.04792648 -0.04776627 -0.04762914 -0.04751539 -0.04740826
 -0.04729761 -0.04717154 -0.04702132 -0.04684659 -0.04664502 -0.04642089 -0.04617362 -0.04591328 -0.04563986 -0.045373
 -0.04511406 -0.04487739 -0.04466309 -0.04446912 -0.04429439 -0.04412965 -0.04397427 -0.04382073 -0.04366905 -0.04351503
 -0.04335999 -0.0432043 -0.04304948 -0.04289904 -0.0427498 -0.04260257 -0.04244634 -0.0422751 -0.04207885 -0.04184861
 -0.04159273 -0.04130893 -0.04102027 -0.04073068 -0.0404574 -0.0402037 -0.03997218 -0.03976354 -0.03956896 -0.03938792
 -0.0392098 -0.0390342 -0.03885365 -0.03866753 -0.03846909 -0.03825822 -0.03802947 -0.03778709 -0.03753531 -0.03728154
 -0.03703848 -0.03680788 -0.03659786 -0.03640136 -0.03621626 -0.03603662 -0.03585805 -0.03568279 -0.03551023 -0.03534514
 -0.03518909 -0.03504065 -0.03490077 -0.03475839 -0.03461302 -0.03445008 -0.03426912 -0.03406353 -0.03383483 -0.03359213
 -0.03333813 -0.03309009 -0.03284882 -0.0326261 -0.03241996 -0.03223229 -0.0320605 -0.03190191 -0.03175468 -0.03161633
 -0.0314852 -0.03136043 -0.03123787 -0.03111676 -0.03098911 -0.03085263 -0.03070081 -0.03053103 -0.03034587 -0.0301446
 -0.02993779 -0.02972612 -0.02951862 -0.02931553 -0.02911871 -0.02892772 -0.02873954 -0.02855436 -0.02837111 -0.02819116
 -0.02801797 -0.0278526 -0.02769958 -0.02755709 -0.02742525 -0.02729997 -0.02717725 -0.02705488 -0.02692971 -0.02680288
 -0.02667423 -0.02654474 -0.02641517 -0.02628367 -0.02615022 -0.02601175 -0.02586797 -0.0257156 -0.02555439 -0.02538195
 -0.02519832 -0.025006 -0.02480621 -0.02460996 -0.02441914 -0.02424877 -0.02409878 -0.02397804 -0.02388259 -0.02380972
 -0.02375334 -0.02370353 -0.02365731 -0.0236075 -0.02355564 -0.02350084 -0.02344433 -0.02338746 -0.02332685 -0.02326197
 -0.02318902 -0.02310676 -0.02301524 -0.02291405 -0.02280627 -0.02269205 -0.02257539 -0.02245644 -0.02233733 -0.02221752
 -0.02209325 -0.02196378 -0.02182244 -0.0216712 -0.02151116 -0.0213475 -0.02119129 -0.02104584 -0.02092193 -0.02081631
 -0.02073121 -0.02065817 -0.02059284 -0.02052693 -0.02045441 -0.02037538 -0.02028632 -0.02020021 -0.02011849 -0.02005552
 -0.02001479 -0.01999169 -0.01998696 -0.01997631 -0.01995862 -0.01991459 -0.01984547 -0.01975422 -0.01964412 -0.01953225
 -0.01942064 -0.01932452 -0.01924329 -0.01918408 -0.01914251 -0.01911717 -0.01909889 -0.01907885 -0.01904855 -0.01899774
 -0.01892875 -0.01883694 -0.01873885 -0.01863743 -0.01855128 -0.01848616 -0.01844498 -0.01843039 -0.0184272 -0.01843455
 -0.01843738 -0.01843527 -0.01842947 -0.01842086 -0.01841894 -0.0184229 -0.0184344 -0.01845065 -0.018464 -0.01847252
 -0.01846856 -0.01845172 -0.01841747 -0.01836845 -0.01830361 -0.01823196 -0.01815796 -0.01809287 -0.01804465 -0.01801341
 -0.01800343 -0.01799992 -0.01800067 -0.01799286 -0.01797291 -0.01794798 -0.01791776 -0.01790192 -0.01790121 -0.01792364
 -0.0179674 -0.01801808 -0.01807359 -0.01811474 -0.01814411 -0.01815897 -0.01816435 -0.01817081 -0.01817814 -0.01819185
 -0.01820662 -0.01821808 -0.01822543 -0.01822515 -0.01822345 -0.01822279 -0.01822627 -0.01823698 -0.01824844 -0.01826002
 -0.01826485 -0.01826112 -0.01825187 -0.01823686 -0.0182263 -0.01822065 -0.01822684 -0.01824442 -0.01827187 -0.01830756
 -0.018343 -0.01837602 -0.01839505 -0.01839983 -0.01838243 -0.01834838 -0.01830036 -0.01824902 -0.01820651 -0.01817868
 -0.01817622 -0.01819092 -0.01822374 -0.01825839 -0.01828912 -0.01830815 -0.01831173 -0.01830346 -0.01828367 -0.01825321
 -0.0182126 -0.01815293 -0.01807388 -0.01797207 -0.0178495 -0.01772408 -0.01759999 -0.01750899 -0.01745148 -0.01744804
 -0.01749047 -0.01757391 -0.01768393 -0.01779771 -0.01790375 -0.01797986 -0.01802674 -0.0180348 -0.01801915 -0.01798246
 -0.01794542 -0.01791549 -0.01790554 -0.01792116 -0.01795976 -0.01802284 -0.01809686 -0.01818093 -0.01826264 -0.01834142
 -0.01841274 -0.01847671 -0.01853324 -0.01858194 -0.0186206 -0.01864877 -0.01866274 -0.01866483 -0.01865643 -0.01864438
 -0.01863884 -0.01864682 -0.01868122 -0.01873993 -0.01882787 -0.01893312 -0.01905102 -0.01917299 -0.01929362 -0.01941597
 -0.01954017 -0.01966766 -0.01980033 -0.01992384 -0.02003731 -0.02012599 -0.02018937 -0.02023694 -0.02027048 -0.02031431
 -0.02036695 -0.02043429 -0.020511 -0.02058037 -0.02064412 -0.02069445 -0.02074372 -0.0208083 -0.02089476 -0.02102186
 -0.02117372 -0.02134922 -0.02151894 -0.02166726 -0.02177776 -0.02183734 -0.02185861 -0.02183854 -0.02181097 -0.02177941
 -0.02177665 -0.02180664 -0.02187767 -0.02199001 -0.02212133 -0.02226952 -0.02240276 -0.02252163 -0.02261169 -0.02267747
 -0.02272611 -0.02276177 -0.02279697 -0.02283411 -0.02288182 -0.02294216 -0.02302129 -0.02311761 -0.02323415 -0.02336101
 -0.02349539 -0.02362458 -0.02374286 -0.02384612 -0.0239314 -0.02400365 -0.02406302 -0.02411495 -0.02415991 -0.02420161
 -0.02424033 -0.02428525 -0.02433724 -0.02441006 -0.02450272 -0.02461893 -0.02475325 -0.02488986 -0.02502319 -0.02513065
 -0.02521564 -0.02527034 -0.02530857 -0.02534158 -0.02538211 -0.02544559 -0.02553053 -0.02564324 -0.02576782 -0.02590074
 -0.02602704 -0.02614089 -0.02624368 -0.02633331 -0.02642574 -0.02652229 -0.02663417 -0.02676192 -0.02689742 -0.02703941
 -0.0271694 -0.02728796 -0.0273879 -0.02747278 -0.02755133 -0.02762531 -0.02770425 -0.02778498 -0.0278668 -0.02794645
 -0.02801908 -0.02808585 -0.02814609 -0.02820122 -0.028253 -0.02829756 -0.0283337 -0.02835924 -0.02837091 -0.02838229
 -0.02839308 -0.02842995 -0.02849567 -0.02860413 -0.02875604 -0.02893182 -0.02912862 -0.02930551 -0.02946159 -0.02956858
 -0.02963216 -0.02965504 -0.0296468 -0.02963027 -0.02961263 -0.02961625 -0.02964129 -0.02969833 -0.02977917 -0.02988239
 -0.029996 -0.03011273 -0.0302276 -0.03033611 -0.03044215 -0.03054716 -0.03064753 -0.03074505 -0.03081856 -0.03086643
 -0.03086958 -0.03082695 -0.03074974 -0.03064079 -0.03053932 -0.03044772 -0.03040153 -0.03039712 -0.03044266 -0.03052908
 -0.03064019 -0.03076737 -0.03088821 -0.03100229 -0.03109819 -0.03118547 -0.03126756 -0.03135321 -0.03145043 -0.03155448
 -0.03166716 -0.03177535 -0.03187538 -0.0319629 -0.03203579 -0.03210006 -0.03215627 -0.03220629 -0.03225026 -0.0322815
 -0.03229997 -0.03230299 -0.03229217 -0.03227552 -0.03225493 -0.03224153 -0.03223554 -0.03224331 -0.03226353 -0.03229727
 -0.03234221 -0.03239623 -0.03245742 -0.03252266 -0.03259412 -0.03267121 -0.03275944 -0.03286174 -0.0329772 -0.03310846
 -0.03324082 -0.03337331 -0.03348713 -0.03357976 -0.03364732 -0.03368943 -0.03372193 -0.03374596 -0.0337811 -0.03382659
 -0.03388832 -0.03396311 -0.03404282 -0.0341249 -0.03419882 -0.03426479 -0.03431804 -0.03436095 -0.034394 -0.03442059
 -0.03444309 -0.03446542 -0.03449049 -0.03451998 -0.03455619 -0.03459488 -0.03463621 -0.03467212 -0.03470068 -0.03472132
 -0.03473288 -0.03474898 -0.03477031 -0.03481188 -0.03487321 -0.03495156 -0.03504419 -0.03513207 -0.03521486 -0.03527973
 -0.03533139 -0.03537486 -0.03541436 -0.03546054 -0.03551172 -0.03557062 -0.03563308 -0.03569651 -0.03575839 -0.03581735
 -0.03586951 -0.03591412 -0.03594415 -0.03595746 -0.0359506 -0.03592163 -0.03587721 -0.03581708 -0.03575623 -0.03569547
 -0.03565324 -0.03563034 -0.03564252 -0.03568872 -0.03577226 -0.035888 -0.03602052 -0.03616215 -0.03628634 -0.03638915
 -0.03644995 -0.0364741 -0.03645765 -0.03641323 -0.03634926 -0.03627631 -0.03620379 -0.03613216 -0.03606447 -0.03599547
 -0.0359235 -0.03584933 -0.03577188 -0.03569989 -0.03563442 -0.03557841 -0.03553223 -0.03548187 -0.03542621 -0.03534504
 -0.03523931 -0.03510369 -0.03494277 -0.03477098 -0.0345919 -0.03442257 -0.03426182 -0.03411554 -0.03398099 -0.0338563
 -0.03374202 -0.03363797 -0.03354489 -0.03346461 -0.03339198 -0.03332646 -0.03325947 -0.03318831 -0.0331096 -0.03302142
 -0.03292948 -0.03283371 -0.03274497 -0.0326639 -0.03260004 -0.03255333 -0.03252472 -0.03251261 -0.03250704 -0.03250648
 -0.03249918 -0.03248633 -0.03246491 -0.03243687 -0.03240526 -0.03236868 -0.03232689 -0.03227769 -0.03221754 -0.03215059
 -0.0320769 -0.03200494 -0.03193891 -0.0318805 -0.03183267 -0.03178582 -0.03173918 -0.03168201 -0.03161263 -0.03152983
 -0.03143333 -0.0313322 -0.03122731 -0.03113292 -0.03105021 -0.03099408 -0.03096508 -0.03097402 -0.03101934 -0.03110359
 -0.03122243 -0.03137035 -0.03154169 -0.0317274 -0.03192411 -0.03212466 -0.03233231 -0.03254535 -0.03277326 -0.03301936
 -0.03329036 -0.03359071 -0.03391292 -0.03425844 -0.03460529 -0.03495189 -0.03527464 -0.03557188 -0.03583366 -0.03606041
 -0.03625903 -0.03643113 -0.03659105 -0.0367393 -0.03688563 -0.03702905 -0.0371719 -0.03731324 -0.03745265 -0.03758926
 -0.03772288 -0.03784975 -0.03796763 -0.03807053 -0.03815359 -0.03821596 -0.0382541 -0.03827772 -0.0382878 -0.03829714
 -0.0383091 -0.03832531 -0.03834754 -0.03836055 -0.03836361 -0.0383373 -0.03828165 -0.0381951 -0.03808154 -0.03796621
 -0.03785425 -0.03778098 -0.03774529 -0.03776513 -0.03782978 -0.0379306 -0.03805265 -0.03817413 -0.03828497 -0.03836762
 -0.03842315 -0.0384449 -0.03844542 -0.03842679 -0.03840489 -0.03838478 -0.0383746 -0.03837739 -0.03839089 -0.03841518
 -0.03844743 -0.03848728 -0.03854099 -0.03860935 -0.03870686 -0.03883417 -0.03900417 -0.0392142 -0.03946286 -0.03974218
 -0.040032 -0.04032295 -0.04058754 -0.04082465 -0.04101877 -0.04118134 -0.04131531 -0.04143608 -0.04155479 -0.04167684
 -0.04180917 -0.0419438 -0.04208085 -0.04220815 -0.04232299 -0.04242115 -0.04250109 -0.04256969 -0.04262717 -0.04268403
 -0.04274045 -0.04279958 -0.04286031 -0.04291633 -0.04296653 -0.04300237 -0.04302511 -0.0430326 -0.0430292 -0.04302106
 -0.0430136 -0.04301642 -0.04303192 -0.04306688 -0.04311708 -0.04318365 -0.04325634 -0.04333212 -0.04340006 -0.04345639
 -0.04349525 -0.0435142 -0.0435158 -0.04349932 -0.04347581 -0.04344581 -0.04342301 -0.0434078 -0.04340686 -0.04341911
 -0.0434401 -0.04346831 -0.04349451 -0.04351935 -0.04353926 -0.04355707 -0.04357697 -0.04359958 -0.04362893 -0.04366025
 -0.04369158 -0.04371616 -0.0437285 -0.0437275 -0.0437098 -0.0436826 -0.04364602 -0.04361214 -0.04358276 -0.04356923
 -0.04357347 -0.04359845 -0.04364482 -0.04370229 -0.04377001 -0.04383065 -0.04388408 -0.04392067 -0.04394244 -0.04395271
 -0.04395344 -0.04395205 -0.04394833 -0.0439452 -0.0439421 -0.04393902 -0.04393657 -0.04393569 -0.04393541 -0.04393639
 -0.04393428 -0.04392714 -0.04391308 -0.04388954 -0.04386426 -0.04383726 -0.04382193 -0.04382034 -0.04383643 -0.04387098
 -0.04391219 -0.04395926 -0.04399537 -0.04402078 -0.04402939 -0.04402345 -0.04400909 -0.04398832 -0.04397021 -0.04395455
 -0.04394586 -0.04394154 -0.04394054 -0.04393906 -0.04393281 -0.04392084 -0.04389985 -0.04387536 -0.04384804 -0.04382593
 -0.04381184 -0.04380904 -0.04381919 -0.04383954 -0.04387018 -0.04390647 -0.04394817 -0.04399049 -0.04403311 -0.0440699
 -0.04410069 -0.04412084 -0.04413103 -0.04413126 -0.04412322 -0.04411153 -0.04409759 -0.04408648 -0.04407797 -0.04407429
 -0.04407338 -0.04407402 -0.04407505 -0.04407461 -0.04407504 -0.04407654 -0.0440825 -0.04409449 -0.04411196 -0.04413566
 -0.04416073 -0.0441868 -0.04420918 -0.04422746 -0.04423975 -0.04424603 -0.04424644 -0.04424109 -0.04423098 -0.04421602
 -0.04419643 -0.04417185 -0.04414108 -0.04410473 -0.04406239 -0.0440174 -0.04397314 -0.04393471 -0.04390839 -0.04389618
 -0.04390247 -0.04392293 -0.04395785 -0.04399877 -0.04404357 -0.0440849 -0.04412083 -0.04414806 -0.04416571 -0.04417435
 -0.04417385 -0.04416779 -0.04415643 -0.04414529 -0.04413447 -0.04412758 -0.04412395 -0.04412267 -0.0441227 -0.04412039
 -0.04411585 -0.0441073 -0.04409589 -0.04408247 -0.04406783 -0.04405298 -0.04403845 -0.04402465 -0.04401261 -0.04400301
 -0.04399588 -0.04399173 -0.04398838 -0.0439854 -0.04398181 -0.0439772 -0.04397365 -0.04397132 -0.04397149 -0.04397416
 -0.04397735 -0.04398097 -0.04398297 -0.04398388 -0.04398523 -0.0439874 -0.04399285 -0.04400055 -0.04400994 -0.04401913
 -0.0440251 -0.04402717 -0.04402311 -0.04401447 -0.04400122 -0.04398619 -0.04397059 -0.04395646 -0.0439449 -0.04393578
 -0.04392956 -0.04392385 -0.0439186 -0.04391021 -0.04389837 -0.04388125 -0.04385887 -0.04383319 -0.04380466 -0.04377807
 -0.04375347 -0.04373394 -0.04371875 -0.04370747 -0.04369928 -0.04369237 -0.04368621 -0.04367932 -0.04367139 -0.04366127
 -0.04365001 -0.04363728 -0.04362652 -0.04361913 -0.04361793 -0.04362489 -0.04363751 -0.04365638 -0.04367425 -0.0436903
 -0.04369895 -0.04369959 -0.04369196 -0.0436761 -0.04365473 -0.04362805 -0.04359888 -0.04356752 -0.04353663 -0.04350691
 -0.04348188 -0.04346199 -0.04345047 -0.04344585 -0.04344796 -0.04345373 -0.04345991 -0.04346505 -0.04346639 -0.0434665
 -0.04346599 -0.04346666 -0.04347017 -0.04347246 -0.04347323 -0.04346733 -0.04345338 -0.0434344 -0.04341026 -0.04338959
 -0.04337271 -0.04336281 -0.04335937 -0.04335859 -0.04336021 -0.04336094 -0.04336107 -0.0433601 -0.04335774 -0.04335295
 -0.04334586 -0.04333564 -0.04332422 -0.04331372 -0.04330405 -0.04329713 -0.04328772 -0.043274 -0.04325168 -0.04321777
 -0.04317628 -0.04312694 -0.04307729 -0.04302847 -0.04298352 -0.04294281 -0.04290678 -0.04287553 -0.04285264 -0.04283829
 -0.04283628 -0.04284574 -0.04286474 -0.04289152 -0.04291977 -0.04294805 -0.04297069 -0.04298647 -0.04299137 -0.04298457
 -0.04296305 -0.04292905 -0.04288181 -0.04282829 -0.04277053 -0.04271756 -0.04267305 -0.04264084 -0.04262345 -0.04261554
 -0.04261741 -0.0426177 -0.04261553 -0.04260248 -0.04257829 -0.04254409 -0.04250082 -0.04245796 -0.04241613 -0.04238402
 -0.04236013 -0.04234495 -0.04233568 -0.04232635 -0.04231617 -0.04230043 -0.04228235 -0.04226302 -0.04224662 -0.0422368
 -0.04223479 -0.04224293 -0.04225808 -0.04228047 -0.04230387 -0.04232748 -0.04234399 -0.04235223 -0.04234804 -0.0423307
 -0.04230357 -0.04226692 -0.04222956 -0.04219178 -0.04216016 -0.04213397 -0.04211305 -0.04209636 -0.04208013 -0.04206467
 -0.04204838 -0.04203317 -0.04202123 -0.04201392 -0.04201433 -0.04202009 -0.04203134 -0.04204295 -0.04205239 -0.04205651
 -0.0420532 -0.04204366 -0.04202764 -0.04200738 -0.04198322 -0.04195599 -0.04192571 -0.0418939 -0.04186067 -0.04182949
 -0.04180028 -0.04177393 -0.04174952 -0.04172258 -0.04169269 -0.0416552 -0.04161249 -0.04156665 -0.04152174 -0.04148545
 -0.04145817 -0.04144469 -0.04143938 -0.04143997 -0.04144107 -0.04143819 -0.04143358 -0.04142638 -0.0414224 -0.04142358
 -0.04142905 -0.04143978 -0.04144683 -0.04144955 -0.04144097 -0.04142085 -0.04139169 -0.04135438 -0.04131926 -0.04128699
 -0.04126723 -0.04125822 -0.04126034 -0.04126941 -0.04127646 -0.04127901 -0.04126814 -0.04124672 -0.04121378 -0.04117436
 -0.04113229 -0.04108915 -0.04104697 -0.04100499 -0.0409628 -0.04092222 -0.04088333 -0.04084911 -0.04082029 -0.04079615
 -0.04077685 -0.04075881 -0.04074188 -0.04072539 -0.04070956 -0.040697 -0.04068759 -0.04068241 -0.04068035 -0.04067823
 -0.04067545 -0.04066825 -0.04065891 -0.04064806 -0.0406413 -0.04064446 -0.04066237 -0.04070179 -0.04076003 -0.0408396
 -0.04092889 -0.04102463 -0.04111742 -0.0412015 -0.04128965 -0.04137998 -0.04150956 -0.04168162 -0.04192263 -0.04223347
 -0.04258255 -0.04296335 -0.04329278 -0.0435657 -0.04370756 -0.04372584 -0.04360028 -0.04335315 -0.04301759 -0.04262653
 -0.04224481 -0.04189322 -0.04162285 -0.04142635 -0.04131563 -0.04127425 -0.04129711 -0.04137126 -0.04149478 -0.04164366
 -0.041818 -0.04196588 -0.04208043 -0.04211716 -0.04206822 -0.04196197 -0.0417999 -0.04164415 -0.04149524 -0.04137776
 -0.04128841 -0.04122199 -0.041176 -0.04114047 -0.0411124 -0.04108026 -0.04104216 -0.04098906 -0.04092353 -0.04084501
 -0.04075592 -0.04065852 -0.04055223 -0.04043608 -0.04031424 -0.04018631 -0.04006313 -0.03994739 -0.03984514 -0.03975853
 -0.03968339 -0.03961975 -0.03956032 -0.03950473 -0.03945003 -0.03939639 -0.03934519 -0.03929652 -0.03925179 -0.03921038
 -0.03917129 -0.03913321 -0.03909243 -0.03904878 -0.03899933 -0.03894746 -0.03889487 -0.0388471 -0.03880986 -0.03878331
 -0.03877131 -0.03876393 -0.03875964 -0.03874556 -0.03871747 -0.0386726 -0.03860859 -0.03853622 -0.03845586 -0.03838242
 -0.03831671 -0.03826768 -0.03823506 -0.03821843 -0.03821628 -0.03822021 -0.03822846 -0.03822999 -0.03822548 -0.03821014
 -0.03818755 -0.0381616 -0.03813419 -0.03811018 -0.03808647 -0.03806219 -0.03803489 -0.03800166 -0.03796672 -0.03793043
 -0.03789863 -0.03787357 -0.03785443 -0.03784184 -0.03783091 -0.03782115 -0.0378108 -0.03779974 -0.03778716 -0.0377727
 -0.03775146 -0.03772333 -0.03768411 -0.03763584 -0.03758299 -0.03752849 -0.03748206 -0.03744363 -0.03741832 -0.03740242
 -0.03739382 -0.03738913 -0.03738507 -0.03737963 -0.03737126 -0.03735774 -0.03733778 -0.0373109 -0.03727578 -0.03723818
 -0.03719834 -0.03716468 -0.03713829 -0.03712106 -0.03711315 -0.0371096 -0.03711025 -0.03711199 -0.03711496 -0.03711909
 -0.03712336 -0.03712426 -0.0371201 -0.03710399 -0.03707774 -0.03704002 -0.03699637 -0.03695283 -0.03691249 -0.03688106
 -0.03685508 -0.03683484 -0.03681465 -0.03679202 -0.03676528 -0.0367331 -0.03669762 -0.03665894 -0.03661917 -0.0365785
 -0.03653876 -0.03650008 -0.03646572 -0.0364359 -0.03641444 -0.03640102 -0.03639595 -0.03639793 -0.03640268 -0.03640893
 -0.03641127 -0.03640996 -0.03640271 -0.0363912 -0.03637636 -0.03636004 -0.03634423 -0.03632919 -0.03631617 -0.0363027
 -0.03628854 -0.03626996 -0.03624555 -0.03621535 -0.0361785 -0.03614082 -0.03610265 -0.03607077 -0.03604561 -0.03602733
 -0.03601546 -0.03600349 -0.03599109 -0.03597252 -0.03594886 -0.0359208 -0.03589011 -0.03586165 -0.03583588 -0.03581642
 -0.0358013 -0.03579011 -0.03577968 -0.03576723 -0.03575108 -0.03572903 -0.03570247 -0.03567093 -0.03563811 -0.03560472
 -0.03557411 -0.03554706 -0.03552456 -0.03550692 -0.03549276 -0.03548204 -0.03547283 -0.03546501 -0.0354566 -0.03544732
 -0.03543453 -0.03541803 -0.0353954 -0.03536741 -0.03533434 -0.03529783 -0.0352609 -0.0352245 -0.03519116 -0.0351605
 -0.035133 -0.03510831 -0.03508618 -0.03506707 -0.03505125 -0.03503826 -0.03502828 -0.03501953 -0.03501177 -0.0350037
 -0.03499521 -0.03498513 -0.0349734 -0.03495619 -0.03493328 -0.03490011 -0.03485747 -0.03480731 -0.03475196 -0.0347015
 -0.03465727 -0.03462886 -0.03461336 -0.03461128 -0.0346165 -0.03462202 -0.03462339 -0.03461378 -0.03459409 -0.03456163
 -0.03452329 -0.03448013 -0.03444157 -0.03441039 -0.03439186 -0.03438821 -0.03439513 -0.03441294 -0.03443059 -0.03444744
 -0.03445492 -0.03445302 -0.03444056 -0.03441811 -0.03438867 -0.03435292 -0.03431481 -0.03427538 -0.03423923 -0.03420711
 -0.03418306 -0.03416552 -0.03415515 -0.03414745 -0.03413926 -0.03412643 -0.03410502 -0.03407554 -0.03403633 -0.03399287
 -0.03394572 -0.03390196 -0.03386293 -0.033833 -0.03381304 -0.03380248 -0.03380138 -0.03380463 -0.03381188 -0.03381652
 -0.03381845 -0.03381351 -0.03380233 -0.03378504 -0.03376243 -0.03373654 -0.03370772 -0.03367746 -0.03364589 -0.03361363
 -0.03358124 -0.0335494 -0.03351852 -0.03348904 -0.03346107 -0.03343457 -0.03341037 -0.03338868 -0.03337016 -0.03335515
 -0.03334258 -0.03333249 -0.03332257 -0.03331264 -0.0333031 -0.03329407 -0.03328808 -0.03328479 -0.03328356 -0.03328298
 -0.03327705 -0.03326499 -0.03324082 -0.03320673 -0.03316301 -0.03311408 -0.03306557 -0.03302022 -0.03298286 -0.03295248
 -0.03293015 -0.03291323 -0.03290082 -0.03289151 -0.03288478 -0.03287982 -0.03287675 -0.03287262 -0.03286735 -0.03285623
 -0.03283895 -0.03281271 -0.03277772 -0.03273737 -0.03269261 -0.03265191 -0.03261562 -0.03259045 -0.0325745 -0.03256674
 -0.0325639 -0.03255934 -0.03255183 -0.03253647 -0.03251546 -0.0324887 -0.03245942 -0.03242965 -0.0324009 -0.03237448
 -0.03234996 -0.03232771 -0.03230589 -0.03228445 -0.03226052 -0.03223385 -0.03220168 -0.0321638 -0.03211929 -0.03206827
 -0.03201246 -0.03195242 -0.03189261 -0.03183382 -0.03178173 -0.03173671 -0.0317029 -0.03167949 -0.03166747 -0.03166454
 -0.03166877 -0.0316767 -0.03168491 -0.03169037 -0.03169025 -0.0316834 -0.03166843 -0.03164624 -0.03161662 -0.03158141
 -0.0315406 -0.0314976 -0.03145256 -0.03141069 -0.03137235 -0.03134084 -0.03131608 -0.03129563 -0.03127884 -0.03125949
 -0.03123759 -0.03120937 -0.03117648 -0.03114113 -0.0311054 -0.03107464 -0.03104864 -0.03103028 -0.03101581 -0.03100332
 -0.03098855 -0.03096769 -0.03094088 -0.03090666 -0.03086869 -0.03082793 -0.03078593 -0.03074338 -0.03069891 -0.03065234
 -0.03060349 -0.03055227 -0.03050108 -0.0304501 -0.03040275 -0.0303592 -0.03032252 -0.03029235 -0.03026926 -0.03025184
 -0.03023659 -0.03022239 -0.03020504 -0.03018546 -0.03016308 -0.030139 -0.03011469 -0.03008864 -0.03006032 -0.03002862
 -0.02999202 -0.029954 -0.02991473 -0.02987953 -0.02984976 -0.02982656 -0.02981068 -0.02979714 -0.02978572 -0.02976895
 -0.0297466 -0.02971466 -0.02967395 -0.02962824 -0.02957909 -0.02953537 -0.02949731 -0.02947113 -0.02945354 -0.02944227
 -0.02943169 -0.0294134 -0.02938426 -0.02933679 -0.0292756 -0.02919923 -0.02911994 -0.02904225 -0.02897599 -0.02892643
 -0.02889084 -0.02887083 -0.02885401 -0.02883915 -0.02881665 -0.02878557 -0.02874613 -0.02869863 -0.02865046 -0.02860217
 -0.02856165 -0.02852849 -0.02850592 -0.02849152 -0.02848104 -0.02847083 -0.02845122 -0.0284221 -0.02837765 -0.02832396
 -0.02826439 -0.02820423 -0.02814896 -0.02809696 -0.02804921 -0.02800198 -0.02795371 -0.02790532 -0.02785631 -0.02781077
 -0.02776924 -0.02773312 -0.02770256 -0.02767744 -0.0276578 -0.02764547 -0.02764009 -0.02764077 -0.027645 -0.02764126
 -0.02762732 -0.02758871 -0.02753016 -0.02745234 -0.02736425 -0.02727919 -0.02720006 -0.02713527 -0.0270814 -0.02703877
 -0.02700359 -0.02697425 -0.02694857 -0.02692591 -0.02690363 -0.02688161 -0.02685487 -0.02682288 -0.02678122 -0.0267294
 -0.02666913 -0.0266007 -0.02653222 -0.02646396 -0.0264024 -0.02634625 -0.02629331 -0.02624216 -0.0261868 -0.02612871
 -0.02606743 -0.02600605 -0.02594934 -0.02589717 -0.02585185 -0.02581013 -0.02577073 -0.02573079 -0.02568915 -0.02564243
 -0.0255898 -0.02552687 -0.02545171 -0.02536776 -0.02527406 -0.02518614 -0.02510508 -0.02504257 -0.02499854 -0.02496482
 -0.02493956 -0.02490288 -0.02485506 -0.02478524 -0.02469845 -0.02460355 -0.02450485 -0.02441632 -0.02433621 -0.0242685
 -0.02420873 -0.02415404 -0.0241011 -0.02404685 -0.0239897 -0.0239281 -0.02386197 -0.02379045 -0.02371639 -0.02363993
 -0.02356515 -0.02349283 -0.02342308 -0.02335609 -0.02328849 -0.02322021 -0.02315135 -0.02308186 -0.02301246 -0.02294119
 -0.02285978 -0.02276559 -0.02264526 -0.0225008 -0.02232735 -0.02213426 -0.02193114 -0.02172865 -0.0215412 -0.02137216
 -0.0212299 -0.02110752 -0.02100629 -0.02091028 -0.02081541 -0.02070788 -0.0205823 -0.02044339 -0.02028995 -0.02013889
 -0.01999151 -0.01985707 -0.01973579 -0.01962681 -0.01952952 -0.01943911 -0.01935442 -0.01926811 -0.01917837 -0.01907595
 -0.01896021 -0.01882417 -0.01867159 -0.01850377 -0.01832703 -0.01814827 -0.01797052 -0.01779804 -0.01763096 -0.01747066
 -0.01731536 -0.01716597 -0.01701537 -0.01686409 -0.01669537 -0.01650804 -0.01627999 -0.01600862 -0.01569734 -0.01534736
 -0.01500358 -0.01466672 -0.01436383 -0.01408867 -0.01382491 -0.01356868 -0.01329891 -0.01301775 -0.01272013 -0.01240768
 -0.01208318 -0.0117402 -0.01137517 -0.01097768 -0.01053653 -0.01005648 -0.009530596 -0.008990611 -0.00844318 -0.007920201
 -0.007431451 -0.006982623 -0.006576714 -0.006204897 -0.005867159 -0.005547686 -0.005245182 -0.004928112 -0.004593354 -0.004194791
 -0.003737505 -0.00321392 -0.002646725 -0.00210636 -0.001596866 -0.001167878 -0.0007942904 -0.0004601346 -0.0001467151 0.0001730484
 0.0005004531 0.0008456476 0.001201479 0.001566811 0.001936635 0.002309881 0.002679799 0.003045044 0.003399404 0.003740956
 0.004075327 0.004402856 0.00472819 0.005051139 0.005357146 0.005645111 0.005897494 0.006116455 0.006303281 0.006461092
 0.006601002 0.006722547 0.006830118 0.006922149 0.006996915 0.007057004 0.007104484 0.00714107 0.007168591 0.007187739
 0.007197993 0.007204842 0.007209264 0.007218356 0.007233953 0.007259522 0.007296061 0.007342826 0.007400145 0.007460712
 0.00752408 0.007579647 0.007627368 0.007663026 0.007686784 0.00769747 0.007694548 0.007674924 0.007639905 0.007589495
 0.007528284 0.00746272 0.007396794 0.007336646 0.007285099 0.007243712 0.00722165 0.007222349 0.007257196 0.007332922
 0.007444915 0.007595291 0.007766387 0.007955643 0.008154591 0.00836209 0.008578458 0.008803617 0.009035178 0.009272812
 0.009511908 0.009752873 0.009995201 0.01023993 0.01048991 0.01074619 0.0110122 0.01128899 0.01157962 0.01188457
 0.01220592 0.01254219 0.01289356 0.01325658 0.01363024 0.0140097 0.01439318 0.01477771 0.01516179 0.01554759
 0.01593542 0.01632569 0.01671881 0.01710776 0.01749221 0.01786667 0.01823149 0.01858968 0.01893996 0.01927871
 0.01960146 0.01989033 0.02014605 0.02036042 0.02053874 0.02068725 0.02080473 0.02089283 0.02094781 0.02096645
 0.02094993 0.02090133 0.02080888 0.02067694 0.02045937 0.02014596 0.01970575 0.01912132 0.01848387 0.01779854
 0.01715921 0.01656945 0.01600611 0.01546558 0.01490099 0.01431389 0.01368858 0.01302929 0.0123442 0.01162976
 0.01088651 0.01009898 0.009235517 0.008310208 0.007303649 0.006302005 0.005368338 0.004538467 0.003866179 0.003282025
 0.002774172 0.002284895 0.001793799 0.001299492 0.0007969975 0.0003107561 -0.0001569415 -0.0005988296 -0.001014699 -0.001419352
 -0.001813882 -0.002215485 -0.002623661 -0.003045805 -0.003478474 -0.003915799 -0.004351572 -0.00476915 -0.005164979 -0.005524409
 -0.005852381 -0.006146221 -0.006418792 -0.006676051 -0.006936096 -0.00720964 -0.007507415 -0.007842631 -0.008185266 -0.008534919
 -0.008841241 -0.009092106 -0.009296158 -0.009451484 -0.00959746 -0.009735943 -0.009887246 -0.01005031 -0.01021989 -0.0103937
 -0.01055609 -0.01070768 -0.0108428 -0.01096241 -0.01106731 -0.01115458 -0.01121987 -0.01126129 -0.01127312 -0.01126112
 -0.01122675 -0.01117804 -0.01112018 -0.01105521 -0.0109862 -0.01090766 -0.01082011 -0.01071189 -0.01058222 -0.010415
 -0.01020838 -0.009955863 -0.009657295 -0.009339337 -0.009004668 -0.008694281 -0.008407034 -0.008157738 -0.007942948 -0.007758433
 -0.007602977 -0.007472789 -0.007365405 -0.007278418 -0.007201329 -0.007125304 -0.00703202 -0.00690211 -0.006734471 -0.006514479
 -0.006281109 -0.006045057 -0.005834155 -0.005661555 -0.005513946 -0.005392405 -0.00527291 -0.005152874 -0.005023799 -0.004885211
 -0.004746481 -0.004607814 -0.00447554 -0.004347243 -0.004212928 -0.004069334 -0.003899184 -0.003702946 -0.003471783 -0.003211069
 -0.002925934 -0.002619294 -0.002297617 -0.00195802 -0.001599848 -0.001222145 -0.0008233604 -0.0004065963 2.648823E-05 0.0004776494
 0.0009456299 0.001440389 0.001963339 0.002521868 0.003118 0.003738121 0.004381486 0.005008955 0.005618582 0.006174822
 0.006678974 0.007121074 0.007502082 0.007821482 0.008075864 0.008257549 0.008362316 0.008378805 0.008308273 0.008145737
 0.007899827 0.007574007 0.007180077 0.006725223 0.006216209 0.005657515 0.005049424 0.004390771 0.003691795 0.002950503
 0.002202696 0.001450921 0.0007312693 4.579736E-05 -0.0006014005 -0.001211492 -0.001799773 -0.002365593 -0.002913578 -0.003440008
 -0.003933189 -0.004392576 -0.004809218 -0.005188951 -0.005536387 -0.005858949 -0.006166996 -0.006464324 -0.006757748 -0.007046531
 -0.007332811 -0.007612151 -0.007884259 -0.008141931 -0.008383927 -0.008602196 -0.008795091 -0.008959042 -0.009093054 -0.009202574
 -0.009287857 -0.009360188 -0.009419972 -0.009475448 -0.009525978 -0.00957201 -0.009612607 -0.009644719 -0.009667851 -0.009679638
 -0.009679227 -0.009663956 -0.009634009 -0.009587058 -0.009528296 -0.009459154 -0.00938996 -0.009326162 -0.009276198 -0.009245206
 -0.009233733 -0.009243506 -0.009269804 -0.009312218 -0.009366465 -0.009432169 -0.009505427 -0.009586005 -0.009670118 -0.009757825
 -0.009849187 -0.009944432 -0.01004595 -0.01015203 -0.01025882 -0.01036211 -0.01044962 -0.0105192 -0.01056008 -0.01057681
 -0.01056914 -0.01054555 -0.0105126 -0.01047605 -0.01044132 -0.01040895 -0.01038033 -0.01035485 -0.01033235 -0.01031366
 -0.01029899 -0.01028823 -0.01028159 -0.0102759 -0.01027098 -0.01026445 -0.01025657 -0.01025041 -0.01024654 -0.01025042
 -0.01026131 -0.01027981 -0.01030369 -0.01032769 -0.0103508 -0.01036846 -0.01038202 -0.01039101 -0.0103977 -0.01040374
 -0.01041086 -0.01042029 -0.01043352 -0.01045166 -0.01047441 -0.01050264 -0.01053165 -0.01056107 -0.01058506 -0.01060267
 -0.0106143 -0.01061988 -0.01062598 -0.01063278 -0.01064408 -0.0106589 -0.01067281 -0.01068461 -0.01068687 -0.01068027
 -0.01066224 -0.01063514 -0.01060172 -0.01056413 -0.0105261 -0.0104884 -0.01045333 -0.01041924 -0.01038656 -0.01035105
 -0.01031096 -0.01026441 -0.01020918 -0.01015216 -0.01009315 -0.01004561 -0.01001113 -0.009995949 -0.01000063 -0.01001621
 -0.01004173 -0.01006076 -0.01007319 -0.01006939 -0.01005147 -0.01002189 -0.009983511 -0.009945083 -0.009907094 -0.009874938
 -0.009846357 -0.009820395 -0.009796159 -0.009771339 -0.009749802 -0.009732595 -0.009724607 -0.009728826 -0.009744379 -0.009772712
 -0.009806206 -0.009843891 -0.009879366 -0.009911507 -0.009941133 -0.009968189 -0.009997507 -0.01002908 -0.01006376 -0.0101006
 -0.01013365 -0.01016238 -0.01018095 -0.01019111 -0.0101938 -0.01019194 -0.01019125 -0.01019295 -0.01020127 -0.01021485
 -0.01023431 -0.01025706 -0.01028206 -0.01030657 -0.01032961 -0.01034813 -0.01036134 -0.01036649 -0.01036292 -0.01034955
 -0.01032602 -0.01029416 -0.01025402 -0.01021053 -0.01016396 -0.01011951 -0.01007693 -0.01003771 -0.01000058 -0.009961762
 -0.009919539 -0.009867478 -0.009805155 -0.009728047 -0.009638805 -0.009538139 -0.009430616 -0.009320887 -0.009209991 -0.009101137
 -0.008989162 -0.008872877 -0.008747643 -0.008610766 -0.008466276 -0.008313761 -0.008162284 -0.008013127 -0.007868393 -0.007728449
 -0.007584104 -0.007434809 -0.007269895 -0.0070901 -0.006894878 -0.006686314 -0.006472713 -0.006254574 -0.006037839 -0.00582085
 -0.005602479 -0.005383657 -0.005163706 -0.004947815 -0.0047406 -0.004544232 -0.004363108 -0.00419086 -0.004026448 -0.003862592
 -0.003696312 -0.003527601 -0.003355576 -0.003184318 -0.003014173 -0.002848129 -0.002686399 -0.002531154 -0.002382245 -0.002237731
 -0.002096165 -0.001946512 -0.001787373 -0.001605732 -0.001404549 -0.001183428 -0.0009492968 -0.0007146875 -0.0004835335 -0.0002674809
 -6.257469E-05 0.0001296019 0.000316701 0.0005038927 0.0006923501 0.000885796 0.00107488 0.001258244 0.001426027 0.001575171
 0.001707448 0.001822072 0.00192938 0.002030044 0.00212896 0.002226086 0.002319536 0.002409658 0.002497895 0.002585373
 0.002678135 0.002775531 0.002879549 0.002987572 0.003095831 0.003202185 0.003302483 0.003395452 0.003478308 0.003551534
 0.003612966 0.003669579 0.003721603 0.003783373 0.003858753 0.003958246 0.004086148 0.004235665 0.004407835 0.00458082
 0.004753289 0.004907238 0.005042525 0.005158359 0.005256115 0.005345372 0.0054269 0.005508527 0.005590804 0.005678923
 0.005773626 0.005880078 0.005994656 0.006116839 0.006237348 0.006347912 0.006442011 0.006511839 0.006560151 0.006585462
 0.006594522 0.006588603 0.006574074 0.006551729 0.006529633 0.006508839 0.0064946 0.006487567 0.006481586 0.00647615
 0.006460032 0.006434185 0.006399696 0.006359724 0.006328975 0.006307737 0.006306407 0.00631861 0.006337922 0.006357379
 0.006363038 0.006358018 0.006337713 0.006314664 0.006296514 0.006287548 0.006295312 0.006303944 0.006311876 0.00629882
 0.006259061 0.006191387 0.006093711 0.005981882 0.005856748 0.005733375 0.00561232 0.005502346 0.005403466 0.00532079
 0.005252794 0.005196741 0.005149166 0.005098605 0.005044155 0.004977184 0.004902567 0.004822926 0.004743189 0.004670318
 0.004601937 0.004540181 0.004476392 0.004407749 0.004326695 0.004230112 0.004115809 0.003982669 0.003831508 0.003662144
 0.003476783 0.003275412 0.003064819 0.002845513 0.002627953 0.002412206 0.002204097 0.002002229 0.001803614 0.001607128
 0.001407911 0.001206158 0.00100058 0.0007900719 0.0005726293 0.0003475433 0.0001112785 -0.0001291298 -0.0003719238 -0.0006057699
 -0.000823437 -0.001026086 -0.001209829 -0.001391983 -0.001575359 -0.001772244 -0.001985969 -0.002207065 -0.002435386 -0.002652857
 -0.002859078 -0.003050112 -0.003227369 -0.003401238 -0.003571446 -0.003743321 -0.003913227 -0.004072937 -0.004221231 -0.004349733
 -0.004464554 -0.004570019 -0.004672492 -0.004781669 -0.004893682 -0.005010586 -0.005122035 -0.005223289 -0.005310357 -0.00538008
 -0.00543635 -0.005479089 -0.005513632 -0.005540024 -0.005567855 -0.005597533 -0.005645175 -0.005711239 -0.005802331 -0.005916059
 -0.006036283 -0.006159473 -0.006260053 -0.006339293 -0.006386262 -0.006407064 -0.006408454 -0.006395127 -0.006376754 -0.006354108
 -0.006330924 -0.006307899 -0.006286088 -0.006267225 -0.006253105 -0.006241383 -0.006232515 -0.006220314 -0.006203268 -0.00617958
 -0.006148404 -0.006114062 -0.006076934 -0.006036884 -0.005993711 -0.005940591 -0.005878053 -0.005806474 -0.005728876 -0.005659454
 -0.00560001 -0.00556428 -0.005549453 -0.005556792 -0.005582422 -0.005621773 -0.005671591 -0.005729345 -0.005786232 -0.005837867
 -0.00587111 -0.005877441 -0.005855702 -0.005800318 -0.00573051 -0.005648179 -0.005575002 -0.00551531 -0.005469006 -0.005436963
 -0.00540169 -0.005362575 -0.00531059 -0.005247115 -0.005180938 -0.00511255 -0.005050293 -0.004990346 -0.004925485 -0.004853008
 -0.004762006 -0.004657239 -0.004540039 -0.004416993 -0.004295995 -0.004177642 -0.004064177 -0.003956494 -0.003853419 -0.003764201
 -0.003691782 -0.003641132 -0.003616234 -0.003602839 -0.00360024 -0.003590344 -0.003571093 -0.003546505 -0.003517145 -0.003502113
 -0.003500764 -0.003516724 -0.003545574 -0.003568042 -0.003581689 -0.003567796 -0.003530075 -0.003466437 -0.00338272 -0.003285964
 -0.003180947 -0.003073479 -0.002970369 -0.002877271 -0.002800127 -0.002745335 -0.002706213 -0.002684576 -0.002661327 -0.002632379
 -0.002587247 -0.002522374 -0.002449141 -0.002367888 -0.002294943 -0.002230701 -0.002174072 -0.002123898 -0.002068186 -0.002007969
 -0.001941256 -0.001871333 -0.00180784 -0.001751203 -0.001707616 -0.00167435 -0.001649436 -0.001632583 -0.001622429 -0.00162029
 -0.001628689 -0.001641333 -0.00165819 -0.001665231 -0.001657694 -0.001627988 -0.001572057 -0.001497204 -0.001403331 -0.001302128
 -0.001194622 -0.001085585 -0.0009752921 -0.0008673282 -0.000762551 -0.0006707616 -0.0005923801 -0.0005360056 -0.0004985928 -0.0004762097
 -0.000463999 -0.0004494298 -0.0004313097 -0.0004016526 -0.0003638143 -0.0003186065 -0.0002679781 -0.0002144497 -0.000155718 -9.114665E-05
 -1.949812E-05 6.064961E-05 0.0001453957 0.0002341353 0.0003240593 0.0004145766 0.0005059384 0.0005984949 0.0006845024 0.0007633991
 0.0008193413 0.0008529485 0.0008620605 0.0008513713 0.0008430811 0.0008405205 0.0008676159 0.0009198938 0.001000588 0.00110181
 0.001213348 0.001330211 0.001444802 0.001551268 0.00164472 0.001717067 0.001761523 0.001780675 0.001770371 0.001751588
 0.00172723 0.001718405 0.001730024 0.001759593 0.001808026 0.001855715 0.001901927 0.001939696 0.001970739 0.00201013
 0.002058613 0.002129593 0.002218437 0.00231827 0.002423274 0.00251716 0.00259866 0.0026587 0.002698786 0.002715988
 0.002715946 0.002698039 0.002679511 0.002666506 0.002678653 0.002727072 0.00280671 0.002922632 0.003041223 0.003158853
 0.003247434 0.003303287 0.003329967 0.003327893 0.003320109 0.003307268 0.00330485 0.003311193 0.003325781 0.003347165
 0.003369651 0.003394889 0.003423888 0.003457868 0.003501414 0.003548223 0.003594878 0.003631965 0.003649069 0.003650075
 0.003630443 0.003610114 0.003594331 0.003599069 0.003630248 0.003687462 0.003772104 0.00387613 0.003999206 0.004131711
 0.004273025 0.004408048 0.004536173 0.004644431 0.004734844 0.00481014 0.004874497 0.004943441 0.005017876 0.005108657
 0.005211325 0.005324526 0.005442293 0.005558151 0.005667492 0.005765896 0.005848145 0.005911354 0.005949518 0.005958488
 0.005942015 0.00589721 0.005846198 0.005790524 0.00575744 0.005749933 0.005776683 0.00583796 0.00592113 0.006024535
 0.006127428 0.006227122 0.006298727 0.006340707 0.00633098 0.006278758 0.006189154 0.006081619 0.005989857 0.005920874
 0.005899048 0.005910852 0.005952687 0.006017082 0.006095756 0.006199789 0.006335048 0.006492342 0.006676241 0.006842969
 0.006984503 0.007090545 0.007157788 0.007213855 0.007260087 0.007322832 0.007401654 0.007502511 0.007620498 0.00773368
 0.007835773 0.007892185 0.00790553 0.007860485 0.007772793 0.007658598 0.007533954 0.007424301 0.00733129 0.007266442
 0.007218988 0.007187521 0.007158877 0.007127825 0.007087817 0.007034063 0.006977847 0.006918513 0.006880459 0.006866352
 0.006884107 0.006933962 0.006993299 0.007060346 0.007107083 0.007134347 0.007132184 0.007102857 0.007048351 0.006970752
 0.006874023 0.006763444 0.006647672 0.006533786 0.006433204 0.006348186 0.006284276 0.006240435 0.006217824 0.006213902
 0.0062293 0.006255935 0.006291458 0.006333614 0.006380368 0.006443721 0.006525038 0.006626552 0.006748222 0.006862478
 0.006968029 0.007038468 0.00707861 0.007100081 0.007111514 0.007150109 0.007216424 0.007333814 0.007489362 0.007675538
 0.007874167 0.008060958 0.008229618 0.008363333 0.008476753 0.00857165 0.008666188 0.008770694 0.00887991 0.008997992
 0.009097097 0.00917329 0.009208112 0.00919754 0.00916216 0.009103068 0.009069421 0.009061898 0.009106534 0.009195327
 0.009296648 0.009402238 0.009461553 0.009484523 0.009465784 0.009425276 0.009398203 0.009381055 0.009390979 0.009396834
 0.009378222 0.009319756 0.009198649 0.009045814 0.008861227 0.008698449 0.008571032 0.008510089 0.008526406 0.008602652
 0.008740499 0.008887826 0.009041884 0.009160181 0.009243452 0.009288941 0.009300819 0.009301532 0.00929334 0.009296902
 0.009309554 0.009338751 0.009372449 0.009398777 0.009396766 0.009336078 0.009211166 0.008996945 0.008732428 0.008421511
 0.008133681 0.007895741 0.007748469 0.007715457 0.007765194 0.00790337 0.00804139 0.008172291 0.008217899 0.008173671
 0.008039704 0.007820804 0.007581791 0.007324169 0.007092504 0.006876914 0.006664468 0.006449356 0.006205929 0.005947409
 0.005680251 0.005426961 0.005216407 0.00506014 0.004980832 0.0049671 0.005024876 0.005119366 0.005240706 0.005357658
 0.005456843 0.005543529 0.005614782 0.005695049 0.00578822 0.005881676 0.005974879</values></Ydata></AB><ScSm><Ydata ylabel="Single channel"><values byteorder="INTEL" format="FLOAT32" numvalues="1814"> 0.07096887 0.07097451 0.07104865 0.07121029 0.07142587 0.07162982 0.07176892 0.07183518 0.07184982 0.07182205
 0.07175612 0.07170023 0.07173944 0.07191136 0.0721501 0.07233065 0.0723697 0.07229905 0.07224787 0.07231773
 0.07244684 0.07242659 0.07209751 0.07153223 0.0709895 0.07067559 0.07061449 0.07079608 0.0713029 0.07207233
 0.0726306 0.07243334 0.07155368 0.07070669 0.07045714 0.07067768 0.07088687 0.07080069 0.07041977 0.06992081
 0.06970242 0.07027603 0.07176533 0.07349602 0.07423812 0.07298045 0.06965415 0.06536507 0.06198283 0.06113362
 0.0630549 0.06627406 0.06871186 0.069337 0.06866135 0.06769343 0.0668558 0.06610566 0.06563079 0.06589442
 0.06699318 0.06821793 0.06841572 0.06697482 0.06455353 0.06261528 0.06209305 0.06280255 0.0642239 0.0660688
 0.06748287 0.06659328 0.06235228 0.05686887 0.0544675 0.05757636 0.06413604 0.0696172 0.07105175 0.06868915
 0.06467275 0.06126238 0.05999045 0.06124943 0.06421514 0.06753403 0.07014905 0.0713468 0.07057009 0.06790189
 0.0645455 0.0622417 0.06219508 0.06459906 0.0685982 0.07237181 0.07396412 0.07272887 0.06975554 0.06671733
 0.06477331 0.06458119 0.06645948 0.07005042 0.07429864 0.07806778 0.08060692 0.08162228 0.08133556 0.08034629
 0.07917668 0.07818244 0.07786945 0.07858193 0.07967338 0.0797543 0.07820822 0.07602277 0.07477756 0.07501354
 0.07580076 0.07586441 0.07487256 0.07322869 0.07081182 0.06695361 0.06197322 0.0575846 0.05518429 0.0547931
 0.05607782 0.05888678 0.06203908 0.06325646 0.06165243 0.05932074 0.05925262 0.06214671 0.06604753 0.06873599
 0.06978206 0.0703996 0.07187583 0.07425251 0.0761589 0.07585271 0.07295656 0.06942806 0.06817354 0.07019137
 0.07360911 0.07598187 0.07686865 0.07754943 0.07879595 0.0796771 0.07852814 0.07492405 0.07074104 0.06899852
 0.07123034 0.07595022 0.07973086 0.07974143 0.07565349 0.06971544 0.0649978 0.06326897 0.06452227 0.06814234
 0.07358249 0.07975234 0.08474488 0.08690579 0.08603556 0.08328906 0.07985705 0.07586446 0.07100277 0.06637068
 0.0646975 0.06776424 0.07412805 0.08032605 0.08396599 0.0849198 0.0839745 0.08135094 0.07692911 0.07168975
 0.0681915 0.06858137 0.07200812 0.07510462 0.07551765 0.0740553 0.07295122 0.07307789 0.07362418 0.07381472
 0.07401909 0.075125 0.07727065 0.07951242 0.08073852 0.08067818 0.07994621 0.07932314 0.07904316 0.07862456
 0.07755017 0.07630925 0.07633095 0.07842019 0.08165018 0.08431522 0.08563949 0.08605458 0.08605762 0.08534138
 0.08324269 0.07999234 0.07722285 0.07675578 0.07883869 0.08199131 0.0845438 0.08583613 0.08606157 0.08566362
 0.08503486 0.08438641 0.08381413 0.08357629 0.08402905 0.08511417 0.08624317 0.08688968 0.08702023 0.08682567
 0.08634656 0.08555542 0.08462848 0.08394775 0.08382705 0.08427816 0.08505583 0.08587857 0.08652924 0.08681336
 0.08662654 0.08610401 0.08554065 0.08512166 0.08485883 0.08477631 0.08496797 0.08542228 0.08593907 0.08629738
 0.08643089 0.08640202 0.08627771 0.0860815 0.08583194 0.0855912 0.08546841 0.08554464 0.0857726 0.08600323
 0.08615814 0.08631004 0.08652508 0.08670434 0.08668837 0.08647501 0.08623336 0.08611853 0.08614679 0.08623938
 0.08630926 0.08627576 0.08605631 0.08563852 0.0851782 0.08494207 0.08509368 0.08557375 0.0862 0.08680184
 0.08724808 0.08746599 0.08749478 0.08744636 0.08737664 0.08724831 0.08703215 0.08679902 0.08669867 0.08685037
 0.0872352 0.08769828 0.08807376 0.08829281 0.08837959 0.08840974 0.08848182 0.08864314 0.08881634 0.0888717
 0.08879364 0.08871178 0.0887475 0.0888771 0.08896821 0.08893256 0.08882719 0.08879659 0.08891825 0.0891321
 0.08932947 0.08947664 0.08962644 0.08982404 0.09002189 0.0901037 0.09000963 0.08982141 0.08968163 0.08964337
 0.08965853 0.0897032 0.08982824 0.09005804 0.09030718 0.09045233 0.09046623 0.09043889 0.09046327 0.09052756
 0.09053811 0.09043343 0.09025176 0.09009053 0.09002358 0.09005846 0.09014785 0.09022544 0.09024125 0.09018364
 0.0900778 0.08996059 0.08985446 0.08977409 0.08975729 0.08985743 0.09007174 0.09028915 0.09035448 0.09020872
 0.0899525 0.08975276 0.08968703 0.08968722 0.08962997 0.0894618 0.08922929 0.08901052 0.08884557 0.08872822
 0.08863559 0.08855472 0.08850025 0.08851659 0.08863749 0.08881911 0.08893508 0.08888017 0.08867779 0.08845536
 0.08831973 0.08828482 0.08830358 0.08832848 0.08834718 0.08838949 0.08848777 0.08861439 0.0886893 0.08867119
 0.08860856 0.0885865 0.08865856 0.08883168 0.08906099 0.08924894 0.0893088 0.08925484 0.08919238 0.08920535
 0.08928785 0.0893919 0.08949928 0.08962286 0.08976675 0.08992003 0.09008622 0.09029325 0.09056161 0.09086934
 0.0911569 0.09137209 0.09151669 0.09165263 0.09185696 0.09216154 0.09253077 0.09289357 0.09319839 0.09344596
 0.09367381 0.0939094 0.09414907 0.09439136 0.09466839 0.09501314 0.09540723 0.09579494 0.09614508 0.09647138
 0.09679823 0.09713388 0.09747769 0.09783689 0.09823263 0.09868283 0.09916502 0.09960555 0.09993344 0.10015
 0.100333 0.1005765 0.1009281 0.1013519 0.1017386 0.1019895 0.1021226 0.1022667 0.1025199 0.1028468
 0.10315 0.1034137 0.1037215 0.1041338 0.1045981 0.1050003 0.1052821 0.1054887 0.1057075 0.1059713
 0.10623 0.106418 0.106538 0.1066557 0.1068192 0.1070221 0.1072599 0.1075708 0.1079799 0.1084337
 0.1088376 0.1091448 0.109374 0.109561 0.1097266 0.1098764 0.1100014 0.1100932 0.1101721 0.1102751
 0.1104016 0.1105077 0.1105718 0.1106343 0.1107498 0.1109347 0.1111822 0.1114925 0.1118502 0.1122021
 0.1125069 0.1128003 0.1131585 0.1135806 0.1139573 0.1141881 0.1142898 0.1143481 0.1144069 0.1144639
 0.114549 0.1147301 0.1150334 0.1154089 0.1157907 0.1161563 0.1165175 0.116877 0.1172085 0.1174672
 0.1176194 0.1176721 0.1176792 0.1177175 0.1178502 0.1180951 0.1184141 0.118737 0.119005 0.1191883
 0.1192673 0.119233 0.1191273 0.1190536 0.1190973 0.1192302 0.1193205 0.119241 0.1189512 0.1184807
 0.1178702 0.1171532 0.1163796 0.1156287 0.114986 0.1145093 0.114227 0.1141696 0.1143799 0.1148667
 0.1155536 0.1163015 0.1169852 0.1175224 0.117832 0.1178214 0.1174528 0.1167968 0.1159904 0.1151561
 0.1143682 0.1136554 0.113002 0.1123832 0.1118448 0.1115415 0.1116678 0.112344 0.1135559 0.1151649
 0.1169501 0.1186763 0.1201787 0.1214162 0.1224472 0.1233535 0.1241886 0.1249865 0.1257815 0.1265845
 0.1273534 0.1280271 0.1285918 0.129088 0.1295543 0.1299915 0.1303776 0.1306934 0.1309383 0.1311376
 0.1313215 0.1314803 0.1315667 0.1315592 0.131497 0.1314279 0.1313435 0.1311861 0.1309035 0.1304887
 0.1299989 0.12957 0.129403 0.1296911 0.1305148 0.1317904 0.1333238 0.1349232 0.1364581 0.137831
 0.1389517 0.1397756 0.1403475 0.1407693 0.1411296 0.1414759 0.14183 0.1421986 0.142571 0.1429283
 0.1432628 0.1435899 0.1439397 0.1443275 0.1447285 0.1450916 0.1453909 0.1456597 0.1459642 0.1463413
 0.1467643 0.1471727 0.1475378 0.1478863 0.1482477 0.1485987 0.1488886 0.1491099 0.1493131 0.1495555
 0.1498651 0.1502391 0.1506437 0.1510176 0.1513126 0.151537 0.1517422 0.1519687 0.1522211 0.1524873
 0.1527619 0.1530436 0.1533279 0.1536148 0.1539174 0.1542445 0.154572 0.1548505 0.1550546 0.1552158
 0.1553934 0.1556174 0.1558671 0.1561049 0.156322 0.1565512 0.1568328 0.1571676 0.1575063 0.1577873
 0.1579869 0.158134 0.1582814 0.1584667 0.1586952 0.158949 0.1592036 0.1594411 0.1596589 0.1598701
 0.1600931 0.1603347 0.1605847 0.1608276 0.1610567 0.1612778 0.1615021 0.1617354 0.1619796 0.1622427
 0.1625351 0.1628481 0.163144 0.1633849 0.1635685 0.1637254 0.1638853 0.1640585 0.164244 0.1644414
 0.1646507 0.164871 0.1651 0.1653337 0.1655654 0.1657902 0.1660086 0.1662246 0.1664407 0.1666568
 0.1668756 0.1671057 0.1673544 0.1676163 0.1678739 0.1681117 0.1683285 0.1685371 0.1687504 0.1689702
 0.1691857 0.1693871 0.1695781 0.1697726 0.1699799 0.1701966 0.1704135 0.1706236 0.1708244 0.1710186
 0.171214 0.1714186 0.171634 0.171855 0.1720756 0.1722931 0.1725074 0.1727187 0.1729282 0.173139
 0.1733541 0.1735722 0.1737899 0.1740054 0.1742175 0.1744237 0.1746215 0.1748123 0.1750036 0.175205
 0.1754217 0.1756503 0.1758823 0.1761103 0.1763312 0.1765445 0.1767539 0.176964 0.1771738 0.1773791
 0.1775846 0.1778015 0.178031 0.1782625 0.1784892 0.1787134 0.1789362 0.1791557 0.1793733 0.1795926
 0.1798154 0.1800433 0.1802775 0.1805152 0.1807486 0.1809712 0.1811793 0.1813713 0.1815473 0.1817088
 0.1818615 0.1820184 0.1821915 0.1823812 0.1825797 0.1827821 0.1829872 0.1831931 0.1833991 0.1836078
 0.1838183 0.1840278 0.1842399 0.1844599 0.1846864 0.1849134 0.1851367 0.1853531 0.185563 0.1857722
 0.1859849 0.1862005 0.1864195 0.186644 0.1868705 0.1870931 0.1873138 0.1875375 0.1877628 0.1879855
 0.1882031 0.1884127 0.1886151 0.1888192 0.1890312 0.1892477 0.1894638 0.1896775 0.1898871 0.1900961
 0.190314 0.1905405 0.1907634 0.1909796 0.1911976 0.1914192 0.1916376 0.1918529 0.1920693 0.1922889
 0.1925155 0.1927484 0.1929751 0.1931867 0.1933918 0.1936 0.1938087 0.1940161 0.1942221 0.194409
 0.1945286 0.1944639 0.1939279 0.1923488 0.1888459 0.1823919 0.1722175 0.1582936 0.1415086 0.123348
 0.10534 0.08865649 0.0740004 0.06169777 0.05184386 0.04439048 0.03919928 0.03614487 0.035229 0.03669663
 0.04115572 0.04921258 0.0601225 0.07060957 0.07615012 0.0745388 0.06798889 0.06111326 0.05710045 0.05618255
 0.05700307 0.0583957 0.05998631 0.06198768 0.06476682 0.06842242 0.07276762 0.07778306 0.08383809 0.09121303
 0.09952728 0.1078981 0.1156994 0.1230461 0.1305002 0.1383856 0.1464479 0.1541072 0.1609183 0.1667933
 0.1719191 0.1765559 0.1808842 0.1849774 0.1888603 0.1925263 0.1958563 0.1985773 0.2003931 0.2012127
 0.2012586 0.2009461 0.2006442 0.2005305 0.2006242 0.2008923 0.2013098 0.2018624 0.2025355 0.2033045
 0.2041319 0.2049808 0.2058269 0.2066506 0.2074332 0.208166 0.208849 0.209478 0.2100485 0.2105683
 0.2110478 0.2114878 0.211889 0.2122625 0.2126197 0.2129641 0.2132977 0.213623 0.2139363 0.2142264
 0.2144844 0.2147117 0.2149194 0.2151209 0.2153224 0.2155221 0.2157206 0.2159227 0.2161303 0.2163399
 0.2165502 0.2167628 0.2169775 0.217192 0.2174035 0.2176083 0.2178038 0.2179939 0.2181852 0.2183791
 0.218572 0.2187627 0.218952 0.219138 0.2193184 0.2194948 0.2196737 0.2198621 0.2200612 0.2202637
 0.2204621 0.2206592 0.2208621 0.2210699 0.221277 0.2214843 0.221695 0.2219074 0.222121 0.2223384
 0.2225518 0.2227406 0.2228957 0.2230369 0.2231983 0.2233989 0.2236265 0.2238512 0.2240568 0.2242544
 0.2244613 0.2246745 0.2248726 0.2250366 0.2251725 0.2253194 0.2255235 0.2257888 0.2260711 0.2263303
 0.2265654 0.2267913 0.2270175 0.2272534 0.2274969 0.2277142 0.2278684 0.227978 0.2281235 0.2283795
 0.2287429 0.22913 0.2294542 0.2296985 0.2299055 0.2301192 0.2303604 0.230614 0.2308015 0.2308313
 0.2307434 0.2307445 0.2310209 0.2315499 0.2321454 0.2326457 0.2330128 0.2332937 0.2335385 0.2337501
 0.233884 0.2339017 0.2338499 0.2338829 0.2341578 0.2346727 0.2352502 0.2357141 0.2360303 0.2362539
 0.2364331 0.2365908 0.2366865 0.2365706 0.2361455 0.2356365 0.2355253 0.2360821 0.2370583 0.2379515
 0.2385031 0.2388243 0.2391035 0.2393771 0.2395933 0.239661 0.2393358 0.2383574 0.2369582 0.2360088
 0.236298 0.2377372 0.2395068 0.2408759 0.2416641 0.2420581 0.2422934 0.2424974 0.2425936 0.2423078
 0.2414726 0.24043 0.2399471 0.2405092 0.2417782 0.2429587 0.2436116 0.2438845 0.244089 0.2443496
 0.2445197 0.2441301 0.2426506 0.2402739 0.2383175 0.2382965 0.2404378 0.2434064 0.2456296 0.2466515
 0.2470085 0.2470697 0.2464995 0.2448664 0.24229 0.2393904 0.2370996 0.2365333 0.2382468 0.2413119
 0.2438482 0.2448808 0.2451598 0.245919 0.2474028 0.2488792 0.2495937 0.2493537 0.2483937 0.2469559
 0.2451723 0.2434585 0.2427561 0.2438681 0.2464893 0.2493073 0.2512168 0.2521627 0.2525764 0.2520916
 0.249281 0.2433757 0.2364163 0.2326849 0.2349232 0.2414657 0.2480285 0.2519194 0.253513 0.2542422
 0.2546822 0.2543855 0.2521396 0.2466281 0.2384953 0.231647 0.2306101 0.2360533 0.244032 0.2496718
 0.2504925 0.2466786 0.2402078 0.2342561 0.231891 0.234213 0.2398863 0.2464602 0.2518312 0.254811
 0.2551233 0.2533004 0.250634 0.248848 0.2488522 0.249392 0.2479993 0.2441062 0.2399984 0.2374687
 0.2350482 0.2307254 0.2263612 0.226462 0.2323182 0.239844 0.244174 0.244598 0.2436638 0.2425244
 0.2389466 0.2305204 0.2192301 0.2115152 0.2126412 0.2212397 0.2305309 0.234953 0.2345713 0.2330924
 0.2329251 0.23274 0.22937 0.2219606 0.2140788 0.210717 0.2129744 0.2170702 0.2188166 0.2169518
 0.2116531 0.2032039 0.1944348 0.1915871 0.1990323 0.2139143 0.2283989 0.2361315 0.2345462 0.2234366
 0.2058572 0.1900087 0.1852521 0.1937167 0.2077133 0.2168151 0.2161317 0.2071634 0.1933455 0.1777172
 0.1643456 0.1587314 0.1645042 0.1797561 0.1971048 0.2073456 0.2045161 0.1905441 0.1757033 0.1712188
 0.1790286 0.1904342 0.1958549 0.1935306 0.1881428 0.1847796 0.1860026 0.191422 0.1981117 0.2033492
 0.206785 0.2073523 0.2003255 0.1830074 0.1622778 0.1500706 0.1509732 0.1598546 0.1714231 0.1849788
 0.1982221 0.2039841 0.1983116 0.1879674 0.1846874 0.1927226 0.2052023 0.2125575 0.2120016 0.2080329
 0.2054734 0.204326 0.2021916 0.1998388 0.2014015 0.208673 0.217979 0.2242812 0.226423 0.2266786
 0.2269007 0.2271145 0.2268193 0.2258353 0.2242275 0.222424 0.2210847 0.2203566 0.2197422 0.2188599
 0.2174113 0.2140312 0.2065949 0.1952227 0.1841772 0.1784967 0.1786652 0.1809547 0.1829662 0.18503
 0.1850278 0.1769403 0.158809 0.1392639 0.1312452 0.1394997 0.1570442 0.1731083 0.1813606 0.1804233
 0.1706581 0.1544502 0.1388998 0.1335974 0.1427737 0.1612272 0.1799026 0.1937105 0.2020884 0.2046541
 0.2002828 0.190257 0.1795291 0.1738915 0.1764395 0.186192 0.1984215 0.2058837 0.2023549 0.1888183
 0.1762238 0.1774318 0.1937145 0.212629 0.2220027 0.2222694 0.2215403 0.2229897 0.2232777 0.2214046
 0.2222597 0.2299032 0.2415897 0.2504777 0.2516331 0.2439669 0.2296056 0.2144018 0.2064155 0.2094263
 0.2185975 0.2257097 0.2271051 0.2232027 0.2136421 0.1993243 0.1875698 0.1877194 0.2003169 0.215866
 0.225621 0.2295491 0.2323976 0.2355115 0.2352044 0.2283604 0.2176505 0.2098946 0.2093045 0.2137868
 0.2184727 0.2208551 0.2208152 0.217706 0.2107569 0.2023365 0.1979798 0.2015744 0.211334 0.2214756
 0.2274047 0.228595 0.2271903 0.2252448 0.2233521 0.2208472 0.2172028 0.2138131 0.2137091 0.2182984
 0.2250843 0.2302136 0.2328788 0.235577 0.2401835 0.2453586 0.2481679 0.2472784 0.244227 0.2420845
 0.242994 0.2464689 0.2497525 0.2501705 0.247678 0.2451438 0.2457111 0.2498038 0.2550712 0.2590662
 0.261237 0.26242 0.2634095 0.2642713 0.2642995 0.2625548 0.2592083 0.2563298 0.2564197 0.2599238
 0.2648053 0.2686418 0.2705698 0.2711489 0.2710471 0.2703453 0.2689196 0.2670647 0.2655043 0.2648287
 0.2650746 0.2658695 0.266819 0.2676832 0.2683551 0.2688279 0.2691548 0.2693771 0.2695165 0.2696217
 0.2697355 0.2698134 0.2697739 0.2696591 0.2696502 0.2698657 0.2702112 0.2704813 0.2705405 0.2703286
 0.2697631 0.2687708 0.2674167 0.2658795 0.2642607 0.2625197 0.2607075 0.259228 0.2587245 0.2595983
 0.2616332 0.2641218 0.2663467 0.2679415 0.2688965 0.2693714 0.269551 0.2695866 0.2695687 0.2695175
 0.2694092 0.2692214 0.2689556 0.2686301 0.2682697 0.2679063 0.2675777 0.2673046 0.2670678 0.2668141
 0.2664889 0.2660665 0.2655613 0.2650162 0.2644686 0.2639115 0.2632861 0.2625248 0.2616091 0.260591
 0.2595624 0.2586018 0.257729 0.2568972 0.2560352 0.2550975 0.254065 0.2529105 0.2516178 0.2502558
 0.2489844 0.2479326 0.247082 0.2462942 0.2454329 0.2444384 0.2433182 0.2421107 0.2408579 0.2395849
 0.2382937 0.2369719 0.2356001 0.234155 0.232618 0.2309858 0.2292699 0.2274917 0.2256807 0.2238598
 0.222012 0.2200602 0.2178858 0.2153638 0.2123831 0.2088597 0.2047686 0.2001801 0.1952604 0.1902229
 0.1852656 0.1805416 0.1761691 0.1722501 0.1688714 0.1660945 0.1639566 0.1624849 0.1617069 0.1616416
 0.1622781 0.1635634 0.1654116 0.16772 0.1703702 0.1732156 0.176083 0.1788083 0.1812919 0.1835331
 0.1856061 0.1875831 0.1894717 0.1912267 0.1928095 0.1942115 0.1954271 0.1964423 0.1972641 0.1979389
 0.1985229 0.1990399 0.1994817 0.1998447 0.200151 0.2004274 0.200675 0.2008791 0.2010471 0.2012192
 0.2014353 0.2017068 0.202029 0.2024069 0.2028545 0.2033751 0.2039517 0.2045611 0.2051906 0.2058382
 0.2065079 0.2072155 0.2079993 0.2089131 0.2100007 0.2112754 0.2127133 0.2142556 0.2158214 0.217329
 0.2187108 0.219913 0.2208935 0.2216332 0.222143 0.2224533 0.2225955 0.2225969 0.2224849 0.2222867
 0.2220191 0.2216858 0.2212901 0.2208441 0.2203579 0.2198289 0.2192545 0.218652 0.21805 0.2174621
 0.2168793 0.2162905 0.2156973 0.2151125 0.2145551 0.2140428 0.2135727 0.2131095 0.2126078 0.2120509
 0.2114556 0.2108342 0.2101662 0.2094164 0.2085677 0.2076215 0.206577 0.205428 0.2041771 0.2028351
 0.201409 0.1999043 0.198336 0.1967213 0.1950637 0.1933494 0.1915509 0.1896355 0.1875974 0.185496
 0.1834412 0.1815221 0.1797566 0.1781123 0.1765583 0.1750855 0.1736896 0.1723525 0.1710519 0.169787
 0.1685794 0.167446 0.1663834 0.165381 0.1644365 0.1635603 0.1627779 0.1621182 0.1615821 0.1611286
 0.1607096 0.1603136 0.159972 0.1597331 0.1596257 0.1596309 0.1596801 0.1596896 0.1596068 0.1594391
 0.159245 0.1590864 0.1589796 0.1588996 0.1588167 0.1587036 0.1585111 0.1581655 0.1575894 0.1567168
 0.1555098 0.1539836 0.1522114 0.1503098 0.1484195 0.1466757 0.1451719 0.1439557 0.1430375 0.1423736
 0.1418652 0.1414261 0.1410516 0.1408049 0.1407487 0.1408785 0.1410882 0.1412253 0.1412332 0.1412224
 0.1413677 0.1417599 0.1423678 0.1430887 0.143807 0.1444357 0.1449264 0.145256 0.1454362 0.1455183
 0.145543 0.1454995 0.1453673 0.1451594 0.1448924 0.144562 0.1441672 0.1437125 0.1431866 0.1425813
 0.1419072 0.1411665 0.1403465 0.1394398 0.138426 0.1372746 0.136041 0.1349289 0.1341984 0.1340228
 0.1344106 0.1351991 0.1361567 0.1371457 0.1381134 0.1389035 0.1392791 0.1392897 0.1394741 0.1404719
 0.1424082 0.1447543 0.1468039 0.1481852 0.1488904 0.1489992 0.1485621 0.1476452 0.1462759 0.1443987
 0.1420193 0.1392913 0.1363769 0.1333833 0.1304699 0.1278346 0.1255897 0.1237689 0.1223807 0.1214612
 0.1211187 0.1209679 0.119145 0.1132654 0.1040771 0.09711823 0.09807985 0.106428 0.1157704 0.1206212
 0.1207782 0.1191199 0.1176596 0.1167156 0.1161858 0.1161995 0.1168762 0.118076 0.1194175 0.1205
 0.1211552 0.1214242 0.121276 0.1203678 0.1179852 0.113296 0.1060214 0.09701607 0.08798274 0.08048996
 0.0752618 0.07217441 0.07060225 0.06979949 0.06927073 0.06898013 0.06921834 0.07025377 0.07211691 0.07467484
 0.07777181 0.08117137 0.0844504 0.08717796 0.08924253 0.09085007 0.09217714 0.09316794 0.09368484 0.09371318
 0.09336652 0.09277911 0.09204794 0.09123081 0.09032971 0.08928508 0.08808006 0.08688286 0.08598556 0.08554365
 0.0854553 0.08551967 0.08560604 0.08565398 0.0856342 0.08555251 0.08544124 0.08535989 0.08541575 0.08570045
 0.0861716 0.08666486 0.08703835 0.08726493 0.08739514 0.08743607 0.08725314 0.08668812 0.08585557 0.0851443
 0.08473355 0.08428432 0.08337787 0.08214499 0.08118753 0.08091921 0.08119677 0.08157289 0.0817153 0.08156743
 0.0812968 0.08119565 0.08149424 0.08210231</values></Ydata></ScSm><ScRf><Ydata ylabel="Single channel"><values byteorder="INTEL" format="FLOAT32" numvalues="1820"> 0.0604658 0.06061995 0.06071269 0.06074495 0.06074043 0.06074311 0.06080078 0.06093556 0.06112584 0.06131538
 0.06144986 0.06151396 0.06152627 0.06150204 0.06144971 0.06140795 0.06144354 0.06158605 0.06178235 0.06193288
 0.0619731 0.06193099 0.06190965 0.06198432 0.06209487 0.06206575 0.06177072 0.06128098 0.06082002 0.06056068
 0.06051876 0.06068315 0.061125 0.06179256 0.06227975 0.0621153 0.06135575 0.06061376 0.0603809 0.06055681
 0.06073295 0.0606661 0.0603545 0.05994458 0.05977257 0.06027579 0.06156296 0.06305577 0.06369489 0.06260953
 0.0597409 0.05604003 0.0531171 0.05237983 0.05404269 0.05683762 0.05896234 0.05951838 0.05894765 0.05812515
 0.05741523 0.05677431 0.05635929 0.05657332 0.05750971 0.05856386 0.05873939 0.05750163 0.05541463 0.05374303
 0.05329553 0.05391459 0.05515166 0.0567572 0.05799023 0.05722761 0.05356135 0.04881815 0.04674462 0.0494454
 0.05513539 0.0598861 0.06112235 0.05906435 0.05558048 0.05263617 0.05155308 0.052657 0.05522651 0.05809426
 0.06035395 0.0613925 0.06072921 0.05843664 0.05555163 0.05356944 0.05352549 0.05559472 0.05905276 0.06233113
 0.06372828 0.06266923 0.06008942 0.05744345 0.05574786 0.05558055 0.05721658 0.06034152 0.06403921 0.06732471
 0.06954385 0.07043567 0.07018909 0.06932679 0.06830753 0.06744356 0.06717414 0.06779675 0.06874936 0.06882542
 0.06748961 0.0655985 0.06452148 0.06472643 0.06540689 0.06545922 0.06459783 0.06317383 0.06108284 0.05774643
 0.05344351 0.04966075 0.0476035 0.04727993 0.04839745 0.05083312 0.05357506 0.0546492 0.05327695 0.05126497
 0.05120751 0.05371589 0.05709789 0.05943079 0.06034514 0.06089656 0.06219956 0.06428435 0.06595594 0.06569801
 0.06318107 0.06011019 0.05902214 0.06079345 0.06379392 0.06588736 0.06668238 0.0672916 0.06839024 0.06917173
 0.06818949 0.0650764 0.06146821 0.05999042 0.06196787 0.06609698 0.06939238 0.06939381 0.06582205 0.0606458
 0.05655049 0.05507846 0.05621582 0.05941956 0.06421524 0.06965801 0.07408379 0.07603569 0.0753198 0.07293714
 0.0699411 0.0664579 0.06222095 0.0581895 0.05676219 0.05951405 0.06518178 0.07071273 0.07398871 0.07488678
 0.07409544 0.07180689 0.06791596 0.06330065 0.06024481 0.06066132 0.06378387 0.06660089 0.06701101 0.06574214
 0.06479789 0.06496093 0.06550235 0.06572482 0.06596048 0.06700799 0.06899319 0.07107074 0.07224062 0.07225032
 0.07164189 0.07111843 0.07090408 0.07057804 0.06967752 0.06863826 0.06874029 0.07070217 0.07368476 0.07614998
 0.07740022 0.07782803 0.07788427 0.07728931 0.07543879 0.07254182 0.07008652 0.06973626 0.071719 0.07468149
 0.07709235 0.07834366 0.07861336 0.07831132 0.07780065 0.07727867 0.07683569 0.07670382 0.07720043 0.07826816
 0.07937083 0.08002888 0.08020985 0.0800856 0.07969373 0.07901549 0.0782223 0.07767069 0.07764536 0.07814728
 0.07894249 0.07976916 0.080428 0.08074048 0.08061109 0.08016875 0.07969397 0.07936428 0.07918976 0.07918663
 0.07943721 0.07993004 0.08047998 0.08088039 0.08106592 0.08109164 0.0810211 0.08088084 0.08069142 0.08051118
 0.08044216 0.08056204 0.08082879 0.08110441 0.08131647 0.08153138 0.08180372 0.08202953 0.08205218 0.08187307
 0.08166161 0.08157125 0.08161812 0.08172694 0.08181753 0.08181626 0.08164495 0.08128962 0.08089527 0.08071408
 0.08090448 0.08141465 0.08206959 0.08269755 0.08316481 0.0834019 0.08345363 0.08343507 0.08340102 0.08330713
 0.08311528 0.08289574 0.08280735 0.08297665 0.08338333 0.08386724 0.08425841 0.08448613 0.08457717 0.08461526
 0.08470604 0.08489572 0.08509813 0.08517405 0.08510488 0.08502452 0.08505946 0.08518647 0.08527263 0.08523289
 0.08512818 0.08510333 0.08523594 0.08546682 0.08568291 0.08584035 0.08598749 0.08617773 0.08637513 0.08646397
 0.0863737 0.08617777 0.08602335 0.08597443 0.0859857 0.08602585 0.08614026 0.08635695 0.08659619 0.0867351
 0.08674434 0.08671432 0.08673925 0.08680606 0.08681799 0.08671135 0.08652427 0.08635706 0.08628942 0.08633348
 0.08643841 0.08652656 0.08654001 0.08647203 0.08636007 0.08624715 0.08615344 0.08609268 0.08610673 0.08624811
 0.0865005 0.08673409 0.086786 0.08660756 0.08631942 0.0861039 0.08604144 0.08605555 0.08600982 0.08584087
 0.08559382 0.08535282 0.08516514 0.08502827 0.08492072 0.08483174 0.08477738 0.08479705 0.08491224 0.08506885
 0.08514398 0.0850464 0.08480711 0.08454753 0.08436914 0.08429448 0.08428793 0.08429763 0.08429611 0.08430885
 0.08437813 0.08448024 0.08452296 0.08445347 0.08432887 0.08425722 0.08430704 0.08447881 0.0847061 0.08487228
 0.08488842 0.08478334 0.08467894 0.08466429 0.08472754 0.08481254 0.08489382 0.08497804 0.08506881 0.08516397
 0.08527817 0.08544265 0.08567412 0.0859479 0.08620445 0.08638761 0.08648984 0.08656862 0.08671013 0.08696161
 0.08729247 0.08762062 0.08787992 0.08806777 0.08823134 0.08840936 0.08859897 0.08878799 0.08899864 0.08926752
 0.08959015 0.08991878 0.09021713 0.09049112 0.09076517 0.09105168 0.09135039 0.09166696 0.09202415 0.09244069
 0.09288542 0.09326905 0.0935145 0.09363817 0.09374397 0.09394085 0.09426853 0.09467155 0.09502621 0.09523146
 0.09531018 0.09539543 0.09558588 0.09584655 0.09608966 0.09631708 0.09662107 0.09704882 0.09752039 0.0979011
 0.09813161 0.09827131 0.0984239 0.09862944 0.09883356 0.09896472 0.09902748 0.09909418 0.09921426 0.09937802
 0.0995798 0.09985993 0.1002433 0.100673 0.1010516 0.1013297 0.1015244 0.1016719 0.1017949 0.1018972
 0.1019652 0.1019912 0.1020062 0.1020606 0.1021574 0.1022432 0.1022822 0.1023076 0.1023776 0.1025171
 0.1027243 0.1029973 0.1033175 0.1036304 0.1038949 0.1041474 0.1044655 0.1048488 0.1051854 0.1053707
 0.1054229 0.1054377 0.105466 0.1054993 0.1055547 0.1056931 0.1059429 0.1062621 0.1065946 0.106927
 0.107274 0.1076328 0.1079657 0.1082146 0.1083348 0.1083315 0.1082716 0.1082539 0.1083568 0.1085968
 0.108923 0.109255 0.1095348 0.1097388 0.1098485 0.1098484 0.1097747 0.109735 0.1098253 0.1100235
 0.1101931 0.1101997 0.1100001 0.109623 0.1091063 0.1084801 0.1077954 0.1071347 0.1065809 0.1061832
 0.1059589 0.1059281 0.1061304 0.1065832 0.1072261 0.1079324 0.1085835 0.1091041 0.1094223 0.1094479
 0.1091364 0.1085501 0.1078242 0.1070821 0.1063944 0.1057795 0.10521 0.1046496 0.104132 0.1038004
 0.1038434 0.1043833 0.1054141 0.106804 0.1083375 0.1097879 0.1110083 0.1119813 0.1127842 0.1135031
 0.1141816 0.114838 0.1154944 0.1161585 0.1167926 0.1173425 0.1178017 0.1182167 0.1186257 0.1190204
 0.1193672 0.1196459 0.1198702 0.1200815 0.1203072 0.1205117 0.1206151 0.1205818 0.1204641 0.1203386
 0.1202235 0.1200719 0.1198234 0.119453 0.1190023 0.1185966 0.1184222 0.1186492 0.1193366 0.120395
 0.1216498 0.1229506 0.1242121 0.1253629 0.1263104 0.1269917 0.1274361 0.127743 0.1280064 0.1282751
 0.1285623 0.1288639 0.1291671 0.1294616 0.1297494 0.1300455 0.1303668 0.1307126 0.1310515 0.1313402
 0.1315684 0.1317813 0.1320471 0.1323975 0.1327965 0.1331747 0.1334991 0.1337989 0.1341109 0.1344174
 0.1346667 0.1348487 0.1350154 0.1352302 0.1355223 0.1358818 0.1362633 0.1365977 0.1368372 0.1370007
 0.1371537 0.1373434 0.1375693 0.1378116 0.1380617 0.138318 0.1385752 0.1388347 0.1391139 0.1394241
 0.139735 0.1399864 0.1401505 0.1402685 0.1404128 0.1406169 0.1408542 0.1410794 0.1412794 0.1414873
 0.1417472 0.1420639 0.1423862 0.1426473 0.1428204 0.142934 0.1430412 0.1431821 0.1433689 0.1435904
 0.143824 0.1440471 0.1442499 0.1444421 0.1446431 0.1448614 0.1450854 0.1452963 0.145488 0.1456715
 0.1458626 0.146069 0.1462926 0.1465393 0.1468186 0.1471239 0.14742 0.1476648 0.1478439 0.1479779
 0.1480984 0.1482262 0.1483714 0.1485386 0.1487278 0.1489335 0.1491474 0.1493613 0.149571 0.1497766
 0.1499807 0.1501853 0.1503904 0.1505944 0.150798 0.1510087 0.1512355 0.1514751 0.1517093 0.1519226
 0.1521163 0.1523039 0.1524954 0.1526892 0.1528777 0.153057 0.1532338 0.153419 0.1536166 0.15382
 0.1540203 0.1542143 0.1544043 0.1545948 0.1547905 0.1549924 0.1551984 0.1554047 0.1556086 0.1558104
 0.1560116 0.156211 0.1564042 0.1565892 0.156771 0.1569581 0.1571548 0.1573602 0.1575701 0.1577781
 0.1579779 0.1581656 0.1583439 0.1585231 0.1587152 0.1589215 0.1591314 0.1593356 0.159536 0.159739
 0.1599446 0.1601465 0.1603396 0.1605247 0.1607105 0.1609082 0.1611204 0.1613376 0.1615501 0.1617587
 0.1619723 0.1621966 0.1624289 0.1626622 0.1628932 0.1631219 0.1633449 0.1635549 0.1637486 0.1639298
 0.1641048 0.1642798 0.1644592 0.1646418 0.1648212 0.1649936 0.1651623 0.165334 0.1655167 0.1657176
 0.1659341 0.1661511 0.1663571 0.1665548 0.166753 0.1669557 0.1671615 0.1673661 0.1675639 0.1677532
 0.1679396 0.1681311 0.1683345 0.1685505 0.1687712 0.1689872 0.1691993 0.169415 0.1696323 0.1698415
 0.1700396 0.1702341 0.1704328 0.1706387 0.1708488 0.1710576 0.1712643 0.1714745 0.1716894 0.1719052
 0.1721239 0.1723495 0.1725747 0.1727887 0.172994 0.1731993 0.1734045 0.1736057 0.1738025 0.1739967
 0.1741943 0.174405 0.1746291 0.1748536 0.1750686 0.1752751 0.1754781 0.1756835 0.1758982 0.1761209
 0.1763437 0.1765651 0.1767822 0.1769746 0.1770989 0.1770535 0.1765777 0.1751476 0.1719602 0.1660852
 0.1568263 0.1441525 0.1288612 0.1123002 0.09586991 0.08065231 0.06729373 0.05608142 0.04708706 0.0402631
 0.03549655 0.03269068 0.03185588 0.03321385 0.03731102 0.04468776 0.05465155 0.06420773 0.06923363 0.06772986
 0.06173295 0.05546524 0.05183445 0.05103558 0.05181453 0.05310257 0.05456144 0.0563895 0.05892706 0.06226965
 0.06624873 0.07084666 0.07640176 0.08316915 0.09079558 0.0984694 0.1056192 0.1123538 0.1191886 0.1264179
 0.1338081 0.1408304 0.1470825 0.1524868 0.1572081 0.1614717 0.165438 0.1691872 0.172763 0.1761666
 0.1792756 0.1818182 0.1835085 0.1842633 0.1842999 0.1840161 0.1837559 0.1836737 0.1837789 0.1840453
 0.1844555 0.1849905 0.185627 0.1863424 0.1871091 0.1878967 0.1886848 0.189463 0.1902192 0.1909368
 0.1915984 0.1921924 0.1927215 0.1932024 0.1936511 0.1940737 0.1944723 0.1948481 0.1951981 0.1955219
 0.1958282 0.1961246 0.1964087 0.1966775 0.1969342 0.197179 0.1974066 0.1976173 0.1978201 0.1980246
 0.1982358 0.1984556 0.1986819 0.1989083 0.1991279 0.1993363 0.1995336 0.1997258 0.1999203 0.2001173
 0.200311 0.2004996 0.2006874 0.2008795 0.2010798 0.2012879 0.201495 0.2016887 0.2018665 0.2020405
 0.2022254 0.2024256 0.2026329 0.2028346 0.203027 0.2032211 0.2034294 0.2036495 0.2038697 0.2040845
 0.2042947 0.2045004 0.2047047 0.2049137 0.2051248 0.205323 0.2054981 0.2056617 0.2058398 0.2060489
 0.2062781 0.2064992 0.2066978 0.2068874 0.2070863 0.2072944 0.2074985 0.2076877 0.2078626 0.2080404
 0.2082473 0.2084903 0.2087476 0.2089999 0.209249 0.2094962 0.2097314 0.2099516 0.2101613 0.2103477
 0.2104915 0.2106122 0.2107785 0.2110515 0.2114188 0.2117957 0.2121037 0.2123391 0.2125534 0.212789
 0.2130555 0.2133254 0.2135171 0.2135465 0.2134594 0.2134587 0.2137237 0.2142331 0.2148106 0.2153032
 0.2156739 0.215964 0.2162185 0.2164392 0.2165833 0.2166139 0.2165759 0.2166159 0.2168789 0.2173595
 0.2178955 0.2183354 0.218658 0.2189108 0.2191225 0.2193021 0.2194107 0.2193145 0.2189266 0.2184582
 0.2183612 0.2188947 0.219833 0.2207037 0.2212515 0.2215676 0.2218312 0.2220912 0.2223099 0.2224002
 0.2221275 0.2212448 0.2199678 0.219108 0.2194032 0.2207769 0.22247 0.2238005 0.2245912 0.225004
 0.2252497 0.225446 0.2255292 0.2252564 0.2244826 0.2235304 0.2231119 0.2236751 0.2248993 0.2260353
 0.2266683 0.2269403 0.2271524 0.2274268 0.2276211 0.2272866 0.2259255 0.2237259 0.2219271 0.2219423
 0.2239774 0.2267859 0.2289049 0.2299091 0.2302935 0.2303953 0.2298956 0.2283919 0.2260035 0.2233173
 0.2212032 0.2206994 0.2223275 0.2252246 0.2276304 0.2286233 0.2289003 0.2296221 0.2310307 0.2324499
 0.2331668 0.2329833 0.2321075 0.230775 0.2291325 0.227585 0.2270065 0.2281213 0.2306207 0.2332785
 0.2350827 0.2360007 0.2364362 0.2360321 0.2334362 0.2279232 0.2214159 0.2179456 0.2200905 0.2262802
 0.232486 0.2361831 0.2377281 0.2384628 0.2389188 0.2386727 0.2365862 0.2314213 0.2237873 0.2173728
 0.2164497 0.2216414 0.2292166 0.2345763 0.2353889 0.2318341 0.2257755 0.2202041 0.2180133 0.220247
 0.225649 0.2319023 0.2370165 0.2398762 0.2402312 0.2385797 0.2361253 0.2344881 0.2345333 0.2350873
 0.2338319 0.2302392 0.2264566 0.2241481 0.2219087 0.2178549 0.2137784 0.2139516 0.2195791 0.2267762
 0.2309353 0.2313916 0.2305645 0.2295507 0.2262366 0.2183321 0.2077052 0.2004559 0.2015842 0.2098002
 0.2186806 0.222966 0.222739 0.2215171 0.2215578 0.2215579 0.2184803 0.2115166 0.2040951 0.2010039
 0.2032938 0.2073374 0.2091186 0.2074277 0.2024393 0.1944351 0.1861366 0.1835295 0.1908079 0.2052375
 0.2193004 0.226885 0.2255121 0.2149791 0.1982358 0.1831953 0.178881 0.1873326 0.2011189 0.2101735
 0.2097696 0.2013393 0.1881891 0.1732697 0.1605577 0.1554382 0.1614778 0.1768264 0.1942398 0.2046402
 0.202124 0.1885982 0.1742547 0.1702249 0.1783994 0.190098 0.1957893 0.1937436 0.1886423 0.1855722
 0.1871093 0.1928715 0.1999146 0.2054987 0.2092689 0.2101115 0.2031939 0.1857642 0.1648157 0.152484
 0.1534466 0.162504 0.174283 0.1880725 0.2015426 0.2074176 0.2016833 0.191211 0.1879259 0.1961438
 0.2088688 0.2163556 0.2157608 0.2116681 0.2090027 0.2077837 0.2055824 0.2032012 0.2048673 0.2124083
 0.2220676 0.2286989 0.2311132 0.2316173 0.232092 0.2325629 0.2325232 0.231795 0.23045 0.2289301
 0.2279118 0.2275404 0.2272928 0.2267671 0.2256548 0.2225335 0.2151681 0.2036547 0.1924321 0.1867668
 0.1871638 0.189724 0.191945 0.1941725 0.194174 0.1856342 0.1664963 0.1457853 0.1370367 0.1452224
 0.1630564 0.1792986 0.1873586 0.1858521 0.1752431 0.1580578 0.1415786 0.1355669 0.1443056 0.162492
 0.1809075 0.1943672 0.2023252 0.2044709 0.1997319 0.189399 0.1783961 0.1724646 0.1746533 0.1839767
 0.1957632 0.20287 0.1991643 0.1856088 0.1729702 0.1738947 0.1896458 0.2080152 0.2170486 0.2171535
 0.2162761 0.2175425 0.2177033 0.215787 0.2165703 0.2240179 0.2354475 0.2441749 0.2453795 0.2380016
 0.224127 0.209481 0.2019412 0.2051855 0.2144465 0.2216427 0.2231758 0.2194539 0.2101296 0.1961202
 0.1846739 0.1850052 0.1976207 0.2131198 0.222873 0.2268759 0.2298313 0.2330536 0.2328839 0.2262505
 0.2158205 0.2083608 0.2080495 0.212817 0.2178357 0.2206075 0.2209973 0.2183448 0.2118717 0.2039455
 0.2001192 0.2043023 0.2146804 0.2253771 0.2316918 0.2330421 0.2315767 0.2293863 0.2271009 0.2240821
 0.219825 0.2157554 0.2149443 0.218835 0.2249524 0.2294514 0.2315214 0.2336527 0.2377258 0.2424242
 0.2448373 0.2436322 0.2403145 0.2379063 0.2385164 0.2416732 0.2446879 0.2449525 0.242418 0.2398717
 0.240372 0.2443306 0.2494542 0.2533567 0.2555064 0.2567238 0.2577711 0.2586821 0.2587389 0.2570162
 0.2536911 0.2508008 0.2507997 0.2541283 0.258792 0.2624192 0.2641807 0.2646568 0.2645257 0.2638592
 0.262508 0.2607366 0.2592451 0.2586103 0.2588666 0.259651 0.2605844 0.261437 0.2620975 0.2625484
 0.2628418 0.2630315 0.2631497 0.2632433 0.2633469 0.2634103 0.2633491 0.2632041 0.2631626 0.2633527
 0.2636822 0.2639373 0.2639787 0.2637582 0.2632113 0.262271 0.2609911 0.2595346 0.2579941 0.2563328
 0.2546107 0.2532278 0.252799 0.2536891 0.255674 0.2580799 0.2602396 0.2618151 0.2627897 0.2632985
 0.2635092 0.2635733 0.2635832 0.2635494 0.2634347 0.2632172 0.2629144 0.2625589 0.2621743 0.2617825
 0.2614196 0.2611189 0.260873 0.2606255 0.260307 0.2598817 0.2593642 0.2588033 0.2582438 0.257687
 0.2570822 0.256366 0.2555165 0.2545737 0.253617 0.2527208 0.2519143 0.2511669 0.2504177 0.2496161
 0.2487276 0.2477184 0.2465825 0.2453985 0.2443162 0.2434447 0.2427619 0.2421496 0.2414934 0.2407343
 0.2398618 0.2389014 0.2378961 0.2368679 0.2358034 0.2346808 0.2334927 0.2322325 0.230884 0.2294365
 0.2278953 0.2262782 0.2246195 0.2229636 0.2213157 0.2195938 0.2176488 0.2153305 0.2125293 0.2091778
 0.2052553 0.2008156 0.1960079 0.1910489 0.1861539 0.1814855 0.1771615 0.1732881 0.1699617 0.167246
 0.1651719 0.1637595 0.1630324 0.1630097 0.1636919 0.1650482 0.16701 0.1694683 0.1722756 0.1752587
 0.1782399 0.1810659 0.183648 0.1859947 0.1881884 0.1902957 0.1922999 0.1941343 0.1957591 0.197176
 0.1983912 0.1994044 0.2002315 0.2009103 0.2014812 0.2019719 0.2023992 0.2027743 0.2031027 0.2033833
 0.2036149 0.2038087 0.203986 0.2041623 0.2043412 0.2045284 0.2047436 0.2050174 0.2053798 0.2058419
 0.2063794 0.2069471 0.207518 0.2080991 0.2087105 0.2093674 0.2100916 0.21092 0.21189 0.2130147
 0.2142736 0.2156189 0.2169871 0.2183057 0.2195014 0.220511 0.2212892 0.221812 0.2220871 0.222161
 0.2220928 0.2219125 0.221617 0.2212099 0.2207226 0.2201895 0.219621 0.2190117 0.2183646 0.2176934
 0.2170087 0.2163126 0.2156114 0.2149203 0.2142523 0.2136074 0.212982 0.2123783 0.2117973 0.2112297
 0.2106634 0.2100938 0.2095209 0.2089448 0.2083651 0.2077719 0.2071349 0.2064149 0.2055906 0.204667
 0.2036539 0.2025491 0.2013491 0.2000647 0.1987122 0.1972937 0.1957992 0.1942238 0.1925715 0.1908409
 0.1890174 0.1870904 0.1850817 0.1830556 0.1810914 0.1792432 0.1775271 0.1759346 0.1744472 0.1730438
 0.1717106 0.1704418 0.1692304 0.1680689 0.1669622 0.1659216 0.1649408 0.1639958 0.1630765 0.1622114
 0.161449 0.1608137 0.1602837 0.1598161 0.15939 0.1590185 0.1587331 0.1585674 0.1585351 0.1586015
 0.1586856 0.1587113 0.1586519 0.1585306 0.158393 0.1582807 0.1582111 0.1581732 0.158139 0.1580676
 0.1579019 0.157572 0.1570026 0.1561263 0.1549146 0.1534034 0.1516776 0.1498447 0.1480305 0.1463624
 0.1449288 0.1437657 0.1428755 0.1422223 0.141725 0.1413078 0.1409635 0.1407516 0.1407372 0.1409178
 0.1411832 0.1413772 0.1414423 0.1414798 0.1416478 0.1420374 0.1426447 0.1433954 0.1441749 0.144879
 0.1454428 0.1458288 0.1460332 0.1461081 0.14612 0.1460851 0.1459821 0.1458026 0.145556 0.1452549
 0.1449125 0.1445215 0.1440478 0.1434701 0.1427975 0.1420407 0.1412129 0.1403355 0.1393857 0.1382947
 0.1370854 0.135966 0.1352235 0.1350496 0.1354521 0.1362614 0.1372461 0.1382709 0.1392728 0.1400762
 0.1404427 0.1404474 0.1406559 0.1417164 0.1437476 0.1462058 0.1483599 0.149818 0.1505763 0.1507352
 0.1503586 0.1495075 0.1481953 0.1463531 0.1439766 0.1412126 0.1382308 0.1351664 0.1322115 0.1295747
 0.1273551 0.1255633 0.1241813 0.1232269 0.1228245 0.1226282 0.1207773 0.1148433 0.1055678 0.09857078
 0.09962536 0.1081704 0.1177024 0.1226617 0.1228639 0.121238 0.1198063 0.1188589 0.1182816 0.1182324
 0.1188671 0.1200566 0.121404 0.1224862 0.123123 0.1233666 0.1232099 0.1223121 0.1199245 0.1151732
 0.1077671 0.09858261 0.08936159 0.08170967 0.07637067 0.0732197 0.07161959 0.07081096 0.07028601 0.07000666
 0.07027416 0.07136251 0.07328866 0.07590364 0.07905711 0.08253439 0.08592245 0.08877383 0.09094819 0.09263796
 0.09403078 0.09508605 0.09566134 0.09571967 0.09536171 0.09474021 0.09399079 0.09318921 0.0923105 0.09125653
 0.09001194 0.08877997 0.08786643 0.08740131 0.08726003 0.08725734 0.08730213 0.08735976 0.08739059 0.08736429
 0.08728381 0.08720805 0.08726321 0.08755804 0.08805192 0.08856023 0.08890563 0.08904389 0.08905721 0.08901531
 0.08882189 0.08829737 0.08749408 0.08675237 0.08625551 0.08570275 0.08469842 0.08336638 0.08230212 0.08193551
 0.0821493 0.08251089 0.08268072 0.08257473 0.08233614 0.08226088 0.08259714 0.08324789 0.08375375 0.08372643
</values></Ydata></ScRf><Data_Parameters_AB><parameter name="DPF">1</parameter><parameter name="NPT">3497</parameter><parameter name="FXV">3996</parameter><parameter name="LXV">500</parameter><parameter name="CSF">1</parameter><parameter name="MXY">0.0209664516150951</parameter><parameter name="MNY">-0.0676709339022636</parameter><parameter name="DAT">30/05/2022</parameter><parameter name="TIM">11:47:16.506 (GMT+2)</parameter><parameter name="DXU">WN</parameter></Data_Parameters_AB><AB__Qtest><MainReport name="Quality Test Report"><Header><Line><Legend>Test result ok/not ok [1/0]: </Legend><Value>0</Value></Line><Line><Legend>Method file: </Legend><Value>C:\Users\Public\Documents\Bruker\OPUS_8.2.28\QT\IRBT_v3_default.QT</Value></Line></Header><Matrix><Line><Legend></Legend><Legend>min</Legend><Legend>max</Legend><Legend>measured</Legend></Line><Line><Value>Absorption (X-Range 1):</Value><Value>0.400000</Value><Value>2.000000</Value><Value>0.045467</Value></Line><Line><Value>Noise (X-Range 4):</Value><Value></Value><Value>0.000300</Value><Value>0.000051</Value></Line><Line><Value>Signal/Noise (X-Range 2):</Value><Value>200.000000</Value><Value></Value><Value>11.219465</Value></Line><Line><Value>Signal/Noise (X-Range 3):</Value><Value>40.000000</Value><Value></Value><Value>8.925789</Value></Line><Line><Value>Water vapour (X-Range 5):</Value><Value></Value><Value>0.000300</Value><Value>0.000053</Value></Line><Line><Value>Signal/Water (X-Range 2):</Value><Value>100.000000</Value><Value></Value><Value>10.808651</Value></Line><Line><Value>Signal/Water (X-Range 3):</Value><Value>20.000000</Value><Value></Value><Value>8.598961</Value></Line><Line><Value>Fringes (X-Range 6):</Value><Value></Value><Value>0.000100</Value><Value>0.000060</Value></Line></Matrix></MainReport></AB__Qtest><Data_Parameters_ScSm><parameter name="DPF">1</parameter><parameter name="NPT">1814</parameter><parameter name="FXV">3996.33169228125</parameter><parameter name="LXV">499.541461535156</parameter><parameter name="CSF">1</parameter><parameter name="MXY">0.271148860454559</parameter><parameter name="MNY">0.035229004919529</parameter><parameter name="DAT">30/05/2022</parameter><parameter name="TIM">11:47:16.506 (GMT+2)</parameter><parameter name="DXU">WN</parameter></Data_Parameters_ScSm><Data_Parameters_ScRf><parameter name="DPF">1</parameter><parameter name="NPT">1820</parameter><parameter name="FXV">4004.04661832813</parameter><parameter name="LXV">495.683998511719</parameter><parameter name="CSF">1</parameter><parameter name="MXY">0.264656782150269</parameter><parameter name="MNY">0.0318558849394321</parameter><parameter name="DAT">30/05/2022</parameter><parameter name="TIM">11:46:50.654 (GMT+2)</parameter><parameter name="DXU">WN</parameter></Data_Parameters_ScRf><Optic_Parameters_Rf><parameter name="APR">0</parameter><parameter name="APT">Open</parameter><parameter name="BMS">KBr</parameter><parameter name="DTC">RT-DLaTGS_IR-Biotyper [Microplate reader]</parameter><parameter name="HPF">0</parameter><parameter name="LPF">10.0</parameter><parameter name="LPV">4000</parameter><parameter name="PGR">0</parameter><parameter name="RCH">Module port</parameter><parameter name="RDX">0</parameter><parameter name="SRC">MIR</parameter><parameter name="VEL">10.0</parameter><parameter name="SON">Off</parameter></Optic_Parameters_Rf><Acquisition_Parameters_Rf><parameter name="ADT">1</parameter><parameter name="AQM">DD</parameter><parameter name="CFE">0</parameter><parameter name="COR">0</parameter><parameter name="DEL">0</parameter><parameter name="DLY">0</parameter><parameter name="HFW">8000</parameter><parameter name="LFW">0</parameter><parameter name="NSR">32</parameter><parameter name="PLF">AB</parameter><parameter name="RES">6</parameter><parameter name="RGN">-1</parameter><parameter name="STR">0</parameter><parameter name="TCL">MakeCompatibleScalar (0, {WSV=1.000000, ARV=0});</parameter><parameter name="TDL">37</parameter><parameter name="RPO">0</parameter></Acquisition_Parameters_Rf><FT_-_Parameters_Rf><parameter name="APF">B3</parameter><parameter name="HFQ">500</parameter><parameter name="LFQ">4000</parameter><parameter name="NLI">0</parameter><parameter name="PHR">24</parameter><parameter name="PHZ">ML</parameter><parameter name="SPZ">NO</parameter><parameter name="ZFF">1</parameter></FT_-_Parameters_Rf><Optic_Parameters_><parameter name="APR">0</parameter><parameter name="APT">Open</parameter><parameter name="BMS">KBr</parameter><parameter name="CHN">Module port</parameter><parameter name="DTC">RT-DLaTGS_IR-Biotyper [Microplate reader]</parameter><parameter name="HPF">0</parameter><parameter name="LPF">10.0</parameter><parameter name="LPV">4000</parameter><parameter name="PGN">0</parameter><parameter name="RDX">0</parameter><parameter name="SRC">MIR</parameter><parameter name="VEL">10.0</parameter><parameter name="SON">Off</parameter></Optic_Parameters_><FT_-_Parameters_><parameter name="APF">B3</parameter><parameter name="HFQ">500</parameter><parameter name="LFQ">4000</parameter><parameter name="NLI">0</parameter><parameter name="PHR">24</parameter><parameter name="PHZ">ML</parameter><parameter name="SPZ">NO</parameter><parameter name="ZFF">1</parameter></FT_-_Parameters_><Acquisition_Parameters_><parameter name="ADT">1</parameter><parameter name="AQM">DD</parameter><parameter name="CFE">0</parameter><parameter name="COR">0</parameter><parameter name="DEL">0</parameter><parameter name="DLY">0</parameter><parameter name="HFW">8000</parameter><parameter name="LFW">0</parameter><parameter name="NSS">32</parameter><parameter name="PLF">AB</parameter><parameter name="RES">6</parameter><parameter name="SOT">0</parameter><parameter name="TCL">MakeCompatibleScalar (0, {WSV=1.000000, ARV=0});</parameter><parameter name="TDL">37</parameter><parameter name="SPO">0</parameter><parameter name="SGN">-1</parameter></Acquisition_Parameters_><Instrument_Parameters_Rf><parameter name="HFL">15800.168544</parameter><parameter name="LFL">0</parameter><parameter name="LWN">15800.168544</parameter><parameter name="ABP">32197</parameter><parameter name="SSP">1</parameter><parameter name="ARG">2</parameter><parameter name="ASG">2</parameter><parameter name="ASS">32</parameter><parameter name="GFW">16</parameter><parameter name="GBW">16</parameter><parameter name="BFW">0</parameter><parameter name="BBW">0</parameter><parameter name="PKA">7297</parameter><parameter name="PKL">4996</parameter><parameter name="PRA">7464</parameter><parameter name="PRL">5001</parameter><parameter name="P2A">1</parameter><parameter name="P2L">1</parameter><parameter name="P2R">1</parameter><parameter name="P2K">1</parameter><parameter name="DAQ">0</parameter><parameter name="AG2">1</parameter><parameter name="SSM">1</parameter><parameter name="RSN">25250</parameter><parameter name="CRR">0</parameter><parameter name="SRT">1653911210.655</parameter><parameter name="DUR">19.6379852294922</parameter><parameter name="TSC">28.1</parameter><parameter name="MVD">0.253767639398575</parameter><parameter name="AN1">0.225790789258589</parameter><parameter name="AN2">0</parameter><parameter name="VSN">2.485 Apr  4 2017</parameter><parameter name="SRN">0085</parameter><parameter name="CAM">0</parameter><parameter name="INS">IR-Biotyper</parameter><parameter name="FOC">69</parameter><parameter name="RDY">1</parameter><parameter name="ARS">32</parameter></Instrument_Parameters_Rf><Sample_Parameters_><parameter name="BLD"></parameter><parameter name="CNM">Admin</parameter><parameter name="CPY"></parameter><parameter name="DPM"></parameter><parameter name="EXP">IRBT_v3_32Scans.XPM</parameter><parameter name="LCT"></parameter><parameter name="SFM">Microplate, HTS-XT</parameter><parameter name="SNM">220530-1021_MBD34F (D_1)_H6_981808d5-5e19-44e1-91da-1df3ae45b849.0</parameter><parameter name="XPP">C:\Users\Public\Documents\Bruker\OPUS_8.2.28\XPM</parameter><parameter name="IST">OK</parameter><parameter name="CPG">1252</parameter><parameter name="UID">74ea3dca-8c24-4e8c-ae21-0cef9649c196</parameter></Sample_Parameters_><Instrument_Parameters_><parameter name="HFL">15800.168544</parameter><parameter name="LFL">0</parameter><parameter name="LWN">15800.168544</parameter><parameter name="ABP">32197</parameter><parameter name="SSP">1</parameter><parameter name="ASG">2</parameter><parameter name="ARG">2</parameter><parameter name="ASS">32</parameter><parameter name="GFW">16</parameter><parameter name="GBW">16</parameter><parameter name="BFW">0</parameter><parameter name="BBW">0</parameter><parameter name="PKA">7704</parameter><parameter name="PKL">4988</parameter><parameter name="PRA">7989</parameter><parameter name="PRL">5002</parameter><parameter name="P2A">1</parameter><parameter name="P2L">1</parameter><parameter name="P2R">1</parameter><parameter name="P2K">1</parameter><parameter name="DAQ">0</parameter><parameter name="AG2">1</parameter><parameter name="SSM">1</parameter><parameter name="RSN">13251</parameter><parameter name="CRR">0</parameter><parameter name="SRT">1653911236.507</parameter><parameter name="DUR">19.6369934082031</parameter><parameter name="TSC">28.1</parameter><parameter name="MVD">0.273071736097336</parameter><parameter name="AN1">0.225813588414108</parameter><parameter name="AN2">0</parameter><parameter name="VSN">2.485 Apr  4 2017</parameter><parameter name="SRN">0085</parameter><parameter name="CAM">0</parameter><parameter name="INS">IR-Biotyper</parameter><parameter name="FOC">69</parameter><parameter name="RDY">1</parameter></Instrument_Parameters_><History/></OPUSDataFile>
