<?xml version="1.0" encoding="UTF-8" ?>
<OPUSDataFile><AB><Ydata ylabel="Absorbance Units"><values byteorder="INTEL" format="FLOAT32" numvalues="3497"> -0.07903156 -0.07897453 -0.07894327 -0.07893911 -0.07894319 -0.07895451 -0.07894906 -0.07892772 -0.0788945 -0.07885304
 -0.07882784 -0.07881853 -0.0788384 -0.07888118 -0.07893846 -0.07900615 -0.07907267 -0.07914011 -0.07920728 -0.07927413
 -0.07934255 -0.07940444 -0.07945596 -0.07949166 -0.07950655 -0.0795081 -0.07949638 -0.07948269 -0.07946941 -0.07945888
 -0.07945181 -0.07944482 -0.07943771 -0.07942837 -0.07941654 -0.07939859 -0.07937403 -0.07933667 -0.07928855 -0.07923169
 -0.07917245 -0.07912662 -0.07909892 -0.07910654 -0.07914407 -0.07921479 -0.07930422 -0.07940279 -0.07949811 -0.07958006
 -0.07964603 -0.07969251 -0.07972126 -0.07973195 -0.07972692 -0.07970542 -0.07967739 -0.07964291 -0.07962126 -0.07961348
 -0.07963455 -0.07968363 -0.07975465 -0.07984381 -0.07992507 -0.07999627 -0.0800341 -0.08004294 -0.08001962 -0.07997392
 -0.07991964 -0.07986625 -0.07983156 -0.07981548 -0.07982717 -0.07985226 -0.07988723 -0.0799141 -0.07992384 -0.07991281
 -0.07987592 -0.07982777 -0.07976877 -0.07971981 -0.0796827 -0.0796758 -0.07970025 -0.0797684 -0.07987973 -0.08003213
 -0.08022078 -0.08041771 -0.08061441 -0.08076271 -0.08086313 -0.08088738 -0.08085366 -0.08077838 -0.0806799 -0.0805888
 -0.08050627 -0.08044666 -0.08039486 -0.08034659 -0.08028899 -0.08021143 -0.08012862 -0.08003817 -0.07997661 -0.07995076
 -0.07997734 -0.08006166 -0.08017135 -0.08030497 -0.08040816 -0.08048076 -0.0805084 -0.08049811 -0.08048731 -0.08048056
 -0.08051836 -0.08059188 -0.08070338 -0.0808346 -0.08095399 -0.08105441 -0.08111124 -0.08113573 -0.08113024 -0.08110087
 -0.08105323 -0.08098416 -0.08088892 -0.08078574 -0.08067273 -0.0805953 -0.08055951 -0.08060706 -0.08074579 -0.08096685
 -0.08127113 -0.08152761 -0.08172832 -0.08171456 -0.08150873 -0.08117454 -0.08074366 -0.08037494 -0.08006682 -0.07989704
 -0.07984556 -0.07992074 -0.08008337 -0.08029835 -0.08051287 -0.08066954 -0.08074651 -0.08070174 -0.08058534 -0.08040015
 -0.08021903 -0.08006661 -0.07995982 -0.07990943 -0.07988514 -0.07988472 -0.07988683 -0.07988986 -0.0799034 -0.07992838
 -0.07998277 -0.08006432 -0.08016957 -0.08029067 -0.0803965 -0.08048017 -0.08050609 -0.08047882 -0.08038648 -0.08024541
 -0.08006825 -0.07987431 -0.07968181 -0.07950842 -0.07936782 -0.07927377 -0.07923658 -0.07925472 -0.07933468 -0.07944578
 -0.07958702 -0.07971121 -0.07981342 -0.07986052 -0.07985005 -0.0797745 -0.07963502 -0.07944812 -0.0792179 -0.07897876
 -0.0787347 -0.0785199 -0.07833426 -0.07819585 -0.07809979 -0.0780478 -0.07802975 -0.07803692 -0.07805315 -0.0780626
 -0.07805344 -0.07801045 -0.07794403 -0.07785102 -0.07775827 -0.07767288 -0.07761004 -0.07757502 -0.07756353 -0.07757582
 -0.07760585 -0.07765331 -0.07771263 -0.07778282 -0.07784706 -0.07790358 -0.07793022 -0.07792927 -0.07789607 -0.07783759
 -0.07776915 -0.07769624 -0.07763625 -0.07758937 -0.07756349 -0.07755474 -0.07756082 -0.07758386 -0.07762078 -0.07768767
 -0.07779149 -0.07793847 -0.0781395 -0.07835394 -0.07858107 -0.07875416 -0.07886446 -0.07888635 -0.07881747 -0.07865576
 -0.07840157 -0.07805486 -0.07762443 -0.07716832 -0.07670089 -0.07631383 -0.07600658 -0.07583011 -0.07576249 -0.07579669
 -0.07588977 -0.07598555 -0.07605568 -0.07604632 -0.07598143 -0.07585578 -0.07571007 -0.0755621 -0.07542772 -0.07531894
 -0.07521835 -0.07512657 -0.07501395 -0.07487611 -0.07470724 -0.07450622 -0.07429669 -0.07408047 -0.07389082 -0.07372877
 -0.07362109 -0.07356071 -0.07354031 -0.07353809 -0.07348959 -0.07338833 -0.07318056 -0.07290289 -0.07258123 -0.07224194
 -0.0719265 -0.07161578 -0.07131338 -0.07098719 -0.07061978 -0.07021228 -0.06975589 -0.06928715 -0.06881078 -0.0683579
 -0.06793457 -0.06753635 -0.06716407 -0.0667746 -0.06636586 -0.06589561 -0.06536957 -0.06480861 -0.06422146 -0.06365893
 -0.06311605 -0.062605 -0.06211885 -0.06165108 -0.06119559 -0.0607493 -0.06028634 -0.05978833 -0.05921982 -0.05854579
 -0.05777811 -0.05690804 -0.05597508 -0.05499639 -0.05395653 -0.05285606 -0.05167252 -0.05039901 -0.0490734 -0.04769732
 -0.04631863 -0.04493866 -0.04357715 -0.04223454 -0.0409249 -0.03964692 -0.03840614 -0.03719385 -0.03598911 -0.034786
 -0.03356486 -0.03232117 -0.0310538 -0.02972251 -0.02829814 -0.0267298 -0.02495081 -0.02303525 -0.02097973 -0.01892851
 -0.01693797 -0.01501474 -0.01317718 -0.01135226 -0.009531608 -0.00768376 -0.005805005 -0.003917604 -0.002023572 -0.0001667353
 0.001654442 0.003421269 0.005155033 0.006927701 0.00877431 0.01085104 0.01311949 0.01561251 0.01819956 0.02070232
 0.0230952 0.0252632 0.02731402 0.02927935 0.03125425 0.0332982 0.03541542 0.03762886 0.03987322 0.04213902
 0.04438113 0.04658825 0.0487878 0.05097953 0.05323917 0.05556865 0.05800085 0.06052499 0.0630721 0.06563193
 0.06811911 0.07054294 0.07288508 0.07515913 0.07738024 0.0795629 0.08172671 0.08389696 0.08610787 0.08835959
 0.09067234 0.093002 0.09532669 0.09764694 0.09994367 0.1023034 0.1047448 0.1072981 0.1099819 0.1126641
 0.1153373 0.1178786 0.1202878 0.1226 0.1248254 0.1270616 0.1293077 0.1316162 0.1339715 0.1363604
 0.1387619 0.1411229 0.1434481 0.1457067 0.1479553 0.1502294 0.1525903 0.1551068 0.1577398 0.1605085
 0.1632895 0.1660449 0.168719 0.1712869 0.1737806 0.1761995 0.1785896 0.1809538 0.1833369 0.1857407
 0.1881907 0.1906826 0.1931915 0.1957128 0.1982076 0.2006853 0.2031515 0.2056167 0.2081097 0.2106214
 0.2131555 0.2156911 0.2182098 0.2206984 0.2231402 0.2255407 0.227893 0.2302265 0.232547 0.2348825
 0.2372428 0.2396215 0.2420198 0.2444214 0.2468246 0.2492376 0.2516605 0.254093 0.2565316 0.2589437
 0.2613309 0.263681 0.2660031 0.2683215 0.2706325 0.2729424 0.2752396 0.2775058 0.2797475 0.2819622
 0.2841639 0.2863633 0.2885608 0.2907589 0.2929567 0.2951549 0.2973502 0.299545 0.3017148 0.3038557
 0.3059581 0.3080193 0.3100773 0.3121334 0.314213 0.3163114 0.3183977 0.3204699 0.3224998 0.3244957
 0.3264699 0.3284253 0.3303746 0.332314 0.3342414 0.3361588 0.3380695 0.3399677 0.3418534 0.3437122
 0.345532 0.3473268 0.3490939 0.3508693 0.3526628 0.3544779 0.3563186 0.3581583 0.3599953 0.3618078
 0.3635943 0.3653286 0.3670102 0.368617 0.3701583 0.3716626 0.3731427 0.3746559 0.3761964 0.3777818
 0.3793971 0.3810267 0.3826648 0.3843042 0.3859314 0.3875386 0.3891063 0.3906162 0.3920873 0.3935165
 0.3949472 0.396392 0.3978513 0.3993292 0.4007939 0.4022422 0.4036731 0.4050871 0.4065033 0.4079211
 0.4093405 0.4107612 0.4121818 0.4136035 0.4150331 0.4164631 0.4178827 0.4192836 0.4206463 0.4219768
 0.4232745 0.4245446 0.4257934 0.4270123 0.4281979 0.4293474 0.4304571 0.4315358 0.4325844 0.4336119
 0.4346179 0.4356257 0.4366365 0.4376844 0.4387704 0.4398925 0.4410467 0.4421946 0.4433362 0.444452
 0.4455452 0.4466187 0.4476654 0.4486705 0.44963 0.4505236 0.4513733 0.45219 0.4530028 0.45384
 0.4547011 0.4555998 0.4565025 0.4574041 0.458265 0.4590729 0.4598214 0.4605029 0.4611664 0.461815
 0.4624969 0.4632128 0.4639264 0.4646308 0.4652389 0.465757 0.4661632 0.4664817 0.4667759 0.4670608
 0.4674027 0.467794 0.4682551 0.4687655 0.4693144 0.4698783 0.4704346 0.47098 0.4714985 0.472028
 0.4725759 0.4731794 0.4738571 0.4745705 0.4753241 0.4760137 0.4766311 0.4771042 0.4774312 0.4776399
 0.4777384 0.477818 0.4778805 0.4779869 0.4781248 0.4782843 0.4784634 0.4786435 0.4788521 0.4791245
 0.4794727 0.4799413 0.4804696 0.4810396 0.4815657 0.4819896 0.4823131 0.4825078 0.4826709 0.4828162
 0.4830301 0.4833323 0.4837215 0.4842027 0.4846977 0.4852021 0.4856154 0.4859373 0.4861196 0.4861802
 0.4861758 0.4861366 0.4861891 0.4863448 0.4867007 0.487224 0.4879223 0.4887227 0.4895601 0.4903624
 0.4910506 0.4916172 0.492022 0.4923429 0.4925887 0.4928585 0.4931767 0.4935956 0.4941268 0.494786
 0.4955754 0.4965057 0.497577 0.4987708 0.5000788 0.5014164 0.5027662 0.5039961 0.5050942 0.5059443
 0.5065646 0.5069204 0.507077 0.507104 0.5070863 0.5071442 0.5073049 0.5076477 0.5080926 0.5086382
 0.5091472 0.5095736 0.5098269 0.5098682 0.509717 0.5093623 0.5089087 0.5083631 0.5078254 0.5073001
 0.5068133 0.5063615 0.5059168 0.5054783 0.5050266 0.5045662 0.5041039 0.5036387 0.5031777 0.5027032
 0.5022013 0.501631 0.5009529 0.5001138 0.4990594 0.4977747 0.4962198 0.4944697 0.492524 0.4905234
 0.4884951 0.4865583 0.4847373 0.483071 0.4815686 0.4801855 0.4789189 0.4776665 0.4764232 0.4750937
 0.4736887 0.4722079 0.470678 0.4691927 0.4677537 0.4664268 0.4651617 0.463914 0.4626319 0.4612263
 0.4597233 0.4580925 0.4564401 0.4548055 0.4532854 0.4519315 0.4507486 0.4497608 0.4488724 0.4480809
 0.4472445 0.4463508 0.4452989 0.444084 0.4427136 0.4411971 0.4396402 0.438054 0.4365567 0.4351434
 0.4338646 0.4326982 0.4316216 0.4306111 0.4296192 0.428635 0.4276277 0.4266006 0.4255465 0.424473
 0.4233825 0.4222786 0.4211633 0.4200377 0.4189022 0.4177599 0.4166115 0.4154581 0.4143001 0.4131328
 0.4119562 0.4107651 0.4095603 0.4083474 0.407129 0.4059227 0.4047293 0.4035636 0.4024169 0.4012804
 0.4001391 0.3989642 0.3977512 0.3964796 0.3951664 0.3938152 0.3924495 0.3910836 0.3897272 0.3883882
 0.3870628 0.3857517 0.3844483 0.383152 0.3818533 0.3805515 0.3792335 0.3778986 0.3765412 0.3751623
 0.3737725 0.3723746 0.3709892 0.369618 0.3682785 0.3669671 0.3656866 0.3644272 0.3631752 0.3619219
 0.36065 0.3593642 0.358057 0.3567539 0.3554612 0.3542165 0.3530357 0.3519371 0.3509364 0.349991
 0.3491045 0.3481747 0.3471932 0.346071 0.3448032 0.3433968 0.3418603 0.3403001 0.3387283 0.337273
 0.33593 0.334763 0.3337383 0.3328199 0.3319547 0.3310402 0.3300488 0.3288941 0.327621 0.3262196
 0.3247898 0.3233823 0.3220588 0.3208655 0.3197693 0.3187753 0.3178211 0.3168921 0.3159938 0.315122
 0.3143441 0.3136637 0.3131092 0.3126737 0.312281 0.3119152 0.3114418 0.3108596 0.3100818 0.3091402
 0.3080568 0.3068821 0.3057103 0.3045654 0.3035213 0.3025501 0.3016573 0.3008025 0.2999576 0.2991283
 0.2983056 0.2975238 0.2967954 0.2961103 0.2954737 0.2948312 0.2941766 0.2934956 0.2927872 0.2921095
 0.2914653 0.2909102 0.2904367 0.2900313 0.2896804 0.2893277 0.2889689 0.2885644 0.288121 0.2876329
 0.2871067 0.2865514 0.2859591 0.2853326 0.2846434 0.2838787 0.2830123 0.2820233 0.2809365 0.2797418
 0.2785326 0.2773179 0.2762011 0.2751967 0.2743236 0.2735837 0.2728817 0.2722095 0.2714348 0.2705607
 0.2695324 0.2683747 0.2671445 0.2658682 0.2646419 0.2634646 0.2623844 0.2613721 0.2604153 0.2594825
 0.2585428 0.2575845 0.2565887 0.2555692 0.2545224 0.2534807 0.2524508 0.2514596 0.2505166 0.2496064
 0.2487316 0.2478314 0.2469025 0.2458995 0.2448254 0.2437102 0.2425626 0.2414559 0.2403841 0.2393712
 0.2383925 0.2373971 0.2363761 0.2352799 0.2341416 0.2329752 0.2318259 0.23074 0.2297272 0.2288105
 0.2279682 0.2271953 0.2264811 0.2258193 0.2252198 0.2246845 0.2242127 0.223807 0.2234336 0.2230911
 0.2227199 0.222317 0.2218277 0.2212554 0.2205892 0.2198444 0.2190685 0.2182817 0.2175567 0.2169044
 0.216377 0.2159734 0.2157132 0.2155883 0.2156005 0.2157353 0.2159878 0.2163375 0.2167769 0.2172882
 0.2178651 0.2184999 0.2191889 0.2199407 0.2207536 0.221665 0.2226766 0.223854 0.2251999 0.2267675
 0.2285499 0.2305353 0.2327051 0.2349841 0.2373578 0.2397492 0.2421639 0.2445742 0.2469985 0.2494501
 0.2519359 0.2544697 0.2570407 0.2596451 0.2622802 0.2649393 0.2676429 0.2703962 0.2732094 0.2760919
 0.2789965 0.2819246 0.2847731 0.2875364 0.2900977 0.2924502 0.2944817 0.2961839 0.2974433 0.2982616
 0.2985639 0.298401 0.2978286 0.2969727 0.2960498 0.2952163 0.294745 0.2947232 0.2953332 0.2965325
 0.2983679 0.3007022 0.3035055 0.3066216 0.3100113 0.3135388 0.3171761 0.3208357 0.3245014 0.3281742
 0.3318524 0.3356225 0.3394901 0.3435566 0.3478231 0.3523467 0.3571219 0.3621629 0.3674536 0.372981
 0.3786835 0.3845039 0.3902405 0.3957341 0.4005108 0.4042403 0.4062146 0.4059448 0.4029813 0.3968871
 0.3881196 0.3765456 0.3635147 0.3491685 0.3349826 0.321135 0.3085098 0.2971781 0.2872887 0.2788244
 0.2714921 0.2652563 0.2597446 0.2549389 0.2505759 0.2466469 0.2430033 0.2396318 0.2364443 0.2334292
 0.2305349 0.2277685 0.2251142 0.2225983 0.2202299 0.2180358 0.2160285 0.2142245 0.2126301 0.2112559
 0.2101047 0.2091809 0.208486 0.208013 0.2077617 0.2077124 0.2078618 0.2081603 0.2085942 0.2090517
 0.2095089 0.2098077 0.2099435 0.2098066 0.209447 0.2088846 0.2082167 0.2075624 0.2070164 0.2066983
 0.2066622 0.2069708 0.2076491 0.2087093 0.2102079 0.2121413 0.2146611 0.2177867 0.2216878 0.2264122
 0.2317842 0.2378126 0.2435222 0.2488251 0.2520725 0.2532195 0.2510408 0.2457889 0.2377199 0.2273208
 0.2159806 0.2040552 0.1928599 0.1824205 0.1733303 0.1653809 0.1586038 0.1527538 0.1476934 0.1432592
 0.1393557 0.1358905 0.1328269 0.1300876 0.1276578 0.1254619 0.1234909 0.1216857 0.1200418 0.1185195
 0.1171166 0.1158006 0.1145692 0.1133898 0.1122612 0.1111584 0.1100858 0.1090402 0.1080301 0.107072
 0.1061658 0.1053241 0.1045256 0.1037605 0.1029964 0.1022082 0.1013868 0.1005141 0.09962611 0.09872368
 0.0978659 0.09706542 0.09635037 0.09572981 0.09516763 0.09466297 0.09414562 0.09361358 0.09303177 0.09240616
 0.09176521 0.09111405 0.09049429 0.08989509 0.08931098 0.08872433 0.08809432 0.0874256 0.08669971 0.0859485
 0.08519226 0.08446024 0.08377923 0.08315324 0.08259283 0.08208441 0.08162846 0.08120218 0.08080406 0.08039996
 0.07998607 0.07953504 0.07904409 0.07852109 0.07796764 0.07741901 0.07687618 0.07636348 0.07587799 0.0754196
 0.07498647 0.07457317 0.07418014 0.07380753 0.07345138 0.07310826 0.0727701 0.07242694 0.07207879 0.07171974
 0.07136294 0.07101248 0.07067867 0.07036877 0.07007018 0.06978442 0.06948145 0.06915747 0.06879592 0.06839464
 0.06797104 0.06752677 0.0670975 0.06668355 0.06630529 0.06595807 0.06563362 0.06532583 0.06501259 0.06469307
 0.06435284 0.06400038 0.06363901 0.06328193 0.06294405 0.06262792 0.06234494 0.06207411 0.06181315 0.06152878
 0.06120958 0.06084081 0.06041397 0.05994937 0.05944659 0.0589428 0.0584407 0.05796253 0.05750852 0.05707571
 0.05666277 0.05625765 0.05586054 0.05546617 0.05507519 0.0546872 0.0543016 0.05391626 0.05353279 0.05315122
 0.05277663 0.05241467 0.05206557 0.05173382 0.05140848 0.0510864 0.05075732 0.05041559 0.05006573 0.04970659
 0.04935084 0.04900043 0.04865809 0.04832437 0.04799202 0.04766098 0.04733142 0.04700515 0.04669747 0.04640936
 0.0461555 0.04593093 0.04573162 0.04554686 0.04535471 0.04514647 0.04490007 0.04461566 0.04428351 0.0439133
 0.04350616 0.04307817 0.04263467 0.04219427 0.04176319 0.04135459 0.04097322 0.04061845 0.04029175 0.03998093
 0.03968527 0.03939418 0.03910737 0.03882304 0.03854147 0.03826441 0.03799136 0.03772097 0.03745252 0.03718275
 0.03691248 0.03664132 0.03637122 0.03610504 0.03584303 0.03558718 0.03533493 0.03508498 0.03483621 0.03458681
 0.03434055 0.03409789 0.03386341 0.0336389 0.0334218 0.03321275 0.03300155 0.03278757 0.03256084 0.03232112
 0.03206696 0.03179947 0.0315273 0.03125196 0.0309857 0.03072759 0.03048253 0.03024586 0.03001077 0.02977335
 0.02952363 0.029265 0.02899497 0.02872424 0.02845866 0.02820725 0.02797692 0.02776657 0.02757929 0.02740257
 0.0272355 0.02706172 0.02687896 0.0266771 0.02645483 0.02621515 0.02595848 0.02569796 0.02543442 0.02518103
 0.02493718 0.02470735 0.02448988 0.02428178 0.02408298 0.02389139 0.02370879 0.02353768 0.02337662 0.02322736
 0.02308119 0.02293382 0.02277567 0.0225998 0.02240722 0.02219464 0.02197544 0.02175099 0.02153661 0.02133481
 0.02115209 0.0209895 0.02084241 0.02071042 0.02058235 0.02045768 0.02032715 0.02019099 0.02004539 0.01989068
 0.01972558 0.01955099 0.01936692 0.01917714 0.01898603 0.01879908 0.01862389 0.01846136 0.01831586 0.01818139
 0.0180565 0.0179355 0.01781568 0.01769685 0.0175785 0.0174613 0.0173455 0.01722925 0.01711235 0.01699524
 0.01687805 0.01676554 0.01665759 0.01655568 0.01645823 0.01635841 0.01625483 0.01613894 0.01601241 0.01587376
 0.01572711 0.01557763 0.01542849 0.01528493 0.01514778 0.01501935 0.01489873 0.01478629 0.01468009 0.01457969
 0.01448311 0.01438966 0.01429919 0.01421143 0.01412837 0.01405021 0.01397725 0.0139094 0.0138429 0.01377734
 0.01370732 0.01363251 0.01354844 0.01345512 0.01334983 0.0132337 0.01310688 0.0129726 0.01283529 0.01269813
 0.0125667 0.01244011 0.01232037 0.01220266 0.01208507 0.01196469 0.01183944 0.01171163 0.01158133 0.01145111
 0.01132167 0.0111913 0.01105996 0.0109256 0.01078827 0.0106519 0.01051716 0.01039278 0.01027845 0.01017824
 0.01008935 0.01000596 0.009924083 0.009831996 0.009728875 0.009606887 0.009471445 0.009323617 0.009173023 0.009027024
 0.008890585 0.008769945 0.008658681 0.008557336 0.008453676 0.008344605 0.008225298 0.008093853 0.007956074 0.007812192
 0.007668825 0.0075262 0.00738381 0.007241387 0.007095509 0.006946994 0.006797717 0.00664972 0.006510659 0.006381293
 0.006268063 0.006167823 0.006079927 0.005997923 0.005915273 0.005826666 0.005725574 0.005612232 0.0054841 0.005346597
 0.005200529 0.005052132 0.004902995 0.004756408 0.004613122 0.004473977 0.004339066 0.004209573 0.004085571 0.003968888
 0.00385933 0.003755851 0.003657675 0.003560068 0.003462845 0.003362688 0.003260441 0.003156675 0.00305124 0.0029448
 0.002835192 0.002720118 0.002598978 0.002469604 0.002335617 0.002197965 0.002060522 0.001925402 0.001791909 0.00166078
 0.001527635 0.001391863 0.001250996 0.001104537 0.0009555144 0.0008040981 0.0006552527 0.0005089233 0.0003662628 0.0002268776
 8.881801E-05 -4.718113E-05 -0.000179852 -0.0003081112 -0.0004275984 -0.0005413403 -0.0006508678 -0.0007622032 -0.0008835347 -0.001014596
 -0.001160054 -0.001310294 -0.001461757 -0.001607289 -0.001741909 -0.001870576 -0.001992879 -0.002117663 -0.002246696 -0.002381017
 -0.002521137 -0.002661842 -0.00280292 -0.002942782 -0.003081988 -0.00322596 -0.003375655 -0.003539053 -0.003716358 -0.003912029
 -0.004126659 -0.004362546 -0.004623077 -0.004912898 -0.005238766 -0.005608795 -0.006029691 -0.006508507 -0.007049821 -0.007656789
 -0.008334951 -0.009086622 -0.009916252 -0.01082716 -0.01181053 -0.01286768 -0.01397282 -0.01512449 -0.01629454 -0.01748121
 -0.01864581 -0.01978105 -0.02079776 -0.02168089 -0.02229995 -0.02265064 -0.02264149 -0.02229618 -0.02160444 -0.02063599
 -0.01947386 -0.01822592 -0.01703844 -0.01597835 -0.01514735 -0.01454689 -0.01420521 -0.01410104 -0.01423723 -0.01457642
 -0.01512367 -0.01577637 -0.01653135 -0.01721694 -0.01781628 -0.01823162 -0.01845811 -0.01853729 -0.01847466 -0.01834526
 -0.01815196 -0.0179477 -0.01773352 -0.01754228 -0.01737035 -0.01722793 -0.01710535 -0.01699306 -0.01688075 -0.0167533
 -0.01660582 -0.01642795 -0.0162253 -0.015995 -0.01575471 -0.01550861 -0.01527526 -0.01506052 -0.01487094 -0.01470944
 -0.01456921 -0.01445027 -0.01434062 -0.01423962 -0.0141391 -0.0140393 -0.0139406 -0.01384395 -0.01375483 -0.0136736
 -0.01360415 -0.01354678 -0.01350361 -0.01347591 -0.01346686 -0.01347649 -0.01350765 -0.01355477 -0.01361654 -0.01368196
 -0.01374539 -0.0137983 -0.01383491 -0.01385799 -0.01386528 -0.01387135 -0.01387761 -0.01389894 -0.01393729 -0.01399534
 -0.01407326 -0.01416076 -0.01425706 -0.01434971 -0.01443879 -0.01451789 -0.01458843 -0.01465125 -0.01470891 -0.01476742
 -0.01482921 -0.01490165 -0.01498333 -0.01507703 -0.01517615 -0.0152771 -0.01537323 -0.01545923 -0.01553484 -0.0155978
 -0.01565367 -0.01570294 -0.01575238 -0.01580316 -0.01585932 -0.01592158 -0.01598907 -0.01606175 -0.01613425 -0.0162062
 -0.01627137 -0.01632985 -0.01637864 -0.01641888 -0.0164523 -0.01648119 -0.01651135 -0.01654513 -0.01658969 -0.01664375
 -0.01671021 -0.01678236 -0.01685667 -0.01692583 -0.01698426 -0.01703075 -0.01706245 -0.01708518 -0.0170993 -0.01711236
 -0.01712568 -0.01714341 -0.01716624 -0.01719414 -0.01722713 -0.01726355 -0.0173034 -0.01734627 -0.0173922 -0.01744147
 -0.01749364 -0.01754737 -0.0176021 -0.01765558 -0.01770806 -0.01775876 -0.0178086 -0.01785849 -0.01790863 -0.01795987
 -0.01801081 -0.01806109 -0.01810901 -0.01815346 -0.01819521 -0.01823363 -0.01827312 -0.01831413 -0.01836144 -0.01841577
 -0.01847719 -0.01854575 -0.01861595 -0.01868736 -0.01875295 -0.01881278 -0.01886299 -0.0189049 -0.01894072 -0.01897275
 -0.01900792 -0.01904699 -0.01909523 -0.01914991 -0.01921031 -0.01927285 -0.01933375 -0.0193932 -0.01944965 -0.01950638
 -0.01956449 -0.01962546 -0.01969024 -0.01975735 -0.01982682 -0.01989646 -0.0199661 -0.02003364 -0.02009895 -0.02016044
 -0.02021811 -0.02027181 -0.02032182 -0.02036971 -0.02041587 -0.02046259 -0.02051 -0.02055991 -0.02061138 -0.02066403
 -0.02071599 -0.0207647 -0.02080967 -0.02084898 -0.02088501 -0.02091798 -0.02095192 -0.02098817 -0.02103036 -0.02107974
 -0.02113798 -0.02120606 -0.02128086 -0.02136261 -0.02144248 -0.02151997 -0.02158681 -0.02164305 -0.02168817 -0.02172311
 -0.02175351 -0.0217801 -0.02180858 -0.02183909 -0.02187488 -0.02191562 -0.02196254 -0.02201429 -0.02206988 -0.02212799
 -0.02218697 -0.02224704 -0.02230804 -0.02236978 -0.02243276 -0.02249418 -0.02255355 -0.02260798 -0.02265628 -0.02270138
 -0.02274311 -0.02278858 -0.02283822 -0.02289607 -0.02296185 -0.02303199 -0.02310564 -0.02317536 -0.02324124 -0.0232992
 -0.02335081 -0.02339786 -0.02344195 -0.02348689 -0.02353285 -0.02358186 -0.02363251 -0.02368462 -0.02373607 -0.02378557
 -0.02383204 -0.02387414 -0.02391416 -0.02395184 -0.02399255 -0.02403732 -0.02408874 -0.0241476 -0.02420967 -0.02427478
 -0.02433643 -0.0243945 -0.0244463 -0.02449216 -0.02453269 -0.02456818 -0.02459952 -0.02462775 -0.02465517 -0.02468434
 -0.02472071 -0.02476593 -0.02482535 -0.02489576 -0.02497786 -0.02506335 -0.02514808 -0.02522503 -0.02528954 -0.02534229
 -0.02538146 -0.02541499 -0.02544368 -0.02547571 -0.02551219 -0.02555643 -0.02560874 -0.02566855 -0.02573579 -0.02580889
 -0.02588766 -0.02597027 -0.02605604 -0.02614137 -0.02622554 -0.02630462 -0.02637896 -0.02644703 -0.02651043 -0.02657048
 -0.02662846 -0.02668612 -0.02674334 -0.02680076 -0.02685721 -0.0269124 -0.02696516 -0.02701485 -0.02706202 -0.02710619
 -0.02715126 -0.02719738 -0.02725019 -0.02731012 -0.02737699 -0.02745034 -0.02752156 -0.02759025 -0.0276485 -0.02769807
 -0.02774125 -0.02778061 -0.02782474 -0.02787317 -0.02792998 -0.02799114 -0.02805324 -0.02811316 -0.02816624 -0.0282138
 -0.02825452 -0.02829305 -0.028331 -0.02837136 -0.02841574 -0.02846294 -0.02851324 -0.02856362 -0.02861376 -0.02866215
 -0.02870865 -0.02875316 -0.02879566 -0.02883581 -0.02887347 -0.02890761 -0.028938 -0.02896309 -0.02898296 -0.02899648
 -0.02900509 -0.02901024 -0.02901474 -0.02902285 -0.02903578 -0.02905664 -0.02908358 -0.02911679 -0.02915305 -0.02919145
 -0.02922839 -0.02926326 -0.02929086 -0.0293101 -0.02931788 -0.02931317 -0.02930097 -0.02928143 -0.02926422 -0.02924958
 -0.02924168 -0.0292397 -0.02923995 -0.02924153 -0.02923873 -0.02923154 -0.0292169 -0.0291955 -0.02916687 -0.02913239
 -0.029093 -0.02905153 -0.0290103 -0.0289727 -0.02894201 -0.0289179 -0.02890242 -0.02888843 -0.02887477 -0.0288539
 -0.02882343 -0.02878478 -0.02873746 -0.02868801 -0.0286369 -0.0285855 -0.02853374 -0.02847913 -0.0284222 -0.02836557
 -0.02831012 -0.02826132 -0.02821844 -0.02818237 -0.02815185 -0.02812467 -0.02810088 -0.02808014 -0.0280613 -0.02804448
 -0.02802468 -0.02799943 -0.02796343 -0.02791306 -0.02784892 -0.02776898 -0.02768246 -0.02758982 -0.02750463 -0.0274288
 -0.02736844 -0.02732443 -0.02728694 -0.02725523 -0.02721349 -0.0271623 -0.02709803 -0.02702313 -0.0269463 -0.02686851
 -0.02679751 -0.02673128 -0.0266703 -0.02661088 -0.02654857 -0.02648034 -0.02640079 -0.02631222 -0.02621295 -0.02611113
 -0.0260103 -0.02591386 -0.02582497 -0.02573691 -0.02564909 -0.02555486 -0.02545293 -0.02534446 -0.02522942 -0.02511032
 -0.02498719 -0.02485952 -0.0247277 -0.02459397 -0.02445959 -0.02433123 -0.0242095 -0.02409993 -0.0240015 -0.02391577
 -0.02383938 -0.02376963 -0.02370096 -0.02362764 -0.02354543 -0.02344953 -0.02334004 -0.02321569 -0.02307832 -0.02292752
 -0.02276828 -0.02260016 -0.02243579 -0.02227637 -0.0221338 -0.0220093 -0.02189997 -0.02180537 -0.02171481 -0.02162883
 -0.02154695 -0.02147041 -0.02140608 -0.0213506 -0.0213004 -0.02124661 -0.02117019 -0.02106682 -0.02091874 -0.02073799
 -0.02052583 -0.02030438 -0.02008854 -0.01989013 -0.01972113 -0.01957199 -0.01944445 -0.0193179 -0.01918788 -0.0190456
 -0.01888829 -0.01872445 -0.01855428 -0.01839164 -0.01823715 -0.01810178 -0.01798464 -0.01788573 -0.01780041 -0.0177087
 -0.01760636 -0.01746774 -0.01729971 -0.01710174 -0.01688547 -0.01666805 -0.01645171 -0.01624439 -0.01604576 -0.01585666
 -0.01568055 -0.0155207 -0.01537264 -0.01523798 -0.01510101 -0.01495872 -0.01480161 -0.01462742 -0.01443894 -0.0142362
 -0.01402113 -0.01379392 -0.01355761 -0.01331324 -0.01307102 -0.01283106 -0.01259976 -0.01237535 -0.01215569 -0.0119401
 -0.01172704 -0.01151439 -0.01130057 -0.01107853 -0.01084029 -0.010584 -0.01030333 -0.01000877 -0.009703772 -0.009394883
 -0.009086596 -0.008772593 -0.008452133 -0.008121136 -0.007778224 -0.007429656 -0.00707585 -0.006720567 -0.006363505 -0.005995192
 -0.005613253 -0.005193929 -0.004735096 -0.004210888 -0.00362848 -0.002992297 -0.002316445 -0.001633784 -0.0009450249 -0.0002682587
 0.0004101102 0.001098189 0.001801777 0.002531198 0.003273576 0.004026201 0.004776407 0.005516985 0.00625441 0.006985053
 0.007739685 0.008519316 0.009372919 0.01030522 0.01132556 0.01243195 0.01355193 0.01468275 0.01576399 0.01680867
 0.01784326 0.01888455 0.01999768 0.02118473 0.02248371 0.02388197 0.02537946 0.02695954 0.02860604 0.03030855
 0.03204795 0.03384702 0.03570159 0.03767233 0.03978518 0.04204122 0.04446317 0.04692034 0.04939927 0.05179715
 0.05410119 0.05635438 0.05855903 0.06077483 0.06299704 0.0652017 0.06739036 0.06954656 0.07169956 0.07393214
 0.07625751 0.07876636 0.08139247 0.08408543 0.08677731 0.08935961 0.09187412 0.09430671 0.09673648 0.09920396
 0.1017292 0.1043303 0.1069895 0.1096926 0.1125085 0.1154288 0.1186694 0.1222499 0.1262531 0.130671
 0.1351241 0.139593 0.1437207 0.1475626 0.1511979 0.1546819 0.1582291 0.1618398 0.165612 0.1695381
 0.1736189 0.1779324 0.1825127 0.1875535 0.1931965 0.1995624 0.2068283 0.2146888 0.2231537 0.2316308
 0.2399821 0.247924 0.2553792 0.2624227 0.2690473 0.2754711 0.2817107 0.2881587 0.294855 0.3023832
 0.3106796 0.3198514 0.3295942 0.3389636 0.3479097 0.3557628 0.3628991 0.3695886 0.3761077 0.3828781
 0.3898861 0.3972662 0.4048863 0.412708 0.4206679 0.4287632 0.4368364 0.4448695 0.4526471 0.4601156
 0.4673598 0.474379 0.4813417 0.4882467 0.4948349 0.501076 0.506545 0.5112855 0.5152797 0.5186124
 0.5215665 0.5241191 0.5263798 0.5282449 0.5295576 0.5303982 0.5307586 0.5308181 0.5307124 0.5305067
 0.5302775 0.5299932 0.5296646 0.5292304 0.5286839 0.5279543 0.5270347 0.5258432 0.5243703 0.5226057
 0.5205519 0.5183537 0.5160172 0.5136681 0.5112869 0.5088427 0.5063108 0.5035906 0.5006882 0.4975469
 0.4942354 0.4908162 0.487383 0.4840588 0.4808839 0.4779211 0.475189 0.4726981 0.4705079 0.468639
 0.4671343 0.4660164 0.465245 0.4648192 0.4646868 0.4648425 0.4652765 0.465988 0.4669713 0.4682225
 0.4697053 0.4714113 0.4732828 0.4753094 0.4774297 0.4796371 0.4818855 0.4841803 0.486507 0.4888802
 0.4913074 0.4938073 0.4963937 0.4990846 0.5018945 0.5048236 0.5078781 0.5110401 0.5143086 0.5176601
 0.521095 0.5245633 0.5280616 0.531535 0.5349824 0.538465 0.5419959 0.5457585 0.5497274 0.5538994
 0.5581754 0.5622138 0.5659935 0.5692785 0.572155 0.5746769 0.5768466 0.5787054 0.580183 0.5812218
 0.5818412 0.5820379 0.5818301 0.5812606 0.5801584 0.5784946 0.5761195 0.5729617 0.5693644 0.5653492
 0.5612174 0.5569795 0.5524703 0.5476802 0.5424413 0.5367751 0.5307117 0.5242704 0.5175625 0.5105176
 0.5030831 0.4950718 0.4860957 0.4762702 0.4653383 0.4541833 0.4434166 0.4334728 0.4249098 0.4171367
 0.410069 0.4032199 0.3964153 0.3896738 0.3829634 0.3764628 0.3701934 0.3641293 0.3582681 0.352435
 0.3466279 0.3407599 0.3348527 0.3289786 0.3231528 0.317475 0.3119184 0.3064753 0.3011109 0.2957596
 0.2904253 0.2850978 0.2797554 0.274426 0.2689301 0.2632071 0.2570359 0.2502111 0.2431569 0.235839
 0.2292054 0.2234629 0.2186097 0.2146967 0.2110567 0.2076585 0.2040899 0.2003682 0.1965537 0.1926885
 0.1890502 0.1856151 0.1824523 0.1795107 0.1766827 0.1740044 0.1714635 0.1691629 0.1672237 0.1656682
 0.1645692 0.1638585 0.1635129 0.1635043 0.1637989 0.1644722 0.1655077 0.1671266 0.1693325 0.1725242
 0.176745 0.1821947 0.1888777 0.1960164 0.2035254 0.2101196 0.2158303 0.2201497 0.2232199 0.2252408
 0.2263405 0.2268833 0.2269831 0.2269598 0.2269142 0.2270691 0.227487 0.2283234 0.2294562 0.2309163
 0.2323828 0.2337302 0.2348372 0.2356256 0.2362172 0.2366174 0.2369475 0.2372213 0.2374804 0.2377274
 0.2379445 0.2381302 0.2382595 0.2383385 0.2383814 0.2384096 0.2384958 0.2386753 0.2390637 0.2396852
 0.2406293 0.2419027 0.243533 0.2455592 0.2480089 0.250943 0.2544139 0.2584021 0.2629287 0.2678897
 0.2732521 0.2790103 0.2851369 0.2918316 0.2991121 0.3071236 0.3158729 0.3250088 0.3344889 0.3436666
 0.3525528 0.3608749 0.3686922 0.3760938 0.3830588 0.3896134 0.3956412 0.4009772 0.4055097 0.4090471
 0.4115458 0.4129048 0.4131429 0.4122284 0.4102499 0.4072127 0.4032708 0.3984375 0.3929514 0.3868262
 0.3804269 0.3737853 0.367214 0.3607311 0.3543626 0.3480977 0.3417909 0.3354522 0.3290578 0.3226532
 0.3163976 0.3103003 0.3044812 0.2988804 0.2934595 0.288151 0.2828587 0.2775577 0.2721848 0.2667807
 0.2613308 0.2559491 0.2506652 0.2455988 0.2407937 0.2362678 0.2320396 0.2280296 0.2242321 0.220582
 0.2170753 0.2137451 0.2105979 0.2077342 0.2051537 0.2029113 0.2009868 0.1993389 0.1979437 0.1967231
 0.1956674 0.1947252 0.1938986 0.1931737 0.1925462 0.1920165 0.1915553 0.1911548 0.1907642 0.1903662
 0.1899154 0.1893967 0.1887898 0.1880871 0.1872962 0.1864151 0.1854763 0.1844815 0.1834732 0.1824532
 0.181453 0.1804737 0.1795356 0.1786411 0.1778098 0.1770434 0.1763563 0.175749 0.1752266 0.1747941
 0.1744577 0.174225 0.1741074 0.1740984 0.1742049 0.1743922 0.174656 0.1749404 0.1752343 0.1754803
 0.175668 0.1757596 0.175749 0.1756307 0.1754037 0.1750871 0.1746823 0.1742147 0.1736867 0.1731248
 0.1725346 0.1719493 0.1713745 0.1708417 0.1703492 0.1699107 0.169516 0.1691603 0.1688297 0.1685126
 0.1681972 0.1678731 0.1675375 0.167185 0.1668242 0.1664554 0.16609 0.1657303 0.1653816 0.1650449
 0.1647204 0.1644081 0.1641044 0.1638085 0.1635103 0.1632093 0.1628968 0.1625766 0.1622571 0.1619469
 0.1616711 0.1614377 0.1612716 0.161176 0.1611645 0.1612367 0.1613965 0.1616432 0.1619783 0.1623967
 0.1629016 0.1634686 0.1640987 0.1647387 0.165383 0.1659718 0.1664973 0.1669329 0.1672762 0.1675398
 0.1677251 0.1678535 0.1679256 0.1679544 0.167942 0.1679019 0.167838 0.1677688 0.1676924 0.1676185
 0.167531 0.1674195 0.1672566 0.1670177 0.1666807 0.1662234 0.1656472 0.164943 0.1641358 0.1632278
 0.1622518 0.1612125 0.1601399 0.1590372 0.1579285 0.1568155 0.155708 0.1546051 0.1534925 0.1523663
 0.1511949 0.1499769 0.1486874 0.1473344 0.1459215 0.1444671 0.1430031 0.1415483 0.1401394 0.1387818
 0.1374943 0.1362691 0.1351064 0.1340003 0.1329479 0.1319486 0.1310038 0.1301022 0.1292446 0.1284049
 0.1275808 0.1267518 0.1259162 0.1250792 0.1242425 0.123434 0.122657 0.121947 0.1213066 0.1207647
 0.1203225 0.1199978 0.1197896 0.1197055 0.1197389 0.1198866 0.1201362 0.1204746 0.1208999 0.1214001
 0.1220037 0.1227128 0.1235762 0.1246075 0.1258361 0.1272736 0.1289051 0.1307333 0.1327099 0.1348325
 0.1370425 0.1393368 0.1416617 0.1440159 0.1463626 0.1487045 0.1510306 0.1533494 0.1556749 0.1580188
 0.1604083 0.1628485 0.1653604 0.1679325 0.1705659 0.1732382 0.1759367 0.178646 0.1813555 0.1840641
 0.1867689 0.1894745 0.1921802 0.1948958 0.1976203 0.2003829 0.2031846 0.2060801 0.2090729 0.2122287
 0.2155503 0.2190905 0.2228476 0.2268442 0.2310731 0.2355293 0.2402009 0.2450698 0.2501122 0.2553018
 0.2605912 0.2659422 0.2712871 0.2765827 0.2817625 0.2867941 0.2916232 0.2962331 0.3005717 0.3046301
 0.3083551 0.3117396 0.3147484 0.3173778 0.3196373 0.3215301 0.3231173 0.3244073 0.3254865 0.3263631
 0.3271126 0.3277466 0.3283259 0.3288744 0.3294578 0.330106 0.3308836 0.3318046 0.3329063 0.3341804
 0.335634 0.3372505 0.3390266 0.3409425 0.3429956 0.3451549 0.3474179 0.3497406 0.3521199 0.3545018
 0.3568832 0.3592039 0.3614605 0.3635947 0.3656025 0.3674288 0.369066 0.3704561 0.3715881 0.3724045
 0.3728943 0.3730127 0.3727502 0.3720763 0.3709881 0.3694676 0.3675328 0.3651817 0.3624583 0.3593735
 0.3559859 0.3523079 0.3484073 0.3442931 0.3400458 0.3356729 0.331258 0.3268069 0.3223913 0.3180142
 0.3137286 0.309535 0.3054626 0.3015094 0.2976815 0.29398 0.2904083 0.286976 0.283702 0.2805959
 0.2776806 0.2749527 0.2724213 0.2700677 0.2678885 0.2658487 0.2639395 0.2621092 0.260344 0.2585973
 0.2568558 0.2551085 0.25335 0.2516056 0.2498761 0.2482013 0.2465833 0.2450632 0.2436429 0.2423569
 0.2412046 0.2402039 0.2393509 0.2386473 0.2380816 0.2376421 0.2372972 0.2370124 0.2367325 0.2364023
 0.2359665 0.2353755 0.2345989 0.2336119 0.2324054 0.2309726 0.229311 0.2274185 0.2252982 0.2229489
 0.2203863 0.2176105 0.2146586 0.2115339 0.2083023 0.2049712 0.2016259 0.1982755 0.1950017 0.1918131
 0.1887733 0.1858886 0.1832003 0.1807097 0.1784348 0.1763741 0.1745316 0.1729072 0.1715048 0.1703147
 0.1693405 0.1685459 0.1679275 0.1674278 0.1670392 0.1666996 0.1664041 0.1660802 0.1657238 0.1652456
 0.164641 0.1638307 0.1628155 0.1615622 0.1600793 0.1583834 0.1564877 0.1544357 0.152241 0.1499487
 0.1475704 0.1451374 0.1426632 0.1401667 0.1376682 0.1351844 0.1327324 0.1303255 0.1279634 0.1256495
 0.1233756 0.1211387 0.1189444 0.1167919 0.1146985 0.1126651 0.1107072 0.1088256 0.1070385 0.105348
 0.1037816 0.1023394 0.10104 0.09987532 0.09883417 0.09790325 0.09705099 0.09627049 0.09553658 0.09485607
 0.09422419 0.09365593 0.09316009 0.09274515 0.0924198 0.09217583 0.09201508 0.0919171 0.09187897 0.09188128
 0.09192118 0.0919881 0.09208108 0.09219456 0.09232784 0.09246697 0.09260877 0.09272152 0.09280098 0.09280956
 0.09274881 0.09260088 0.09237632 0.09208538 0.0917419 0.09136786 0.09097514 0.09058052 0.09019692 0.08983436
 0.08951079 0.08923361 0.08902533 0.08889267 0.08885687 0.0889235 0.08910356 0.08939996 0.08980956 0.09033253
 0.09096051 0.09169313 0.09252479 0.09345421 0.09446996 0.09556697 0.09671767 0.09791457 0.09912137 0.1003344
 0.1015271 0.1027054 0.1038633 0.1050176 0.1061805 0.1073689 0.1086014 0.1098735 0.1111945 0.1125293
 0.1138728 0.1151812 0.1164442 0.1176394 0.1187614 0.1198098 0.1207842 0.1216832 0.1225068 0.1232461
 0.1239021 0.1244771 0.1249755 0.1254205 0.1258156 0.1261852 0.1265267 0.1268457 0.127139 0.1274013
 0.1276402 0.1278582 0.1280703 0.1282883 0.1285179 0.1287681 0.1290255 0.1292908 0.1295377 0.1297615
 0.1299395 0.1300668 0.1301421 0.1301639 0.1301538 0.1301129 0.1300662 0.1300135 0.1299645 0.1299172
 0.1298676 0.1298144 0.1297506 0.1296777 0.1295934 0.1295047 0.1294183 0.129344 0.1292946 0.1292731
 0.1292879 0.1293317 0.1294041 0.1294954 0.129603 0.1297182 0.1298397 0.1299552 0.1300632 0.1301511
 0.1302174 0.1302612 0.1302826 0.1302935 0.1302947 0.1303003 0.1303102 0.1303312 0.1303617 0.1303996
 0.1304447 0.1304941 0.1305518 0.1306224 0.1307076 0.1308128 0.1309315 0.1310596 0.1311961 0.131335
 0.1314954 0.1316813 0.1319119 0.1321948 0.1325241 0.1329009 0.1333108 0.1337521 0.1342302 0.1347454
 0.1353127 0.1359306 0.1365944 0.1372987 0.1380153 0.1387396 0.1394418 0.1401241 0.1407758 0.141404
 0.142017 0.1426131 0.143198 0.1437564 0.1442782 0.1447579 0.145184 0.1455808 0.1459512 0.1463267
 0.1467171 0.1471263 0.1475584 0.1479904 0.1484214 0.1488235 0.1491954 0.1495205 0.1498006 0.150044
 0.1502566 0.1504719 0.1506945 0.1509576 0.1512584 0.1516084 0.1520004 0.1524292 0.1528876 0.1533665
 0.1538596 0.1543593 0.1548636 0.1553697 0.155877 0.1563857 0.1568901 0.1573881 0.1578799 0.158364
 0.1588544 0.1593527 0.1598582 0.1603702 0.1608561 0.1613155 0.1617274 0.1620997 0.1624605 0.1628218
 0.1632349 0.1637109 0.1642948 0.1649999 0.1658665 0.1668959 0.1681145 0.1694851 0.1710047 0.1725923
 0.1742248 0.1757819 0.1772328 0.1784345 0.1793474 0.179897 0.180052 0.1799136 0.17948 0.1789811
 0.1784286 0.1780204 0.1777574 0.1777225 0.1779028 0.1782833 0.1788423 0.1795079 0.1802571 0.1810078
 0.1817437 0.1824087 0.1829874 0.1834458 0.1837683 0.1839272 0.1839375 0.1837864 0.1835422 0.1832168
 0.1828972 0.1826059 0.1823905 0.182265 0.1822175 0.1822499 0.1823158 0.1824133 0.1825138 0.1826202
 0.1827523 0.1829116 0.1831222 0.1833731 0.1836405 0.1839151 0.1841598 0.1843844 0.1845888 0.1847815
 0.1849741 0.1851631 0.1853416 0.1855342 0.185741 0.186022 0.1864096 0.1868864 0.1874705 0.1880362
 0.1885625 0.1890079 0.1893637 0.1896704 0.1899294 0.1901606 0.1903633 0.190538 0.1906837 0.1907993
 0.1908775 0.1908954 0.1908449 0.1906917 0.1904455 0.1901032 0.1896844 0.1892107 0.1886897 0.188134
 0.1875459 0.186929 0.1862862 0.185619 0.1849297 0.184214 0.1835032 0.1827956 0.1821647 0.1816172
 0.1812013 0.180919 0.180732 0.1806338 0.1805365 0.1804354 0.1802584 0.1800061 0.1796397 0.179169
 0.1785916 0.1779304 0.1772198 0.1764748 0.1757284 0.1749756 0.174219 0.173466 0.1727167 0.1719926
 0.171302 0.1706535 0.1700469 0.1695072 0.1690345 0.1686802 0.1684516 0.1683458 0.1683625 0.1684292
 0.1685446 0.1686702 0.1688128 0.1689932 0.1692091 0.1694654 0.1697527 0.1700485 0.170355 0.1706631
 0.1709837 0.1713224 0.171697 0.1721178 0.1726133 0.1732052 0.1738943 0.1746978 0.1755545 0.1764572
 0.1773371 0.1781784 0.1789766 0.1797274 0.180473 0.1812155 0.1819932 0.1828072 0.1836812 0.1846124
 0.1855989 0.1866332 0.1876842 0.1887586 0.1898477 0.1909803 0.1922006 0.1935216 0.1949846 0.196561
 0.1982443 0.2000036 0.2018159 0.2036838 0.2055993 0.2075876 0.2096518 0.2118196 0.2140992 0.2164808
 0.2189696 0.2214749 0.2239919 0.2264 0.2286974 0.2308305 0.2328025 0.2346105 0.236246 0.2376795
 0.2388982 0.2398562 0.2405499 0.2409559 0.241067 0.2408664 0.2403492 0.2394995 0.2383399 0.236875
 0.2351357 0.2331359 0.230887 0.2283913 0.2256699 0.2227207 0.2196023 0.2163176 0.2129422 0.2094802
 0.2059875 0.2024642 0.1989223 0.1953608 0.19177 0.1881682 0.1846035 0.181118 0.177841 0.1747833
 0.1720392 0.1695479 0.1672809 0.1651733 0.1631578 0.1612234 0.1593489 0.1575295 0.1557622 0.1540302
 0.1523195 0.1506752 0.1490961 0.1476747 0.1464245 0.1453314 0.1443955</values></Ydata></AB><ScSm><Ydata ylabel="Single channel"><values byteorder="INTEL" format="FLOAT32" numvalues="1814"> 0.07300846 0.07301068 0.0730855 0.07325077 0.07346983 0.07367744 0.07382439 0.07390384 0.07393153 0.07391131
 0.07384984 0.07380217 0.0738557 0.07404422 0.07429695 0.07448631 0.07452926 0.07446194 0.07441925 0.07450221
 0.07463995 0.07461502 0.07426949 0.07368815 0.07314226 0.07284012 0.07279661 0.07299465 0.07352147 0.07431959
 0.07490382 0.0747095 0.07380709 0.07293245 0.07266992 0.07289115 0.07310203 0.07301217 0.07262455 0.07212178
 0.07191336 0.07252548 0.07408416 0.07588802 0.07665971 0.07535289 0.07190183 0.06745696 0.06395788 0.06309095
 0.06509856 0.06844495 0.07097022 0.07161306 0.07091314 0.06991196 0.06903802 0.06825109 0.06776297 0.06806165
 0.06923287 0.07052062 0.07072508 0.06922439 0.06671248 0.06470742 0.06417282 0.06491651 0.06639974 0.06832181
 0.06979448 0.06887698 0.06448895 0.0588203 0.0563449 0.05956228 0.06633227 0.07197772 0.07344626 0.07100293
 0.06685488 0.0633261 0.06199924 0.06329149 0.06636374 0.06981729 0.07254645 0.07379915 0.07299489 0.07022616
 0.06674653 0.06435958 0.06430924 0.06679567 0.07093726 0.0748487 0.07649811 0.07521142 0.07211907 0.06895913
 0.06693725 0.06673881 0.06869189 0.07241681 0.07681403 0.08071041 0.08333714 0.08439429 0.08410603 0.08307803
 0.08183783 0.08076087 0.08039804 0.08112724 0.08227573 0.08238514 0.08080041 0.0785384 0.07723649 0.07745793
 0.07824321 0.07827981 0.07723319 0.0755229 0.0730188 0.06902857 0.06388678 0.05936499 0.05689832 0.05649606
 0.05779801 0.06063413 0.06379278 0.06495528 0.06324165 0.06082301 0.06076733 0.06376317 0.06777175 0.07051001
 0.07155716 0.07217754 0.07369275 0.07613486 0.07808444 0.07774489 0.07473031 0.07105765 0.06971383 0.07172546
 0.07517637 0.07755709 0.07840022 0.07900354 0.08016067 0.08093543 0.07964213 0.07585189 0.07147035 0.06956349
 0.07168922 0.0763353 0.08001994 0.07988248 0.07560699 0.06946446 0.06453371 0.06258202 0.06358941 0.06690663
 0.07195581 0.07765467 0.08214576 0.08383811 0.08257468 0.07950646 0.07579663 0.07157865 0.06656881 0.06178693
 0.05975561 0.06210515 0.06747378 0.07264352 0.07541715 0.07571076 0.07428849 0.07140167 0.0669805 0.06187966
 0.05828355 0.05802029 0.06037116 0.06247577 0.06232423 0.06057997 0.05911427 0.05866568 0.05857608 0.05820412
 0.05781791 0.05810211 0.05917366 0.06031905 0.06069347 0.06009843 0.05900431 0.05799156 0.05723742 0.05640879
 0.0551306 0.05371854 0.05316429 0.05404843 0.05573833 0.05704199 0.05741061 0.05713835 0.05658162 0.05557198
 0.05369639 0.05109327 0.0487907 0.04794754 0.04872297 0.05017427 0.0512473 0.05153671 0.0511691 0.05042072
 0.04954013 0.0486643 0.0478464 0.04722461 0.04699631 0.04712766 0.0472909 0.047195 0.04681611 0.04625364
 0.04553786 0.04466674 0.04373759 0.0429535 0.04248124 0.04231636 0.04231387 0.04232731 0.04225869 0.04201557
 0.04154433 0.04091452 0.04027514 0.03971963 0.03925834 0.03889857 0.03866732 0.03854912 0.03845976 0.03830712
 0.0380605 0.03774747 0.03739826 0.03701931 0.0366202 0.0362382 0.03592219 0.03569517 0.03552884 0.0353632
 0.03517338 0.03499938 0.03487214 0.03473747 0.0345114 0.03419139 0.03385732 0.03357926 0.03336807 0.03319647
 0.03302556 0.03281464 0.0325333 0.03218485 0.0318278 0.03155595 0.03142767 0.03142012 0.03146608 0.03150768
 0.031501 0.03141681 0.03126742 0.03109737 0.03092921 0.03074697 0.03053727 0.03032111 0.03014569 0.03005338
 0.03004445 0.03006828 0.0300672 0.03002102 0.02994079 0.02984679 0.02976511 0.02971109 0.02966287 0.02958184
 0.02946522 0.02935155 0.02927521 0.0292349 0.02920177 0.02914867 0.02907855 0.02902272 0.02900302 0.02900613
 0.02900515 0.02899076 0.02897116 0.02895314 0.02892994 0.02888444 0.02880944 0.02872453 0.02865937 0.02862192
 0.02859902 0.02858305 0.02857859 0.02858611 0.02859486 0.02859213 0.02857397 0.02854767 0.0285208 0.028487
 0.02843257 0.02835975 0.02828924 0.02823547 0.02819114 0.02813987 0.02807451 0.02800085 0.02792829 0.02785883
 0.0277855 0.02770063 0.02760118 0.0274879 0.02736896 0.02726278 0.02718362 0.02712326 0.02705828 0.02697593
 0.02688526 0.02680335 0.0267372 0.02668004 0.02662328 0.02657026 0.02653379 0.02652086 0.02652634 0.02654222
 0.02656446 0.02659168 0.02662754 0.026686 0.02678377 0.02692239 0.0270836 0.02724604 0.02740264 0.02755892
 0.02771904 0.02788007 0.02803924 0.02820108 0.02837542 0.02856814 0.02877228 0.02897008 0.02914976 0.02931928
 0.02949571 0.0296836 0.02987423 0.03006262 0.03025035 0.0304336 0.03060505 0.03076956 0.03094225 0.03112734
 0.03131209 0.03148628 0.0316565 0.03183485 0.03202305 0.03221616 0.03241729 0.03263933 0.03289087 0.0331644
 0.03343868 0.03369243 0.03391968 0.03413627 0.0343708 0.03464472 0.03495622 0.03528148 0.03559352 0.03588396
 0.03616532 0.03645124 0.03674231 0.03703765 0.03735038 0.03769619 0.03806944 0.03844508 0.0388048 0.03915133
 0.03949727 0.03984949 0.04020676 0.04056586 0.04092633 0.04129008 0.04165696 0.04202227 0.04238098 0.04273308
 0.04308239 0.04343263 0.04378653 0.04414372 0.0444956 0.04482996 0.04514774 0.04546683 0.04579911 0.04613035
 0.04643656 0.04671697 0.04699674 0.04729625 0.04761058 0.04792397 0.04823316 0.0485471 0.04886823 0.04918278
 0.04947026 0.04971909 0.04993482 0.05013688 0.05034633 0.05057526 0.05082881 0.05111143 0.05141982 0.05173177
 0.05201707 0.05226285 0.05247949 0.0526857 0.05289978 0.05313947 0.0534125 0.05370696 0.05399971 0.05427089
 0.05451051 0.05472703 0.05495498 0.05523399 0.05557119 0.05593991 0.05632014 0.05671936 0.05714448 0.05757603
 0.05798995 0.0583933 0.05881473 0.05925919 0.05969231 0.06007691 0.06040799 0.06070362 0.06098313 0.06127051
 0.06160004 0.06199239 0.06243049 0.06287415 0.06329386 0.06368192 0.06404014 0.06436855 0.06466398 0.06492434
 0.06515387 0.06536292 0.06556204 0.06575991 0.06596349 0.06616887 0.0663504 0.06647094 0.06650688 0.06645424
 0.06631045 0.06606607 0.06572364 0.06531048 0.0648559 0.06435809 0.06378549 0.06310926 0.06232334 0.06143704
 0.06046464 0.05942713 0.05835462 0.05728361 0.05625672 0.05532362 0.05453809 0.05395758 0.05364588 0.05365625
 0.05398329 0.05451876 0.05506177 0.05538807 0.05533395 0.05484734 0.05398922 0.05289381 0.05170724 0.05053132
 0.04939812 0.04828101 0.04712865 0.04590689 0.04463481 0.04339474 0.04231656 0.04157736 0.04143444 0.04221002
 0.04413529 0.04713024 0.05074666 0.05438101 0.05758404 0.06020672 0.06232417 0.06408574 0.06562286 0.0670201
 0.06831257 0.06950264 0.07058673 0.07156494 0.07243001 0.07316075 0.07373115 0.07412449 0.07434508 0.0744259
 0.07442366 0.07440285 0.0744201 0.07450739 0.07464893 0.07477002 0.07476103 0.07452157 0.07398315 0.07309107
 0.07178269 0.07005304 0.06815118 0.06674144 0.06672675 0.06869876 0.07246625 0.07715039 0.08176159 0.0856992
 0.08881919 0.09122357 0.09307626 0.09453688 0.09574214 0.09679109 0.09773989 0.09861057 0.09941043 0.1001511
 0.1008511 0.1015241 0.1021744 0.1028051 0.1034215 0.104027 0.1046213 0.1052047 0.1057796 0.106349
 0.1069147 0.1074765 0.1080343 0.1085895 0.1091418 0.1096842 0.110209 0.1107179 0.1112221 0.1117317
 0.1122491 0.1127672 0.1132721 0.1137497 0.1141955 0.1146182 0.1150314 0.1154446 0.1158592 0.1162711
 0.1166766 0.1170761 0.1174732 0.117873 0.1182808 0.1186975 0.1191132 0.119512 0.1198857 0.1202406
 0.1205881 0.1209337 0.1212777 0.1216229 0.121979 0.1223584 0.122766 0.1231925 0.1236187 0.1240287
 0.1244188 0.1247959 0.1251707 0.1255531 0.1259498 0.1263607 0.1267765 0.1271863 0.1275865 0.1279807
 0.1283712 0.1287565 0.1291369 0.1295155 0.129894 0.1302734 0.1306562 0.1310431 0.1314296 0.1318118
 0.132193 0.1325769 0.1329592 0.1333322 0.1336971 0.1340628 0.134434 0.1348058 0.1351719 0.1355324
 0.1358928 0.1362567 0.1366211 0.1369798 0.13733 0.1376739 0.1380147 0.1383535 0.1386918 0.139034
 0.1393844 0.1397443 0.1401096 0.1404717 0.1408219 0.1411587 0.14149 0.1418252 0.1421671 0.1425105
 0.1428486 0.1431798 0.1435084 0.1438388 0.1441688 0.1444925 0.1448082 0.1451214 0.1454407 0.1457694
 0.1461021 0.1464297 0.1467485 0.1470607 0.1473665 0.1476622 0.1479508 0.1482452 0.1485565 0.1488817
 0.1492073 0.1495212 0.1498211 0.1501148 0.1504113 0.1507113 0.1510092 0.1513026 0.1515936 0.151884
 0.1521729 0.1524598 0.1527453 0.1530284 0.153307 0.1535823 0.1538599 0.1541429 0.1544247 0.1546971
 0.1549635 0.1552378 0.155527 0.1558238 0.1561177 0.156403 0.1566797 0.1569514 0.1572224 0.1574922
 0.157758 0.1580225 0.1582909 0.158562 0.1588308 0.1590954 0.1593581 0.1596204 0.1598828 0.1601439
 0.1604018 0.160658 0.1609176 0.1611841 0.1614585 0.161741 0.1620268 0.1623054 0.1625736 0.162842
 0.1631228 0.1634164 0.1637136 0.1640044 0.1642859 0.1645673 0.1648595 0.1651627 0.1654689 0.1657758
 0.1660844 0.1663919 0.1666943 0.1669895 0.1672751 0.1675536 0.1678367 0.1681338 0.1684417 0.1687533
 0.1690654 0.1693741 0.1696756 0.1699713 0.1702633 0.1705519 0.1708408 0.1711342 0.1714288 0.1717222
 0.1720215 0.1723302 0.1726392 0.1729424 0.1732458 0.1735556 0.1738729 0.1741974 0.1745237 0.1748435
 0.1751578 0.1754715 0.1757817 0.1760894 0.1764085 0.1767441 0.1770821 0.1774098 0.1777247 0.1780143
 0.1782391 0.1782914 0.1778997 0.1765248 0.1733443 0.1674092 0.1580164 0.14515 0.1296413 0.1128731
 0.09626691 0.08091204 0.06745656 0.05619027 0.04718499 0.04038356 0.03565295 0.03287708 0.03205813 0.03342188
 0.03753012 0.04494861 0.05500226 0.06467792 0.0698012 0.06833228 0.06231374 0.0560043 0.05233946 0.05152053
 0.05229252 0.05359044 0.05508197 0.05696707 0.05958208 0.0630163 0.06709805 0.07181536 0.07751996 0.08447646
 0.09232317 0.100225 0.1075938 0.1145474 0.1216275 0.1291469 0.1368619 0.1442137 0.1507741 0.1564605
 0.1614484 0.1659728 0.1701923 0.1741771 0.1779658 0.1815679 0.1848747 0.1876139 0.1894795 0.1903657
 0.1904852 0.1902509 0.1900324 0.190006 0.1901863 0.1905352 0.1910216 0.1916265 0.1923372 0.1931406
 0.1940107 0.1949134 0.1958192 0.1967039 0.1975438 0.1983225 0.1990385 0.1996985 0.200309 0.2008738
 0.2013929 0.2018668 0.202304 0.2027198 0.2031242 0.2035187 0.2039036 0.2042788 0.2046373 0.2049692
 0.2052738 0.205561 0.205842 0.2061208 0.206392 0.2066472 0.2068874 0.2071261 0.2073778 0.2076483
 0.2079335 0.2082211 0.208497 0.2087579 0.2090129 0.2092695 0.2095252 0.2097767 0.2100269 0.210279
 0.2105315 0.2107835 0.2110361 0.2112879 0.2115363 0.2117813 0.2120264 0.212276 0.2125313 0.2127868
 0.2130362 0.2132844 0.2135444 0.2138203 0.2141057 0.214395 0.2146848 0.2149671 0.2152377 0.2155014
 0.21576 0.2160039 0.2162271 0.2164424 0.2166758 0.2169446 0.2172408 0.2175364 0.2178089 0.2180602
 0.2183062 0.2185577 0.218813 0.2190607 0.2192926 0.2195253 0.2197945 0.2201115 0.2204466 0.2207678
 0.2210714 0.2213638 0.2216494 0.2219414 0.2222451 0.2225288 0.2227509 0.2229245 0.223126 0.2234289
 0.2238342 0.2242677 0.2246499 0.2249642 0.22525 0.2255516 0.2258908 0.2262454 0.2265226 0.2266245
 0.2266022 0.2266793 0.2270445 0.2276607 0.2283292 0.2288922 0.2293279 0.2296931 0.2300347 0.2303442
 0.2305673 0.2306633 0.2306836 0.2307886 0.2311356 0.2317177 0.2323568 0.2328841 0.2332723 0.2335746
 0.233833 0.234069 0.2342443 0.2342082 0.2338563 0.2334071 0.2333434 0.2339453 0.2349753 0.2359343
 0.2365546 0.2369327 0.2372483 0.2375433 0.2377815 0.2378827 0.2376014 0.2366678 0.2353068 0.2343883
 0.2347059 0.2361754 0.2379779 0.2393826 0.2402102 0.2406457 0.2409148 0.241132 0.2412155 0.2409011
 0.2400426 0.2389996 0.2385368 0.2391209 0.2403966 0.241562 0.2421795 0.2424067 0.2425714 0.2428064
 0.2429572 0.2425438 0.2410382 0.2386428 0.2366766 0.2366435 0.2387574 0.241684 0.2438683 0.2448689
 0.2452139 0.2452516 0.2446374 0.2429498 0.2403229 0.237382 0.2350475 0.2344171 0.2360457 0.2390276
 0.2414992 0.2424759 0.2426905 0.2433728 0.2447691 0.2461465 0.2467526 0.2464018 0.2453388 0.2438169
 0.2419762 0.2402273 0.2394929 0.2405501 0.2430726 0.2457493 0.2475058 0.2483194 0.2486276 0.2480599
 0.2451981 0.2392784 0.2323111 0.2285219 0.2306161 0.2369486 0.243302 0.2470387 0.248527 0.2491537
 0.2494661 0.249029 0.2466689 0.2411126 0.2330034 0.2261672 0.2250284 0.230235 0.2379172 0.2432959
 0.2439535 0.2400927 0.233649 0.2277066 0.2252541 0.2273694 0.23274 0.2389669 0.2440126 0.246737
 0.246871 0.2449223 0.2421355 0.2401773 0.2399345 0.2402029 0.2385944 0.2345571 0.2303062 0.2275731
 0.2249244 0.2204059 0.2157956 0.2154005 0.2204475 0.2270448 0.230563 0.2303192 0.228745 0.2269786
 0.2229495 0.2143899 0.2031294 0.1951358 0.1952778 0.2023026 0.2099735 0.2131481 0.2118347 0.2093895
 0.2079926 0.2064499 0.2019652 0.1938255 0.1851795 0.1804063 0.1805253 0.1823095 0.1821216 0.1788811
 0.1728586 0.1643872 0.1557179 0.1517686 0.1559564 0.1659482 0.1754973 0.1796242 0.1764841 0.1661687
 0.1511175 0.1373259 0.1314755 0.1350468 0.1425819 0.1467382 0.1441386 0.1359478 0.1246495 0.1122687
 0.1012523 0.09479959 0.09489912 0.1002713 0.1066666 0.1091555 0.1048341 0.09489886 0.08451164 0.07910519
 0.07965101 0.08215621 0.08218901 0.0788755 0.07427403 0.07054743 0.0686325 0.06831038 0.06852825 0.06829466
 0.06746792 0.06589124 0.06234451 0.05607924 0.04911809 0.04500087 0.04506456 0.04769438 0.05121691 0.05537555
 0.05947821 0.0613868 0.0599285 0.05716594 0.05668281 0.05979193 0.06437588 0.06744622 0.06811154 0.06777865
 0.06794668 0.06853382 0.06867477 0.06859902 0.0697135 0.07264058 0.07610363 0.07833296 0.07891496 0.0786583
 0.07824409 0.07772523 0.07697454 0.07596602 0.07473674 0.07342947 0.07225081 0.07122904 0.07019179 0.06902388
 0.06764992 0.06568236 0.06252107 0.0582208 0.05403078 0.05144842 0.05068463 0.05069857 0.05076969 0.05097982
 0.05078126 0.04851858 0.04362027 0.0384592 0.03664339 0.03954673 0.04529763 0.05091783 0.05456024 0.05565942
 0.05409529 0.05046279 0.04709155 0.04734371 0.05281781 0.06176798 0.07100038 0.07864968 0.08434093 0.08763011
 0.08783727 0.0854228 0.08253667 0.08184667 0.08497517 0.09173594 0.1000326 0.1061994 0.1067764 0.1020697
 0.097995 0.1016985 0.1138225 0.1271781 0.134794 0.1370837 0.1388716 0.1418759 0.1438937 0.1443445
 0.1464189 0.1526926 0.161247 0.1674667 0.168004 0.1620566 0.1509181 0.138296 0.1294785 0.1274063
 0.1298563 0.1322782 0.1323889 0.1300139 0.1244706 0.1159562 0.1086525 0.1081305 0.1149123 0.1235975
 0.1290903 0.1312896 0.1328895 0.1346685 0.1345202 0.1306335 0.1244702 0.1198426 0.1190641 0.1208324
 0.1222539 0.1218318 0.1195657 0.1153058 0.1088126 0.1013452 0.09566315 0.09369968 0.09468589 0.09600501
 0.09565932 0.09360109 0.09100567 0.08892269 0.08767217 0.08698201 0.08655547 0.08681203 0.08885863 0.09317638
 0.09861583 0.1034671 0.1073886 0.1114994 0.1165888 0.121948 0.1261367 0.1284973 0.1298035 0.1316328
 0.1350806 0.1398124 0.1442449 0.1468458 0.1475652 0.14803 0.1500622 0.1539193 0.1582205 0.1615278
 0.1635476 0.1648198 0.1658526 0.166726 0.1670621 0.1663294 0.1646688 0.163402 0.1641132 0.1670656
 0.1709146 0.1740484 0.1758595 0.1766872 0.1769618 0.1767174 0.1758402 0.1745211 0.1732941 0.1726454
 0.1726956 0.1732602 0.1740872 0.1749852 0.175837 0.1765924 0.1772365 0.1777515 0.1781352 0.1784399
 0.1787352 0.1790278 0.1792744 0.1794892 0.1797737 0.1801941 0.1806777 0.1810869 0.1813525 0.1814606
 0.1813486 0.1809167 0.1801479 0.179125 0.1779052 0.1764654 0.1748581 0.1734013 0.1726038 0.1728107
 0.1739113 0.1754248 0.1768541 0.1779387 0.1786434 0.1790385 0.1792389 0.1793885 0.1796185 0.1799932
 0.1804981 0.181083 0.1817079 0.182348 0.1829835 0.1836157 0.1842901 0.1850748 0.1859961 0.1869987
 0.1879728 0.1888241 0.1895249 0.1901011 0.190578 0.190952 0.1912121 0.191365 0.1914308 0.1914271
 0.1913657 0.1912476 0.1910454 0.1906978 0.1901438 0.1893654 0.1883764 0.1871629 0.1856725 0.1838889
 0.1818852 0.1797685 0.1775948 0.1753664 0.1730841 0.1707595 0.1683942 0.1659761 0.1634944 0.1609485
 0.1583503 0.1557214 0.1530797 0.1504287 0.1477625 0.1450685 0.1423159 0.1394545 0.1364355 0.1332301
 0.1298227 0.1261958 0.1223327 0.1182428 0.1139737 0.1095979 0.1051961 0.1008632 0.09671755 0.09288473
 0.08945791 0.0864703 0.08390334 0.0817221 0.07990012 0.07841113 0.077214 0.07626507 0.07554263 0.0750464
 0.0747766 0.07472213 0.07486087 0.0751626 0.07559499 0.07612851 0.0767332 0.07738216 0.07807578 0.07886294
 0.07982509 0.08102985 0.08249619 0.08420013 0.08610567 0.08817941 0.09037694 0.09263393 0.09488361 0.09707696
 0.09918495 0.1011932 0.1030951 0.104878 0.1065171 0.1079907 0.109296 0.1104514 0.1114972 0.1124951
 0.1135005 0.114529 0.115557 0.1165506 0.1174831 0.1183332 0.1190809 0.1197142 0.120249 0.1207487
 0.1213154 0.1220522 0.1230348 0.1243157 0.1259343 0.1279146 0.1302539 0.1329027 0.1357519 0.1386465
 0.1414199 0.1439259 0.1460624 0.1477862 0.1491011 0.15003 0.1506059 0.1508861 0.1509536 0.1509087
 0.1508673 0.1509501 0.1512485 0.1517988 0.1525872 0.1535679 0.1546808 0.155871 0.1570961 0.1583193
 0.1595102 0.1606551 0.161755 0.162808 0.1638029 0.1647195 0.1655203 0.1661548 0.1665928 0.1668544
 0.1669952 0.167049 0.1669895 0.1667539 0.1663071 0.16567 0.1648855 0.1639777 0.1629542 0.1618307
 0.1606399 0.1594261 0.1582335 0.157087 0.1559752 0.1548515 0.15365 0.1523107 0.1508132 0.1491919
 0.14751 0.1458151 0.1441174 0.1423975 0.1406321 0.1388267 0.1370257 0.1352816 0.1336135 0.1320037
 0.1304263 0.1288692 0.1273439 0.1258837 0.1245286 0.1233076 0.1222366 0.1213231 0.1205614 0.1199273
 0.1193896 0.1189313 0.1185582 0.1182891 0.1181276 0.1180406 0.1179704 0.1178729 0.1177413 0.117598
 0.1174722 0.1173821 0.1173279 0.1173005 0.1172898 0.1172761 0.1172121 0.1170239 0.1166314 0.1159748
 0.1150388 0.1138625 0.1125239 0.1111175 0.1097433 0.1084898 0.1074111 0.106526 0.1058348 0.1053171
 0.104921 0.1045886 0.1043055 0.1041092 0.1040435 0.104095 0.1041701 0.1041485 0.1039838 0.1037485
 0.1035718 0.1035459 0.1036822 0.1039208 0.1041708 0.1043657 0.1044869 0.1045366 0.1045132 0.1044215
 0.1042732 0.1040708 0.1038146 0.1035212 0.1032091 0.102875 0.1024976 0.1020526 0.1015225 0.100909
 0.1002298 0.09949596 0.09871205 0.09788387 0.09699359 0.09600051 0.09493095 0.09394599 0.0932591 0.09298842
 0.09309583 0.09342656 0.09380055 0.09410271 0.09427324 0.09421268 0.09382609 0.09327013 0.09304953 0.0936722
 0.09516378 0.09699997 0.09853327 0.0994281 0.09970052 0.09949074 0.09891701 0.0980683 0.09698954 0.09567207
 0.09411954 0.09238064 0.0904984 0.08852315 0.08658312 0.08483118 0.0833309 0.08206946 0.08103448 0.0802768
 0.07991257 0.07970615 0.07841927 0.07446785 0.06834121 0.06369452 0.06428774 0.06976346 0.07588325 0.07901799
 0.07905295 0.07790925 0.07692066 0.07630435 0.0760107 0.07613513 0.0767505 0.07775253 0.07887515 0.07984072
 0.08053008 0.08095518 0.08106423 0.08060527 0.07911051 0.07605252 0.07126803 0.06533675 0.05939122 0.05447106
 0.05106749 0.04911689 0.04820187 0.04779937 0.04755438 0.04743638 0.04764763 0.04838574 0.04968576 0.05145144
 0.05355923 0.05584601 0.05803854 0.05985593 0.06122104 0.06225321 0.0630382 0.0635248 0.06364801 0.06343181
 0.06295668 0.06231022 0.06157573 0.06080607 0.05998588 0.05904748 0.0579676 0.0568599 0.05591886 0.05523759
 0.05473259 0.05426699 0.05377015 0.05322309 0.05262639 0.05201454 0.05144294 0.05096324 0.05063893 0.05052795
 0.05061273 0.05080623 0.05105004 0.05136049 0.05177756 0.0522892 0.05279094 0.05315913 0.05342574 0.05379261
 0.05434899 0.05487394 0.05509094 0.05505471 0.05511965 0.0555511 0.05628708 0.05705833 0.05763783 0.05797509
 0.05819081 0.05849925 0.0590627 0.05981337</values></Ydata></ScSm><ScRf><Ydata ylabel="Single channel"><values byteorder="INTEL" format="FLOAT32" numvalues="1820"> 0.06056989 0.06071668 0.0608063 0.06084669 0.06085795 0.06087432 0.06093839 0.06107413 0.06126211 0.06144561
 0.06157146 0.06162791 0.06163353 0.06159834 0.06152879 0.06147112 0.06150314 0.061657 0.06187057 0.06203174
 0.06206956 0.06201556 0.06198334 0.06205907 0.06218638 0.06218164 0.06190307 0.06141184 0.06093516 0.0606572
 0.06060043 0.06075408 0.06119046 0.06186057 0.06235546 0.06219521 0.06143138 0.06068075 0.06044301 0.06062241
 0.06080793 0.06074776 0.06043212 0.0600091 0.05982719 0.06033542 0.0616426 0.06315908 0.06381053 0.0627154
 0.05981452 0.05607192 0.05311768 0.05237135 0.05404095 0.05684137 0.05896132 0.05951022 0.05894209 0.05813017
 0.05742443 0.05677417 0.05634763 0.0565646 0.05751934 0.05858961 0.05876081 0.05749776 0.05538087 0.05369044
 0.05323727 0.05385803 0.0551021 0.05672147 0.05797044 0.05721346 0.05353461 0.04876761 0.04667679 0.04938012
 0.05509064 0.05986484 0.0611115 0.05904544 0.05554256 0.05258214 0.0514964 0.05261219 0.05520065 0.05808591
 0.06035726 0.06139828 0.06072207 0.05839881 0.05547671 0.05347174 0.053432 0.05552762 0.05901934 0.06232469
 0.06373311 0.06266705 0.06006786 0.05740174 0.05569559 0.05553349 0.05719241 0.06035289 0.06408601 0.0673945
 0.06962211 0.07051536 0.07027069 0.06941129 0.06839071 0.06751832 0.0672387 0.06785809 0.06881478 0.06889209
 0.06754677 0.06563964 0.0645503 0.06475002 0.06542712 0.06547296 0.06460248 0.0631681 0.06106064 0.05769402
 0.05334878 0.04952601 0.04744723 0.04712654 0.04826563 0.05072698 0.05347837 0.05453203 0.05311819 0.05107101
 0.05100527 0.05352788 0.05692659 0.05926441 0.06017337 0.06072136 0.06203494 0.06414692 0.06585126 0.06561239
 0.06308807 0.05999013 0.05887755 0.06064357 0.06365497 0.06576227 0.06656913 0.06719449 0.06831723 0.06912164
 0.06814465 0.06501098 0.06136813 0.05986809 0.06185628 0.06602542 0.06936464 0.06938723 0.06580606 0.06060189
 0.05647773 0.05498617 0.05611833 0.05933894 0.06417903 0.06968422 0.07416639 0.0761473 0.07542865 0.07302076
 0.06998679 0.06645542 0.06216185 0.05807894 0.0566278 0.05939283 0.06509516 0.070658 0.07395344 0.07486238
 0.07407451 0.07177521 0.06785501 0.06319994 0.06011277 0.06052293 0.06366342 0.06650431 0.06692564 0.06565238
 0.06469798 0.0648542 0.06539373 0.06561773 0.06586034 0.06692478 0.06893566 0.07103539 0.07220919 0.07220265
 0.07157347 0.07104482 0.0708469 0.07054553 0.06965975 0.06862165 0.06872337 0.07069397 0.07369192 0.07617143
 0.07743302 0.07787178 0.07793814 0.07734692 0.07548763 0.07256943 0.07009155 0.06973277 0.07172573 0.0747059
 0.07712863 0.07838552 0.07866259 0.07837211 0.07786869 0.07733992 0.07687738 0.07672694 0.07722063 0.07830289
 0.07942523 0.08009474 0.08027654 0.08014881 0.07975301 0.07906713 0.07825969 0.07769224 0.07765827 0.07816152
 0.07896411 0.07980102 0.08047289 0.08079851 0.08067618 0.08023251 0.07975312 0.07942133 0.07924722 0.07924488
 0.07949759 0.07999481 0.08054742 0.08094528 0.0811279 0.08115809 0.08109657 0.08095687 0.08075381 0.0805572
 0.08048519 0.08061757 0.08089948 0.08118035 0.08138668 0.08159247 0.08185934 0.08208419 0.0821068 0.08192686
 0.08171739 0.08163655 0.08169867 0.08182105 0.08191893 0.08192071 0.08175153 0.08139747 0.08100265 0.08081809
 0.08099891 0.08149232 0.08213134 0.08275589 0.08323417 0.08348673 0.08354747 0.08352745 0.08348347 0.08337791
 0.08318117 0.08296623 0.0828844 0.08305253 0.08344959 0.08392423 0.08431533 0.084552 0.0846523 0.08469221
 0.08477854 0.08496334 0.08516119 0.08522961 0.08515213 0.08507121 0.08511771 0.08526365 0.08536848 0.08534318
 0.08524741 0.08522455 0.08535152 0.08557191 0.08577912 0.08593588 0.08609293 0.08629998 0.08651279 0.08660759
 0.08651145 0.08630242 0.08613372 0.08607097 0.08606809 0.08609547 0.08620182 0.08641531 0.08665437 0.08679673
 0.08681516 0.08679868 0.08683732 0.08691582 0.08693833 0.08684111 0.0866584 0.08648447 0.08639704 0.08641611
 0.08650523 0.08659413 0.08661547 0.08654544 0.08641608 0.08628301 0.08618301 0.08613372 0.08616723 0.0863246
 0.0865861 0.0868258 0.0868838 0.08670878 0.08641739 0.08619438 0.08612847 0.08614726 0.08610801 0.08593872
 0.0856854 0.08544192 0.08526213 0.08513988 0.08504444 0.08495852 0.08489785 0.0849071 0.08501464 0.08516915
 0.08524357 0.08514052 0.0848901 0.0846188 0.08443375 0.08435941 0.08435822 0.08437338 0.08437148 0.08437544
 0.08443236 0.08452788 0.08457559 0.08452052 0.08441199 0.08435024 0.08440019 0.08456524 0.08478686 0.08495405
 0.08497449 0.0848676 0.08475062 0.084718 0.08476753 0.08484806 0.08493359 0.08502731 0.08512747 0.08522537
 0.08533271 0.08548458 0.08570495 0.08597398 0.086233 0.08642451 0.08653882 0.08663018 0.08678 0.08703002
 0.08734743 0.08765574 0.08789948 0.08808216 0.08824787 0.08842957 0.08862349 0.08881978 0.08904008 0.0893171
 0.08964447 0.08997853 0.09028971 0.09058478 0.09087828 0.09116949 0.09145503 0.09175056 0.09209111 0.09250084
 0.09294935 0.09334823 0.09361774 0.09376365 0.09387825 0.0940697 0.09438751 0.09478413 0.09513466 0.09533453
 0.09540918 0.09549738 0.09569778 0.09596726 0.09620852 0.09642148 0.09670749 0.09712736 0.09760699 0.09800399
 0.0982459 0.0983856 0.09852861 0.09871985 0.09891118 0.09903882 0.09911121 0.09919444 0.09932513 0.09948565
 0.09967439 0.09994407 0.10033 0.1007745 0.1011691 0.1014535 0.1016437 0.1017835 0.1019013 0.1019997
 0.1020627 0.1020838 0.1020988 0.1021598 0.1022669 0.1023584 0.1023908 0.1023973 0.1024477 0.1025818
 0.1028026 0.1030982 0.1034349 0.1037524 0.1040148 0.1042649 0.1045798 0.1049571 0.1052857 0.105464
 0.1055114 0.1055214 0.1055422 0.105564 0.1056048 0.1057318 0.1059812 0.1063132 0.1066639 0.1070094
 0.1073599 0.107715 0.1080401 0.1082788 0.1083911 0.1083894 0.1083432 0.1083437 0.1084589 0.1087037
 0.1090333 0.1093708 0.1096534 0.1098535 0.1099567 0.1099538 0.1098819 0.1098433 0.1099303 0.1101212
 0.1102835 0.1102864 0.1100889 0.1097196 0.1092128 0.1085929 0.1079062 0.1072352 0.1066689 0.1062632
 0.1060379 0.1060099 0.1062132 0.1066623 0.1072984 0.1080005 0.1086533 0.1091767 0.1094899 0.1095026
 0.109181 0.1085982 0.1078882 0.1071653 0.1064943 0.1058928 0.1053328 0.1047775 0.1042634 0.1039378
 0.1039888 0.1045329 0.1055596 0.1069391 0.1084613 0.1099026 0.1111146 0.1120791 0.1128777 0.1136008
 0.1142896 0.1149537 0.1156093 0.1162664 0.116895 0.1174465 0.1179123 0.1183292 0.1187288 0.119107
 0.1194422 0.1197185 0.11994 0.1201394 0.1203513 0.1205561 0.1206784 0.1206683 0.1205621 0.1204352
 0.1203163 0.1201684 0.1199343 0.1195856 0.1191568 0.1187635 0.1185849 0.1187911 0.1194499 0.1204839
 0.121728 0.1230326 0.124305 0.1254635 0.1264082 0.1270758 0.1275007 0.1277904 0.1280472 0.1283255
 0.1286378 0.1289709 0.1292997 0.1296049 0.1298858 0.1301603 0.1304555 0.1307842 0.1311227 0.1314224
 0.1316599 0.1318726 0.132132 0.1324782 0.1328782 0.1332589 0.1335835 0.1338851 0.1342051 0.1345214
 0.1347736 0.1349519 0.135118 0.1353396 0.1356376 0.1359914 0.1363565 0.1366758 0.136913 0.1370864
 0.1372505 0.1374438 0.137668 0.1379124 0.1381705 0.1384342 0.1386909 0.1389417 0.1392089 0.1395083
 0.139816 0.1400791 0.1402682 0.1404099 0.1405573 0.1407389 0.1409431 0.1411449 0.1413399 0.1415533
 0.141818 0.1421348 0.1424562 0.1427182 0.142893 0.1430092 0.1431219 0.1432691 0.1434562 0.1436693
 0.1438914 0.1441089 0.1443159 0.144519 0.1447308 0.1449531 0.145172 0.1453757 0.1455692 0.1457681
 0.1459793 0.1461965 0.1464162 0.1466525 0.1469249 0.1472275 0.1475198 0.1477588 0.1479333 0.1480647
 0.1481835 0.1483132 0.1484673 0.1486475 0.1488462 0.1490545 0.1492662 0.1494762 0.1496793 0.1498743
 0.1500649 0.150257 0.1504545 0.1506587 0.1508719 0.1511 0.1513447 0.1515941 0.1518264 0.1520278
 0.1522053 0.1523806 0.1525717 0.1527776 0.1529793 0.1531608 0.153328 0.1535035 0.1537027 0.1539211
 0.1541412 0.1543472 0.154534 0.1547086 0.1548816 0.15506 0.1552453 0.1554362 0.1556307 0.1558283
 0.1560304 0.1562358 0.1564379 0.1566317 0.1568201 0.1570111 0.1572124 0.1574268 0.1576494 0.1578687
 0.1580737 0.1582602 0.1584325 0.1586028 0.158785 0.1589847 0.1591949 0.1594053 0.1596117 0.159816
 0.1600218 0.1602332 0.1604489 0.1606614 0.1608644 0.1610611 0.1612582 0.1614588 0.1616624 0.1618677
 0.1620745 0.1622839 0.162497 0.1627129 0.1629311 0.1631546 0.1633836 0.1636094 0.1638203 0.1640112
 0.1641861 0.1643561 0.1645319 0.1647136 0.164892 0.1650631 0.1652343 0.1654126 0.1655973 0.1657865
 0.1659807 0.1661806 0.1663872 0.1666009 0.1668148 0.167019 0.1672119 0.167403 0.1676028 0.1678135
 0.1680284 0.1682389 0.1684439 0.1686495 0.1688564 0.1690579 0.1692539 0.1694541 0.1696647 0.1698834
 0.1701059 0.1703268 0.1705394 0.1707439 0.170947 0.1711507 0.171353 0.1715572 0.1717677 0.1719828
 0.1721995 0.1724175 0.1726339 0.1728463 0.173057 0.1732665 0.1734712 0.1736719 0.1738748 0.1740801
 0.1742852 0.1744936 0.1747068 0.1749182 0.1751265 0.1753393 0.1755588 0.1757799 0.176 0.1762194
 0.1764393 0.1766613 0.1768778 0.177064 0.1771778 0.177119 0.17662 0.1751387 0.1718501 0.1658121
 0.1563344 0.1434077 0.1278611 0.111074 0.09446738 0.07912757 0.06569859 0.05446883 0.04550679 0.03874385
 0.03403471 0.03126066 0.03042687 0.03175559 0.03579624 0.04310349 0.05300947 0.06253879 0.06757093 0.06609356
 0.06012257 0.05386053 0.05020753 0.04937043 0.05011933 0.0514039 0.0528838 0.05473676 0.05728244 0.06061425
 0.06457968 0.0691777 0.07475024 0.08154573 0.08920304 0.09690638 0.1040867 0.1108641 0.1177687 0.1251031
 0.1326253 0.1397873 0.1461681 0.1516798 0.1564881 0.1608282 0.1648732 0.1687087 0.1723724 0.1758536
 0.1790246 0.1816157 0.1833451 0.1841299 0.1841861 0.183911 0.1836504 0.1835616 0.183657 0.183913
 0.1843151 0.1848485 0.1854931 0.1862249 0.187012 0.1878222 0.1886354 0.1894379 0.190211 0.190935
 0.1915966 0.1921894 0.1927176 0.1931989 0.1936516 0.1940818 0.1944897 0.194877 0.1952457 0.1955964
 0.1959319 0.1962529 0.1965523 0.1968236 0.1970699 0.1973016 0.1975274 0.1977501 0.1979668 0.198173
 0.1983691 0.1985607 0.1987535 0.198953 0.199164 0.1993861 0.1996114 0.1998316 0.2000421 0.2002415
 0.2004315 0.2006183 0.2008071 0.2009955 0.2011786 0.2013574 0.2015368 0.201719 0.2019041 0.2020925
 0.2022845 0.20248 0.2026778 0.2028743 0.2030697 0.2032722 0.2034898 0.2037183 0.2039436 0.204157
 0.2043598 0.2045594 0.2047652 0.2049824 0.205203 0.2054076 0.2055842 0.2057435 0.2059133 0.2061143
 0.2063396 0.2065631 0.2067685 0.2069627 0.2071568 0.2073491 0.2075316 0.2076997 0.2078583 0.2080294
 0.2082427 0.208501 0.2087721 0.2090282 0.2092707 0.2095088 0.209743 0.2099764 0.2102091 0.2104176
 0.2105734 0.2106938 0.2108499 0.2111088 0.2114648 0.2118354 0.2121352 0.2123531 0.2125455 0.2127724
 0.213056 0.2133621 0.2135878 0.2136342 0.2135501 0.213549 0.2138125 0.2143125 0.2148692 0.2153366
 0.21569 0.2159784 0.2162448 0.2164834 0.2166457 0.216693 0.2166664 0.2167074 0.216964 0.2174445
 0.2179943 0.2184496 0.218768 0.2189938 0.2191766 0.2193484 0.2194738 0.2194021 0.2190287 0.2185594
 0.2184515 0.2189698 0.2198924 0.2207526 0.2213025 0.2216353 0.2219203 0.2221916 0.222404 0.2224754
 0.2221785 0.2212683 0.2199637 0.2190884 0.2193899 0.2207811 0.2224802 0.2237964 0.2245693 0.2249826
 0.2252532 0.2254884 0.2256071 0.2253528 0.2245779 0.2236172 0.2231998 0.2237779 0.2250185 0.2261604
 0.2267908 0.2270604 0.2272705 0.2275356 0.2277097 0.2273476 0.2259561 0.2237287 0.2219142 0.2219368
 0.2239998 0.2268364 0.2289615 0.2299473 0.2303062 0.2303931 0.2298899 0.2283824 0.2259811 0.2232751
 0.2211434 0.2206322 0.2222639 0.2251712 0.2275895 0.2286006 0.2289071 0.2296677 0.2311114 0.2325473
 0.2332584 0.2330543 0.2321541 0.2307962 0.229124 0.227546 0.2269522 0.228084 0.2306318 0.2333438
 0.2351751 0.2360787 0.2364732 0.2360241 0.2333811 0.2278054 0.2212241 0.217705 0.2198616 0.2261163
 0.2323952 0.2361353 0.2376934 0.2384334 0.2388989 0.2386582 0.2365574 0.2313515 0.2236594 0.2171944
 0.2162528 0.2214619 0.229072 0.2344625 0.2352885 0.2317257 0.2256428 0.2200463 0.217846 0.2200898
 0.2255148 0.2317977 0.2369443 0.2398306 0.2401923 0.2385215 0.2360359 0.2343834 0.2344441 0.2350257
 0.2337734 0.230147 0.2263204 0.2239859 0.2217316 0.2176473 0.2135242 0.213671 0.2193215 0.2265748
 0.2307788 0.2312475 0.2304173 0.2294025 0.2260724 0.2181061 0.2073791 0.2000481 0.2011678 0.2094467
 0.2184076 0.2227387 0.2225135 0.2212766 0.2213107 0.2213071 0.2182013 0.2111748 0.2036884 0.2005805
 0.2029169 0.2070329 0.2088636 0.2071798 0.2021622 0.1941057 0.1857545 0.1831303 0.1904487 0.2049591
 0.219106 0.2267486 0.225388 0.214803 0.1979469 0.1827837 0.1784101 0.1868962 0.2007684 0.2098874
 0.2094856 0.2010031 0.1877711 0.1727574 0.1599604 0.1548044 0.1608856 0.1763391 0.1938672 0.204339
 0.2018255 0.1882442 0.17383 0.1697658 0.177959 0.1896983 0.1954095 0.1933488 0.1882153 0.1851259
 0.1866818 0.1925011 0.1996119 0.2052454 0.2090411 0.209884 0.2029228 0.1853953 0.1643283 0.15191
 0.15284 0.1619138 0.173759 0.1876612 0.2012437 0.2071611 0.2013799 0.1908334 0.187527 0.1957953
 0.2085918 0.2161125 0.2155027 0.2113798 0.2087009 0.2074828 0.2052761 0.2028842 0.2045633 0.2121554
 0.2218779 0.2285459 0.2309636 0.2314634 0.2319513 0.232454 0.2324474 0.2317332 0.230377 0.228835
 0.2278055 0.227444 0.2272204 0.2267204 0.2256213 0.2224815 0.2150508 0.2034376 0.1921227 0.1864128
 0.1868148 0.1893984 0.1916356 0.1938685 0.1938599 0.1852718 0.1660379 0.1452221 0.1364269 0.144656
 0.1625893 0.1789211 0.1870153 0.1854796 0.1747933 0.1575092 0.1409489 0.1349128 0.1436938 0.1619583
 0.1804441 0.1939427 0.2019069 0.2040271 0.1992286 0.1888085 0.1777149 0.1717235 0.1739133 0.183306
 0.1951982 0.2023804 0.1986611 0.1850132 0.1722933 0.1732375 0.1891039 0.2075867 0.216655 0.2167404
 0.2158594 0.2171499 0.2173136 0.215363 0.2161324 0.2236432 0.2351902 0.244012 0.2452313 0.2377819
 0.2237835 0.2090284 0.2014675 0.2047953 0.2141785 0.2214572 0.2230129 0.2192716 0.209886 0.1957716
 0.1842237 0.18453 0.1972186 0.2128377 0.2226952 0.2267704 0.2297839 0.2330522 0.2328872 0.226195
 0.2156721 0.2081486 0.2078349 0.2126356 0.2176847 0.2204773 0.2208839 0.2182265 0.2117058 0.2037102
 0.1998494 0.2040674 0.2145316 0.2253193 0.231694 0.2330594 0.2315696 0.2293352 0.2270052 0.2239386
 0.2196178 0.2154814 0.2146444 0.2185782 0.2247787 0.229341 0.2314291 0.2335613 0.2376529 0.2423849
 0.2448173 0.2436025 0.2402624 0.2378488 0.2384869 0.2416929 0.2447412 0.2449891 0.2423896 0.2397763
 0.2402587 0.2442584 0.2494487 0.2534037 0.2555755 0.2567908 0.2578263 0.2587268 0.2587714 0.2570207
 0.2536489 0.2507151 0.2507047 0.2540674 0.2587919 0.2624828 0.2642915 0.2647865 0.2646435 0.2639436
 0.2625501 0.2607365 0.2592109 0.2585615 0.2588321 0.2596564 0.2606367 0.2615222 0.2621933 0.2626403
 0.2629241 0.2630954 0.2631798 0.263229 0.2632947 0.2633415 0.2632892 0.2631751 0.263174 0.2633964
 0.2637365 0.2639845 0.2640181 0.2638029 0.2632751 0.2623587 0.2610979 0.2596504 0.2581082 0.2564344
 0.2546881 0.2532721 0.2528142 0.2536969 0.2557039 0.2581509 0.2603486 0.2619421 0.2629135 0.2634087
 0.2636083 0.2636682 0.2636772 0.263641 0.2635211 0.2632964 0.2629862 0.2626266 0.2622444 0.261862
 0.2615111 0.2612172 0.2609656 0.2607005 0.2603658 0.2599431 0.2594515 0.2589236 0.2583804 0.2578135
 0.2571834 0.2564454 0.2555844 0.2546359 0.2536769 0.2527866 0.2519938 0.2512576 0.25051 0.249706
 0.2488175 0.2478064 0.24666 0.245462 0.2443728 0.243504 0.242828 0.2422229 0.2415746 0.240822
 0.2399472 0.2389699 0.2379392 0.2368941 0.2358299 0.2347149 0.2335259 0.2322554 0.2308997 0.2294569
 0.2279319 0.2263412 0.2247161 0.223087 0.2214402 0.2196934 0.2177218 0.2153995 0.2126143 0.2092764
 0.2053533 0.2009091 0.1961052 0.1911551 0.1862624 0.1815857 0.1772451 0.1733465 0.1699857 0.1672335
 0.165135 0.1637229 0.1630227 0.1630445 0.1637749 0.165171 0.1671529 0.1696041 0.1723848 0.1753458
 0.178329 0.1811757 0.1837753 0.1861235 0.1883059 0.1903957 0.1923785 0.1941924 0.195807 0.1972327
 0.1984761 0.1995265 0.2003832 0.2010739 0.2016423 0.2021246 0.202536 0.2028797 0.2031654 0.2034143
 0.2036438 0.2038618 0.2040751 0.2042951 0.2045311 0.2047829 0.205047 0.2053322 0.2056663 0.2060747
 0.2065569 0.2070917 0.2076633 0.2082665 0.2088945 0.2095467 0.2102463 0.2110368 0.21196 0.2130418
 0.2142821 0.2156443 0.2170539 0.2184154 0.2196334 0.2206303 0.2213638 0.2218353 0.2220826 0.2221583
 0.2221022 0.2219296 0.2216482 0.2212794 0.2208517 0.2203746 0.2198366 0.2192315 0.2185751 0.2178929
 0.2171994 0.216497 0.2157914 0.2150975 0.2144246 0.2137648 0.2131081 0.2124621 0.2118433 0.2112556
 0.2106873 0.2101244 0.2095585 0.2089875 0.2084135 0.2078283 0.2071986 0.2064797 0.2056523 0.2047311
 0.2037319 0.2026473 0.2014651 0.2001917 0.1988403 0.1974102 0.1958953 0.1943037 0.1926522 0.190938
 0.1891288 0.1871912 0.1851412 0.1830633 0.1810698 0.1792341 0.177561 0.1760097 0.1745369 0.1731244
 0.1717789 0.1705065 0.1692918 0.1681128 0.1669723 0.1658957 0.1648993 0.163976 0.163113 0.1623147
 0.1616005 0.1609818 0.1604446 0.1599654 0.1595377 0.159173 0.1588877 0.1587029 0.1586375 0.1586774
 0.1587607 0.1588123 0.1587857 0.1586781 0.1585251 0.1583781 0.1582693 0.1581986 0.1581473 0.1580796
 0.1579323 0.1576226 0.1570685 0.1562024 0.1549956 0.153485 0.151761 0.1499337 0.1481224 0.146446
 0.1449925 0.1438039 0.1428887 0.1422167 0.141716 0.1413164 0.1410037 0.1408206 0.1408231 0.1410169
 0.1413012 0.1415099 0.1415647 0.1415684 0.141712 0.1421145 0.1427578 0.1435244 0.1442774 0.1449354
 0.1454733 0.1458693 0.146107 0.1462209 0.1462691 0.146264 0.14618 0.1460068 0.1457514 0.145422
 0.1450319 0.144588 0.1440772 0.14349 0.1428319 0.1421024 0.1413003 0.1404308 0.139461 0.1383315
 0.1370933 0.1359768 0.1352586 0.1350946 0.1354696 0.1362275 0.1371737 0.1382007 0.1392474 0.1401175
 0.1405407 0.1405661 0.1407569 0.1417816 0.1437813 0.1462177 0.1483539 0.1497966 0.1505493 0.1507143
 0.1503392 0.1494592 0.1480741 0.1461268 0.14364 0.1407861 0.1377505 0.1346739 0.1317388 0.1291262
 0.1269032 0.1250691 0.1236237 0.1226156 0.1221851 0.1219765 0.120109 0.1141502 0.104867 0.09791499
 0.09907842 0.107762 0.1174015 0.1223943 0.1225603 0.1208677 0.1193793 0.1184068 0.1178404 0.1178316
 0.1185222 0.1197665 0.1211586 0.122276 0.1229424 0.123213 0.1230867 0.122232 0.1199031 0.1152132
 0.1078513 0.09868269 0.08945215 0.08177604 0.07641153 0.07324682 0.0716463 0.07083426 0.07028645 0.06997121
 0.07021344 0.07130244 0.07325276 0.07590346 0.07908601 0.08256437 0.08592118 0.08873568 0.09090291 0.09262102
 0.09404965 0.09511949 0.09568286 0.0957121 0.09531464 0.09465019 0.09387323 0.09308028 0.09224245 0.09123082
 0.0900076 0.08878949 0.08791096 0.08750403 0.08741218 0.08741717 0.08742335 0.08741897 0.08739509 0.08734241
 0.08726895 0.08722466 0.08731562 0.0876212 0.0880768 0.088508 0.08879235 0.08894444 0.08904758 0.08910536
 0.08895125 0.08839968 0.08755832 0.0868184 0.08635627 0.08582336 0.08479777 0.08343324 0.08237609 0.08206762
 0.08235133 0.08274855 0.08290303 0.08273976 0.08242533 0.08229407 0.08263028 0.08333303 0.08389354 0.083875
</values></Ydata></ScRf><Data_Parameters_AB><parameter name="DPF">1</parameter><parameter name="NPT">3497</parameter><parameter name="FXV">3996</parameter><parameter name="LXV">500</parameter><parameter name="CSF">1</parameter><parameter name="MXY">0.58203786611557</parameter><parameter name="MNY">-0.0817283168435097</parameter><parameter name="DAT">31/05/2022</parameter><parameter name="TIM">10:51:32.684 (GMT+2)</parameter><parameter name="DXU">WN</parameter></Data_Parameters_AB><AB__Qtest><MainReport name="Quality Test Report"><Header><Line><Legend>Test result ok/not ok [1/0]: </Legend><Value>0</Value></Line><Line><Legend>Method file: </Legend><Value>C:\Users\Public\Documents\Bruker\OPUS_8.2.28\QT\IRBT_v3_default.QT</Value></Line></Header><Matrix><Line><Legend></Legend><Legend>min</Legend><Legend>max</Legend><Legend>measured</Legend></Line><Line><Value>Absorption (X-Range 1):</Value><Value>0.400000</Value><Value>2.000000</Value><Value>0.560136</Value></Line><Line><Value>Noise (X-Range 4):</Value><Value></Value><Value>0.000300</Value><Value>0.000072</Value></Line><Line><Value>Signal/Noise (X-Range 2):</Value><Value>200.000000</Value><Value></Value><Value>167.405851</Value></Line><Line><Value>Signal/Noise (X-Range 3):</Value><Value>40.000000</Value><Value></Value><Value>133.884926</Value></Line><Line><Value>Water vapour (X-Range 5):</Value><Value></Value><Value>0.000300</Value><Value>0.000088</Value></Line><Line><Value>Signal/Water (X-Range 2):</Value><Value>100.000000</Value><Value></Value><Value>136.973667</Value></Line><Line><Value>Signal/Water (X-Range 3):</Value><Value>20.000000</Value><Value></Value><Value>109.546406</Value></Line><Line><Value>Fringes (X-Range 6):</Value><Value></Value><Value>0.000100</Value><Value>0.000067</Value></Line></Matrix></MainReport></AB__Qtest><Data_Parameters_ScSm><parameter name="DPF">1</parameter><parameter name="NPT">1814</parameter><parameter name="FXV">3996.33169228125</parameter><parameter name="LXV">499.541461535156</parameter><parameter name="CSF">1</parameter><parameter name="MXY">0.249466091394424</parameter><parameter name="MNY">0.0265208557248116</parameter><parameter name="DAT">31/05/2022</parameter><parameter name="TIM">10:51:32.684 (GMT+2)</parameter><parameter name="DXU">WN</parameter></Data_Parameters_ScSm><Data_Parameters_ScRf><parameter name="DPF">1</parameter><parameter name="NPT">1820</parameter><parameter name="FXV">4004.04661832813</parameter><parameter name="LXV">495.683998511719</parameter><parameter name="CSF">1</parameter><parameter name="MXY">0.264786541461945</parameter><parameter name="MNY">0.0304268710315228</parameter><parameter name="DAT">31/05/2022</parameter><parameter name="TIM">10:51:06.832 (GMT+2)</parameter><parameter name="DXU">WN</parameter></Data_Parameters_ScRf><Optic_Parameters_Rf><parameter name="APR">0</parameter><parameter name="APT">Open</parameter><parameter name="BMS">KBr</parameter><parameter name="DTC">RT-DLaTGS_IR-Biotyper [Microplate reader]</parameter><parameter name="HPF">0</parameter><parameter name="LPF">10.0</parameter><parameter name="LPV">4000</parameter><parameter name="PGR">0</parameter><parameter name="RCH">Module port</parameter><parameter name="RDX">0</parameter><parameter name="SRC">MIR</parameter><parameter name="VEL">10.0</parameter><parameter name="SON">Off</parameter></Optic_Parameters_Rf><Acquisition_Parameters_Rf><parameter name="ADT">1</parameter><parameter name="AQM">DD</parameter><parameter name="CFE">0</parameter><parameter name="COR">0</parameter><parameter name="DEL">0</parameter><parameter name="DLY">0</parameter><parameter name="HFW">8000</parameter><parameter name="LFW">0</parameter><parameter name="NSR">32</parameter><parameter name="PLF">AB</parameter><parameter name="RES">6</parameter><parameter name="RGN">-1</parameter><parameter name="STR">0</parameter><parameter name="TCL">MakeCompatibleScalar (0, {WSV=1.000000, ARV=0});</parameter><parameter name="TDL">37</parameter><parameter name="RPO">0</parameter></Acquisition_Parameters_Rf><FT_-_Parameters_Rf><parameter name="APF">B3</parameter><parameter name="HFQ">500</parameter><parameter name="LFQ">4000</parameter><parameter name="NLI">0</parameter><parameter name="PHR">24</parameter><parameter name="PHZ">ML</parameter><parameter name="SPZ">NO</parameter><parameter name="ZFF">1</parameter></FT_-_Parameters_Rf><Optic_Parameters_><parameter name="APR">0</parameter><parameter name="APT">Open</parameter><parameter name="BMS">KBr</parameter><parameter name="CHN">Module port</parameter><parameter name="DTC">RT-DLaTGS_IR-Biotyper [Microplate reader]</parameter><parameter name="HPF">0</parameter><parameter name="LPF">10.0</parameter><parameter name="LPV">4000</parameter><parameter name="PGN">0</parameter><parameter name="RDX">0</parameter><parameter name="SRC">MIR</parameter><parameter name="VEL">10.0</parameter><parameter name="SON">Off</parameter></Optic_Parameters_><FT_-_Parameters_><parameter name="APF">B3</parameter><parameter name="HFQ">500</parameter><parameter name="LFQ">4000</parameter><parameter name="NLI">0</parameter><parameter name="PHR">24</parameter><parameter name="PHZ">ML</parameter><parameter name="SPZ">NO</parameter><parameter name="ZFF">1</parameter></FT_-_Parameters_><Acquisition_Parameters_><parameter name="ADT">1</parameter><parameter name="AQM">DD</parameter><parameter name="CFE">0</parameter><parameter name="COR">0</parameter><parameter name="DEL">0</parameter><parameter name="DLY">0</parameter><parameter name="HFW">8000</parameter><parameter name="LFW">0</parameter><parameter name="NSS">32</parameter><parameter name="PLF">AB</parameter><parameter name="RES">6</parameter><parameter name="SOT">0</parameter><parameter name="TCL">MakeCompatibleScalar (0, {WSV=1.000000, ARV=0});</parameter><parameter name="TDL">37</parameter><parameter name="SPO">0</parameter><parameter name="SGN">-1</parameter></Acquisition_Parameters_><Instrument_Parameters_Rf><parameter name="HFL">15800.168544</parameter><parameter name="LFL">0</parameter><parameter name="LWN">15800.168544</parameter><parameter name="ABP">32197</parameter><parameter name="SSP">1</parameter><parameter name="ARG">2</parameter><parameter name="ASG">2</parameter><parameter name="ASS">32</parameter><parameter name="GFW">16</parameter><parameter name="GBW">16</parameter><parameter name="BFW">0</parameter><parameter name="BBW">0</parameter><parameter name="PKA">7268</parameter><parameter name="PKL">4996</parameter><parameter name="PRA">7446</parameter><parameter name="PRL">5001</parameter><parameter name="P2A">1</parameter><parameter name="P2L">1</parameter><parameter name="P2R">1</parameter><parameter name="P2K">1</parameter><parameter name="DAQ">0</parameter><parameter name="AG2">1</parameter><parameter name="SSM">1</parameter><parameter name="RSN">25375</parameter><parameter name="CRR">0</parameter><parameter name="SRT">1653994266.833</parameter><parameter name="DUR">19.6379852294922</parameter><parameter name="TSC">28.8</parameter><parameter name="MVD">0.903406620025635</parameter><parameter name="AN1">0.225806930788212</parameter><parameter name="AN2">0</parameter><parameter name="VSN">2.485 Apr  4 2017</parameter><parameter name="SRN">0085</parameter><parameter name="CAM">0</parameter><parameter name="INS">IR-Biotyper</parameter><parameter name="FOC">69</parameter><parameter name="RDY">1</parameter><parameter name="ARS">32</parameter></Instrument_Parameters_Rf><Sample_Parameters_><parameter name="BLD"></parameter><parameter name="CNM">Admin</parameter><parameter name="CPY"></parameter><parameter name="DPM"></parameter><parameter name="EXP">IRBT_v3_32Scans.XPM</parameter><parameter name="LCT"></parameter><parameter name="SFM">Microplate, HTS-XT</parameter><parameter name="SNM">220531-1021(v.3)_MBD34F (D_2)_E2_a0ff387e-8c80-426e-98ab-3e568cfacc1a.0</parameter><parameter name="XPP">C:\Users\Public\Documents\Bruker\OPUS_8.2.28\XPM</parameter><parameter name="IST">OK</parameter><parameter name="CPG">1252</parameter><parameter name="UID">8c398e0e-a9e6-41a0-861e-ad1e62caffb7</parameter></Sample_Parameters_><Instrument_Parameters_><parameter name="HFL">15800.168544</parameter><parameter name="LFL">0</parameter><parameter name="LWN">15800.168544</parameter><parameter name="ABP">32197</parameter><parameter name="SSP">1</parameter><parameter name="ASG">4</parameter><parameter name="ARG">2</parameter><parameter name="ASS">32</parameter><parameter name="GFW">16</parameter><parameter name="GBW">16</parameter><parameter name="BFW">0</parameter><parameter name="BBW">0</parameter><parameter name="PKA">5902</parameter><parameter name="PKL">4988</parameter><parameter name="PRA">6095</parameter><parameter name="PRL">4993</parameter><parameter name="P2A">1</parameter><parameter name="P2L">1</parameter><parameter name="P2R">1</parameter><parameter name="P2K">1</parameter><parameter name="DAQ">0</parameter><parameter name="AG2">1</parameter><parameter name="SSM">1</parameter><parameter name="RSN">13313</parameter><parameter name="CRR">0</parameter><parameter name="SRT">1653994292.685</parameter><parameter name="DUR">19.6379852294922</parameter><parameter name="TSC">28.8</parameter><parameter name="MVD">0.241682261228561</parameter><parameter name="AN1">0.225779669231543</parameter><parameter name="AN2">0</parameter><parameter name="VSN">2.485 Apr  4 2017</parameter><parameter name="SRN">0085</parameter><parameter name="CAM">0</parameter><parameter name="INS">IR-Biotyper</parameter><parameter name="FOC">69</parameter><parameter name="RDY">1</parameter></Instrument_Parameters_><History/></OPUSDataFile>
