<?xml version="1.0" encoding="UTF-8" ?>
<OPUSDataFile><AB><Ydata ylabel="Absorbance Units"><values byteorder="INTEL" format="FLOAT32" numvalues="3497"> -0.05517984 -0.05518432 -0.05517681 -0.05515671 -0.05513224 -0.05510383 -0.05508354 -0.05507157 -0.05507441 -0.05509057
 -0.05511563 -0.05514635 -0.05516905 -0.05518174 -0.05517126 -0.05514171 -0.05509171 -0.05503144 -0.05497199 -0.05491977
 -0.0548861 -0.05486387 -0.05485437 -0.05484281 -0.05482298 -0.05479034 -0.05474028 -0.05468547 -0.05462624 -0.05458087
 -0.05455145 -0.05454578 -0.05456438 -0.05459811 -0.05464564 -0.05468712 -0.05472183 -0.05473392 -0.05472661 -0.05470153
 -0.05466498 -0.05463296 -0.05460845 -0.05460555 -0.0546185 -0.0546475 -0.05468281 -0.05471614 -0.05474369 -0.05476067
 -0.0547683 -0.05476702 -0.05475367 -0.05472769 -0.0546856 -0.05462517 -0.05455694 -0.05448077 -0.05441939 -0.05437407
 -0.05435917 -0.05437377 -0.0544093 -0.05446261 -0.05450986 -0.05455036 -0.05456772 -0.05456617 -0.054547 -0.05451565
 -0.05448211 -0.05444821 -0.05442113 -0.0543971 -0.05437633 -0.05435253 -0.05432188 -0.05428218 -0.05423066 -0.05417175
 -0.0541051 -0.05403962 -0.0539761 -0.05392519 -0.05388786 -0.05387336 -0.05388226 -0.0539154 -0.05397179 -0.05403874
 -0.0541139 -0.05417583 -0.05422435 -0.05424551 -0.05424475 -0.05422753 -0.05420035 -0.05417747 -0.05415972 -0.05415496
 -0.05415794 -0.05416865 -0.05417709 -0.05417856 -0.05416345 -0.05412543 -0.05406668 -0.05398383 -0.05389559 -0.05380323
 -0.05373092 -0.05368181 -0.05366391 -0.05367795 -0.05370648 -0.05374821 -0.05378051 -0.05380442 -0.05381516 -0.05381474
 -0.05380918 -0.05379708 -0.05377758 -0.05374981 -0.05370874 -0.05366299 -0.05361987 -0.05358851 -0.05358401 -0.05359318
 -0.05361711 -0.05362761 -0.05361093 -0.05356338 -0.05347577 -0.05338158 -0.05328355 -0.05321868 -0.05319246 -0.05321097
 -0.05327529 -0.05333859 -0.05339801 -0.05339719 -0.05334359 -0.05325758 -0.05314849 -0.05306441 -0.05300302 -0.0529831
 -0.0529976 -0.0530451 -0.05311392 -0.05319286 -0.05326415 -0.05330956 -0.05331865 -0.05327475 -0.05319671 -0.05308324
 -0.05297168 -0.05287243 -0.05280469 -0.05277543 -0.05277711 -0.05281048 -0.0528574 -0.05291684 -0.05297388 -0.05302813
 -0.05307222 -0.05310621 -0.05312703 -0.05313437 -0.05312524 -0.05309948 -0.05305401 -0.05299181 -0.05291497 -0.05283064
 -0.05274804 -0.05267252 -0.05261237 -0.05256721 -0.05253924 -0.05252627 -0.05252778 -0.05254282 -0.05257175 -0.05261055
 -0.05266008 -0.05270623 -0.0527483 -0.05276679 -0.0527604 -0.05272097 -0.05264942 -0.05255984 -0.05245453 -0.05235619
 -0.05226485 -0.05219315 -0.05213856 -0.05210131 -0.0520784 -0.05206486 -0.05205839 -0.05205437 -0.05205128 -0.0520464
 -0.05203883 -0.05202765 -0.05201141 -0.05199006 -0.0519595 -0.05191831 -0.05186518 -0.0517981 -0.05172826 -0.05165586
 -0.05159955 -0.05156058 -0.05154781 -0.05156051 -0.05158706 -0.05162464 -0.0516475 -0.05165565 -0.05163332 -0.05158703
 -0.05152478 -0.05145393 -0.05139242 -0.05134048 -0.0513072 -0.05128559 -0.05127223 -0.05126312 -0.0512525 -0.05124785
 -0.05125022 -0.05126865 -0.05130832 -0.05136118 -0.05142875 -0.05148785 -0.05153617 -0.05155762 -0.051551 -0.05150821
 -0.05142933 -0.05131275 -0.05116263 -0.05100571 -0.05084833 -0.05073182 -0.05065508 -0.05064009 -0.05067336 -0.05074512
 -0.05083276 -0.05090105 -0.05094564 -0.05094469 -0.0509209 -0.05088252 -0.05084406 -0.05081679 -0.05079279 -0.05077345
 -0.05074305 -0.05069801 -0.0506347 -0.05055103 -0.05046201 -0.05036834 -0.05028784 -0.05022094 -0.05017525 -0.05014992
 -0.05014384 -0.05015424 -0.05017099 -0.05018886 -0.05018768 -0.05016754 -0.05011633 -0.05004425 -0.04995977 -0.0498693
 -0.04978308 -0.04969796 -0.04961469 -0.04953043 -0.04944234 -0.04935671 -0.04927364 -0.04920414 -0.04915085 -0.04911678
 -0.04910376 -0.04909921 -0.04910282 -0.04908679 -0.04905007 -0.04897142 -0.048855 -0.04872032 -0.0485735 -0.04845292
 -0.0483549 -0.04828938 -0.04824981 -0.04822756 -0.04822144 -0.04822712 -0.04824297 -0.04826928 -0.04829469 -0.04831427
 -0.04831354 -0.04828371 -0.04822379 -0.04813084 -0.04801155 -0.04786671 -0.04770101 -0.04751465 -0.04731554 -0.04710406
 -0.04689081 -0.04667644 -0.0464721 -0.04627915 -0.04611294 -0.04597426 -0.04587675 -0.04581565 -0.045787 -0.04578159
 -0.04577957 -0.04577793 -0.04576444 -0.04574024 -0.04570613 -0.04565101 -0.04556981 -0.04544943 -0.04527706 -0.04507208
 -0.04483442 -0.04459637 -0.04436515 -0.04415293 -0.04396299 -0.0437892 -0.04363152 -0.04347764 -0.04332727 -0.0431754
 -0.04302341 -0.04287937 -0.04274452 -0.04263039 -0.04253298 -0.04244966 -0.04237086 -0.04227572 -0.04216256 -0.04201755
 -0.04185136 -0.04166859 -0.04147875 -0.04128877 -0.04110502 -0.04093162 -0.04077255 -0.04063125 -0.04050175 -0.04038507
 -0.04026511 -0.04014038 -0.03999659 -0.03983245 -0.03964469 -0.03943374 -0.03921092 -0.03897806 -0.03875484 -0.03854163
 -0.03835138 -0.03818143 -0.03803198 -0.0378985 -0.03777358 -0.03765137 -0.03752141 -0.03737963 -0.03721649 -0.0370379
 -0.03684216 -0.03664454 -0.03645217 -0.03627112 -0.03610799 -0.03594678 -0.03578642 -0.03560678 -0.03540335 -0.0351845
 -0.03494983 -0.03473086 -0.03452855 -0.03435815 -0.03421713 -0.03409267 -0.03398129 -0.03385976 -0.03372947 -0.03358029
 -0.03342029 -0.03326011 -0.03310612 -0.03297449 -0.03285829 -0.03276083 -0.03266194 -0.03254987 -0.03241065 -0.03223057
 -0.03202358 -0.03178836 -0.03155161 -0.03131938 -0.03110174 -0.03090154 -0.0307133 -0.0305369 -0.03036488 -0.03019703
 -0.03003162 -0.0298686 -0.02970769 -0.02954716 -0.02937946 -0.02920252 -0.02900462 -0.02878959 -0.02855655 -0.0283169
 -0.02808566 -0.02787061 -0.02768729 -0.02752903 -0.02739783 -0.02728051 -0.0271711 -0.02706352 -0.02695403 -0.02684401
 -0.02673344 -0.02662225 -0.02651086 -0.02639443 -0.02627264 -0.02614128 -0.02600032 -0.02585058 -0.02569254 -0.02553024
 -0.02536401 -0.02519729 -0.02503044 -0.02486614 -0.02470508 -0.02455024 -0.02440112 -0.02425916 -0.02412101 -0.02398417
 -0.02384567 -0.02370172 -0.02355496 -0.02340511 -0.02325699 -0.02311328 -0.02297061 -0.02282985 -0.02268003 -0.02251927
 -0.02234578 -0.02215873 -0.02197321 -0.02179 -0.0216253 -0.02147832 -0.02134989 -0.02123776 -0.02113209 -0.02103165
 -0.0209281 -0.02082077 -0.02070428 -0.02057908 -0.02044185 -0.0202984 -0.0201519 -0.02001056 -0.0198828 -0.01976592
 -0.01966343 -0.01956073 -0.01945309 -0.01933505 -0.01920237 -0.01906893 -0.01893602 -0.01881479 -0.01870688 -0.01860122
 -0.01849711 -0.01837684 -0.01824144 -0.01809165 -0.01793098 -0.01777667 -0.01762971 -0.01750296 -0.01739298 -0.01729922
 -0.01721776 -0.0171425 -0.01707232 -0.01700357 -0.0169376 -0.01687447 -0.01681481 -0.01675953 -0.01670649 -0.01665572
 -0.01660318 -0.01654829 -0.01648695 -0.01641865 -0.01633975 -0.01624988 -0.01614789 -0.01603386 -0.01591144 -0.01578123
 -0.01565001 -0.01551809 -0.01539055 -0.0152668 -0.01514764 -0.01503249 -0.01492054 -0.01481146 -0.01470436 -0.01459935
 -0.01449579 -0.01439526 -0.01429822 -0.01420737 -0.01412449 -0.01404955 -0.01398368 -0.0139225 -0.01386532 -0.0138086
 -0.01375136 -0.0136959 -0.01364225 -0.01359461 -0.01355308 -0.01351614 -0.01348329 -0.01344894 -0.01341323 -0.01337369
 -0.01333138 -0.01328844 -0.01324515 -0.01320338 -0.01316232 -0.01312176 -0.01308059 -0.0130377 -0.01299227 -0.01294282
 -0.01289108 -0.01283622 -0.0127849 -0.01273902 -0.01270358 -0.01268155 -0.01266524 -0.01265493 -0.01263484 -0.01260326
 -0.01255902 -0.01250256 -0.01245653 -0.01242208 -0.01242146 -0.0124508 -0.01250496 -0.01257579 -0.01263508 -0.01267932
 -0.01268468 -0.01265934 -0.01260253 -0.01252937 -0.01245505 -0.01238871 -0.01234372 -0.01231479 -0.01230478 -0.01229942
 -0.01229496 -0.01228039 -0.01225164 -0.01220938 -0.01215203 -0.01209194 -0.01202964 -0.01198126 -0.01194748 -0.01193633
 -0.01194709 -0.01197615 -0.01202242 -0.01207883 -0.0121445 -0.01221458 -0.01228522 -0.0123471 -0.01239462 -0.01241328
 -0.01240702 -0.01237044 -0.01232141 -0.01227025 -0.01223112 -0.01221709 -0.01222009 -0.01224304 -0.01226365 -0.01227707
 -0.01227111 -0.01224173 -0.01219846 -0.01214102 -0.01209204 -0.01205265 -0.01204299 -0.01206247 -0.01211473 -0.01219569
 -0.01228793 -0.01238616 -0.0124636 -0.01252024 -0.01254072 -0.01253357 -0.01250333 -0.01246142 -0.01242218 -0.01238949
 -0.01237303 -0.01236414 -0.0123623 -0.01235515 -0.01233713 -0.01230712 -0.01226199 -0.01221487 -0.012167 -0.01213031
 -0.01210664 -0.01208908 -0.01207706 -0.01204786 -0.01200102 -0.01192145 -0.01181344 -0.01168935 -0.01155677 -0.01144746
 -0.01136317 -0.01132641 -0.01132667 -0.01136013 -0.01141108 -0.01146007 -0.01150271 -0.01152631 -0.01154345 -0.01155608
 -0.01157862 -0.01161831 -0.01167426 -0.01174949 -0.0118292 -0.01191178 -0.0119855 -0.01204882 -0.01210233 -0.01214607
 -0.01218568 -0.01222107 -0.01225322 -0.01228141 -0.01230227 -0.01231539 -0.01231763 -0.01230916 -0.01228784 -0.0122565
 -0.01221586 -0.01217591 -0.01214517 -0.01213756 -0.01216761 -0.01223673 -0.01235409 -0.01249864 -0.0126679 -0.01283314
 -0.01298647 -0.01311598 -0.0132174 -0.01329903 -0.01336091 -0.01341539 -0.01346306 -0.01351095 -0.01355909 -0.01361066
 -0.01366491 -0.01372002 -0.01377439 -0.01382118 -0.013861 -0.0138901 -0.01391417 -0.01393963 -0.01397264 -0.01402347
 -0.0140912 -0.01418039 -0.01428188 -0.01439356 -0.01450356 -0.01460772 -0.01469696 -0.01476766 -0.01481962 -0.01485088
 -0.01487505 -0.01489259 -0.01492384 -0.01496977 -0.01503875 -0.0151293 -0.01522789 -0.01533202 -0.01542003 -0.01549333
 -0.01554357 -0.01557714 -0.01560386 -0.01562922 -0.01566707 -0.01571689 -0.01578449 -0.01586431 -0.01595432 -0.01604906
 -0.01614528 -0.01623965 -0.01633011 -0.01641624 -0.01649719 -0.01657579 -0.01665243 -0.01672885 -0.01680561 -0.01687749
 -0.01694423 -0.01699753 -0.01703792 -0.01706767 -0.01708927 -0.01711819 -0.01715525 -0.01721295 -0.01728706 -0.01737485
 -0.01747068 -0.01756347 -0.01765289 -0.01773317 -0.01780929 -0.01788346 -0.01795874 -0.01803862 -0.01811921 -0.01820051
 -0.01827621 -0.01834392 -0.01840487 -0.01845806 -0.01851261 -0.01856928 -0.01863441 -0.01870833 -0.01878771 -0.01887227
 -0.01895745 -0.01904394 -0.01913373 -0.01922707 -0.01932715 -0.01943086 -0.01953338 -0.01963037 -0.01971165 -0.01977827
 -0.01982563 -0.0198617 -0.01989123 -0.01991954 -0.0199533 -0.0199845 -0.02001332 -0.02002543 -0.02001524 -0.01998596
 -0.01993412 -0.01989065 -0.01985732 -0.01986964 -0.0199295 -0.02004431 -0.02021159 -0.02040385 -0.02061649 -0.02080884
 -0.02097997 -0.02110299 -0.02118464 -0.02122452 -0.02123561 -0.0212379 -0.02124152 -0.02126801 -0.02131341 -0.02138479
 -0.02146534 -0.0215483 -0.02162071 -0.02167408 -0.0217126 -0.02173438 -0.02175289 -0.02177064 -0.02179165 -0.0218173
 -0.02183676 -0.0218495 -0.02184374 -0.02182019 -0.0217835 -0.02173704 -0.02170264 -0.02168285 -0.02169991 -0.02175003
 -0.02183805 -0.02195286 -0.02208001 -0.02220765 -0.02231569 -0.02240167 -0.02245458 -0.02248476 -0.02249303 -0.02249482
 -0.0224959 -0.02250602 -0.02252924 -0.02256659 -0.02261955 -0.02268157 -0.02275269 -0.02281988 -0.0228824 -0.02292649
 -0.02295233 -0.02295816 -0.02294631 -0.02292973 -0.0229099 -0.0229003 -0.02289776 -0.02290201 -0.02290827 -0.0229066
 -0.02289992 -0.02288424 -0.0228738 -0.02287704 -0.02290897 -0.02298296 -0.02309532 -0.02325282 -0.02342643 -0.02361283
 -0.02377596 -0.02390856 -0.02399548 -0.02403284 -0.0240379 -0.0240114 -0.02398767 -0.02396789 -0.02397677 -0.02401194
 -0.02407284 -0.02415428 -0.02423701 -0.0243187 -0.02438255 -0.02443297 -0.02446912 -0.02449737 -0.0245259 -0.02455521
 -0.02458937 -0.02462419 -0.02465812 -0.02468923 -0.02471619 -0.02473936 -0.02475909 -0.02477297 -0.02478046 -0.0247809
 -0.02477353 -0.02476738 -0.02476292 -0.02477263 -0.02479638 -0.02483547 -0.02488825 -0.02494454 -0.02500436 -0.02506157
 -0.02511895 -0.02518074 -0.02524759 -0.02532419 -0.02540552 -0.02548816 -0.02556635 -0.0256335 -0.02568919 -0.02573069
 -0.02576172 -0.02578337 -0.02579715 -0.02580417 -0.02580205 -0.02579065 -0.02576721 -0.02573114 -0.02568438 -0.02562697
 -0.02557003 -0.02551462 -0.02547872 -0.02546262 -0.02547883 -0.02552366 -0.02559173 -0.02567592 -0.02575598 -0.02582766
 -0.0258732 -0.02589575 -0.02589091 -0.0258662 -0.02582631 -0.02577658 -0.02572133 -0.025663 -0.02560291 -0.0255444
 -0.02548829 -0.02543827 -0.02539576 -0.02535811 -0.02532588 -0.02528768 -0.02524292 -0.02517787 -0.02509237 -0.02498103
 -0.02484565 -0.02469425 -0.02452994 -0.02436882 -0.02421233 -0.02407313 -0.02394862 -0.02384083 -0.02374508 -0.02365617
 -0.02357212 -0.02348905 -0.02340808 -0.02332931 -0.02325205 -0.02317655 -0.02309992 -0.02302057 -0.02294132 -0.02286129
 -0.02279149 -0.02273298 -0.02269355 -0.02267385 -0.02266779 -0.02267449 -0.02267906 -0.02268117 -0.02267085 -0.02264962
 -0.02261764 -0.0225771 -0.02253355 -0.02248824 -0.02244611 -0.02240676 -0.02237199 -0.02234013 -0.02231042 -0.02228142
 -0.02225198 -0.02222177 -0.02219079 -0.02215738 -0.02212201 -0.02207857 -0.02202642 -0.02195866 -0.02187407 -0.02177351
 -0.02165681 -0.02153778 -0.02141761 -0.02131696 -0.02123635 -0.02119037 -0.02117682 -0.02119565 -0.02124327 -0.02130994
 -0.02139505 -0.02149197 -0.02160448 -0.02173463 -0.02188536 -0.02206116 -0.0222592 -0.02248024 -0.02271726 -0.02296854
 -0.02322558 -0.02348678 -0.02374165 -0.02398856 -0.02421771 -0.02442745 -0.02461709 -0.02478632 -0.02494598 -0.02509661
 -0.02524904 -0.025402 -0.0255529 -0.02569871 -0.02582523 -0.02593243 -0.02601071 -0.02606706 -0.0261081 -0.02614333
 -0.0261884 -0.02624501 -0.02632253 -0.026411 -0.02650855 -0.02660202 -0.02668514 -0.02675237 -0.02680014 -0.0268313
 -0.02684545 -0.02684842 -0.02684087 -0.02682586 -0.0268037 -0.02677236 -0.02673182 -0.02668066 -0.02662032 -0.02655947
 -0.02650114 -0.02646264 -0.02644417 -0.02645697 -0.02649502 -0.02655403 -0.0266252 -0.02669575 -0.02676064 -0.02681026
 -0.02684616 -0.02686582 -0.02687458 -0.02687366 -0.02686857 -0.02686064 -0.02685513 -0.02685261 -0.02686042 -0.0268792
 -0.02691681 -0.02697386 -0.02705346 -0.02715562 -0.02727984 -0.02742603 -0.02759436 -0.02778313 -0.02798788 -0.02820229
 -0.02840821 -0.02859931 -0.02875311 -0.02887426 -0.02895615 -0.02901484 -0.0290613 -0.02910942 -0.02917204 -0.02925095
 -0.02935114 -0.02946577 -0.02959493 -0.02972756 -0.02986249 -0.02998644 -0.03009771 -0.03018844 -0.03025781 -0.03031104
 -0.03034873 -0.03038294 -0.03041373 -0.03044758 -0.03048285 -0.0305163 -0.03054651 -0.0305673 -0.03057998 -0.03058311
 -0.03058089 -0.03057759 -0.03057767 -0.03058723 -0.03060645 -0.03063854 -0.03067751 -0.03072258 -0.030765 -0.03080197
 -0.03082886 -0.03084345 -0.03085011 -0.0308486 -0.03084863 -0.03085086 -0.03086056 -0.03087755 -0.0308974 -0.03091938
 -0.03093565 -0.03094667 -0.03094991 -0.03094698 -0.03094073 -0.03093282 -0.03092747 -0.03092593 -0.03093176 -0.03094465
 -0.0309667 -0.03099341 -0.03102376 -0.03105027 -0.0310693 -0.03107721 -0.0310709 -0.03105594 -0.03103183 -0.03101088
 -0.03099443 -0.0309917 -0.03100363 -0.03102829 -0.03106522 -0.0311037 -0.0311433 -0.03117553 -0.03120113 -0.03121879
 -0.03122931 -0.03123417 -0.03123392 -0.03122934 -0.03122319 -0.03121874 -0.03121996 -0.03123299 -0.03125546 -0.03128996
 -0.03132545 -0.03135841 -0.03137868 -0.0313811 -0.03136784 -0.03133711 -0.03130161 -0.03126245 -0.03123096 -0.03120816
 -0.03119641 -0.03119561 -0.03120227 -0.03121624 -0.03123496 -0.03125833 -0.03128519 -0.03131441 -0.03134269 -0.03136798
 -0.03138451 -0.03139209 -0.0313871 -0.03137317 -0.03135151 -0.03132779 -0.0313059 -0.03128932 -0.03128108 -0.0312801
 -0.03128707 -0.03129847 -0.03131372 -0.03133052 -0.03134855 -0.03136649 -0.0313843 -0.03139924 -0.03141113 -0.03141696
 -0.03141701 -0.03141228 -0.03140358 -0.03139503 -0.03138708 -0.03138319 -0.03138298 -0.0313874 -0.03139574 -0.03140786
 -0.03142211 -0.03143719 -0.03145118 -0.03146189 -0.03147053 -0.03147638 -0.03148375 -0.03149404 -0.03150887 -0.03152965
 -0.03155092 -0.0315724 -0.03158765 -0.03159604 -0.03159739 -0.03159187 -0.03158481 -0.03157632 -0.03156991 -0.03156495
 -0.03156049 -0.03155621 -0.03155052 -0.03154387 -0.03153669 -0.03152857 -0.03151942 -0.03150795 -0.03149199 -0.03147374
 -0.0314525 -0.03143553 -0.03142585 -0.03142837 -0.03144666 -0.03147546 -0.03151544 -0.03155442 -0.03159097 -0.03161673
 -0.03163081 -0.03163356 -0.03162519 -0.03161126 -0.03159217 -0.03157342 -0.03155498 -0.03153956 -0.03152697 -0.03151811
 -0.03151273 -0.03151101 -0.03151218 -0.03151558 -0.03151979 -0.03152304 -0.03152497 -0.0315242 -0.03152318 -0.03152276
 -0.03152458 -0.03153018 -0.03153592 -0.03154175 -0.03154174 -0.03153476 -0.03152052 -0.03149869 -0.031476 -0.03145281
 -0.03143618 -0.03142594 -0.03142384 -0.03142895 -0.03143794 -0.03145004 -0.03146121 -0.03147148 -0.03147896 -0.03148407
 -0.03148669 -0.03148702 -0.03148523 -0.03148143 -0.03147561 -0.03146825 -0.03145942 -0.03144993 -0.03143972 -0.0314309
 -0.03142364 -0.03142106 -0.03142374 -0.03143254 -0.03144778 -0.03146448 -0.0314823 -0.03149328 -0.03149742 -0.03149107
 -0.03147525 -0.0314527 -0.03142428 -0.03139398 -0.03136191 -0.03133002 -0.03129841 -0.03126758 -0.03123884 -0.03121307
 -0.03119297 -0.03118043 -0.03117776 -0.03118722 -0.03120703 -0.03123866 -0.03127273 -0.03130858 -0.03133284 -0.03134346
 -0.03133355 -0.03130191 -0.03125659 -0.03119831 -0.03114644 -0.0311017 -0.0310796 -0.03107809 -0.03109683 -0.03113111
 -0.03116658 -0.03120036 -0.03121855 -0.03122379 -0.03121304 -0.03119211 -0.03116602 -0.03113764 -0.03111108 -0.03108509
 -0.03105968 -0.03103484 -0.03100958 -0.03098879 -0.03097312 -0.03096762 -0.03097353 -0.03098936 -0.0310154 -0.03104297
 -0.03107161 -0.03109199 -0.03110426 -0.03110575 -0.03109767 -0.03108443 -0.03106681 -0.03104998 -0.03103265 -0.03101462
 -0.03099463 -0.03096978 -0.03094242 -0.03091312 -0.03088618 -0.03086558 -0.03085085 -0.03084399 -0.03083867 -0.03083328
 -0.03082322 -0.0308064 -0.03078578 -0.03076116 -0.03073861 -0.03071872 -0.03070312 -0.03069179 -0.03068073 -0.0306697
 -0.0306545 -0.03063583 -0.03061465 -0.03059247 -0.03057479 -0.03056186 -0.03055764 -0.03055986 -0.03056738 -0.03057703
 -0.0305848 -0.03059022 -0.03059092 -0.03059012 -0.03058864 -0.03058951 -0.03059463 -0.0306021 -0.03061236 -0.03062022
 -0.03062497 -0.03062369 -0.03061599 -0.03060265 -0.03058368 -0.03055928 -0.03052952 -0.03049436 -0.0304549 -0.03041632
 -0.03038013 -0.0303547 -0.03033842 -0.03033309 -0.03033366 -0.0303331 -0.03032896 -0.03031468 -0.03029431 -0.03026788
 -0.0302419 -0.03021986 -0.03020453 -0.03019801 -0.03019916 -0.03020838 -0.03022263 -0.03024176 -0.03026186 -0.03028278
 -0.03029885 -0.03030976 -0.03030894 -0.03029641 -0.03026905 -0.03022823 -0.03017854 -0.03012237 -0.03006983 -0.03002178
 -0.02998563 -0.02995929 -0.02994329 -0.0299343 -0.02992915 -0.02992545 -0.02992038 -0.02991342 -0.02990313 -0.02989164
 -0.02987913 -0.02986834 -0.02986027 -0.02985431 -0.02985077 -0.02984638 -0.02984082 -0.0298332 -0.0298235 -0.02981354
 -0.02980321 -0.02979219 -0.02977991 -0.02976313 -0.0297417 -0.02971309 -0.02967834 -0.02963804 -0.02959432 -0.02955002
 -0.02950819 -0.02947303 -0.02944645 -0.02943199 -0.02942712 -0.0294328 -0.0294415 -0.02945135 -0.02945509 -0.02945019
 -0.02943589 -0.02941097 -0.02938294 -0.02935219 -0.0293277 -0.02930984 -0.02929878 -0.02929382 -0.02928721 -0.02927903
 -0.02926521 -0.02924765 -0.02923071 -0.0292152 -0.02920583 -0.02920035 -0.02919749 -0.02919498 -0.02918945 -0.02918117
 -0.02916927 -0.02915449 -0.02913717 -0.0291171 -0.02909421 -0.0290687 -0.02904053 -0.02901026 -0.02897807 -0.02894334
 -0.02890605 -0.02886494 -0.02881997 -0.02877259 -0.02872336 -0.02867868 -0.02863958 -0.0286152 -0.02860547 -0.02861613
 -0.02864398 -0.02868581 -0.02873616 -0.02878537 -0.02882985 -0.02886071 -0.02888143 -0.02888926 -0.02889652 -0.02890719
 -0.02893574 -0.02898985 -0.0290693 -0.02917865 -0.02929546 -0.02941759 -0.02952273 -0.02960734 -0.02968187 -0.02974687
 -0.02982637 -0.02991817 -0.03000648 -0.03008474 -0.03010535 -0.03007211 -0.02996888 -0.02981113 -0.02962395 -0.02942251
 -0.02924123 -0.02908755 -0.02898551 -0.02892645 -0.02891456 -0.02893024 -0.02896595 -0.02900307 -0.02903309 -0.02904754
 -0.02904111 -0.02902174 -0.02898909 -0.02895767 -0.02892947 -0.02890132 -0.02887305 -0.02883324 -0.02878269 -0.02872766
 -0.02866957 -0.02862122 -0.02857975 -0.02854214 -0.02850535 -0.02845863 -0.02840683 -0.02835253 -0.02830125 -0.02826322
 -0.02823131 -0.0282052 -0.02817243 -0.02812377 -0.02806222 -0.02798405 -0.02790665 -0.02783388 -0.02777567 -0.02773556
 -0.02770586 -0.02768663 -0.0276639 -0.02763698 -0.02760001 -0.02755377 -0.02750581 -0.02745742 -0.02742043 -0.02739388
 -0.02738179 -0.02738022 -0.02738275 -0.02738506 -0.02737692 -0.02735754 -0.02732074 -0.02727158 -0.0272106 -0.02714654
 -0.02708437 -0.02702854 -0.02698281 -0.02694383 -0.02691137 -0.02688276 -0.02685666 -0.0268392 -0.02683081 -0.02683695
 -0.02685788 -0.02688507 -0.02691754 -0.02693974 -0.02695248 -0.02695172 -0.02694048 -0.02692785 -0.02691417 -0.026906
 -0.02689919 -0.02688978 -0.02687497 -0.02684841 -0.02681421 -0.02677189 -0.02673063 -0.02669521 -0.02667124 -0.0266633
 -0.02666696 -0.02668318 -0.02670076 -0.02671798 -0.02672791 -0.02672941 -0.02672359 -0.02671047 -0.02669336 -0.02667231
 -0.02664867 -0.02662279 -0.02659724 -0.02657273 -0.02655364 -0.02653925 -0.02653058 -0.02652544 -0.02652047 -0.02651485
 -0.02650576 -0.02649503 -0.02648328 -0.02647185 -0.02646241 -0.02645263 -0.02644254 -0.02642777 -0.02640694 -0.02637898
 -0.02634286 -0.02630366 -0.0262615 -0.02622428 -0.02619244 -0.02617049 -0.02615822 -0.02615419 -0.0261576 -0.02616328
 -0.02617043 -0.02617341 -0.02617182 -0.02616136 -0.02614358 -0.02611827 -0.02608923 -0.02606044 -0.02603541 -0.02601902
 -0.02601011 -0.02601046 -0.02601424 -0.02601986 -0.02602231 -0.02601952 -0.02601175 -0.02599848 -0.02598254 -0.02596427
 -0.02594403 -0.02592186 -0.02589709 -0.02586994 -0.02584321 -0.02581763 -0.02579924 -0.02578795 -0.02578728 -0.0257954
 -0.02581015 -0.02582895 -0.02584668 -0.02586151 -0.02586923 -0.02586936 -0.02586021 -0.02584182 -0.02581372 -0.0257764
 -0.02572905 -0.025676 -0.02561689 -0.02556207 -0.02551288 -0.02547895 -0.02546193 -0.02546024 -0.02547392 -0.02549055
 -0.02550954 -0.02551991 -0.02552235 -0.02551559 -0.02550082 -0.02548192 -0.02545904 -0.0254344 -0.02540778 -0.0253792
 -0.02535003 -0.02532128 -0.02529576 -0.02527629 -0.02526389 -0.02526092 -0.02526351 -0.02527154 -0.02527835 -0.02528208
 -0.0252793 -0.02526879 -0.02525192 -0.02522863 -0.0252014 -0.02517038 -0.02513729 -0.02510238 -0.02506917 -0.02503819
 -0.02501467 -0.02499857 -0.02499297 -0.02499654 -0.02500804 -0.02502511 -0.02504356 -0.02506084 -0.02507215 -0.02507671
 -0.02507152 -0.0250594 -0.02504047 -0.02501939 -0.02499819 -0.02497893 -0.02496303 -0.02494849 -0.02493531 -0.02492074
 -0.02490441 -0.02488571 -0.02486456 -0.02484317 -0.02482172 -0.0248035 -0.02478849 -0.02477856 -0.02477294 -0.02477006
 -0.02476848 -0.02476398 -0.02475553 -0.02473908 -0.02471548 -0.02468337 -0.02464629 -0.02460593 -0.02456753 -0.0245344
 -0.0245101 -0.02449757 -0.02449479 -0.02450271 -0.02451413 -0.0245283 -0.02453746 -0.02454054 -0.02453476 -0.02451983
 -0.02449884 -0.02447204 -0.02444402 -0.02441477 -0.02438649 -0.02435911 -0.02433337 -0.02430965 -0.0242896 -0.02427271
 -0.0242595 -0.0242475 -0.02423403 -0.02421698 -0.02419279 -0.02416352 -0.02412853 -0.02409303 -0.02405914 -0.02402939
 -0.02400551 -0.02398486 -0.02396748 -0.02394927 -0.02392963 -0.02390824 -0.02388501 -0.02386233 -0.02384029 -0.02382046
 -0.02380265 -0.02378639 -0.02377139 -0.0237563 -0.02374105 -0.02372466 -0.02370749 -0.02368949 -0.02367152 -0.02365452
 -0.02363943 -0.02362753 -0.02361874 -0.02361369 -0.02361081 -0.02361 -0.0236084 -0.02360543 -0.02359811 -0.02358557
 -0.02356793 -0.0235447 -0.02352142 -0.0234984 -0.02348123 -0.02346977 -0.02346198 -0.02345698 -0.02344724 -0.02343317
 -0.02341189 -0.0233855 -0.02335803 -0.02333085 -0.02330861 -0.0232908 -0.02327874 -0.02327139 -0.02326844 -0.02326857
 -0.02327107 -0.02327445 -0.02327778 -0.02328091 -0.02328363 -0.02328623 -0.02328918 -0.02328941 -0.02328695 -0.0232756
 -0.02325494 -0.02322218 -0.02317764 -0.023127 -0.02307148 -0.02302239 -0.02298001 -0.02295255 -0.02293714 -0.02293136
 -0.02293057 -0.02292459 -0.02291271 -0.02288803 -0.02285725 -0.02282292 -0.02279351 -0.02277588 -0.02277091 -0.02278258
 -0.022801 -0.02282533 -0.02284196 -0.02284794 -0.02283723 -0.02280799 -0.02276704 -0.02271456 -0.02266301 -0.02261277
 -0.02257055 -0.02253595 -0.02250935 -0.02249031 -0.0224777 -0.02247073 -0.02246725 -0.02246555 -0.02246144 -0.02245404
 -0.02243996 -0.02242073 -0.02239631 -0.02236886 -0.02233957 -0.0223101 -0.0222813 -0.02225461 -0.0222308 -0.02220963
 -0.02219153 -0.02217339 -0.02215489 -0.02213398 -0.02211046 -0.022086 -0.02206067 -0.02203577 -0.022011 -0.02198444
 -0.02195609 -0.02192448 -0.0218909 -0.0218578 -0.02182684 -0.02180246 -0.02178482 -0.02177671 -0.02177529 -0.02178008
 -0.02178537 -0.02178792 -0.02178269 -0.02176609 -0.02173873 -0.02169926 -0.0216534 -0.02160169 -0.02155059 -0.021501
 -0.0214561 -0.02141624 -0.02137945 -0.02134552 -0.02130999 -0.02127335 -0.02123688 -0.02120212 -0.02117696 -0.0211607
 -0.02115693 -0.02116065 -0.0211643 -0.02116405 -0.02115026 -0.02112602 -0.02108947 -0.02104819 -0.02100652 -0.02096884
 -0.02093883 -0.020915 -0.02089819 -0.02088378 -0.02087108 -0.02085657 -0.02083955 -0.02082052 -0.02079943 -0.020779
 -0.02075927 -0.02074023 -0.02072171 -0.02070194 -0.0206813 -0.02066056 -0.02064009 -0.02062185 -0.02060483 -0.02058832
 -0.02057073 -0.02054956 -0.02052436 -0.02049369 -0.02045817 -0.02041739 -0.02037329 -0.02032613 -0.02027927 -0.0202338
 -0.02019143 -0.02015314 -0.0201161 -0.02008021 -0.02004144 -0.01999938 -0.01995489 -0.01990826 -0.01986585 -0.01982785
 -0.0197992 -0.01977863 -0.01976381 -0.01975264 -0.01973759 -0.01971877 -0.01969177 -0.01966039 -0.01962822 -0.01959717
 -0.01957183 -0.01954771 -0.01952366 -0.01949473 -0.01945744 -0.01941349 -0.01936175 -0.019309 -0.01925633 -0.01920868
 -0.01916707 -0.01913103 -0.01910067 -0.01907252 -0.01904643 -0.01901939 -0.01899155 -0.01896271 -0.01893338 -0.01890595
 -0.01888012 -0.01885682 -0.01883433 -0.01880984 -0.01878204 -0.01874763 -0.01870722 -0.01865993 -0.01860762 -0.01855111
 -0.01849219 -0.01843166 -0.01837118 -0.01831118 -0.0182538 -0.01819942 -0.01815036 -0.01810724 -0.01806856 -0.01803436
 -0.01799995 -0.01796523 -0.0179296 -0.01789368 -0.01786281 -0.01783687 -0.01781886 -0.01780669 -0.01779611 -0.01778508
 -0.01776722 -0.01774258 -0.01770844 -0.01766602 -0.01761516 -0.01755801 -0.01749517 -0.01743089 -0.01736707 -0.01730679
 -0.01725203 -0.0172008 -0.01715331 -0.01710566 -0.01705715 -0.01700766 -0.01695707 -0.01690753 -0.01685903 -0.01681096
 -0.01676297 -0.01671178 -0.01665734 -0.01659724 -0.01653257 -0.01646457 -0.0163957 -0.01633109 -0.01627296 -0.01622741
 -0.0161926 -0.01617103 -0.01615386 -0.01613717 -0.01611072 -0.01606757 -0.0160079 -0.01592845 -0.01584068 -0.01574585
 -0.0156558 -0.01557266 -0.01549875 -0.01543466 -0.01537338 -0.01531466 -0.01525475 -0.01519409 -0.01513583 -0.0150794
 -0.01502471 -0.0149693 -0.01490599 -0.01483282 -0.01474157 -0.01463415 -0.01450863 -0.01437048 -0.01422378 -0.01407402
 -0.0139263 -0.01378249 -0.01364527 -0.01351229 -0.01338332 -0.01325649 -0.01313061 -0.01300989 -0.01289462 -0.01278941
 -0.01269486 -0.01260747 -0.01252695 -0.01244473 -0.01236069 -0.01227001 -0.01217335 -0.01207133 -0.0119642 -0.01185315
 -0.01173779 -0.01161739 -0.01149312 -0.01136603 -0.01123797 -0.01111196 -0.01098645 -0.01086191 -0.01073469 -0.010603
 -0.01046549 -0.01032111 -0.01017104 -0.0100161 -0.009852855 -0.009681867 -0.009490751 -0.009278341 -0.009040902 -0.008778917
 -0.008514957 -0.008249763 -0.008000755 -0.007764454 -0.007532804 -0.007303599 -0.007065429 -0.006819701 -0.006564642 -0.006300069
 -0.006027748 -0.005739192 -0.005428542 -0.005083723 -0.004691021 -0.00425707 -0.003773219 -0.00328118 -0.002790626 -0.002339537
 -0.001941934 -0.001590534 -0.001288185 -0.001005597 -0.0007409034 -0.0004693842 -0.0001897506 0.0001188651 0.000457145 0.0008438535
 0.00127298 0.001729432 0.002199105 0.002625614 0.003013282 0.003339239 0.003624898 0.003892676 0.004154739 0.004433962
 0.004726869 0.005039598 0.005360692 0.005686488 0.006007866 0.006321356 0.006620787 0.006903415 0.007171272 0.007422986
 0.007673983 0.007925613 0.008185004 0.008451929 0.008705861 0.00894514 0.009144373 0.009305946 0.009427617 0.009514103
 0.009578604 0.009624172 0.009663917 0.009697485 0.009730496 0.009759869 0.009784202 0.009801993 0.009810586 0.009813525
 0.009810911 0.009809338 0.009811296 0.009819324 0.009834749 0.009856239 0.009883876 0.009915771 0.00995197 0.009987273
 0.01002134 0.01004563 0.01006011 0.01006121 0.01004935 0.01002478 0.009987591 0.009937081 0.009875492 0.009805532
 0.009733384 0.00966905 0.009617214 0.009587049 0.009578126 0.0095925 0.009630159 0.009691544 0.009776691 0.009887094
 0.01001581 0.01016209 0.01031768 0.01048093 0.01065076 0.01082696 0.01100958 0.01119858 0.01139104 0.01158714
 0.01178722 0.01199214 0.01220684 0.01243124 0.01266804 0.01291601 0.01317379 0.01344048 0.01371441 0.01399452
 0.01427917 0.0145677 0.01485864 0.01515364 0.01545341 0.01575811 0.01606899 0.01638081 0.01669293 0.0169997
 0.01730007 0.01759208 0.0178754 0.01815019 0.01841654 0.0186797 0.01894044 0.01921014 0.01948706 0.01977015
 0.02005305 0.02031323 0.02054982 0.02074864 0.02091501 0.02105284 0.02116103 0.02124092 0.02128781 0.02129775
 0.02127119 0.02121007 0.02110475 0.02095861 0.02073425 0.02042227 0.02000461 0.01946784 0.01889308 0.01828578
 0.01771467 0.01718238 0.01666608 0.0161639 0.01564783 0.01512022 0.01457983 0.01402866 0.01347523 0.01291366
 0.01233988 0.0117364 0.01107072 0.01034341 0.009522775 0.008678496 0.007850314 0.007091884 0.006456831 0.005903859
 0.005433323 0.00499251 0.004565706 0.004142623 0.003717504 0.003308629 0.002917507 0.002551153 0.002209718 0.001876846
 0.001551294 0.001212862 0.000863141 0.000498449 0.0001245677 -0.0002418242 -0.0005957343 -0.0009161468 -0.001206072 -0.001458963
 -0.001684828 -0.001891208 -0.002087684 -0.002283375 -0.00248438 -0.002696328 -0.002920876 -0.003162806 -0.003407672 -0.00365506
 -0.00388089 -0.004079617 -0.004252739 -0.004399033 -0.00453727 -0.004668333 -0.004802803 -0.00494011 -0.005076971 -0.005212621
 -0.005340672 -0.005462367 -0.005579696 -0.00569147 -0.005798309 -0.005892855 -0.005963661 -0.006006366 -0.00600863 -0.00597954
 -0.005920413 -0.00584437 -0.005758901 -0.005670267 -0.005582983 -0.005496175 -0.00541178 -0.005320305 -0.005222005 -0.005097475
 -0.004944883 -0.004751207 -0.004515931 -0.004259301 -0.003983648 -0.003723979 -0.003479006 -0.00325923 -0.00306196 -0.002882394
 -0.002721939 -0.002581871 -0.002463072 -0.00237093 -0.002295802 -0.002233924 -0.002162892 -0.002063178 -0.001925712 -0.001730915
 -0.001515862 -0.001288171 -0.001082042 -0.000912255 -0.0007664267 -0.0006466936 -0.000522939 -0.0003920239 -0.0002420142 -7.228579E-05
 0.0001008332 0.0002763656 0.0004365919 0.0005836863 0.0007202733 0.0008503488 0.000989315 0.00113856 0.00130987 0.001500121
 0.001709439 0.001935001 0.00217278 0.00242405 0.002689224 0.00296719 0.003258845 0.003557842 0.003861198 0.004168688
 0.004477235 0.004802265 0.005144782 0.00552468 0.00594491 0.006403791 0.006901237 0.007401183 0.007901326 0.008362222
 0.008785127 0.009157822 0.009481821 0.009757597 0.009981634 0.01014698 0.01024786 0.01027052 0.01021578 0.01007588
 0.00986388 0.009585711 0.009256794 0.008889264 0.008482381 0.008041131 0.00754979 0.007002805 0.006403284 0.005746082
 0.005075694 0.004394979 0.00375039 0.003144555 0.002582895 0.002063951 0.001569171 0.001098704 0.0006436589 0.0002070467
 -0.0002044619 -0.0005900796 -0.0009432787 -0.00126809 -0.001567758 -0.001846867 -0.002112448 -0.002365261 -0.002608481 -0.002840517
 -0.003060373 -0.003270378 -0.003470514 -0.003665649 -0.003857845 -0.004045228 -0.004228571 -0.004399431 -0.004556999 -0.004696277
 -0.004816946 -0.004921138 -0.005009082 -0.005084365 -0.005146918 -0.005197856 -0.005237368 -0.00526651 -0.005286003 -0.005298204
 -0.005303301 -0.005302872 -0.005296205 -0.005282702 -0.005262957 -0.005236138 -0.005206547 -0.005175622 -0.005148928 -0.005129445
 -0.005117642 -0.005114616 -0.005117144 -0.005124182 -0.005138617 -0.005160078 -0.005199567 -0.005257702 -0.005338303 -0.005440409
 -0.005551616 -0.005670303 -0.005779889 -0.005880922 -0.005966431 -0.006038231 -0.006097658 -0.006144936 -0.006181481 -0.006205829
 -0.006216441 -0.006213402 -0.006195215 -0.006165811 -0.006126124 -0.006082121 -0.00603614 -0.005992283 -0.005952185 -0.005916888
 -0.005886835 -0.005861877 -0.005841959 -0.005827942 -0.005819859 -0.005820923 -0.005831365 -0.005855424 -0.005892697 -0.005943649
 -0.006006111 -0.006072857 -0.006141118 -0.006200047 -0.00624958 -0.006283682 -0.006306304 -0.006318833 -0.006327317 -0.006337005
 -0.006351942 -0.006376483 -0.006409648 -0.006453082 -0.006500506 -0.006550932 -0.006598051 -0.006640284 -0.006676807 -0.006707065
 -0.006735523 -0.006762415 -0.006791112 -0.006821376 -0.006850454 -0.006877436 -0.006894836 -0.006902756 -0.006896714 -0.006879306
 -0.006854254 -0.006824758 -0.006798463 -0.006775627 -0.006760214 -0.00674947 -0.006742564 -0.006736821 -0.006730896 -0.00672178
 -0.006708561 -0.00668703 -0.006655643 -0.006613327 -0.006558779 -0.006498634 -0.006433023 -0.00637265 -0.006318174 -0.00627572
 -0.006245143 -0.006225239 -0.006215034 -0.00620771 -0.00620261 -0.006193124 -0.006180377 -0.006163249 -0.006144492 -0.00612841
 -0.006116664 -0.00611359 -0.006117762 -0.006130068 -0.006146861 -0.006166412 -0.006185865 -0.006203231 -0.006219218 -0.006233261
 -0.006248485 -0.006265503 -0.006285291 -0.006308196 -0.006332059 -0.00635675 -0.006382054 -0.006408159 -0.006438447 -0.006472757
 -0.006512132 -0.006555277 -0.006597671 -0.006638461 -0.006672659 -0.006701524 -0.006724433 -0.006744237 -0.006764425 -0.006786083
 -0.00681246 -0.006839793 -0.006867799 -0.006889708 -0.006902032 -0.006903834 -0.006892835 -0.006877027 -0.006857285 -0.006840997
 -0.006829557 -0.00682082 -0.006814783 -0.006805533 -0.006792936 -0.00677445 -0.006750247 -0.006720083 -0.006684352 -0.006644011
 -0.006600194 -0.006556313 -0.006513043 -0.006473721 -0.006436822 -0.006402111 -0.006367242 -0.006330397 -0.006289276 -0.00624283
 -0.006186867 -0.006119615 -0.006037897 -0.005939649 -0.005828036 -0.005702706 -0.005570899 -0.005433465 -0.005293992 -0.005152795
 -0.005009181 -0.004863174 -0.004714869 -0.00456473 -0.004416109 -0.004269283 -0.004127786 -0.003990161 -0.003855075 -0.003719606
 -0.003577062 -0.003428072 -0.003268743 -0.003106482 -0.002946256 -0.00279367 -0.002655707 -0.002526358 -0.002406191 -0.002283742
 -0.002155075 -0.002017697 -0.001869543 -0.001717711 -0.001562475 -0.001412692 -0.001268961 -0.001136727 -0.001015828 -0.0009037729
 -0.0007990847 -0.0006900372 -0.0005758568 -0.0004462564 -0.0003035764 -0.0001483756 1.616037E-05 0.0001837971 0.000353324 0.000520655
 0.0006858729 0.0008472479 0.001006721 0.001164388 0.001324 0.001488018 0.001654923 0.001826406 0.001991904 0.002150018
 0.002291357 0.002414166 0.002519266 0.002606461 0.002683634 0.002751368 0.002820303 0.002891038 0.002973808 0.003067227
 0.003172117 0.003284733 0.003395165 0.003501893 0.003596926 0.003682108 0.003756729 0.003822293 0.003878921 0.003930829
 0.00397853 0.00403251 0.004097443 0.00417908 0.004282017 0.004397572 0.0045258 0.004652787 0.004776666 0.00489147
 0.004996494 0.005096677 0.005192587 0.005295889 0.005406528 0.005530797 0.005665758 0.00580249 0.005938672 0.006061855
 0.006175549 0.006280714 0.006380237 0.006480681 0.006576111 0.006663463 0.006738098 0.006793353 0.006837965 0.006873278
 0.006909538 0.006951317 0.006997057 0.007047204 0.007099024 0.007151651 0.007210564 0.007276124 0.007351055 0.007434971
 0.007519104 0.007602512 0.007673433 0.007732806 0.007777216 0.007810488 0.007840643 0.007871957 0.0079173 0.007975528
 0.008052248 0.008139638 0.00823242 0.008325417 0.008412534 0.008496583 0.008577351 0.008657673 0.008739055 0.008819477
 0.00889926 0.008973603 0.009042497 0.009096803 0.009135964 0.00915013 0.009139467 0.009109206 0.00906157 0.0090171
 0.00897551 0.008947855 0.00892939 0.008911859 0.008893518 0.008865545 0.008832598 0.00879718 0.00876342 0.008737166
 0.008716688 0.008703658 0.008692069 0.008680074 0.008662047 0.00863504 0.008600738 0.008557857 0.008516522 0.008477914
 0.008448172 0.008428087 0.008411528 0.008398032 0.008377925 0.008350961 0.00831126 0.008258391 0.008186971 0.008097436
 0.007987141 0.007859334 0.007719124 0.007568544 0.007413206 0.007251427 0.007082428 0.006908363 0.006728693 0.006551221
 0.006380311 0.006216367 0.00606253 0.005906574 0.005746723 0.005573332 0.005384283 0.005182061 0.004966591 0.004743728
 0.004513653 0.004278358 0.004038233 0.003796615 0.003555188 0.003323453 0.003102132 0.002899987 0.002712402 0.002536014
 0.002362981 0.002179508 0.001986403 0.001776306 0.001562367 0.001351523 0.001150918 0.0009685057 0.0007937697 0.0006246065
 0.0004549737 0.0002807441 0.0001170599 -3.460922E-05 -0.0001628943 -0.0002661107 -0.0003607642 -0.0004478639 -0.0005498445 -0.000665401
 -0.000793806 -0.0009321022 -0.001065563 -0.001195171 -0.00131582 -0.001430578 -0.001544283 -0.001655766 -0.001766709 -0.001871796
 -0.001966143 -0.00204759 -0.002112101 -0.002163541 -0.002203136 -0.002232112 -0.002252436 -0.002257297 -0.002244833 -0.002215005
 -0.002165689 -0.002117799 -0.002072556 -0.002051181 -0.002053784 -0.002071713 -0.002102433 -0.002119249 -0.002123536 -0.002106259
 -0.002073145 -0.002036877 -0.001999751 -0.001973048 -0.001954694 -0.001946435 -0.0019461 -0.001952892 -0.00196312 -0.001975209
 -0.001982945 -0.001982524 -0.001972902 -0.001951782 -0.001925692 -0.001895655 -0.001866152 -0.001838479 -0.001808935 -0.001777448
 -0.001737866 -0.001690047 -0.001633366 -0.0015684 -0.001500162 -0.001428637 -0.001357024 -0.001283539 -0.001204085 -0.00111839
 -0.001021967 -0.0009205714 -0.000819186 -0.0007256884 -0.0006511097 -0.0005945975 -0.0005616162 -0.0005398629 -0.0005261894 -0.0005070499
 -0.0004767439 -0.0004316187 -0.0003684064 -0.0002966412 -0.0002162366 -0.0001439196 -8.098197E-05 -3.87412E-05 -1.7354E-05 -1.255883E-05
 -2.292609E-05 -3.377286E-05 -4.471978E-05 -4.54036E-05 -3.832209E-05 -2.533405E-05 -9.179495E-06 2.187679E-06 1.149168E-05 1.75187E-05
 2.814762E-05 5.150203E-05 9.007622E-05 0.0001507289 0.0002237556 0.0003074077 0.0003898685 0.0004660167 0.0005342436 0.0005931927
 0.0006445801 0.0006889887 0.0007222417 0.0007439346 0.000753337 0.0007507671 0.0007489591 0.000748651 0.0007631174 0.0007899982
 0.0008253916 0.0008658639 0.0008972118 0.0009220961 0.0009375151 0.0009512444 0.0009747273 0.001008473 0.001060468 0.00111859
 0.001177078 0.00122663 0.0012583 0.00128064 0.001293589 0.00130966 0.00133346 0.001359966 0.001389841 0.001409957
 0.001418679 0.00142172 0.001419761 0.001435998 0.001470789 0.001538409 0.001634944 0.001750509 0.001878324 0.001992762
 0.002089685 0.002145863 0.002167041 0.002147911 0.00210562 0.002053729 0.002009541 0.001991274 0.001999992 0.002044358
 0.002106632 0.002183886 0.002257698 0.002321481 0.002377901 0.002424753 0.002483332 0.002555468 0.002650842 0.002769353
 0.00289124 0.003014895 0.003115678 0.003196077 0.003255157 0.003297027 0.003334861 0.003368529 0.00340413 0.003440001
 0.003475845 0.00351152 0.003547173 0.003581501 0.003612983 0.003643066 0.00367002 0.003703524 0.003746116 0.003805848
 0.003886569 0.003982156 0.004093268 0.004205177 0.004316856 0.004415474 0.004500483 0.004566391 0.004614265 0.004652148
 0.004681855 0.004718412 0.004759124 0.004804681 0.004848837 0.004876489 0.004889444 0.004881155 0.00486275 0.004844052
 0.004830441 0.004830546 0.004839728 0.004858156 0.004880415 0.004905079 0.004927126 0.004945298 0.004955685 0.004956337
 0.004956467 0.004956149 0.004974221 0.00501137 0.005070281 0.005148698 0.005224537 0.005295821 0.005339167 0.005358364
 0.00535117 0.005326563 0.005303041 0.005285571 0.005293267 0.00531633 0.005353803 0.005389998 0.005409815 0.005416313
 0.005403873 0.00539085 0.005384179 0.005386878 0.005402148 0.005420847 0.005440419 0.00547001 0.00551004 0.005572458
 0.005657361 0.005742547 0.00582574 0.005872076 0.005885762 0.005868371 0.005829955 0.005805442 0.005796924 0.00582976
 0.005891629 0.005976988 0.006069129 0.006146657 0.006205251 0.006231337 0.006238908 0.006230694 0.006221005 0.006216968
 0.006218366 0.006225719 0.00624093 0.006263287 0.006305003 0.006368143 0.006441648 0.006524642 0.006578383 0.006603344
 0.006588943 0.006542097 0.006496382 0.006452382 0.00643153 0.006425924 0.006425661 0.006431816 0.006440652 0.006457768
 0.006491278 0.006533758 0.006582709 0.006630671 0.00666951 0.006710367 0.006755242 0.006813741 0.006891444 0.006974611
 0.007061685 0.007144854 0.007223067 0.007296814 0.007365971 0.007421169 0.007462204 0.00748251 0.007484331 0.007476626
 0.007461108 0.007447474 0.007437381 0.007438402 0.007453281 0.007494356 0.007548887 0.007613888 0.007659866 0.007659538
 0.00761035 0.0074933 0.007354761 0.007204077 0.007087954 0.007023721 0.007009393 0.007050874 0.007107683 0.007177378
 0.007219286 0.007231367 0.007199165 0.007124339 0.007020809 0.006891173 0.006756512 0.006617654 0.006486229 0.006366561
 0.006272362 0.006210899 0.00620477 0.006242468 0.006326667 0.006425699 0.00651577 0.006579683 0.006601805 0.006578218
 0.006505431 0.006377098 0.006184904 0.005961775 0.005704911 0.005497528 0.005347538 0.005302745 0.005365526 0.005509613
 0.005732218 0.005995202 0.00629513 0.006597144 0.006892845 0.007130102 0.007315069 0.007426777 0.007497938 0.007572196
 0.007669712 0.007840166 0.008056324 0.008320733 0.008582995 0.008816359 0.008993485 0.009092844 0.009130825 0.009101074
 0.009057945 0.009007025 0.009002496 0.009051573 0.00916102 0.009331308 0.00953035 0.009756077 0.009977041 0.01018969
 0.01035876 0.01047991 0.01051275 0.01047042 0.01035574 0.01020053 0.01005955 0.009945654 0.009901511 0.009905014
 0.009956723 0.01002323 0.01009193 0.0101228 0.01010083 0.009991852 0.009775052 0.009489333 0.009127989 0.008807791
 0.008539728 0.008397269 0.008384539 0.008452902 0.008595232 0.008707797 0.008788882 0.008772368 0.00866963 0.008480326
 0.008226118 0.007957251 0.007686933 0.007464916 0.007276847 0.00712636 0.006996111 0.006865606 0.006752104 0.006656379
 0.006605076 0.006613886 0.006672154 0.00678377 0.006916298 0.007065624 0.007206818 0.007337728 0.007433145 0.007491597
 0.007497653 0.007452645 0.007371398 0.007254643 0.007115154 0.006949602 0.006747598 0.006517702 0.006270362 0.006025298
 0.00582523 0.005665574 0.005562914 0.005492099 0.005432416 0.005387558 0.005348102 0.005343628 0.005387076 0.00548032
 0.005632624 0.00580444 0.0059937 0.006147901 0.006261703 0.006300815 0.006263053</values></Ydata></AB><ScSm><Ydata ylabel="Single channel"><values byteorder="INTEL" format="FLOAT32" numvalues="1814"> 0.06892402 0.06893216 0.06900711 0.06916925 0.06938912 0.06960267 0.06975263 0.06982425 0.06983504 0.06979698
 0.06972003 0.06965461 0.06968417 0.06984618 0.07007836 0.07025935 0.070306 0.07024695 0.07020578 0.07027768
 0.07039969 0.07037258 0.07005094 0.0695108 0.06899689 0.06869756 0.06863239 0.0687993 0.06928781 0.07003988
 0.07059235 0.07041155 0.06956328 0.06873856 0.06848603 0.06868498 0.06887166 0.06877567 0.06840335 0.06792723
 0.0677284 0.06829578 0.06974538 0.07142226 0.07213506 0.07090674 0.0676723 0.06350182 0.0602082 0.05937588
 0.06124281 0.06437825 0.0667562 0.06737274 0.06672793 0.06580019 0.06499209 0.06425728 0.06378401 0.06403226
 0.06509852 0.06628785 0.06647395 0.06506185 0.06269449 0.06079881 0.06028724 0.06098428 0.06238144 0.06418969
 0.0655718 0.06470777 0.06058418 0.0552548 0.05292324 0.0559482 0.06232702 0.06765649 0.06905018 0.06675076
 0.06284602 0.05953696 0.05831058 0.05954051 0.06242212 0.06564425 0.06818504 0.06935173 0.06860068 0.06601129
 0.06275126 0.06050871 0.06045309 0.06277783 0.06666052 0.07033509 0.07189422 0.0706996 0.06780668 0.0648475
 0.06295492 0.06276733 0.06458938 0.06807292 0.07219788 0.07586545 0.07834561 0.07934669 0.07907707 0.07811619
 0.07697305 0.07599665 0.07568206 0.07636771 0.07742923 0.0775167 0.07602622 0.0739097 0.07269597 0.07291071
 0.07365759 0.07370833 0.0727451 0.07115465 0.06881049 0.06506029 0.06021928 0.05595868 0.05363517 0.05326283
 0.05451208 0.05723557 0.06029202 0.06147429 0.05992188 0.05766467 0.05760515 0.06042252 0.06421901 0.06683816
 0.06785901 0.06845817 0.06988712 0.07219091 0.07404154 0.07374431 0.07092694 0.06749125 0.06627028 0.06824283
 0.07158551 0.07390755 0.07476894 0.07541607 0.07661182 0.07746263 0.07635306 0.07286498 0.06881371 0.06712669
 0.06929196 0.0738699 0.077539 0.07755366 0.07359195 0.06783284 0.06325816 0.06158796 0.06281579 0.06634077
 0.07163025 0.07762786 0.0824846 0.08459201 0.0837508 0.08108042 0.07774094 0.07385729 0.06913002 0.06462832
 0.06301008 0.06600991 0.07222111 0.07826883 0.08182175 0.08275458 0.08183265 0.07926985 0.07495219 0.0698441
 0.06644736 0.06685351 0.07022161 0.07325773 0.07366548 0.07224025 0.07116838 0.07130145 0.07184266 0.07203243
 0.07223496 0.07332195 0.07542916 0.077632 0.0788406 0.07878695 0.07807088 0.07745963 0.07718988 0.07679499
 0.07576565 0.07457148 0.07460333 0.07664913 0.07980846 0.08241738 0.08371633 0.08412546 0.08413249 0.08344067
 0.08140288 0.07824154 0.07554799 0.07510166 0.07714748 0.08024177 0.08275343 0.08403793 0.08428393 0.08392046
 0.083324 0.08269738 0.08213773 0.08190422 0.08235116 0.08342461 0.08454648 0.08519551 0.08533563 0.0851558
 0.08469772 0.0839332 0.08303465 0.08237934 0.08227586 0.08273264 0.08350703 0.08432432 0.08497127 0.08525239
 0.08506283 0.08454253 0.08399324 0.08360094 0.0833685 0.08330777 0.08350745 0.0839614 0.08447951 0.08484724
 0.08499701 0.08498396 0.08486842 0.08467422 0.08442623 0.08419172 0.08407932 0.08416759 0.0844094 0.08465678
 0.08482859 0.08499183 0.08521014 0.08538729 0.0853674 0.08515029 0.08490694 0.08479385 0.08482634 0.08492403
 0.0850009 0.08497889 0.08477637 0.08437876 0.08393636 0.08370781 0.08385213 0.0843163 0.08493124 0.08553342
 0.08598603 0.08620706 0.08623481 0.08618864 0.08612895 0.0860131 0.08580375 0.08557136 0.08547154 0.08562648
 0.08601584 0.0864847 0.08686852 0.08709544 0.08718316 0.08720595 0.08726957 0.08743021 0.08761194 0.08767775
 0.08760354 0.08751775 0.08754851 0.0876805 0.08778489 0.08776914 0.08768009 0.08765338 0.0877677 0.08797228
 0.08816438 0.08830744 0.08845106 0.08864342 0.08884022 0.0889211 0.08881916 0.08861591 0.08846278 0.08842187
 0.08844459 0.08849587 0.08861537 0.08882792 0.08905943 0.08919686 0.08921352 0.08919263 0.08922045 0.08928421
 0.08929591 0.08920076 0.08903558 0.08888712 0.08882009 0.08884443 0.0889222 0.08899266 0.08900531 0.08894655
 0.08883978 0.08871945 0.08860826 0.08852737 0.0885209 0.0886376 0.0888592 0.08906271 0.08909678 0.08891752
 0.08863808 0.08842971 0.08837157 0.08839612 0.08837223 0.08822925 0.08800098 0.08777104 0.08759671 0.08748083
 0.08739346 0.087311 0.0872464 0.08724837 0.0873526 0.08751699 0.08762319 0.08757349 0.08738513 0.08716834
 0.08702134 0.08696742 0.08697313 0.0869929 0.08700718 0.08704077 0.0871253 0.08723092 0.08727508 0.08722147
 0.08713229 0.08710479 0.08719288 0.087391 0.08763777 0.08782583 0.0878711 0.0877986 0.08772261 0.08772898
 0.08780952 0.08791302 0.08801565 0.08812343 0.08824022 0.08836506 0.08851206 0.08870974 0.08897339 0.08928008
 0.08957192 0.08979049 0.08992558 0.09003676 0.0902142 0.09050407 0.09087048 0.09123066 0.0915246 0.09175495
 0.09196702 0.09219418 0.09243144 0.09266859 0.09292984 0.0932512 0.09362641 0.0940069 0.0943564 0.09467912
 0.09499478 0.09531236 0.09563502 0.095976 0.09635958 0.09679826 0.09725967 0.0976681 0.09796377 0.09816417
 0.09835434 0.09862038 0.09899169 0.09941846 0.09979151 0.1000226 0.1001376 0.1002635 0.100492 0.1007855
 0.1010542 0.1012945 0.1015966 0.1020159 0.1024879 0.1028898 0.1031641 0.1033624 0.1035745 0.1038261
 0.1040579 0.1042066 0.1042894 0.1043848 0.1045409 0.1047436 0.1049813 0.10529 0.1056966 0.1061514
 0.1065592 0.1068634 0.1070713 0.1072191 0.1073425 0.1074621 0.1075718 0.1076552 0.1077243 0.1078151
 0.107931 0.1080309 0.1080931 0.1081559 0.108271 0.1084519 0.1086907 0.1089887 0.1093337 0.1096758
 0.109975 0.1102643 0.1106135 0.1110172 0.1113663 0.111565 0.1116378 0.1116802 0.1117403 0.1118077
 0.1118972 0.1120688 0.1123532 0.1127112 0.1130853 0.1134553 0.113826 0.1141883 0.1145056 0.1147332
 0.1148471 0.1148657 0.1148498 0.1148759 0.1150034 0.1152483 0.115572 0.1159022 0.116176 0.1163618
 0.1164417 0.1164088 0.1163064 0.116238 0.1162874 0.1164246 0.1165198 0.1164527 0.116187 0.1157465
 0.1151602 0.1144554 0.1136865 0.1129423 0.1123145 0.1118604 0.1116014 0.1115582 0.1117685 0.1122444
 0.1129161 0.1136473 0.1143143 0.1148405 0.1151529 0.1151597 0.1148144 0.1141781 0.1133861 0.1125659
 0.1117973 0.1111086 0.1104783 0.1098752 0.1093426 0.1090356 0.1091478 0.1097978 0.1109726 0.1125358
 0.114265 0.1159186 0.1173292 0.1184655 0.1194074 0.1202551 0.1210605 0.1218358 0.1225915 0.1233336
 0.1240367 0.1246615 0.125204 0.1256976 0.1261662 0.1265992 0.1269723 0.1272724 0.1275078 0.127708
 0.1279006 0.1280704 0.1281658 0.1281616 0.128093 0.1280083 0.1279083 0.1277476 0.1274767 0.1270807
 0.1266093 0.1261986 0.126048 0.1263382 0.1271331 0.1283435 0.1297856 0.1312837 0.1327213 0.1340113
 0.1350685 0.1358474 0.1363877 0.1367881 0.1371368 0.1374784 0.1378272 0.138183 0.1385354 0.1388715
 0.1391886 0.1395004 0.1398316 0.1401967 0.1405756 0.1409218 0.1412089 0.1414675 0.1417634 0.1421367
 0.1425607 0.142968 0.1433221 0.1436512 0.143995 0.1443346 0.1446141 0.1448219 0.1450126 0.1452498
 0.1455593 0.145932 0.1463309 0.1466948 0.1469767 0.1471871 0.1473817 0.1476036 0.1478545 0.1481161
 0.1483793 0.1486456 0.148918 0.1492015 0.149507 0.1498356 0.1501569 0.1504198 0.1506024 0.1507423
 0.150905 0.1511234 0.1513762 0.1516193 0.1518343 0.1520496 0.1523123 0.1526349 0.1529715 0.1532541
 0.1534532 0.153597 0.1537373 0.1539079 0.1541135 0.1543433 0.1545834 0.1548202 0.1550457 0.1552641
 0.1554879 0.1557256 0.155973 0.1562179 0.1564495 0.1566654 0.1568728 0.1570833 0.1573091 0.1575632
 0.157856 0.1581784 0.1584918 0.1587509 0.1589399 0.159083 0.159218 0.1593689 0.1595425 0.1597384
 0.1599526 0.1601759 0.1603983 0.1606147 0.1608266 0.1610383 0.1612532 0.1614721 0.1616945 0.16192
 0.1621507 0.1623892 0.162632 0.1628678 0.163087 0.1632912 0.1634898 0.1636934 0.1639084 0.1641338
 0.1643579 0.1645675 0.1647624 0.1649552 0.1651563 0.1653647 0.1655745 0.165782 0.1659845 0.1661808
 0.1663741 0.1665713 0.1667753 0.1669829 0.1671893 0.167393 0.1675965 0.1678035 0.1680157 0.1682332
 0.1684525 0.168667 0.168872 0.1690719 0.1692768 0.1694928 0.169716 0.1699363 0.1701464 0.170348
 0.1705474 0.1707458 0.1709389 0.1711282 0.1713239 0.1715346 0.171759 0.1719884 0.1722123 0.1724249
 0.1726322 0.1728456 0.1730661 0.1732832 0.1734929 0.1737035 0.1739211 0.1741429 0.1743646 0.1745857
 0.1748072 0.1750297 0.1752524 0.1754711 0.1756798 0.1758752 0.1760591 0.1762381 0.1764202 0.1766077
 0.1767966 0.1769851 0.1771772 0.1773755 0.1775783 0.1777803 0.1779752 0.1781608 0.1783471 0.1785482
 0.1787636 0.1789794 0.1791875 0.1793912 0.1795965 0.1798082 0.1800281 0.1802506 0.1804678 0.1806791
 0.1808875 0.1810918 0.1812935 0.181498 0.1817071 0.1819198 0.1821387 0.1823638 0.1825868 0.1828025
 0.1830144 0.1832261 0.1834378 0.1836519 0.1838676 0.1840761 0.1842735 0.1844658 0.1846586 0.1848564
 0.1850682 0.1852974 0.1855348 0.1857694 0.1859948 0.186205 0.1864026 0.1866048 0.1868218 0.1870449
 0.1872666 0.1874905 0.1877145 0.1879313 0.1881415 0.1883506 0.1885601 0.1887724 0.1889853 0.1891766
 0.1892949 0.1892239 0.188683 0.187121 0.1836959 0.1774261 0.1675649 0.1540653 0.1377687 0.1201129
 0.1025926 0.08635844 0.07209617 0.060117 0.05050931 0.04323048 0.03815489 0.03516736 0.03427323 0.03571171
 0.04006997 0.04793067 0.05856648 0.0687898 0.07419226 0.07261893 0.06622652 0.05951748 0.05560168 0.05470092
 0.05549332 0.05684946 0.05840729 0.06036705 0.06307961 0.06664227 0.0708771 0.07576627 0.08166814 0.08885413
 0.09695123 0.1050989 0.1126907 0.1198437 0.1271053 0.134787 0.1426379 0.1500945 0.1567278 0.1624541
 0.1674493 0.1719563 0.1761503 0.1801142 0.1838848 0.1874591 0.1907212 0.1934024 0.1952024 0.1960161
 0.1960592 0.1957533 0.1954703 0.1953773 0.1954813 0.1957513 0.1961702 0.1967255 0.1973987 0.1981624
 0.1989799 0.1998155 0.2006457 0.2014534 0.2022228 0.2029446 0.2036158 0.2042321 0.2047922 0.2053055
 0.2057835 0.2062283 0.2066384 0.2070186 0.2073769 0.2077202 0.2080532 0.2083747 0.2086762 0.2089482
 0.2091887 0.2094055 0.2096134 0.2098272 0.2100515 0.2102789 0.2105007 0.2107129 0.2109144 0.2111077
 0.2113016 0.2115041 0.211713 0.2119206 0.2121239 0.2123266 0.2125325 0.2127412 0.2129458 0.2131376
 0.2133172 0.2134978 0.2136903 0.2138904 0.2140856 0.2142715 0.2144539 0.2146401 0.2148288 0.215012
 0.2151909 0.2153846 0.2156101 0.2158574 0.2160997 0.2163232 0.2165322 0.2167326 0.2169281 0.2171252
 0.2173239 0.2175097 0.2176715 0.217822 0.2179919 0.2182013 0.2184388 0.2186719 0.2188797 0.2190704
 0.2192638 0.2194657 0.2196649 0.219847 0.2200119 0.2201843 0.2203945 0.2206405 0.2208888 0.2211209
 0.2213526 0.2215995 0.2218565 0.2221134 0.2223562 0.222553 0.2226798 0.222769 0.2229058 0.2231627
 0.2235323 0.2239268 0.2242531 0.2244907 0.2246856 0.2248919 0.2251376 0.2254049 0.2256047 0.2256385
 0.2255505 0.2255543 0.2258352 0.2263619 0.2269445 0.2274303 0.2277953 0.2280895 0.2283532 0.2285786
 0.2287201 0.2287438 0.2286975 0.2287323 0.229 0.2294942 0.2300389 0.230471 0.2307714 0.2309981
 0.2311892 0.2313608 0.2314753 0.2313887 0.2310008 0.2305228 0.2304201 0.2309595 0.2319064 0.2327767
 0.2333187 0.2336382 0.2339144 0.2341774 0.2343769 0.2344339 0.2341214 0.2331856 0.2318454 0.2309431
 0.2312461 0.2326666 0.234403 0.2357433 0.2365181 0.2369162 0.2371653 0.2373792 0.2374759 0.2371904
 0.2363665 0.2353453 0.2348831 0.2354553 0.2367209 0.2378884 0.2385253 0.2387846 0.2389779 0.2392251
 0.2393788 0.2389835 0.237531 0.2352173 0.2333243 0.2333184 0.2354149 0.2383159 0.2404959 0.2415142
 0.2418891 0.2419696 0.2414234 0.2398365 0.2373316 0.234506 0.2322581 0.2316823 0.2333405 0.236341
 0.2388435 0.2398786 0.240166 0.2409132 0.2423701 0.243827 0.2445418 0.2443199 0.2433883 0.241985
 0.2402452 0.2385842 0.2379229 0.2390356 0.2416119 0.2443647 0.246217 0.2471223 0.2475131 0.2470394
 0.2443021 0.2385347 0.2317224 0.228061 0.2302508 0.2366707 0.2431194 0.2469502 0.2485269 0.2492533
 0.2496922 0.2494071 0.2472123 0.2418149 0.2338418 0.2271253 0.2261093 0.2314476 0.239267 0.244792
 0.2456029 0.2418855 0.2355693 0.2297516 0.2274342 0.2297051 0.2352659 0.2417162 0.2469928 0.2499331
 0.2502654 0.248501 0.2458963 0.2441421 0.2441403 0.2446713 0.2433224 0.2395365 0.2355443 0.23309
 0.2307265 0.2264865 0.2222072 0.2223175 0.2280841 0.2354942 0.2397673 0.2401988 0.2392854 0.2381656
 0.2346587 0.2263998 0.2153257 0.2077498 0.2088448 0.217277 0.226402 0.2307717 0.2304545 0.2290758
 0.2289754 0.2288278 0.22552 0.2182289 0.2104827 0.2072021 0.2094652 0.2135404 0.2152913 0.2134649
 0.2082418 0.1999237 0.1913125 0.1885426 0.1958981 0.2105646 0.2248428 0.2324835 0.2309531 0.2200419
 0.2027631 0.1872007 0.1825692 0.1909512 0.204767 0.2137564 0.2131159 0.2043227 0.1907497 0.1753842
 0.1622402 0.1567519 0.1625071 0.1776265 0.1948195 0.2049866 0.2022302 0.188458 0.1738338 0.1694589
 0.177247 0.1885906 0.194007 0.1917461 0.1864362 0.1831228 0.1843597 0.1897719 0.1964564 0.201705
 0.2051669 0.2057862 0.198879 0.1817654 0.1612601 0.1491963 0.1501283 0.1589718 0.1704782 0.1839491
 0.1970996 0.2028176 0.1971842 0.1869155 0.1836666 0.1916645 0.2040899 0.2114337 0.2109161 0.2069964
 0.2044594 0.2033052 0.2011513 0.1987726 0.200294 0.2075099 0.2167666 0.2230477 0.2251995 0.2254834
 0.2257384 0.2259835 0.2257172 0.2247624 0.2231874 0.2214221 0.2201247 0.2194415 0.2188798 0.2180678
 0.2167149 0.2134533 0.206146 0.194894 0.1839408 0.1783186 0.1785245 0.180847 0.1828897 0.1849755
 0.1849877 0.1769183 0.1588108 0.1392777 0.1312375 0.1394338 0.1569008 0.1728846 0.1810569 0.180043
 0.1702208 0.1539843 0.1384083 0.1330388 0.1420868 0.1603725 0.1788732 0.192517 0.2007544 0.2032276
 0.1988334 0.1888414 0.1781519 0.1724979 0.1749455 0.1845303 0.1965818 0.2039336 0.2004146 0.1869764
 0.1744485 0.175575 0.1916369 0.2103219 0.2195673 0.2197898 0.2190221 0.2204239 0.2206988 0.2188421
 0.2196681 0.2271879 0.2386974 0.2474426 0.2485559 0.2409739 0.2268023 0.2118155 0.2039705 0.2070009
 0.2161192 0.2231864 0.2245808 0.220728 0.2112897 0.1971629 0.1855717 0.1857301 0.1981702 0.213519
 0.2231459 0.2270187 0.2298217 0.232885 0.2325795 0.2258403 0.2153053 0.2076978 0.2071704 0.2116624
 0.2163769 0.2188435 0.218941 0.2160121 0.2092703 0.2010515 0.1968539 0.2005498 0.2103645 0.2205395
 0.2264927 0.2276887 0.2262592 0.2242618 0.2223029 0.2197289 0.2160214 0.2125721 0.2123888 0.2168594
 0.2235014 0.2284932 0.2310334 0.233599 0.238059 0.2430991 0.2458189 0.2448953 0.2418396 0.2396818
 0.2405465 0.2439663 0.2472221 0.2476608 0.2452242 0.2427399 0.2433126 0.2473615 0.2525662 0.2565114
 0.2586575 0.2598378 0.2608407 0.2617275 0.2617888 0.2600772 0.2567471 0.2538548 0.2539081 0.2573738
 0.2622251 0.2660332 0.2679319 0.2684928 0.2683954 0.2677164 0.2663166 0.264478 0.2629198 0.2622326
 0.2624574 0.2632325 0.2641755 0.2650521 0.2657525 0.2662647 0.2666341 0.2668886 0.2670343 0.2671165
 0.2671978 0.2672613 0.267236 0.2671525 0.267178 0.2674271 0.2678035 0.2680948 0.2681613 0.2679486
 0.2673846 0.2664041 0.2650737 0.2635673 0.2619762 0.2602565 0.2584653 0.2570092 0.2565196 0.2573801
 0.2593724 0.2618116 0.2640117 0.2656206 0.2666149 0.2671283 0.2673314 0.2673827 0.2673851 0.2673578
 0.2672641 0.267074 0.2667956 0.2664547 0.2660731 0.265681 0.2653286 0.2650549 0.2648441 0.2646292
 0.2643413 0.2639533 0.2634854 0.2629774 0.2624523 0.2618928 0.2612475 0.2604675 0.2595488 0.2585475
 0.2575506 0.2566251 0.2557836 0.2549846 0.2541671 0.2532864 0.2523143 0.251219 0.2499903 0.2487028
 0.2475045 0.246499 0.2456593 0.2448756 0.2440522 0.2431403 0.2421209 0.2409983 0.2397985 0.2385544
 0.2372903 0.2360114 0.2346974 0.2333111 0.231824 0.2302342 0.2285625 0.2268382 0.2250882 0.223324
 0.2215233 0.2196156 0.2174894 0.2150186 0.2120867 0.2086033 0.2045366 0.1999577 0.1950442 0.1900201
 0.1850871 0.1803938 0.1760434 0.1721171 0.1686993 0.165879 0.163726 0.162275 0.1615324 0.1614901
 0.1621288 0.1634139 0.1652812 0.1676286 0.1703195 0.1731913 0.176062 0.178766 0.1812176 0.1834386
 0.1855095 0.1874879 0.1893656 0.1910921 0.192629 0.1939767 0.1951464 0.1961299 0.1969189 0.1975399
 0.1980454 0.198478 0.1988554 0.1991777 0.1994385 0.1996365 0.1997848 0.1999047 0.2000187 0.2001478
 0.2003049 0.2004938 0.2007248 0.201022 0.2014009 0.2018482 0.2023364 0.2028498 0.2033916 0.203974
 0.2046055 0.2052869 0.2060268 0.206855 0.2078096 0.2089099 0.2101493 0.2114989 0.2129053 0.2142928
 0.2155782 0.2166848 0.2175614 0.2182013 0.2186345 0.2188914 0.2189883 0.2189488 0.2188155 0.2186265
 0.218395 0.218115 0.2177797 0.2173917 0.216957 0.2164788 0.2159678 0.2154505 0.2149469 0.2144482
 0.2139404 0.2134355 0.212954 0.2124895 0.2120212 0.211545 0.2110703 0.2105999 0.2101322 0.2096701
 0.2092111 0.2087281 0.2081707 0.2074944 0.2066891 0.2057697 0.2047414 0.2036 0.2023625 0.2010615
 0.1997012 0.1982541 0.1967073 0.1950836 0.1934129 0.1917005 0.189919 0.188027 0.1860148 0.1839439
 0.1819226 0.1800343 0.1782944 0.1766673 0.175114 0.1736263 0.172221 0.1709033 0.1696502 0.1684417
 0.1672843 0.1661906 0.1651538 0.1641609 0.1632184 0.162355 0.1616011 0.1609653 0.1604266 0.159954
 0.1595332 0.1591703 0.158881 0.1586853 0.1585943 0.1585888 0.1586174 0.1586237 0.1585708 0.1584536
 0.1583002 0.1581504 0.1580235 0.1579168 0.1578246 0.1577276 0.1575632 0.1572361 0.1566621 0.1557894
 0.1545957 0.1530913 0.1513346 0.1494414 0.1475691 0.1458646 0.1444105 0.1432265 0.1423044 0.1416152
 0.1410996 0.1406965 0.1403877 0.1402033 0.140188 0.1403412 0.1405653 0.1407036 0.1406834 0.1406088
 0.1406781 0.1410217 0.1416275 0.1423759 0.1431215 0.1437652 0.1442684 0.1446169 0.144809 0.1448745
 0.144856 0.1447683 0.1446106 0.144399 0.1441509 0.1438596 0.1435095 0.14309 0.1425902 0.1420065
 0.1413456 0.1406066 0.1397832 0.138876 0.1378682 0.1367292 0.1355114 0.1344135 0.1336921 0.1335163
 0.1338926 0.1346678 0.1356246 0.1366282 0.1376206 0.1384451 0.1388668 0.1389317 0.1391719 0.1402189
 0.1421831 0.1445283 0.1465602 0.1479247 0.1486205 0.1487279 0.1482984 0.1473949 0.1460419 0.1441837
 0.1418187 0.1390917 0.1361772 0.1332058 0.1303375 0.1277499 0.1255417 0.1237392 0.1223404 0.121384
 0.1209994 0.120819 0.1189865 0.1131253 0.103986 0.09709368 0.09812114 0.1065221 0.1158962 0.1207574
 0.1209155 0.1192585 0.1177997 0.1168565 0.116321 0.1163079 0.1169366 0.1180992 0.1194417 0.1205507
 0.1212278 0.1215036 0.1213587 0.120462 0.1180987 0.1134249 0.1061544 0.0971472 0.08811021 0.08060391
 0.07534966 0.07223845 0.07066066 0.06987333 0.06937264 0.06910685 0.06935652 0.07040322 0.07229516 0.07488586
 0.07799072 0.08137505 0.08464152 0.08736701 0.08942711 0.09102143 0.09233307 0.09331474 0.09382825 0.09383918
 0.09343594 0.09275854 0.091943 0.09107706 0.0901623 0.0891301 0.08796234 0.08682532 0.08599544 0.08559269
 0.08548007 0.08546728 0.08548662 0.08553021 0.08556084 0.08554376 0.08548728 0.08545314 0.08556488 0.08592725
 0.0864847 0.08703808 0.0874289 0.08764775 0.08776932 0.08781102 0.08763978 0.0870899 0.08625673 0.08551253
 0.08503949 0.0845216 0.08356897 0.08231959 0.08134703 0.0810386 0.08127224 0.08164318 0.08181602 0.08168429
 0.08138615 0.08124003 0.08152197 0.08215487</values></Ydata></ScSm><ScRf><Ydata ylabel="Single channel"><values byteorder="INTEL" format="FLOAT32" numvalues="1820"> 0.06044284 0.06059968 0.06068815 0.0607115 0.06070086 0.06070723 0.06077841 0.06092838 0.06112527 0.06130965
 0.06143395 0.06149286 0.06150854 0.06149031 0.06143784 0.06138806 0.06141694 0.06156616 0.06178458 0.06195943
 0.06200797 0.06195123 0.06190285 0.06195682 0.06206519 0.06205031 0.06177415 0.06129616 0.06083424 0.06056198
 0.06050086 0.06064928 0.06108791 0.06176753 0.06227472 0.06212711 0.06137558 0.06063487 0.06040115 0.06057556
 0.06074745 0.0606719 0.06035028 0.05993607 0.05976961 0.06028462 0.06158216 0.06307977 0.06371908 0.06263159
 0.05976058 0.05605977 0.05314022 0.05240428 0.05405765 0.05683028 0.05892965 0.0594713 0.05890328 0.05809563
 0.05740324 0.0567762 0.05636952 0.05658609 0.05751867 0.05856315 0.05872698 0.05748206 0.05539661 0.05373207
 0.05328884 0.05390462 0.05513494 0.05673958 0.05798365 0.05724243 0.05359992 0.0488726 0.04679935 0.04948407
 0.05515068 0.05988432 0.06111727 0.0590663 0.0555924 0.05265824 0.05158636 0.05270059 0.05527353 0.05813319
 0.06037466 0.06139221 0.06071299 0.05841225 0.05552504 0.05354577 0.05350992 0.05558773 0.0590465 0.06231621
 0.06370396 0.06264395 0.06007244 0.05743866 0.05575294 0.05558875 0.05721959 0.06033268 0.06401472 0.06728432
 0.06949258 0.07038347 0.0701454 0.0692949 0.0682848 0.06742585 0.06715981 0.06778824 0.06875151 0.06884061
 0.06751411 0.06562477 0.0645442 0.06474619 0.06542909 0.06549045 0.06464243 0.06323233 0.06115144 0.05781679
 0.05350476 0.04970505 0.0476319 0.04730301 0.04842894 0.05088077 0.05363464 0.05470744 0.05332199 0.05129485
 0.05122904 0.05373725 0.05712343 0.05946019 0.06037443 0.06092054 0.06221488 0.06429164 0.06595927 0.06570269
 0.06319079 0.06012536 0.05904127 0.06081581 0.06381957 0.06591481 0.0667078 0.06731121 0.06840256 0.06917758
 0.06819092 0.06507602 0.06146824 0.05999051 0.06196461 0.06608883 0.06938638 0.06940342 0.06585484 0.06069418
 0.05659792 0.05511312 0.05623651 0.05943125 0.06422296 0.06966521 0.07409368 0.07605176 0.07534337 0.07296408
 0.0699631 0.06646851 0.06221941 0.05817892 0.05674631 0.05949593 0.06516245 0.07069029 0.07396127 0.07485747
 0.07407326 0.07180165 0.06793175 0.0633308 0.0602724 0.06066929 0.06377006 0.06658226 0.06700866 0.06576154
 0.06482577 0.06498121 0.06551175 0.06573299 0.06597877 0.06703992 0.0690322 0.07110354 0.07225507 0.07224544
 0.07163206 0.07112495 0.07093912 0.07063541 0.06973926 0.0686904 0.068782 0.07074028 0.07372183 0.07618108
 0.07742146 0.07784423 0.0779048 0.07731792 0.07547103 0.07257156 0.07011129 0.06975532 0.07173008 0.07468294
 0.07708887 0.07834715 0.07863526 0.07835302 0.07785185 0.07732646 0.07687461 0.07673683 0.07723203 0.07829849
 0.07939579 0.08004402 0.08021471 0.08008505 0.07969403 0.07901771 0.07822056 0.07765725 0.07761663 0.07810533
 0.07889317 0.07971889 0.08038041 0.08069561 0.08056806 0.08012834 0.07965854 0.0793369 0.07917331 0.0791806
 0.07943422 0.07991882 0.08045337 0.08084026 0.08102117 0.08105255 0.08099294 0.08085941 0.08066685 0.08047953
 0.08041151 0.08054307 0.08082132 0.08109757 0.08130063 0.08150545 0.08177195 0.08199589 0.08201879 0.08184155
 0.08163394 0.08154964 0.08160327 0.08171707 0.08180973 0.08180904 0.08163939 0.08128914 0.08090353 0.08072934
 0.08091572 0.08140867 0.08204482 0.08266699 0.08314356 0.08339512 0.08345702 0.08344211 0.08340836 0.08331738
 0.08313558 0.08292988 0.08284858 0.08301125 0.08340193 0.08387202 0.08426039 0.084496 0.08459645 0.08463512
 0.0847158 0.08489193 0.08508466 0.08515674 0.08508958 0.08501838 0.0850682 0.08520903 0.0853015 0.08526145
 0.08515663 0.08513582 0.08527185 0.08549753 0.08569893 0.08584133 0.08598383 0.08618275 0.08639568 0.08649714
 0.08641062 0.08620974 0.08604445 0.08598059 0.08597587 0.08600545 0.08611964 0.08634262 0.08658552 0.08672245
 0.08673041 0.08670668 0.08674526 0.086828 0.08685348 0.0867544 0.08656506 0.08638414 0.08629496 0.08631732
 0.08640704 0.08648945 0.0865069 0.08645125 0.0863556 0.0862557 0.08616497 0.08609563 0.08609528 0.08622669
 0.0864815 0.08672917 0.08679758 0.08662824 0.08633935 0.0861187 0.08605407 0.0860718 0.08603176 0.08586396
 0.08561128 0.08536377 0.0851773 0.08505104 0.08495533 0.08486959 0.08480877 0.08482106 0.08493768 0.08510511
 0.08519103 0.08509505 0.08484909 0.08458306 0.08440303 0.08432706 0.08431424 0.08431523 0.08430898 0.08432123
 0.08438744 0.08448 0.08451171 0.08443772 0.08431608 0.08424796 0.08429579 0.08446218 0.08468869 0.08486249
 0.08488853 0.08478573 0.08467421 0.08465171 0.0847148 0.08480489 0.08488715 0.08496332 0.08504117 0.08512536
 0.08523317 0.08539293 0.08561754 0.08588377 0.08613939 0.08633354 0.08645411 0.08654721 0.08669114 0.08693385
 0.08725055 0.08756597 0.08781902 0.08800875 0.08818099 0.08837271 0.08857879 0.08878318 0.08900447 0.0892791
 0.08960393 0.08993106 0.09022434 0.09049314 0.09076537 0.09105194 0.09134845 0.09166081 0.09201743 0.09244195
 0.09290221 0.09330305 0.09356038 0.0936854 0.09378119 0.09396213 0.09427661 0.09467392 0.09502801 0.09523296
 0.09531057 0.09539682 0.09559324 0.09586315 0.09611074 0.09632909 0.09661164 0.09701963 0.09748711 0.09787884
 0.09812204 0.09826489 0.09841069 0.09860704 0.09880816 0.09894668 0.09902354 0.09910256 0.09922719 0.09938905
 0.09958793 0.09986874 0.100258 0.1006976 0.1010865 0.1013726 0.1015718 0.1017182 0.1018284 0.1019023
 0.1019335 0.1019314 0.1019403 0.1020093 0.1021283 0.1022305 0.1022752 0.1023001 0.102372 0.1025179
 0.1027292 0.1029977 0.1033079 0.103616 0.1038867 0.1041515 0.1044784 0.1048625 0.1051934 0.1053704
 0.1054157 0.1054283 0.1054582 0.1054913 0.1055385 0.1056625 0.1059013 0.1062209 0.1065644 0.1069106
 0.1072664 0.1076251 0.1079508 0.108191 0.1083069 0.108306 0.1082531 0.1082418 0.1083464 0.1085843
 0.1089107 0.1092492 0.1095363 0.1097381 0.1098339 0.1098196 0.1097459 0.1097226 0.1098332 0.1100413
 0.1102082 0.1102081 0.1100059 0.1096309 0.1091153 0.1084852 0.1077928 0.1071248 0.1065661 0.1061616
 0.1059255 0.1058827 0.1060816 0.1065423 0.1071979 0.1079135 0.1085663 0.1090822 0.1093932 0.1094141
 0.1091014 0.1085149 0.1077885 0.1070495 0.1063726 0.1057725 0.1052106 0.1046457 0.1041203 0.1037918
 0.1038497 0.104403 0.1054332 0.1068107 0.1083303 0.1097717 0.1109875 0.1119588 0.1127634 0.113487
 0.1141697 0.1148264 0.1154811 0.1161471 0.1167898 0.1173516 0.1178191 0.1182332 0.1186328 0.1190166
 0.1193604 0.1196468 0.11988 0.1200896 0.1203018 0.1204924 0.1205947 0.120575 0.120475 0.120359
 0.1202418 0.1200823 0.1198288 0.1194602 0.1190172 0.1186198 0.1184478 0.1186673 0.1193381 0.1203758
 0.1216143 0.1229111 0.1241828 0.125351 0.1263136 0.1270033 0.1274493 0.1277501 0.1280008 0.1282578
 0.1285432 0.1288521 0.1291624 0.1294557 0.1297336 0.1300153 0.130324 0.1306653 0.1310104 0.1313128
 0.1315547 0.1317754 0.132043 0.1323909 0.1327839 0.1331538 0.1334712 0.1337707 0.1340915 0.1344121
 0.1346743 0.1348621 0.1350251 0.1352286 0.1355074 0.1358593 0.1362442 0.1365916 0.1368468 0.1370216
 0.1371793 0.1373695 0.1375953 0.1378379 0.1380862 0.138335 0.1385779 0.1388203 0.1390867 0.1393931
 0.1397109 0.1399786 0.1401622 0.1402936 0.140437 0.1406263 0.1408438 0.1410535 0.1412465 0.1414529
 0.1417116 0.1420243 0.1423413 0.1425993 0.1427749 0.1428973 0.1430169 0.1431682 0.1433589 0.1435776
 0.143806 0.1440272 0.1442326 0.1444272 0.1446261 0.1448407 0.1450666 0.1452871 0.1454893 0.145677
 0.1458646 0.1460633 0.1462783 0.146518 0.1467932 0.1470971 0.1473937 0.1476414 0.1478283 0.1479743
 0.1481037 0.1482305 0.1483664 0.1485259 0.1487159 0.1489283 0.1491469 0.1493602 0.1495661 0.1497673
 0.1499671 0.1501681 0.1503732 0.1505834 0.1507978 0.151016 0.1512389 0.1514633 0.1516812 0.1518861
 0.1520781 0.152265 0.1524575 0.15266 0.1528644 0.1530584 0.1532415 0.1534252 0.1536184 0.1538188
 0.1540183 0.154209 0.1543874 0.1545585 0.1547353 0.1549282 0.1551363 0.1553512 0.1555651 0.1557752
 0.1559807 0.1561794 0.1563681 0.1565484 0.1567297 0.1569239 0.1571363 0.1573606 0.157582 0.1577867
 0.1579736 0.1581548 0.1583431 0.1585422 0.158747 0.1589502 0.1591478 0.1593409 0.1595327 0.1597241
 0.1599154 0.1601097 0.160309 0.1605112 0.1607158 0.1609268 0.1611459 0.1613668 0.1615824 0.1617916
 0.161999 0.1622105 0.1624294 0.1626526 0.162873 0.163089 0.1633049 0.1635218 0.1637319 0.1639245
 0.1640961 0.1642566 0.1644214 0.1645961 0.1647726 0.1649442 0.1651162 0.1652984 0.1654931 0.1656952
 0.1658984 0.1660995 0.1663 0.1665017 0.1667039 0.1669069 0.1671137 0.1673232 0.1675294 0.1677303
 0.1679281 0.1681216 0.1683093 0.1684989 0.168702 0.1689212 0.1691499 0.1693777 0.1695956 0.1698032
 0.1700108 0.1702253 0.1704416 0.1706519 0.1708556 0.1710562 0.1712582 0.1714654 0.1716746 0.1718787
 0.1720786 0.1722833 0.1724959 0.1727137 0.1729355 0.1731578 0.1733747 0.1735877 0.1738036 0.1740189
 0.1742262 0.1744291 0.1746369 0.1748518 0.175072 0.1752935 0.1755084 0.1757131 0.1759149 0.1761207
 0.176331 0.1765479 0.1767695 0.176974 0.1771142 0.1770829 0.1766146 0.1751829 0.1719862 0.1660994
 0.1568349 0.1441698 0.1289051 0.1123814 0.0959817 0.08077181 0.06739949 0.05617129 0.04717631 0.04036553
 0.03561228 0.03281276 0.03198157 0.03334469 0.03744666 0.04482582 0.05479244 0.06435707 0.06940034 0.06792095
 0.06194443 0.05567688 0.05202035 0.05118439 0.05193714 0.05321975 0.0546886 0.05653293 0.05908632 0.06243807
 0.06641605 0.07100655 0.07655567 0.08332042 0.09094118 0.09860105 0.1057335 0.1124587 0.1192965 0.1265328
 0.13392 0.1409239 0.1471504 0.1525365 0.1572567 0.1615341 0.165518 0.1692756 0.1728438 0.1762225
 0.1792946 0.1817995 0.1834669 0.1842204 0.1842678 0.1839911 0.1837311 0.1836537 0.1837763 0.1840643
 0.1844839 0.1850103 0.1856304 0.1863357 0.1871035 0.1878997 0.1886975 0.1894784 0.1902228 0.190915
 0.191552 0.1921363 0.1926717 0.1931646 0.1936226 0.194051 0.1944562 0.1948452 0.1952178 0.195568
 0.1958929 0.1961941 0.1964724 0.1967288 0.1969685 0.1971967 0.1974162 0.1976292 0.1978391 0.1980493
 0.1982616 0.1984733 0.1986793 0.1988809 0.1990871 0.1993002 0.1995083 0.1996989 0.1998752 0.2000518
 0.2002423 0.2004506 0.2006713 0.2008955 0.2011161 0.2013277 0.2015237 0.2017019 0.2018704 0.2020426
 0.2022262 0.2024212 0.2026225 0.2028213 0.2030146 0.2032122 0.2034259 0.2036525 0.2038792 0.2041003
 0.2043187 0.2045356 0.2047513 0.2049654 0.2051688 0.2053434 0.2054824 0.2056082 0.2057613 0.2059664
 0.2062086 0.2064475 0.2066581 0.2068507 0.2070485 0.2072583 0.2074658 0.2076519 0.2078138 0.2079786
 0.2081836 0.2084351 0.2087018 0.2089578 0.2092046 0.2094471 0.2096823 0.2099133 0.2101409 0.2103403
 0.2104843 0.2105956 0.2107507 0.2110162 0.2113827 0.2117674 0.2120904 0.2123399 0.2125575 0.2127834
 0.213038 0.2133079 0.2135156 0.2135694 0.2135068 0.2135276 0.2138081 0.2143213 0.214889 0.2153662
 0.2157272 0.2160159 0.2162698 0.2164844 0.2166223 0.2166575 0.2166354 0.2166896 0.2169549 0.217429
 0.217958 0.2183915 0.2187026 0.2189366 0.2191271 0.2192912 0.219397 0.2193117 0.2189415 0.2184863
 0.2183928 0.2189247 0.2198642 0.220742 0.2212984 0.22162 0.2218845 0.2221432 0.2223601 0.2224461
 0.2221624 0.2212612 0.2199683 0.2191094 0.2194256 0.2208231 0.2225198 0.2238275 0.2245836 0.2249703
 0.2252091 0.2254183 0.2255269 0.2252816 0.2245283 0.2235861 0.2231701 0.223732 0.2249536 0.2260864
 0.226717 0.2269886 0.2272007 0.227469 0.2276472 0.2272918 0.225915 0.2237094 0.2219093 0.2219232
 0.2239578 0.2267689 0.2288929 0.229903 0.2302952 0.2304091 0.2299243 0.2284318 0.2260449 0.2233522
 0.2212302 0.2207197 0.2223391 0.2252263 0.2276278 0.2286279 0.2289192 0.2296525 0.2310616 0.2324699
 0.2331725 0.2329821 0.2321117 0.230791 0.2291554 0.2276042 0.2270157 0.228125 0.2306294 0.2332968
 0.2351034 0.2360118 0.236433 0.2360204 0.2334282 0.2279301 0.2214381 0.2179679 0.2200917 0.2262532
 0.2324448 0.2361486 0.2377108 0.23846 0.2389235 0.2386834 0.2366109 0.2314735 0.2238703 0.2174655
 0.2165146 0.2216524 0.2291792 0.2345229 0.2353598 0.2318597 0.2258647 0.2203388 0.2181579 0.2203703
 0.22574 0.2319655 0.2370573 0.2398941 0.2402247 0.2385545 0.2360943 0.2344661 0.2345304 0.2351059
 0.2338658 0.2302759 0.226487 0.2241771 0.2219519 0.21792 0.2138538 0.2140202 0.2196385 0.2268353
 0.2309921 0.2314278 0.2305687 0.2295389 0.2262403 0.2183679 0.2077622 0.2005102 0.2016203 0.209817
 0.2186838 0.2229596 0.2227225 0.2214894 0.2215226 0.2215255 0.2184651 0.2115297 0.2041378 0.2010674
 0.2033661 0.20741 0.2091869 0.20749 0.2024991 0.1945017 0.1862182 0.1836222 0.190894 0.2053005
 0.2193439 0.2269324 0.2255846 0.2150767 0.1983413 0.1832922 0.1789623 0.1873976 0.2011697 0.2102162
 0.2098129 0.2013892 0.1882457 0.1733329 0.160634 0.1555351 0.1615889 0.1769287 0.1943158 0.204701
 0.2022021 0.1887142 0.1743952 0.1703567 0.1785024 0.1901806 0.1958723 0.1938354 0.1887324 0.1856451
 0.1871563 0.1928904 0.1999094 0.2054808 0.2092524 0.210106 0.2032053 0.1857983 0.1648761 0.1525661
 0.1535403 0.1626003 0.1743742 0.1881511 0.2016053 0.2074693 0.2017315 0.1912561 0.1879591 0.196157
 0.2088647 0.2163475 0.2157623 0.2116854 0.2090374 0.2078387 0.2056585 0.2032889 0.2049494 0.2124721
 0.2221115 0.2287267 0.2311266 0.2316193 0.2320919 0.2325734 0.2325516 0.2318388 0.230498 0.228966
 0.2279203 0.2275173 0.2272484 0.226718 0.2256109 0.2224949 0.2151334 0.2036278 0.192419 0.1867714
 0.1871892 0.189775 0.1920222 0.1942676 0.1942762 0.1857387 0.1666039 0.1458965 0.1371489 0.1453292
 0.1631461 0.1793621 0.1874023 0.1858995 0.1753218 0.1581822 0.1417406 0.1357385 0.1444557 0.1626066
 0.180991 0.1944272 0.2023671 0.2045066 0.199779 0.1894628 0.1784619 0.1725137 0.1746843 0.1840084
 0.195819 0.2029607 0.1992833 0.1857426 0.1731111 0.1740422 0.1897989 0.2081676 0.2171901 0.2172782
 0.2163891 0.217655 0.2178167 0.2158892 0.2166507 0.2240803 0.2355016 0.2442234 0.2454173 0.2380224
 0.2241276 0.2094631 0.2019126 0.2051582 0.2144295 0.2216408 0.2231902 0.2194847 0.2101765 0.1961814
 0.1847423 0.1850654 0.1976545 0.21312 0.2228508 0.226853 0.2298245 0.2330671 0.2329157 0.2262999
 0.2158839 0.2084256 0.2080981 0.2128412 0.2178434 0.2206148 0.2210117 0.2183584 0.2118718 0.2039328
 0.2001113 0.2043171 0.2147232 0.2254439 0.2317755 0.2331282 0.2316431 0.2294194 0.2271129 0.2241034
 0.2198769 0.2158312 0.2150193 0.2188907 0.2249897 0.2294797 0.2315418 0.2336557 0.2377015 0.2423729
 0.2447714 0.2435712 0.2402773 0.2379047 0.2385522 0.2417385 0.2447678 0.2450327 0.2424915 0.2399394
 0.2404364 0.2443918 0.2495092 0.2533979 0.2555225 0.2567074 0.2577303 0.2586403 0.2587208 0.2570315
 0.2537309 0.2508458 0.2508332 0.2541453 0.2588024 0.2624414 0.2642256 0.2647179 0.2645871 0.2639133
 0.2625602 0.2607952 0.2593108 0.2586777 0.2589331 0.2597202 0.2606593 0.2615123 0.2621622 0.2625981
 0.2628837 0.2630729 0.2631843 0.2632533 0.2633196 0.2633498 0.2632731 0.2631332 0.26311 0.2633194
 0.263658 0.2639098 0.2639441 0.2637235 0.2631848 0.2622521 0.2609707 0.2595026 0.2579434 0.2562582
 0.2545123 0.2531165 0.2526957 0.2536152 0.2556391 0.2580793 0.2602621 0.2618551 0.2628493 0.2633766
 0.2635928 0.2636427 0.2636284 0.2635786 0.2634664 0.263262 0.2629671 0.2626046 0.2621998 0.2617826
 0.2613961 0.2610777 0.2608225 0.2605754 0.2602674 0.2598614 0.2593698 0.2588401 0.2583127 0.2577753
 0.2571613 0.2564065 0.2555101 0.2545388 0.2535838 0.2527113 0.2519304 0.2511919 0.2504287 0.2495994
 0.2486842 0.2476597 0.2465267 0.2453671 0.2443212 0.2434768 0.2427997 0.2421819 0.2415279 0.2407826
 0.2399208 0.238952 0.237917 0.236852 0.2357612 0.234631 0.2334503 0.2322062 0.2308779 0.2294511
 0.2279296 0.2263326 0.2246931 0.2230448 0.221383 0.2196338 0.2176704 0.2153566 0.2125716 0.2092273
 0.2052986 0.2008539 0.1960529 0.1911058 0.1862177 0.181552 0.1772299 0.1733475 0.1699884 0.1672266
 0.1651216 0.163709 0.1629993 0.1629928 0.1636885 0.1650631 0.1670433 0.1695078 0.1723098 0.1752911
 0.178284 0.1811285 0.1837233 0.1860715 0.1882573 0.1903477 0.1923239 0.1941216 0.1957141 0.1971207
 0.1983536 0.1994009 0.2002619 0.2009667 0.2015546 0.20205 0.2024671 0.2028233 0.2031366 0.2034128
 0.2036479 0.203848 0.2040374 0.2042425 0.204474 0.2047272 0.204997 0.2052927 0.2056399 0.2060588
 0.2065378 0.2070452 0.2075696 0.2081319 0.2087544 0.209438 0.2101797 0.2109978 0.2119322 0.2130192
 0.2142631 0.2156247 0.2170326 0.2183978 0.219625 0.220633 0.2213815 0.2218761 0.2221476 0.222232
 0.2221638 0.221971 0.2216753 0.2212969 0.2208519 0.2203442 0.2197719 0.219146 0.2184907 0.2178228
 0.2171405 0.2164392 0.21573 0.2150317 0.2143508 0.2136842 0.21304 0.2124354 0.211868 0.2113072
 0.2107263 0.2101303 0.2095423 0.2089732 0.2084116 0.2078307 0.2071943 0.2064666 0.2056322 0.2047027
 0.2036936 0.2026001 0.2014058 0.2001106 0.1987333 0.1972881 0.1957737 0.1941893 0.1925447 0.1908434
 0.1890628 0.1871706 0.1851704 0.1831268 0.1811382 0.1792806 0.1775737 0.1759904 0.1744923 0.1730642
 0.1717193 0.1704687 0.1692936 0.1681604 0.1670541 0.165983 0.164959 0.1639921 0.163097 0.1622902
 0.1615799 0.1609605 0.1604168 0.1599371 0.1595199 0.1591676 0.1588855 0.1586956 0.1586259 0.1586666
 0.1587537 0.1588122 0.1587999 0.1587127 0.158574 0.1584238 0.1582973 0.1582075 0.1581423 0.158064
 0.1579092 0.1576017 0.1570647 0.156228 0.1550507 0.1535516 0.1518058 0.149925 0.1480529 0.1463438
 0.1449071 0.1437768 0.1429296 0.1423017 0.1418055 0.1413803 0.1410394 0.1408494 0.1408652 0.1410665
 0.141331 0.1415017 0.141528 0.1415253 0.141671 0.1420698 0.1427097 0.1434862 0.1442606 0.1449324
 0.1454623 0.1458337 0.1460465 0.1461433 0.1461785 0.1461611 0.1460726 0.1459137 0.1456957 0.1454222
 0.1450939 0.1446982 0.1442046 0.1436054 0.1429266 0.1421817 0.1413614 0.1404588 0.1394497 0.1382987
 0.1370687 0.1359805 0.1352951 0.1351593 0.1355552 0.1363287 0.1372852 0.1383111 0.1393388 0.1401826
 0.1406019 0.140665 0.1409179 0.1419917 0.1440079 0.1464358 0.148547 0.1499428 0.1506269 0.1507272
 0.1503259 0.1494695 0.1481427 0.1462698 0.1438652 0.1410972 0.1381464 0.1351474 0.1322737 0.1296921
 0.1274653 0.1256134 0.1241695 0.1231932 0.1228049 0.1226291 0.1207895 0.1148643 0.1056031 0.09862493
 0.0997031 0.1082808 0.1178503 0.1228305 0.123014 0.1213312 0.1198401 0.1188748 0.1183352 0.1183474
 0.1190171 0.1201897 0.1214891 0.1225413 0.1231997 0.1235016 0.1233885 0.1224823 0.1200423 0.1152284
 0.1077767 0.09857808 0.08937876 0.08177107 0.07647201 0.07334036 0.07174053 0.07091352 0.07034426 0.06999944
 0.07020947 0.07128728 0.07327157 0.0759952 0.07924952 0.08276197 0.08611706 0.08892426 0.09109911 0.09283201
 0.09425918 0.09529661 0.09580886 0.09580329 0.09541439 0.09479192 0.09404998 0.09325127 0.09236789 0.09130239
 0.09005012 0.08883625 0.08797909 0.08758967 0.0874958 0.08746448 0.08739585 0.08730678 0.08724083 0.08721511
 0.08720532 0.08720128 0.0872829 0.08756167 0.08802433 0.08850781 0.08884992 0.08902352 0.08911529 0.08916637
 0.08903746 0.08853593 0.08773766 0.08700246 0.08650604 0.08593711 0.08490817 0.08355661 0.08247939 0.08210199
 0.0823071 0.08266319 0.08282825 0.08271593 0.08247027 0.0823877 0.08271188 0.0833402 0.08381872 0.0837772
</values></Ydata></ScRf><Data_Parameters_AB><parameter name="DPF">1</parameter><parameter name="NPT">3497</parameter><parameter name="FXV">3996</parameter><parameter name="LXV">500</parameter><parameter name="CSF">1</parameter><parameter name="MXY">0.0212977454066277</parameter><parameter name="MNY">-0.0551843196153641</parameter><parameter name="DAT">30/05/2022</parameter><parameter name="TIM">11:40:04.344 (GMT+2)</parameter><parameter name="DXU">WN</parameter></Data_Parameters_AB><AB__Qtest><MainReport name="Quality Test Report"><Header><Line><Legend>Test result ok/not ok [1/0]: </Legend><Value>0</Value></Line><Line><Legend>Method file: </Legend><Value>C:\Users\Public\Documents\Bruker\OPUS_8.2.28\QT\IRBT_v3_default.QT</Value></Line></Header><Matrix><Line><Legend></Legend><Legend>min</Legend><Legend>max</Legend><Legend>measured</Legend></Line><Line><Value>Absorption (X-Range 1):</Value><Value>0.400000</Value><Value>2.000000</Value><Value>0.037714</Value></Line><Line><Value>Noise (X-Range 4):</Value><Value></Value><Value>0.000300</Value><Value>0.000047</Value></Line><Line><Value>Signal/Noise (X-Range 2):</Value><Value>200.000000</Value><Value></Value><Value>10.958864</Value></Line><Line><Value>Signal/Noise (X-Range 3):</Value><Value>40.000000</Value><Value></Value><Value>8.609167</Value></Line><Line><Value>Water vapour (X-Range 5):</Value><Value></Value><Value>0.000300</Value><Value>0.000030</Value></Line><Line><Value>Signal/Water (X-Range 2):</Value><Value>100.000000</Value><Value></Value><Value>17.158996</Value></Line><Line><Value>Signal/Water (X-Range 3):</Value><Value>20.000000</Value><Value></Value><Value>13.479925</Value></Line><Line><Value>Fringes (X-Range 6):</Value><Value></Value><Value>0.000100</Value><Value>0.000068</Value></Line></Matrix></MainReport></AB__Qtest><Data_Parameters_ScSm><parameter name="DPF">1</parameter><parameter name="NPT">1814</parameter><parameter name="FXV">3996.33169228125</parameter><parameter name="LXV">499.541461535156</parameter><parameter name="CSF">1</parameter><parameter name="MXY">0.268492758274078</parameter><parameter name="MNY">0.0342732258141041</parameter><parameter name="DAT">30/05/2022</parameter><parameter name="TIM">11:40:04.344 (GMT+2)</parameter><parameter name="DXU">WN</parameter></Data_Parameters_ScSm><Data_Parameters_ScRf><parameter name="DPF">1</parameter><parameter name="NPT">1820</parameter><parameter name="FXV">4004.04661832813</parameter><parameter name="LXV">495.683998511719</parameter><parameter name="CSF">1</parameter><parameter name="MXY">0.264717936515808</parameter><parameter name="MNY">0.031981572508812</parameter><parameter name="DAT">30/05/2022</parameter><parameter name="TIM">11:39:38.493 (GMT+2)</parameter><parameter name="DXU">WN</parameter></Data_Parameters_ScRf><Optic_Parameters_Rf><parameter name="APR">0</parameter><parameter name="APT">Open</parameter><parameter name="BMS">KBr</parameter><parameter name="DTC">RT-DLaTGS_IR-Biotyper [Microplate reader]</parameter><parameter name="HPF">0</parameter><parameter name="LPF">10.0</parameter><parameter name="LPV">4000</parameter><parameter name="PGR">0</parameter><parameter name="RCH">Module port</parameter><parameter name="RDX">0</parameter><parameter name="SRC">MIR</parameter><parameter name="VEL">10.0</parameter><parameter name="SON">Off</parameter></Optic_Parameters_Rf><Acquisition_Parameters_Rf><parameter name="ADT">1</parameter><parameter name="AQM">DD</parameter><parameter name="CFE">0</parameter><parameter name="COR">0</parameter><parameter name="DEL">0</parameter><parameter name="DLY">0</parameter><parameter name="HFW">8000</parameter><parameter name="LFW">0</parameter><parameter name="NSR">32</parameter><parameter name="PLF">AB</parameter><parameter name="RES">6</parameter><parameter name="RGN">-1</parameter><parameter name="STR">0</parameter><parameter name="TCL">MakeCompatibleScalar (0, {WSV=1.000000, ARV=0});</parameter><parameter name="TDL">37</parameter><parameter name="RPO">0</parameter></Acquisition_Parameters_Rf><FT_-_Parameters_Rf><parameter name="APF">B3</parameter><parameter name="HFQ">500</parameter><parameter name="LFQ">4000</parameter><parameter name="NLI">0</parameter><parameter name="PHR">24</parameter><parameter name="PHZ">ML</parameter><parameter name="SPZ">NO</parameter><parameter name="ZFF">1</parameter></FT_-_Parameters_Rf><Optic_Parameters_><parameter name="APR">0</parameter><parameter name="APT">Open</parameter><parameter name="BMS">KBr</parameter><parameter name="CHN">Module port</parameter><parameter name="DTC">RT-DLaTGS_IR-Biotyper [Microplate reader]</parameter><parameter name="HPF">0</parameter><parameter name="LPF">10.0</parameter><parameter name="LPV">4000</parameter><parameter name="PGN">0</parameter><parameter name="RDX">0</parameter><parameter name="SRC">MIR</parameter><parameter name="VEL">10.0</parameter><parameter name="SON">Off</parameter></Optic_Parameters_><FT_-_Parameters_><parameter name="APF">B3</parameter><parameter name="HFQ">500</parameter><parameter name="LFQ">4000</parameter><parameter name="NLI">0</parameter><parameter name="PHR">24</parameter><parameter name="PHZ">ML</parameter><parameter name="SPZ">NO</parameter><parameter name="ZFF">1</parameter></FT_-_Parameters_><Acquisition_Parameters_><parameter name="ADT">1</parameter><parameter name="AQM">DD</parameter><parameter name="CFE">0</parameter><parameter name="COR">0</parameter><parameter name="DEL">0</parameter><parameter name="DLY">0</parameter><parameter name="HFW">8000</parameter><parameter name="LFW">0</parameter><parameter name="NSS">32</parameter><parameter name="PLF">AB</parameter><parameter name="RES">6</parameter><parameter name="SOT">0</parameter><parameter name="TCL">MakeCompatibleScalar (0, {WSV=1.000000, ARV=0});</parameter><parameter name="TDL">37</parameter><parameter name="SPO">0</parameter><parameter name="SGN">-1</parameter></Acquisition_Parameters_><Instrument_Parameters_Rf><parameter name="HFL">15800.168544</parameter><parameter name="LFL">0</parameter><parameter name="LWN">15800.168544</parameter><parameter name="ABP">32197</parameter><parameter name="SSP">1</parameter><parameter name="ARG">2</parameter><parameter name="ASG">2</parameter><parameter name="ASS">32</parameter><parameter name="GFW">16</parameter><parameter name="GBW">16</parameter><parameter name="BFW">0</parameter><parameter name="BBW">0</parameter><parameter name="PKA">7305</parameter><parameter name="PKL">4996</parameter><parameter name="PRA">7471</parameter><parameter name="PRL">5001</parameter><parameter name="P2A">1</parameter><parameter name="P2L">1</parameter><parameter name="P2R">1</parameter><parameter name="P2K">1</parameter><parameter name="DAQ">0</parameter><parameter name="AG2">1</parameter><parameter name="SSM">1</parameter><parameter name="RSN">25234</parameter><parameter name="CRR">0</parameter><parameter name="SRT">1653910778.493</parameter><parameter name="DUR">19.6369934082031</parameter><parameter name="TSC">28.1</parameter><parameter name="MVD">1.57300567626953</parameter><parameter name="AN1">0.225812410941685</parameter><parameter name="AN2">0</parameter><parameter name="VSN">2.485 Apr  4 2017</parameter><parameter name="SRN">0085</parameter><parameter name="CAM">0</parameter><parameter name="INS">IR-Biotyper</parameter><parameter name="FOC">69</parameter><parameter name="RDY">1</parameter><parameter name="ARS">32</parameter></Instrument_Parameters_Rf><Sample_Parameters_><parameter name="BLD"></parameter><parameter name="CNM">Admin</parameter><parameter name="CPY"></parameter><parameter name="DPM"></parameter><parameter name="EXP">IRBT_v3_32Scans.XPM</parameter><parameter name="LCT"></parameter><parameter name="SFM">Microplate, HTS-XT</parameter><parameter name="SNM">220530-1021_MBD34F (D_1)_H5_afe49713-3329-4bf3-8f6f-b5b5a9e550a7.0</parameter><parameter name="XPP">C:\Users\Public\Documents\Bruker\OPUS_8.2.28\XPM</parameter><parameter name="IST">OK</parameter><parameter name="CPG">1252</parameter><parameter name="UID">8f344c46-ef71-4380-8c0a-d71f5a9921b7</parameter></Sample_Parameters_><Instrument_Parameters_><parameter name="HFL">15800.168544</parameter><parameter name="LFL">0</parameter><parameter name="LWN">15800.168544</parameter><parameter name="ABP">32197</parameter><parameter name="SSP">1</parameter><parameter name="ASG">2</parameter><parameter name="ARG">2</parameter><parameter name="ASS">32</parameter><parameter name="GFW">16</parameter><parameter name="GBW">16</parameter><parameter name="BFW">0</parameter><parameter name="BBW">0</parameter><parameter name="PKA">7573</parameter><parameter name="PKL">4988</parameter><parameter name="PRA">7845</parameter><parameter name="PRL">4993</parameter><parameter name="P2A">1</parameter><parameter name="P2L">1</parameter><parameter name="P2R">1</parameter><parameter name="P2K">1</parameter><parameter name="DAQ">0</parameter><parameter name="AG2">1</parameter><parameter name="SSM">1</parameter><parameter name="RSN">13243</parameter><parameter name="CRR">0</parameter><parameter name="SRT">1653910804.344</parameter><parameter name="DUR">19.6379852294922</parameter><parameter name="TSC">28.1</parameter><parameter name="MVD">0.714875757694244</parameter><parameter name="AN1">0.225813834726655</parameter><parameter name="AN2">0</parameter><parameter name="VSN">2.485 Apr  4 2017</parameter><parameter name="SRN">0085</parameter><parameter name="CAM">0</parameter><parameter name="INS">IR-Biotyper</parameter><parameter name="FOC">69</parameter><parameter name="RDY">1</parameter></Instrument_Parameters_><History/></OPUSDataFile>
