<?xml version="1.0" encoding="UTF-8" ?>
<OPUSDataFile><AB><Ydata ylabel="Absorbance Units"><values byteorder="INTEL" format="FLOAT32" numvalues="3497"> -0.07120095 -0.07115321 -0.07110486 -0.07105595 -0.07100609 -0.07095525 -0.07090111 -0.07084399 -0.07078698 -0.0707317
 -0.07068968 -0.07066087 -0.07065312 -0.07066122 -0.07067797 -0.07069648 -0.07070109 -0.07069189 -0.07066114 -0.0706167
 -0.07056208 -0.07050371 -0.07044689 -0.07039121 -0.07033771 -0.07028486 -0.07023169 -0.07018147 -0.07013427 -0.07009496
 -0.07006419 -0.07004227 -0.07002923 -0.07001992 -0.07001387 -0.07000364 -0.06998885 -0.06996316 -0.06992728 -0.06987954
 -0.06982239 -0.0697604 -0.06969628 -0.06963702 -0.06958239 -0.0695354 -0.0694932 -0.06945423 -0.06941719 -0.06938101
 -0.06934513 -0.06931065 -0.06927028 -0.06922317 -0.06915934 -0.06907552 -0.06897757 -0.06886439 -0.06876177 -0.06867109
 -0.06861717 -0.06859944 -0.06861794 -0.06866818 -0.06872365 -0.06878051 -0.06880944 -0.06881314 -0.06878148 -0.0687235
 -0.06864828 -0.06856635 -0.06849395 -0.06843514 -0.06840108 -0.06838292 -0.06838144 -0.06837898 -0.06836893 -0.06834055
 -0.06828752 -0.06821866 -0.0681328 -0.06805133 -0.0679762 -0.06792293 -0.06789255 -0.06788474 -0.06789861 -0.06792202
 -0.06795353 -0.06797893 -0.06799641 -0.06799178 -0.06796408 -0.06790143 -0.06781021 -0.06769351 -0.06756333 -0.06743529
 -0.06731552 -0.06721634 -0.06713171 -0.06706254 -0.06699913 -0.06693575 -0.06687644 -0.06681934 -0.06677943 -0.06675994
 -0.06676353 -0.06679228 -0.06682527 -0.06686144 -0.06687552 -0.06686778 -0.06683666 -0.06678576 -0.0667372 -0.06669293
 -0.06667379 -0.06667484 -0.06669667 -0.06672854 -0.06675202 -0.06676152 -0.06674053 -0.0666961 -0.06662763 -0.06654493
 -0.066453 -0.06635915 -0.06626524 -0.06618409 -0.06611773 -0.0660833 -0.06608443 -0.06612976 -0.06622287 -0.0663395
 -0.06647895 -0.06655522 -0.06656563 -0.06644619 -0.06621273 -0.06593733 -0.06563269 -0.06538803 -0.06519637 -0.06508551
 -0.06504298 -0.06506359 -0.06512791 -0.06521525 -0.06529937 -0.06535088 -0.06535856 -0.06530091 -0.06520348 -0.06506835
 -0.06492982 -0.0648003 -0.06468351 -0.06458313 -0.06448767 -0.06439541 -0.06431001 -0.06423151 -0.06417303 -0.06413436
 -0.06411474 -0.06411163 -0.06410764 -0.06410144 -0.06407764 -0.06403911 -0.06398524 -0.06391937 -0.06384739 -0.0637702
 -0.06369048 -0.0636104 -0.06353159 -0.06345887 -0.06339459 -0.06334486 -0.06331272 -0.0633013 -0.06331407 -0.06334127
 -0.06338426 -0.06341679 -0.06343687 -0.06341724 -0.06335595 -0.06324896 -0.06309769 -0.06292494 -0.06273274 -0.06254601
 -0.06236379 -0.06219533 -0.0620392 -0.06189548 -0.06176577 -0.06165309 -0.0615585 -0.06148684 -0.0614313 -0.06138988
 -0.06135021 -0.06130357 -0.06124625 -0.0611726 -0.06109185 -0.06100515 -0.0609213 -0.06084273 -0.0607692 -0.06070101
 -0.06063612 -0.06057439 -0.06051664 -0.06046294 -0.06041469 -0.0603718 -0.06033465 -0.06030235 -0.06027205 -0.06024198
 -0.06020609 -0.06016356 -0.06010972 -0.06004573 -0.05997016 -0.05988726 -0.05979776 -0.05971283 -0.05963744 -0.05958536
 -0.05956588 -0.05957547 -0.05962051 -0.05966557 -0.05970658 -0.05970791 -0.05966254 -0.05958312 -0.05946988 -0.05934661
 -0.05921293 -0.0590598 -0.05888788 -0.05869478 -0.05848778 -0.05829563 -0.05812244 -0.05799675 -0.05791058 -0.05786769
 -0.05784617 -0.05781999 -0.05777465 -0.05768211 -0.05755899 -0.05740401 -0.05724486 -0.05709412 -0.05696262 -0.05685946
 -0.0567684 -0.05669 -0.05659494 -0.05647905 -0.05633397 -0.05615844 -0.05597391 -0.05578182 -0.05560941 -0.05545636
 -0.05533572 -0.05524186 -0.05516176 -0.05508498 -0.05497415 -0.05483143 -0.05463815 -0.0544147 -0.05418241 -0.05394719
 -0.05372672 -0.05350417 -0.05327426 -0.05302384 -0.05274151 -0.05244089 -0.0521208 -0.05180811 -0.05150877 -0.05123204
 -0.05098144 -0.05074004 -0.05050742 -0.05024893 -0.04996346 -0.04962845 -0.04924861 -0.0488474 -0.0484302 -0.04803408
 -0.04765473 -0.04729909 -0.04696225 -0.04663876 -0.04632485 -0.04601774 -0.04570267 -0.04536913 -0.04499597 -0.04456262
 -0.04407519 -0.04352611 -0.04294697 -0.04234722 -0.04173766 -0.0411231 -0.04049746 -0.03986032 -0.03921006 -0.03854662
 -0.03786584 -0.03716772 -0.03645153 -0.03571961 -0.03498898 -0.03426228 -0.03356141 -0.03288312 -0.03223099 -0.03159812
 -0.03097478 -0.03035243 -0.02972168 -0.02906057 -0.02834815 -0.0275645 -0.02667723 -0.02573025 -0.02472611 -0.02373608
 -0.0227889 -0.02188639 -0.02103686 -0.02020794 -0.01939596 -0.01858736 -0.0177807 -0.0169797 -0.01618468 -0.01540337
 -0.01463484 -0.01387943 -0.01312894 -0.01235197 -0.01153501 -0.01061501 -0.009609113 -0.008506591 -0.007362705 -0.006254097
 -0.005191748 -0.004223838 -0.003308265 -0.002432852 -0.001562633 -0.0006753776 0.0002292448 0.001158591 0.002091896 0.003025316
 0.003950375 0.004863694 0.005782619 0.006707721 0.007668304 0.00866477 0.009701639 0.01077409 0.011846 0.01291446
 0.0139457 0.01494518 0.01591088 0.01684837 0.01776652 0.01867037 0.01956773 0.02046867 0.0213868 0.02232224
 0.0232838 0.02425129 0.02521587 0.02617224 0.02711089 0.02806395 0.02903634 0.03005113 0.03111566 0.03219863
 0.03329885 0.03437342 0.03542158 0.03643925 0.03742876 0.03840644 0.0393736 0.04034469 0.04131863 0.04230122
 0.04328726 0.04426817 0.0452438 0.04620424 0.04716928 0.04815019 0.04917328 0.05026662 0.05141537 0.05263032
 0.053851 0.05506086 0.05622276 0.05732234 0.05837106 0.0593668 0.06034104 0.06129549 0.06226416 0.06324832
 0.06426838 0.06532224 0.06640289 0.06750639 0.06861096 0.06971641 0.07081009 0.07189593 0.07297468 0.07405213
 0.07513659 0.07623103 0.07734382 0.0784672 0.0796006 0.0807303 0.08184823 0.08295364 0.08404283 0.085127
 0.08620864 0.08728989 0.08837189 0.08944836 0.09051874 0.0915853 0.09264812 0.09370962 0.09476854 0.09581447
 0.09684764 0.09786232 0.0988624 0.09985742 0.1008476 0.1018392 0.1028272 0.1038064 0.1047762 0.1057326
 0.1066809 0.1076227 0.1085652 0.1095116 0.1104686 0.1114406 0.1124223 0.113416 0.1143987 0.1153675
 0.1163089 0.117221 0.1181206 0.1190085 0.1199038 0.1208048 0.121705 0.1226026 0.1234845 0.124353
 0.1252083 0.1260532 0.1268928 0.1277292 0.1285666 0.1294082 0.1302608 0.1311193 0.1319862 0.1328433
 0.1336827 0.1344931 0.1352657 0.1360137 0.1367361 0.1374611 0.1381924 0.1389495 0.1397352 0.1405366
 0.1413518 0.1421309 0.1428719 0.1435325 0.144122 0.1446591 0.1451608 0.1456891 0.1462471 0.1468748
 0.147556 0.1482868 0.1490466 0.1498152 0.150577 0.1513161 0.1520236 0.1526902 0.1533201 0.1539108
 0.1544775 0.1550226 0.1555595 0.1560903 0.1566218 0.1571546 0.1576898 0.1582272 0.1587577 0.1592806
 0.1597835 0.1602673 0.1607286 0.1611682 0.1615869 0.1619848 0.16236 0.1627195 0.1630704 0.1634235
 0.1637951 0.1641812 0.1645877 0.1649967 0.1653996 0.1657913 0.1661659 0.1665351 0.1669015 0.1672661
 0.1676308 0.1679801 0.1683129 0.1686188 0.1688974 0.1691519 0.1693832 0.1696017 0.1698093 0.1700204
 0.170235 0.1704623 0.1706971 0.1709338 0.1711666 0.1713835 0.1715843 0.1717644 0.1719247 0.1720654
 0.1721846 0.1722807 0.172355 0.1724063 0.1724423 0.1724638 0.1724789 0.1724887 0.1724981 0.1725079
 0.1725171 0.1725254 0.1725205 0.1725017 0.1724566 0.1723878 0.1723007 0.1722007 0.1721071 0.172021
 0.1719549 0.171903 0.1718632 0.1718273 0.1717868 0.1717342 0.1716608 0.1715671 0.1714478 0.1713181
 0.1711801 0.1710522 0.1709411 0.1708418 0.1707573 0.170655 0.1705329 0.1703614 0.1701397 0.1698726
 0.1695634 0.1692456 0.1689209 0.1686164 0.1683282 0.1680573 0.1678016 0.167555 0.1673221 0.1671092
 0.1669143 0.1667427 0.1665756 0.1664019 0.1662073 0.1659763 0.1657259 0.1654548 0.1651962 0.1649589
 0.1647533 0.1645848 0.1644287 0.1642844 0.164113 0.1639128 0.1636565 0.1633456 0.1629823 0.162574
 0.1621567 0.1617394 0.1613715 0.1610529 0.1608125 0.1606342 0.1605112 0.1604172 0.1603239 0.1602103
 0.1600502 0.1598437 0.1595797 0.1592821 0.1589535 0.1586256 0.1583049 0.1580173 0.1577669 0.1575744
 0.1574419 0.1573841 0.1574015 0.1574892 0.1576432 0.1578253 0.1580265 0.1581814 0.1582832 0.1582711
 0.1581557 0.1579205 0.1576028 0.1572456 0.1568924 0.1566107 0.1564045 0.1563121 0.1562753 0.156284
 0.1562588 0.1561677 0.1559782 0.1556694 0.1552804 0.1548101 0.1543298 0.153846 0.1534008 0.152996
 0.1526257 0.1522881 0.1519641 0.1516559 0.1513658 0.1510977 0.1508684 0.150674 0.1505192 0.150388
 0.150263 0.1501196 0.1499276 0.1496646 0.1493014 0.14884 0.1482656 0.147619 0.146905 0.1461823
 0.1454649 0.1447886 0.1441622 0.1435869 0.1430641 0.1425777 0.1421266 0.1416864 0.1412557 0.1408084
 0.1403472 0.1398701 0.1393857 0.1389235 0.1384824 0.1380816 0.137697 0.1373024 0.1368733 0.1363655
 0.1357926 0.1351396 0.1344609 0.133776 0.1331381 0.1325737 0.1320925 0.1317087 0.1313771 0.131098
 0.130793 0.1304555 0.1300226 0.1294916 0.1288618 0.1281387 0.127382 0.1265981 0.1258538 0.1251468
 0.1245075 0.1239254 0.1233942 0.1229019 0.1224281 0.1219628 0.1214874 0.1209967 0.1204798 0.1199399
 0.1193743 0.1187933 0.1181996 0.1176031 0.1170071 0.1164141 0.1158253 0.1152355 0.1146443 0.1140461
 0.1134407 0.1128282 0.1122089 0.1115873 0.1109638 0.1103435 0.1097275 0.1091214 0.1085261 0.1079473
 0.1073821 0.1068309 0.1062844 0.1057343 0.1051687 0.1045753 0.1039508 0.1032873 0.1025973 0.1018814
 0.1011596 0.1004373 0.09972493 0.09902569 0.09833769 0.09766083 0.09699626 0.09634408 0.09571488 0.09510867
 0.09453021 0.09397659 0.09343433 0.09289968 0.09235201 0.09179113 0.09120563 0.09059922 0.08997218 0.08932965
 0.08867617 0.08801877 0.08736098 0.0867179 0.08609417 0.08551533 0.08499187 0.08453824 0.08416744 0.08384156
 0.08356405 0.08324232 0.08286861 0.08236781 0.08173592 0.08099221 0.08014463 0.07929554 0.07845265 0.0777165
 0.07707859 0.07657015 0.07616299 0.0758136 0.07548613 0.07510186 0.07464764 0.07406655 0.07339752 0.07264178
 0.07186889 0.07111958 0.07042328 0.06980961 0.06924044 0.06871261 0.06818818 0.06765428 0.06714197 0.06665035
 0.06624935 0.06594266 0.06574852 0.06566045 0.06560417 0.06556643 0.06542967 0.06519377 0.0647872 0.06423751
 0.06356694 0.06281594 0.06206368 0.06132311 0.06064782 0.06001008 0.05940529 0.05880921 0.05819834 0.05759522
 0.05699963 0.05644701 0.0559525 0.05550076 0.05509574 0.05468584 0.05426474 0.0538224 0.05335798 0.05292329
 0.05252051 0.05219496 0.05193963 0.05173776 0.05157744 0.05140553 0.05122061 0.05099002 0.0507251 0.05043033
 0.05011477 0.04979551 0.04946183 0.04911713 0.04873021 0.04828595 0.04776046 0.04713367 0.04642923 0.04563906
 0.044843 0.04404906 0.04334285 0.04273609 0.04224709 0.0418776 0.04155873 0.04128466 0.04095843 0.04058147
 0.04010823 0.03955465 0.03895086 0.03831639 0.03771433 0.03715081 0.0366684 0.03625312 0.03590981 0.03561047
 0.03533659 0.03506194 0.03476455 0.03444128 0.03408053 0.03371032 0.03333391 0.03298281 0.03266666 0.03237345
 0.03210601 0.03180707 0.03147349 0.0310661 0.0305878 0.03007074 0.02952278 0.02901267 0.0285359 0.02811738
 0.0277371 0.027357 0.02696738 0.02652717 0.02605647 0.02555829 0.02506479 0.02460544 0.02419173 0.02384196
 0.02354288 0.02329415 0.02308089 0.022898 0.0227436 0.02261678 0.02251771 0.02244776 0.02238837 0.02233876
 0.02225474 0.0221338 0.02192887 0.02164278 0.02126503 0.02080883 0.02031457 0.01979874 0.01932255 0.01889246
 0.01854937 0.01828551 0.01810992 0.01800653 0.0179675 0.01797359 0.01801427 0.01806952 0.01813066 0.01818096
 0.01821446 0.01822245 0.01820112 0.01815686 0.01808791 0.01802643 0.01797396 0.01798557 0.01806325 0.0182488
 0.01853632 0.01891298 0.01936463 0.01983124 0.02030443 0.02073016 0.02111565 0.02144767 0.02173892 0.02200131
 0.02223816 0.02245748 0.02265524 0.02282991 0.02298313 0.02311406 0.02322951 0.02333302 0.02341884 0.02348944
 0.02351744 0.02350115 0.02340851 0.02323733 0.02298096 0.02264128 0.02224683 0.02180134 0.02134373 0.02087398
 0.02041196 0.01995685 0.01951348 0.01908899 0.01869622 0.01834532 0.01805728 0.0178262 0.01765966 0.01753224
 0.01743239 0.017339 0.01723813 0.01713233 0.01701783 0.01690999 0.01681133 0.01672977 0.01666714 0.01661918
 0.01658592 0.01655035 0.01651036 0.01643127 0.01630966 0.01610389 0.01581566 0.01542534 0.01494516 0.01439317
 0.01378654 0.01316345 0.01253401 0.01192812 0.01134109 0.01078321 0.01023338 0.009686915 0.009110745 0.008492479
 0.007803595 0.007030786 0.006176224 0.005232904 0.004245917 0.003216697 0.002212038 0.001236188 0.0003350876 -0.0004911681
 -0.001239311 -0.00191259 -0.002531541 -0.003097216 -0.003623631 -0.00411153 -0.004567041 -0.004997329 -0.005416827 -0.005833433
 -0.006266295 -0.006707991 -0.007163387 -0.007609037 -0.008033054 -0.008417787 -0.008750839 -0.009034867 -0.009266757 -0.009459427
 -0.009615006 -0.009740584 -0.00983786 -0.009902092 -0.009933161 -0.009920542 -0.00986495 -0.009774886 -0.009657662 -0.009565636
 -0.009509889 -0.009566285 -0.009731914 -0.01004572 -0.01048018 -0.01100892 -0.0115962 -0.01218639 -0.01275993 -0.01327861
 -0.01374523 -0.01414813 -0.01450524 -0.01481846 -0.0151134 -0.0153966 -0.01568909 -0.01599719 -0.01632136 -0.01666338
 -0.01700754 -0.01735275 -0.01769561 -0.01803759 -0.01840646 -0.01880518 -0.01927165 -0.01980001 -0.02039249 -0.02102965
 -0.02166238 -0.0222748 -0.02280829 -0.02327692 -0.02366629 -0.02401864 -0.02436545 -0.0247378 -0.02517014 -0.02565095
 -0.02618924 -0.02674573 -0.02731193 -0.0278567 -0.02837198 -0.02884769 -0.02928109 -0.02967586 -0.03003189 -0.03036013
 -0.03066137 -0.03095002 -0.03122672 -0.03150351 -0.03177943 -0.03205829 -0.03233597 -0.03260433 -0.03285804 -0.0330819
 -0.03327785 -0.03343792 -0.03357833 -0.03370816 -0.03384775 -0.03401481 -0.03421055 -0.03444505 -0.03469182 -0.03494805
 -0.03517945 -0.03537762 -0.03553215 -0.03563845 -0.03572085 -0.0357803 -0.03585244 -0.03593795 -0.03604694 -0.03617637
 -0.03630695 -0.03643885 -0.03655922 -0.03667764 -0.03681332 -0.03697434 -0.03718961 -0.0374486 -0.03775487 -0.03808137
 -0.03840647 -0.03870755 -0.03896284 -0.03916773 -0.03931272 -0.03940944 -0.03945629 -0.03947868 -0.03947823 -0.0394925
 -0.03952572 -0.03960734 -0.03974029 -0.03991948 -0.04014329 -0.04037562 -0.04061445 -0.04082671 -0.04101532 -0.04117419
 -0.04130907 -0.04143259 -0.04154813 -0.04166824 -0.04179287 -0.04192793 -0.04206964 -0.0422188 -0.04236497 -0.04250351
 -0.04262131 -0.04270986 -0.04276942 -0.04279429 -0.04280816 -0.04281266 -0.04283906 -0.04289224 -0.042982 -0.04311002
 -0.04325688 -0.04342132 -0.04357734 -0.04372549 -0.04385765 -0.04397666 -0.04409062 -0.04420071 -0.04431507 -0.0444313
 -0.04454898 -0.04466493 -0.04477443 -0.04487644 -0.04496712 -0.04505045 -0.04512612 -0.04520366 -0.04528629 -0.04538379
 -0.04550049 -0.04563771 -0.0457977 -0.0459711 -0.04615754 -0.04634451 -0.04653106 -0.04671022 -0.04688188 -0.04704662
 -0.04720484 -0.04736031 -0.04751281 -0.04766361 -0.04781181 -0.04795507 -0.04809376 -0.04822668 -0.04835674 -0.04848734
 -0.04862074 -0.04876154 -0.04890637 -0.04905558 -0.04920188 -0.04934165 -0.04947228 -0.04959073 -0.04970414 -0.04981259
 -0.04992723 -0.05004955 -0.05018591 -0.05033709 -0.05050007 -0.05067426 -0.05084664 -0.05101551 -0.0511612 -0.051283
 -0.05136526 -0.05141257 -0.05142712 -0.05141972 -0.05141148 -0.05141183 -0.05144418 -0.05150684 -0.051609 -0.05173839
 -0.05189051 -0.05205351 -0.05222036 -0.05238741 -0.05255188 -0.05271455 -0.05287555 -0.05303329 -0.05318787 -0.05333521
 -0.05347501 -0.05360477 -0.05372449 -0.0538356 -0.05393865 -0.05403854 -0.05413615 -0.05423824 -0.05434485 -0.05446023
 -0.05458233 -0.05470986 -0.05483905 -0.05496402 -0.05508299 -0.05519133 -0.05529135 -0.05538274 -0.05546942 -0.05555345
 -0.05563587 -0.0557177 -0.05579752 -0.05587472 -0.05595135 -0.056027 -0.0561096 -0.05619968 -0.0563042 -0.05642321
 -0.05655392 -0.05669512 -0.05683514 -0.05697312 -0.05709831 -0.05721204 -0.05731217 -0.05740127 -0.05748353 -0.0575605
 -0.05763615 -0.05771088 -0.05778622 -0.05786282 -0.05794151 -0.05802275 -0.05810709 -0.05819407 -0.05828375 -0.0583752
 -0.05846833 -0.05856198 -0.05865618 -0.05874845 -0.05883867 -0.05892397 -0.05900427 -0.05907879 -0.05914781 -0.05921316
 -0.05927542 -0.05933784 -0.05940152 -0.05947124 -0.05954797 -0.05963664 -0.05973564 -0.05984601 -0.05996261 -0.06008134
 -0.06019703 -0.06030446 -0.06040291 -0.06048986 -0.06056964 -0.06064256 -0.0607146 -0.06078686 -0.06086451 -0.06094855
 -0.06104031 -0.06114016 -0.06124405 -0.06135163 -0.06145465 -0.0615528 -0.06163941 -0.06171548 -0.0617816 -0.06184006
 -0.06189802 -0.0619569 -0.06202358 -0.06209683 -0.0621783 -0.0622651 -0.06235515 -0.06244591 -0.06253506 -0.06262114
 -0.06270272 -0.06278007 -0.0628525 -0.06292313 -0.0629921 -0.06306423 -0.06314036 -0.0632222 -0.06331018 -0.06340023
 -0.06349207 -0.06357855 -0.06365962 -0.06373173 -0.06379595 -0.0638554 -0.06391139 -0.06397013 -0.06403083 -0.06409549
 -0.06416133 -0.06422455 -0.06428521 -0.06434055 -0.0643959 -0.0644538 -0.06451919 -0.06459644 -0.06468254 -0.06477873
 -0.06487552 -0.06497128 -0.06505845 -0.06513549 -0.06520096 -0.06525443 -0.06529915 -0.06533532 -0.06536819 -0.0653982
 -0.06543147 -0.06546835 -0.06551398 -0.0655681 -0.06563281 -0.06570718 -0.06579049 -0.06588161 -0.06597887 -0.06608097
 -0.0661867 -0.06629304 -0.06639826 -0.066498 -0.06658945 -0.0666716 -0.06674259 -0.06680718 -0.0668658 -0.06692394
 -0.06698275 -0.06704235 -0.06710298 -0.06716149 -0.06721777 -0.0672718 -0.06732393 -0.06737779 -0.06743351 -0.06749398
 -0.06755814 -0.06762454 -0.06769141 -0.0677541 -0.06781211 -0.06786172 -0.06790612 -0.06794642 -0.06798768 -0.06803433
 -0.0680875 -0.06814997 -0.06821711 -0.06828818 -0.06835862 -0.06842673 -0.06849343 -0.06855837 -0.06862547 -0.06869508
 -0.06876929 -0.06884816 -0.06892978 -0.06901392 -0.06909705 -0.06917914 -0.0692579 -0.0693339 -0.06940772 -0.06948002
 -0.06955279 -0.06962574 -0.06969965 -0.069773 -0.06984453 -0.06991316 -0.06997721 -0.07003799 -0.07009514 -0.07015212
 -0.07021005 -0.0702709 -0.07033566 -0.07040288 -0.07047275 -0.07054159 -0.07060912 -0.07067279 -0.07073252 -0.07078767
 -0.07083839 -0.07088578 -0.07093023 -0.07097431 -0.0710183 -0.07106472 -0.07111309 -0.07116388 -0.07121599 -0.07126805
 -0.07131913 -0.07136769 -0.07141327 -0.07145467 -0.07149319 -0.07152837 -0.07156458 -0.07160279 -0.07164784 -0.0717013
 -0.07176401 -0.07183668 -0.07191583 -0.07200133 -0.07208838 -0.0721767 -0.0722609 -0.07234076 -0.07241179 -0.0724747
 -0.07253035 -0.07258062 -0.07263233 -0.07268608 -0.07274733 -0.07281373 -0.07288446 -0.07295626 -0.07302502 -0.0730897
 -0.07314785 -0.0732009 -0.07324881 -0.07329339 -0.07333514 -0.07337559 -0.07341494 -0.07345529 -0.07349671 -0.07354303
 -0.07359461 -0.07365394 -0.07372113 -0.07379339 -0.07387023 -0.07394463 -0.07401682 -0.07408361 -0.07414731 -0.07421291
 -0.0742843 -0.07437191 -0.07447956 -0.07461759 -0.07478773 -0.07499649 -0.07524127 -0.07552338 -0.07583611 -0.07617599
 -0.0765402 -0.07692489 -0.07733911 -0.07778232 -0.07827353 -0.07881597 -0.07941946 -0.08008697 -0.08079379 -0.08153817
 -0.08224744 -0.08291566 -0.08345089 -0.08385289 -0.08406888 -0.08410979 -0.0839828 -0.0837004 -0.08328783 -0.08276755
 -0.0821752 -0.0815537 -0.08096123 -0.08042759 -0.07999559 -0.07966761 -0.07945556 -0.07935505 -0.07936809 -0.07948573
 -0.07971319 -0.08000373 -0.08035865 -0.08067794 -0.08095232 -0.08111775 -0.08117124 -0.08115116 -0.0810627 -0.08097941
 -0.08090048 -0.08086217 -0.08085349 -0.08085798 -0.0808633 -0.08082993 -0.08076122 -0.08064115 -0.08048768 -0.080315
 -0.08013446 -0.07996157 -0.07979269 -0.07962959 -0.07946876 -0.07930724 -0.07915273 -0.07900565 -0.07887711 -0.07876953
 -0.07868434 -0.07862252 -0.07857399 -0.07853821 -0.07850256 -0.07846708 -0.07842851 -0.07838792 -0.0783501 -0.07831488
 -0.07828449 -0.07825749 -0.07823101 -0.07820562 -0.07818039 -0.07815772 -0.07814049 -0.0781285 -0.07812348 -0.0781215
 -0.07812073 -0.07811935 -0.07811534 -0.07811239 -0.0781105 -0.07811558 -0.0781287 -0.07815255 -0.07818776 -0.07823188
 -0.07828476 -0.07833993 -0.07839701 -0.07844958 -0.07849779 -0.07853909 -0.07857426 -0.07860449 -0.07863069 -0.07865548
 -0.07867943 -0.07870477 -0.07873125 -0.07875963 -0.07878887 -0.07881818 -0.07884761 -0.07887663 -0.07890674 -0.07893861
 -0.07897226 -0.07900824 -0.07904395 -0.07907907 -0.07911156 -0.07914107 -0.0791684 -0.07919358 -0.07921827 -0.07924256
 -0.07926811 -0.0792952 -0.07932645 -0.07936151 -0.07940109 -0.07944336 -0.07948435 -0.07952275 -0.07955355 -0.07957955
 -0.07960088 -0.07962349 -0.07965245 -0.07969023 -0.07974117 -0.0797993 -0.07986447 -0.07992686 -0.0799836 -0.08003072
 -0.08006643 -0.08009529 -0.08011739 -0.0801394 -0.08016168 -0.0801866 -0.08021411 -0.08024413 -0.0802767 -0.08031227
 -0.08035054 -0.08039097 -0.08043246 -0.08047181 -0.08050901 -0.08054163 -0.08057274 -0.08060432 -0.08064049 -0.08068605
 -0.0807403 -0.08080582 -0.08087483 -0.08094572 -0.08100969 -0.08106335 -0.08110663 -0.08113795 -0.08116712 -0.08119479
 -0.08123036 -0.08127441 -0.08132771 -0.08138991 -0.08145621 -0.08152644 -0.08159725 -0.08166882 -0.08174036 -0.08181138
 -0.08188047 -0.08194701 -0.08200905 -0.082067 -0.08212031 -0.08217045 -0.0822183 -0.08226524 -0.08231176 -0.08236036
 -0.08241129 -0.08246977 -0.08253703 -0.08261748 -0.08271289 -0.08281926 -0.08293707 -0.08305293 -0.08316609 -0.08326436
 -0.08334781 -0.08341504 -0.08346739 -0.08351219 -0.08355055 -0.08359034 -0.08363161 -0.08367852 -0.08373044 -0.08378842
 -0.08385114 -0.08391779 -0.08398635 -0.08405494 -0.08412234 -0.084187 -0.0842498 -0.08431038 -0.08437116 -0.08443253
 -0.08449703 -0.08456514 -0.08463823 -0.08471648 -0.08480074 -0.08489108 -0.08498799 -0.08509133 -0.0851993 -0.08531116
 -0.08542144 -0.08552943 -0.08562934 -0.08572179 -0.08580549 -0.0858812 -0.08594998 -0.08601136 -0.08606479 -0.08611105
 -0.08614898 -0.08618465 -0.08622001 -0.08626352 -0.08631952 -0.0863902 -0.08647832 -0.08657632 -0.08668406 -0.08679013
 -0.08689327 -0.08698679 -0.08707017 -0.08714498 -0.08721161 -0.0872767 -0.08734062 -0.08740911 -0.08748169 -0.08755969
 -0.08764216 -0.08772743 -0.08781504 -0.08790337 -0.0879923 -0.08808122 -0.08816956 -0.08825675 -0.08834218 -0.08842508
 -0.08850627 -0.08858553 -0.08866521 -0.08874588 -0.08882925 -0.08891595 -0.08900479 -0.08909587 -0.0891863 -0.0892759
 -0.08936231 -0.08944549 -0.08952491 -0.08960089 -0.08967513 -0.08974837 -0.08982459 -0.08990382 -0.08998878 -0.09007768
 -0.09016894 -0.09026053 -0.09034914 -0.09043442 -0.09051497 -0.09059111 -0.09066283 -0.09073 -0.0907919 -0.09085141
 -0.09090826 -0.09096956 -0.09103657 -0.09111391 -0.09120269 -0.09129918 -0.09140328 -0.09150732 -0.09161104 -0.09170926
 -0.09180218 -0.09188845 -0.0919685 -0.09204301 -0.09211292 -0.09218062 -0.09224763 -0.09231756 -0.09239161 -0.09247322
 -0.09256115 -0.09265678 -0.09275465 -0.09285302 -0.09294406 -0.09302352 -0.09308993 -0.09314018 -0.09318493 -0.09322467
 -0.09327461 -0.09333681 -0.09341676 -0.09351508 -0.09362344 -0.09374116 -0.09385565 -0.09396689 -0.09406832 -0.09416097
 -0.09424526 -0.09432223 -0.09439456 -0.0944631 -0.09453038 -0.09459732 -0.09466609 -0.09473702 -0.09481163 -0.09488824
 -0.09496652 -0.09504423 -0.09511998 -0.09519442 -0.09526706 -0.09534097 -0.09541699 -0.0954946 -0.09557427 -0.09564955
 -0.09572008 -0.09577962 -0.09582829 -0.09586768 -0.09589893 -0.09593102 -0.09596454 -0.09600733 -0.09605755 -0.09611482
 -0.0961761 -0.096235 -0.09629168 -0.09634258 -0.09639228 -0.09644342 -0.09649993 -0.09656618 -0.09663925 -0.09672026
 -0.09680076 -0.09687872 -0.09694781 -0.0970059 -0.09705433 -0.09709261 -0.09712744 -0.09715924 -0.09719165 -0.09722459
 -0.09725575 -0.09728502 -0.09731016 -0.09733222 -0.09735429 -0.09737746 -0.09740646 -0.09744114 -0.09748336 -0.09753261
 -0.09758906 -0.09765197 -0.09772182 -0.09779445 -0.09786884 -0.09793732 -0.09799612 -0.09804222 -0.09807245 -0.09809451
 -0.09810875 -0.09812538 -0.09814612 -0.09817158 -0.09820205 -0.09823052 -0.09825683 -0.09827814 -0.09829526 -0.09831294
 -0.0983315 -0.0983552 -0.09838255 -0.09841165 -0.09844144 -0.09846844 -0.09849413 -0.09851867 -0.0985445 -0.0985742
 -0.09860807 -0.09864774 -0.09869028 -0.0987353 -0.09877866 -0.09881864 -0.09885516 -0.09888726 -0.0989202 -0.09895451
 -0.09899402 -0.09903917 -0.09908519 -0.0991317 -0.09917062 -0.09920257 -0.09922806 -0.09924905 -0.09927452 -0.09930447
 -0.09934454 -0.09939106 -0.09944041 -0.09948806 -0.09952644 -0.09955364 -0.09956423 -0.0995618 -0.09954544 -0.0995242
 -0.09950106 -0.09948468 -0.09947871 -0.09948509 -0.09950565 -0.0995345 -0.09957165 -0.09960713 -0.09964031 -0.09966347
 -0.09967659 -0.09968036 -0.0996758 -0.09967112 -0.09966666 -0.09966886 -0.09967592 -0.09968621 -0.09969807 -0.09970701
 -0.09971391 -0.09971832 -0.09972063 -0.09972202 -0.09971955 -0.0997117 -0.09969645 -0.09967108 -0.09964106 -0.09960632
 -0.09957708 -0.09955547 -0.09954698 -0.09955329 -0.09956839 -0.09959222 -0.09961092 -0.09962402 -0.09962418 -0.09961293
 -0.09959877 -0.09958386 -0.0995832 -0.09959488 -0.09962344 -0.09966084 -0.09969462 -0.09971707 -0.09971046 -0.09967828
 -0.09961483 -0.09953348 -0.09944014 -0.09934743 -0.09926255 -0.09919096 -0.09913638 -0.09909706 -0.09907389 -0.09906026
 -0.09905566 -0.09905314 -0.09905203 -0.09905146 -0.09905168 -0.09905974 -0.09907559 -0.09910377 -0.09914048 -0.09917233
 -0.09919388 -0.09918014 -0.09913503 -0.09905148 -0.09894253 -0.09882312 -0.09870181 -0.09859232 -0.09849675 -0.09842017
 -0.09836283 -0.09832706 -0.09830795 -0.09830652 -0.0983087 -0.09831273 -0.09830309 -0.09827722 -0.09823012 -0.09816095
 -0.09807628 -0.09797657 -0.09787264 -0.0977648 -0.09766059 -0.09755927 -0.09746148 -0.09736674 -0.09727304 -0.09718232
 -0.0970973 -0.09701965 -0.09695426 -0.09689746 -0.09684864 -0.09680108 -0.09674956 -0.09669244 -0.09662717 -0.09655619
 -0.09648045 -0.09639838 -0.09631025 -0.09621155 -0.09610122 -0.09598131 -0.09585156 -0.09572393 -0.09559885 -0.09548447
 -0.09537881 -0.09526965 -0.09515325 -0.09500334 -0.09482395 -0.09460993 -0.09437411 -0.09414104 -0.09391491 -0.093715
 -0.09353118 -0.09336128 -0.09319443 -0.09302057 -0.0928417 -0.09265476 -0.09246953 -0.09228925 -0.09211648 -0.09195432
 -0.09178983 -0.09162323 -0.09142859 -0.09120367 -0.09093668 -0.09062818 -0.09030537 -0.08997032 -0.08965432 -0.08935404
 -0.08907084 -0.08879987 -0.08852702 -0.08825135 -0.08796398 -0.08766662 -0.08735734 -0.08703969 -0.08671521 -0.08639031
 -0.08607142 -0.08575634 -0.08545063 -0.08513048 -0.08479093 -0.08440832 -0.08397295 -0.08349834 -0.08298373 -0.08245549
 -0.08191621 -0.08136532 -0.08080278 -0.08022383 -0.07963026 -0.07903767 -0.07844542 -0.07786285 -0.07727955 -0.07667004
 -0.07602459 -0.07530499 -0.0745249 -0.07368263 -0.07280584 -0.07192452 -0.07104496 -0.07018264 -0.06932851 -0.06848064
 -0.06763718 -0.066797 -0.06596116 -0.06513449 -0.06428816 -0.06342495 -0.06246273 -0.06139505 -0.06016492 -0.05877342
 -0.05731758 -0.05580608 -0.05436573 -0.05298283 -0.05165794 -0.05037368 -0.0490758 -0.04776227 -0.04640429 -0.04500305
 -0.04355586 -0.04204221 -0.04045156 -0.03873536 -0.0368554 -0.03478925 -0.03249137 -0.03006108 -0.02750119 -0.02498379
 -0.02255069 -0.02027798 -0.01818755 -0.01625217 -0.01447343 -0.01278399 -0.01117889 -0.009543543 -0.007866258 -0.005977934
 -0.003893786 -0.001568544 0.0009159649 0.003316597 0.005613505 0.007620995 0.009428039 0.01108808 0.01266567 0.01425551
 0.0158562 0.01749611 0.01915746 0.02083426 0.0225305 0.02425319 0.02597199 0.027688 0.02933627 0.03090474
 0.03238458 0.03377303 0.03509682 0.03635597 0.03752288 0.03859325 0.03951176 0.04028201 0.0408927 0.04135086
 0.04167136 0.04186011 0.04192895 0.04190039 0.04180785 0.04167884 0.04155464 0.04144527 0.04137048 0.04132974
 0.04133265 0.04135509 0.04139565 0.04141477 0.04140294 0.04133929 0.04121697 0.04105055 0.04083906 0.04063013
 0.0404259 0.04025893 0.04012578 0.04000522 0.03989214 0.03974967 0.0395774 0.03935291 0.03908296 0.03876645
 0.03842152 0.03807112 0.03773711 0.03744604 0.0372231 0.03708482 0.03707666 0.03722099 0.03755944 0.03811898
 0.03887835 0.03984095 0.04096194 0.04223049 0.04366421 0.04526208 0.04707459 0.04910358 0.05135851 0.05383594
 0.05650415 0.05936109 0.06238051 0.06556266 0.06889474 0.07237765 0.07600415 0.07978321 0.08372454 0.08783646
 0.09213744 0.09661147 0.1012607 0.1060441 0.110946 0.1159242 0.120963 0.1260332 0.1311295 0.1362159
 0.1412922 0.1462822 0.1511799 0.1559138 0.160482 0.1649425 0.1693075 0.1737464 0.1782344 0.1827567
 0.1872278 0.1913417 0.1950941 0.1983054 0.2010633 0.2034457 0.2054569 0.2071458 0.2084527 0.2093363
 0.2097998 0.2098516 0.2094347 0.2085828 0.2070017 0.2046175 0.2012917 0.1969154 0.1921689 0.1871009
 0.1822288 0.1775713 0.1728792 0.168138 0.1631028 0.1578026 0.1522694 0.1465282 0.1407064 0.1347398
 0.1285867 0.1220918 0.1149273 0.1072082 0.09874784 0.09026589 0.08228248 0.07509603 0.06913874 0.06389178
 0.05926658 0.05485825 0.0505215 0.04625786 0.0420383 0.03800183 0.03416383 0.0305191 0.0270665 0.02367996
 0.02035679 0.01701934 0.01368345 0.01038992 0.007161218 0.004096126 0.001197019 -0.001476126 -0.003947476 -0.006223283
 -0.008338774 -0.01032664 -0.01223261 -0.01408556 -0.01596349 -0.01790989 -0.01998569 -0.02226314 -0.02457132 -0.02691062
 -0.02897467 -0.0306904 -0.03210603 -0.03320931 -0.03424222 -0.03521612 -0.03625215 -0.03734288 -0.03844208 -0.03953815
 -0.04053657 -0.04145226 -0.04228601 -0.04305597 -0.04381483 -0.04454178 -0.04523481 -0.04585176 -0.04633675 -0.04669255
 -0.04689303 -0.04698537 -0.04698768 -0.04693134 -0.04683578 -0.04669562 -0.04651796 -0.04626598 -0.0459405 -0.04546853
 -0.04484433 -0.04399714 -0.04292401 -0.04169101 -0.04031138 -0.03896686 -0.03765723 -0.0364759 -0.03540743 -0.03444467
 -0.03358468 -0.03281888 -0.0321459 -0.03157233 -0.0310616 -0.03059203 -0.03008699 -0.02947694 -0.0287322 -0.02779185
 -0.02676002 -0.02566 -0.02457372 -0.02353955 -0.02251359 -0.02149864 -0.02041754 -0.01926188 -0.01800371 -0.01664156
 -0.01521964 -0.01374096 -0.0122604 -0.010769 -0.009251728 -0.007683323 -0.005968147 -0.00409203 -0.001960206 0.0003892767
 0.00294159 0.005650536 0.008441412 0.01134322 0.01434771 0.01750747 0.02086175 0.02438999 0.02810261 0.03193273
 0.03585544 0.03988677 0.0440123 0.04836889 0.05297068 0.05788824 0.06312486 0.06841797 0.07373846 0.07864068
 0.08312529 0.08697153 0.09020075 0.09278902 0.09471039 0.09590192 0.09631331 0.09582027 0.09443828 0.09210843
 0.08894674 0.08500271 0.08043288 0.0753262 0.06980005 0.06390969 0.05773875 0.05129309 0.04475165 0.03811965
 0.03171399 0.02556638 0.01987838 0.01466209 0.009830137 0.005370182 0.001092394 -0.002996034 -0.006954309 -0.01075277
 -0.01431005 -0.0176237 -0.02063534 -0.02338612 -0.0259138 -0.02826115 -0.03049346 -0.03262704 -0.03469774 -0.03670017
 -0.03864249 -0.04050913 -0.04229682 -0.04399078 -0.04558468 -0.04708163 -0.04847855 -0.04980154 -0.05105265 -0.05225455
 -0.05340861 -0.05449915 -0.05552285 -0.05643058 -0.05722135 -0.05786236 -0.05835978 -0.0587192 -0.05894437 -0.0590486
 -0.05902861 -0.05888406 -0.05861383 -0.05821148 -0.05769248 -0.05705661 -0.05635057 -0.05558695 -0.05484481 -0.054148
 -0.05358218 -0.05317127 -0.05297484 -0.05300825 -0.0532861 -0.05381488 -0.05454995 -0.05548931 -0.05653954 -0.05769531
 -0.05886473 -0.06004516 -0.06117598 -0.06225432 -0.06323801 -0.06412437 -0.06488352 -0.06552117 -0.06603064 -0.06642608
 -0.06672063 -0.06692652 -0.0670578 -0.06712055 -0.06712088 -0.06706399 -0.06695092 -0.06679389 -0.06659286 -0.066374
 -0.06613899 -0.06592555 -0.06573719 -0.06560478 -0.06553035 -0.06551834 -0.06556711 -0.06565503 -0.06577849 -0.0659048
 -0.06603164 -0.06613142 -0.06620789 -0.06625298 -0.06627974 -0.06630424 -0.06634207 -0.06641888 -0.06653987 -0.06672083
 -0.06695091 -0.06723163 -0.06754074 -0.06787216 -0.06820206 -0.06852302 -0.06882221 -0.06909495 -0.06934664 -0.06957678
 -0.0697991 -0.07001442 -0.07022634 -0.07043406 -0.07062681 -0.07080292 -0.07094679 -0.07105758 -0.07112366 -0.07114578
 -0.07111958 -0.07104718 -0.07092983 -0.07077027 -0.07057113 -0.07033746 -0.07007185 -0.0697855 -0.06948325 -0.06917998
 -0.06888209 -0.06859996 -0.06833757 -0.06809922 -0.06788597 -0.06770137 -0.06754591 -0.06742191 -0.06732961 -0.06726485
 -0.06722704 -0.06720662 -0.06720291 -0.06720688 -0.06721854 -0.06723276 -0.06725062 -0.06727161 -0.06729832 -0.06733453
 -0.06738327 -0.06744973 -0.06753518 -0.06764303 -0.06777114 -0.06792004 -0.06808472 -0.06826387 -0.06845177 -0.06864679
 -0.06884509 -0.06904584 -0.06924649 -0.06944676 -0.0696441 -0.06983832 -0.07002968 -0.07021831 -0.07040737 -0.07059646
 -0.07078517 -0.07097187 -0.07114954 -0.07131827 -0.07147335 -0.07161926 -0.0717609 -0.07190384 -0.07205783 -0.07222268
 -0.07240354 -0.07259205 -0.07278615 -0.07297467 -0.07315212 -0.07331466 -0.07345902 -0.073591 -0.07371102 -0.07382482
 -0.07393366 -0.07403347 -0.07412416 -0.07419591 -0.07424831 -0.07427432 -0.07427412 -0.07424533 -0.0741889 -0.07410657
 -0.0740005 -0.0738771 -0.07373799 -0.07358991 -0.07343072 -0.07326142 -0.07307702 -0.07287383 -0.0726478 -0.07239543
 -0.07211518 -0.07180536 -0.07146687 -0.07109946 -0.07070515 -0.07028455 -0.06983709 -0.0693629 -0.06885917 -0.06832562
 -0.06776447 -0.06717624 -0.06657034 -0.06594733 -0.06531558 -0.06467471 -0.06402744 -0.0633735 -0.06271338 -0.06204744
 -0.06137641 -0.06070086 -0.06002128 -0.05933971 -0.05865736 -0.05797796 -0.05730409 -0.05663768 -0.05598073 -0.05533127
 -0.05468976 -0.05405129 -0.05341551 -0.05277577 -0.05213123 -0.05147844 -0.05081702 -0.05015149 -0.04948214 -0.04881492
 -0.04814893 -0.04748118 -0.04680995 -0.04612645 -0.04543046 -0.04471708 -0.04398642 -0.04323632 -0.04246745 -0.04167807
 -0.04087417 -0.0400585 -0.03924143 -0.03843048 -0.0376297 -0.03684378 -0.03606796 -0.03530118 -0.03454234 -0.03378904
 -0.03305541 -0.03234137 -0.03167396 -0.03105484 -0.0305092 -0.03003708 -0.02963974 -0.02931246 -0.02902357 -0.02876668
 -0.02849791 -0.02821699 -0.02789853 -0.02755099 -0.02717627 -0.02678671 -0.02639874 -0.02602019 -0.02566629 -0.02533088
 -0.02501772 -0.02470839 -0.02439602 -0.02406863 -0.02371936 -0.02335388 -0.02297111 -0.02258448 -0.02219542 -0.0218126
 -0.02143676 -0.02107017 -0.02071254 -0.02035835 -0.02000668 -0.0196474 -0.01928146 -0.01890634 -0.01852585 -0.01814839
 -0.01777793 -0.01742464 -0.01709311 -0.01679146 -0.01652763 -0.0163111 -0.01614733 -0.01604405 -0.01599685 -0.01600689
 -0.01606478 -0.01616885 -0.01630918 -0.01648514 -0.01668064 -0.01689476 -0.0171053 -0.01731077 -0.01749421 -0.01765518
 -0.01778751 -0.01789179 -0.01796937 -0.01802101 -0.01805117 -0.01805909 -0.01804535 -0.01800808 -0.01794137 -0.0178513
 -0.01773755 -0.01762284 -0.01752298 -0.01746802 -0.0174809 -0.01757884 -0.017777 -0.01807143 -0.01846718 -0.01894157
 -0.01949415 -0.02008783 -0.02071971 -0.02134871 -0.02197198 -0.02255727 -0.02310329 -0.0235894 -0.02401564 -0.02437184
 -0.02465964 -0.02488034 -0.02503582 -0.02513241 -0.02516955 -0.02514799 -0.02506974 -0.02493314 -0.02475359 -0.0245375
 -0.02431861 -0.02411261 -0.02396678 -0.02390016 -0.02396112 -0.02416697 -0.02454733 -0.02511329 -0.02586098 -0.02679366
 -0.02787913 -0.02911617 -0.03045523 -0.03189303 -0.03336812 -0.03487626 -0.03635626 -0.03780636 -0.03918555 -0.04049616
 -0.04172303 -0.04287047 -0.04393877 -0.0449334 -0.04586116 -0.04672737 -0.04753961 -0.04829948 -0.04900951 -0.04967186
 -0.0502857 -0.05086223 -0.05140376 -0.05192222 -0.05242183 -0.05289905 -0.05335467 -0.0537762 -0.05416251 -0.05451386
 -0.05483082 -0.05512883 -0.05540869 -0.05568431 -0.05595427 -0.05622031 -0.05647932 -0.05672378 -0.05695105 -0.05715184
 -0.05732683 -0.05747188 -0.05759196 -0.05768933 -0.05777081 -0.05784083 -0.05790554 -0.0579691 -0.05803293 -0.05809961
 -0.05816218 -0.05822013 -0.05826479 -0.05829452 -0.0583096 -0.05830989 -0.05829783 -0.05827304 -0.05822463 -0.05815167
 -0.05804015 -0.05789294 -0.05771487 -0.05751051 -0.05729707 -0.05707308 -0.05684432 -0.05660657 -0.05635449 -0.05609094
 -0.05581623 -0.05553462 -0.05525269 -0.05495941 -0.0546552 -0.05431585 -0.05393387 -0.0534947 -0.05299162 -0.05243455
 -0.05182239 -0.05117933 -0.05050677 -0.04982857 -0.04914631 -0.04848845 -0.04785923 -0.04730536 -0.04683264 -0.04649458
 -0.0462889 -0.04624162 -0.04633611 -0.04655634 -0.04687707 -0.0472608 -0.0476807 -0.04810201 -0.04849793 -0.0488428
 -0.04911683 -0.04930317 -0.04940129 -0.04940457 -0.049332 -0.04918474 -0.04898746 -0.04874333 -0.04846933 -0.04816728
 -0.04784009 -0.04748759 -0.04710015 -0.04667755 -0.04621183 -0.04570689 -0.04517424 -0.04462228 -0.04408177 -0.04355758
 -0.04307744 -0.04263292 -0.04222759 -0.04184182 -0.04145809 -0.04106257 -0.04063729 -0.04018941 -0.03971461 -0.03923423
 -0.03875342 -0.03828964 -0.03784771 -0.0374348 -0.03705282 -0.03670126 -0.03638051 -0.03608286 -0.03580778 -0.03554378
 -0.03529075 -0.03504302 -0.03480118 -0.03456568 -0.03433545 -0.03410805 -0.03388099 -0.03364754 -0.03340751 -0.03315726
 -0.03289896 -0.03263405 -0.03236231 -0.03208563 -0.0317977 -0.03149719 -0.03117505 -0.03082723 -0.03045272 -0.03004857
 -0.02962876 -0.02919397 -0.02876258 -0.02833634 -0.02792022 -0.02751423 -0.02711175 -0.02671275 -0.02631477 -0.025918
 -0.02552381 -0.02512873 -0.02472363 -0.02430411 -0.02385319 -0.02337827 -0.02287746 -0.02237333 -0.02188705 -0.02143523
 -0.02104215 -0.02069128 -0.02038692 -0.02008892 -0.01978395 -0.01945247 -0.01908334 -0.01869909 -0.01830012 -0.01791757
 -0.01755481 -0.01721216 -0.01688914 -0.01656141 -0.01622824 -0.01587221 -0.0154962 -0.01510384 -0.01470025 -0.01430293
 -0.01391483 -0.01355249 -0.01321076 -0.01289193 -0.01258301 -0.01227229 -0.01194952 -0.01160211 -0.0112325 -0.01083641
 -0.01042714 -0.01000672 -0.009591177 -0.009184172 -0.008796258 -0.008429789 -0.00808606 -0.007765523 -0.007464825 -0.007183772
 -0.006918611 -0.00666844 -0.006423748 -0.006182732 -0.005930735 -0.005668188 -0.0053886 -0.00509369 -0.004785162 -0.004461117
 -0.004118303 -0.003758634 -0.003377848 -0.002993985 -0.00261633 -0.00226432 -0.001954353 -0.001677392 -0.001438884 -0.001204497
 -0.0009675544 -0.0007050556 -0.0004105 -9.428944E-05 0.0002441836 0.0005752507 0.0008976367 0.001194145 0.001466834 0.001729396
 0.001984749 0.002257061 0.002542132 0.002840674 0.003144634 0.003434918 0.003712817 0.003970331 0.004215665 0.004455651
 0.004692105 0.004928946 0.005164313 0.005398069 0.005629444 0.005860047 0.006080092 0.006288451 0.00647281 0.006629146
 0.006769741 0.00689442 0.0070315 0.007182159 0.007356247 0.007553329 0.007770526 0.008010688 0.008288053 0.008604009
 0.008975071 0.009390106 0.009836317 0.01029624 0.01073737 0.01115229 0.01151832 0.01184411 0.01212594 0.01238291
 0.01262203 0.01286159 0.01310896 0.01337497 0.0136628 0.01398092 0.01433146 0.01471564 0.01513495 0.01556565
 0.01600645 0.01642647 0.01682725 0.01721355 0.01758956 0.01798441 0.01839069 0.01880343 0.01920559 0.0195536
 0.01984757 0.02006182 0.02022193 0.02034357 0.02045176 0.02057312 0.02070813 0.02086866 0.02103048 0.02118979
 0.0213189 0.02140687 0.0214609 0.02147534 0.02150611 0.0215569 0.02168192 0.02188343 0.02215865 0.02250335
 0.02287137 0.02325903 0.02362188 0.02396262 0.02426301 0.02453561 0.02479752 0.02506229 0.02536294 0.0256921
 0.02605604 0.02644028 0.02682749 0.02723849 0.02767516 0.0281716 0.02875475 0.02937334 0.03002546 0.03063526
 0.03117953 0.0317183 0.0322528 0.0328714 0.03357776 0.03436593 0.03522804 0.03607604 0.03690174 0.03761521
 0.03821691 0.038661 0.03895228 0.03907652 0.03904492 0.03886601 0.03855545 0.03813092 0.03760915 0.03700196
 0.03633893 0.03563336 0.03492086 0.03421592 0.03354084 0.03290065 0.03232159 0.03180556 0.03139388 0.03109182
 0.03090402 0.0308303 0.03081049 0.03084076 0.03085662 0.03086085 0.03083635 0.03078646 0.03071519 0.03061939
 0.03049276 0.03033486 0.03014158 0.0299153 0.02966119 0.02936805 0.02903184 0.02863501 0.02816507 0.02762101
 0.0269924 0.02631506 0.02558508 0.02489105 0.02424182 0.02373331 0.02337807 0.02318552 0.02315617 0.0232313
 0.02341015 0.02366878 0.02400814 0.02442848 0.02491622 0.02542445 0.02594249 0.02641611 0.02686016 0.02727443
 0.0276735 0.02807889 0.02848186 0.02888333 0.02927224 0.0296423 0.02998977 0.03031417 0.03060388 0.03085609
 0.03106277 0.03122057 0.03134016 0.03142191 0.03147799 0.03150913 0.03153366 0.03155443 0.03161477 0.0317122
 0.03186312 0.03204696 0.03220025 0.03230947 0.03229936 0.03220057 0.03202001 0.03181123 0.0316403 0.03152888
 0.03152397 0.03159758 0.03175581 0.0319394 0.03213166 0.03227782 0.03235637 0.03236757 0.03230327 0.03221536
 0.03210858 0.03201123 0.03192494 0.03182608 0.03171421 0.03157437 0.03141343 0.03126287 0.03113112 0.03106681
 0.03106739 0.03115936 0.0313154 0.03151284 0.03170291 0.03181975 0.03184099 0.0317148 0.03148257 0.03114858
 0.03076416 0.03035588 0.02992173 0.02946621 0.02897838 0.02845133 0.02792582 0.02740399 0.02693466 0.0265206
 0.0261549 0.02583485 0.02552116 0.02521486 0.02490018 0.02458518 0.02428973 0.02402082 0.02380985 0.02364611
 0.02353221 0.02344013 0.02333429 0.02321094 0.02304449 0.0228764 0.02272259 0.0226125 0.02257071 0.02256458
 0.02259414 0.02261017 0.0226014 0.02256386 0.02249425 0.02242319 0.02235227</values></Ydata></AB><ScSm><Ydata ylabel="Single channel"><values byteorder="INTEL" format="FLOAT32" numvalues="1814"> 0.07191658 0.07191028 0.07197461 0.07213292 0.07235142 0.07255859 0.07269705 0.0727597 0.07276792 0.07272746
 0.07264067 0.07255962 0.07257561 0.07273033 0.07295916 0.0731362 0.07317565 0.07310787 0.07306263 0.07313971
 0.07326873 0.07322986 0.07286121 0.07224698 0.07166217 0.07132024 0.07124209 0.07141709 0.07193463 0.07273073
 0.07330887 0.07309767 0.07216997 0.07126893 0.07098326 0.07118388 0.07137625 0.07127339 0.07088135 0.07037954
 0.0701698 0.07077195 0.07230937 0.07408316 0.07482523 0.07350054 0.07004628 0.06560308 0.06209622 0.06120406
 0.06317267 0.06647986 0.06897955 0.06961328 0.06891337 0.06791599 0.06704982 0.06626932 0.0657717 0.06603631
 0.06715906 0.06840448 0.06858714 0.06708713 0.06458893 0.06259271 0.06204639 0.06275728 0.06419884 0.06608322
 0.06753694 0.06664205 0.06232727 0.05674483 0.05429964 0.05745715 0.06411414 0.06966011 0.07107912 0.06863435
 0.06451969 0.06104169 0.05975272 0.06103932 0.06405722 0.06743006 0.07008137 0.07128243 0.07046711 0.06772461
 0.06428459 0.06192365 0.06187288 0.06433029 0.0684173 0.07226573 0.07387355 0.07258558 0.06952543 0.06640933
 0.06441742 0.06420934 0.06610186 0.06973365 0.07403801 0.07786015 0.08043095 0.08144808 0.08113766 0.08010738
 0.07888383 0.07783172 0.07747822 0.07818362 0.07928889 0.07937138 0.07779545 0.0755612 0.074274 0.07448491
 0.07525186 0.07528459 0.07424974 0.07255912 0.07009578 0.06618964 0.06116173 0.05673344 0.05430684 0.05390057
 0.05517109 0.05795112 0.06104699 0.0621828 0.06049495 0.0581065 0.05801821 0.06090753 0.06478962 0.06744041
 0.0684526 0.06906287 0.07056026 0.07296942 0.07489543 0.07457632 0.07163158 0.06803565 0.0667183 0.06869077
 0.07207726 0.07441897 0.07526137 0.07588045 0.0770537 0.07785957 0.07664339 0.07298763 0.06876357 0.06696985
 0.0691172 0.07371453 0.07735677 0.07725224 0.0730994 0.06713451 0.06238546 0.06058317 0.06170576 0.0651325
 0.0703171 0.0761901 0.08088794 0.08280022 0.08174527 0.07886285 0.07532323 0.07126265 0.06639232 0.06175879
 0.05995547 0.06266561 0.068501 0.07415979 0.07737386 0.07803512 0.07690318 0.07420523 0.06984924 0.06475572
 0.06128614 0.06140929 0.06433351 0.06696084 0.06713004 0.06558057 0.06435561 0.06425422 0.06454067 0.06450573
 0.06446929 0.06522182 0.06689098 0.06864028 0.06948307 0.06918448 0.06829403 0.06750054 0.06701409 0.06642659
 0.06529164 0.06401718 0.06381828 0.06537949 0.06790288 0.06992951 0.07080489 0.0709048 0.07065481 0.06979972
 0.06778735 0.06481281 0.0622406 0.06159234 0.06307311 0.06544432 0.06731337 0.06813435 0.06807028 0.06748804
 0.06671283 0.06592441 0.06520821 0.06477343 0.06489572 0.06551209 0.06614494 0.06638131 0.06620479 0.06577457
 0.06513086 0.0642579 0.06329358 0.06253396 0.06221984 0.06235034 0.06272455 0.06312475 0.06339087 0.06337686
 0.06300334 0.06237703 0.0617267 0.0611968 0.06080078 0.06055418 0.06051346 0.0606581 0.0608408 0.06090508
 0.06080651 0.06059467 0.0603203 0.05999565 0.05963036 0.05927593 0.05902003 0.05891906 0.05892733 0.05893002
 0.05887863 0.05884492 0.05888604 0.0589134 0.05878135 0.05847419 0.05812413 0.05786156 0.05771255 0.05762881
 0.05754966 0.05741428 0.05716041 0.05677538 0.05636178 0.05609928 0.05610028 0.05632919 0.05667007 0.0570115
 0.05725597 0.05733879 0.05728255 0.05717216 0.05704999 0.056885 0.05665589 0.05642029 0.05628952 0.05634503
 0.05656742 0.05684417 0.0570593 0.05716739 0.05718734 0.05717282 0.0571954 0.05729257 0.05741058 0.05745338
 0.05740365 0.05734832 0.0573725 0.05746514 0.05754151 0.05754136 0.05749573 0.05749395 0.05758771 0.05774564
 0.05790615 0.05804868 0.05819755 0.05836979 0.0585321 0.05861673 0.05859389 0.05852045 0.05848795 0.05852744
 0.05860269 0.05869108 0.05882066 0.05901255 0.05922624 0.05939049 0.05947857 0.05953195 0.05960408 0.05969525
 0.05975883 0.0597652 0.05973767 0.05972481 0.05975635 0.05982988 0.05992264 0.06000802 0.06006784 0.06009818
 0.06010666 0.06010312 0.06009163 0.06007741 0.06008407 0.06014818 0.06027641 0.06041459 0.06048188 0.06044383
 0.06034369 0.06025979 0.06023518 0.06024883 0.06025019 0.06021447 0.06015892 0.0601134 0.06009103 0.06008738
 0.06009169 0.06009518 0.06010412 0.06015012 0.06026789 0.06044681 0.06061883 0.06071566 0.06073491 0.060735
 0.06077196 0.06085793 0.06097307 0.06109615 0.06122344 0.06136857 0.06153849 0.06170865 0.06184201 0.06193727
 0.06203582 0.06217612 0.06236547 0.06259347 0.06283902 0.06306269 0.06323016 0.06335424 0.0634864 0.06365895
 0.06385799 0.06405817 0.06425855 0.06447257 0.06470233 0.0649416 0.06519757 0.0654927 0.06584013 0.06622234
 0.06659593 0.06691994 0.06718822 0.06744026 0.06773457 0.06810215 0.06852255 0.06894485 0.06933145 0.0696843
 0.07003148 0.07039118 0.07075707 0.07112361 0.07150982 0.07193787 0.07239629 0.07284827 0.07327529 0.0736926
 0.07412151 0.07456481 0.07501319 0.07546251 0.07591875 0.07638848 0.07686639 0.07733338 0.07777058 0.0781754
 0.07856326 0.07895799 0.07937911 0.07982464 0.08026095 0.08064674 0.08098143 0.08131684 0.08170106 0.08212066
 0.08252184 0.08288378 0.08324237 0.08363684 0.08406122 0.08448365 0.0848918 0.08529991 0.08572114 0.08614742
 0.08655046 0.08689925 0.08718676 0.08744301 0.08771168 0.08801782 0.08836909 0.08877344 0.08922743 0.08969371
 0.09011929 0.09047669 0.09077218 0.09102719 0.09127247 0.09154379 0.09185633 0.09219031 0.09251399 0.0928057
 0.09305018 0.09324686 0.0934365 0.09368512 0.09401874 0.09439957 0.09478363 0.09517239 0.09558408 0.09600478
 0.09640709 0.09680364 0.09723741 0.09771109 0.09816226 0.09852739 0.09880301 0.09902556 0.09922268 0.09941927
 0.09966518 0.1000095 0.1004456 0.1009131 0.1013578 0.1017684 0.1021563 0.1025227 0.1028531 0.1031348
 0.1033682 0.1035653 0.1037452 0.1039364 0.104174 0.104475 0.1048121 0.105126 0.1053707 0.1055356
 0.105623 0.1056326 0.1055835 0.1055284 0.1055112 0.1055117 0.1054524 0.1052619 0.1049192 0.1044415
 0.1038523 0.1031763 0.1024582 0.1017731 0.1012096 0.100841 0.1007094 0.1008354 0.1012278 0.1018671
 0.1026796 0.1035449 0.1043402 0.1049687 0.1053506 0.1054199 0.1051615 0.1046413 0.1039776 0.1032823
 0.1026295 0.1020544 0.1015602 0.1011435 0.1008478 0.1007894 0.1011115 0.1019041 0.1031603 0.1047809
 0.1066003 0.1084279 0.1101087 0.1115751 0.1128458 0.113976 0.1150107 0.1159798 0.1169096 0.1178133
 0.118674 0.1194618 0.1201683 0.1208111 0.1214023 0.1219293 0.1223679 0.1227037 0.1229455 0.1231272
 0.1232921 0.1234657 0.1236489 0.1238383 0.1240379 0.1242383 0.1243967 0.1244522 0.1243649 0.1241443
 0.1238566 0.123627 0.1236292 0.12404 0.1249591 0.1263433 0.128018 0.129766 0.1314167 0.1328726
 0.1340909 0.1350712 0.1358574 0.1365181 0.137112 0.137671 0.1382084 0.1387294 0.1392338 0.1397196
 0.1401888 0.1406477 0.1411058 0.1415695 0.1420322 0.142476 0.142891 0.1432916 0.143706 0.14415
 0.1446119 0.1450641 0.1454919 0.1459098 0.146341 0.1467833 0.1472089 0.1475999 0.1479697 0.1483461
 0.1487475 0.1491743 0.1496065 0.1500124 0.1503737 0.1507045 0.1510358 0.1513838 0.1517427 0.1521007
 0.1524541 0.1528067 0.1531613 0.1535192 0.1538832 0.1542523 0.154609 0.1549257 0.1551946 0.1554448
 0.1557183 0.1560295 0.1563557 0.1566669 0.1569594 0.1572637 0.1576155 0.1580165 0.1584261 0.1587957
 0.1591106 0.1593946 0.1596808 0.1599846 0.1603046 0.1606351 0.160971 0.1613037 0.1616255 0.1619407
 0.1622638 0.1626019 0.1629464 0.1632838 0.1636121 0.1639404 0.1642781 0.1646242 0.1649697 0.1653104
 0.1656524 0.1660007 0.1663457 0.1666681 0.1669587 0.1672241 0.1674792 0.1677396 0.1680177 0.1683176
 0.1686327 0.1689528 0.1692729 0.1695939 0.1699168 0.1702396 0.1705581 0.1708708 0.1711801 0.171489
 0.1717999 0.1721162 0.1724404 0.1727688 0.1730934 0.1734106 0.1737226 0.1740322 0.1743391 0.1746411
 0.1749336 0.1752122 0.175481 0.1757536 0.1760403 0.1763384 0.1766373 0.1769303 0.1772171 0.1775012
 0.1777859 0.1780735 0.1783672 0.1786691 0.178976 0.1792809 0.1795783 0.1798671 0.1801495 0.180432
 0.180724 0.1810303 0.1813458 0.1816607 0.1819682 0.1822658 0.1825554 0.1828434 0.1831356 0.1834335
 0.1837342 0.1840319 0.1843206 0.1846002 0.184879 0.1851658 0.1854629 0.1857661 0.1860678 0.1863616
 0.1866497 0.1869417 0.1872416 0.187544 0.1878455 0.1881504 0.1884626 0.1887804 0.1890993 0.189413
 0.189714 0.1900017 0.1902848 0.1905723 0.1908658 0.1911596 0.1914473 0.1917286 0.1920082 0.1922859
 0.1925555 0.1928166 0.1930778 0.193345 0.1936173 0.1938954 0.194181 0.1944698 0.1947553 0.1950368
 0.1953174 0.1955987 0.1958833 0.1961727 0.1964656 0.196762 0.1970647 0.1973712 0.1976765 0.1979811
 0.1982891 0.1985999 0.1989117 0.1992251 0.1995379 0.1998464 0.2001504 0.2004506 0.2007467 0.2010433
 0.2013452 0.2016487 0.2019488 0.2022502 0.2025554 0.2028566 0.2031496 0.203439 0.2037257 0.2040077
 0.2042897 0.2045764 0.2048664 0.2051619 0.205469 0.2057842 0.2061002 0.2064184 0.206738 0.2070496
 0.2073528 0.2076588 0.2079709 0.2082838 0.2085972 0.20891 0.2092158 0.209513 0.2098022 0.2100675
 0.2102624 0.2102569 0.2097116 0.2079555 0.2039856 0.1966754 0.1852247 0.1696663 0.1510311 0.1309808
 0.1112004 0.09297008 0.07704566 0.06375838 0.05317664 0.04520999 0.03967653 0.03642141 0.03544177 0.0370052
 0.04176939 0.05039129 0.06208188 0.07332927 0.07926503 0.07750741 0.07044268 0.063051 0.05876433 0.05780976
 0.0587106 0.06022254 0.06196288 0.06416194 0.06720213 0.07118662 0.07592705 0.08142041 0.08807892 0.09620997
 0.1053904 0.1146401 0.1232653 0.1314047 0.1397032 0.1485368 0.1576191 0.1662851 0.1740218 0.1807256
 0.1866013 0.191929 0.1969057 0.2016259 0.2061362 0.2104314 0.2143594 0.2175851 0.2197504 0.2207435
 0.2208285 0.220499 0.2201886 0.220101 0.2202558 0.2206149 0.2211462 0.2218278 0.2226443 0.2235754
 0.224581 0.2256125 0.2266363 0.2276361 0.2285997 0.229514 0.2303658 0.2311436 0.2318475 0.2324937
 0.2330978 0.2336607 0.2341807 0.2346673 0.2351355 0.2355942 0.2360442 0.2364773 0.2368806 0.2372463
 0.2375783 0.2378891 0.2381935 0.2385024 0.2388151 0.2391196 0.2394097 0.239695 0.2399913 0.2403053
 0.2406326 0.2409626 0.2412853 0.241596 0.2418966 0.2421904 0.2424799 0.2427704 0.2430685 0.2433767
 0.2436945 0.2440214 0.2443516 0.2446718 0.2449718 0.2452547 0.2455357 0.2458298 0.2461412 0.2464605
 0.2467782 0.2470993 0.2474341 0.2477794 0.2481234 0.2484646 0.2488096 0.249161 0.2495185 0.2498801
 0.2502294 0.2505396 0.2508037 0.2510506 0.2513244 0.2516502 0.2520164 0.2523865 0.252735 0.2530673
 0.2533999 0.2537339 0.254057 0.2543608 0.2546514 0.2549578 0.2553174 0.2557347 0.2561706 0.2565884
 0.2569863 0.2573741 0.2577532 0.2581286 0.2585028 0.2588496 0.2591338 0.2593701 0.2596398 0.2600305
 0.2605507 0.2611092 0.2615979 0.26199 0.2623391 0.262706 0.2631199 0.2635576 0.2639135 0.2640688
 0.2640726 0.2641805 0.2646178 0.2653509 0.2661535 0.2668405 0.2673817 0.2678378 0.2682571 0.2686245
 0.26888 0.2689886 0.2690223 0.2691709 0.2696133 0.2703356 0.2711248 0.2717794 0.2722641 0.2726409
 0.2729619 0.2732609 0.2734967 0.2734842 0.2730894 0.2725717 0.2725136 0.2732539 0.2745079 0.2756758
 0.2764391 0.2769184 0.2773339 0.2777342 0.2780684 0.278233 0.2779305 0.2768384 0.2752341 0.2741727
 0.2746134 0.2764509 0.27869 0.2804403 0.2814785 0.2820306 0.2823843 0.2826978 0.2828852 0.2826204
 0.2816988 0.2805267 0.2800279 0.2807897 0.2823976 0.2838785 0.2847021 0.2850666 0.2853685 0.2857544
 0.2860253 0.2856028 0.2838596 0.2810497 0.2787687 0.2788313 0.2814959 0.2851509 0.2879104 0.2892313
 0.289752 0.2899016 0.2892693 0.2873474 0.2843006 0.2808864 0.2782165 0.2776091 0.2797157 0.2834267
 0.2865019 0.2877847 0.2881778 0.2891544 0.2909966 0.2928194 0.2937188 0.293467 0.2923469 0.2906526
 0.2885525 0.2865525 0.2857781 0.2871787 0.2903752 0.2937914 0.2961103 0.297275 0.297802 0.2972412
 0.2938671 0.2867543 0.2783707 0.2738905 0.2766227 0.284546 0.2924796 0.2971799 0.2991149 0.30002
 0.3005772 0.3002293 0.2975111 0.2908557 0.2810617 0.2728312 0.2715884 0.2781188 0.2876823 0.2944358
 0.2954117 0.2908328 0.2830649 0.2759116 0.2730558 0.2758255 0.2826177 0.2904834 0.296893 0.3004238
 0.3007486 0.298507 0.2952506 0.2930566 0.2930245 0.2936427 0.2919332 0.2872069 0.2822126 0.2791073
 0.2761297 0.270868 0.2655474 0.2655541 0.2724309 0.2813005 0.2863429 0.2866879 0.2853755 0.2838205
 0.2794011 0.269245 0.2556743 0.2463093 0.2474049 0.2573663 0.2681723 0.2732214 0.2725791 0.2706403
 0.2702574 0.2698382 0.2656152 0.2565677 0.2469031 0.2425236 0.2447581 0.2491685 0.2508042 0.2481756
 0.241541 0.2312717 0.22062 0.2167462 0.2246661 0.241087 0.2569999 0.2651159 0.262543 0.2491367
 0.2284267 0.2096563 0.2032914 0.211676 0.2262014 0.2352461 0.2334127 0.2224662 0.2063102 0.1882944
 0.172729 0.165386 0.1700264 0.1845622 0.2012216 0.2104824 0.2063228 0.1908256 0.1744475 0.1685004
 0.1749439 0.185104 0.1894142 0.1860863 0.1797462 0.1754037 0.1755265 0.1797157 0.1851773 0.1893107
 0.1917773 0.1916431 0.1845921 0.1681588 0.1487297 0.1373436 0.1381981 0.1464986 0.1573466 0.1700967
 0.182568 0.188049 0.1828687 0.1733686 0.1705123 0.1782465 0.190115 0.197156 0.1967855 0.1932496
 0.191063 0.1901701 0.1882295 0.1858808 0.1869582 0.1931216 0.2008875 0.2054892 0.2058346 0.2040821
 0.2020004 0.1996525 0.1966259 0.1928046 0.1882689 0.183408 0.1788287 0.1747137 0.1707053 0.1665395
 0.1620544 0.156355 0.1480361 0.1372501 0.1269764 0.1207303 0.1189192 0.1189937 0.1192219 0.1197987
 0.1194117 0.1141317 0.102647 0.09065452 0.08673351 0.09406631 0.1080716 0.1215617 0.1300878 0.1322781
 0.1278693 0.1183607 0.1093236 0.1086084 0.1198041 0.1387142 0.1578979 0.1731166 0.1836737 0.1887881
 0.1871344 0.1798514 0.1716602 0.168192 0.1726076 0.1841313 0.1981603 0.2073348 0.2051636 0.1925931
 0.1810439 0.1839777 0.2026426 0.2238378 0.2347419 0.2359443 0.2361055 0.2385071 0.2394873 0.2380387
 0.239571 0.2485079 0.2617581 0.2717434 0.2730192 0.2643954 0.2482264 0.2309507 0.2214112 0.2237785
 0.2328506 0.2397519 0.2405565 0.2357737 0.2250586 0.2093209 0.1962613 0.1957578 0.2083741 0.2240225
 0.2334127 0.2364825 0.2382288 0.2401165 0.2384022 0.2299126 0.2173427 0.207565 0.2048094 0.2069528
 0.2090735 0.2086376 0.2056097 0.1995791 0.1899738 0.1789716 0.1715268 0.171156 0.176485 0.1827413
 0.1862246 0.1867488 0.1863379 0.1867468 0.1882837 0.1900726 0.1913594 0.1931766 0.1981292 0.2073551
 0.2183366 0.2273404 0.233682 0.2399149 0.2478713 0.2560792 0.2614615 0.2626434 0.2613005 0.2607939
 0.2635231 0.2689943 0.2741502 0.2759822 0.2744083 0.2726195 0.2741329 0.279413 0.2857804 0.2904236
 0.2926816 0.2935003 0.2938323 0.2938834 0.293065 0.2905478 0.2867059 0.2839603 0.2850986 0.2904628
 0.2975114 0.3032742 0.306623 0.3081441 0.3086163 0.308163 0.3066618 0.3044785 0.302495 0.3014483
 0.3014469 0.30215 0.3031805 0.3042671 0.3052145 0.3059277 0.3064201 0.306745 0.3069734 0.307218
 0.3075623 0.3079522 0.3082622 0.3084984 0.3088406 0.3094212 0.310131 0.3107154 0.3109933 0.3108816
 0.3102778 0.3090903 0.3073935 0.3054044 0.3032559 0.300928 0.2985203 0.2965372 0.2957385 0.2965848
 0.2988154 0.3016054 0.304131 0.3059812 0.3071417 0.3077758 0.3080832 0.3082508 0.3084031 0.308562
 0.3086781 0.3087037 0.3086342 0.3084908 0.3082961 0.3080827 0.3079031 0.3077949 0.3077357 0.3076534
 0.3074811 0.3071961 0.3068221 0.3064092 0.3059923 0.3055485 0.3050007 0.3042737 0.3033522 0.3022903
 0.3011792 0.3000977 0.2990682 0.2980435 0.2969462 0.2957204 0.2943375 0.2927656 0.2909933 0.289103
 0.2872662 0.2856121 0.2841209 0.2826692 0.2811427 0.2794821 0.2776718 0.2757348 0.2737216 0.2716745
 0.2696043 0.2675035 0.2653638 0.2631755 0.2609229 0.2585882 0.2561627 0.253661 0.2511181 0.2485609
 0.2459677 0.2432484 0.240265 0.2368774 0.2329775 0.2284966 0.2234184 0.2178192 0.21189 0.2058943
 0.2000878 0.1946614 0.1897297 0.1853496 0.1815553 0.1783845 0.1758842 0.1741014 0.1730723 0.1728095
 0.173293 0.1744694 0.1762533 0.1785283 0.1811529 0.183964 0.1867774 0.1894152 0.1917762 0.193887
 0.1958629 0.1978021 0.1997192 0.2015689 0.2033095 0.2049231 0.2063866 0.2076627 0.2087303 0.2096025
 0.2103034 0.2108501 0.2112634 0.2115731 0.211808 0.2119994 0.2121971 0.2124661 0.2128632 0.2134168
 0.2141165 0.2149183 0.2157668 0.2166184 0.2174452 0.2182263 0.2189404 0.2195638 0.2200856 0.2205317
 0.22097 0.2214987 0.2222427 0.2233486 0.2249401 0.2270605 0.2296547 0.2325872 0.2356662 0.2386772
 0.2414345 0.2438165 0.2457717 0.2473076 0.2484706 0.2493203 0.2499156 0.2503101 0.2505403 0.2506173
 0.2505442 0.250336 0.2500165 0.2496059 0.2491176 0.2485581 0.2479332 0.2472608 0.2465699 0.2458798
 0.2451891 0.244489 0.2437788 0.2430656 0.2423545 0.241637 0.2408904 0.2400993 0.2392691 0.2384112
 0.237523 0.2365871 0.2355733 0.2344385 0.2331424 0.2316701 0.2300275 0.2282192 0.2262481 0.2241423
 0.2219772 0.2198705 0.2179347 0.2162128 0.2146522 0.213135 0.2115209 0.2096896 0.2075972 0.2053106
 0.2029623 0.2006635 0.1984598 0.1963465 0.1942991 0.192304 0.1903758 0.1885426 0.1868116 0.1851614
 0.1835671 0.1820218 0.1805383 0.1791391 0.177845 0.1766735 0.1756392 0.1747465 0.1739792 0.173308
 0.1727067 0.1721583 0.1716655 0.1712606 0.1709751 0.1707846 0.1706037 0.1703493 0.169993 0.169558
 0.1690911 0.168638 0.1682244 0.1678531 0.1675076 0.1671424 0.1666786 0.16603 0.1651336 0.1639468
 0.1624417 0.1606257 0.1585659 0.1563866 0.1542411 0.1522645 0.1505365 0.1490857 0.1479135 0.1469892
 0.1462416 0.1455939 0.1450187 0.1445546 0.1442706 0.1441899 0.1442214 0.1442014 0.1440533 0.1438796
 0.1438618 0.1441001 0.1445637 0.1451418 0.1457067 0.1461664 0.1464849 0.1466607 0.1467066 0.1466503
 0.1465136 0.14629 0.1459721 0.1455809 0.1451413 0.1446553 0.1441227 0.1435483 0.1429199 0.1422129
 0.1414141 0.1405208 0.139541 0.1384948 0.1373776 0.1361479 0.1348266 0.1335951 0.1327276 0.1324161
 0.132656 0.1332633 0.1340154 0.1348038 0.1355906 0.1362108 0.136409 0.1362242 0.1362002 0.1369876
 0.1387135 0.140848 0.1426809 0.1438249 0.1442668 0.1441266 0.1435104 0.142488 0.1410413 0.1390793
 0.1366027 0.1337725 0.1307715 0.1277305 0.1248014 0.1221432 0.1198407 0.1179257 0.1164118 0.1153374
 0.1148071 0.114447 0.112473 0.1066244 0.0976556 0.09089062 0.09174939 0.09963753 0.1083501 0.1126295
 0.1123691 0.110424 0.1087694 0.1077244 0.1072068 0.1073485 0.1082461 0.1097268 0.1113832 0.1128051
 0.1138175 0.1144268 0.1145492 0.1138348 0.1116411 0.1072289 0.1003583 0.09185249 0.08333509 0.07628207
 0.07136449 0.06848499 0.06709545 0.06650393 0.06619976 0.06608555 0.06640597 0.06743352 0.06922244 0.07164303
 0.07453893 0.07770505 0.08076456 0.08330925 0.08522429 0.08670077 0.08789533 0.08874738 0.0891441 0.08909516
 0.08870927 0.08810899 0.0873931 0.08661214 0.08574624 0.08473493 0.08358774 0.08248293 0.08167931 0.08127844
 0.08114782 0.08110923 0.08109513 0.08109657 0.08109121 0.08106752 0.08104131 0.08105095 0.08117527 0.08148652
 0.08194166 0.08239304 0.08272788 0.08294293 0.08309408 0.08319552 0.08313694 0.08276469 0.08214048 0.08157927
 0.0812377 0.0808199 0.07996057 0.07879826 0.07789917 0.07764903 0.07791896 0.07829694 0.07846861 0.07837166
 0.07815805 0.07810225 0.07842259 0.0790286</values></Ydata></ScSm><ScRf><Ydata ylabel="Single channel"><values byteorder="INTEL" format="FLOAT32" numvalues="1820"> 0.06076102 0.06091774 0.06101163 0.06104344 0.0610397 0.06104732 0.06111524 0.06126356 0.06146453 0.06165546
 0.06178172 0.06183407 0.06183618 0.06180264 0.06173921 0.06168574 0.06171479 0.06186101 0.06207007 0.0622333
 0.06227522 0.06222139 0.0621849 0.06225458 0.06237373 0.06235567 0.0620592 0.06155152 0.06106537 0.0607843
 0.06072744 0.06088646 0.06134161 0.06204391 0.06256741 0.0624112 0.06162475 0.06084372 0.06058512 0.06075349
 0.06093078 0.06086441 0.06054733 0.06012597 0.05994732 0.06046592 0.06179477 0.06333402 0.06398875 0.06286441
 0.05990716 0.05609993 0.05309677 0.05233889 0.05404179 0.05690245 0.0590746 0.05964194 0.0590599 0.05822117
 0.05749207 0.05682689 0.05639357 0.05661237 0.05757653 0.05865624 0.05882433 0.05753902 0.05538945 0.05367382
 0.05321309 0.05384063 0.0551 0.05673992 0.05800313 0.05723251 0.05350533 0.0486859 0.04658643 0.04934165
 0.05512996 0.05995341 0.06119282 0.059076 0.05551302 0.05251285 0.05142035 0.05255905 0.05518862 0.05812042
 0.06043017 0.06148671 0.06079429 0.05843007 0.05546383 0.05343502 0.05340582 0.05554545 0.05909532 0.06244054
 0.06384648 0.06274059 0.06009144 0.05738826 0.05566358 0.05549911 0.05717181 0.06036308 0.06414096 0.06749996
 0.06977037 0.07068478 0.0704352 0.0695533 0.06850632 0.06761529 0.06733376 0.06797027 0.06895201 0.06904262
 0.06768794 0.0657567 0.06464615 0.06483847 0.06551781 0.0655637 0.06468529 0.06323705 0.06110832 0.05770588
 0.05331225 0.04944529 0.04734028 0.04700907 0.04814574 0.05060982 0.05336141 0.05439704 0.05294396 0.05086043
 0.05079114 0.05334567 0.05678522 0.05914652 0.06006127 0.06061921 0.06196636 0.06413116 0.06587885 0.06564312
 0.06307919 0.05993364 0.05880766 0.06060307 0.06365699 0.06578974 0.06660466 0.06723829 0.06837408 0.06917974
 0.06817539 0.06499232 0.06130902 0.05980844 0.06183907 0.06606469 0.06943472 0.06943884 0.06579678 0.06052197
 0.05635405 0.05486163 0.05602763 0.05930121 0.06420346 0.06977138 0.07430312 0.07630607 0.07557713 0.07313406
 0.07005025 0.06645744 0.06209335 0.05795094 0.05648648 0.0593021 0.0650944 0.07073787 0.07407074 0.0749717
 0.07414532 0.07178935 0.06780183 0.06308377 0.05996344 0.06038562 0.06356676 0.06644072 0.06686748 0.06558354
 0.0646247 0.06479034 0.06534443 0.0655794 0.06583266 0.0669167 0.06895509 0.07107569 0.07225164 0.07223235
 0.07158789 0.07104765 0.07083821 0.07051784 0.06960407 0.06854343 0.06865375 0.07067557 0.07374598 0.07628317
 0.07757163 0.07801765 0.07808334 0.07747404 0.07556269 0.07256834 0.07003406 0.06967968 0.07173501 0.07479361
 0.07727119 0.07854785 0.07881851 0.07850934 0.07798675 0.07744406 0.07697389 0.07682755 0.07734597 0.07846913
 0.07962646 0.08030732 0.08048187 0.08034395 0.07994046 0.07924487 0.07842506 0.07784883 0.07781468 0.07832643
 0.07914437 0.08000014 0.08068576 0.08100992 0.08087011 0.08040465 0.07991129 0.07957435 0.07939881 0.07939844
 0.07965961 0.08016975 0.08073225 0.08113107 0.08130552 0.08132425 0.08125839 0.08112866 0.08094439 0.0807604
 0.08068621 0.08080798 0.08108396 0.08137052 0.08159161 0.08181362 0.08209064 0.08231629 0.08233242 0.08214271
 0.08192223 0.08183002 0.08188315 0.08200251 0.0821031 0.08210838 0.08193859 0.08157955 0.08117825 0.0809878
 0.08116454 0.08165696 0.08229885 0.08292924 0.08341507 0.08367617 0.08374554 0.08373249 0.08369231 0.08358606
 0.08338314 0.08315828 0.08306876 0.0832375 0.08364428 0.08413349 0.08453906 0.08478741 0.08489552 0.08493836
 0.08502183 0.08519997 0.08539359 0.08546524 0.08539517 0.08531649 0.08535491 0.08548568 0.08557487 0.08553821
 0.08543691 0.08541251 0.08553758 0.08575466 0.08596192 0.08612669 0.08629596 0.08650932 0.08671517 0.08679108
 0.08667274 0.08644839 0.08627721 0.08622363 0.08623463 0.08627339 0.08638588 0.08660266 0.08684607 0.08699529
 0.08702128 0.08701021 0.08705001 0.08712464 0.08713862 0.08702989 0.08683638 0.08665797 0.08657556 0.08660436
 0.08669762 0.08678174 0.08679935 0.08673733 0.08662376 0.08649862 0.08638953 0.0863204 0.08633552 0.08648241
 0.08674076 0.08698253 0.087047 0.08688165 0.08660056 0.08638559 0.08632356 0.0863416 0.0862982 0.08612403
 0.08586747 0.08562141 0.08543532 0.08530022 0.08518873 0.08509063 0.08502582 0.08503798 0.08515361 0.08532104
 0.08541086 0.08532046 0.08507743 0.08481102 0.08462939 0.08455241 0.0845411 0.08454837 0.08455197 0.08457145
 0.08463739 0.08472432 0.08475186 0.08467944 0.08456451 0.0845046 0.08455823 0.08472537 0.08494799 0.08511742
 0.08514304 0.0850425 0.08492768 0.08488904 0.08492806 0.0850027 0.08509126 0.08519192 0.08529592 0.08539463
 0.08550534 0.08566566 0.08589497 0.08616664 0.08642012 0.08660252 0.08670959 0.08679684 0.08694425 0.08719499
 0.08751985 0.08784156 0.08809665 0.08828099 0.08843888 0.08860953 0.08879453 0.08898702 0.08921202 0.08950414
 0.08985126 0.09019659 0.09050103 0.09077475 0.09104563 0.09132388 0.09160748 0.09190774 0.09225665 0.09267721
 0.09313583 0.09353899 0.09380615 0.09394908 0.09406594 0.0942627 0.0945811 0.09497017 0.09531008 0.0955029
 0.09557456 0.09565946 0.09585459 0.09612068 0.09636405 0.09658182 0.09686832 0.09728147 0.09775273 0.09814879
 0.09840111 0.09855797 0.09871697 0.09891904 0.09911704 0.09924819 0.09931925 0.09939606 0.09951994 0.09967959
 0.09987479 0.1001538 0.1005466 0.1009945 0.1013916 0.1016796 0.1018728 0.1020111 0.1021215 0.1022102
 0.1022648 0.102279 0.1022862 0.1023372 0.1024332 0.1025177 0.1025557 0.1025849 0.1026656 0.1028176
 0.1030325 0.1033078 0.1036286 0.1039432 0.1042109 0.1044681 0.1047898 0.1051709 0.1054973 0.1056694
 0.1057124 0.1057238 0.1057499 0.1057776 0.1058239 0.1059555 0.1062096 0.1065469 0.1069028 0.1072515
 0.1076015 0.1079528 0.1082733 0.1085099 0.1086226 0.1086188 0.1085625 0.1085474 0.1086518 0.1088985
 0.1092404 0.1095898 0.1098728 0.1100582 0.1101377 0.1101164 0.1100441 0.110025 0.11014 0.110352
 0.11052 0.1105162 0.1103074 0.1099269 0.1094087 0.1087772 0.1080809 0.1074054 0.10684 0.1064385
 0.1062182 0.1061952 0.106403 0.1068538 0.1074878 0.1081864 0.1088389 0.1093685 0.1096937 0.1097183
 0.1093997 0.1088042 0.1080683 0.1073161 0.1066206 0.1060021 0.1054325 0.1048731 0.1043556 0.1040236
 0.1040658 0.1046042 0.1056334 0.1070275 0.1085769 0.1100512 0.1112889 0.112262 0.1130537 0.1137658
 0.1144498 0.1151184 0.1157845 0.116452 0.1170855 0.1176339 0.1180926 0.1185086 0.1189201 0.1193178
 0.1196664 0.1199446 0.1201654 0.1203704 0.1205894 0.1207902 0.1208957 0.12087 0.1207621 0.1206447
 0.1205328 0.1203799 0.1201308 0.1197651 0.1193228 0.1189217 0.1187417 0.1189535 0.119623 0.1206712
 0.121933 0.1232588 0.1245524 0.1257259 0.1266774 0.1273487 0.1277816 0.1280845 0.1283518 0.128629
 0.1289263 0.1292373 0.1295462 0.1298388 0.1301142 0.1303904 0.1306947 0.131037 0.1313872 0.1316939
 0.1319383 0.1321622 0.1324324 0.1327785 0.1331654 0.1335306 0.13385 0.1341565 0.1344814 0.1347964
 0.1350425 0.1352104 0.1353597 0.1355616 0.1358496 0.1362135 0.1366049 0.1369505 0.1371992 0.1373689
 0.1375275 0.1377266 0.1379662 0.138219 0.1384647 0.1386995 0.13893 0.1391738 0.1394545 0.1397742
 0.1400908 0.1403417 0.1405069 0.1406335 0.1407883 0.1409932 0.1412181 0.1414265 0.1416171 0.1418252
 0.1420873 0.1424004 0.1427141 0.1429698 0.1431507 0.1432884 0.1434276 0.1435908 0.1437762 0.1439747
 0.1441804 0.1443885 0.1445923 0.1447894 0.1449863 0.145193 0.1454121 0.1456371 0.1458583 0.1460703
 0.1462731 0.1464695 0.1466681 0.1468893 0.1471563 0.1474656 0.1477741 0.1480289 0.1482113 0.1483439
 0.1484602 0.1485828 0.1487232 0.1488872 0.1490738 0.149277 0.1494904 0.1497083 0.149923 0.1501278
 0.1503229 0.150517 0.1507194 0.1509314 0.151149 0.1513726 0.1516056 0.1518422 0.1520657 0.1522645
 0.1524445 0.152623 0.152813 0.1530147 0.1532172 0.15341 0.1535936 0.1537778 0.1539704 0.1541694
 0.1543669 0.1545586 0.1547475 0.1549403 0.1551407 0.1553482 0.1555604 0.1557721 0.1559739 0.1561606
 0.1563381 0.1565173 0.156704 0.1568988 0.1571014 0.1573083 0.1575128 0.1577119 0.1579102 0.1581137
 0.1583222 0.1585306 0.1587341 0.1589328 0.1591294 0.159325 0.1595181 0.1597089 0.1599004 0.1600938
 0.1602883 0.1604857 0.1606884 0.160895 0.1611029 0.1613118 0.1615237 0.1617401 0.1619604 0.1621795
 0.1623909 0.1625954 0.1628025 0.1630178 0.163238 0.1634585 0.1636794 0.1639 0.1641144 0.164315
 0.1644979 0.1646666 0.164829 0.1649919 0.1651584 0.1653312 0.1655118 0.1656975 0.1658866 0.1660832
 0.166289 0.1664952 0.1666928 0.1668844 0.16708 0.167286 0.1674991 0.1677099 0.1679126 0.1681132
 0.168321 0.1685338 0.1687419 0.1689431 0.1691432 0.1693465 0.1695547 0.1697669 0.1699784 0.1701855
 0.1703913 0.1705993 0.170808 0.1710157 0.171223 0.1714282 0.1716323 0.1718429 0.172063 0.1722843
 0.1724993 0.1727084 0.1729122 0.1731119 0.1733148 0.1735271 0.1737456 0.1739651 0.1741827 0.1743933
 0.1745953 0.174797 0.1750056 0.1752194 0.1754355 0.1756529 0.1758665 0.1760752 0.1762878 0.1765082
 0.1767299 0.1769483 0.1771613 0.1773518 0.1774752 0.177418 0.1768985 0.1753609 0.1719638 0.1657497
 0.15603 0.1428251 0.1270105 0.110005 0.09324804 0.07782486 0.0643647 0.05313425 0.04418495 0.03744349
 0.03276437 0.0300205 0.02920245 0.03052241 0.03452548 0.04176503 0.05158368 0.06103455 0.06602613 0.06455046
 0.0586053 0.05237658 0.04875938 0.0479544 0.0487176 0.04998912 0.05143744 0.053262 0.05579953 0.05914446
 0.06313255 0.06775174 0.07334527 0.08017288 0.08787864 0.09563586 0.1028597 0.1096702 0.1166147 0.1240104
 0.1316139 0.1388674 0.1453451 0.1509602 0.1558783 0.1603315 0.1644896 0.1684354 0.1722033 0.1757799
 0.1790329 0.1816852 0.1834476 0.1842368 0.1842778 0.1839804 0.1837017 0.1836074 0.183713 0.1839885
 0.1844075 0.1849493 0.1856006 0.1863481 0.1871618 0.1880002 0.1888327 0.1896429 0.1904168 0.1911432
 0.1918191 0.1924427 0.1930101 0.1935201 0.1939769 0.1943901 0.1947756 0.1951498 0.1955191 0.1958809
 0.1962311 0.1965631 0.1968654 0.1971333 0.1973759 0.1976063 0.1978295 0.1980428 0.1982438 0.1984361
 0.1986313 0.1988398 0.1990596 0.199281 0.1994983 0.1997105 0.1999145 0.2001088 0.2002978 0.2004879
 0.2006814 0.2008796 0.201084 0.2012913 0.2014912 0.2016751 0.2018441 0.2020088 0.2021807 0.2023647
 0.2025602 0.2027659 0.2029776 0.2031861 0.2033869 0.2035899 0.2038078 0.2040372 0.2042641 0.2044823
 0.2046946 0.2049014 0.2051019 0.2052981 0.2054864 0.2056548 0.2057998 0.2059433 0.2061223 0.2063558
 0.2066208 0.2068689 0.207072 0.2072463 0.2074251 0.2076214 0.207823 0.2080117 0.208183 0.2083583
 0.2085718 0.2088305 0.2091041 0.2093647 0.2096128 0.209855 0.2100882 0.210313 0.2105331 0.2107321
 0.2108854 0.2110059 0.2111561 0.2114002 0.2117408 0.2121085 0.2124234 0.2126675 0.2128846 0.2131243
 0.2134048 0.2136944 0.2138985 0.2139266 0.2138318 0.2138304 0.2141069 0.2146322 0.215217 0.2157033
 0.2160593 0.216335 0.2165816 0.2168055 0.2169638 0.2170103 0.2169755 0.2170017 0.217247 0.2177217
 0.2182657 0.2187158 0.2190379 0.2192757 0.2194658 0.2196326 0.2197459 0.2196623 0.219274 0.2187843
 0.2186614 0.2191878 0.2201452 0.2210492 0.221628 0.2219648 0.2222387 0.2225026 0.2227207 0.2227997
 0.2224895 0.221536 0.2201782 0.2192739 0.2195885 0.2210261 0.222784 0.2241539 0.2249609 0.2253791
 0.2256289 0.2258329 0.2259226 0.2256398 0.224832 0.2238418 0.2234153 0.2240077 0.2252691 0.2264208
 0.2270515 0.2273239 0.2275458 0.2278268 0.228013 0.2276497 0.2262349 0.2239641 0.2221062 0.2221123
 0.2241958 0.2270739 0.2292355 0.2302418 0.2306097 0.2306951 0.230169 0.2286103 0.2261418 0.223378
 0.2212227 0.220735 0.2224279 0.2253998 0.2278484 0.2288468 0.229123 0.2298671 0.2313174 0.2327692
 0.2334884 0.2332823 0.2323802 0.2310256 0.2293529 0.2277635 0.2271587 0.228299 0.2308739 0.2336097
 0.2354469 0.2363503 0.2367563 0.2363199 0.2336516 0.2279875 0.2212883 0.2177006 0.2198917 0.2262622
 0.2326669 0.2364907 0.2380844 0.2388283 0.2392775 0.2390018 0.2368368 0.231523 0.2236931 0.2171202
 0.2161647 0.2214597 0.2291977 0.2346858 0.2355361 0.231917 0.2257241 0.2200194 0.2177698 0.2200457
 0.225562 0.2319494 0.2371746 0.2400971 0.2404546 0.2387478 0.2362071 0.2345019 0.2345321 0.2350969
 0.2338086 0.2301155 0.2262255 0.2238633 0.2215973 0.2174791 0.2133179 0.2134863 0.219237 0.226605
 0.230863 0.2313139 0.2304348 0.2293688 0.2259762 0.2179205 0.2070951 0.1997115 0.20087 0.2092645
 0.2183443 0.2227268 0.2224747 0.2211803 0.2211755 0.2211512 0.2179973 0.2108627 0.2032365 0.2000233
 0.2023269 0.2064667 0.2083418 0.2066996 0.2017032 0.1936295 0.1852327 0.1825927 0.18999 0.2046756
 0.2190192 0.2267868 0.2254246 0.2147066 0.1976321 0.1822648 0.1778118 0.1863762 0.2004009 0.2096176
 0.2091969 0.2006157 0.1872754 0.1721773 0.1593199 0.1541393 0.1602624 0.1758257 0.1934718 0.2039877
 0.2014059 0.1876825 0.1731449 0.1690601 0.1773471 0.1892235 0.1950222 0.1929571 0.1877524 0.184591
 0.1861366 0.1920224 0.199231 0.2049381 0.2087706 0.2096221 0.2026235 0.1849922 0.163786 0.1512533
 0.1521179 0.1611702 0.1730574 0.1870879 0.2008345 0.2068427 0.2010324 0.1904157 0.1871125 0.1954792
 0.2083864 0.2159445 0.2152941 0.2111122 0.2084065 0.2071935 0.2050007 0.2026306 0.2043583 0.212025
 0.2218177 0.2285313 0.2309832 0.2315243 0.2320535 0.2325792 0.2325753 0.2318549 0.2304934 0.2289562
 0.2279519 0.2276327 0.2274498 0.2269733 0.2258775 0.2227089 0.2151937 0.203444 0.1919952 0.1862094
 0.1865865 0.1891483 0.1913534 0.1935711 0.1935577 0.1849109 0.1655261 0.1445289 0.1356299 0.1438738
 0.1618859 0.1782809 0.1863834 0.1847949 0.1739977 0.1565695 0.1398956 0.1338399 0.1426959 0.1610715
 0.179652 0.1932196 0.2012274 0.2033435 0.1984755 0.1879442 0.1767488 0.1707049 0.1729081 0.1823772
 0.194376 0.2016243 0.1978693 0.1841113 0.1713288 0.1723622 0.188436 0.2071023 0.2162341 0.2163002
 0.2154036 0.2166937 0.2168219 0.2148041 0.215562 0.2231837 0.2349213 0.2439015 0.245164 0.2376263
 0.2234433 0.208489 0.2008193 0.2041827 0.2136962 0.2211012 0.2227228 0.2189816 0.2095294 0.1952976
 0.1836545 0.1839746 0.1967848 0.2125375 0.2224626 0.226558 0.2296078 0.2329406 0.2328145 0.2260873
 0.2154715 0.2078624 0.2075227 0.2123606 0.2174804 0.2203426 0.2207844 0.218098 0.2114806 0.2033694
 0.1994544 0.2037297 0.2143376 0.2252756 0.2317374 0.2331104 0.2315748 0.2292758 0.2268828 0.2237592
 0.2193869 0.2152157 0.2143865 0.2183809 0.2246645 0.2292881 0.2314077 0.233573 0.2377201 0.2425075
 0.2449523 0.2436858 0.2402514 0.2377542 0.2383707 0.2416248 0.2447412 0.2450121 0.2423719 0.2397008
 0.2401712 0.2442227 0.2494947 0.2535201 0.255736 0.2569762 0.258029 0.2589406 0.2589734 0.2571616
 0.2536836 0.2506565 0.2506319 0.2540635 0.2588777 0.2626217 0.2644469 0.2649558 0.2648386 0.2641561
 0.2627503 0.2609026 0.2593468 0.2586824 0.2589433 0.2597552 0.2607265 0.2616127 0.2622932 0.2627604
 0.2630866 0.2633264 0.2634853 0.2635799 0.2636386 0.2636324 0.2635112 0.263344 0.2633201 0.2635443
 0.2638957 0.2641505 0.2641791 0.263947 0.2633941 0.2624512 0.2611746 0.2597344 0.258222 0.2565842
 0.2548626 0.2534585 0.2530102 0.2539066 0.2559218 0.2583582 0.2605298 0.2621035 0.263078 0.2635922
 0.2638046 0.2638592 0.2638528 0.2638076 0.2636942 0.2634873 0.2631936 0.2628381 0.2624457 0.2620438
 0.2616713 0.2613626 0.2611138 0.2608711 0.2605603 0.2601345 0.2596053 0.2590351 0.2584839 0.2579465
 0.2573473 0.2566112 0.255733 0.2547782 0.2538382 0.2529836 0.2522268 0.2515118 0.2507577 0.2499188
 0.2489856 0.2479449 0.2467924 0.2455961 0.2444965 0.243604 0.2429068 0.2422947 0.2416506 0.2409056
 0.2400393 0.2390687 0.2380342 0.2369693 0.2358759 0.2347366 0.2335371 0.2322717 0.2309361 0.2295268
 0.2280422 0.2264864 0.2248805 0.2232549 0.2216065 0.2198631 0.2179018 0.2155911 0.212812 0.2094685
 0.2055266 0.2010576 0.1962363 0.1912828 0.186396 0.181725 0.1773884 0.1734984 0.1701573 0.1674365
 0.1653711 0.1639739 0.163255 0.1632331 0.1639205 0.165292 0.1672657 0.1697165 0.1724988 0.1754551
 0.1784178 0.1812309 0.1837987 0.1861295 0.1883109 0.190414 0.1924245 0.1942776 0.1959342 0.1973912
 0.1986443 0.1996854 0.2005318 0.2012256 0.2018017 0.2022752 0.2026592 0.2029827 0.2032809 0.2035683
 0.2038309 0.2040486 0.2042236 0.2043796 0.2045442 0.2047399 0.2049858 0.2052975 0.2056857 0.2061488
 0.2066645 0.2072004 0.2077438 0.2083122 0.2089284 0.2095986 0.2103268 0.2111398 0.2120825 0.213187
 0.2144469 0.2158164 0.2172243 0.2185853 0.2198105 0.220825 0.2215854 0.2220854 0.2223498 0.2224257
 0.2223609 0.2221818 0.2218972 0.2215212 0.2210777 0.2205796 0.2200209 0.2193952 0.2187128 0.2179962
 0.2172692 0.2165531 0.2158617 0.2151926 0.2145274 0.2138528 0.2131795 0.2125292 0.2119074 0.2113041
 0.2107182 0.210157 0.2096135 0.2090664 0.2085043 0.2079209 0.2072857 0.2065497 0.2056961 0.2047575
 0.2037681 0.2027168 0.2015637 0.2002893 0.1989076 0.1974432 0.195912 0.1943227 0.1926796 0.1909748
 0.1891834 0.1872812 0.1852821 0.1832529 0.1812808 0.1794228 0.1776908 0.1760743 0.1745631 0.1731522
 0.1718319 0.1705775 0.1693559 0.1681541 0.1669943 0.165908 0.1649042 0.1639721 0.1631032 0.1623016
 0.1615817 0.1609589 0.1604336 0.1599872 0.1595963 0.1592502 0.1589619 0.1587663 0.1586905 0.1587117
 0.1587603 0.1587733 0.1587271 0.1586252 0.1584873 0.1583487 0.158241 0.1581704 0.1581221 0.1580687
 0.1579563 0.1576937 0.1571704 0.156302 0.1550757 0.1535551 0.1518354 0.1500108 0.1481907 0.1465043
 0.1450571 0.1438968 0.1430191 0.1423722 0.1418682 0.1414364 0.1410756 0.1408467 0.14082 0.141003
 0.1412861 0.1414949 0.1415508 0.1415574 0.141699 0.1420868 0.142709 0.1434643 0.1442263 0.1449077
 0.1454704 0.1458828 0.1461227 0.1462218 0.1462434 0.1462124 0.1461112 0.145927 0.145665 0.145344
 0.1449904 0.1446063 0.1441541 0.1436008 0.1429453 0.1421915 0.1413461 0.1404281 0.1394211 0.1382688
 0.1370054 0.1358457 0.1350804 0.1349056 0.1353347 0.1361966 0.1372421 0.1383116 0.1393333 0.1401397
 0.140493 0.1404603 0.1406192 0.141655 0.1437052 0.1461994 0.1483673 0.1498093 0.150539 0.1506631
 0.1502285 0.1492802 0.1478397 0.1458652 0.14337 0.1404933 0.1373916 0.13421 0.1311684 0.1284885
 0.1262528 0.1244454 0.1230361 0.1220531 0.1216342 0.1214233 0.1195273 0.1135117 0.1041748 0.09721277
 0.09841034 0.1071321 0.1167851 0.1217777 0.1219528 0.1202797 0.1188064 0.1178413 0.1172891 0.1173127
 0.118046 0.1193262 0.1207477 0.1219119 0.1226646 0.1230484 0.1230184 0.1222051 0.1198597 0.1151247
 0.1077271 0.09855796 0.08936071 0.08172087 0.07636012 0.07316165 0.07151979 0.07068811 0.07014138 0.06982738
 0.07005873 0.07113011 0.07307111 0.07573576 0.0789616 0.08250351 0.08592533 0.08879236 0.09099667 0.09273625
 0.09416531 0.09521101 0.0957397 0.09575254 0.09537259 0.09474188 0.09398302 0.09318151 0.09232077 0.09128064
 0.09001829 0.08875057 0.08783013 0.08740988 0.08733384 0.08736113 0.08737108 0.08734833 0.08730282 0.08724262
 0.08717094 0.0871214 0.08720347 0.08753093 0.08807167 0.08863331 0.08902158 0.08918529 0.0892086 0.08915296
 0.08890747 0.08830412 0.08743896 0.08668151 0.08619284 0.08563201 0.08460352 0.08327167 0.08225545 0.08195455
 0.08219779 0.08253512 0.08266525 0.08255102 0.08233469 0.08227105 0.08258419 0.08319615 0.08367887 0.08365209
</values></Ydata></ScRf><Data_Parameters_AB><parameter name="DPF">1</parameter><parameter name="NPT">3497</parameter><parameter name="FXV">3996</parameter><parameter name="LXV">500</parameter><parameter name="CSF">1</parameter><parameter name="MXY">0.209851637482643</parameter><parameter name="MNY">-0.0997220203280449</parameter><parameter name="DAT">31/05/2022</parameter><parameter name="TIM">14:00:58.990 (GMT+2)</parameter><parameter name="DXU">WN</parameter></Data_Parameters_AB><AB__Qtest><MainReport name="Quality Test Report"><Header><Line><Legend>Test result ok/not ok [1/0]: </Legend><Value>0</Value></Line><Line><Legend>Method file: </Legend><Value>C:\Users\Public\Documents\Bruker\OPUS_8.2.28\QT\IRBT_v3_default.QT</Value></Line></Header><Matrix><Line><Legend></Legend><Legend>min</Legend><Legend>max</Legend><Legend>measured</Legend></Line><Line><Value>Absorption (X-Range 1):</Value><Value>0.400000</Value><Value>2.000000</Value><Value>0.175726</Value></Line><Line><Value>Noise (X-Range 4):</Value><Value></Value><Value>0.000300</Value><Value>0.000067</Value></Line><Line><Value>Signal/Noise (X-Range 2):</Value><Value>200.000000</Value><Value></Value><Value>60.085120</Value></Line><Line><Value>Signal/Noise (X-Range 3):</Value><Value>40.000000</Value><Value></Value><Value>33.532588</Value></Line><Line><Value>Water vapour (X-Range 5):</Value><Value></Value><Value>0.000300</Value><Value>0.000108</Value></Line><Line><Value>Signal/Water (X-Range 2):</Value><Value>100.000000</Value><Value></Value><Value>37.344518</Value></Line><Line><Value>Signal/Water (X-Range 3):</Value><Value>20.000000</Value><Value></Value><Value>20.841405</Value></Line><Line><Value>Fringes (X-Range 6):</Value><Value></Value><Value>0.000100</Value><Value>0.000062</Value></Line></Matrix></MainReport></AB__Qtest><Data_Parameters_ScSm><parameter name="DPF">1</parameter><parameter name="NPT">1814</parameter><parameter name="FXV">3996.33169228125</parameter><parameter name="LXV">499.541461535156</parameter><parameter name="CSF">1</parameter><parameter name="MXY">0.31099334359169</parameter><parameter name="MNY">0.0354417748749256</parameter><parameter name="DAT">31/05/2022</parameter><parameter name="TIM">14:00:58.990 (GMT+2)</parameter><parameter name="DXU">WN</parameter></Data_Parameters_ScSm><Data_Parameters_ScRf><parameter name="DPF">1</parameter><parameter name="NPT">1820</parameter><parameter name="FXV">4004.04661832813</parameter><parameter name="LXV">495.683998511719</parameter><parameter name="CSF">1</parameter><parameter name="MXY">0.264955818653107</parameter><parameter name="MNY">0.0292024500668049</parameter><parameter name="DAT">31/05/2022</parameter><parameter name="TIM">14:00:33.137 (GMT+2)</parameter><parameter name="DXU">WN</parameter></Data_Parameters_ScRf><Optic_Parameters_Rf><parameter name="APR">0</parameter><parameter name="APT">Open</parameter><parameter name="BMS">KBr</parameter><parameter name="DTC">RT-DLaTGS_IR-Biotyper [Microplate reader]</parameter><parameter name="HPF">0</parameter><parameter name="LPF">10.0</parameter><parameter name="LPV">4000</parameter><parameter name="PGR">0</parameter><parameter name="RCH">Module port</parameter><parameter name="RDX">0</parameter><parameter name="SRC">MIR</parameter><parameter name="VEL">10.0</parameter><parameter name="SON">Off</parameter></Optic_Parameters_Rf><Acquisition_Parameters_Rf><parameter name="ADT">1</parameter><parameter name="AQM">DD</parameter><parameter name="CFE">0</parameter><parameter name="COR">0</parameter><parameter name="DEL">0</parameter><parameter name="DLY">0</parameter><parameter name="HFW">8000</parameter><parameter name="LFW">0</parameter><parameter name="NSR">32</parameter><parameter name="PLF">AB</parameter><parameter name="RES">6</parameter><parameter name="RGN">-1</parameter><parameter name="STR">0</parameter><parameter name="TCL">MakeCompatibleScalar (0, {WSV=1.000000, ARV=0});</parameter><parameter name="TDL">37</parameter><parameter name="RPO">0</parameter></Acquisition_Parameters_Rf><FT_-_Parameters_Rf><parameter name="APF">B3</parameter><parameter name="HFQ">500</parameter><parameter name="LFQ">4000</parameter><parameter name="NLI">0</parameter><parameter name="PHR">24</parameter><parameter name="PHZ">ML</parameter><parameter name="SPZ">NO</parameter><parameter name="ZFF">1</parameter></FT_-_Parameters_Rf><Optic_Parameters_><parameter name="APR">0</parameter><parameter name="APT">Open</parameter><parameter name="BMS">KBr</parameter><parameter name="CHN">Module port</parameter><parameter name="DTC">RT-DLaTGS_IR-Biotyper [Microplate reader]</parameter><parameter name="HPF">0</parameter><parameter name="LPF">10.0</parameter><parameter name="LPV">4000</parameter><parameter name="PGN">0</parameter><parameter name="RDX">0</parameter><parameter name="SRC">MIR</parameter><parameter name="VEL">10.0</parameter><parameter name="SON">Off</parameter></Optic_Parameters_><FT_-_Parameters_><parameter name="APF">B3</parameter><parameter name="HFQ">500</parameter><parameter name="LFQ">4000</parameter><parameter name="NLI">0</parameter><parameter name="PHR">24</parameter><parameter name="PHZ">ML</parameter><parameter name="SPZ">NO</parameter><parameter name="ZFF">1</parameter></FT_-_Parameters_><Acquisition_Parameters_><parameter name="ADT">1</parameter><parameter name="AQM">DD</parameter><parameter name="CFE">0</parameter><parameter name="COR">0</parameter><parameter name="DEL">0</parameter><parameter name="DLY">0</parameter><parameter name="HFW">8000</parameter><parameter name="LFW">0</parameter><parameter name="NSS">32</parameter><parameter name="PLF">AB</parameter><parameter name="RES">6</parameter><parameter name="SOT">0</parameter><parameter name="TCL">MakeCompatibleScalar (0, {WSV=1.000000, ARV=0});</parameter><parameter name="TDL">37</parameter><parameter name="SPO">0</parameter><parameter name="SGN">-1</parameter></Acquisition_Parameters_><Instrument_Parameters_Rf><parameter name="HFL">15800.168544</parameter><parameter name="LFL">0</parameter><parameter name="LWN">15800.168544</parameter><parameter name="ABP">32197</parameter><parameter name="SSP">1</parameter><parameter name="ARG">2</parameter><parameter name="ASG">2</parameter><parameter name="ASS">32</parameter><parameter name="GFW">16</parameter><parameter name="GBW">16</parameter><parameter name="BFW">0</parameter><parameter name="BBW">0</parameter><parameter name="PKA">7263</parameter><parameter name="PKL">4996</parameter><parameter name="PRA">7447</parameter><parameter name="PRL">5001</parameter><parameter name="P2A">1</parameter><parameter name="P2L">1</parameter><parameter name="P2R">1</parameter><parameter name="P2K">1</parameter><parameter name="DAQ">0</parameter><parameter name="AG2">1</parameter><parameter name="SSM">1</parameter><parameter name="RSN">25739</parameter><parameter name="CRR">0</parameter><parameter name="SRT">1654005633.137</parameter><parameter name="DUR">19.6379852294922</parameter><parameter name="TSC">29</parameter><parameter name="MVD">0.210012823343277</parameter><parameter name="AN1">0.225803814534933</parameter><parameter name="AN2">0</parameter><parameter name="VSN">2.485 Apr  4 2017</parameter><parameter name="SRN">0085</parameter><parameter name="CAM">0</parameter><parameter name="INS">IR-Biotyper</parameter><parameter name="FOC">69</parameter><parameter name="RDY">1</parameter><parameter name="ARS">32</parameter></Instrument_Parameters_Rf><Sample_Parameters_><parameter name="BLD"></parameter><parameter name="CNM">Admin</parameter><parameter name="CPY"></parameter><parameter name="DPM"></parameter><parameter name="EXP">IRBT_v3_32Scans.XPM</parameter><parameter name="LCT"></parameter><parameter name="SFM">Microplate, HTS-XT</parameter><parameter name="SNM">220531-1301_MGM31F (D_4)_A7_7029ec49-d8e7-452f-a879-f9b8e06fc766.0</parameter><parameter name="XPP">C:\Users\Public\Documents\Bruker\OPUS_8.2.28\XPM</parameter><parameter name="IST">OK</parameter><parameter name="CPG">1252</parameter><parameter name="UID">5b06c516-695a-445f-81fc-a76391222866</parameter></Sample_Parameters_><Instrument_Parameters_><parameter name="HFL">15800.168544</parameter><parameter name="LFL">0</parameter><parameter name="LWN">15800.168544</parameter><parameter name="ABP">32197</parameter><parameter name="SSP">1</parameter><parameter name="ASG">2</parameter><parameter name="ARG">2</parameter><parameter name="ASS">32</parameter><parameter name="GFW">16</parameter><parameter name="GBW">16</parameter><parameter name="BFW">0</parameter><parameter name="BBW">0</parameter><parameter name="PKA">7862</parameter><parameter name="PKL">4988</parameter><parameter name="PRA">8129</parameter><parameter name="PRL">4993</parameter><parameter name="P2A">1</parameter><parameter name="P2L">1</parameter><parameter name="P2R">1</parameter><parameter name="P2K">1</parameter><parameter name="DAQ">0</parameter><parameter name="AG2">1</parameter><parameter name="SSM">1</parameter><parameter name="RSN">13495</parameter><parameter name="CRR">0</parameter><parameter name="SRT">1654005658.99</parameter><parameter name="DUR">19.6379852294922</parameter><parameter name="TSC">29</parameter><parameter name="MVD">0.296360969543457</parameter><parameter name="AN1">0.225827003592406</parameter><parameter name="AN2">0</parameter><parameter name="VSN">2.485 Apr  4 2017</parameter><parameter name="SRN">0085</parameter><parameter name="CAM">0</parameter><parameter name="INS">IR-Biotyper</parameter><parameter name="FOC">69</parameter><parameter name="RDY">1</parameter></Instrument_Parameters_><History/></OPUSDataFile>
