<?xml version="1.0" encoding="UTF-8" ?>
<OPUSDataFile><AB><Ydata ylabel="Absorbance Units"><values byteorder="INTEL" format="FLOAT32" numvalues="3497"> -0.07609963 -0.0760905 -0.07609332 -0.07610912 -0.07612307 -0.07613441 -0.07612794 -0.0761043 -0.07606662 -0.07601777
 -0.07597658 -0.07594356 -0.07593215 -0.07593726 -0.07595407 -0.07597712 -0.07599351 -0.0760059 -0.07601015 -0.07601658
 -0.07603236 -0.07606316 -0.07611667 -0.07618432 -0.07626671 -0.0763474 -0.07642214 -0.07648209 -0.07652417 -0.07655291
 -0.07656813 -0.07657896 -0.07658589 -0.07659236 -0.07659816 -0.07660113 -0.07660148 -0.07659901 -0.07659502 -0.07659425
 -0.07659718 -0.0766081 -0.07662496 -0.07664688 -0.07667053 -0.07669178 -0.0767087 -0.07671802 -0.07672064 -0.07671548
 -0.07670635 -0.0766939 -0.07668311 -0.0766754 -0.0766734 -0.07667795 -0.07668844 -0.07670482 -0.07672755 -0.07675666
 -0.07679544 -0.07684375 -0.07690076 -0.0769649 -0.07702605 -0.07708338 -0.0771272 -0.07716062 -0.07718583 -0.07720679
 -0.07723249 -0.07726103 -0.07729539 -0.07732788 -0.07735305 -0.07736654 -0.07736254 -0.07734708 -0.07732043 -0.07729097
 -0.07726145 -0.07723369 -0.07720813 -0.0771867 -0.07716876 -0.07716805 -0.07718525 -0.07723963 -0.07733089 -0.077462
 -0.07762709 -0.07779358 -0.07795253 -0.07804973 -0.07809006 -0.07805212 -0.0779592 -0.07784025 -0.0777136 -0.07761414
 -0.07754333 -0.07751614 -0.07752082 -0.07755703 -0.07760675 -0.07766277 -0.07771513 -0.07775813 -0.07779774 -0.07783394
 -0.07787416 -0.07792 -0.07796441 -0.07800712 -0.07803449 -0.07804695 -0.07804765 -0.07803944 -0.07804272 -0.0780578
 -0.07809863 -0.07815919 -0.07823302 -0.07831155 -0.07837559 -0.07842533 -0.07845082 -0.07846276 -0.07846762 -0.07847004
 -0.07847694 -0.0784799 -0.07847654 -0.07846301 -0.07843448 -0.07840817 -0.07838415 -0.07839245 -0.07843705 -0.07852949
 -0.07867122 -0.07880292 -0.07891952 -0.07892562 -0.07883196 -0.07865833 -0.07842378 -0.07821393 -0.07802992 -0.0779184
 -0.07787 -0.07789345 -0.07796908 -0.07808153 -0.0782025 -0.07830223 -0.07836927 -0.07838132 -0.07836598 -0.07832699
 -0.0782955 -0.07828533 -0.07828704 -0.07830313 -0.07830609 -0.07829171 -0.0782619 -0.07821621 -0.07818767 -0.07817735
 -0.07820871 -0.07827709 -0.07836549 -0.0784651 -0.07853089 -0.07856359 -0.07853761 -0.07846964 -0.07837684 -0.0782728
 -0.07818363 -0.07810698 -0.07804964 -0.07800633 -0.07797367 -0.07795585 -0.07795276 -0.07797237 -0.07801843 -0.07808707
 -0.07818052 -0.07827736 -0.07837641 -0.07845117 -0.07849996 -0.07850499 -0.07846649 -0.07838544 -0.07826477 -0.07812356
 -0.07796546 -0.07781439 -0.07767249 -0.07755737 -0.07746875 -0.07741552 -0.0773923 -0.07739896 -0.07742199 -0.07745181
 -0.07747345 -0.07747299 -0.07745251 -0.07740558 -0.0773546 -0.07730369 -0.07727281 -0.07726799 -0.07728636 -0.07732926
 -0.07737979 -0.07743705 -0.0774853 -0.07752401 -0.07754296 -0.07754301 -0.07752353 -0.07748799 -0.07744928 -0.07741067
 -0.07738799 -0.07738003 -0.07739332 -0.07742154 -0.07745965 -0.0775024 -0.07754001 -0.07758195 -0.07762659 -0.07769867
 -0.07780989 -0.07796752 -0.07818458 -0.07841442 -0.07865567 -0.07883553 -0.0789435 -0.07896238 -0.07888991 -0.07875227
 -0.07855065 -0.07830352 -0.07801471 -0.07771704 -0.07741851 -0.0771694 -0.07697256 -0.07686359 -0.07683427 -0.0768935
 -0.07701273 -0.0771646 -0.07731458 -0.0774183 -0.07747486 -0.07746682 -0.0774181 -0.07733446 -0.07723401 -0.0771239
 -0.07700806 -0.07688892 -0.07676221 -0.07662746 -0.07648388 -0.07633123 -0.07617845 -0.07602652 -0.07589295 -0.0757788
 -0.07570262 -0.07566021 -0.07564907 -0.07565522 -0.07563832 -0.07559439 -0.07548963 -0.07534792 -0.07518706 -0.07502269
 -0.07488141 -0.07474744 -0.07462164 -0.07447878 -0.07430508 -0.07410022 -0.07385742 -0.07360193 -0.07333736 -0.07308207
 -0.07284012 -0.0726037 -0.07237296 -0.07211987 -0.07184373 -0.07152921 -0.07118125 -0.07082891 -0.07047629 -0.07015824
 -0.06986884 -0.06960917 -0.06937452 -0.06915694 -0.06895358 -0.06876255 -0.06856757 -0.06835841 -0.06810847 -0.06779502
 -0.06741693 -0.06696463 -0.06645904 -0.06590758 -0.06530681 -0.06465693 -0.06395425 -0.06319545 -0.06241294 -0.0616084
 -0.06081605 -0.06003681 -0.05928438 -0.05855885 -0.05786864 -0.05721226 -0.05659098 -0.05599729 -0.05541185 -0.05482838
 -0.05422523 -0.05360291 -0.05295814 -0.05227863 -0.05155702 -0.05076933 -0.04988806 -0.04893905 -0.04791667 -0.04688726
 -0.04587421 -0.04489098 -0.04394744 -0.04301861 -0.04210234 -0.04118337 -0.04026023 -0.03933446 -0.03840673 -0.03749182
 -0.03659063 -0.03572098 -0.03487516 -0.03403641 -0.03318377 -0.03224471 -0.03122184 -0.03006937 -0.02884308 -0.02760091
 -0.02637361 -0.02522134 -0.02411518 -0.02305594 -0.02200996 -0.02095933 -0.01989901 -0.01882118 -0.01774223 -0.01666439
 -0.01559868 -0.01454844 -0.01350071 -0.01245548 -0.01137669 -0.01026316 -0.009093005 -0.007871053 -0.006624569 -0.005359179
 -0.004115838 -0.002890811 -0.001694921 -0.0005219402 0.0006351073 0.001779833 0.002918815 0.004056724 0.005202266 0.006350594
 0.007504321 0.008647011 0.009767627 0.01087454 0.01196066 0.01307359 0.01422268 0.01543358 0.01671616 0.01802048
 0.01934442 0.0206236 0.02185686 0.02303623 0.02416606 0.02527598 0.02637004 0.02748229 0.02861153 0.02977558
 0.03096267 0.03215906 0.03335445 0.03452329 0.03567913 0.03682024 0.0379766 0.03917103 0.04040706 0.04169947
 0.04301247 0.04433886 0.04564995 0.04693686 0.04819777 0.04943056 0.05064543 0.05184257 0.05304218 0.05424526
 0.05547143 0.0567195 0.05798961 0.05927815 0.0605691 0.0618604 0.06313751 0.06440146 0.06564526 0.06687672
 0.06810094 0.06933159 0.07058547 0.07186358 0.07317644 0.07450341 0.07583889 0.07716371 0.07846913 0.07975432
 0.08101702 0.08226357 0.08349436 0.08471534 0.08592681 0.08713809 0.08834942 0.08956347 0.09077936 0.09198914
 0.09319463 0.09439897 0.09560625 0.09683304 0.09807438 0.09933147 0.1005907 0.101833 0.1030526 0.1042342
 0.1053867 0.1065089 0.1076181 0.1087209 0.1098331 0.1109637 0.1121071 0.1132673 0.1144123 0.1155382
 0.1166269 0.1176756 0.1187086 0.1197274 0.1207627 0.1218133 0.1228807 0.1239624 0.1250476 0.1261364
 0.1272246 0.1283101 0.1293865 0.1304526 0.1315021 0.1325413 0.1335745 0.1346035 0.1356333 0.1366544
 0.1376626 0.1386563 0.1396322 0.1406018 0.1415678 0.1425314 0.1434944 0.1444416 0.145372 0.1462707
 0.147137 0.1479621 0.1487476 0.1495008 0.1502286 0.1509672 0.1517213 0.1525294 0.1533792 0.1542684
 0.1551744 0.1560623 0.1569248 0.1577373 0.1585143 0.1592556 0.1599824 0.1607042 0.1614351 0.1621832
 0.1629461 0.163727 0.164506 0.1652807 0.1660368 0.1667726 0.1674965 0.1682089 0.1689212 0.1696327
 0.1703391 0.1710393 0.1717253 0.1723973 0.1730519 0.1736888 0.1743044 0.1749023 0.1754844 0.1760599
 0.1766399 0.177225 0.1778224 0.1784179 0.1790068 0.1795772 0.1801227 0.1806435 0.1811375 0.1816114
 0.1820647 0.1825114 0.1829522 0.1834074 0.1838776 0.1843703 0.1848838 0.1854069 0.1859384 0.1864671
 0.1869926 0.1875096 0.1880152 0.1885001 0.1889634 0.1893975 0.1898109 0.1902086 0.190599 0.1909919
 0.1913829 0.1917741 0.1921536 0.1925178 0.1928599 0.1931767 0.1934728 0.1937477 0.1940131 0.1942703
 0.1945233 0.1947719 0.1949999 0.1952063 0.195373 0.1955039 0.1956067 0.1956894 0.1957807 0.1958844
 0.1960234 0.1961936 0.1964011 0.1966354 0.1968897 0.1971504 0.1974038 0.1976498 0.1978786 0.1981184
 0.1983749 0.1986765 0.1990375 0.1994304 0.1998598 0.200239 0.2005614 0.200758 0.2008267 0.2007875
 0.2006483 0.2004956 0.2003321 0.2002197 0.2001479 0.2001136 0.2001131 0.2001314 0.2001827 0.2002861
 0.2004399 0.2006626 0.200908 0.2011531 0.201352 0.2014653 0.201517 0.2014953 0.2014809 0.2014895
 0.201576 0.2017555 0.2020071 0.2023331 0.2026573 0.2029757 0.2032092 0.2033584 0.2033948 0.2033315
 0.2032146 0.203064 0.2029676 0.2029325 0.2030234 0.2032209 0.2035325 0.2039161 0.2043355 0.2047476
 0.2051071 0.2054043 0.2056136 0.2057749 0.2058903 0.2060193 0.206176 0.2063944 0.2066825 0.207046
 0.2074859 0.2080077 0.2086117 0.2093002 0.2100681 0.2108708 0.2116916 0.2124218 0.2130478 0.2134586
 0.2136763 0.2136779 0.2135322 0.2133248 0.2131256 0.2130503 0.2130979 0.213324 0.213638 0.2140211
 0.214358 0.2146039 0.2147011 0.2146198 0.214392 0.2140118 0.2135689 0.2130697 0.2125951 0.2121488
 0.2117508 0.2113977 0.2110599 0.2107358 0.2103996 0.2100579 0.2097189 0.2093873 0.2090837 0.2087932
 0.2085113 0.208199 0.2078172 0.2073279 0.2066841 0.2058922 0.2049303 0.2038635 0.2027019 0.2015275
 0.200361 0.1992493 0.1982041 0.1972303 0.1963307 0.1954847 0.194691 0.193905 0.1931239 0.1922982
 0.1914333 0.1905281 0.1896 0.1887091 0.1878598 0.187102 0.1864042 0.1857456 0.185084 0.1843585
 0.1835698 0.1826847 0.181765 0.1808241 0.1799443 0.1791604 0.1785059 0.1780071 0.1776002 0.1772892
 0.1769359 0.176529 0.1759621 0.1752303 0.174352 0.1733372 0.1723025 0.1712548 0.1702956 0.1694154
 0.1686373 0.1679452 0.1673152 0.166735 0.1661778 0.16563 0.1650688 0.1644802 0.1638442 0.1631628
 0.1624266 0.161662 0.1608732 0.1600928 0.1593304 0.1585996 0.1579062 0.1572371 0.1565927 0.1559435
 0.1552882 0.1546022 0.153886 0.1531375 0.1523608 0.1515761 0.1507875 0.150021 0.1492743 0.1485582
 0.147862 0.1471755 0.1464866 0.1457766 0.1450438 0.1442779 0.1434915 0.1426869 0.1418794 0.1410762
 0.1402804 0.1394954 0.1387144 0.1379365 0.13716 0.1363843 0.1356151 0.1348525 0.1340954 0.1333425
 0.1325806 0.1318097 0.1310216 0.1302201 0.1294139 0.1286057 0.1278076 0.1270167 0.126234 0.1254558
 0.1246765 0.1239004 0.1231256 0.1223689 0.1216346 0.1209491 0.1203234 0.1197699 0.1193014 0.1188757
 0.1184959 0.1180645 0.1175733 0.1169454 0.1161767 0.1152897 0.1142926 0.1132932 0.1122999 0.1114194
 0.1106438 0.1100104 0.1094895 0.109038 0.108615 0.1081333 0.1075773 0.1068817 0.1060934 0.1052146
 0.1043295 0.1034881 0.1027231 0.1020705 0.1014785 0.1009426 0.1004103 0.09986507 0.09933812 0.09882767
 0.09841347 0.09809969 0.09790863 0.09783312 0.09779096 0.09776749 0.09763253 0.09738603 0.09694891 0.09635226
 0.09562152 0.09480352 0.0939889 0.09319534 0.09248754 0.09183519 0.09123613 0.09065977 0.09007931 0.08951509
 0.08896524 0.08846541 0.08803209 0.08764143 0.0872972 0.08693343 0.08654182 0.0861109 0.08563966 0.08519641
 0.08478428 0.08446544 0.08423179 0.08406869 0.08396215 0.08385278 0.08373799 0.08357973 0.08338802 0.08316287
 0.0829125 0.08265015 0.08236872 0.08207273 0.08173543 0.08134615 0.08087687 0.08030859 0.07965392 0.07890136
 0.07812823 0.07734025 0.07663451 0.0760236 0.0755356 0.07517289 0.0748579 0.07458376 0.07423567 0.07381647
 0.07327861 0.07264367 0.07196201 0.07125524 0.07060493 0.07000784 0.06950118 0.06905736 0.06866097 0.06828355
 0.06789602 0.06748706 0.06703941 0.06656347 0.06605493 0.06554403 0.06503581 0.06456217 0.06413258 0.06373959
 0.06338681 0.06301543 0.06262229 0.06215583 0.06161846 0.06103299 0.06040845 0.05981638 0.05925302 0.05874858
 0.05828081 0.0578087 0.0573209 0.0567707 0.05618197 0.05555911 0.05494013 0.05436064 0.05383226 0.05337636
 0.0529733 0.0526207 0.05230025 0.05200427 0.05173667 0.05149625 0.05129473 0.05113446 0.05100693 0.05091198
 0.0508099 0.0506978 0.05052513 0.05029297 0.04997843 0.04959295 0.04916263 0.04870565 0.0482785 0.04789405
 0.04760145 0.04739886 0.04730625 0.04730822 0.04740125 0.04756434 0.04778606 0.04804884 0.04834392 0.04865996
 0.04899247 0.0493357 0.04968703 0.05005068 0.05042508 0.0508363 0.05128554 0.05181991 0.05244137 0.05318912
 0.05405873 0.05504524 0.05613605 0.0572826 0.05847386 0.0596569 0.06083102 0.06197039 0.06308076 0.06415953
 0.06521067 0.06623635 0.06724004 0.0682226 0.06919238 0.07015291 0.0711092 0.07206689 0.07300836 0.07393583
 0.07480291 0.0756068 0.07629156 0.07685363 0.0772578 0.07750434 0.07759286 0.07752708 0.07732882 0.07700357
 0.07657862 0.07606748 0.07550934 0.07493405 0.07440504 0.07395726 0.0736605 0.07352395 0.07358644 0.07381799
 0.07421628 0.07473981 0.07537083 0.07608821 0.07688263 0.07774801 0.07868387 0.07967469 0.08072052 0.08178922
 0.08287911 0.0839472 0.08499039 0.08595568 0.08683952 0.08758997 0.08820951 0.08867634 0.08900262 0.08920921
 0.08930285 0.08931547 0.08921897 0.08900794 0.08860905 0.08796917 0.08700516 0.08564877 0.08387592 0.08164149
 0.07903134 0.07603802 0.07284683 0.06947673 0.06614245 0.06286766 0.05980904 0.0569785 0.05442467 0.05214525
 0.0501015 0.04828703 0.04664075 0.04516054 0.04380786 0.04258005 0.04145481 0.04042096 0.03945044 0.03853093
 0.03763258 0.03676046 0.03590348 0.03508684 0.03432094 0.03362853 0.03302391 0.0325073 0.03208387 0.03173722
 0.03146513 0.03125583 0.03110668 0.03102468 0.03100997 0.03108012 0.03123438 0.031465 0.03176202 0.0320572
 0.03233309 0.03248122 0.03249786 0.03230836 0.03194263 0.03140985 0.03076467 0.0300743 0.02938886 0.02877412
 0.02825523 0.02786765 0.02760867 0.02748857 0.02748488 0.02759543 0.02779275 0.02807347 0.02840892 0.02879963
 0.0291835 0.0295586 0.02978264 0.02984487 0.02954433 0.02887752 0.02770694 0.02606721 0.02400472 0.02159506
 0.01905157 0.01644482 0.0140081 0.01175025 0.009790171 0.008068034 0.006578318 0.005246643 0.004022955 0.002875685
 0.001775275 0.000733393 -0.00025288 -0.0011664 -0.002002878 -0.00276218 -0.00344287 -0.004057114 -0.004605402 -0.005106061
 -0.005560279 -0.005989463 -0.006394797 -0.006795524 -0.00719117 -0.007591397 -0.007992362 -0.008390197 -0.008778282 -0.009142163
 -0.009479293 -0.009777258 -0.01004609 -0.01028665 -0.01051969 -0.01075836 -0.01101463 -0.01130117 -0.01160289 -0.01192237
 -0.01222311 -0.01249861 -0.01272453 -0.01289449 -0.01302729 -0.01312299 -0.01323231 -0.01335694 -0.01352774 -0.0137402
 -0.01397521 -0.01422745 -0.01446102 -0.01468229 -0.0148877 -0.01509102 -0.01531924 -0.01557297 -0.01586954 -0.01618923
 -0.01652299 -0.01684706 -0.01714358 -0.01740144 -0.01760954 -0.01777369 -0.01789004 -0.01798225 -0.01805139 -0.01813377
 -0.01823368 -0.01837695 -0.01856629 -0.0187933 -0.01905641 -0.01932119 -0.01958609 -0.01982255 -0.02003294 -0.02021177
 -0.0203628 -0.02049355 -0.02060605 -0.02070699 -0.02079851 -0.02088531 -0.02097077 -0.02106038 -0.0211533 -0.02125274
 -0.02134925 -0.02143966 -0.02151661 -0.0215741 -0.02162493 -0.02166776 -0.021733 -0.02182451 -0.02195977 -0.02214109
 -0.02234947 -0.0225831 -0.02280238 -0.02300702 -0.02317503 -0.02331178 -0.02342824 -0.02352995 -0.02364005 -0.02375543
 -0.02388371 -0.02401317 -0.0241312 -0.02422998 -0.02429396 -0.02433291 -0.02434393 -0.02435253 -0.02436786 -0.02441182
 -0.02449473 -0.02461756 -0.02478436 -0.02497751 -0.02519615 -0.02541864 -0.02564336 -0.02585642 -0.02605747 -0.02624308
 -0.02641393 -0.02657345 -0.02672259 -0.02686702 -0.02700739 -0.02714865 -0.02729036 -0.02743436 -0.02757884 -0.02772218
 -0.02786273 -0.02799771 -0.02812847 -0.02825457 -0.02837915 -0.02850393 -0.02862892 -0.02875503 -0.02887883 -0.02899962
 -0.02911611 -0.02922766 -0.02933819 -0.02944789 -0.02956119 -0.02967805 -0.02979625 -0.02991449 -0.03002141 -0.03011583
 -0.03018483 -0.03023155 -0.03025588 -0.03026661 -0.03028047 -0.0303042 -0.03035629 -0.03043218 -0.03053599 -0.03065631
 -0.03078638 -0.03092063 -0.03105416 -0.03118833 -0.03132327 -0.03145732 -0.03159076 -0.03171826 -0.03183887 -0.03195213
 -0.03205779 -0.03216092 -0.03226165 -0.03236162 -0.03246035 -0.03255446 -0.032644 -0.03272711 -0.03280514 -0.03288093
 -0.03295597 -0.03303453 -0.03311736 -0.03320738 -0.03330441 -0.03340991 -0.03352148 -0.03363917 -0.03375693 -0.03387311
 -0.03397948 -0.03407319 -0.03414919 -0.03420506 -0.03424439 -0.03426635 -0.0342843 -0.03429893 -0.0343262 -0.03436667
 -0.03442746 -0.03450731 -0.03459904 -0.03470038 -0.03479661 -0.03488777 -0.03496532 -0.03503289 -0.03509314 -0.03515044
 -0.03521237 -0.03528016 -0.03535842 -0.0354446 -0.03553919 -0.03563701 -0.03573634 -0.03583167 -0.0359208 -0.03600121
 -0.03607149 -0.03613422 -0.03618938 -0.03624094 -0.03628925 -0.03633599 -0.03638126 -0.03642685 -0.03647314 -0.03652446
 -0.03658051 -0.03664297 -0.03670989 -0.03677633 -0.03684095 -0.03689766 -0.03694876 -0.03699419 -0.03703821 -0.0370852
 -0.03713699 -0.03719668 -0.03726264 -0.03733536 -0.0374112 -0.03748952 -0.03756597 -0.03763974 -0.03770686 -0.03776658
 -0.03781759 -0.03785961 -0.03789531 -0.03792488 -0.03795308 -0.03798025 -0.03801151 -0.03804692 -0.03808999 -0.03813952
 -0.03819436 -0.03825195 -0.03830643 -0.03835639 -0.03839632 -0.0384289 -0.03845391 -0.03847651 -0.03850023 -0.03852796
 -0.03856236 -0.0386027 -0.0386496 -0.03870047 -0.03875516 -0.03880999 -0.03886469 -0.03891435 -0.03895853 -0.03899392
 -0.03902052 -0.03904096 -0.039056 -0.03907359 -0.03909418 -0.03912469 -0.03916389 -0.03921228 -0.03926726 -0.0393239
 -0.03938004 -0.03943029 -0.03947443 -0.03950959 -0.03953855 -0.03956158 -0.03958357 -0.03960702 -0.03963454 -0.03966876
 -0.03970447 -0.03974196 -0.03977075 -0.03978906 -0.03979354 -0.03978334 -0.03976759 -0.03974682 -0.03973272 -0.03972515
 -0.03972751 -0.039739 -0.0397574 -0.03978256 -0.03981312 -0.03984885 -0.03988911 -0.03993268 -0.03997765 -0.04002282
 -0.04006659 -0.04010722 -0.04014364 -0.04017261 -0.04019167 -0.0402016 -0.04020067 -0.04019733 -0.04019272 -0.04019557
 -0.04020798 -0.04022819 -0.0402566 -0.04028334 -0.04030798 -0.0403235 -0.0403304 -0.04033048 -0.0403253 -0.0403233
 -0.04032571 -0.04034147 -0.04036907 -0.04041073 -0.0404616 -0.04051593 -0.04056904 -0.04061337 -0.0406488 -0.04067215
 -0.04068739 -0.04069537 -0.04070027 -0.04070377 -0.04070769 -0.04071274 -0.04071922 -0.04072718 -0.0407373 -0.04074957
 -0.04076635 -0.04078772 -0.04081386 -0.04084419 -0.04087299 -0.04089928 -0.04091462 -0.04091967 -0.04091121 -0.04089226
 -0.04086704 -0.04083945 -0.04081707 -0.04080216 -0.04080091 -0.04081057 -0.04083258 -0.04085887 -0.04088627 -0.0409077
 -0.04091911 -0.04092181 -0.04091473 -0.04090418 -0.04089124 -0.04087724 -0.04086254 -0.0408438 -0.04082093 -0.04079448
 -0.04076502 -0.0407387 -0.04071572 -0.04070078 -0.04069271 -0.04069047 -0.04069233 -0.04069414 -0.04069478 -0.04069083
 -0.04068191 -0.04066632 -0.04064424 -0.04061526 -0.04057978 -0.04053771 -0.04049002 -0.0404363 -0.04038049 -0.04032255
 -0.0402705 -0.04022529 -0.04019421 -0.04017835 -0.0401752 -0.04018453 -0.04019331 -0.04020085 -0.04019447 -0.04017543
 -0.04014314 -0.04010047 -0.04005652 -0.04001281 -0.03997774 -0.03994969 -0.03993044 -0.03991626 -0.03990425 -0.03989055
 -0.03987132 -0.03984504 -0.03980887 -0.03976683 -0.03971874 -0.03967229 -0.0396294 -0.03959396 -0.03956759 -0.03954519
 -0.03952677 -0.03950267 -0.03947245 -0.0394321 -0.03938239 -0.03932994 -0.0392763 -0.03923313 -0.03920122 -0.03918925
 -0.03919708 -0.03922819 -0.03928328 -0.03936455 -0.03947347 -0.0396124 -0.03978223 -0.03998427 -0.040219 -0.04048616
 -0.04078916 -0.0411288 -0.04150887 -0.04193094 -0.04239374 -0.04289771 -0.04343827 -0.04401537 -0.04462258 -0.04525924
 -0.04589293 -0.04651767 -0.0470576 -0.04750502 -0.04777692 -0.04787455 -0.04775621 -0.04743195 -0.0468933 -0.04617613
 -0.04531667 -0.04438578 -0.04347134 -0.04262401 -0.04191307 -0.04134454 -0.04093968 -0.04068924 -0.04059661 -0.04064314
 -0.04083398 -0.04110415 -0.04145286 -0.04176196 -0.04201968 -0.04216252 -0.04218749 -0.04214188 -0.04203008 -0.04191937
 -0.04180688 -0.04171389 -0.04162909 -0.04152617 -0.04139595 -0.04119935 -0.04094751 -0.04063465 -0.04029018 -0.03994454
 -0.03961612 -0.03933392 -0.03908593 -0.03887714 -0.03868017 -0.03848532 -0.03827922 -0.03805416 -0.03782114 -0.03757946
 -0.03734999 -0.03713473 -0.03694563 -0.03678332 -0.0366419 -0.0365204 -0.03640467 -0.03629491 -0.03618468 -0.03607593
 -0.03597242 -0.03587458 -0.03578597 -0.03570462 -0.03562903 -0.03555751 -0.03548706 -0.03541859 -0.03535176 -0.03528782
 -0.03522799 -0.03517058 -0.03511585 -0.03505966 -0.03500078 -0.03493826 -0.0348711 -0.03480479 -0.03473953 -0.03468297
 -0.03463554 -0.03460068 -0.03457816 -0.034566 -0.03456354 -0.03456642 -0.0345736 -0.03457934 -0.03458261 -0.03457796
 -0.03456558 -0.03454277 -0.03451191 -0.03447404 -0.0344329 -0.03439153 -0.03435284 -0.0343193 -0.03429176 -0.03427149
 -0.03425654 -0.03424698 -0.03423959 -0.034234 -0.03422714 -0.03421871 -0.03420613 -0.03418923 -0.03416669 -0.03413865
 -0.03410657 -0.0340708 -0.03403438 -0.03399703 -0.0339595 -0.03392132 -0.03388128 -0.03384037 -0.03379941 -0.03376003
 -0.03372486 -0.0336934 -0.03366654 -0.03364211 -0.03361882 -0.03359648 -0.03357441 -0.03355435 -0.03353687 -0.03352166
 -0.03350909 -0.03349583 -0.03348156 -0.03346459 -0.03344483 -0.03342424 -0.03340302 -0.03338465 -0.03336892 -0.03335666
 -0.03334684 -0.03333639 -0.03332436 -0.03330652 -0.03328362 -0.0332542 -0.03322143 -0.03318794 -0.03315743 -0.03313419
 -0.03311834 -0.03311227 -0.03311065 -0.03311265 -0.03311155 -0.03310505 -0.03309168 -0.03307014 -0.033046 -0.03301949
 -0.03299747 -0.03298033 -0.03296932 -0.03296409 -0.03296006 -0.03295692 -0.03295001 -0.03294037 -0.032929 -0.03291788
 -0.03291283 -0.0329136 -0.0329236 -0.0329385 -0.03295511 -0.03296848 -0.03297263 -0.03296818 -0.03295278 -0.03293224
 -0.03290834 -0.03288481 -0.03286335 -0.03284336 -0.0328248 -0.03280825 -0.03279349 -0.0327852 -0.03278366 -0.03279135
 -0.03280779 -0.03282683 -0.03284734 -0.03285861 -0.03286101 -0.0328493 -0.03282647 -0.03279664 -0.03276343 -0.03273499
 -0.03271273 -0.03270217 -0.03270102 -0.03271019 -0.0327242 -0.03274076 -0.0327542 -0.03276112 -0.03276177 -0.03275461
 -0.03274621 -0.03273738 -0.03273346 -0.03273541 -0.03274133 -0.03275115 -0.03276043 -0.03276921 -0.03277732 -0.03278507
 -0.03279458 -0.03280541 -0.03281714 -0.03282915 -0.03283931 -0.03284831 -0.03285643 -0.03286426 -0.03287304 -0.03288184
 -0.03289031 -0.03289774 -0.03290302 -0.0329083 -0.03291385 -0.03292282 -0.03293661 -0.03295412 -0.03297596 -0.03299608
 -0.03301398 -0.03302443 -0.03302703 -0.03302248 -0.03301112 -0.0329981 -0.03298399 -0.03297482 -0.03297088 -0.03297682
 -0.03299171 -0.03301649 -0.03304795 -0.03308133 -0.03311355 -0.03313788 -0.03315642 -0.03316751 -0.0331773 -0.03318952
 -0.03320577 -0.03322905 -0.03325262 -0.03327559 -0.03329102 -0.03329674 -0.03329521 -0.03328598 -0.03327803 -0.03327189
 -0.03327292 -0.03328099 -0.0332942 -0.03331218 -0.03333148 -0.03335239 -0.03337454 -0.03339776 -0.03342186 -0.03344562
 -0.03346647 -0.0334846 -0.03349841 -0.03351094 -0.03352452 -0.03354022 -0.03356066 -0.03358083 -0.03359962 -0.03361199
 -0.03361521 -0.03361305 -0.03360508 -0.0336 -0.033599 -0.03360418 -0.03361584 -0.03362644 -0.03363559 -0.03363539
 -0.03362674 -0.03361105 -0.03359066 -0.03357545 -0.03356668 -0.03357348 -0.03359345 -0.03362741 -0.03367035 -0.03371644
 -0.03376218 -0.03380209 -0.03383653 -0.03386397 -0.03388642 -0.03390441 -0.0339192 -0.03393096 -0.03394172 -0.03395157
 -0.03396386 -0.03397905 -0.03399834 -0.03402191 -0.03404551 -0.03406884 -0.03408554 -0.03409605 -0.03409977 -0.03409836
 -0.03409804 -0.03409993 -0.03411065 -0.0341288 -0.03415551 -0.03418762 -0.03422175 -0.03425548 -0.03428506 -0.03431123
 -0.03433255 -0.03435323 -0.03437455 -0.03439983 -0.03443113 -0.03446536 -0.03450294 -0.03453611 -0.03456391 -0.03458281
 -0.03459242 -0.03459607 -0.03459394 -0.03458974 -0.0345833 -0.03457475 -0.03456438 -0.03455298 -0.0345417 -0.03453425
 -0.03453051 -0.03453286 -0.03453837 -0.0345447 -0.03454859 -0.0345455 -0.03453685 -0.03452062 -0.03450445 -0.03449074
 -0.0344859 -0.03449361 -0.03450969 -0.03453513 -0.03455704 -0.03457392 -0.03457838 -0.03456962 -0.03455396 -0.03453198
 -0.03451531 -0.03450367 -0.03450111 -0.03450587 -0.0345128 -0.03452085 -0.03452371 -0.03452357 -0.03452092 -0.03451942
 -0.03452472 -0.03453655 -0.03455799 -0.03458347 -0.03461085 -0.03463475 -0.03465187 -0.03466181 -0.03466338 -0.03465955
 -0.03465048 -0.03464 -0.0346284 -0.03461988 -0.03461476 -0.03461437 -0.03461852 -0.03462325 -0.03462796 -0.03462631
 -0.03461847 -0.03460126 -0.03457636 -0.03454593 -0.03451305 -0.03448432 -0.03446184 -0.03445232 -0.03445231 -0.03446296
 -0.03447485 -0.03448246 -0.03447993 -0.03446136 -0.03443353 -0.03439601 -0.03436098 -0.03433108 -0.03431121 -0.03430281
 -0.03430161 -0.03430753 -0.03431313 -0.03431818 -0.03431816 -0.03431361 -0.03430596 -0.0342963 -0.03429012 -0.03428761
 -0.03429278 -0.03430375 -0.03431946 -0.03433667 -0.03435079 -0.0343596 -0.03435868 -0.03434991 -0.03433225 -0.03431113
 -0.03428861 -0.03426829 -0.03425222 -0.03423885 -0.03422843 -0.03421774 -0.03420644 -0.03419243 -0.03417555 -0.03415395
 -0.0341276 -0.03409591 -0.03405939 -0.03402165 -0.03398343 -0.03395009 -0.03392147 -0.03390009 -0.03388507 -0.03387603
 -0.03387191 -0.03387144 -0.03387306 -0.0338752 -0.03387608 -0.03387419 -0.03386845 -0.0338581 -0.03384246 -0.03382096
 -0.03379433 -0.03376219 -0.03372827 -0.0336929 -0.0336598 -0.03362932 -0.03360105 -0.03357498 -0.03355061 -0.03352862
 -0.03351443 -0.03350841 -0.03351633 -0.0335353 -0.03356154 -0.03358925 -0.03360528 -0.03360696 -0.03358305 -0.03354007
 -0.03347848 -0.03340918 -0.03333976 -0.03327505 -0.03322063 -0.03317093 -0.03312599 -0.03307781 -0.03302385 -0.03296583
 -0.03290289 -0.03284559 -0.03279461 -0.03275811 -0.03273625 -0.03273031 -0.03273939 -0.03275828 -0.03278403 -0.03280124
 -0.032807 -0.03278251 -0.03273309 -0.03265772 -0.03256838 -0.03248145 -0.03240283 -0.03234525 -0.03230555 -0.03228657
 -0.03228013 -0.03228456 -0.03228899 -0.03229013 -0.03227988 -0.03225522 -0.03221797 -0.0321676 -0.03211071 -0.03204785
 -0.0319795 -0.03190564 -0.03182412 -0.03173534 -0.0316414 -0.03154293 -0.03144353 -0.0313441 -0.0312486 -0.03115868
 -0.03108031 -0.031012 -0.03095608 -0.03090519 -0.03085273 -0.03079525 -0.03072614 -0.03065312 -0.03057752 -0.03050759
 -0.03044726 -0.03039539 -0.03035294 -0.03031425 -0.03027874 -0.03024212 -0.03020407 -0.03016133 -0.03011369 -0.03005755
 -0.02999198 -0.02990808 -0.02980444 -0.0296679 -0.02950199 -0.02930803 -0.0290946 -0.0288807 -0.02866798 -0.02846851
 -0.02827566 -0.02808639 -0.02789823 -0.02770644 -0.02751822 -0.02733549 -0.02716443 -0.02700835 -0.0268655 -0.0267375
 -0.02661335 -0.02649356 -0.02635259 -0.02618866 -0.02597986 -0.02572632 -0.0254474 -0.0251461 -0.02485861 -0.02458241
 -0.02432526 -0.02408173 -0.02383948 -0.02359653 -0.02334382 -0.02307955 -0.022798 -0.02249694 -0.0221705 -0.02182342
 -0.02145795 -0.02107516 -0.02068104 -0.02025476 -0.01979139 -0.01927377 -0.01869182 -0.01807493 -0.01742435 -0.01677767
 -0.016139 -0.01550188 -0.01486582 -0.0142138 -0.01354738 -0.0128753 -0.01219734 -0.0115208 -0.01083609 -0.01011807
 -0.009360022 -0.008529811 -0.007643485 -0.006707248 -0.005743853 -0.004782352 -0.003821451 -0.002871313 -0.001917949 -0.0009557705
 1.884688E-05 0.001008489 0.002011273 0.003020968 0.004074309 0.005166982 0.006411948 0.007818162 0.009462486 0.01134293
 0.01330914 0.01534856 0.01727189 0.01910249 0.02085167 0.02255032 0.02430026 0.02610754 0.02803204 0.03007014
 0.03222857 0.03454046 0.03701829 0.03975789 0.04282569 0.04629085 0.05024746 0.05453873 0.05917527 0.06382705
 0.06842022 0.07278027 0.07686246 0.08069576 0.084275 0.08771724 0.09103124 0.09442517 0.09791929 0.1018138
 0.1060765 0.1107624 0.1157218 0.1204899 0.1250449 0.1290655 0.1327316 0.1361737 0.1395181 0.1429586
 0.1464924 0.1501771 0.1539783 0.1578862 0.1619035 0.166046 0.1702318 0.174458 0.178585 0.182583
 0.1864669 0.1902341 0.1939502 0.1976138 0.2010801 0.2043324 0.2071422 0.2095241 0.2114286 0.2128829
 0.2139497 0.2146329 0.214957 0.214954 0.2146653 0.2141583 0.2135191 0.2127782 0.2119763 0.2111454
 0.2103065 0.2094928 0.2087318 0.2079812 0.2072488 0.2064218 0.2054887 0.2043406 0.2029631 0.2013812
 0.1995991 0.1978032 0.1959949 0.1942664 0.1925932 0.1908972 0.1891646 0.187303 0.1853353 0.1832521
 0.1811133 0.1790008 0.1769628 0.1750851 0.1733676 0.171832 0.1704811 0.1693099 0.1683646 0.1676589
 0.1672268 0.1670843 0.1672087 0.1675992 0.1682332 0.1691077 0.1702315 0.1716049 0.1732321 0.1751112
 0.1772231 0.1795646 0.1821112 0.1848602 0.1877903 0.1909004 0.194175 0.1976198 0.2012351 0.2050298
 0.209015 0.2131902 0.2175619 0.2221165 0.2268518 0.231747 0.2367969 0.2419783 0.2472904 0.2526898
 0.2581778 0.2636578 0.2691231 0.2744743 0.279708 0.2848552 0.2899249 0.2950504 0.300199 0.3052957
 0.3102545 0.3147277 0.3187341 0.3221187 0.3249985 0.3275076 0.3296616 0.3315462 0.3330894 0.3342508
 0.3350257 0.3354067 0.3353785 0.3349702 0.3339941 0.3324036 0.3301111 0.3270428 0.3236738 0.32004
 0.3164705 0.3129768 0.3093449 0.3055651 0.3014542 0.2970369 0.2923529 0.287422 0.2823596 0.2770993
 0.2715989 0.2656751 0.2589763 0.2515407 0.2430791 0.2343016 0.2256579 0.2175673 0.2105084 0.2040334
 0.1980891 0.1922978 0.1865173 0.180815 0.17517 0.169782 0.1646749 0.1598383 0.155271 0.150811
 0.1464558 0.1421167 0.1378108 0.1335848 0.129453 0.1254929 0.1216926 0.1180661 0.1145904 0.1112357
 0.107988 0.1048301 0.101727 0.09867557 0.09555724 0.09232392 0.08884451 0.08499508 0.08102784 0.07692399
 0.07323635 0.07008731 0.06745967 0.06538182 0.06345135 0.06164926 0.05973321 0.05771366 0.05562924 0.053505
 0.05150713 0.04962275 0.04789696 0.04630222 0.04478381 0.04336272 0.04203762 0.04086005 0.03989501 0.03914555
 0.03864499 0.03834845 0.03824045 0.03829158 0.03848432 0.03882158 0.03929536 0.03994399 0.04076473 0.04185145
 0.04321303 0.04491688 0.04696501 0.04917851 0.05153515 0.05370726 0.05570153 0.05738368 0.0587856 0.05994698
 0.06088414 0.06164857 0.06225519 0.06273429 0.06313714 0.06351294 0.06395215 0.06454737 0.0653199 0.06634061
 0.06746278 0.06864929 0.06979341 0.07084566 0.0718549 0.07281839 0.07381275 0.07484668 0.0759404 0.07709504
 0.07827364 0.07947443 0.08066075 0.08184027 0.08303113 0.08425383 0.08558785 0.08704726 0.08871462 0.09056397
 0.09259301 0.09476851 0.09703668 0.09942777 0.1019403 0.1046277 0.1075295 0.1106323 0.11395 0.1174157
 0.1210072 0.124728 0.1285616 0.13264 0.1369747 0.1416675 0.1467234 0.1519429 0.157299 0.1623885
 0.1672095 0.1715456 0.175417 0.1787988 0.1816636 0.1839496 0.1855935 0.1864573 0.1865271 0.1857128
 0.1840899 0.1816717 0.1785748 0.1748582 0.1706171 0.1658928 0.1607582 0.1552178 0.149424 0.143378
 0.137374 0.1314382 0.1258057 0.1204901 0.1154708 0.1107372 0.1061366 0.1016724 0.09728189 0.09299348
 0.08887952 0.0849497 0.08127376 0.07782006 0.07457209 0.07149019 0.06852219 0.06564707 0.06282969 0.06007029
 0.05735578 0.05470761 0.0521285 0.04964577 0.04727037 0.04499813 0.04283482 0.04073377 0.03869146 0.03666502
 0.03465187 0.03267339 0.03073572 0.02892656 0.02725051 0.02578368 0.02451622 0.02345485 0.02258491 0.021874
 0.0213161 0.02088629 0.02058578 0.02040834 0.02035098 0.02041648 0.02057892 0.020836 0.02112795 0.02144042
 0.0216976 0.0218811 0.0219278 0.02182454 0.02153764 0.02106048 0.02040251 0.01956381 0.01859938 0.01751355
 0.01637622 0.01519156 0.01401784 0.01286059 0.01176953 0.01075041 0.009843386 0.009046421 0.008376434 0.00782227
 0.007378991 0.007033092 0.006774192 0.006587359 0.006464625 0.006386612 0.006346127 0.00632403 0.006314995 0.006303959
 0.006288317 0.006254766 0.006201755 0.00612036 0.006009956 0.005871756 0.005706222 0.005520507 0.005314687 0.005092728
 0.004854244 0.00460001 0.004329507 0.004042383 0.003737025 0.003410435 0.003061886 0.002688244 0.002292861 0.001876888
 0.00144477 0.0009997814 0.0005425668 7.388564E-05 -0.0004056679 -0.0008970104 -0.001393162 -0.001893984 -0.002387646 -0.002873048
 -0.003340566 -0.003789546 -0.004218234 -0.004626956 -0.005020939 -0.00539986 -0.005765859 -0.006115187 -0.006436077 -0.006723038
 -0.006956184 -0.007133824 -0.007243059 -0.007287531 -0.00726581 -0.007183779 -0.007044656 -0.00685621 -0.006621781 -0.006353038
 -0.006053675 -0.005737401 -0.005407842 -0.005076258 -0.004744818 -0.00442164 -0.004107623 -0.003809421 -0.003527444 -0.003269055
 -0.003034761 -0.002833278 -0.00266496 -0.00253673 -0.002448049 -0.002400515 -0.002393564 -0.002426209 -0.002499153 -0.002612924
 -0.00276885 -0.002968782 -0.003213391 -0.003503677 -0.003840412 -0.004224222 -0.00465578 -0.005135851 -0.005663184 -0.00623838
 -0.006856187 -0.007516534 -0.008210275 -0.008936733 -0.009685946 -0.01045726 -0.01124529 -0.01205007 -0.01287195 -0.01371062
 -0.01456477 -0.01543305 -0.01630923 -0.0171931 -0.01808063 -0.01897316 -0.01987224 -0.02077612 -0.02168543 -0.02259208
 -0.02349067 -0.02437194 -0.02522882 -0.02605738 -0.02685374 -0.02762005 -0.02835562 -0.02906565 -0.02975046 -0.03041721
 -0.03106648 -0.03170597 -0.03233621 -0.03296167 -0.03358203 -0.03419279 -0.03479197 -0.03536454 -0.03590814 -0.03640484
 -0.03685512 -0.03725005 -0.03759391 -0.03788969 -0.03814222 -0.0383593 -0.03854158 -0.03869373 -0.03881008 -0.03888984
 -0.03892402 -0.03890889 -0.03883877 -0.03871081 -0.03852556 -0.03828222 -0.03798505 -0.03763375 -0.03723896 -0.03680106
 -0.03634331 -0.03586745 -0.03540478 -0.03495614 -0.03454359 -0.03416445 -0.03382113 -0.03350833 -0.03321451 -0.03293399
 -0.03265175 -0.03236419 -0.03205992 -0.03174092 -0.03140331 -0.03105552 -0.03070024 -0.03034804 -0.03000338 -0.02967437
 -0.02936416 -0.02907637 -0.02881255 -0.0285712 -0.02835278 -0.02815055 -0.02796422 -0.02778248 -0.02760448 -0.02741509
 -0.02721331 -0.02698452 -0.02672883 -0.02643909 -0.02611543 -0.0257556 -0.02535726 -0.02491541 -0.02442771 -0.02388744
 -0.02329884 -0.02266119 -0.02198521 -0.02127508 -0.02054517 -0.01979961 -0.01905839 -0.01832575 -0.01762511 -0.01696166
 -0.01634757 -0.01578588 -0.01526982 -0.01479932 -0.01435951 -0.01394969 -0.01355774 -0.0131828 -0.01281396 -0.012449
 -0.01207434 -0.01168593 -0.01126665 -0.01081296 -0.01030832 -0.009757712 -0.009157239 -0.008522808 -0.007866786 -0.007200978
 -0.006539165 -0.005874842 -0.00521002 -0.004531255 -0.003834159 -0.003115203 -0.00237225 -0.001610034 -0.0008284352 -3.578562E-05
 0.0007675277 0.001568544 0.0023668 0.003153608 0.00393009 0.004700538 0.00546602 0.006234422 0.00700326 0.00777144
 0.008532594 0.009276738 0.009993428 0.01066758 0.0112858 0.01183106 0.01229624 0.01267018 0.01295845 0.01315933
 0.0132847 0.0133362 0.01332866 0.01326271 0.01316399 0.01303405 0.01290719 0.01278579 0.0126948 0.01263475
 0.01261225 0.01262642 0.01267381 0.01275426 0.01286496 0.01300727 0.01318382 0.01339497 0.01364511 0.01392728
 0.01423803 0.01456042 0.01488077 0.01517923 0.01544136 0.01565027 0.01579665 0.01586694 0.01585443 0.01575743
 0.01557148 0.01531869 0.01499926 0.01465032 0.01427426 0.01390167 0.0135337 0.01318793 0.01286427 0.01257084
 0.01230639 0.0120702 0.01186088 0.01167335 0.01150904 0.0113681 0.01125251 0.01116681 0.01110646 0.01107283
 0.01104932 0.01103189 0.01098796 0.01090894 0.01074783 0.01049223 0.01009846 0.009555272 0.008843908 0.007958879
 0.006911859 0.005702411 0.004369 0.002914688 0.001399645 -0.0001715688 -0.001735847 -0.0032915 -0.004797744 -0.006255401
 -0.007647039 -0.008971308 -0.0102176 -0.01138502 -0.01246606 -0.01346681 -0.0143889 -0.01524164 -0.01603202 -0.01676329
 -0.01743929 -0.01805743 -0.01861728 -0.0191183 -0.01955889 -0.01994832 -0.0202861 -0.0205944 -0.02087448 -0.02115079
 -0.02142399 -0.02170208 -0.02198352 -0.02225873 -0.02252787 -0.0227849 -0.02303482 -0.02328803 -0.02354997 -0.02383763
 -0.0241493 -0.02449264 -0.02485574 -0.02523191 -0.02560671 -0.0259667 -0.02631197 -0.02663444 -0.02695765 -0.02728418
 -0.02764564 -0.02804898 -0.02851201 -0.02903904 -0.0296266 -0.03027542 -0.03096222 -0.0316852 -0.03240621 -0.03312286
 -0.03379814 -0.03443224 -0.03500565 -0.03552124 -0.03597643 -0.03637531 -0.03672289 -0.03702636 -0.03729628 -0.03754094
 -0.03777321 -0.03799281 -0.03820597 -0.03840085 -0.03857465 -0.03871468 -0.03881629 -0.03887358 -0.03888472 -0.03884634
 -0.03875789 -0.03861594 -0.03841987 -0.0381752 -0.03788316 -0.03757378 -0.03725253 -0.03697718 -0.03675378 -0.03664279
 -0.03664143 -0.03677656 -0.03703408 -0.03740097 -0.03786075 -0.03838733 -0.03896545 -0.03957583 -0.04019656 -0.04081239
 -0.04139464 -0.04192758 -0.04239211 -0.04277739 -0.04308408 -0.04330941 -0.04346484 -0.04355171 -0.04357594 -0.04353828
 -0.04343566 -0.04326814 -0.0430371 -0.04274492 -0.04241175 -0.042042 -0.04166714 -0.04128855 -0.04092782 -0.0405811
 -0.04025212 -0.03993392 -0.03962016 -0.0393007 -0.03896496 -0.03860219 -0.03819926 -0.03776108 -0.0372805 -0.0367889
 -0.03629113 -0.03582639 -0.03540497 -0.03504161 -0.03474179 -0.03448874 -0.0342821 -0.03409534 -0.03392737 -0.0337638
 -0.03360523 -0.03345155 -0.03330275 -0.03315971 -0.03301961 -0.03287521 -0.03272257 -0.03255035 -0.03235636 -0.03213269
 -0.03187911 -0.03159231 -0.03127376 -0.03092228 -0.03054341 -0.03013788 -0.02971581 -0.02927961 -0.02884014 -0.02839995
 -0.02796609 -0.02754029 -0.0271219 -0.02671131 -0.02630027 -0.02588833 -0.02546663 -0.02503566 -0.02459577 -0.0241491
 -0.02370627 -0.02326837 -0.02284592 -0.02243457 -0.02203255 -0.02163041 -0.02121335 -0.02077715 -0.02030802 -0.01981898
 -0.01931111 -0.01880804 -0.0183219 -0.01786406 -0.01744377 -0.0170497 -0.0166823 -0.0163232 -0.01596966 -0.01561314
 -0.01525251 -0.01488919 -0.01452324 -0.01415713 -0.01379052 -0.01342123 -0.01304903 -0.01267063 -0.01228814 -0.01190558
 -0.01152639 -0.01116091 -0.01080745 -0.01047027 -0.01014006 -0.009810187 -0.009470333 -0.00911104 -0.008728011 -0.008315309
 -0.007878261 -0.007415188 -0.006941576 -0.006459889 -0.005984482 -0.005518603 -0.005061111 -0.00461241 -0.004164716 -0.00371787
 -0.003275245 -0.002836927 -0.002406927 -0.001981955 -0.001547647 -0.001101157 -0.0006241957 -0.0001207935 0.0004100809 0.0009622783
 0.001527291 0.002101134 0.002678995 0.003251729 0.003813729 0.00435179 0.004856984 0.00532695 0.005757125 0.006157628
 0.006529391 0.006883013 0.00721972 0.007549204 0.007872154 0.008199344 0.008531234 0.008872193 0.009221637 0.009575372
 0.00993287 0.01028947 0.01064502 0.01099696 0.01134454 0.01168506 0.01201772 0.01234048 0.01265217 0.01295036
 0.01323598 0.01350675 0.01377144 0.01403375 0.01429981 0.01457668 0.01484635 0.01510803 0.01533479 0.01551989
 0.01567213 0.01578995 0.01591792 0.01605808 0.01624073 0.01646432 0.01672365 0.01701669 0.01732966 0.01766426
 0.01801851 0.01839532 0.01880077 0.01923461 0.01970169 0.02019343 0.020705 0.0212228 0.02173428 0.02223632
 0.02272287 0.02319989 0.02367032 0.02412838 0.02457454 0.02499578 0.02538873 0.02575899 0.02610603 0.02644872
 0.02678795 0.02713599 0.02749366 0.02787407 0.02827752 0.02871665 0.02918341 0.02966158 0.03013709 0.03056906
 0.03095598 0.03127437 0.03153797 0.0317536 0.03192923 0.03207501 0.03218672 0.03226396 0.03230571 0.03230875
 0.03228584 0.03223633 0.03218744 0.03214133 0.03213171 0.03216215 0.03224677 0.03238598 0.03255963 0.03276559
 0.0329739 0.03318436 0.03337996 0.03356284 0.0337285 0.0338846 0.03404442 0.03421681 0.0344256 0.03466203
 0.03492625 0.03520779 0.03548534 0.03580072 0.03615778 0.03663569 0.0372837 0.03804975 0.03895262 0.03980335
 0.04056526 0.04121374 0.04173787 0.04224027 0.04272539 0.0432405 0.04378098 0.04431235 0.04482627 0.04526125
 0.04561309 0.04583523 0.04592949 0.04587389 0.04568054 0.04535675 0.04491745 0.04438235 0.04375722 0.04304973
 0.04227045 0.04142028 0.04053017 0.03960491 0.03869246 0.03779936 0.03698798 0.03626725 0.03568922 0.03526229
 0.03496952 0.03480955 0.03468614 0.03459304 0.03442774 0.03419099 0.03383222 0.03335947 0.03276727 0.03207454
 0.03131326 0.03051619 0.02975112 0.02902935 0.02840138 0.02782618 0.02729147 0.02675514 0.0261853 0.02558638
 0.02495072 0.02429876 0.02363166 0.02297631 0.02233168 0.02175981 0.02126464 0.02091661 0.02071941 0.02070331
 0.02086613 0.02119616 0.02168337 0.02227237 0.02294432 0.02360328 0.0242449 0.02480317 0.02530592 0.02576628
 0.02621381 0.02669118 0.02719915 0.02775201 0.02834332 0.0289679 0.02964133 0.0303652 0.03116425 0.03204657
 0.03301707 0.03408182 0.03520723 0.03639364 0.03756888 0.03872903 0.0398052 0.04079701 0.04168179 0.04246082
 0.04313184 0.04369016 0.0441145 0.04440863 0.04456317 0.0446023 0.04456011 0.04445491 0.04432498 0.04416256
 0.04397443 0.04374843 0.04347844 0.04316168 0.04279545 0.04238043 0.04191336 0.04141245 0.04087818 0.04034076
 0.03980442 0.03926739 0.03872968 0.03816243 0.03756693 0.03694955 0.03631765 0.03571883 0.0351551 0.0346609
 0.03422838 0.03385806 0.03353783 0.03325002 0.03298219 0.03271121 0.03243845 0.03215361 0.03187459 0.03161322
 0.03136294 0.0311319 0.03087547 0.03058166 0.03023408 0.02982286 0.02938941 0.02893719 0.02849172 0.02805452
 0.02759832 0.02712333 0.02662156 0.02610146 0.02561194 0.02515505 0.02477018 0.02444004 0.02414378 0.02386534
 0.02356104 0.02324671 0.02291682 0.02260859 0.02235496 0.02216146 0.02205218 0.02197589 0.02192048 0.02184077
 0.02171355 0.02157098 0.02141153 0.02129357 0.02122623 0.02118915 0.02118158</values></Ydata></AB><ScSm><Ydata ylabel="Single channel"><values byteorder="INTEL" format="FLOAT32" numvalues="1814"> 0.07263617 0.07264461 0.07272771 0.07290307 0.07313353 0.07334837 0.07349167 0.07355775 0.07357101 0.07354113
 0.07347344 0.07342169 0.07347614 0.07367183 0.07393344 0.0741283 0.07417279 0.07410454 0.07405931 0.07414088
 0.07428266 0.07426658 0.07392624 0.07333777 0.07277232 0.0724454 0.07238017 0.07256681 0.07309924 0.07392039
 0.07453206 0.07435057 0.07343936 0.07254488 0.07226506 0.07247613 0.07268397 0.07259902 0.07222101 0.07172482
 0.07151914 0.07214083 0.07372312 0.07555509 0.07634036 0.07502091 0.07153217 0.06703423 0.06348206 0.06258184
 0.06459109 0.06797114 0.07054062 0.07121685 0.07053497 0.06954412 0.06867507 0.0678803 0.0673683 0.06763849
 0.06879398 0.07008265 0.07028931 0.06877587 0.0662402 0.06421912 0.06368516 0.0644379 0.06593151 0.06787014
 0.06936572 0.06845921 0.06405121 0.05834191 0.05584567 0.05909605 0.06594315 0.07165927 0.07314451 0.0706607
 0.06645379 0.06289059 0.06156946 0.06289697 0.06601477 0.06950821 0.07226028 0.07351275 0.0726863 0.06988207
 0.06636629 0.06395601 0.06390752 0.06642853 0.07063202 0.07460931 0.07629697 0.07500488 0.07187715 0.068682
 0.06664484 0.06645282 0.06843132 0.07220243 0.07666456 0.08062961 0.08330549 0.08437648 0.08407215 0.08302145
 0.08177285 0.08070628 0.0803682 0.08113174 0.08231167 0.0824278 0.0808154 0.07851124 0.07718565 0.07741655
 0.07822938 0.07828453 0.07723488 0.07550901 0.07298627 0.06896697 0.06377737 0.05920179 0.05669828 0.05628743
 0.05761155 0.06049968 0.063719 0.06490944 0.06317197 0.06071136 0.06064947 0.06369349 0.06777599 0.07057337
 0.07165146 0.07229601 0.07385941 0.07638035 0.07840905 0.07810205 0.07505409 0.07132062 0.06995803 0.07202487
 0.07557096 0.07803766 0.07895134 0.07963632 0.08089446 0.0817586 0.08050161 0.07669011 0.07228257 0.0704193
 0.07268853 0.07753457 0.08138791 0.08131361 0.076987 0.07075021 0.06578036 0.06389506 0.06507121 0.06865767
 0.07408592 0.08024164 0.08517309 0.08718827 0.08609384 0.08308436 0.07938388 0.07512909 0.07001407 0.0651388
 0.06322747 0.06604856 0.07214715 0.07805939 0.08140475 0.08206882 0.08084972 0.07799137 0.07340366 0.06804939
 0.06438956 0.06447466 0.06747897 0.07017294 0.07030374 0.0686433 0.06732147 0.0671687 0.06741717 0.06733
 0.0672401 0.06796561 0.06963728 0.07138979 0.07220326 0.07183488 0.07085498 0.06997976 0.06942897 0.06877853
 0.06755988 0.06618559 0.06590724 0.06743947 0.06997304 0.07201028 0.07286955 0.07292512 0.07261114 0.07167449
 0.0695589 0.06646521 0.06378374 0.06306513 0.06451686 0.06687403 0.06871825 0.0694982 0.06938352 0.06874591
 0.06791088 0.06705755 0.06627397 0.06577633 0.06584547 0.06641448 0.06699778 0.06718072 0.06695132 0.06647179
 0.06578183 0.06486407 0.06385377 0.06304314 0.06266993 0.06273344 0.06303652 0.06336853 0.06357633 0.06351559
 0.06310186 0.06243468 0.06173994 0.06116487 0.06072601 0.06043677 0.06034891 0.06044149 0.06057075 0.06058207
 0.06042981 0.06016347 0.05983607 0.05946293 0.05905526 0.05866152 0.0583612 0.05820607 0.05815845 0.05811767
 0.0580381 0.05797774 0.05797718 0.05794536 0.05775099 0.05739751 0.05702557 0.05675794 0.05660412 0.05650098
 0.05638171 0.0561903 0.0558774 0.05544128 0.05498528 0.05468281 0.05464149 0.05482368 0.05511056 0.05538943
 0.05556836 0.05559186 0.05548625 0.05533348 0.05517383 0.05497861 0.05472613 0.05446477 0.05429284 0.0542858
 0.05442933 0.05462227 0.05475896 0.05479862 0.05475706 0.0546791 0.05462848 0.05464347 0.05468049 0.05465459
 0.05455 0.0544448 0.05441479 0.05444843 0.05446789 0.05441828 0.05432839 0.05427931 0.05431518 0.0544023
 0.0544798 0.05452483 0.05455644 0.05459429 0.05462525 0.0546108 0.05453363 0.0544317 0.05436393 0.05434668
 0.05435239 0.05436588 0.05440667 0.05448887 0.05458485 0.05464455 0.05464604 0.05461602 0.05459176 0.05457081
 0.05451797 0.0544208 0.0543125 0.05423423 0.05419554 0.05417699 0.05415384 0.05411066 0.05404348 0.05395579
 0.05385226 0.05373462 0.05360217 0.05345932 0.05332668 0.05323689 0.05320514 0.05320372 0.05317754 0.05309087
 0.05295656 0.05282026 0.05271687 0.0526433 0.05257461 0.05250072 0.05243551 0.05239391 0.05237614 0.05237683
 0.05239308 0.05242107 0.05246196 0.05253721 0.05267819 0.05288528 0.05310886 0.05328936 0.05341417 0.0535216
 0.05365304 0.05381664 0.05399681 0.05418317 0.05438423 0.05461494 0.05486845 0.05510548 0.05528875 0.05542902
 0.05557667 0.05576664 0.05599266 0.05623337 0.05647372 0.0566977 0.05689069 0.05706125 0.05723928 0.05744128
 0.05765267 0.0578538 0.05804989 0.05826329 0.05850464 0.05876651 0.05904344 0.05934468 0.05968107 0.0600445
 0.06040526 0.06073109 0.06101489 0.06128759 0.06159842 0.06197517 0.06240196 0.06283506 0.06323852 0.06360811
 0.06396441 0.06432429 0.06468496 0.06504337 0.06542018 0.0658439 0.066313 0.0667931 0.06725496 0.0676991
 0.06814147 0.06859051 0.06904398 0.06949846 0.06995521 0.0704174 0.07088224 0.07133782 0.07177132 0.07218142
 0.07258142 0.07299177 0.07342809 0.07388628 0.07433433 0.0747328 0.07507765 0.07541327 0.07578483 0.07618415
 0.07656512 0.07690938 0.07724911 0.07761922 0.07801471 0.07840949 0.07879578 0.07918571 0.07958538 0.07998066
 0.08034369 0.08064938 0.08089676 0.08111785 0.08135577 0.08163436 0.08195738 0.08232567 0.08273113 0.08313974
 0.08350596 0.08380768 0.08405395 0.08426718 0.08447563 0.08471134 0.08499064 0.08529884 0.08560462 0.08588086
 0.08611006 0.08629705 0.08648694 0.08673993 0.08707073 0.08743829 0.08780909 0.08819869 0.08862889 0.08907718
 0.08950546 0.08992077 0.09036471 0.09084223 0.09129779 0.09167533 0.09197115 0.0922149 0.09243111 0.09264897
 0.09292099 0.09329004 0.09374126 0.09421574 0.0946696 0.09509838 0.09550845 0.09588816 0.09621361 0.0964718
 0.09667303 0.0968431 0.09700654 0.09717952 0.0973741 0.09759468 0.09782258 0.09801686 0.09813982 0.09817281
 0.09810347 0.09792157 0.0976458 0.09733506 0.09704019 0.09674539 0.0963781 0.09587824 0.09523997 0.09448755
 0.09363743 0.09270169 0.09171884 0.09076509 0.08993093 0.08928943 0.08888793 0.08876272 0.08894527 0.0894344
 0.09015678 0.0909677 0.09170197 0.09222335 0.09243508 0.0922792 0.09175687 0.09094401 0.08996364 0.08893463
 0.08794159 0.08702984 0.08621129 0.08549029 0.08490904 0.08457181 0.08461927 0.08518009 0.08633335 0.08807632
 0.09029295 0.09275734 0.09520372 0.09742926 0.09935415 0.1010012 0.1024345 0.1037182 0.1049045 0.1060212
 0.1070614 0.108002 0.108838 0.1095844 0.110249 0.1108184 0.1112712 0.1115945 0.1117914 0.1118895
 0.1119373 0.1119847 0.1120668 0.1122048 0.1124019 0.1126237 0.1127928 0.1128179 0.1126366 0.1122425
 0.1116953 0.1111365 0.1108001 0.1109809 0.1119227 0.1136759 0.1160363 0.118636 0.1211168 0.1232536
 0.1249725 0.1263091 0.1273562 0.1282153 0.1289603 0.1296321 0.1302533 0.1308397 0.1313992 0.1319335
 0.1324459 0.1329468 0.1334495 0.133958 0.1344575 0.1349253 0.1353558 0.1357711 0.1362008 0.136656
 0.1371245 0.1375886 0.1380451 0.138506 0.1389765 0.1394382 0.1398638 0.1402494 0.1406188 0.1410004
 0.1414092 0.1418463 0.1422953 0.1427234 0.1431041 0.1434418 0.1437636 0.1440904 0.1444243 0.1447592
 0.1450912 0.1454192 0.1457451 0.146077 0.1464251 0.146789 0.1471498 0.1474819 0.1477781 0.1480556
 0.148338 0.1486352 0.148941 0.1492442 0.1495388 0.1498343 0.1501523 0.1505054 0.1508746 0.1512214
 0.151524 0.1517958 0.1520675 0.1523585 0.1526696 0.1529928 0.1533201 0.1536435 0.1539556 0.1542548
 0.1545495 0.1548512 0.1551629 0.1554769 0.1557838 0.1560812 0.156373 0.1566647 0.1569634 0.1572793
 0.1576187 0.1579728 0.1583162 0.1586231 0.1588863 0.1591211 0.1593526 0.1595995 0.1598674 0.1601509
 0.160441 0.1607305 0.1610154 0.1612949 0.1615719 0.1618517 0.1621387 0.1624344 0.1627366 0.1630405
 0.163341 0.1636349 0.1639206 0.1641954 0.1644581 0.1647142 0.1649744 0.1652454 0.1655243 0.1658017
 0.1660689 0.1663243 0.1665768 0.1668388 0.1671123 0.1673868 0.1676506 0.1679007 0.1681408 0.1683771
 0.1686179 0.1688709 0.1691366 0.1694063 0.1696697 0.1699245 0.1701764 0.1704309 0.1706895 0.1709504
 0.1712108 0.1714667 0.1717163 0.1719643 0.1722176 0.1724769 0.1727355 0.1729868 0.1732284 0.1734638
 0.1737002 0.1739426 0.1741902 0.1744397 0.1746898 0.1749396 0.1751868 0.1754313 0.1756763 0.1759268
 0.1761877 0.17646 0.1767355 0.1770015 0.1772524 0.1774951 0.1777411 0.1779969 0.1782579 0.1785125
 0.1787564 0.1789975 0.1792431 0.1794875 0.179722 0.1799482 0.1801729 0.1803974 0.1806184 0.1808329
 0.1810406 0.1812475 0.1814621 0.1816853 0.1819108 0.1821343 0.1823549 0.1825726 0.1827927 0.1830243
 0.1832678 0.1835124 0.1837493 0.1839797 0.184209 0.1844424 0.1846811 0.1849217 0.1851616 0.1854042
 0.1856505 0.1858944 0.186131 0.1863613 0.1865859 0.1868074 0.1870344 0.18727 0.1875046 0.1877292
 0.1879455 0.1881578 0.1883679 0.1885817 0.1888041 0.1890327 0.1892632 0.1894938 0.1897193 0.1899347
 0.1901423 0.1903455 0.1905434 0.1907388 0.1909385 0.1911432 0.1913516 0.1915674 0.1917894 0.1920086
 0.1922232 0.1924392 0.192657 0.1928745 0.1930938 0.1933092 0.1935093 0.1936979 0.1938875 0.1940656
 0.194175 0.1940801 0.1934727 0.191761 0.1880468 0.1812963 0.1707536 0.1564282 0.1392624 0.1207915
 0.1025731 0.08578368 0.07111357 0.05886529 0.04910507 0.0417554 0.03665346 0.03365671 0.0327555 0.03418426
 0.03853728 0.04641272 0.05708669 0.06734618 0.07274447 0.0711132 0.06463727 0.05786497 0.05393131 0.0530477
 0.05386429 0.05523402 0.05679785 0.05876759 0.06149989 0.06509256 0.06937382 0.07434203 0.08037141 0.08773267
 0.09603049 0.104376 0.1121536 0.1195018 0.1270039 0.134988 0.1431814 0.1509759 0.1579086 0.163894
 0.16913 0.1738814 0.1783269 0.1825401 0.1865491 0.1903471 0.1938076 0.1966414 0.1985329 0.1993829
 0.1994272 0.1991032 0.1987917 0.1986707 0.1987598 0.199031 0.199461 0.2000318 0.200725 0.2015164
 0.2023693 0.2032444 0.2041148 0.2049601 0.2057609 0.2065066 0.2071982 0.207836 0.2084162 0.2089398
 0.2094158 0.2098557 0.2102708 0.2106678 0.2110463 0.2114046 0.2117476 0.2120805 0.212398 0.2126867
 0.212939 0.2131599 0.2133656 0.2135721 0.2137843 0.2139978 0.2142093 0.2144216 0.2146368 0.214854
 0.2150704 0.2152818 0.2154852 0.2156865 0.2158982 0.2161213 0.2163405 0.2165416 0.2167265 0.2169074
 0.2170938 0.2172886 0.2174897 0.2176938 0.217901 0.2181123 0.2183265 0.2185415 0.2187574 0.2189745
 0.2191936 0.2194184 0.21965 0.2198794 0.2200996 0.2203183 0.2205473 0.220785 0.2210227 0.2212578
 0.2214859 0.221693 0.2218712 0.2220383 0.2222293 0.222466 0.2227364 0.2230064 0.2232521 0.2234749
 0.2236856 0.2238883 0.2240849 0.2242791 0.2244769 0.2246944 0.2249529 0.2252497 0.2255518 0.225835
 0.2261041 0.2263669 0.2266201 0.2268682 0.2271175 0.2273483 0.2275295 0.2276739 0.2278536 0.2281432
 0.2285424 0.2289646 0.2293167 0.2295851 0.2298238 0.230085 0.2303855 0.2306969 0.2309223 0.2309577
 0.2308512 0.2308384 0.2311329 0.2317148 0.2323789 0.2329418 0.2333561 0.2336712 0.2339463 0.2341924
 0.2343673 0.2344297 0.2344213 0.2344934 0.2348013 0.2353418 0.2359414 0.2364346 0.236797 0.2370813
 0.2373226 0.237533 0.2376704 0.237588 0.23719 0.2367025 0.2366135 0.237203 0.2382246 0.2391654
 0.2397547 0.2401043 0.240413 0.2407223 0.2409739 0.2410634 0.2407342 0.2397241 0.2382862 0.2373279
 0.2376629 0.2391933 0.2410671 0.2425275 0.2433859 0.2438302 0.2440992 0.2443278 0.2444469 0.2441794
 0.243348 0.2422981 0.24182 0.2424189 0.2437486 0.2449874 0.2456786 0.2459726 0.2461897 0.2464574
 0.2466256 0.2462187 0.2447019 0.2422767 0.2402906 0.2402948 0.2425243 0.2456103 0.2479358 0.2490301
 0.2494416 0.2495412 0.2489733 0.2472948 0.2446443 0.2416745 0.2393439 0.2387879 0.2405713 0.2437416
 0.2463643 0.2474317 0.247718 0.2485025 0.2500409 0.2515748 0.2523214 0.2520798 0.2510919 0.2496127
 0.2477897 0.2460596 0.245389 0.2465886 0.2493233 0.252233 0.2541931 0.2551671 0.2556051 0.25512
 0.2522282 0.2461308 0.2389368 0.2350792 0.2373991 0.2441722 0.2509649 0.2549973 0.256658 0.2574181
 0.2578612 0.2575293 0.2551883 0.2494994 0.2411318 0.2340963 0.2330341 0.2386261 0.2468216 0.2526191
 0.2534734 0.2495657 0.2429098 0.2367611 0.2342928 0.2366654 0.242509 0.2492795 0.2547936 0.2578303
 0.2581176 0.2562083 0.2534268 0.2515465 0.2515182 0.2520646 0.2506379 0.2466375 0.2424106 0.239803
 0.2372962 0.232815 0.228274 0.2283066 0.2342415 0.2418861 0.2462348 0.2465399 0.2454265 0.2441229
 0.2403686 0.2316753 0.2200332 0.2120018 0.2129648 0.2215503 0.2308621 0.2352255 0.2346997 0.2330649
 0.2327642 0.2324074 0.2287435 0.2208997 0.2125013 0.2086294 0.2104387 0.2141236 0.2154251 0.2130623
 0.2072717 0.198382 0.1891721 0.1857639 0.1924483 0.2064035 0.2199132 0.2267349 0.2243941 0.2127785
 0.1949086 0.1786451 0.172874 0.1795952 0.1915227 0.1987958 0.1968194 0.1870921 0.1729435 0.1571967
 0.1433957 0.1362367 0.1387342 0.1491366 0.1611605 0.1672455 0.1627246 0.1493245 0.1352291 0.1291986
 0.1327522 0.1392528 0.1413815 0.1377514 0.1318479 0.1273865 0.1261057 0.1276753 0.1301245 0.131616
 0.1319219 0.1305625 0.1248371 0.1131873 0.09986503 0.09218957 0.09290281 0.09874535 0.106412 0.1154458
 0.1243212 0.1284548 0.1253794 0.1194841 0.1183125 0.1245746 0.1337926 0.1397223 0.1405209 0.1391115
 0.1386137 0.1389242 0.1383513 0.137412 0.1389606 0.144223 0.1506039 0.1545566 0.1552707 0.1543555
 0.1531293 0.1516429 0.1495978 0.1469185 0.1436752 0.1401594 0.1368061 0.1337211 0.1306164 0.1272949
 0.1236451 0.119009 0.1123609 0.1038683 0.09583 0.09092399 0.08945061 0.08945031 0.08956496 0.08990563
 0.08949313 0.08540586 0.07665913 0.06746923 0.06418949 0.06917375 0.07904003 0.08850358 0.0943304 0.09558024
 0.09212841 0.0850925 0.0785001 0.07802908 0.08631489 0.100395 0.1149359 0.1268289 0.1354285 0.1399997
 0.1394743 0.134672 0.1291051 0.1270149 0.1308636 0.1401876 0.1515809 0.1594121 0.1585946 0.149771
 0.1418006 0.1452021 0.1609227 0.1785389 0.1879533 0.1896995 0.1906767 0.1934321 0.1949506 0.1944042
 0.1961881 0.2038942 0.2149729 0.2231987 0.2241074 0.216747 0.2030727 0.1883512 0.1798097 0.180932
 0.1876441 0.1928587 0.1933935 0.1895795 0.1810488 0.1684579 0.1579571 0.1575002 0.1675927 0.1801691
 0.1877712 0.1903485 0.1919263 0.193679 0.1925676 0.1860082 0.1761656 0.1685964 0.1667287 0.1688435
 0.1709355 0.1709207 0.1687451 0.164062 0.1564029 0.1475421 0.1415125 0.1411605 0.1453224 0.1500538
 0.1523062 0.1519397 0.1506565 0.1499597 0.1501826 0.1506986 0.1509561 0.1517946 0.1552913 0.1623643
 0.1710268 0.178301 0.1836052 0.1889329 0.1957265 0.2028109 0.2077173 0.2093195 0.2089379 0.2092614
 0.2122106 0.217378 0.222304 0.2245802 0.2241514 0.2235889 0.2257131 0.230858 0.2368069 0.2412683
 0.2437401 0.2450294 0.2459058 0.2464841 0.2462102 0.2443471 0.241199 0.238831 0.2396575 0.2440581
 0.2499653 0.2548978 0.2578756 0.2593454 0.259931 0.2597251 0.258625 0.2569468 0.2554507 0.2547768
 0.2550178 0.2558592 0.2569439 0.2580249 0.2589573 0.2597069 0.2603263 0.26087 0.2613702 0.2618782
 0.2624357 0.2630006 0.2634933 0.2639457 0.2645166 0.2652995 0.2661773 0.2669307 0.2674283 0.2676177
 0.2673975 0.266652 0.2654169 0.263872 0.2621336 0.2601785 0.2580831 0.2562833 0.2554482 0.2559934
 0.2577138 0.2599221 0.2619368 0.2634265 0.2643911 0.2649731 0.2653395 0.2656442 0.2659954 0.2664268
 0.2669128 0.2674162 0.2679232 0.2684395 0.2689715 0.2695299 0.2701452 0.2708485 0.2716287 0.2724257
 0.2731672 0.2738082 0.2743421 0.2747903 0.275176 0.2754917 0.275691 0.2757224 0.2755744 0.2752929
 0.2749566 0.2746266 0.2743033 0.2739276 0.2734314 0.2727845 0.2719741 0.2709579 0.2696952 0.2682407
 0.2667539 0.2653731 0.2641128 0.2629032 0.2616839 0.2604264 0.2591113 0.2577275 0.2562811 0.2547819
 0.2532328 0.2516375 0.2500031 0.2483318 0.2466199 0.2448628 0.2430546 0.2411875 0.2392596 0.2372699
 0.2351879 0.232924 0.2303414 0.2273053 0.22372 0.2195341 0.2147528 0.2094693 0.2038746 0.198209
 0.1926931 0.1874893 0.1827029 0.1784057 0.1746553 0.1714974 0.1689629 0.167078 0.1658713 0.1653605
 0.1655351 0.1663553 0.1677522 0.1696189 0.1718133 0.1741744 0.1765319 0.1787263 0.180661 0.1823499
 0.1838959 0.1854073 0.1869269 0.1884321 0.1898823 0.1912491 0.1924997 0.1935864 0.1944771 0.1951841
 0.1957438 0.1961784 0.1964917 0.1966868 0.1967753 0.1967794 0.1967357 0.1966963 0.1967273 0.1968954
 0.1972346 0.1977235 0.1983092 0.1989517 0.1996343 0.200341 0.2010428 0.2017123 0.2023435 0.2029546
 0.2035738 0.2042414 0.2050374 0.2060927 0.2075423 0.2094597 0.2118272 0.2145422 0.2174353 0.2203079
 0.2229835 0.2253366 0.2272978 0.2288559 0.2300499 0.2309347 0.2315506 0.2319235 0.2320806 0.2320568
 0.2318925 0.231625 0.2312797 0.2308741 0.2304292 0.2299699 0.2295167 0.2290834 0.2286762 0.2282916
 0.2279291 0.2276105 0.2273805 0.2272813 0.2273189 0.227441 0.2275525 0.2275722 0.2274766 0.2272835
 0.2270078 0.2266445 0.2261746 0.2255707 0.2248065 0.2238679 0.2227474 0.221435 0.2199308 0.2182673
 0.216516 0.2147746 0.2131328 0.2116298 0.2102377 0.2088836 0.2074733 0.2059127 0.2041498 0.2022159
 0.2002064 0.1982112 0.1962699 0.1943796 0.1925249 0.1907021 0.1889233 0.1872039 0.1855528 0.1839741
 0.1824618 0.1809916 0.1795419 0.1781301 0.1768136 0.1756494 0.1746633 0.1738458 0.1731624 0.1725725
 0.1720448 0.1715614 0.1711206 0.1707431 0.1704513 0.1702272 0.1700061 0.1697228 0.1693533 0.168915
 0.1684484 0.1679947 0.1675761 0.1671926 0.1668289 0.1664453 0.1659667 0.1653 0.1643684 0.1631261
 0.1615646 0.1597185 0.1576615 0.1554938 0.1533375 0.1513213 0.1495477 0.1480757 0.146919 0.1460354
 0.1453318 0.1447174 0.1441621 0.1437039 0.1434048 0.1432834 0.1432565 0.1431716 0.1429488 0.1426766
 0.142536 0.1426447 0.142984 0.1434327 0.143848 0.1441407 0.1442942 0.1443238 0.1442465 0.1440885
 0.1438782 0.1436189 0.143296 0.1429027 0.1424408 0.1419175 0.1413486 0.1407377 0.1400618 0.1393034
 0.1384738 0.1375838 0.1366298 0.1356124 0.1345202 0.1333212 0.1320436 0.1308571 0.1300114 0.129687
 0.1298932 0.1304661 0.1311829 0.131914 0.1326039 0.133096 0.1331655 0.132882 0.1328014 0.1335625
 0.1352677 0.1373656 0.1391458 0.1402423 0.140657 0.1404956 0.1398385 0.1387631 0.137306 0.135432
 0.1331398 0.1305253 0.1277005 0.1247752 0.1219288 0.1193525 0.1171392 0.1153131 0.1138836 0.1128883
 0.1124275 0.1121355 0.1102693 0.1046074 0.09585544 0.08919394 0.08994572 0.09759675 0.1061317 0.1104015
 0.1102552 0.1084523 0.1069224 0.1059842 0.1055533 0.1057523 0.1066857 0.1082125 0.1099529 0.1114849
 0.1125864 0.1132338 0.1133682 0.1126978 0.110623 0.106408 0.09978282 0.09152251 0.08320862 0.07630279
 0.07148877 0.06868629 0.06735186 0.06679049 0.06649581 0.06638442 0.06671245 0.06775282 0.06955284 0.07197182
 0.07484004 0.07794854 0.08093619 0.08341531 0.08527362 0.08668745 0.08779407 0.08850607 0.08867496 0.0882917
 0.08749188 0.08646488 0.08538248 0.08434269 0.08333243 0.08226423 0.08111383 0.0800458 0.07932675 0.07906403
 0.0791086 0.07925026 0.07939994 0.07955005 0.07968874 0.07980743 0.07991859 0.08005889 0.08030841 0.08074351
 0.08132541 0.08189928 0.08232836 0.08258967 0.08274922 0.08285178 0.08280197 0.08243352 0.08180061 0.08124607
 0.08096445 0.08065154 0.07988466 0.07876505 0.07788871 0.07769214 0.07804532 0.07848695 0.07867145 0.07855608
 0.07833098 0.07828653 0.07863214 0.07926685</values></Ydata></ScSm><ScRf><Ydata ylabel="Single channel"><values byteorder="INTEL" format="FLOAT32" numvalues="1820"> 0.06067003 0.06082793 0.06092485 0.06096052 0.0609604 0.06096956 0.06103559 0.0611803 0.06137966 0.0615724
 0.06170203 0.06175747 0.06176292 0.06173396 0.06167574 0.06162629 0.06165602 0.06179792 0.06199779 0.06214998
 0.06218283 0.06212352 0.06208404 0.06215221 0.062272 0.06225797 0.06196861 0.06146906 0.06098992 0.06071417
 0.06066126 0.06082087 0.06126884 0.06195562 0.0624636 0.06230332 0.06152681 0.06076064 0.0605108 0.06067771
 0.06084562 0.06076713 0.06044171 0.06002104 0.05985104 0.06037859 0.06171082 0.0632512 0.06391282 0.06280253
 0.05985843 0.05605547 0.05304801 0.05228277 0.05397888 0.05683482 0.05900572 0.05957495 0.05899384 0.05815101
 0.05741347 0.05673963 0.05630044 0.05651603 0.05747795 0.05855595 0.05872513 0.05744671 0.05530989 0.05360899
 0.05315889 0.05378632 0.05503172 0.05665142 0.05790669 0.05715416 0.05346245 0.0486685 0.04656417 0.04929142
 0.05505539 0.05987804 0.06113826 0.05904805 0.05550354 0.05250742 0.05140385 0.05252056 0.05512597 0.05804011
 0.0603422 0.06139912 0.06071121 0.05835302 0.05539404 0.05337252 0.05334464 0.0554735 0.05900551 0.06234229
 0.06376018 0.06267937 0.0600521 0.0573592 0.05563473 0.05546322 0.05712353 0.06030182 0.06407197 0.06742875
 0.06969678 0.07060405 0.0703446 0.06945728 0.068415 0.06753688 0.06726749 0.06790702 0.06888196 0.06896243
 0.06760205 0.06567387 0.06457402 0.06477813 0.06546204 0.06550176 0.06461184 0.06315698 0.06103206 0.0576391
 0.05325056 0.04938074 0.04727193 0.04694385 0.04808973 0.05056325 0.05332358 0.0543704 0.05292836 0.05084537
 0.05075926 0.05328718 0.05670846 0.05907214 0.06000412 0.06057632 0.06192353 0.06408007 0.06582576 0.0656015
 0.06305526 0.05991867 0.05878309 0.06055384 0.06358124 0.06569681 0.06650504 0.06713657 0.06827127 0.06908076
 0.06809195 0.06493583 0.06127908 0.0597899 0.06181266 0.0660206 0.06937663 0.06937772 0.06574242 0.06047744
 0.05631354 0.05481338 0.05596207 0.05921932 0.06411654 0.06969072 0.07422966 0.07623198 0.07549708 0.07305303
 0.06998076 0.06641092 0.06207181 0.05794241 0.0564691 0.05925722 0.06501831 0.07064158 0.07397011 0.07487984
 0.07407139 0.07173929 0.06777533 0.06306975 0.05994211 0.06034124 0.06350045 0.06636823 0.06680398 0.06553216
 0.06457848 0.06474029 0.06528398 0.06550471 0.06574187 0.06681015 0.06883715 0.07095581 0.07214162 0.07214095
 0.07151748 0.07099474 0.0707965 0.07048196 0.06957059 0.06850778 0.06860825 0.07061394 0.07366937 0.07619862
 0.07748538 0.07793308 0.07800501 0.07740882 0.0755126 0.07252274 0.06997193 0.06958356 0.07160425 0.07464419
 0.07712361 0.07841587 0.07870679 0.07841608 0.07790653 0.07736976 0.07689755 0.07674033 0.07724082 0.07834715
 0.07949931 0.08018924 0.08037826 0.08025052 0.07985277 0.07916395 0.07835142 0.07777528 0.07773027 0.0782273
 0.07903811 0.07989973 0.08060101 0.08094287 0.08081558 0.08035485 0.07986167 0.0795247 0.07934788 0.07933963
 0.07958528 0.08007967 0.08063617 0.08104171 0.08122895 0.08125621 0.08118956 0.0810536 0.0808657 0.08068535
 0.08062054 0.08075181 0.08103034 0.0813076 0.08150928 0.08171104 0.08197752 0.08220659 0.08223574 0.08205958
 0.08184514 0.0817495 0.08179472 0.08190899 0.08200939 0.08201425 0.08183734 0.08146459 0.08105128 0.08086041
 0.08105113 0.08156562 0.08222674 0.08286509 0.08334656 0.08359771 0.08366029 0.08364615 0.0836048 0.08349084
 0.08327527 0.08304125 0.0829524 0.08312976 0.08354563 0.0840378 0.08443879 0.08467713 0.08477195 0.08479951
 0.08486868 0.08503807 0.08523118 0.08530948 0.08525027 0.08518322 0.08522948 0.08536051 0.08544329 0.08539927
 0.08529621 0.08527905 0.08541964 0.08565461 0.08587217 0.08603209 0.08618488 0.08638435 0.0865925 0.08668789
 0.08659439 0.08638673 0.08621929 0.08616082 0.08616553 0.08620164 0.08631641 0.08653681 0.0867767 0.08690777
 0.08690389 0.08686665 0.08689966 0.08698788 0.087022 0.08692644 0.0867371 0.08655918 0.08647729 0.08650795
 0.0866062 0.08669762 0.08671881 0.0866528 0.08653328 0.08640996 0.08631113 0.0862512 0.08626737 0.08641102
 0.08666998 0.08691624 0.08698036 0.08680397 0.08650556 0.08627614 0.08620748 0.0862271 0.08619273 0.08603068
 0.08577967 0.08552667 0.08532947 0.08519414 0.08509634 0.08501329 0.08495368 0.08496402 0.08507946 0.08525023
 0.08534346 0.0852556 0.08501571 0.08475199 0.08457027 0.08448978 0.08447126 0.08446696 0.0844578 0.08447039
 0.08453871 0.08463281 0.08466606 0.08459659 0.08448378 0.08442725 0.08448824 0.08466858 0.08490561 0.08507971
 0.08509447 0.08497566 0.08484936 0.08481038 0.08485124 0.08492105 0.08500041 0.08509573 0.0852002 0.0852987
 0.08540235 0.08555068 0.08577175 0.08604579 0.08630975 0.08650067 0.08660805 0.08669193 0.08684099 0.08709952
 0.08743198 0.08775739 0.08801764 0.08821595 0.08839507 0.0885832 0.08877269 0.08895799 0.08917069 0.08944792
 0.08977757 0.09010765 0.09040603 0.09068292 0.0909598 0.09124349 0.09153424 0.09184378 0.09219904 0.09261745
 0.09306479 0.09345122 0.0937009 0.09382935 0.09393778 0.09413515 0.09446451 0.09487097 0.095225 0.09542063
 0.09548604 0.09556649 0.09576578 0.09604055 0.09628971 0.0965105 0.09680273 0.09722532 0.09770405 0.09809972
 0.0983429 0.09848532 0.09862983 0.0988207 0.09900989 0.09913334 0.09920146 0.09928446 0.09941974 0.09958515
 0.09977499 0.1000423 0.1004246 0.1008657 0.1012584 0.1015432 0.1017333 0.1018684 0.1019784 0.1020735
 0.1021413 0.1021702 0.1021877 0.102245 0.1023469 0.1024363 0.1024735 0.1024948 0.1025678 0.1027195
 0.1029398 0.1032193 0.1035404 0.1038529 0.1041171 0.1043686 0.1046859 0.1050703 0.1054092 0.1055966
 0.1056496 0.1056629 0.1056853 0.1057076 0.1057488 0.105876 0.1061247 0.106455 0.1068045 0.1071502
 0.1075005 0.1078515 0.1081687 0.1084022 0.1085194 0.1085325 0.1085 0.108501 0.1086018 0.1088261
 0.10914 0.1094715 0.1097553 0.1099554 0.1100505 0.1100323 0.1099455 0.109898 0.1099804 0.1101663
 0.110323 0.1103259 0.1101393 0.1097871 0.1092914 0.1086702 0.1079771 0.1073074 0.1067536 0.1063635
 0.1061467 0.1061182 0.1063165 0.1067606 0.1073913 0.108084 0.108723 0.109236 0.109553 0.1095838
 0.1092811 0.108703 0.1079821 0.1072427 0.1065561 0.1059383 0.1053573 0.1047759 0.1042328 0.1038804
 0.1039156 0.104463 0.1055114 0.106923 0.1084801 0.1099537 0.1111903 0.1121658 0.1129586 0.1136636
 0.1143326 0.1149879 0.1156523 0.1163313 0.1169829 0.1175479 0.1180169 0.1184369 0.1188495 0.1192475
 0.1195948 0.1198661 0.1200716 0.1202556 0.1204571 0.1206538 0.1207689 0.120754 0.1206445 0.1205129
 0.120387 0.120232 0.1199929 0.1196412 0.1192092 0.1188135 0.1186377 0.1188543 0.1195264 0.1205702
 0.1218196 0.1231292 0.1244086 0.1255748 0.1265265 0.1272027 0.127642 0.1279513 0.1282246 0.1285058
 0.1288063 0.1291221 0.1294381 0.1297353 0.1300077 0.1302728 0.1305633 0.1308964 0.1312463 0.1315596
 0.1318091 0.1320298 0.1322916 0.1326342 0.1330276 0.133402 0.1337225 0.1340221 0.1343435 0.1346675
 0.1349328 0.1351193 0.1352768 0.1354741 0.1357494 0.1361011 0.1364868 0.1368324 0.1370824 0.1372494
 0.1373975 0.1375785 0.1378002 0.1380469 0.1383049 0.1385646 0.138819 0.1390744 0.1393524 0.1396636
 0.1399763 0.1402315 0.1404015 0.1405234 0.140664 0.140856 0.1410791 0.1412948 0.1414926 0.141704
 0.1419716 0.142299 0.1426324 0.1429016 0.1430797 0.1431987 0.1433135 0.1434596 0.1436422 0.1438494
 0.1440665 0.1442796 0.14448 0.1446696 0.1448604 0.1450623 0.1452737 0.1454866 0.1456962 0.1459018
 0.1461029 0.1462999 0.1465027 0.146735 0.1470174 0.1473376 0.147645 0.1478887 0.1480607 0.1481928
 0.1483203 0.1484613 0.1486233 0.1488078 0.149007 0.1492088 0.1494079 0.1496073 0.1498114 0.1500205
 0.1502324 0.1504438 0.1506512 0.1508537 0.1510559 0.1512678 0.151496 0.1517344 0.1519654 0.1521744
 0.1523627 0.1525463 0.1527413 0.1529492 0.1531559 0.1533472 0.1535241 0.1537001 0.1538852 0.1540785
 0.154274 0.1544662 0.1546537 0.1548397 0.155029 0.1552235 0.1554224 0.1556253 0.1558304 0.1560335
 0.1562307 0.1564212 0.1566073 0.1567926 0.1569811 0.1571748 0.1573741 0.15758 0.1577926 0.1580056
 0.1582089 0.1583992 0.158584 0.1587742 0.1589738 0.1591778 0.1593787 0.1595731 0.1597633 0.1599536
 0.1601489 0.1603529 0.160565 0.1607792 0.1609912 0.1612022 0.1614135 0.1616227 0.1618286 0.1620339
 0.1622407 0.1624494 0.1626622 0.1628827 0.1631118 0.1633455 0.1635753 0.1637912 0.1639881 0.1641697
 0.1643438 0.1645156 0.1646862 0.1648573 0.1650348 0.1652243 0.1654218 0.1656156 0.1658013 0.1659876
 0.1661828 0.1663838 0.166583 0.1667763 0.1669632 0.167146 0.1673319 0.1675267 0.1677303 0.1679401
 0.1681534 0.1683663 0.1685751 0.1687801 0.1689824 0.1691848 0.1693946 0.1696159 0.1698405 0.170056
 0.1702596 0.1704562 0.1706505 0.1708479 0.1710503 0.1712534 0.1714563 0.1716681 0.1718923 0.1721181
 0.1723354 0.1725451 0.1727496 0.1729508 0.1731541 0.1733636 0.1735777 0.1737974 0.1740227 0.1742424
 0.1744445 0.1746357 0.1748333 0.1750464 0.175273 0.1755039 0.1757264 0.1759377 0.1761476 0.1763614
 0.1765738 0.176783 0.1769885 0.1771718 0.1772875 0.177225 0.176708 0.1751854 0.1718182 0.1656488
 0.1559841 0.1428366 0.1270755 0.1101156 0.09339141 0.07798338 0.06452391 0.05329024 0.04434057 0.03759862
 0.03291442 0.03016242 0.02933715 0.03065246 0.03465569 0.04190522 0.05174527 0.06122199 0.06623296 0.06476392
 0.05881363 0.05257404 0.0489473 0.04813819 0.04890049 0.05016853 0.05160911 0.0534281 0.05596965 0.05932643
 0.06332341 0.06793916 0.07351618 0.08032031 0.08800533 0.09575454 0.1029867 0.109814 0.1167727 0.1241749
 0.1317758 0.1390108 0.1454483 0.1510105 0.155883 0.160309 0.1644506 0.1683773 0.1721209 0.1756769
 0.1789213 0.1815754 0.1833413 0.1841298 0.184166 0.1838636 0.1835838 0.1834944 0.183609 0.1838924
 0.1843154 0.1848583 0.1855067 0.1862432 0.1870389 0.187862 0.1886894 0.1895003 0.190272 0.1909938
 0.191668 0.1922922 0.1928576 0.1933643 0.1938245 0.1942503 0.1946492 0.195028 0.1953911 0.1957397
 0.1960753 0.1963976 0.1967008 0.1969785 0.1972305 0.1974627 0.1976815 0.1978904 0.1980911 0.1982881
 0.1984912 0.1987067 0.1989286 0.1991448 0.199351 0.1995502 0.1997466 0.1999431 0.2001405 0.2003359
 0.2005256 0.2007115 0.2008982 0.201087 0.2012787 0.2014755 0.2016743 0.2018647 0.2020433 0.2022219
 0.2024169 0.2026338 0.2028628 0.2030867 0.2032951 0.2034934 0.2036942 0.2039023 0.2041129 0.2043226
 0.2045332 0.2047453 0.2049578 0.2051685 0.2053705 0.2055516 0.2057082 0.2058559 0.2060249 0.206237
 0.2064828 0.206727 0.2069414 0.2071286 0.2073086 0.207494 0.2076856 0.2078779 0.2080656 0.2082557
 0.2084684 0.2087131 0.2089731 0.2092257 0.2094624 0.2096843 0.2098993 0.2101245 0.210363 0.2105816
 0.2107425 0.2108603 0.2110076 0.2112543 0.2116015 0.2119742 0.2122879 0.2125226 0.2127245 0.2129503
 0.2132263 0.213521 0.2137298 0.2137526 0.2136463 0.2136414 0.2139317 0.2144801 0.2150801 0.2155635
 0.2159027 0.2161582 0.2163881 0.2165992 0.2167498 0.2167973 0.2167745 0.2168191 0.2170821 0.2175709
 0.2181251 0.2185796 0.2188995 0.2191332 0.2193231 0.2194902 0.2195965 0.2194985 0.2190998 0.2186143
 0.2185063 0.2190409 0.2199855 0.2208603 0.2214143 0.2217481 0.2220381 0.2223196 0.2225468 0.2226349
 0.2223468 0.2214246 0.2200874 0.2191791 0.219474 0.220895 0.2226453 0.2240059 0.2247957 0.2251986
 0.2254461 0.2256594 0.2257607 0.2254903 0.2246965 0.2237123 0.2232703 0.2238321 0.2250707 0.2262194
 0.2268544 0.2271217 0.2273291 0.2275993 0.2277869 0.2274364 0.2260399 0.2237884 0.2219501 0.2219748
 0.2240704 0.2269496 0.2291068 0.2301132 0.2304888 0.2305848 0.2300691 0.2285215 0.2260631 0.2233024
 0.2211377 0.2206284 0.2222949 0.225246 0.2276854 0.2286828 0.2289594 0.2297021 0.231151 0.2326057
 0.2333351 0.2331425 0.2322465 0.2308846 0.2291977 0.2275957 0.2269789 0.2281007 0.2306534 0.2333786
 0.2352284 0.2361616 0.2365945 0.2361683 0.2334988 0.2278381 0.2211522 0.2175745 0.2197548 0.22609
 0.2324496 0.2362402 0.2378273 0.2385894 0.2390651 0.2388097 0.2366624 0.2313796 0.2235967 0.2170652
 0.2161198 0.2213883 0.229076 0.2345083 0.2353162 0.2316841 0.2255072 0.2198251 0.2175819 0.2198467
 0.2253488 0.2317306 0.2369589 0.2398887 0.2402537 0.2385532 0.236019 0.2343247 0.2343718 0.2349578
 0.2336885 0.2300017 0.2260962 0.2237026 0.2214114 0.2172934 0.2131507 0.2133311 0.2190777 0.2264417
 0.2307134 0.2311929 0.2303434 0.2293021 0.2259291 0.2178823 0.2070481 0.1996399 0.2007687 0.2091364
 0.2181951 0.2225636 0.2223058 0.2210121 0.2210132 0.221004 0.2178798 0.2107872 0.2032036 0.2000208
 0.2023353 0.2064635 0.2083081 0.206632 0.2016211 0.1935606 0.1851868 0.1825499 0.1899195 0.2045628
 0.2188748 0.2266348 0.2252866 0.2145959 0.1975548 0.1822195 0.1777883 0.1863578 0.2003711 0.2095712
 0.2091443 0.200576 0.1872613 0.1721858 0.1593335 0.1541334 0.160216 0.1757339 0.1933544 0.203882
 0.2013456 0.187673 0.1731576 0.1690534 0.1773 0.1891492 0.1949498 0.1929052 0.1877228 0.1845748
 0.186117 0.1919796 0.1991565 0.2048416 0.208667 0.2095179 0.2025225 0.1849054 0.1637264 0.1512256
 0.1521192 0.1611923 0.1730807 0.1870833 0.2007866 0.2067647 0.2009479 0.1903276 0.1870025 0.1953355
 0.2082228 0.2157886 0.2151652 0.2110132 0.2083307 0.2071325 0.2049439 0.2025643 0.2042715 0.211919
 0.2217047 0.228421 0.230874 0.2314089 0.231928 0.2324463 0.2324423 0.2317314 0.2303837 0.2288508
 0.2278293 0.2274778 0.227269 0.2267894 0.22571 0.2225659 0.2150811 0.20337 0.191961 0.1862018
 0.1865886 0.1891502 0.1913485 0.1935516 0.1935252 0.1848859 0.165535 0.1445774 0.1356941 0.1439201
 0.1618949 0.1782555 0.1863436 0.1847743 0.1740345 0.1566811 0.1400537 0.1339802 0.1427647 0.1610648
 0.1796095 0.1931862 0.2012224 0.2033612 0.1985044 0.187981 0.1767954 0.170757 0.1729499 0.1823888
 0.194347 0.2015656 0.1978093 0.1840724 0.1713079 0.1723388 0.1883996 0.207063 0.2162046 0.2162764
 0.2153681 0.2166375 0.2167585 0.2147561 0.2155323 0.223143 0.2348332 0.2437604 0.245005 0.2374975
 0.2233696 0.2084573 0.2007919 0.2041239 0.2135932 0.220964 0.222569 0.2188255 0.2093832 0.1951717
 0.1835492 0.1838768 0.1966797 0.2124234 0.2223469 0.2264427 0.2294871 0.2328151 0.232698 0.225993
 0.215393 0.2077765 0.2074109 0.2122244 0.2173344 0.2202019 0.2206637 0.2180154 0.2114486 0.2033756
 0.199461 0.2036991 0.2142609 0.2251734 0.2316344 0.2330133 0.2314755 0.2291681 0.2267692 0.2236436
 0.2192681 0.2150898 0.2142491 0.2182287 0.2245045 0.229143 0.2313005 0.2335022 0.2376584 0.2424252
 0.244837 0.2435453 0.2401047 0.2376197 0.2382536 0.2415166 0.2446323 0.2449011 0.2422618 0.2395917
 0.2400609 0.2441079 0.2493699 0.2533765 0.2555674 0.2567847 0.2578254 0.2587401 0.25879 0.2570029
 0.2535429 0.2505102 0.2504536 0.2538465 0.2586416 0.2623933 0.2642373 0.2647581 0.2646452 0.2639726
 0.2625886 0.2607605 0.2592007 0.2585047 0.2587266 0.2595155 0.2604882 0.2613952 0.2621039 0.2625886
 0.2629043 0.263104 0.2632118 0.2632733 0.2633387 0.2633795 0.2633207 0.2631972 0.2631831 0.2633966
 0.2637421 0.2640066 0.2640514 0.2638257 0.2632624 0.2622986 0.261 0.2595409 0.2580149 0.2563711
 0.2546496 0.2532437 0.2527879 0.2536786 0.2557018 0.2581619 0.260362 0.2619554 0.2629361 0.2634463
 0.2636489 0.2636911 0.263676 0.2636337 0.2635362 0.2633491 0.2630711 0.2627286 0.26235 0.2619581
 0.261583 0.2612584 0.2609873 0.2607196 0.2603842 0.2599447 0.2594227 0.2588714 0.2583297 0.2577886
 0.257194 0.2564823 0.2556275 0.2546642 0.2536771 0.2527564 0.2519405 0.2511916 0.2504355 0.2496219
 0.2487294 0.2477307 0.2466107 0.2454341 0.244346 0.2434628 0.2427742 0.2421677 0.2415247 0.2407763
 0.2399029 0.2389242 0.2378845 0.2368206 0.2357387 0.2346222 0.2334503 0.2322039 0.23087 0.2294472
 0.2279433 0.2263736 0.2247654 0.2231447 0.2214959 0.2197393 0.2177556 0.2154253 0.2126448 0.209332
 0.2054501 0.2010408 0.1962409 0.1912612 0.1863293 0.1816304 0.1772913 0.1734037 0.1700493 0.1673029
 0.1652201 0.1638262 0.1631209 0.1630979 0.1637561 0.1650817 0.16702 0.1694657 0.17227 0.1752568
 0.1782438 0.1810752 0.1836612 0.1860077 0.1881924 0.1902838 0.1922783 0.1941211 0.1957701 0.1972132
 0.1984424 0.1994516 0.2002654 0.2009394 0.201524 0.2020376 0.2024808 0.2028614 0.2031954 0.2034862
 0.2037222 0.2039004 0.2040437 0.2041888 0.2043636 0.2045815 0.2048498 0.2051802 0.2055869 0.2060674
 0.2065904 0.20712 0.207652 0.2082121 0.2088207 0.2094798 0.2101975 0.2110065 0.2119508 0.2130567
 0.214314 0.2156777 0.2170797 0.2184351 0.21965 0.2206445 0.2213825 0.2218741 0.2221513 0.2222466
 0.2221891 0.2220081 0.2217318 0.2213767 0.2209414 0.2204176 0.2198153 0.2191668 0.2184997 0.2178131
 0.2170924 0.2163423 0.2155975 0.2148964 0.2142472 0.2136281 0.2130192 0.2124232 0.2118496 0.2112908
 0.2107261 0.2101461 0.2095638 0.208998 0.2084471 0.2078768 0.2072373 0.2064949 0.2056465 0.2047057
 0.2036791 0.2025637 0.2013632 0.2000934 0.1987643 0.1973654 0.195881 0.1943119 0.1926715 0.1909597
 0.1891525 0.1872278 0.1852043 0.183152 0.1811597 0.1792898 0.1775653 0.1759836 0.1745237 0.1731483
 0.1718203 0.1705223 0.1692605 0.1680564 0.1669327 0.1658943 0.1649191 0.163977 0.1630616 0.1622015
 0.1614414 0.1608077 0.160289 0.1598491 0.1594603 0.1591184 0.1588404 0.1586587 0.1585998 0.1586463
 0.1587294 0.1587723 0.1587354 0.1586238 0.1584752 0.1583387 0.158246 0.1581959 0.1581595 0.158087
 0.157914 0.1575784 0.1570237 0.1561875 0.1550203 0.1535312 0.1518012 0.1499502 0.1481079 0.1463979
 0.1449179 0.1437287 0.1428476 0.1422283 0.1417684 0.141378 0.1410449 0.1408269 0.1407964 0.1409681
 0.141242 0.1414501 0.1415123 0.1415231 0.1416592 0.1420365 0.1426556 0.1434183 0.1441814 0.144841
 0.1453664 0.1457534 0.145995 0.1461094 0.1461356 0.1460907 0.1459726 0.1457871 0.1455407 0.1452358
 0.1448822 0.1444797 0.1440003 0.1434222 0.1427532 0.1420048 0.1411854 0.1403047 0.1393315 0.1382014
 0.1369527 0.1358093 0.135063 0.1348974 0.1353096 0.1361298 0.1371352 0.1381941 0.1392349 0.1400671
 0.1404414 0.1404334 0.140623 0.1416747 0.1437064 0.1461565 0.1482866 0.1497211 0.1504704 0.1506153
 0.15018 0.1492159 0.1477778 0.1458463 0.1434195 0.1406012 0.1375295 0.1343563 0.1313118 0.1286144
 0.1263412 0.1244868 0.123045 0.122056 0.1216483 0.1214532 0.1195767 0.1135846 0.1042659 0.09731184
 0.09851649 0.1072507 0.1169077 0.1218775 0.1220052 0.1202829 0.1187802 0.1178072 0.1172544 0.1172733
 0.1180046 0.1193022 0.1207573 0.1219409 0.1226696 0.1229934 0.1229086 0.1220856 0.1197801 0.1150984
 0.1077181 0.09851118 0.08925133 0.08157489 0.07622425 0.07306238 0.0714587 0.07066224 0.07014387 0.06983118
 0.07002774 0.07105845 0.07299352 0.07568559 0.07892837 0.08244239 0.08580136 0.08860739 0.09077948 0.09251803
 0.09396647 0.09504259 0.09560542 0.09564513 0.09527484 0.09463821 0.09386751 0.09305222 0.09217589 0.09112888
 0.08988714 0.08867287 0.0878194 0.08744936 0.0873875 0.08739658 0.08737807 0.08733673 0.08728077 0.08720073
 0.08709283 0.08700372 0.08705446 0.08735113 0.08784843 0.08835986 0.08871568 0.08888564 0.08895545 0.08897099
 0.08879682 0.08824065 0.08738887 0.08662667 0.08614485 0.08561659 0.08462872 0.08331427 0.08228305 0.08196241
 0.08221804 0.08259938 0.08275741 0.08261272 0.08232901 0.08222796 0.08256641 0.08323002 0.08373804 0.08370055
</values></Ydata></ScRf><Data_Parameters_AB><parameter name="DPF">1</parameter><parameter name="NPT">3497</parameter><parameter name="FXV">3996</parameter><parameter name="LXV">500</parameter><parameter name="CSF">1</parameter><parameter name="MXY">0.335406720638275</parameter><parameter name="MNY">-0.0789623782038689</parameter><parameter name="DAT">31/05/2022</parameter><parameter name="TIM">13:30:20.911 (GMT+2)</parameter><parameter name="DXU">WN</parameter></Data_Parameters_AB><AB__Qtest><MainReport name="Quality Test Report"><Header><Line><Legend>Test result ok/not ok [1/0]: </Legend><Value>0</Value></Line><Line><Legend>Method file: </Legend><Value>C:\Users\Public\Documents\Bruker\OPUS_8.2.28\QT\IRBT_v3_default.QT</Value></Line></Header><Matrix><Line><Legend></Legend><Legend>min</Legend><Legend>max</Legend><Legend>measured</Legend></Line><Line><Value>Absorption (X-Range 1):</Value><Value>0.400000</Value><Value>2.000000</Value><Value>0.249620</Value></Line><Line><Value>Noise (X-Range 4):</Value><Value></Value><Value>0.000300</Value><Value>0.000048</Value></Line><Line><Value>Signal/Noise (X-Range 2):</Value><Value>200.000000</Value><Value></Value><Value>133.993677</Value></Line><Line><Value>Signal/Noise (X-Range 3):</Value><Value>40.000000</Value><Value></Value><Value>47.674459</Value></Line><Line><Value>Water vapour (X-Range 5):</Value><Value></Value><Value>0.000300</Value><Value>0.000065</Value></Line><Line><Value>Signal/Water (X-Range 2):</Value><Value>100.000000</Value><Value></Value><Value>99.451090</Value></Line><Line><Value>Signal/Water (X-Range 3):</Value><Value>20.000000</Value><Value></Value><Value>35.384334</Value></Line><Line><Value>Fringes (X-Range 6):</Value><Value></Value><Value>0.000100</Value><Value>0.000062</Value></Line></Matrix></MainReport></AB__Qtest><Data_Parameters_ScSm><parameter name="DPF">1</parameter><parameter name="NPT">1814</parameter><parameter name="FXV">3996.33169228125</parameter><parameter name="LXV">499.541461535156</parameter><parameter name="CSF">1</parameter><parameter name="MXY">0.275722414255142</parameter><parameter name="MNY">0.0327555015683174</parameter><parameter name="DAT">31/05/2022</parameter><parameter name="TIM">13:30:20.911 (GMT+2)</parameter><parameter name="DXU">WN</parameter></Data_Parameters_ScSm><Data_Parameters_ScRf><parameter name="DPF">1</parameter><parameter name="NPT">1820</parameter><parameter name="FXV">4004.04661832813</parameter><parameter name="LXV">495.683998511719</parameter><parameter name="CSF">1</parameter><parameter name="MXY">0.264758110046387</parameter><parameter name="MNY">0.0293371509760618</parameter><parameter name="DAT">31/05/2022</parameter><parameter name="TIM">13:29:55.704 (GMT+2)</parameter><parameter name="DXU">WN</parameter></Data_Parameters_ScRf><Optic_Parameters_Rf><parameter name="APR">0</parameter><parameter name="APT">Open</parameter><parameter name="BMS">KBr</parameter><parameter name="DTC">RT-DLaTGS_IR-Biotyper [Microplate reader]</parameter><parameter name="HPF">0</parameter><parameter name="LPF">10.0</parameter><parameter name="LPV">4000</parameter><parameter name="PGR">0</parameter><parameter name="RCH">Module port</parameter><parameter name="RDX">0</parameter><parameter name="SRC">MIR</parameter><parameter name="VEL">10.0</parameter><parameter name="SON">Off</parameter></Optic_Parameters_Rf><Acquisition_Parameters_Rf><parameter name="ADT">1</parameter><parameter name="AQM">DD</parameter><parameter name="CFE">0</parameter><parameter name="COR">0</parameter><parameter name="DEL">0</parameter><parameter name="DLY">0</parameter><parameter name="HFW">8000</parameter><parameter name="LFW">0</parameter><parameter name="NSR">32</parameter><parameter name="PLF">AB</parameter><parameter name="RES">6</parameter><parameter name="RGN">-1</parameter><parameter name="STR">0</parameter><parameter name="TCL">MakeCompatibleScalar (0, {WSV=1.000000, ARV=0});</parameter><parameter name="TDL">37</parameter><parameter name="RPO">0</parameter></Acquisition_Parameters_Rf><FT_-_Parameters_Rf><parameter name="APF">B3</parameter><parameter name="HFQ">500</parameter><parameter name="LFQ">4000</parameter><parameter name="NLI">0</parameter><parameter name="PHR">24</parameter><parameter name="PHZ">ML</parameter><parameter name="SPZ">NO</parameter><parameter name="ZFF">1</parameter></FT_-_Parameters_Rf><Optic_Parameters_><parameter name="APR">0</parameter><parameter name="APT">Open</parameter><parameter name="BMS">KBr</parameter><parameter name="CHN">Module port</parameter><parameter name="DTC">RT-DLaTGS_IR-Biotyper [Microplate reader]</parameter><parameter name="HPF">0</parameter><parameter name="LPF">10.0</parameter><parameter name="LPV">4000</parameter><parameter name="PGN">0</parameter><parameter name="RDX">0</parameter><parameter name="SRC">MIR</parameter><parameter name="VEL">10.0</parameter><parameter name="SON">Off</parameter></Optic_Parameters_><FT_-_Parameters_><parameter name="APF">B3</parameter><parameter name="HFQ">500</parameter><parameter name="LFQ">4000</parameter><parameter name="NLI">0</parameter><parameter name="PHR">24</parameter><parameter name="PHZ">ML</parameter><parameter name="SPZ">NO</parameter><parameter name="ZFF">1</parameter></FT_-_Parameters_><Acquisition_Parameters_><parameter name="ADT">1</parameter><parameter name="AQM">DD</parameter><parameter name="CFE">0</parameter><parameter name="COR">0</parameter><parameter name="DEL">0</parameter><parameter name="DLY">0</parameter><parameter name="HFW">8000</parameter><parameter name="LFW">0</parameter><parameter name="NSS">32</parameter><parameter name="PLF">AB</parameter><parameter name="RES">6</parameter><parameter name="SOT">0</parameter><parameter name="TCL">MakeCompatibleScalar (0, {WSV=1.000000, ARV=0});</parameter><parameter name="TDL">37</parameter><parameter name="SPO">0</parameter><parameter name="SGN">-1</parameter></Acquisition_Parameters_><Instrument_Parameters_Rf><parameter name="HFL">15800.168544</parameter><parameter name="LFL">0</parameter><parameter name="LWN">15800.168544</parameter><parameter name="ABP">32197</parameter><parameter name="SSP">1</parameter><parameter name="ARG">2</parameter><parameter name="ASG">2</parameter><parameter name="ASS">32</parameter><parameter name="GFW">16</parameter><parameter name="GBW">16</parameter><parameter name="BFW">0</parameter><parameter name="BBW">0</parameter><parameter name="PKA">7259</parameter><parameter name="PKL">4996</parameter><parameter name="PRA">7442</parameter><parameter name="PRL">5001</parameter><parameter name="P2A">1</parameter><parameter name="P2L">1</parameter><parameter name="P2R">1</parameter><parameter name="P2K">1</parameter><parameter name="DAQ">0</parameter><parameter name="AG2">1</parameter><parameter name="SSM">1</parameter><parameter name="RSN">25671</parameter><parameter name="CRR">0</parameter><parameter name="SRT">1654003795.705</parameter><parameter name="DUR">19.6379852294922</parameter><parameter name="TSC">28.9</parameter><parameter name="MVD">0.383435398340225</parameter><parameter name="AN1">0.225830199799577</parameter><parameter name="AN2">0</parameter><parameter name="VSN">2.485 Apr  4 2017</parameter><parameter name="SRN">0085</parameter><parameter name="CAM">0</parameter><parameter name="INS">IR-Biotyper</parameter><parameter name="FOC">69</parameter><parameter name="RDY">1</parameter><parameter name="ARS">32</parameter></Instrument_Parameters_Rf><Sample_Parameters_><parameter name="BLD"></parameter><parameter name="CNM">Admin</parameter><parameter name="CPY"></parameter><parameter name="DPM"></parameter><parameter name="EXP">IRBT_v3_32Scans.XPM</parameter><parameter name="LCT"></parameter><parameter name="SFM">Microplate, HTS-XT</parameter><parameter name="SNM">220531-1301_MGM31F (D_2)_E2_709e4e6a-31b5-4481-8aac-16abb1954835.0</parameter><parameter name="XPP">C:\Users\Public\Documents\Bruker\OPUS_8.2.28\XPM</parameter><parameter name="IST">OK</parameter><parameter name="CPG">1252</parameter><parameter name="UID">78cf0f08-9271-4d25-a1e3-3ef74ad29f68</parameter></Sample_Parameters_><Instrument_Parameters_><parameter name="HFL">15800.168544</parameter><parameter name="LFL">0</parameter><parameter name="LWN">15800.168544</parameter><parameter name="ABP">32197</parameter><parameter name="SSP">1</parameter><parameter name="ASG">2</parameter><parameter name="ARG">2</parameter><parameter name="ASS">32</parameter><parameter name="GFW">16</parameter><parameter name="GBW">16</parameter><parameter name="BFW">0</parameter><parameter name="BBW">0</parameter><parameter name="PKA">7115</parameter><parameter name="PKL">4988</parameter><parameter name="PRA">7408</parameter><parameter name="PRL">4993</parameter><parameter name="P2A">1</parameter><parameter name="P2L">1</parameter><parameter name="P2R">1</parameter><parameter name="P2K">1</parameter><parameter name="DAQ">0</parameter><parameter name="AG2">1</parameter><parameter name="SSM">1</parameter><parameter name="RSN">13461</parameter><parameter name="CRR">0</parameter><parameter name="SRT">1654003820.912</parameter><parameter name="DUR">19.6379852294922</parameter><parameter name="TSC">28.9</parameter><parameter name="MVD">0.618446528911591</parameter><parameter name="AN1">0.225811230113638</parameter><parameter name="AN2">0</parameter><parameter name="VSN">2.485 Apr  4 2017</parameter><parameter name="SRN">0085</parameter><parameter name="CAM">0</parameter><parameter name="INS">IR-Biotyper</parameter><parameter name="FOC">69</parameter><parameter name="RDY">1</parameter></Instrument_Parameters_><History/></OPUSDataFile>
