<?xml version="1.0" encoding="UTF-8" ?>
<OPUSDataFile><AB><Ydata ylabel="Absorbance Units"><values byteorder="INTEL" format="FLOAT32" numvalues="3497"> -0.0719526 -0.07195234 -0.07195769 -0.0719695 -0.0719748 -0.07197292 -0.07195495 -0.07192177 -0.07188131 -0.07183611
 -0.07180603 -0.0717901 -0.07179748 -0.071821 -0.07184806 -0.0718744 -0.07188412 -0.0718856 -0.07188085 -0.0718815
 -0.07190046 -0.07193364 -0.07198577 -0.07203799 -0.07208377 -0.0721131 -0.07212021 -0.07211296 -0.0720912 -0.07206634
 -0.07203961 -0.0720159 -0.07199553 -0.07198121 -0.07197297 -0.07197235 -0.07197871 -0.0719891 -0.07200283 -0.07201565
 -0.07202804 -0.07203942 -0.07204944 -0.07205775 -0.07206272 -0.07206132 -0.07205576 -0.07204521 -0.07203712 -0.07203589
 -0.07204422 -0.07206676 -0.07209186 -0.07211874 -0.07213104 -0.07212491 -0.07209895 -0.07205153 -0.07199977 -0.0719445
 -0.07190605 -0.07188457 -0.07188778 -0.07191344 -0.07195251 -0.07200239 -0.07204804 -0.07209083 -0.07212505 -0.07215669
 -0.07219286 -0.07223859 -0.07230533 -0.0723863 -0.07248484 -0.07257775 -0.07265526 -0.07269417 -0.07267974 -0.07261699
 -0.07249912 -0.07236359 -0.07221308 -0.07209311 -0.07200822 -0.07199153 -0.07204518 -0.07217991 -0.07239316 -0.07265615
 -0.07295828 -0.0732208 -0.07343446 -0.073514 -0.07347883 -0.07332525 -0.07309382 -0.07285388 -0.07262282 -0.07245285
 -0.0723317 -0.07226892 -0.07224163 -0.07224026 -0.07224689 -0.07225084 -0.07225098 -0.07224334 -0.0722401 -0.0722432
 -0.07225803 -0.07228637 -0.07231527 -0.07234406 -0.07235973 -0.07236352 -0.07237051 -0.07238435 -0.0724377 -0.07252795
 -0.07266729 -0.07284101 -0.07302161 -0.07319199 -0.07330673 -0.07336906 -0.07336008 -0.07330256 -0.07321052 -0.07309517
 -0.07296667 -0.07282875 -0.07267871 -0.07254581 -0.07243273 -0.07238443 -0.07241054 -0.07252851 -0.07274598 -0.07300956
 -0.07331742 -0.07351375 -0.07359459 -0.07346064 -0.07313924 -0.0727616 -0.07234595 -0.07203548 -0.07181583 -0.07172406
 -0.07173786 -0.07184213 -0.07200334 -0.07218181 -0.07233741 -0.07241879 -0.07242278 -0.07231906 -0.07217047 -0.07199106
 -0.07184304 -0.07175306 -0.07171309 -0.07172916 -0.07176039 -0.07180197 -0.07184123 -0.07187694 -0.07192402 -0.07198242
 -0.07205526 -0.07213836 -0.07220623 -0.07225492 -0.07225341 -0.07220647 -0.07210726 -0.07196926 -0.07181099 -0.07164641
 -0.07150014 -0.07137796 -0.07129524 -0.07124456 -0.07122818 -0.07123017 -0.07124506 -0.07126123 -0.07127334 -0.07128263
 -0.07128832 -0.07129485 -0.07130371 -0.07130361 -0.07129408 -0.0712558 -0.07118876 -0.07109057 -0.07096373 -0.07082351
 -0.07067221 -0.07052607 -0.07038715 -0.07026844 -0.0701716 -0.07010678 -0.07007036 -0.07006495 -0.07007765 -0.07010043
 -0.07011779 -0.07011748 -0.07009499 -0.07004293 -0.06997316 -0.06988478 -0.06980188 -0.06972753 -0.06968554 -0.06967971
 -0.06971423 -0.06978992 -0.06988417 -0.06999476 -0.07008258 -0.07014648 -0.0701571 -0.07012024 -0.07004067 -0.06992908
 -0.0698152 -0.06970562 -0.06962673 -0.0695767 -0.06956517 -0.06958409 -0.06962999 -0.06969599 -0.0697763 -0.06987029
 -0.06997802 -0.07009301 -0.07021621 -0.07032832 -0.07042598 -0.07049756 -0.07054169 -0.07055069 -0.07052457 -0.07042015
 -0.07023651 -0.06994795 -0.06956727 -0.06917065 -0.06877238 -0.06847632 -0.06827205 -0.06819221 -0.06820378 -0.06826743
 -0.06834608 -0.06837021 -0.06834305 -0.06823424 -0.06808767 -0.06792261 -0.06776509 -0.06763561 -0.0675226 -0.06743028
 -0.06732692 -0.06720623 -0.06705455 -0.0668669 -0.06667118 -0.06646857 -0.06629782 -0.06615964 -0.06606699 -0.06601646
 -0.06599361 -0.06598991 -0.06596476 -0.06590994 -0.06577553 -0.06557768 -0.06531661 -0.0650248 -0.06475053 -0.06449293
 -0.06427583 -0.06406464 -0.06384535 -0.06359185 -0.06328217 -0.0629376 -0.06255361 -0.06218352 -0.06183792 -0.06154275
 -0.06130651 -0.06109186 -0.0608981 -0.06063505 -0.06029988 -0.05983477 -0.05925367 -0.05863027 -0.05798016 -0.05741515
 -0.05692016 -0.05651277 -0.05617123 -0.05586413 -0.05557697 -0.05528435 -0.05496249 -0.05458412 -0.05412845 -0.05356623
 -0.05292239 -0.05219702 -0.05142731 -0.05063003 -0.04979352 -0.04891676 -0.0479967 -0.04702924 -0.04605768 -0.04508478
 -0.04413656 -0.04321274 -0.04230192 -0.04140345 -0.04050755 -0.03961562 -0.03872924 -0.03784801 -0.0369708 -0.0360987
 -0.03523546 -0.03437567 -0.03352571 -0.03264507 -0.03170622 -0.03065976 -0.02944478 -0.02811953 -0.02667679 -0.02524288
 -0.02386441 -0.02255877 -0.02134405 -0.02016344 -0.01901216 -0.01785005 -0.01667354 -0.01547803 -0.01426454 -0.01305923
 -0.01186243 -0.01069652 -0.00954598 -0.008362651 -0.0071202 -0.005701839 -0.004142107 -0.002427516 -0.0006596594 0.0010141
 0.002586295 0.003975425 0.005275404 0.006521961 0.007784891 0.009114164 0.01049572 0.01194224 0.01339514 0.01484162
 0.01626549 0.01765874 0.01906743 0.02049365 0.02199603 0.0235749 0.02522743 0.02694406 0.02864652 0.03033237
 0.03194427 0.03349847 0.03501153 0.03649599 0.03798594 0.03947946 0.04098765 0.0425066 0.04403879 0.04557329
 0.04710658 0.04862114 0.05009976 0.05156951 0.05302372 0.05454431 0.05615067 0.05786851 0.05971387 0.06157659
 0.0634509 0.06522185 0.06688797 0.06845275 0.0699238 0.07136277 0.07277272 0.07420017 0.07564073 0.07710844
 0.07859224 0.08007525 0.08155581 0.08301587 0.0844837 0.0859751 0.08752454 0.0891702 0.09088825 0.09268953
 0.09449925 0.09629499 0.09803946 0.099718 0.1013393 0.1029017 0.1044233 0.1059046 0.1073801 0.1088519
 0.1103602 0.1119036 0.1134902 0.1151153 0.1167609 0.1184264 0.1201026 0.1217865 0.1234719 0.1251479
 0.1267959 0.1284128 0.1299862 0.1315268 0.133038 0.1345287 0.136004 0.1374673 0.1389199 0.1403663
 0.1418076 0.143246 0.1446815 0.1461217 0.1475667 0.1490372 0.1505335 0.1520626 0.1536208 0.1551811
 0.1567409 0.1582728 0.1597809 0.1612646 0.1627259 0.1641693 0.1655925 0.1669917 0.1683719 0.1697348
 0.1710888 0.1724411 0.1737925 0.1751454 0.1764981 0.1778508 0.1792011 0.1805491 0.1818881 0.1832165
 0.1845369 0.185849 0.1871688 0.1884965 0.1898279 0.1911601 0.1924636 0.1937407 0.1949829 0.1962
 0.1974176 0.1986388 0.1998841 0.2011459 0.2024229 0.2037063 0.2049885 0.2062597 0.2075112 0.208737
 0.2099292 0.2110993 0.2122488 0.2133905 0.2145297 0.2156572 0.2167719 0.2178704 0.2189513 0.2200392
 0.2211348 0.2222472 0.2233728 0.2244798 0.2255681 0.2266165 0.227635 0.2286432 0.2296463 0.2306671
 0.2316987 0.2327412 0.2337877 0.2348315 0.2358674 0.2368905 0.237896 0.2388776 0.2398454 0.2407987
 0.2417584 0.2427305 0.2437177 0.2447228 0.2457265 0.2467276 0.2477101 0.2486732 0.249613 0.2505308
 0.2514352 0.2523298 0.2532376 0.2541588 0.2551096 0.2560801 0.2570581 0.2580349 0.2589902 0.2599284
 0.2608472 0.2617507 0.2626444 0.2635199 0.2643747 0.2652036 0.2660026 0.2667799 0.267536 0.2682811
 0.2690164 0.2697515 0.2704871 0.2712344 0.2719935 0.2727644 0.2735463 0.2743292 0.2751143 0.2759022
 0.2766932 0.2774925 0.2782912 0.279074 0.279833 0.2805443 0.2812223 0.2818665 0.2825106 0.2831784
 0.2838877 0.2846605 0.285472 0.2863247 0.2871676 0.2879891 0.2887638 0.2894835 0.2901717 0.2908295
 0.2914796 0.2921218 0.2927223 0.2932782 0.2937406 0.2941192 0.294431 0.2946964 0.2949892 0.2953169
 0.2957348 0.2962285 0.2968035 0.2974367 0.298108 0.2987993 0.2994886 0.3001806 0.3008642 0.3015788
 0.3023336 0.3031635 0.3040867 0.3050652 0.3061038 0.3070946 0.3080294 0.3088237 0.3094751 0.3100005
 0.3104082 0.3107867 0.3111387 0.3115274 0.3119429 0.3123831 0.3128495 0.3133356 0.3138677 0.3144859
 0.3151947 0.3160329 0.3169347 0.3178757 0.3187733 0.3195675 0.3202685 0.3208499 0.3214166 0.321986
 0.3226404 0.3234012 0.3242451 0.3251755 0.3260943 0.3269966 0.3277918 0.3284817 0.3290463 0.3295024
 0.3299184 0.3303185 0.3308163 0.3314181 0.3322033 0.333139 0.3342233 0.3353905 0.3365772 0.3377247
 0.3387646 0.339695 0.3404851 0.3411967 0.341838 0.3424841 0.3431526 0.3438919 0.3447101 0.3456427
 0.3466932 0.3478931 0.3492433 0.3507256 0.3523296 0.3539468 0.3555585 0.3570088 0.3582928 0.359302
 0.3600661 0.3605819 0.3609134 0.3611473 0.3613472 0.361619 0.3619694 0.3624551 0.3629969 0.3635859
 0.3640985 0.3644921 0.3646854 0.3646426 0.3643845 0.3639006 0.3632943 0.3625722 0.3618329 0.361081
 0.3603424 0.3596139 0.3588672 0.358102 0.3572994 0.3564672 0.3556212 0.3547657 0.3539249 0.3530825
 0.3522353 0.3513382 0.3503495 0.3492161 0.3478805 0.3463375 0.3445525 0.3426032 0.3404956 0.3383482
 0.3361873 0.3340976 0.3320976 0.3302092 0.3284379 0.3267571 0.3251651 0.3235987 0.3220547 0.320469
 0.3188491 0.3171964 0.315531 0.3139245 0.3123794 0.3109483 0.3095937 0.3082848 0.3069799 0.3056128
 0.3041946 0.3026978 0.3011922 0.2996983 0.2982952 0.2970176 0.2958972 0.2949586 0.2941461 0.2934652
 0.2927804 0.2920817 0.2912436 0.2902601 0.2891252 0.2878492 0.2865455 0.2852239 0.2840016 0.2828683
 0.2818553 0.2809408 0.280091 0.2792921 0.2785081 0.2777334 0.2769505 0.2761536 0.2753326 0.2744855
 0.2736053 0.2727045 0.2717831 0.2708649 0.2699554 0.2690702 0.2682141 0.2673798 0.266568 0.2657531
 0.2649337 0.2640828 0.2632004 0.2622749 0.26131 0.2603174 0.2593036 0.2582966 0.2572997 0.256336
 0.2553993 0.2544925 0.2536013 0.2527123 0.2518108 0.2508811 0.2499175 0.2489096 0.2478698 0.2467969
 0.2457173 0.2446373 0.2435734 0.2425313 0.2414978 0.240473 0.2394326 0.2383752 0.2373002 0.2362092
 0.2351246 0.2340463 0.2329871 0.2319422 0.2309011 0.229861 0.228808 0.2277483 0.2266846 0.2256264
 0.2245861 0.2235672 0.2225754 0.221614 0.2206818 0.2197964 0.2189635 0.2181974 0.2175108 0.2168634
 0.2162588 0.2155956 0.214865 0.2139885 0.2129621 0.2118137 0.2105519 0.2092898 0.208035 0.206892
 0.2058532 0.2049539 0.2041688 0.2034638 0.2028041 0.2021186 0.2013886 0.2005552 0.1996496 0.1986654
 0.1976717 0.1967053 0.1958043 0.1950007 0.1942618 0.1935877 0.1929342 0.1922885 0.1916719 0.1910821
 0.1905888 0.1901957 0.189927 0.1897759 0.1896656 0.1895814 0.1893936 0.1891018 0.1886261 0.1879977
 0.1872427 0.1864074 0.1855827 0.1847849 0.1840782 0.1834298 0.1828365 0.1822629 0.1816788 0.1811027
 0.1805287 0.1800037 0.1795443 0.1791454 0.1788145 0.178491 0.1781685 0.1778217 0.1774489 0.177105
 0.1767931 0.1765741 0.1764402 0.1763788 0.1763743 0.176363 0.1763413 0.1762654 0.1761472 0.1759865
 0.1757945 0.1755884 0.1753608 0.1751193 0.1748307 0.174483 0.1740384 0.1734731 0.1727968 0.1719941
 0.1711544 0.1702837 0.1694974 0.1688105 0.1682563 0.1678377 0.1674626 0.1671231 0.166684 0.1661489
 0.165462 0.1646488 0.1637682 0.1628468 0.1619821 0.1611723 0.1604654 0.159829 0.1592474 0.1586835
 0.1581009 0.1574842 0.1568103 0.1560954 0.1553346 0.1545688 0.1538058 0.1530822 0.1524096 0.1517742
 0.1511798 0.1505568 0.1499015 0.1491606 0.1483375 0.1474694 0.1465676 0.1457257 0.1449393 0.1442492
 0.1436265 0.1430209 0.142413 0.1417372 0.1410157 0.1402414 0.1394598 0.1387068 0.1380072 0.1373888
 0.1368452 0.1363806 0.1359834 0.1356506 0.1353797 0.1351713 0.1350156 0.1349141 0.1348273 0.1347533
 0.1346245 0.134438 0.1341344 0.1337186 0.1331859 0.1325547 0.1318856 0.1312002 0.1305821 0.1300388
 0.1296234 0.129326 0.1291566 0.1291014 0.1291513 0.1293004 0.1295428 0.1298768 0.1303026 0.1308107
 0.1314003 0.1320561 0.1327737 0.133555 0.134397 0.1353408 0.1363884 0.1376054 0.1389934 0.1405897
 0.1423857 0.1443502 0.146466 0.1486531 0.1508996 0.1531336 0.1553587 0.1575467 0.1597102 0.1618542
 0.1639872 0.1661195 0.1682509 0.1703845 0.1725166 0.1746478 0.1767689 0.1788821 0.1809574 0.1829959
 0.1849337 0.1867675 0.1884113 0.1898599 0.1910393 0.1919482 0.1925529 0.1928584 0.1928743 0.1926138
 0.1921215 0.1914279 0.1906177 0.1897464 0.1889382 0.1882542 0.1878194 0.187656 0.1878343 0.1883187
 0.1891146 0.1901622 0.1914406 0.192906 0.1945449 0.196324 0.1982393 0.2002444 0.2023363 0.204457
 0.2066031 0.2087106 0.2107751 0.2127201 0.2145404 0.2161607 0.2175829 0.2187718 0.2197367 0.2204892
 0.221022 0.2213443 0.2214005 0.2211477 0.2204802 0.2193063 0.2175227 0.2150322 0.2118291 0.2078551
 0.2032743 0.1980837 0.1925978 0.1868514 0.181196 0.175671 0.1705276 0.1657852 0.1615193 0.1577258
 0.1543332 0.1513294 0.1485977 0.1461331 0.1438557 0.141764 0.1398183 0.1380082 0.1362994 0.1346794
 0.133115 0.1316142 0.1301669 0.1288027 0.1275346 0.1263881 0.1253775 0.1245103 0.1237913 0.1232205
 0.1227986 0.1225232 0.1223944 0.122404 0.1225516 0.1228231 0.1232161 0.1236945 0.1242465 0.1247795
 0.1252712 0.1255817 0.1257018 0.1255237 0.1250814 0.1243704 0.1234661 0.1224503 0.1214066 0.12043
 0.1195801 0.1189185 0.1184686 0.118257 0.1182749 0.1185306 0.1189833 0.1196362 0.120398 0.1212694
 0.1220675 0.1227839 0.1231254 0.1230747 0.1223093 0.1208317 0.1184767 0.1153069 0.1114566 0.1070441
 0.1024363 0.09773728 0.09331381 0.0891799 0.08551804 0.08224882 0.07937274 0.07679008 0.07443774 0.07226551
 0.0702342 0.0683415 0.06658036 0.06495262 0.06346015 0.0620872 0.06083354 0.05967278 0.05860341 0.05759839
 0.05665636 0.05575319 0.05488818 0.05404398 0.05322181 0.05241584 0.05163065 0.05087475 0.05015329 0.04948219
 0.04885696 0.04828396 0.04774093 0.04721417 0.04667553 0.04610106 0.04548598 0.0448151 0.0441232 0.04341213
 0.04273502 0.04210338 0.04154221 0.04105932 0.04062524 0.04023927 0.03984478 0.03944021 0.03899843 0.03852375
 0.03803653 0.0375396 0.03705917 0.0365865 0.03611235 0.03562577 0.03509721 0.03453445 0.03392923 0.03330963
 0.03269621 0.03211408 0.03158736 0.03111834 0.03071748 0.03036525 0.03006148 0.02977373 0.02949809 0.02919778
 0.02886774 0.02848701 0.0280531 0.02758054 0.02707129 0.02656713 0.02606984 0.02561378 0.02519542 0.02481953
 0.02447917 0.02415808 0.02385138 0.02354182 0.02322934 0.02290533 0.02257586 0.02224114 0.02191387 0.02160078
 0.02131471 0.02106506 0.02084894 0.0206723 0.02050518 0.02034559 0.02015236 0.01991922 0.01963103 0.01928524
 0.0189123 0.01851454 0.01814105 0.01779144 0.01748741 0.01722166 0.01697506 0.01674021 0.0164846 0.01621078
 0.0159049 0.01558121 0.01525107 0.01493084 0.01464212 0.01438525 0.0141732 0.01397865 0.01379712 0.01359041
 0.01334439 0.0130459 0.01268585 0.01228961 0.01185765 0.01142669 0.01099963 0.01059251 0.01020547 0.009834589
 0.0094796 0.009136965 0.008807256 0.008492237 0.00819031 0.007898379 0.007613662 0.007328354 0.00704359 0.006756862
 0.00647226 0.006193737 0.005920804 0.005655374 0.005392458 0.005129482 0.004866511 0.004601695 0.004342905 0.004091536
 0.003852379 0.003626943 0.003409674 0.003200409 0.002990395 0.002779471 0.002566459 0.002352581 0.002147235 0.001951581
 0.001777122 0.001621145 0.001484462 0.001357999 0.001225744 0.0010781 0.0008935307 0.0006730529 0.0004065047 0.000108854
 -0.0002152601 -0.0005472125 -0.0008772356 -0.001196166 -0.00149803 -0.001785713 -0.002057921 -0.002324323 -0.0025859 -0.002850396
 -0.003118658 -0.003389626 -0.003662978 -0.003929533 -0.004188875 -0.004432741 -0.004662701 -0.00488066 -0.005089943 -0.005301165
 -0.005516215 -0.005745004 -0.005984589 -0.006236357 -0.00649343 -0.006749789 -0.007000725 -0.007240077 -0.007470633 -0.007691343
 -0.007908621 -0.008124895 -0.008340983 -0.008558141 -0.008771264 -0.00897957 -0.009182036 -0.009378242 -0.00957605 -0.009775801
 -0.00998418 -0.01020024 -0.01041886 -0.01063854 -0.0108486 -0.01105099 -0.01124473 -0.01143491 -0.01163214 -0.01183709
 -0.01205737 -0.01228522 -0.01251673 -0.01274316 -0.0129559 -0.01315622 -0.01334086 -0.01351964 -0.01369486 -0.01387384
 -0.0140592 -0.01424996 -0.01444663 -0.0146444 -0.0148429 -0.01503933 -0.01523362 -0.01542573 -0.01561566 -0.01580325
 -0.01598852 -0.01617097 -0.01635148 -0.01653201 -0.01671438 -0.01690393 -0.01709988 -0.01730518 -0.01751327 -0.01771951
 -0.017917 -0.01809798 -0.01826526 -0.0184162 -0.01856273 -0.01870808 -0.01886032 -0.01902265 -0.01919264 -0.0193706
 -0.01955153 -0.01973497 -0.01991972 -0.02010566 -0.02029061 -0.02047415 -0.02065091 -0.02082146 -0.02098506 -0.0211439
 -0.0213047 -0.02146778 -0.02163852 -0.02181225 -0.02198513 -0.02215187 -0.02230481 -0.0224445 -0.02256741 -0.02268087
 -0.02278634 -0.02289352 -0.02300561 -0.02312942 -0.02326763 -0.02341924 -0.02358531 -0.02375597 -0.02393071 -0.02409807
 -0.02425767 -0.02440696 -0.02454672 -0.02468315 -0.02481663 -0.02495272 -0.02509022 -0.02522833 -0.02536602 -0.0255005
 -0.02563225 -0.02576074 -0.02588691 -0.02601182 -0.02613507 -0.02625676 -0.02637613 -0.02649241 -0.02660695 -0.02671975
 -0.02683315 -0.02694774 -0.02706424 -0.02718301 -0.02730255 -0.02742281 -0.02754188 -0.02765967 -0.02777402 -0.027885
 -0.02799208 -0.02809614 -0.02820084 -0.02830777 -0.02842407 -0.02854974 -0.02868923 -0.02883918 -0.02899737 -0.02915887
 -0.0293177 -0.0294715 -0.02961597 -0.02975351 -0.02988355 -0.030011 -0.0301376 -0.03026529 -0.03039556 -0.03052424
 -0.03065109 -0.03077127 -0.03088407 -0.03099283 -0.03109786 -0.03120986 -0.03132904 -0.03146232 -0.03160812 -0.03176259
 -0.03192379 -0.03208328 -0.03224122 -0.0323935 -0.03254206 -0.03268812 -0.03283288 -0.03297837 -0.03312404 -0.03327051
 -0.03341574 -0.03355929 -0.03369812 -0.03383124 -0.03395624 -0.03407208 -0.0341796 -0.03427836 -0.03437327 -0.03446459
 -0.03455806 -0.0346539 -0.03475419 -0.0348587 -0.03496593 -0.03507578 -0.03518707 -0.03529991 -0.03541441 -0.03552992
 -0.03564538 -0.03575966 -0.03587033 -0.0359774 -0.03607982 -0.03617834 -0.03627353 -0.03636467 -0.03645173 -0.03653344
 -0.03660872 -0.03668007 -0.03674721 -0.03681616 -0.03688784 -0.03696551 -0.0370498 -0.03713728 -0.03722775 -0.03731558
 -0.03740083 -0.03748215 -0.03756015 -0.03763738 -0.03771405 -0.03779224 -0.03787139 -0.03795117 -0.03803132 -0.03811132
 -0.03819096 -0.03827032 -0.03834776 -0.03842265 -0.03849209 -0.0385545 -0.0386081 -0.03865157 -0.03868599 -0.0387108
 -0.03873048 -0.03874504 -0.03876265 -0.03878382 -0.03881797 -0.03886552 -0.0389303 -0.03901154 -0.03910294 -0.03920297
 -0.03930021 -0.03939419 -0.03947692 -0.03954995 -0.03961251 -0.03966691 -0.03971642 -0.03976231 -0.03980744 -0.03985117
 -0.03989423 -0.03993476 -0.03997199 -0.04000464 -0.04003187 -0.04005414 -0.04007104 -0.04008514 -0.04009647 -0.04010958
 -0.04012474 -0.04014749 -0.04017811 -0.04021965 -0.04027197 -0.04033433 -0.04040683 -0.04048901 -0.04058263 -0.04069242
 -0.04082181 -0.04098057 -0.04117094 -0.04140118 -0.04167019 -0.04197974 -0.04232868 -0.04271439 -0.04314401 -0.04361768
 -0.04415166 -0.04475175 -0.0454278 -0.046186 -0.04701394 -0.04791348 -0.04885042 -0.04982325 -0.05078644 -0.05173733
 -0.05261955 -0.05342833 -0.05409508 -0.0546122 -0.05490375 -0.05496354 -0.05472388 -0.05419954 -0.05336773 -0.05230215
 -0.05108805 -0.0498336 -0.0486925 -0.04771142 -0.04698173 -0.04648238 -0.04622941 -0.04618162 -0.04633513 -0.04662878
 -0.04705972 -0.04751687 -0.04798806 -0.04835565 -0.04860372 -0.04873004 -0.04873452 -0.04870068 -0.04863016 -0.0485687
 -0.04850978 -0.04844233 -0.0483579 -0.04822073 -0.04803064 -0.04776382 -0.0474387 -0.04707044 -0.04668338 -0.04631373
 -0.04596335 -0.04565034 -0.04535225 -0.04506155 -0.04476328 -0.04444546 -0.04412422 -0.04379835 -0.04349903 -0.04323171
 -0.04301006 -0.04283725 -0.0426974 -0.04258971 -0.04248501 -0.04238279 -0.04226789 -0.04214275 -0.04201316 -0.04188166
 -0.04176023 -0.04164893 -0.04155399 -0.04147395 -0.04140981 -0.0413585 -0.04131759 -0.04128306 -0.04125086 -0.04121945
 -0.04118637 -0.04115373 -0.04112186 -0.041092 -0.04106486 -0.04103909 -0.0410145 -0.04099075 -0.04096768 -0.04094728
 -0.04092966 -0.04091716 -0.04090996 -0.04091072 -0.04091964 -0.04093977 -0.04097018 -0.04101002 -0.04105662 -0.04110363
 -0.0411487 -0.04118484 -0.04121227 -0.04122835 -0.04123462 -0.04123152 -0.04122017 -0.04120108 -0.04117564 -0.04114391
 -0.04110928 -0.04107216 -0.04103725 -0.04100542 -0.04097914 -0.040959 -0.04094224 -0.04092872 -0.0409127 -0.04089414
 -0.04087094 -0.04084389 -0.04081637 -0.0407892 -0.04076723 -0.04075035 -0.04074108 -0.04073809 -0.04074091 -0.04074686
 -0.04075319 -0.04075663 -0.04075357 -0.04074277 -0.04072196 -0.04069353 -0.04065736 -0.04061759 -0.04057512 -0.0405332
 -0.04049262 -0.04045422 -0.04041833 -0.04038226 -0.04034586 -0.04030577 -0.04026213 -0.04021539 -0.04016627 -0.04011937
 -0.04007487 -0.04003607 -0.04000223 -0.03997323 -0.03994833 -0.03992638 -0.03990676 -0.03988882 -0.03987076 -0.03985125
 -0.03982817 -0.0397995 -0.03976612 -0.039727 -0.03968726 -0.03964766 -0.03961374 -0.03958682 -0.03956777 -0.03955719
 -0.03954984 -0.03954547 -0.03953758 -0.03952612 -0.03950852 -0.03948534 -0.03945838 -0.03942836 -0.03939878 -0.0393701
 -0.03934548 -0.03932418 -0.03930691 -0.03929134 -0.03927499 -0.0392566 -0.03923355 -0.03920822 -0.0391807 -0.03915497
 -0.03913289 -0.03911541 -0.03910371 -0.03909456 -0.03908802 -0.03907841 -0.0390653 -0.03904285 -0.03901068 -0.0389676
 -0.03891417 -0.0388579 -0.03879998 -0.03875167 -0.0387128 -0.03868925 -0.03867879 -0.03867922 -0.03868796 -0.03869993
 -0.03871321 -0.0387237 -0.03873022 -0.03873029 -0.03872412 -0.03871048 -0.03869256 -0.03867058 -0.03865011 -0.03863242
 -0.0386222 -0.03862091 -0.03862767 -0.03864296 -0.03865963 -0.0386773 -0.03868875 -0.03869397 -0.03869151 -0.03868185
 -0.03866735 -0.03864804 -0.03862503 -0.03859834 -0.03856785 -0.03853521 -0.0385027 -0.03847283 -0.03845003 -0.03843395
 -0.03842707 -0.03842426 -0.03842396 -0.03842 -0.03840891 -0.03839047 -0.03836286 -0.03833326 -0.03830233 -0.03827753
 -0.03826001 -0.03825015 -0.03824808 -0.03824969 -0.03825491 -0.03826203 -0.03827119 -0.03828304 -0.03829682 -0.03831013
 -0.03832191 -0.03832756 -0.03832826 -0.03832302 -0.03831583 -0.03831141 -0.03831153 -0.03832095 -0.03833431 -0.03835109
 -0.03836229 -0.03836342 -0.03835274 -0.03832706 -0.03829711 -0.03826369 -0.03823946 -0.03822641 -0.0382254 -0.03823671
 -0.03825046 -0.03826633 -0.03827768 -0.03828548 -0.03829301 -0.03830089 -0.03831415 -0.03833061 -0.03834759 -0.0383625
 -0.03836862 -0.03836744 -0.03835711 -0.0383424 -0.03832684 -0.03831324 -0.03830462 -0.03830044 -0.03830094 -0.03830618
 -0.03831614 -0.03833146 -0.03835286 -0.0383763 -0.03840182 -0.03842101 -0.03843332 -0.03843452 -0.03842489 -0.03840915
 -0.03838807 -0.03836946 -0.03835312 -0.03834242 -0.0383368 -0.03833607 -0.03834079 -0.0383519 -0.03836977 -0.03839644
 -0.03842836 -0.03846451 -0.03849772 -0.03852334 -0.03853771 -0.03853693 -0.03852584 -0.03850427 -0.03848041 -0.03845588
 -0.03843448 -0.03841698 -0.03840294 -0.03839236 -0.03838593 -0.03838372 -0.03838769 -0.03839743 -0.03841141 -0.03842826
 -0.03844155 -0.0384506 -0.03844942 -0.03844061 -0.03842503 -0.03840784 -0.03839635 -0.03839216 -0.03840091 -0.03841658
 -0.0384379 -0.03845734 -0.0384704 -0.03847775 -0.03847762 -0.0384776 -0.03847912 -0.03848526 -0.03849708 -0.03850869
 -0.03851982 -0.03852426 -0.03852205 -0.03851394 -0.0385005 -0.03848615 -0.03847076 -0.03845603 -0.03844155 -0.03842683
 -0.03841219 -0.03839795 -0.03838463 -0.03837308 -0.03836347 -0.03835592 -0.03835148 -0.03835091 -0.0383545 -0.03836398
 -0.03837316 -0.03838194 -0.03837868 -0.03836076 -0.038324 -0.03826658 -0.03819972 -0.0381239 -0.03805537 -0.03799456
 -0.03794898 -0.03791757 -0.03789692 -0.03788502 -0.03787204 -0.03785644 -0.03782814 -0.03778941 -0.03773809 -0.03768101
 -0.03762573 -0.03757766 -0.03754587 -0.03752701 -0.03752374 -0.0375244 -0.0375258 -0.03751558 -0.03748897 -0.03744229
 -0.03737267 -0.03728926 -0.03719207 -0.03709664 -0.03700401 -0.03692381 -0.03685603 -0.03679921 -0.03675241 -0.03670814
 -0.03666586 -0.03661917 -0.03656897 -0.03651388 -0.03645635 -0.03640039 -0.03634728 -0.03630144 -0.03625963 -0.03622105
 -0.03618119 -0.03613605 -0.03608672 -0.03603184 -0.03597666 -0.03592278 -0.03587185 -0.03582489 -0.03577925 -0.03573482
 -0.03568841 -0.03563981 -0.03558591 -0.03552666 -0.03546121 -0.03539029 -0.03531896 -0.03524829 -0.03518584 -0.03513123
 -0.03508807 -0.03505368 -0.03502592 -0.03499966 -0.03496811 -0.03492584 -0.03486405 -0.03478547 -0.03468625 -0.03458096
 -0.03447436 -0.03437869 -0.0343003 -0.03423572 -0.03418662 -0.03413935 -0.03409265 -0.03403539 -0.03396664 -0.03388328
 -0.0337855 -0.03367816 -0.03356209 -0.03344601 -0.03333007 -0.03321959 -0.03311409 -0.03301429 -0.03292113 -0.03283683
 -0.03276179 -0.03269937 -0.03264362 -0.03259167 -0.03253468 -0.03246538 -0.03238215 -0.03228145 -0.03216862 -0.03204451
 -0.03191321 -0.03177551 -0.03163445 -0.03149012 -0.0313482 -0.03120898 -0.03107977 -0.03096102 -0.03086168 -0.03078204
 -0.03072988 -0.03070281 -0.03069681 -0.03070507 -0.03070719 -0.03069695 -0.03065063 -0.03057226 -0.03045454 -0.03031143
 -0.03015294 -0.0299899 -0.02983347 -0.02968368 -0.0295444 -0.02940823 -0.02927338 -0.02913595 -0.02899349 -0.02885379
 -0.02871703 -0.02859456 -0.02848737 -0.02839757 -0.02832492 -0.02826278 -0.02820972 -0.02815288 -0.02808931 -0.02799817
 -0.02787984 -0.02772064 -0.02753197 -0.02732881 -0.02712163 -0.02693382 -0.02676097 -0.02660793 -0.0264663 -0.02633115
 -0.02620019 -0.02607239 -0.02594242 -0.02581043 -0.02566284 -0.02549656 -0.02530562 -0.02508768 -0.0248534 -0.02460321
 -0.02435134 -0.02409843 -0.02385469 -0.02362013 -0.02340043 -0.02319371 -0.02299502 -0.02280197 -0.0226042 -0.02240287
 -0.02219553 -0.02198362 -0.0217696 -0.02155007 -0.02132165 -0.02108513 -0.02083776 -0.02058907 -0.02034407 -0.02010317
 -0.01987019 -0.01963009 -0.01938008 -0.01911189 -0.01882266 -0.01852412 -0.01821683 -0.01791333 -0.0176136 -0.01731107
 -0.01700357 -0.01666915 -0.01630766 -0.01590322 -0.01546458 -0.01500778 -0.01454272 -0.01410117 -0.01367542 -0.01327206
 -0.01287051 -0.01245124 -0.0120076 -0.01152384 -0.01101951 -0.01049888 -0.009980417 -0.00947431 -0.008972619 -0.008478892
 -0.0079621 -0.007420354 -0.006813793 -0.006138444 -0.0053888 -0.004566419 -0.003727292 -0.002873234 -0.002048251 -0.00124211
 -0.0004317966 0.0003947455 0.001287674 0.002244876 0.003289729 0.004405772 0.005582095 0.006799152 0.008034417 0.00927586
 0.01050248 0.01173303 0.01296103 0.0142446 0.01560382 0.01706158 0.01863906 0.02025556 0.02190437 0.02351199
 0.02506966 0.02660385 0.02811575 0.02963628 0.03116082 0.03265522 0.03412226 0.03554682 0.03695668 0.03842908
 0.03997977 0.04169713 0.04353032 0.04545034 0.04739775 0.04928633 0.05113984 0.05294107 0.05474552 0.05658003
 0.05845907 0.06039431 0.06237777 0.06439767 0.06652176 0.0687444 0.0712534 0.07406636 0.07724652 0.0807867
 0.08434787 0.0879145 0.09118235 0.09420303 0.09706444 0.09981823 0.102671 0.1056251 0.1087799 0.1121293
 0.1156783 0.1195018 0.1236326 0.1282625 0.1335302 0.1395608 0.1465332 0.1541434 0.1624046 0.1707116
 0.1789256 0.1867431 0.1940842 0.201009 0.2075091 0.2137953 0.2198834 0.2261509 0.2326346 0.2398789
 0.2478216 0.2565461 0.2657723 0.2746186 0.283052 0.2904762 0.2972505 0.303648 0.3099367 0.3165218
 0.3234153 0.3307592 0.3384603 0.3465018 0.3548384 0.3634818 0.3722609 0.3811613 0.3899296 0.3985101
 0.4069394 0.415215 0.423436 0.4315967 0.4393342 0.4466115 0.4529076 0.4582547 0.4625456 0.4658241
 0.4681914 0.4696132 0.4700212 0.4694939 0.4680589 0.4659524 0.4634379 0.4606181 0.4576285 0.4545527
 0.4514429 0.4484193 0.4455649 0.4427853 0.4401189 0.4371986 0.4339971 0.4300744 0.4253786 0.4198904
 0.4136211 0.4072251 0.4007207 0.394564 0.3886792 0.3829148 0.3772166 0.3713159 0.365259 0.3589827
 0.3526291 0.3463767 0.3403355 0.3347138 0.3294627 0.3246233 0.3200914 0.3158005 0.3117868 0.3080243
 0.3046714 0.3017692 0.299359 0.2974645 0.2959777 0.2948917 0.2941222 0.293666 0.2935228 0.2936935
 0.2941908 0.2950075 0.2961144 0.2975023 0.2991259 0.300983 0.3030471 0.3053183 0.3077871 0.3104515
 0.3133063 0.3163502 0.3195807 0.3229971 0.3265978 0.3303847 0.3343555 0.3385231 0.3428924 0.3474596
 0.352233 0.3571338 0.3621582 0.3672027 0.3722638 0.3773693 0.3825282 0.3878739 0.3933695 0.3989183
 0.4044257 0.4094993 0.4141648 0.4182535 0.4219109 0.4253115 0.4284826 0.4315501 0.4344021 0.4369769
 0.4392551 0.4411784 0.4428804 0.4443848 0.4458349 0.4472833 0.4487195 0.4501736 0.4513942 0.4523636
 0.4528775 0.4529268 0.4524857 0.4515555 0.450134 0.4482238 0.4458317 0.4429647 0.4396721 0.435907
 0.4316471 0.4267063 0.4207596 0.4137764 0.4053851 0.3963093 0.3869469 0.3778659 0.3696162 0.3618108
 0.3544365 0.3471155 0.339702 0.3323198 0.324952 0.3178714 0.3111103 0.3046692 0.298547 0.2925555
 0.2866927 0.2808696 0.2751069 0.2694753 0.2639805 0.2586916 0.253571 0.2485716 0.2436555 0.2387352
 0.2338175 0.2288847 0.2239258 0.2189721 0.2138597 0.2085412 0.2027887 0.1964056 0.1897696 0.1828348
 0.1765316 0.1710567 0.166452 0.1627711 0.1593829 0.1562577 0.1529821 0.149571 0.1460566 0.142481
 0.1391047 0.1359122 0.1329913 0.1302993 0.1277605 0.1254047 0.1232292 0.1213128 0.1197544 0.1185601
 0.1177814 0.1173531 0.1172522 0.117441 0.1178932 0.118627 0.11963 0.1209902 0.1227047 0.124965
 0.1277911 0.1312944 0.1354775 0.139942 0.1446439 0.1489198 0.1527893 0.156015 0.1586666 0.1608588
 0.1626279 0.1641033 0.1653124 0.1663304 0.1672366 0.1681264 0.169111 0.1703342 0.1717506 0.1734266
 0.1750948 0.176659 0.1780107 0.1790804 0.1799897 0.1807466 0.1814608 0.1821466 0.1828174 0.183474
 0.1840789 0.1846319 0.1851166 0.1855408 0.1859353 0.1863162 0.1867521 0.1872593 0.1879121 0.1887079
 0.189675 0.1908062 0.1920927 0.1935653 0.1952385 0.1971557 0.199354 0.2018179 0.2045607 0.2075131
 0.2106553 0.2139698 0.2174401 0.221157 0.2251286 0.2294197 0.2340332 0.2387788 0.2436332 0.2482458
 0.252618 0.2565789 0.2601532 0.2633511 0.2661585 0.2685607 0.2705036 0.2718927 0.2726937 0.2728215
 0.2722967 0.2710993 0.2692841 0.2668692 0.2639142 0.2604375 0.2565031 0.2521122 0.2473994 0.242366
 0.2372657 0.2321204 0.2271452 0.2223529 0.2177484 0.2133237 0.2089663 0.2046804 0.2004284 0.1962351
 0.1921752 0.1882528 0.1845258 0.1809594 0.1775253 0.1741856 0.1708837 0.1676062 0.1643193 0.1610402
 0.1577613 0.1545307 0.1513607 0.1483003 0.1453696 0.1425633 0.1398895 0.1372851 0.1347447 0.1322171
 0.1296991 0.1272236 0.1247979 0.1225291 0.1204215 0.1185591 0.1169303 0.1155384 0.1143695 0.1133908
 0.1125983 0.1119718 0.1115096 0.1112064 0.1110496 0.1110346 0.1111307 0.1113275 0.1115781 0.1118677
 0.1121463 0.1124018 0.11259 0.1127043 0.1127037 0.1125835 0.112317 0.1119021 0.1113513 0.1106684
 0.1099057 0.1090708 0.1082333 0.1074023 0.106647 0.1059728 0.1054301 0.1050123 0.1047338 0.1045793
 0.1045372 0.1045947 0.1047392 0.1049591 0.1052487 0.1055883 0.1059729 0.1063751 0.1067891 0.1071868
 0.1075638 0.1078952 0.1081783 0.1083953 0.108545 0.1086222 0.1086274 0.1085665 0.1084412 0.1082654
 0.1080427 0.1077928 0.1075187 0.1072381 0.1069499 0.1066607 0.1063686 0.1060727 0.1057752 0.1054771
 0.1051807 0.1048881 0.1045991 0.104313 0.1040333 0.1037597 0.1035017 0.1032609 0.1030438 0.1028517
 0.1026819 0.1025341 0.1024018 0.1022852 0.1021822 0.1020947 0.102031 0.1019955 0.1020076 0.1020723
 0.1022117 0.1024277 0.1027345 0.1031291 0.1036147 0.1041833 0.1048316 0.105547 0.1063227 0.1071473
 0.1080147 0.1089195 0.1098596 0.1108309 0.1118338 0.1128547 0.1138933 0.1149242 0.1159461 0.1169287
 0.1178705 0.1187436 0.1195471 0.1202616 0.120888 0.1214188 0.1218556 0.1221989 0.1224481 0.1226034
 0.1226605 0.1226158 0.1224624 0.1221938 0.1218053 0.1212907 0.1206548 0.1198959 0.1190284 0.118055
 0.1169899 0.1158356 0.1146023 0.1132907 0.1119132 0.1104706 0.1089788 0.1074385 0.1058622 0.10425
 0.1026096 0.1009416 0.09925311 0.09754413 0.0958189 0.09407646 0.09231599 0.09053959 0.08874725 0.08694761
 0.08514632 0.08335456 0.08158018 0.07983005 0.07810906 0.07641818 0.07475864 0.07312964 0.07153088 0.06996401
 0.06842876 0.06693146 0.06547236 0.06406242 0.06270252 0.0614076 0.06017901 0.0590333 0.05797115 0.05700432
 0.05613192 0.05535752 0.05468028 0.05410013 0.05361715 0.05323158 0.05294306 0.05275076 0.05265635 0.05265772
 0.05276677 0.05298521 0.05333244 0.05381529 0.05443942 0.05521085 0.05610219 0.05711404 0.05819 0.05932696
 0.06046316 0.06159616 0.06268176 0.06372059 0.06469421 0.06560609 0.06645811 0.06725652 0.06801623 0.06874648
 0.06946954 0.07019325 0.07093716 0.07170133 0.07249377 0.07330745 0.07414207 0.07498598 0.07583795 0.07667538
 0.07749551 0.07826408 0.0789744 0.07960505 0.08015038 0.08062895 0.08104086 0.08143986 0.08182923 0.08226822
 0.08275881 0.08334328 0.08402116 0.08481322 0.08571798 0.08674239 0.08788455 0.08914629 0.09052049 0.09200376
 0.09357619 0.09522452 0.09691874 0.09864001 0.100361 0.1020669 0.1037408 0.105375 0.1069625 0.1085005
 0.1099904 0.1114321 0.1128283 0.1141794 0.1154796 0.1167289 0.117922 0.1190612 0.1201588 0.1212197
 0.1222699 0.1233133 0.1243721 0.1254494 0.1265601 0.1277074 0.1289031 0.1301428 0.1314313 0.1327494
 0.1340911 0.1354288 0.1367503 0.1380369 0.1392783 0.1404801 0.1416386 0.142782 0.143912 0.1450589
 0.146225 0.1474251 0.1486594 0.1499283 0.1512291 0.1525457 0.1538697 0.1551599 0.1564038 0.1575467
 0.158581 0.1594671 0.1602051 0.1607794 0.1611935 0.1614432 0.1615386 0.16148 0.1612913 0.1609778
 0.1605749 0.1600901 0.1595627 0.1589991 0.1584357 0.1578776 0.157346 0.1568429 0.1563686 0.1559227
 0.1554989 0.1550976 0.1547205 0.1543669 0.1540375 0.1537274 0.1534246 0.1531242 0.1528101 0.1524832
 0.152137 0.1517769 0.1514067 0.1510278 0.1506458 0.150248 0.1498342 0.1493788 0.148875 0.1483047
 0.1476613 0.1469488 0.1461662 0.1453261 0.1444295 0.143483 0.1424872 0.1414501 0.1403739 0.139278
 0.1381649 0.1370563 0.1359522 0.1348653 0.1337917 0.132733 0.1316777 0.1306148 0.129526 0.1283917
 0.1271974 0.1259275 0.124579 0.1231473 0.1216328 0.1200363 0.1183516 0.1165788 0.1147064 0.1127329
 0.1106513 0.1084605 0.1061748 0.1037967 0.1013739 0.09891191 0.09647527 0.09406742 0.09173802 0.08948573
 0.08733311 0.08527525 0.08331523 0.08144347 0.07965021 0.07792357 0.07624834 0.07462079 0.07303238 0.07148985
 0.06999434 0.06855068 0.06716152 0.06582423 0.06453891 0.06330197 0.06211337 0.06096702 0.05986275 0.05878808
 0.05774255 0.05671816 0.0557164 0.05474569 0.05380822 0.052919 0.05207692 0.05128733 0.05054636 0.04984925
 0.04919267 0.04857106 0.04798005 0.04741622 0.04686886 0.04633367 0.04579139 0.0452358 0.04464167 0.04400307
 0.04329082 0.04249992 0.04160109 0.04058903 0.03945545 0.03819779 0.03685807 0.03544011 0.03402881 0.03262856
 0.03131446 0.03008338 0.02896208 0.02794358 0.0270214 0.02619192 0.02544601 0.02477996 0.02418682 0.02365917
 0.02318777 0.02276767 0.02239181 0.02206272 0.02177918 0.02154684 0.02136713 0.02124421 0.02117987 0.02117197
 0.02122185 0.02131359 0.02144675 0.02159224 0.02174851 0.02188667 0.02200607 0.02208805 0.02213389 0.02213787
 0.02210451 0.02204313 0.02195909 0.02186954 0.02177134 0.0216711 0.02155348 0.02140692 0.02121812 0.02097094
 0.02067331 0.02031962 0.01993998 0.01954 0.01915272 0.01878607 0.01845729 0.01816993 0.0179281 0.01773209
 0.01759098 0.01750558 0.01749525 0.01756001 0.01771021 0.01794146 0.01824046 0.01860025 0.01899401 0.01941699
 0.0198466 0.02028271 0.02071416 0.02114734 0.02158266 0.02203148 0.02250302 0.02299896 0.02352788 0.02406597
 0.02461242 0.02512561 0.02559736 0.02599728 0.02631834 0.02656327 0.02673056 0.02685398 0.0269356 0.02701961
 0.02710716 0.02722838 0.02737993 0.02756331 0.02777258 0.02798933 0.02821391 0.02843503 0.02866366 0.02891088
 0.02918395 0.02949992 0.02984247 0.03021047 0.0305736 0.03091494 0.03122655 0.03149782 0.03175134 0.03198993
 0.03223211 0.0324824 0.03273384 0.0329863 0.03323056 0.03346674 0.03370766 0.03395494 0.03422993 0.03453083
 0.03486113 0.03521596 0.03558099 0.03595646 0.03633368 0.0367207 0.03712673 0.03755375 0.03801276 0.0384851
 0.03896482 0.03942585 0.03985132 0.04023945 0.04058216 0.04090281 0.0412051 0.0415057 0.04180861 0.04211002
 0.04240995 0.0427036 0.04299105 0.04328091 0.04357459 0.04388842 0.04422327 0.04459322 0.04499567 0.04543287
 0.04589553 0.04636763 0.04683699 0.04727831 0.04768791 0.04804981 0.04837483 0.04866285 0.04893309 0.0491939
 0.04946029 0.04973926 0.05003609 0.05035267 0.05069311 0.05105769 0.05145418 0.05188375 0.05234121 0.05282578
 0.05330814 0.05378719 0.05423827 0.05466647 0.05508299 0.055495 0.05593234 0.05639389 0.05689324 0.05742262
 0.05797766 0.0585487 0.05912734 0.05969809 0.06024996 0.06076574 0.06123216 0.06164964 0.06201103 0.06234194
 0.06264407 0.062953 0.06327414 0.06362788 0.06401738 0.06443232 0.06487189 0.06530656 0.06573588 0.06614356
 0.06653261 0.06691039 0.0672783 0.06764422 0.06800859 0.06837276 0.06874536 0.0691385 0.06956192 0.07003416
 0.07054681 0.07110323 0.07168222 0.0722743 0.07286597 0.07345174 0.07402093 0.074572 0.07508791 0.07556533
 0.07600001 0.07639031 0.07675538 0.07709623 0.07743431 0.07777004 0.07811422 0.07846827 0.0788441 0.07924546
 0.07968985 0.08018114 0.08073649 0.08135628 0.08205214 0.08281206 0.08363356 0.08448904 0.08536116 0.08622172
 0.08705365 0.08783794 0.08856575 0.08922289 0.08980224 0.09031081 0.09074413 0.09115062 0.09153285 0.0919487
 0.0924008 0.09291165 0.09347987 0.0940995 0.09476797 0.09547198 0.0962052 0.09694283 0.09767497 0.09836843
 0.0990175 0.09960055 0.1001131 0.1005451 0.1008867 0.1011262 0.1012638 0.10129 0.101234 0.1010984
 0.1009305 0.1007395 0.1005659 0.100417 0.100313 0.1002574 0.1002439 0.1002723 0.1003242 0.1004009
 0.1005061 0.1006437 0.100837 0.1010836 0.10139 0.1017474 0.102142 0.1025621 0.1029887 0.1034016
 0.1037704 0.1040896 0.104327 0.104548 0.1047559 0.1050854 0.1056005 0.1063061 0.1072496 0.1081953
 0.10911 0.1098707 0.110456 0.11094 0.111326 0.1116981 0.1120553 0.112417 0.1127718 0.1130713
 0.1133023 0.1133911 0.1133447 0.1131346 0.1127945 0.1123644 0.1118693 0.1113573 0.1108208 0.1102672
 0.1096905 0.1090818 0.108467 0.107849 0.107266 0.1067266 0.10626 0.105873 0.1055721 0.1053612
 0.1051967 0.105076 0.1049165 0.1047159 0.1044189 0.1040314 0.1035556 0.1029993 0.1023886 0.1017305
 0.1010508 0.1003583 0.09967943 0.09901426 0.09837354 0.09775221 0.09714261 0.09656571 0.09602848 0.0955533
 0.09515843 0.09481358 0.09451769 0.09422815 0.09393365 0.09364851 0.09337135 0.093144 0.09296851 0.09286605
 0.09283755 0.09290218 0.09305833 0.09331322 0.09365306 0.09403519 0.09444769 0.09483705 0.09521342 0.09556811
 0.09591679 0.09627517 0.09664828 0.09704374 0.09746667 0.09792297 0.09840997 0.09893326 0.09946465 0.09999783
 0.1005154 0.101009 0.1015119 0.1020253 0.1025937 0.1032195 0.1039005 0.1046325 0.105367 0.1060951
 0.106743 0.1073025 0.1077002 0.1079462 0.1080193 0.1079528 0.1077909 0.1075562 0.107295 0.1070023
 0.1066852 0.1063472 0.1059863 0.1056263 0.1052776 0.1049447 0.1046344 0.1043241 0.1040113 0.1036779
 0.1033216 0.1029379 0.1025264 0.1020943 0.1016432 0.1011966 0.100756 0.1003446 0.09996028 0.09960809
 0.09928513 0.09898964 0.09871352 0.09844874 0.09817319 0.09785813 0.09749232 0.09704915 0.09655567 0.09601834
 0.09546281 0.09490785 0.09433024 0.09372897 0.0930757 0.09236087 0.0916082 0.09081779 0.09003063 0.08924894
 0.088471 0.08769419 0.08688305 0.08603673 0.08512927 0.0841684 0.08316251 0.08213036 0.08111861 0.08014378
 0.07925785 0.07845491 0.07774987 0.07712802 0.07658064 0.07610362 0.07569714 0.07534201 0.07503868 0.07473946
 0.07443027 0.07409272 0.07371464 0.07334799 0.07299507 0.07272067 0.07252854</values></Ydata></AB><ScSm><Ydata ylabel="Single channel"><values byteorder="INTEL" format="FLOAT32" numvalues="1814"> 0.07203898 0.07204422 0.07212003 0.07228699 0.0725105 0.07272252 0.07287046 0.0729479 0.07297204 0.07294561
 0.07287457 0.07281625 0.07285966 0.07303682 0.07327618 0.07345375 0.07349005 0.07341993 0.07337507 0.07345583
 0.0735925 0.07356695 0.07321815 0.07262748 0.07206494 0.07174087 0.07167591 0.0718603 0.07238571 0.07319178
 0.07378289 0.07358441 0.07266717 0.07177748 0.07150885 0.07173268 0.07194974 0.07186742 0.07148948 0.07099742
 0.0707967 0.07140975 0.07296181 0.07475456 0.07551733 0.07421099 0.07077 0.06633217 0.06281887 0.06191215
 0.06387454 0.06719816 0.06973097 0.07039559 0.06971431 0.06872635 0.06786358 0.06707987 0.06657689 0.06684538
 0.06798945 0.06926952 0.06948427 0.06799723 0.06549151 0.06348539 0.06294629 0.06368174 0.0651516 0.06706168
 0.06853978 0.0676572 0.06332139 0.05768619 0.05519862 0.05837121 0.06510253 0.07073645 0.07220848 0.06976482
 0.06561103 0.06207902 0.06075281 0.06204445 0.065111 0.06855322 0.07126889 0.07251517 0.07171957 0.06896925
 0.06550147 0.06310941 0.06304169 0.06551129 0.0696476 0.07356906 0.07523532 0.07395532 0.07085122 0.06767099
 0.06563255 0.06542037 0.06735848 0.07107495 0.07548034 0.07939674 0.08203842 0.08309307 0.08278713 0.0817413
 0.08049841 0.07943375 0.07908325 0.07981485 0.08096175 0.08107387 0.07949291 0.07722677 0.07591078 0.07611619
 0.07689404 0.07693464 0.0758971 0.07419795 0.07171372 0.06775306 0.06263553 0.05812076 0.05565176 0.05524737
 0.05653905 0.05934929 0.06248391 0.0636479 0.06195493 0.05954314 0.05946073 0.06241178 0.06638734 0.06911549
 0.07016277 0.07077931 0.07228899 0.07473809 0.07671542 0.07641439 0.07342593 0.06975135 0.06838661 0.07038244
 0.07383549 0.07622905 0.07708448 0.07769877 0.07887369 0.07968185 0.07843902 0.07470486 0.070366 0.06847888
 0.07061123 0.07527097 0.07898818 0.07889584 0.07466207 0.0685509 0.06364993 0.06173974 0.0628096 0.06622046
 0.07140627 0.07728368 0.08197051 0.08383796 0.08270311 0.07972036 0.076074 0.071906 0.06692786 0.06218338
 0.06026519 0.06286184 0.06859037 0.07414532 0.07724866 0.07778576 0.0765226 0.07370865 0.06927054 0.06410953
 0.0605322 0.06047683 0.06319024 0.06564224 0.06569436 0.06405033 0.06271145 0.06247132 0.06261344 0.06243267
 0.06222369 0.06275406 0.06416852 0.06567887 0.06633378 0.06589594 0.06488837 0.06397481 0.06336305 0.06266809
 0.06145486 0.06008545 0.05969702 0.06095421 0.0631348 0.06487776 0.0655573 0.06550991 0.06513129 0.06419778
 0.06220972 0.05934198 0.05683481 0.05607703 0.05725925 0.05925504 0.06080047 0.06140485 0.06121713 0.06056546
 0.05974024 0.05890036 0.05811769 0.05757994 0.0575438 0.05796427 0.05841928 0.05853768 0.05829715 0.05783105
 0.05717234 0.05630844 0.05535943 0.05458196 0.05418803 0.05418151 0.05438924 0.05462168 0.05474138 0.05462463
 0.05420494 0.05357588 0.05293485 0.05240317 0.05198474 0.05168318 0.05154387 0.05155945 0.05161892 0.05159228
 0.05143147 0.05116791 0.05084341 0.05047578 0.050081 0.04970126 0.04940113 0.04922622 0.04915033 0.04908393
 0.04897099 0.04885035 0.04877005 0.0486783 0.04847619 0.04815729 0.0478215 0.04755951 0.04737999 0.0472393
 0.04708861 0.04688083 0.0465718 0.04615984 0.04573327 0.04543734 0.04535753 0.04545476 0.04562657 0.04578485
 0.04586194 0.04581483 0.04566366 0.04547648 0.04528885 0.0450771 0.04482013 0.04455441 0.04436021 0.04430155
 0.04436794 0.04447379 0.04452901 0.04450203 0.04441171 0.04429539 0.04419608 0.04413472 0.04407699 0.04396561
 0.04379557 0.04362711 0.04352036 0.04347741 0.04344647 0.04337491 0.04326362 0.04316398 0.04311401 0.04309549
 0.04306605 0.04300998 0.04294066 0.04286898 0.04278284 0.04265644 0.04248338 0.04229757 0.04214504 0.04203708
 0.04195105 0.0418706 0.04180072 0.04174571 0.0416935 0.04162429 0.04152719 0.04140833 0.04128092 0.04114559
 0.04099075 0.04081647 0.04064336 0.04048923 0.04034861 0.04020268 0.04004154 0.03987167 0.03970479 0.03954359
 0.0393802 0.0392056 0.03901431 0.03880423 0.03858514 0.0383848 0.03822831 0.03810748 0.03798524 0.03783644
 0.03767376 0.03752981 0.03742139 0.0373384 0.03726536 0.03720487 0.03717355 0.03718075 0.03722128 0.03728607
 0.03736942 0.03746693 0.03757973 0.0377232 0.03791934 0.03817142 0.03845184 0.0387237 0.03897393 0.03921899
 0.03947951 0.03975841 0.04004495 0.04033225 0.04062576 0.0409345 0.0412527 0.04155361 0.04181206 0.04203394
 0.04225169 0.0424896 0.04274593 0.04300641 0.04325764 0.04348718 0.04369 0.04387954 0.04407784 0.04429084
 0.04450418 0.04470574 0.04490114 0.04510348 0.0453181 0.04554424 0.04578632 0.04605491 0.04635518 0.04667632
 0.04699324 0.04728177 0.04753928 0.04779309 0.0480828 0.04842775 0.04881017 0.04919095 0.04954316 0.04987197
 0.05020177 0.05054497 0.05089254 0.05123957 0.05160575 0.05201409 0.05245723 0.05290355 0.05333311 0.05375101
 0.05416756 0.05458271 0.05499299 0.05540141 0.05581552 0.05624001 0.0566725 0.05710345 0.05752139 0.05792177
 0.05831197 0.0587073 0.05911905 0.05953973 0.0599395 0.06028913 0.0605951 0.06090206 0.06124574 0.06161106
 0.06195401 0.06226006 0.06255863 0.06287847 0.06321293 0.06353958 0.06385511 0.06417501 0.06450728 0.06483813
 0.06514022 0.06539085 0.06558915 0.06576052 0.06593966 0.06614822 0.06639241 0.06667252 0.06697942 0.06728533
 0.06755641 0.06777744 0.06795572 0.06810839 0.06825946 0.06843954 0.06866781 0.06893386 0.06920525 0.06944929
 0.06964898 0.06981841 0.07000707 0.070265 0.07059258 0.07094572 0.07129817 0.07167196 0.07209194 0.07253857
 0.07297386 0.07339673 0.07383874 0.07430638 0.07475825 0.07514854 0.07546832 0.07573479 0.07596882 0.0762035
 0.07649021 0.07686248 0.07729919 0.07774366 0.07815478 0.07852519 0.07885945 0.07915614 0.0794144 0.07964443
 0.07986277 0.08007827 0.08028708 0.08048547 0.0806826 0.08088861 0.08108768 0.08123498 0.08128703 0.08122499
 0.08104412 0.08073959 0.08031984 0.07982047 0.07927851 0.07869191 0.0780213 0.07723472 0.07633555 0.07534559
 0.07428022 0.07315328 0.07200032 0.07088666 0.06989026 0.06907856 0.06850226 0.06820545 0.06822699 0.06857173
 0.06917201 0.06988392 0.07053144 0.07096042 0.07106652 0.07080265 0.07018536 0.06929341 0.06824194 0.06714348
 0.06608194 0.06510569 0.06423341 0.06347604 0.06287175 0.0625059 0.06249616 0.06296104 0.06399378 0.06563123
 0.06780802 0.07033427 0.07294267 0.07538974 0.07753856 0.07937044 0.08094136 0.08233035 0.08360359 0.08479332
 0.08589578 0.08689375 0.08778249 0.08856998 0.08925621 0.08982344 0.09024806 0.09051746 0.0906398 0.09064781
 0.09059492 0.09054398 0.09055643 0.09067978 0.09092316 0.09123307 0.09150164 0.09161102 0.09147993 0.09108803
 0.09049244 0.08985318 0.08944811 0.08962908 0.09069248 0.0927137 0.09546782 0.09852332 0.1014507 0.1039862
 0.1060568 0.1077099 0.1090388 0.1101402 0.1110931 0.1119527 0.1127531 0.1135111 0.1142322 0.1149179
 0.1155715 0.1161985 0.1168081 0.1174109 0.1180107 0.118601 0.1191753 0.1197384 0.1203019 0.120871
 0.1214392 0.1219969 0.1225428 0.123088 0.1236416 0.1241955 0.1247302 0.125237 0.1257252 0.1262091
 0.1266979 0.1271963 0.1277008 0.1281953 0.1286633 0.1291046 0.1295326 0.1299578 0.1303802 0.1307988
 0.1312184 0.1316436 0.1320715 0.1324954 0.132913 0.133326 0.133731 0.1341175 0.134479 0.1348231
 0.1351673 0.1355247 0.1358941 0.136265 0.1366354 0.137019 0.1374305 0.1378644 0.1382987 0.1387155
 0.1391123 0.1394955 0.139875 0.1402642 0.1406722 0.141093 0.1415069 0.1418981 0.1422689 0.142635
 0.1430115 0.1434012 0.1437936 0.1441733 0.1445315 0.1448727 0.14521 0.1455541 0.1459079 0.1462719
 0.1466484 0.1470359 0.1474232 0.1477953 0.1481463 0.1484824 0.1488139 0.149148 0.1494907 0.1498488
 0.1502254 0.1506133 0.1509976 0.1513673 0.1517251 0.1520837 0.1524522 0.1528287 0.1532049 0.1535752
 0.1539411 0.1543082 0.1546785 0.155047 0.1554093 0.1557668 0.1561219 0.1564714 0.1568122 0.15715
 0.1574924 0.1578379 0.1581786 0.1585119 0.1588418 0.1591718 0.1595019 0.1598307 0.1601585 0.160488
 0.1608231 0.1611653 0.1615123 0.1618606 0.1622087 0.1625566 0.1629029 0.1632454 0.1635827 0.1639159
 0.1642474 0.1645773 0.1649055 0.1652343 0.1655665 0.1659014 0.1662358 0.166567 0.1668929 0.1672121
 0.1675258 0.1678362 0.1681446 0.168453 0.1687654 0.1690829 0.1694027 0.1697221 0.1700421 0.1703643
 0.1706905 0.1710226 0.1713581 0.1716892 0.17201 0.1723227 0.1726355 0.1729567 0.1732879 0.1736204
 0.1739429 0.1742525 0.1745554 0.1748587 0.1751678 0.1754843 0.1758034 0.1761159 0.1764175 0.17671
 0.1769974 0.1772855 0.1775796 0.1778784 0.1781773 0.1784791 0.1787916 0.179117 0.1794511 0.1797889
 0.1801236 0.1804488 0.1807637 0.1810732 0.1813815 0.1816904 0.1820017 0.1823171 0.1826384 0.1829656
 0.1832922 0.1836106 0.1839232 0.1842391 0.1845585 0.1848744 0.1851853 0.1854933 0.1857975 0.1860983
 0.1863992 0.1866986 0.1869922 0.1872823 0.187573 0.1878628 0.1881486 0.1884306 0.1887099 0.1889918
 0.189284 0.1895844 0.1898796 0.1901623 0.1904351 0.1906995 0.19096 0.1912296 0.1915165 0.1918131
 0.1921097 0.1924014 0.1926843 0.1929608 0.1932409 0.1935241 0.1937979 0.1940578 0.1943057 0.194528
 0.194682 0.1946505 0.1941259 0.192495 0.1888361 0.1821093 0.1715705 0.1572385 0.1400514 0.1215368
 0.1032567 0.0864033 0.07167876 0.05938697 0.04958966 0.04220658 0.03707618 0.0340596 0.03314906 0.03457733
 0.03894126 0.0468538 0.05760776 0.06798156 0.07348552 0.07190374 0.06540939 0.05858115 0.05459604 0.05368982
 0.05451466 0.05591266 0.0575102 0.05950936 0.06226861 0.06589517 0.07022269 0.07524787 0.08134526 0.08879267
 0.09719968 0.1056696 0.1135701 0.1210284 0.1286301 0.1367139 0.1450168 0.1529334 0.1599958 0.1661072
 0.1714543 0.1763012 0.1808381 0.1851496 0.1892637 0.193165 0.1967199 0.1996355 0.2015923 0.2024877
 0.2025604 0.2022586 0.2019731 0.2018814 0.201995 0.202281 0.2027195 0.2032996 0.2040093 0.2048261
 0.2057089 0.2066109 0.2075026 0.2083693 0.2091961 0.2099687 0.210683 0.2113421 0.21195 0.2125098
 0.2130218 0.2134853 0.213905 0.2142912 0.2146512 0.2149869 0.2153015 0.2155985 0.2158773 0.2161365
 0.2163786 0.2166094 0.2168346 0.2170568 0.2172724 0.2174756 0.2176704 0.2178694 0.2180786 0.2182913
 0.2185007 0.2187073 0.2189133 0.2191199 0.2193269 0.2195298 0.2197218 0.2199047 0.2200893 0.2202816
 0.2204773 0.2206704 0.2208565 0.2210313 0.2211949 0.2213594 0.2215423 0.2217512 0.2219766 0.2221998
 0.2224106 0.2226174 0.2228329 0.2230568 0.2232821 0.2235096 0.2237412 0.2239697 0.2241888 0.2244034
 0.2246127 0.2248007 0.2249563 0.2250972 0.2252616 0.2254754 0.2257266 0.2259759 0.2261965 0.2263968
 0.226597 0.2267991 0.226993 0.2271779 0.2273678 0.2275854 0.2278467 0.2281399 0.2284304 0.2286985
 0.2289513 0.2291965 0.2294343 0.2296755 0.2299259 0.2301548 0.2303209 0.2304399 0.2305981 0.2308797
 0.2312825 0.2317124 0.2320707 0.2323399 0.2325709 0.2328168 0.2331028 0.2334084 0.2336373 0.2336797
 0.2335801 0.2335737 0.2338699 0.2344406 0.2350807 0.2356231 0.2360395 0.2363795 0.2366795 0.2369254
 0.2370693 0.2370833 0.2370281 0.2370685 0.2373665 0.2379172 0.2385334 0.2390299 0.2393711 0.2396172
 0.239821 0.2400068 0.2401288 0.2400269 0.2395982 0.2390804 0.2389814 0.2395875 0.240639 0.2416054
 0.2422057 0.2425463 0.2428251 0.2430924 0.2433064 0.2433735 0.2430339 0.242013 0.2405519 0.2395544
 0.2398406 0.2413213 0.2431505 0.2445771 0.2454165 0.2458501 0.2461003 0.2462908 0.2463546 0.2460227
 0.2451246 0.2440158 0.2434961 0.2440685 0.2453707 0.2465653 0.2471971 0.247432 0.2476041 0.2478392
 0.2479757 0.2475272 0.2459522 0.2434521 0.2413874 0.2413309 0.2435271 0.246594 0.2488942 0.2499471
 0.2503026 0.2503379 0.249703 0.2479566 0.2452348 0.2421907 0.2397837 0.2391497 0.2408559 0.2439583
 0.2465298 0.2475593 0.2478092 0.2485478 0.2500241 0.2514794 0.2521346 0.2517942 0.2507094 0.2491471
 0.2472565 0.2454581 0.2447018 0.2458007 0.2484343 0.2512492 0.2531159 0.2539915 0.2543291 0.2537584
 0.2508166 0.2447026 0.2374912 0.2335766 0.2357906 0.2424323 0.2490971 0.2530139 0.254564 0.2552158
 0.2555626 0.2551533 0.2527508 0.2470126 0.2386006 0.2314988 0.2303192 0.235747 0.2437662 0.2494052
 0.2501341 0.2461418 0.2394298 0.2332114 0.2306127 0.2327774 0.238359 0.2448625 0.2501492 0.2530102
 0.2531578 0.2511275 0.2482277 0.2462036 0.2459878 0.2463303 0.2447308 0.2405883 0.236201 0.2333952
 0.2307043 0.2260948 0.2214155 0.2211757 0.2266798 0.2338579 0.2378292 0.2378369 0.2364193 0.2347971
 0.230825 0.2221139 0.2105567 0.2024183 0.2028377 0.2105071 0.2188427 0.2224069 0.2212179 0.218863
 0.2177026 0.2165002 0.2122681 0.2042028 0.1956309 0.1912195 0.1920475 0.1946389 0.1950846 0.1922244
 0.1863289 0.1777209 0.1688444 0.1651158 0.1703451 0.1820103 0.1932256 0.1984468 0.1955555 0.1845726
 0.1681908 0.1531814 0.1471528 0.1518355 0.1610404 0.1663668 0.1638962 0.1549181 0.1422737 0.1282963
 0.1158082 0.1085193 0.1087652 0.1150963 0.1226022 0.1255714 0.1206409 0.1092132 0.09730748 0.09125025
 0.09214451 0.09529319 0.09549911 0.09172516 0.08635473 0.08190252 0.0794667 0.07879983 0.07868813 0.07801189
 0.07666449 0.07454176 0.07032045 0.0632043 0.05553267 0.05132211 0.05203356 0.05578892 0.0607172 0.06654684
 0.07234356 0.07541481 0.07437551 0.07192665 0.07262494 0.07807275 0.08545998 0.09085004 0.09303235 0.09382693
 0.0951879 0.09695408 0.09795975 0.09864943 0.1011182 0.1062361 0.112078 0.1160405 0.1175312 0.1177235
 0.1175797 0.1171476 0.1162219 0.1147521 0.1127996 0.1106056 0.1085143 0.1065954 0.104598 0.1023376
 0.09970087 0.09614839 0.09085266 0.08395571 0.07733709 0.07319564 0.07179985 0.07156511 0.07136196 0.07124866
 0.07046966 0.06676675 0.05937066 0.05150933 0.04803815 0.05074817 0.05708573 0.06311393 0.06651881 0.06675947
 0.0638745 0.05868459 0.05397817 0.0536886 0.05964517 0.06979332 0.08043498 0.08939806 0.09616883 0.1001284
 0.1004375 0.0976309 0.09420417 0.093244 0.09663473 0.1041771 0.1134678 0.1203017 0.1207211 0.1150978
 0.1102243 0.1142704 0.127935 0.1429732 0.1514289 0.1537977 0.1555927 0.1587658 0.1607972 0.1610193
 0.1630666 0.1698857 0.1793182 0.1861539 0.1866601 0.1800494 0.1679579 0.1547403 0.1463706 0.1458367
 0.1500283 0.1533238 0.1531309 0.149647 0.1425421 0.1322853 0.123676 0.1229915 0.1307096 0.1405492
 0.1466354 0.1488853 0.1504461 0.1522419 0.1518587 0.1472205 0.1400136 0.1346324 0.1337856 0.1360704
 0.138252 0.1386408 0.1371878 0.1336148 0.1275627 0.1205187 0.115817 0.1157938 0.1194628 0.1235328
 0.1254387 0.1250073 0.1236069 0.1224934 0.1220088 0.1217254 0.121256 0.1213035 0.1235466 0.1287344
 0.1352901 0.1408291 0.1448651 0.1489724 0.1543119 0.1599799 0.1640376 0.1655871 0.1656501 0.1663248
 0.1691018 0.1736341 0.1779616 0.1801764 0.1802415 0.1802045 0.1823074 0.1868027 0.1918957 0.1957279
 0.1978843 0.199023 0.1997909 0.2002981 0.2000756 0.198475 0.1957092 0.1934753 0.1937938 0.1970256
 0.2015067 0.2052058 0.207304 0.2081518 0.2082578 0.2077063 0.2064235 0.2046738 0.2030826 0.2021799
 0.2020499 0.2024431 0.2030762 0.203762 0.2043958 0.2049445 0.2054216 0.2058362 0.2061921 0.2065214
 0.2068535 0.2071533 0.2073587 0.2074967 0.2076966 0.2080417 0.2084528 0.2087662 0.2088764 0.2087318
 0.2082426 0.2073141 0.2059742 0.204363 0.2025693 0.2005753 0.1984403 0.1964979 0.1952596 0.1950488
 0.195724 0.1967879 0.197753 0.1983939 0.1987243 0.1988577 0.1989262 0.199055 0.199333 0.1997868
 0.2003936 0.201121 0.2019517 0.2028762 0.2038776 0.2049448 0.2060913 0.2073404 0.2086894 0.2100981
 0.2115105 0.2128799 0.2141843 0.2154305 0.2166322 0.2177745 0.2188054 0.2196674 0.2203353 0.2208256
 0.2211812 0.2214411 0.2216089 0.221644 0.2214913 0.2211172 0.2205001 0.2195969 0.2183633 0.216829
 0.2151209 0.2133838 0.2116973 0.2100786 0.208527 0.207032 0.2055624 0.2040786 0.2025541 0.2009779
 0.1993467 0.1976642 0.1959446 0.194215 0.1925094 0.1908477 0.1892104 0.1875394 0.1857694 0.1838546
 0.1817602 0.1794326 0.1767903 0.173753 0.170274 0.1663476 0.1620111 0.1573558 0.1525299 0.147711
 0.1430678 0.1387277 0.1347617 0.1311981 0.1280577 0.1253702 0.1231587 0.1214297 0.1201919 0.1194689
 0.1192818 0.1196188 0.1204166 0.1215651 0.122929 0.1243705 0.1257657 0.1270285 0.1281447 0.1291821
 0.1302473 0.1314154 0.1326894 0.1340191 0.1353473 0.1366316 0.137828 0.1388855 0.1397784 0.1405267
 0.1411707 0.1417369 0.1422423 0.1427096 0.1431587 0.14359 0.1439902 0.1443599 0.1447325 0.1451657
 0.145707 0.1463697 0.1471438 0.1480203 0.1489976 0.1500671 0.1512006 0.1523575 0.1535151 0.154693
 0.1559415 0.1573106 0.1588429 0.1605876 0.1625961 0.1648993 0.1674941 0.170334 0.173315 0.1762825
 0.1790736 0.1815712 0.1837367 0.1856007 0.1872161 0.1886111 0.1897891 0.1907609 0.1915573 0.1922141
 0.1927605 0.1932153 0.1935838 0.1938581 0.1940256 0.1940762 0.1940124 0.1938665 0.1936977 0.1935613
 0.1934854 0.1934878 0.193611 0.1939188 0.194437 0.1950963 0.1957555 0.1962948 0.1966748 0.1969067
 0.1969995 0.1969451 0.1967278 0.1963344 0.195766 0.195037 0.1941506 0.1930926 0.1918661 0.1905165
 0.1891071 0.1876809 0.1862474 0.1847925 0.1832986 0.1817651 0.1802036 0.1786152 0.1769927 0.1753496
 0.173729 0.1721735 0.1706882 0.1692323 0.1677485 0.1662122 0.1646508 0.1631095 0.1616135 0.1601704
 0.1587834 0.1574456 0.1561449 0.1548941 0.1537437 0.1527516 0.1519412 0.1512859 0.1507255 0.1502073
 0.1497157 0.1492614 0.1488536 0.1484991 0.148214 0.1480072 0.1478524 0.1476924 0.1474793 0.1472086
 0.146916 0.1466368 0.146374 0.1461115 0.1458416 0.1455502 0.1451811 0.1446407 0.1438479 0.1427705
 0.1414202 0.1398318 0.1380578 0.1361817 0.1343212 0.1325948 0.1310785 0.1298037 0.1287753 0.1279658
 0.1273099 0.1267466 0.126272 0.1259352 0.1257817 0.1257873 0.1258331 0.1257697 0.1255505 0.1252919
 0.1251757 0.1253013 0.1256325 0.1260484 0.1264241 0.126688 0.1268281 0.1268602 0.1268079 0.1267003
 0.1265489 0.1263306 0.1260202 0.1256255 0.1251696 0.1246662 0.1241255 0.1235518 0.1229255 0.1222157
 0.1214077 0.1205043 0.1195221 0.1184834 0.1173854 0.1162035 0.1149756 0.1138633 0.1130784 0.1127541
 0.1128753 0.1132915 0.1138104 0.1143175 0.1147589 0.1150015 0.1148722 0.1144652 0.1142858 0.1148835
 0.116317 0.1180734 0.1195177 0.1203346 0.1205417 0.1202507 0.1195504 0.1185205 0.1171951 0.1155462
 0.1135845 0.1114045 0.1090871 0.1066833 0.1043128 0.102142 0.1002673 0.0987058 0.09744697 0.09652431
 0.0960543 0.09575704 0.0941534 0.08933383 0.08187912 0.07619093 0.07680626 0.08330935 0.09060878 0.09432974
 0.09431446 0.09287088 0.0916281 0.09087023 0.09053113 0.09070319 0.09146398 0.09269343 0.09407519 0.09526455
 0.09609669 0.09657337 0.09664994 0.09606793 0.0943005 0.09070808 0.08505788 0.07801778 0.07094346 0.0650813
 0.06100554 0.05862887 0.05746383 0.05690943 0.0565582 0.05638286 0.05663261 0.0575403 0.05912437 0.06124009
 0.06373049 0.06642072 0.06901195 0.07117523 0.07280673 0.07404961 0.07502777 0.07568996 0.07593501 0.07576081
 0.07525848 0.07454698 0.0737386 0.0729124 0.07208179 0.07120027 0.07025126 0.06935707 0.06873432 0.06848821
 0.06851073 0.06862052 0.06872241 0.06880262 0.06886774 0.06893176 0.0690095 0.06912293 0.06933314 0.06970304
 0.07019831 0.07069056 0.07107578 0.07134493 0.0715498 0.07171538 0.07175536 0.07153206 0.07108865 0.07070134
 0.07052593 0.07032088 0.06976143 0.06894913 0.06836781 0.06835209 0.06877729 0.06926001 0.06951299 0.06949797
 0.06938347 0.06943381 0.06982948 0.07045834</values></Ydata></ScSm><ScRf><Ydata ylabel="Single channel"><values byteorder="INTEL" format="FLOAT32" numvalues="1820"> 0.06076945 0.06091882 0.06100978 0.06104292 0.06103989 0.06104423 0.06110582 0.06124814 0.06144596 0.06163733
 0.0617678 0.06182838 0.06184156 0.0618178 0.06175826 0.06170201 0.06172455 0.06186341 0.06206488 0.0622211
 0.06225898 0.06220507 0.06216942 0.06223645 0.06234872 0.06232363 0.06202524 0.0615231 0.06104751 0.06077557
 0.06071999 0.06087002 0.06130887 0.06199406 0.06250735 0.06235358 0.06158229 0.06082249 0.06058233 0.06076024
 0.06093527 0.06085436 0.06051448 0.06007223 0.05988545 0.06041147 0.06175712 0.06331435 0.06398187 0.06285971
 0.059891 0.05606344 0.05304241 0.05227736 0.05398304 0.05685138 0.0590324 0.0596076 0.05903037 0.0581931
 0.0574641 0.05679918 0.05636657 0.05658711 0.05755392 0.0586334 0.0587935 0.05749364 0.05533229 0.05361715
 0.05316981 0.05381547 0.05508981 0.05674116 0.05801659 0.0572592 0.0535391 0.04871328 0.04659666 0.04933692
 0.0551238 0.05995893 0.06121311 0.05910541 0.05554475 0.05254333 0.05144808 0.05258122 0.05519948 0.05811388
 0.06040537 0.06145139 0.06076157 0.05841092 0.05546153 0.0534443 0.0534164 0.05554894 0.05909151 0.0624377
 0.06385463 0.06276411 0.06012668 0.05742629 0.0556948 0.05551787 0.05717924 0.06036662 0.06415038 0.06752098
 0.06979987 0.07071237 0.07045074 0.06955435 0.06849932 0.06761041 0.06733768 0.06798092 0.06895842 0.06903182
 0.06765436 0.06570697 0.06459498 0.064799 0.06549339 0.06554605 0.06466092 0.06319793 0.06105886 0.0576586
 0.05327522 0.04941487 0.04730736 0.0469706 0.04810749 0.05057964 0.05334361 0.05439235 0.05295036 0.05087259
 0.05080256 0.05335374 0.05679323 0.05915992 0.06008211 0.06064414 0.06198855 0.06414453 0.06588203 0.06564032
 0.06307617 0.05993249 0.05880586 0.06059727 0.06364539 0.06577111 0.06657773 0.06720355 0.06833434 0.06913747
 0.06813145 0.06494817 0.06126796 0.05977306 0.06180899 0.06603803 0.06941149 0.06942128 0.06578553 0.06051159
 0.05633342 0.05482218 0.0559723 0.05924385 0.06415707 0.06973708 0.07427114 0.07626776 0.07553425 0.07309602
 0.07002387 0.06644095 0.06207914 0.05793144 0.05645842 0.05926809 0.06506094 0.07071011 0.07404925 0.07495514
 0.074135 0.07178923 0.06781435 0.06310591 0.05998616 0.06039822 0.06356436 0.06642734 0.06685094 0.06556845
 0.06461121 0.06477717 0.06532945 0.06555773 0.06579675 0.06686075 0.06888124 0.07099573 0.07218117 0.07218146
 0.07155725 0.07103188 0.07083113 0.07051528 0.06960429 0.06854661 0.06866059 0.07068639 0.07376043 0.07629944
 0.07758608 0.07802668 0.0780867 0.0774756 0.0755659 0.07256971 0.07002202 0.06964359 0.0716766 0.07472681
 0.07720909 0.07849312 0.07876837 0.07846481 0.07795338 0.07742608 0.07696977 0.07682863 0.07733886 0.07844497
 0.07959036 0.0802746 0.08046174 0.0803309 0.07992436 0.07922475 0.07840872 0.07784225 0.07781696 0.0783325
 0.07914738 0.07999249 0.08066386 0.08097897 0.0808407 0.08038402 0.07990052 0.07957225 0.07940378 0.07940534
 0.07965925 0.08015507 0.08070548 0.08110371 0.08129032 0.08132587 0.08127104 0.08114241 0.08095293 0.08076316
 0.08068579 0.080807 0.08108219 0.08136357 0.08157256 0.08177771 0.08203951 0.08225941 0.0822844 0.08211695
 0.08192359 0.08185208 0.08191197 0.08202405 0.08211018 0.08210261 0.08192548 0.08156152 0.08115421 0.08095963
 0.08114043 0.08164677 0.08230701 0.0829518 0.08344135 0.08369377 0.0837467 0.0837175 0.08366656 0.08355506
 0.08335093 0.08312866 0.08304568 0.08322358 0.08363923 0.08413354 0.0845373 0.08477487 0.08486362 0.08488357
 0.08495092 0.08512916 0.08533853 0.08543 0.08537151 0.08529286 0.08532543 0.08545177 0.08554079 0.08550634
 0.0854075 0.08538677 0.08551815 0.08574042 0.08594501 0.08609826 0.08625595 0.08646838 0.08668697 0.08678351
 0.08668433 0.08646998 0.08629681 0.08623246 0.08623126 0.08626265 0.08637418 0.08659421 0.08684164 0.08699217
 0.08701393 0.08699302 0.08702166 0.08708991 0.08710538 0.08700436 0.08682044 0.08664887 0.08656738 0.08659139
 0.08667864 0.08676054 0.0867805 0.08672243 0.08661228 0.08649145 0.08638963 0.0863305 0.08635649 0.08651249
 0.08677378 0.08700712 0.08705208 0.08686585 0.08657434 0.08636167 0.08630688 0.08633041 0.08629075 0.08611913
 0.08586051 0.08560725 0.08541672 0.08528762 0.08518887 0.08509901 0.08503282 0.08503899 0.08515017 0.08531506
 0.08540171 0.08530611 0.08505554 0.08478066 0.08459534 0.08452573 0.08453067 0.08455174 0.08455874 0.08457598
 0.08464403 0.08473933 0.08477344 0.0846983 0.08457151 0.08449729 0.0845423 0.08471123 0.08494316 0.08511999
 0.08514491 0.08504091 0.08493035 0.0849054 0.08495703 0.0850323 0.08510916 0.08519351 0.08528332 0.08537195
 0.08547595 0.08563305 0.08586505 0.08614734 0.08641556 0.08660658 0.08670874 0.0867826 0.08692206 0.08717836
 0.08751714 0.08785018 0.08810917 0.08829366 0.08845474 0.08863503 0.08883241 0.08903043 0.08924667 0.08951962
 0.08985102 0.09019447 0.09050751 0.09078944 0.09106296 0.09134208 0.09162934 0.09193519 0.09228797 0.09270863
 0.09316361 0.09356003 0.09381875 0.09395369 0.09406463 0.09425763 0.0945737 0.09496086 0.0952976 0.09548424
 0.09554829 0.09563078 0.09583498 0.09611918 0.09638003 0.0966091 0.09690406 0.09732576 0.09779991 0.09818595
 0.09841846 0.09855831 0.09871275 0.09892085 0.0991241 0.09924906 0.09930325 0.0993651 0.0994875 0.09965729
 0.09986352 0.1001481 0.1005432 0.100993 0.1013908 0.101676 0.1018626 0.1019932 0.102101 0.1021968
 0.1022668 0.102297 0.1023138 0.1023678 0.1024644 0.1025499 0.1025869 0.1026079 0.1026721 0.1028065
 0.103012 0.1032894 0.1036197 0.1039435 0.1042146 0.1044689 0.1047862 0.1051668 0.105495 0.1056639
 0.1056957 0.1056947 0.1057187 0.1057595 0.105827 0.1059747 0.1062316 0.1065619 0.1069136 0.1072678
 0.1076276 0.1079817 0.1082928 0.1085149 0.1086192 0.1086196 0.1085756 0.108569 0.1086669 0.1088903
 0.1092031 0.1095353 0.1098242 0.1100347 0.1101449 0.1101484 0.1100922 0.1100807 0.1101935 0.1103924
 0.1105394 0.110513 0.1102859 0.1098943 0.109371 0.1087369 0.1080392 0.107366 0.1068094 0.1064199
 0.1062067 0.1061805 0.1063784 0.1068215 0.107454 0.1081517 0.1087966 0.109313 0.1096279 0.1096518
 0.1093403 0.1087529 0.1080216 0.107272 0.1065816 0.1059703 0.1054034 0.1048384 0.1043152 0.1039894
 0.1040514 0.1046114 0.1056506 0.1070388 0.1085714 0.1100282 0.1112576 0.112235 0.1130372 0.1137552
 0.1144368 0.1151022 0.115774 0.1164567 0.117106 0.1176633 0.1181241 0.118538 0.1189441 0.1193361
 0.1196875 0.1199816 0.1202218 0.1204353 0.1206497 0.1208445 0.1209512 0.1209271 0.1208082 0.1206652
 0.1205258 0.1203576 0.1201089 0.1197523 0.1193185 0.1189183 0.118731 0.1189326 0.1195968 0.1206463
 0.1219107 0.1232345 0.1245209 0.1256872 0.126637 0.127312 0.1277488 0.128051 0.1283155 0.1285931
 0.1288967 0.1292174 0.1295358 0.1298357 0.1301165 0.1303972 0.1307069 0.1310568 0.1314159 0.1317279
 0.1319689 0.1321808 0.1324387 0.1327806 0.1331712 0.1335406 0.1338592 0.1341604 0.1344798 0.134793
 0.1350437 0.1352236 0.1353895 0.1356061 0.1358977 0.1362495 0.136618 0.1369418 0.1371781 0.1373423
 0.1374955 0.1376865 0.1379192 0.1381706 0.1384223 0.1386693 0.1389153 0.1391739 0.1394641 0.1397881
 0.1401077 0.1403629 0.1405279 0.1406437 0.1407837 0.1409841 0.1412182 0.1414352 0.1416203 0.1418128
 0.1420653 0.1423839 0.1427118 0.1429773 0.1431546 0.1432766 0.1433962 0.1435474 0.1437368 0.1439543
 0.1441808 0.1443951 0.1445893 0.1447776 0.1449819 0.1452063 0.1454337 0.1456476 0.1458481 0.1460462
 0.1462495 0.1464587 0.146676 0.1469136 0.1471866 0.1474903 0.147786 0.1480252 0.1481917 0.1483123
 0.1484281 0.1485643 0.1487259 0.1489083 0.1491048 0.1493094 0.1495181 0.1497294 0.1499421 0.1501536
 0.1503602 0.1505612 0.1507617 0.1509677 0.1511797 0.1513949 0.1516125 0.1518337 0.1520551 0.1522692
 0.1524709 0.1526638 0.1528577 0.1530567 0.1532527 0.1534358 0.1536105 0.1537921 0.1539869 0.154186
 0.154378 0.1545614 0.1547423 0.1549269 0.1551193 0.1553213 0.1555305 0.1557401 0.155941 0.1561318
 0.1563239 0.1565304 0.1567495 0.1569661 0.1571692 0.1573607 0.1575463 0.1577304 0.157919 0.1581178
 0.1583238 0.1585248 0.1587132 0.158897 0.1590913 0.1593017 0.1595192 0.1597299 0.1599263 0.1601095
 0.1602892 0.1604778 0.1606794 0.1608878 0.1610977 0.1613124 0.1615335 0.1617542 0.1619672 0.1621746
 0.1623854 0.1626059 0.1628341 0.1630606 0.1632765 0.1634818 0.163685 0.1638931 0.1641049 0.1643119
 0.164504 0.1646793 0.1648466 0.165016 0.1651895 0.1653651 0.1655441 0.1657301 0.1659253 0.1661276
 0.1663303 0.1665269 0.1667197 0.1669161 0.1671156 0.1673093 0.1674929 0.167671 0.1678506 0.1680387
 0.1682411 0.1684588 0.1686866 0.1689166 0.16914 0.1693515 0.1695552 0.1697596 0.1699673 0.170176
 0.170386 0.1705986 0.1708136 0.1710337 0.1712585 0.1714782 0.1716839 0.1718818 0.1720834 0.172289
 0.1724922 0.1726902 0.1728848 0.1730816 0.1732888 0.1735078 0.1737321 0.173959 0.1741898 0.1744194
 0.1746396 0.1748492 0.17505 0.1752451 0.1754427 0.1756498 0.1758631 0.1760784 0.1762992 0.1765246
 0.1767463 0.176963 0.177176 0.1773692 0.1774967 0.1774436 0.1769251 0.1753835 0.1719801 0.1657627
 0.1560462 0.1428512 0.1270512 0.1100578 0.09329917 0.07785606 0.06436739 0.05311657 0.04416398 0.03743185
 0.03276433 0.0300273 0.02921034 0.0305283 0.03453089 0.04177659 0.05160897 0.06107453 0.06607321 0.06459703
 0.05865116 0.05242449 0.04880605 0.04799197 0.04874258 0.05000589 0.05145351 0.05328349 0.05582927 0.05918042
 0.06316804 0.06778064 0.07336849 0.08019881 0.08791639 0.09568781 0.1029211 0.1097349 0.1166813 0.1240821
 0.1316941 0.1389537 0.1454258 0.1510188 0.1559063 0.1603363 0.1644864 0.1684314 0.1721947 0.1757633
 0.1790159 0.181683 0.1834698 0.1842782 0.1843215 0.1840105 0.1837135 0.1836046 0.1836987 0.1839642
 0.1843804 0.1849346 0.1856101 0.1863788 0.1871989 0.1880319 0.188859 0.1896699 0.1904452 0.1911641
 0.1918189 0.192415 0.1929642 0.1934792 0.1939656 0.1944196 0.1948382 0.1952249 0.1955843 0.1959223
 0.1962467 0.1965596 0.196853 0.1971202 0.1973642 0.1975928 0.197814 0.1980352 0.1982585 0.1984784
 0.1986898 0.1988942 0.1990949 0.1992939 0.1994953 0.1997036 0.1999176 0.2001319 0.200341 0.2005408
 0.2007316 0.2009201 0.2011128 0.2013071 0.2014961 0.2016793 0.2018625 0.2020512 0.2022471 0.2024484
 0.2026522 0.2028561 0.2030572 0.2032498 0.2034349 0.2036264 0.2038371 0.2040613 0.2042817 0.2044901
 0.2046888 0.2048829 0.2050784 0.2052823 0.2054904 0.2056858 0.2058574 0.2060147 0.206183 0.2063833
 0.2066147 0.206855 0.2070824 0.2072927 0.2074916 0.2076791 0.2078524 0.2080135 0.2081752 0.2083632
 0.2086002 0.2088746 0.2091427 0.2093777 0.2095954 0.209822 0.210064 0.2103137 0.2105542 0.2107547
 0.2108928 0.2109938 0.211131 0.2113743 0.2117284 0.2121202 0.2124602 0.2127205 0.2129386 0.213162
 0.2134133 0.2136729 0.2138596 0.2138875 0.2138043 0.213817 0.2141038 0.214633 0.2152163 0.2156985
 0.2160515 0.2163291 0.2165829 0.2168114 0.2169639 0.2169996 0.2169656 0.2170126 0.2172876 0.2177832
 0.218332 0.2187766 0.2190949 0.2193364 0.2195306 0.2196892 0.2197807 0.2196763 0.2192836 0.2188073
 0.218706 0.2192508 0.2202147 0.2211112 0.2216754 0.2220015 0.2222712 0.2225294 0.2227357 0.2228032
 0.2224914 0.2215478 0.220205 0.2193125 0.21963 0.2210577 0.2227929 0.2241335 0.224917 0.2253297
 0.2255943 0.2258239 0.2259344 0.225656 0.2248342 0.2238196 0.2233741 0.2239698 0.2252599 0.2264479
 0.2270974 0.2273625 0.2275642 0.2278302 0.2280131 0.2276555 0.2262509 0.2239899 0.2221363 0.2221385
 0.2242129 0.2270839 0.2292479 0.230268 0.230656 0.2307599 0.2302465 0.2286936 0.2262208 0.2234392
 0.2212549 0.2207378 0.2224128 0.2253807 0.2278326 0.2288348 0.2291158 0.2298696 0.231334 0.2327984
 0.2335247 0.2333199 0.2324131 0.2310457 0.2293524 0.2277388 0.2271123 0.228238 0.2308121 0.2335703
 0.2354555 0.2364146 0.2368528 0.2364067 0.2336996 0.2279992 0.2212864 0.2177022 0.2198939 0.2262494
 0.2326283 0.2364315 0.2380233 0.2387826 0.2392495 0.2389793 0.2368073 0.2314884 0.2236685 0.2171189
 0.2161841 0.221481 0.229198 0.2346539 0.2354794 0.2318534 0.2256678 0.2199737 0.2177335 0.2200196
 0.2255468 0.2319427 0.237171 0.2400914 0.2404452 0.2387395 0.23621 0.2345256 0.2345782 0.2351592
 0.2338766 0.2301771 0.2262698 0.2238855 0.2216001 0.217471 0.2133087 0.2134842 0.2192461 0.2266231
 0.2308832 0.2313323 0.2304561 0.2294036 0.2260296 0.2179834 0.2071491 0.199743 0.2008798 0.2092616
 0.218333 0.2227031 0.2224361 0.2211342 0.2211357 0.2211273 0.2179907 0.2108724 0.2032663 0.2000802
 0.2024124 0.2065696 0.2084418 0.206778 0.2017503 0.1936447 0.1852248 0.1825786 0.1899878 0.2046932
 0.2190525 0.2268268 0.225464 0.214743 0.197669 0.1823076 0.1778603 0.1864223 0.2004378 0.2096495
 0.2092363 0.2006706 0.1873406 0.1722379 0.159364 0.1541658 0.1602769 0.1758312 0.1934692 0.2039813
 0.2014029 0.1876815 0.1731327 0.1690231 0.1772854 0.1891525 0.1949663 0.1929398 0.1877835 0.1846544
 0.1861946 0.1920399 0.1992023 0.2048885 0.208732 0.2096082 0.2026266 0.1849984 0.1637903 0.1512602
 0.1521328 0.1611955 0.1730945 0.1871365 0.2008866 0.2068794 0.2010331 0.1903733 0.1870399 0.1954003
 0.2083209 0.2158981 0.2152614 0.2110868 0.208387 0.2071806 0.2049916 0.2026215 0.2043525 0.2120357
 0.2218577 0.2285982 0.2310566 0.2315795 0.2320788 0.2325832 0.2325802 0.2318851 0.2305618 0.2290532
 0.2280456 0.2276866 0.2274474 0.2269291 0.2258255 0.2226805 0.2152019 0.2034803 0.1920402 0.1862486
 0.1866222 0.189195 0.1914205 0.1936511 0.1936337 0.1849739 0.1655798 0.1445795 0.1356774 0.1439168
 0.1619275 0.1783244 0.1864242 0.1848247 0.174016 0.1565862 0.1399207 0.1338755 0.1427393 0.1611203
 0.1797048 0.1932718 0.2012713 0.2033754 0.1985019 0.187977 0.1767922 0.17075 0.1729403 0.1823865
 0.1943596 0.2015893 0.1978339 0.184095 0.1713354 0.1723787 0.1884532 0.2071299 0.2162887 0.2163817
 0.2154877 0.2167517 0.2168486 0.2148225 0.2155981 0.2232383 0.2349707 0.2439253 0.2451642 0.2376199
 0.2234445 0.2085049 0.200859 0.2042583 0.2138086 0.2212267 0.222821 0.2190209 0.2095078 0.1952391
 0.1835915 0.1839348 0.1967857 0.2125831 0.2225408 0.2266464 0.2296863 0.2330021 0.2328668 0.2261441
 0.2155406 0.207942 0.2076082 0.2124487 0.2175624 0.2204041 0.2208211 0.2181254 0.211518 0.203417
 0.1994967 0.2037563 0.2143521 0.2252868 0.2317505 0.2331291 0.231605 0.2293228 0.2269427 0.2238145
 0.2194155 0.2152103 0.2143611 0.2183549 0.224643 0.2292627 0.2313721 0.2335325 0.2376848 0.24248
 0.2449259 0.2436543 0.2402184 0.2377285 0.238353 0.2416038 0.2447061 0.2449662 0.2423355 0.2397
 0.240221 0.2443152 0.2496038 0.2536175 0.2558051 0.257014 0.2580427 0.2589451 0.2589843 0.2571839
 0.2537059 0.2506612 0.2506149 0.2540418 0.2588786 0.2626638 0.2645309 0.2650678 0.2649581 0.2642657
 0.2628399 0.2609674 0.2593858 0.2587016 0.258958 0.2597801 0.2607649 0.2616587 0.2623391 0.2627966
 0.2630969 0.263294 0.2634088 0.263482 0.2635574 0.2635982 0.2635268 0.2633867 0.2633633 0.2635774
 0.2639238 0.2641822 0.2642175 0.2639875 0.2634279 0.2624736 0.2611911 0.2597556 0.2582514 0.2566116
 0.254872 0.2534401 0.2529685 0.253859 0.2558904 0.2583584 0.2605624 0.262156 0.2631334 0.2636405
 0.2638472 0.2639018 0.2638946 0.2638403 0.263715 0.2635081 0.2632315 0.2628967 0.2625102 0.2620912
 0.2616838 0.2613342 0.2610525 0.2607958 0.2604937 0.260097 0.2596103 0.2590814 0.2585531 0.2580156
 0.2574086 0.2566712 0.2557912 0.2548157 0.2538291 0.252913 0.2520968 0.2513417 0.2505849 0.2497884
 0.2489259 0.2479513 0.2468399 0.2456663 0.2445842 0.2436994 0.2429859 0.2423377 0.2416646 0.2409192
 0.2400751 0.2391276 0.2381049 0.2370446 0.2359595 0.2348402 0.2336743 0.2324425 0.2311147 0.2296722
 0.2281275 0.2265132 0.2248628 0.2231991 0.2215151 0.2197507 0.217795 0.2155123 0.2127684 0.209457
 0.2055387 0.2010769 0.1962393 0.1912571 0.1863586 0.1817126 0.1774196 0.1735508 0.1701856 0.1674086
 0.1652844 0.1638483 0.1631185 0.163105 0.1638002 0.1651646 0.1671239 0.1695707 0.1723658 0.1753441
 0.1783336 0.1811826 0.1837953 0.1861662 0.1883685 0.190473 0.1924742 0.1943103 0.1959404 0.1973679
 0.1986015 0.1996346 0.2004703 0.2011429 0.2017024 0.2021894 0.2026261 0.2030197 0.2033679 0.2036605
 0.2038892 0.2040606 0.2041995 0.2043379 0.2045046 0.2047184 0.2049834 0.2052981 0.2056745 0.206134
 0.2066745 0.2072613 0.2078584 0.2084549 0.2090567 0.2096783 0.2103549 0.211143 0.2120908 0.2132079
 0.2144665 0.2158225 0.2172231 0.2185911 0.2198235 0.2208309 0.2215797 0.2220869 0.222381 0.2224804
 0.222404 0.22218 0.2218453 0.2214372 0.2209791 0.2204721 0.2199102 0.2193018 0.2186604 0.2179832
 0.2172614 0.2165152 0.215793 0.2151264 0.2144999 0.2138766 0.2132426 0.2126118 0.2119969 0.2113954
 0.2108015 0.2102177 0.2096494 0.2090963 0.2085474 0.2079735 0.2073313 0.2065881 0.2057457 0.2048288
 0.2038481 0.2027842 0.2016115 0.2003281 0.1989514 0.1974966 0.1959678 0.194371 0.1927186 0.1910138
 0.1892336 0.1873436 0.1853442 0.1833017 0.1813189 0.1794706 0.1777702 0.1761875 0.1746873 0.1732531
 0.1718872 0.1705907 0.1693519 0.1681622 0.1670331 0.1659799 0.1649974 0.1640658 0.1631779 0.1623506
 0.1616119 0.1609791 0.1604474 0.1599997 0.1596192 0.1592918 0.1590157 0.1588209 0.1587474 0.1587839
 0.1588517 0.1588687 0.158809 0.1586936 0.1585548 0.1584211 0.158312 0.1582365 0.1581885 0.1581335
 0.1580011 0.1577048 0.157165 0.1563156 0.1551217 0.1536099 0.1518655 0.1500032 0.1481506 0.1464342
 0.1449496 0.1437519 0.142863 0.1422517 0.1418186 0.1414575 0.1411435 0.1409428 0.1409354 0.1411196
 0.1413726 0.141533 0.1415562 0.1415657 0.1417343 0.1421496 0.1427879 0.14355 0.1443094 0.1449732
 0.1455048 0.1458895 0.1461215 0.1462277 0.1462517 0.1462117 0.1461048 0.1459285 0.1456755 0.1453428
 0.144951 0.1445151 0.1440185 0.1434475 0.1428103 0.1421042 0.1413167 0.1404504 0.139485 0.1383703
 0.1371467 0.1360281 0.135293 0.135117 0.1355006 0.1362887 0.1372753 0.1383354 0.1393875 0.1402214
 0.1405721 0.1405156 0.1406488 0.1416581 0.1436757 0.1461403 0.1482977 0.1497489 0.1504903 0.1506164
 0.1501827 0.1492493 0.1478357 0.1458841 0.1434068 0.1405658 0.1375292 0.1344144 0.1313961 0.1286759
 0.1263562 0.1244625 0.1230032 0.1220234 0.1216508 0.1215005 0.1196492 0.1136408 0.1042737 0.09727348
 0.09846418 0.1072205 0.1169201 0.1219383 0.1221142 0.1204331 0.1189498 0.1179627 0.1173705 0.11735
 0.1180593 0.1193475 0.1207987 0.1219967 0.1227769 0.1231802 0.1231603 0.1223456 0.119986 0.1152239
 0.1077896 0.09858619 0.08937348 0.08174433 0.07641052 0.07323951 0.07161984 0.07080847 0.07027861 0.06996993
 0.07019602 0.07126652 0.0732179 0.07588579 0.07908337 0.08256889 0.08593536 0.08876741 0.09094959 0.09266944
 0.09408837 0.09514011 0.09567269 0.09566458 0.09525096 0.09461254 0.09388688 0.09313303 0.09230749 0.09129629
 0.09007342 0.08884665 0.08794075 0.08749917 0.08738797 0.0873943 0.08740298 0.08738174 0.08732524 0.08724745
 0.08717279 0.08714588 0.08725965 0.08759606 0.08810756 0.08861894 0.08896764 0.08912054 0.08916095 0.08914453
 0.08895153 0.08839252 0.08753884 0.0867601 0.08624513 0.08567291 0.08463412 0.08326951 0.08220599 0.08188137
 0.08214822 0.08253482 0.08269335 0.08256398 0.08231235 0.08223625 0.08258024 0.0832527 0.08379871 0.08381744
</values></Ydata></ScRf><Data_Parameters_AB><parameter name="DPF">1</parameter><parameter name="NPT">3497</parameter><parameter name="FXV">3996</parameter><parameter name="LXV">500</parameter><parameter name="CSF">1</parameter><parameter name="MXY">0.470021158456802</parameter><parameter name="MNY">-0.0735945850610733</parameter><parameter name="DAT">31/05/2022</parameter><parameter name="TIM">13:57:22.645 (GMT+2)</parameter><parameter name="DXU">WN</parameter></Data_Parameters_AB><AB__Qtest><MainReport name="Quality Test Report"><Header><Line><Legend>Test result ok/not ok [1/0]: </Legend><Value>1</Value></Line><Line><Legend>Method file: </Legend><Value>C:\Users\Public\Documents\Bruker\OPUS_8.2.28\QT\IRBT_v3_default.QT</Value></Line></Header><Matrix><Line><Legend></Legend><Legend>min</Legend><Legend>max</Legend><Legend>measured</Legend></Line><Line><Value>Absorption (X-Range 1):</Value><Value>0.400000</Value><Value>2.000000</Value><Value>0.508559</Value></Line><Line><Value>Noise (X-Range 4):</Value><Value></Value><Value>0.000300</Value><Value>0.000047</Value></Line><Line><Value>Signal/Noise (X-Range 2):</Value><Value>200.000000</Value><Value></Value><Value>316.817812</Value></Line><Line><Value>Signal/Noise (X-Range 3):</Value><Value>40.000000</Value><Value></Value><Value>87.589276</Value></Line><Line><Value>Water vapour (X-Range 5):</Value><Value></Value><Value>0.000300</Value><Value>0.000068</Value></Line><Line><Value>Signal/Water (X-Range 2):</Value><Value>100.000000</Value><Value></Value><Value>216.583936</Value></Line><Line><Value>Signal/Water (X-Range 3):</Value><Value>20.000000</Value><Value></Value><Value>59.878041</Value></Line><Line><Value>Fringes (X-Range 6):</Value><Value></Value><Value>0.000100</Value><Value>0.000081</Value></Line></Matrix></MainReport></AB__Qtest><Data_Parameters_ScSm><parameter name="DPF">1</parameter><parameter name="NPT">1814</parameter><parameter name="FXV">3996.33169228125</parameter><parameter name="LXV">499.541461535156</parameter><parameter name="CSF">1</parameter><parameter name="MXY">0.255562573671341</parameter><parameter name="MNY">0.0331490561366081</parameter><parameter name="DAT">31/05/2022</parameter><parameter name="TIM">13:57:22.645 (GMT+2)</parameter><parameter name="DXU">WN</parameter></Data_Parameters_ScSm><Data_Parameters_ScRf><parameter name="DPF">1</parameter><parameter name="NPT">1820</parameter><parameter name="FXV">4004.04661832813</parameter><parameter name="LXV">495.683998511719</parameter><parameter name="CSF">1</parameter><parameter name="MXY">0.265067756175995</parameter><parameter name="MNY">0.0292103439569473</parameter><parameter name="DAT">31/05/2022</parameter><parameter name="TIM">13:56:56.792 (GMT+2)</parameter><parameter name="DXU">WN</parameter></Data_Parameters_ScRf><Optic_Parameters_Rf><parameter name="APR">0</parameter><parameter name="APT">Open</parameter><parameter name="BMS">KBr</parameter><parameter name="DTC">RT-DLaTGS_IR-Biotyper [Microplate reader]</parameter><parameter name="HPF">0</parameter><parameter name="LPF">10.0</parameter><parameter name="LPV">4000</parameter><parameter name="PGR">0</parameter><parameter name="RCH">Module port</parameter><parameter name="RDX">0</parameter><parameter name="SRC">MIR</parameter><parameter name="VEL">10.0</parameter><parameter name="SON">Off</parameter></Optic_Parameters_Rf><Acquisition_Parameters_Rf><parameter name="ADT">1</parameter><parameter name="AQM">DD</parameter><parameter name="CFE">0</parameter><parameter name="COR">0</parameter><parameter name="DEL">0</parameter><parameter name="DLY">0</parameter><parameter name="HFW">8000</parameter><parameter name="LFW">0</parameter><parameter name="NSR">32</parameter><parameter name="PLF">AB</parameter><parameter name="RES">6</parameter><parameter name="RGN">-1</parameter><parameter name="STR">0</parameter><parameter name="TCL">MakeCompatibleScalar (0, {WSV=1.000000, ARV=0});</parameter><parameter name="TDL">37</parameter><parameter name="RPO">0</parameter></Acquisition_Parameters_Rf><FT_-_Parameters_Rf><parameter name="APF">B3</parameter><parameter name="HFQ">500</parameter><parameter name="LFQ">4000</parameter><parameter name="NLI">0</parameter><parameter name="PHR">24</parameter><parameter name="PHZ">ML</parameter><parameter name="SPZ">NO</parameter><parameter name="ZFF">1</parameter></FT_-_Parameters_Rf><Optic_Parameters_><parameter name="APR">0</parameter><parameter name="APT">Open</parameter><parameter name="BMS">KBr</parameter><parameter name="CHN">Module port</parameter><parameter name="DTC">RT-DLaTGS_IR-Biotyper [Microplate reader]</parameter><parameter name="HPF">0</parameter><parameter name="LPF">10.0</parameter><parameter name="LPV">4000</parameter><parameter name="PGN">0</parameter><parameter name="RDX">0</parameter><parameter name="SRC">MIR</parameter><parameter name="VEL">10.0</parameter><parameter name="SON">Off</parameter></Optic_Parameters_><FT_-_Parameters_><parameter name="APF">B3</parameter><parameter name="HFQ">500</parameter><parameter name="LFQ">4000</parameter><parameter name="NLI">0</parameter><parameter name="PHR">24</parameter><parameter name="PHZ">ML</parameter><parameter name="SPZ">NO</parameter><parameter name="ZFF">1</parameter></FT_-_Parameters_><Acquisition_Parameters_><parameter name="ADT">1</parameter><parameter name="AQM">DD</parameter><parameter name="CFE">0</parameter><parameter name="COR">0</parameter><parameter name="DEL">0</parameter><parameter name="DLY">0</parameter><parameter name="HFW">8000</parameter><parameter name="LFW">0</parameter><parameter name="NSS">32</parameter><parameter name="PLF">AB</parameter><parameter name="RES">6</parameter><parameter name="SOT">0</parameter><parameter name="TCL">MakeCompatibleScalar (0, {WSV=1.000000, ARV=0});</parameter><parameter name="TDL">37</parameter><parameter name="SPO">0</parameter><parameter name="SGN">-1</parameter></Acquisition_Parameters_><Instrument_Parameters_Rf><parameter name="HFL">15800.168544</parameter><parameter name="LFL">0</parameter><parameter name="LWN">15800.168544</parameter><parameter name="ABP">32197</parameter><parameter name="SSP">1</parameter><parameter name="ARG">2</parameter><parameter name="ASG">2</parameter><parameter name="ASS">32</parameter><parameter name="GFW">16</parameter><parameter name="GBW">16</parameter><parameter name="BFW">0</parameter><parameter name="BBW">0</parameter><parameter name="PKA">7260</parameter><parameter name="PKL">4996</parameter><parameter name="PRA">7448</parameter><parameter name="PRL">5001</parameter><parameter name="P2A">1</parameter><parameter name="P2L">1</parameter><parameter name="P2R">1</parameter><parameter name="P2K">1</parameter><parameter name="DAQ">0</parameter><parameter name="AG2">1</parameter><parameter name="SSM">1</parameter><parameter name="RSN">25731</parameter><parameter name="CRR">0</parameter><parameter name="SRT">1654005416.793</parameter><parameter name="DUR">19.6389923095703</parameter><parameter name="TSC">29</parameter><parameter name="MVD">0.24608388543129</parameter><parameter name="AN1">0.225811322961832</parameter><parameter name="AN2">0</parameter><parameter name="VSN">2.485 Apr  4 2017</parameter><parameter name="SRN">0085</parameter><parameter name="CAM">0</parameter><parameter name="INS">IR-Biotyper</parameter><parameter name="FOC">69</parameter><parameter name="RDY">1</parameter><parameter name="ARS">32</parameter></Instrument_Parameters_Rf><Sample_Parameters_><parameter name="BLD"></parameter><parameter name="CNM">Admin</parameter><parameter name="CPY"></parameter><parameter name="DPM"></parameter><parameter name="EXP">IRBT_v3_32Scans.XPM</parameter><parameter name="LCT"></parameter><parameter name="SFM">Microplate, HTS-XT</parameter><parameter name="SNM">220531-1301_MGM31F (D_2)_E6_ab3dfa78-4ead-4008-87ca-a86b40977d6a.0</parameter><parameter name="XPP">C:\Users\Public\Documents\Bruker\OPUS_8.2.28\XPM</parameter><parameter name="IST">OK</parameter><parameter name="CPG">1252</parameter><parameter name="UID">b6b4ddbd-e188-40d9-8bba-9b817336eefc</parameter></Sample_Parameters_><Instrument_Parameters_><parameter name="HFL">15800.168544</parameter><parameter name="LFL">0</parameter><parameter name="LWN">15800.168544</parameter><parameter name="ABP">32197</parameter><parameter name="SSP">1</parameter><parameter name="ASG">2</parameter><parameter name="ARG">2</parameter><parameter name="ASS">32</parameter><parameter name="GFW">16</parameter><parameter name="GBW">16</parameter><parameter name="BFW">0</parameter><parameter name="BBW">0</parameter><parameter name="PKA">6498</parameter><parameter name="PKL">4988</parameter><parameter name="PRA">6745</parameter><parameter name="PRL">4993</parameter><parameter name="P2A">1</parameter><parameter name="P2L">1</parameter><parameter name="P2R">1</parameter><parameter name="P2K">1</parameter><parameter name="DAQ">0</parameter><parameter name="AG2">1</parameter><parameter name="SSM">1</parameter><parameter name="RSN">13491</parameter><parameter name="CRR">0</parameter><parameter name="SRT">1654005442.646</parameter><parameter name="DUR">19.6379852294922</parameter><parameter name="TSC">29</parameter><parameter name="MVD">0.274217337369919</parameter><parameter name="AN1">0.225817153244289</parameter><parameter name="AN2">0</parameter><parameter name="VSN">2.485 Apr  4 2017</parameter><parameter name="SRN">0085</parameter><parameter name="CAM">0</parameter><parameter name="INS">IR-Biotyper</parameter><parameter name="FOC">69</parameter><parameter name="RDY">1</parameter></Instrument_Parameters_><History/></OPUSDataFile>
