<?xml version="1.0" encoding="UTF-8" ?>
<OPUSDataFile><AB><Ydata ylabel="Absorbance Units"><values byteorder="INTEL" format="FLOAT32" numvalues="3497"> -0.08296336 -0.08298456 -0.08300735 -0.08303297 -0.0830422 -0.08303408 -0.08300715 -0.08296303 -0.08292227 -0.08288617
 -0.08287429 -0.08288298 -0.08291045 -0.08295136 -0.082991 -0.08302987 -0.08306105 -0.08308998 -0.08312106 -0.08315585
 -0.08319878 -0.08324388 -0.08328976 -0.08332944 -0.08335928 -0.08337879 -0.08338617 -0.08338798 -0.08338442 -0.08338535
 -0.08339185 -0.08340878 -0.08343644 -0.08346757 -0.08350144 -0.08352543 -0.08354039 -0.08354407 -0.08353963 -0.08353754
 -0.08353904 -0.08355348 -0.08357739 -0.08361012 -0.08364608 -0.08367885 -0.08370431 -0.08371659 -0.0837158 -0.08369935
 -0.08367255 -0.0836364 -0.08359659 -0.08355517 -0.08351281 -0.08346967 -0.08342692 -0.08338406 -0.08335091 -0.08332799
 -0.08332694 -0.08334737 -0.08338711 -0.08344366 -0.08350033 -0.08355616 -0.08359796 -0.08362845 -0.08364709 -0.08365792
 -0.08366701 -0.08367796 -0.08369732 -0.08372671 -0.0837713 -0.08382536 -0.0838897 -0.08394969 -0.0840005 -0.08403041
 -0.08403341 -0.0840156 -0.08397494 -0.08393437 -0.08389519 -0.08388459 -0.08390417 -0.08397236 -0.08408829 -0.08424687
 -0.08444149 -0.08463152 -0.08480744 -0.08490846 -0.08494007 -0.08487774 -0.08474931 -0.08458915 -0.08442099 -0.08428986
 -0.08419486 -0.08415492 -0.0841466 -0.08416408 -0.08418143 -0.08418388 -0.08417282 -0.08414202 -0.08411884 -0.08410753
 -0.08412346 -0.08417065 -0.08422913 -0.08429804 -0.08434524 -0.08437093 -0.08437131 -0.08435097 -0.0843373 -0.08433311
 -0.08436567 -0.08442915 -0.08452605 -0.08464234 -0.08475524 -0.08485604 -0.08492193 -0.08496105 -0.08497169 -0.08496486
 -0.08494738 -0.08492179 -0.08488809 -0.08485743 -0.08482869 -0.08483195 -0.08487145 -0.08497395 -0.08514573 -0.08536519
 -0.0856322 -0.08582804 -0.08594759 -0.08588087 -0.08564872 -0.08533073 -0.08495008 -0.08464024 -0.08439762 -0.08428188
 -0.08427555 -0.08438322 -0.08456882 -0.08479895 -0.08502493 -0.08519223 -0.08528534 -0.08526777 -0.08518869 -0.08505433
 -0.08492439 -0.08482095 -0.08474995 -0.08471855 -0.08470086 -0.08469413 -0.08468956 -0.08468626 -0.0846994 -0.08472947
 -0.08478777 -0.08487125 -0.08496724 -0.08506951 -0.08514722 -0.08519761 -0.08519574 -0.08514857 -0.08505381 -0.08492681
 -0.08478338 -0.08463939 -0.08451334 -0.08441338 -0.08435006 -0.08432236 -0.08433283 -0.08437636 -0.08445282 -0.08455463
 -0.08468227 -0.08481805 -0.08496187 -0.08507898 -0.08516733 -0.08519399 -0.08515941 -0.08506647 -0.08492018 -0.08475497
 -0.08457432 -0.08440974 -0.08426115 -0.08414384 -0.08405677 -0.08400597 -0.0839874 -0.08400133 -0.08403588 -0.08408366
 -0.08412844 -0.08415812 -0.08416607 -0.08414396 -0.08410301 -0.08404239 -0.0839837 -0.08392999 -0.08390016 -0.08389687
 -0.08392826 -0.08399514 -0.08409358 -0.08422235 -0.08436157 -0.08450804 -0.08462957 -0.08472609 -0.08477739 -0.08479146
 -0.08477765 -0.08474492 -0.08471465 -0.08468793 -0.08467514 -0.08467304 -0.08467992 -0.08470058 -0.0847347 -0.08479589
 -0.08489143 -0.08502222 -0.08519562 -0.08537921 -0.08557139 -0.08572564 -0.08583595 -0.08588188 -0.08586168 -0.08576848
 -0.08560273 -0.08536749 -0.08507059 -0.08476537 -0.0844636 -0.08424334 -0.0841038 -0.08408979 -0.08417697 -0.08435342
 -0.08456852 -0.08475183 -0.08487864 -0.08488901 -0.08482622 -0.08469512 -0.0845482 -0.08441163 -0.08430088 -0.08422857
 -0.08417983 -0.08415513 -0.08413196 -0.08410726 -0.08407279 -0.08402753 -0.08398219 -0.0839377 -0.08391185 -0.08390444
 -0.08392508 -0.08396804 -0.084018 -0.08406407 -0.08406548 -0.08402632 -0.08392786 -0.08379748 -0.08366376 -0.08354212
 -0.08346266 -0.08340821 -0.0833819 -0.08334916 -0.08329438 -0.0832041 -0.08306538 -0.08290716 -0.08273055 -0.08257444
 -0.08244477 -0.08235005 -0.08229182 -0.08224349 -0.08220358 -0.08214205 -0.08206158 -0.08196726 -0.08186366 -0.081774
 -0.08169621 -0.08163601 -0.08159108 -0.08155924 -0.08154044 -0.08153638 -0.08153911 -0.08154636 -0.08153855 -0.08150321
 -0.08142819 -0.08130351 -0.08113295 -0.08091609 -0.08065482 -0.08034822 -0.08000559 -0.0796262 -0.07923666 -0.07883869
 -0.07845171 -0.07807615 -0.07771664 -0.07737413 -0.077058 -0.07676976 -0.07652324 -0.07631386 -0.0761381 -0.0759873
 -0.07584221 -0.07570195 -0.07555839 -0.07541065 -0.07526145 -0.07508994 -0.07488544 -0.07462889 -0.07430213 -0.07392849
 -0.07350834 -0.07307568 -0.07263826 -0.07220814 -0.07178783 -0.07137979 -0.07098421 -0.07060616 -0.07024616 -0.06991497
 -0.06961285 -0.06934982 -0.06912039 -0.06891238 -0.06870864 -0.06845474 -0.06814227 -0.06771718 -0.06721453 -0.06665437
 -0.06607728 -0.06553359 -0.06502439 -0.06456827 -0.06414475 -0.06374991 -0.06336546 -0.06298444 -0.0626011 -0.06221291
 -0.06182132 -0.06142713 -0.06102187 -0.06060539 -0.06015609 -0.05967344 -0.05914808 -0.05858362 -0.05800353 -0.05741166
 -0.0568385 -0.05628154 -0.05574888 -0.05523773 -0.05474506 -0.05427317 -0.05382465 -0.05339901 -0.05299904 -0.05261623
 -0.05224745 -0.05188174 -0.05151597 -0.05113412 -0.05073394 -0.05028918 -0.04979284 -0.0492377 -0.04861743 -0.04798098
 -0.04733053 -0.04673227 -0.04618767 -0.0457124 -0.04530139 -0.04492251 -0.04457042 -0.04420365 -0.04382391 -0.04341203
 -0.04297865 -0.04253488 -0.04208982 -0.04166417 -0.04125037 -0.04085423 -0.04044956 -0.04002216 -0.03955141 -0.03901846
 -0.03844064 -0.03781407 -0.03718204 -0.03655219 -0.03595513 -0.03539708 -0.03487947 -0.03440356 -0.03394629 -0.03350633
 -0.03305685 -0.0325976 -0.03211512 -0.03160987 -0.03107666 -0.03051587 -0.02992278 -0.0293048 -0.02866974 -0.02803509
 -0.0274282 -0.02685881 -0.02635099 -0.02589008 -0.02547697 -0.02508639 -0.02470627 -0.02432534 -0.02393602 -0.02354353
 -0.0231481 -0.02275275 -0.0223593 -0.02195421 -0.02153688 -0.02108907 -0.02061057 -0.02010354 -0.019571 -0.01903947
 -0.01851065 -0.01800838 -0.01752761 -0.01706753 -0.01661989 -0.01616741 -0.01570712 -0.01522509 -0.01472942 -0.01421966
 -0.0137133 -0.01322171 -0.01275571 -0.01232768 -0.01192217 -0.01154104 -0.01115033 -0.01074273 -0.01030074 -0.009818841
 -0.009313199 -0.008784005 -0.008261431 -0.007746706 -0.007258723 -0.006796764 -0.006363283 -0.00595654 -0.00557051 -0.005203305
 -0.004847185 -0.004499369 -0.004151313 -0.003799914 -0.003436425 -0.003062212 -0.002673848 -0.002278638 -0.001881319 -0.001483684
 -0.001089784 -0.0006907666 -0.0002829867 0.0001316669 0.0005568439 0.0009664841 0.001357159 0.001714325 0.002035135 0.002351021
 0.002663947 0.003020089 0.003417035 0.003855978 0.004327091 0.004784583 0.005223558 0.005602323 0.005930152 0.006203228
 0.006438171 0.006657282 0.006869591 0.007094758 0.007326296 0.007566913 0.007805106 0.008034141 0.0082552 0.008465152
 0.008677234 0.008893698 0.009123754 0.009369521 0.009629718 0.009904557 0.01018864 0.01048176 0.01077991 0.01108388
 0.01139786 0.01172462 0.01208052 0.01246525 0.01289085 0.01334514 0.01381265 0.01427429 0.01469477 0.01506819
 0.01537122 0.01562025 0.01581696 0.01598394 0.01613301 0.01627411 0.01641353 0.01655096 0.01668647 0.0168241
 0.01696357 0.01711591 0.01728203 0.01746819 0.01767446 0.01789633 0.01813327 0.01837845 0.01863233 0.01889456
 0.01916415 0.01943976 0.01971594 0.01998087 0.02023071 0.0204511 0.02065234 0.0208353 0.02102225 0.0212307
 0.02146749 0.02174801 0.02204064 0.02234232 0.0226094 0.02282803 0.02299684 0.02310955 0.02321333 0.02331156
 0.0234377 0.02359215 0.02374805 0.02390156 0.02400256 0.02405541 0.02405171 0.02400521 0.02395359 0.02390615
 0.02390339 0.02393945 0.02402627 0.02414649 0.02428759 0.02443509 0.02457084 0.02470304 0.02482527 0.02497028
 0.02514764 0.02537919 0.02567813 0.02601262 0.02638534 0.0267194 0.02700892 0.02719539 0.02727714 0.02726699
 0.02717121 0.02705614 0.02692498 0.0268305 0.02676584 0.02673576 0.02673634 0.02675793 0.0268091 0.02690084
 0.02703278 0.02721795 0.02742404 0.02763638 0.02781784 0.02793956 0.02801085 0.02802037 0.0280222 0.02802577
 0.02807246 0.028173 0.02831651 0.0285048 0.02868902 0.02886662 0.0289883 0.02905458 0.02904853 0.02897872
 0.02887583 0.02875401 0.02867432 0.02864295 0.02870829 0.02885421 0.029085 0.02936359 0.02965653 0.02992896
 0.03014165 0.03029243 0.03036257 0.03038964 0.03037864 0.03037485 0.03038999 0.03044586 0.03054742 0.03070116
 0.03090757 0.03118042 0.03152026 0.03193267 0.03241302 0.03292042 0.0334424 0.0338929 0.03426545 0.03448678
 0.03457579 0.03452728 0.03438692 0.03421623 0.03405949 0.0339918 0.03401485 0.0341664 0.03438927 0.03467478
 0.03494007 0.03515513 0.0352705 0.03526276 0.03515205 0.03493245 0.03467647 0.03438905 0.0341363 0.03392117
 0.03375845 0.0336456 0.03355981 0.03350095 0.03345478 0.0334276 0.03343355 0.03347546 0.0335726 0.03370884
 0.0338768 0.03403774 0.03415205 0.03418211 0.0340816 0.03385588 0.03348296 0.03302644 0.03249617 0.03197177
 0.03147497 0.03104234 0.03068554 0.03039062 0.03015838 0.02995789 0.02978755 0.02961963 0.02945334 0.02926844
 0.02906817 0.0288567 0.02864235 0.02845693 0.02830021 0.02819416 0.02811738 0.02805 0.02796553 0.02782324
 0.02762438 0.0273479 0.02703306 0.02668838 0.0263659 0.02608673 0.0258759 0.02574961 0.02567806 0.02566477
 0.02563424 0.02558077 0.02543852 0.0252045 0.02487927 0.02446851 0.02403523 0.02358528 0.02318505 0.0228299
 0.02254197 0.02230817 0.02211078 0.02193883 0.02176608 0.02159191 0.02140378 0.02121078 0.02101559 0.02082624
 0.0206495 0.02048192 0.02032507 0.02016907 0.02001151 0.01984815 0.01967772 0.01950136 0.01931935 0.0191278
 0.01892646 0.01870619 0.01846706 0.01820604 0.01792544 0.01763553 0.01733981 0.01705577 0.0167844 0.01653799
 0.01631206 0.01610635 0.01591286 0.01572296 0.0155308 0.0153287 0.01511603 0.01488986 0.01465347 0.01440712
 0.01415479 0.01389747 0.01363765 0.01337604 0.01311232 0.01284644 0.01257893 0.01230986 0.01204485 0.01178428
 0.01153488 0.01129583 0.01106624 0.01084417 0.01062213 0.01039985 0.01017235 0.009941947 0.009710143 0.009478794
 0.009250504 0.009026291 0.008805966 0.008596049 0.008397277 0.008224313 0.008083077 0.007980857 0.007925373 0.007891169
 0.007879763 0.007834709 0.007751091 0.007585643 0.007336046 0.007014586 0.006625963 0.006230591 0.005833701 0.005497987
 0.005220181 0.005026705 0.004901568 0.004825639 0.004774638 0.004700958 0.004591274 0.004405433 0.004162624 0.003857875
 0.003533107 0.003210663 0.002911888 0.002654655 0.002422461 0.002214252 0.002015457 0.001819386 0.001652742 0.001515955
 0.001454476 0.001470723 0.001570161 0.001747711 0.001942784 0.002145497 0.002265257 0.002302128 0.002201064 0.001984211
 0.001670146 0.00129254 0.0009166271 0.0005553095 0.0002557782 -5.068546E-06 -0.0002285075 -0.000441163 -0.000664418 -0.0008878124
 -0.00111639 -0.001318871 -0.001484446 -0.001615211 -0.001705859 -0.001796346 -0.001890594 -0.002009514 -0.002154435 -0.002295093
 -0.002429231 -0.002517018 -0.002562253 -0.002565749 -0.00253616 -0.002506043 -0.002477399 -0.002472861 -0.002486025 -0.002515365
 -0.002557929 -0.002605678 -0.002670054 -0.002753458 -0.002878332 -0.003058123 -0.003304267 -0.003630845 -0.004011024 -0.004448286
 -0.0048777 -0.005290979 -0.005629807 -0.005884944 -0.006059129 -0.00615195 -0.006230966 -0.006300403 -0.00643557 -0.006632833
 -0.00691292 -0.007260564 -0.00763348 -0.008017062 -0.008352373 -0.008641294 -0.008856085 -0.009016401 -0.009131825 -0.009225633
 -0.009319924 -0.009426796 -0.009561383 -0.009717532 -0.009899722 -0.01008519 -0.0102698 -0.01043264 -0.01056663 -0.01068329
 -0.01078079 -0.01090362 -0.01105425 -0.01125954 -0.01151685 -0.01179448 -0.0120865 -0.01233613 -0.0125494 -0.01271363
 -0.01284777 -0.01299331 -0.01315851 -0.0133827 -0.01364707 -0.01394904 -0.01425888 -0.01454993 -0.01480976 -0.01502081
 -0.01519346 -0.01532704 -0.01543491 -0.01552186 -0.01558776 -0.01563373 -0.01565366 -0.01564572 -0.01562263 -0.01558481
 -0.01557428 -0.01559352 -0.01568842 -0.01585619 -0.01610618 -0.01642644 -0.01678006 -0.01715328 -0.01749361 -0.01779559
 -0.01802461 -0.01818634 -0.01827169 -0.01829475 -0.01826147 -0.01819068 -0.0180933 -0.01798506 -0.01787464 -0.01776899
 -0.0176716 -0.0175843 -0.01750829 -0.01744169 -0.01738573 -0.01732236 -0.0172508 -0.01713024 -0.01695897 -0.01670192
 -0.01636363 -0.01595275 -0.01548059 -0.01499439 -0.01450085 -0.01404222 -0.01361405 -0.01322824 -0.0128773 -0.01255631
 -0.01226158 -0.01198978 -0.01173472 -0.01149459 -0.01125596 -0.01101318 -0.01075789 -0.01048392 -0.01020333 -0.009914842
 -0.009646722 -0.009401485 -0.009202933 -0.009052781 -0.00895326 -0.008903233 -0.008884639 -0.008896036 -0.008918545 -0.008953476
 -0.008996857 -0.00904843 -0.009108741 -0.009169135 -0.009215809 -0.009239751 -0.009219919 -0.009166473 -0.009075754 -0.008974701
 -0.008879608 -0.008801134 -0.008753322 -0.008711855 -0.008675245 -0.008611096 -0.008511469 -0.008371701 -0.008188568 -0.007986055
 -0.007765242 -0.007558818 -0.007368505 -0.007224926 -0.007128756 -0.007101658 -0.007139667 -0.007242405 -0.00739873 -0.007581788
 -0.007779962 -0.007958321 -0.00811813 -0.008240853 -0.008350396 -0.008453207 -0.008592712 -0.008792079 -0.00909235 -0.00951863
 -0.01007726 -0.01078263 -0.01158965 -0.0124985 -0.01343155 -0.01438152 -0.01528305 -0.01613135 -0.01690387 -0.01760111
 -0.01823251 -0.01879872 -0.01930842 -0.01976052 -0.02015264 -0.02048931 -0.02077719 -0.02103012 -0.0212752 -0.02152295
 -0.02180158 -0.02210151 -0.02242896 -0.0227575 -0.02307394 -0.0233583 -0.02359682 -0.02379141 -0.02393773 -0.02405287
 -0.02413915 -0.02420974 -0.02426744 -0.02430638 -0.02432659 -0.0243072 -0.0242481 -0.02414355 -0.02399997 -0.02385669
 -0.02372451 -0.02367027 -0.02369335 -0.02383241 -0.02406617 -0.02437837 -0.02474018 -0.02510875 -0.02546772 -0.02578652
 -0.02606651 -0.02629752 -0.02649445 -0.02665877 -0.02681177 -0.0269598 -0.02711534 -0.02728384 -0.02745495 -0.02762876
 -0.02778684 -0.02792751 -0.02806281 -0.02819558 -0.02837997 -0.0286194 -0.02896836 -0.02941873 -0.02997269 -0.0306079
 -0.03126851 -0.03193481 -0.03254053 -0.03309128 -0.03356087 -0.03398027 -0.03436642 -0.03474667 -0.03514661 -0.03556415
 -0.03600807 -0.03645569 -0.03690277 -0.03733076 -0.03773504 -0.03810923 -0.0384519 -0.0387626 -0.03904112 -0.03929151
 -0.0395144 -0.03972163 -0.03991456 -0.04010875 -0.04030467 -0.04051376 -0.04073293 -0.04096149 -0.04119231 -0.04141205
 -0.04161593 -0.0417893 -0.04194002 -0.04206634 -0.04218748 -0.04231479 -0.04246014 -0.0426353 -0.04282758 -0.04303899
 -0.04324067 -0.04342707 -0.04358215 -0.04370138 -0.04379997 -0.04387821 -0.0439674 -0.04406824 -0.04419281 -0.04433796
 -0.04448542 -0.04463344 -0.04476213 -0.04487836 -0.04498929 -0.04510449 -0.04524749 -0.0454168 -0.0456238 -0.04585338
 -0.04609812 -0.04633955 -0.04656456 -0.04676117 -0.04691982 -0.04704122 -0.04712059 -0.04717678 -0.04721016 -0.04725155
 -0.04730471 -0.04738905 -0.04750666 -0.04764907 -0.04781527 -0.0479829 -0.04815176 -0.04830991 -0.04845915 -0.04860138
 -0.0487367 -0.04886687 -0.04898982 -0.04910162 -0.049203 -0.04929223 -0.04937377 -0.04945156 -0.04952722 -0.04960429
 -0.04967787 -0.04974653 -0.04980705 -0.04985616 -0.04990304 -0.04994756 -0.05000638 -0.05008181 -0.05018161 -0.05030688
 -0.05044795 -0.05060397 -0.05075655 -0.05090537 -0.05103882 -0.05115902 -0.05126833 -0.05136999 -0.05147487 -0.05158317
 -0.05170245 -0.05182584 -0.05194907 -0.05206127 -0.05214955 -0.05221216 -0.05223973 -0.05225001 -0.05224485 -0.05225264
 -0.05228248 -0.05235016 -0.0524626 -0.05261088 -0.05279628 -0.05299367 -0.05320155 -0.05339621 -0.05357686 -0.05373234
 -0.05386376 -0.05397414 -0.05406577 -0.05414978 -0.05422809 -0.05431182 -0.05440156 -0.05450403 -0.05461769 -0.0547444
 -0.05487914 -0.05501927 -0.05515688 -0.05528631 -0.05540237 -0.05550013 -0.05558283 -0.05564904 -0.05570938 -0.05576509
 -0.05582759 -0.05589857 -0.0559839 -0.05608433 -0.0561966 -0.0563202 -0.05644333 -0.05656511 -0.05667269 -0.05676687
 -0.05684343 -0.05690549 -0.05695916 -0.05700792 -0.05706158 -0.0571214 -0.05719365 -0.05727675 -0.05737177 -0.05747587
 -0.0575874 -0.05770489 -0.05782706 -0.05795428 -0.0580869 -0.05822304 -0.05836328 -0.05850023 -0.05863335 -0.058754
 -0.05886134 -0.05895422 -0.05903282 -0.05910359 -0.0591669 -0.05922876 -0.05928862 -0.05934674 -0.05940326 -0.05945776
 -0.05951305 -0.05957417 -0.05964395 -0.0597296 -0.0598288 -0.05994371 -0.06006587 -0.06019144 -0.06031078 -0.06041839
 -0.06050996 -0.06058193 -0.06063843 -0.06067858 -0.0607135 -0.06074409 -0.06078221 -0.06082894 -0.06088813 -0.06095965
 -0.06103745 -0.0611209 -0.06120202 -0.06128121 -0.06135595 -0.0614275 -0.06149842 -0.0615691 -0.06164193 -0.06171577
 -0.06179044 -0.06186368 -0.06193317 -0.06199785 -0.06205554 -0.06210881 -0.06215747 -0.06220709 -0.06225944 -0.06231774
 -0.06238343 -0.06245475 -0.06253176 -0.06261167 -0.06269422 -0.06277857 -0.06286462 -0.06294993 -0.06303406 -0.06311152
 -0.06318269 -0.06324556 -0.06330258 -0.06335983 -0.06341942 -0.06348953 -0.06356797 -0.06365632 -0.06374855 -0.0638394
 -0.06392476 -0.06399937 -0.06406495 -0.06412006 -0.06417073 -0.06421837 -0.06426799 -0.06432123 -0.06437861 -0.06444075
 -0.0645043 -0.06456909 -0.06463143 -0.06469121 -0.06474729 -0.06479977 -0.0648491 -0.06489543 -0.06493929 -0.06498137
 -0.0650235 -0.06506733 -0.06511701 -0.06517372 -0.06524185 -0.06531888 -0.0654052 -0.06549439 -0.06558275 -0.06566425
 -0.06573433 -0.06579324 -0.06583902 -0.06587843 -0.06591231 -0.06594718 -0.06598434 -0.06602431 -0.06606738 -0.06611009
 -0.06615235 -0.06619301 -0.06623238 -0.06627335 -0.06631586 -0.06636165 -0.06640957 -0.06645704 -0.06650301 -0.06654358
 -0.06657969 -0.06661069 -0.06663869 -0.0666659 -0.06669258 -0.06671999 -0.06674648 -0.06677143 -0.06679427 -0.06681433
 -0.06683309 -0.06685074 -0.06686831 -0.06688598 -0.06690406 -0.0669225 -0.06694307 -0.06696587 -0.06699327 -0.06702523
 -0.06706207 -0.0671038 -0.06715052 -0.06720284 -0.06726318 -0.06733104 -0.0674078 -0.06748971 -0.0675726 -0.06765161
 -0.06771977 -0.0677762 -0.06781685 -0.06784711 -0.06786732 -0.06788658 -0.06790763 -0.0679376 -0.06797926 -0.06803172
 -0.06809614 -0.06816217 -0.06822921 -0.06828636 -0.06833328 -0.06836975 -0.06839681 -0.06842455 -0.06845348 -0.06849226
 -0.06853872 -0.06859118 -0.06864607 -0.06869457 -0.0687357 -0.06876285 -0.06878035 -0.06878888 -0.06879627 -0.06880813
 -0.06882965 -0.06886601 -0.0689142 -0.06897587 -0.06904028 -0.06910607 -0.06916155 -0.06920444 -0.06923168 -0.06924229
 -0.06924614 -0.06924382 -0.06925034 -0.06926569 -0.06929606 -0.06933943 -0.06938905 -0.06944282 -0.06948997 -0.06953129
 -0.06956252 -0.06958702 -0.06960787 -0.06962797 -0.06965218 -0.06967966 -0.06971209 -0.06974554 -0.06977846 -0.0698084
 -0.06983346 -0.06985623 -0.06987665 -0.06989906 -0.06992435 -0.06995287 -0.06998491 -0.07001647 -0.07004737 -0.07007324
 -0.07009415 -0.07010891 -0.07011814 -0.07012428 -0.07012827 -0.0701346 -0.07014336 -0.07015717 -0.07017503 -0.07019652
 -0.07022081 -0.07024691 -0.07027426 -0.07030252 -0.07033008 -0.07035611 -0.07037929 -0.07039843 -0.07041567 -0.07043103
 -0.07044778 -0.07046671 -0.070487 -0.07050878 -0.0705283 -0.07054541 -0.07055893 -0.07056905 -0.07057759 -0.07058464
 -0.07059155 -0.07059819 -0.07060484 -0.07061144 -0.070618 -0.07062443 -0.0706304 -0.07063636 -0.07064207 -0.07064972
 -0.0706606 -0.07067712 -0.07070164 -0.07073222 -0.07076983 -0.07080711 -0.0708428 -0.07087024 -0.0708876 -0.07089706
 -0.07089826 -0.07090105 -0.07090592 -0.07092021 -0.07094347 -0.07097322 -0.07100871 -0.07104366 -0.07107978 -0.07111823
 -0.07116361 -0.07122602 -0.07131008 -0.07142751 -0.07157957 -0.07177261 -0.07200416 -0.07227491 -0.07258045 -0.07291877
 -0.07328697 -0.07368363 -0.07410721 -0.07455757 -0.07503117 -0.0755279 -0.07604142 -0.07657112 -0.07711411 -0.07767007
 -0.0782311 -0.07879283 -0.079308 -0.07976488 -0.08007266 -0.08022857 -0.08016713 -0.07991154 -0.07947285 -0.07889415
 -0.07824102 -0.07755848 -0.07691947 -0.07634758 -0.07588453 -0.07553089 -0.07529828 -0.07517783 -0.07517179 -0.07525943
 -0.07544259 -0.07566997 -0.07593808 -0.07617727 -0.0763799 -0.07651905 -0.07659332 -0.07661961 -0.07659884 -0.07654505
 -0.07645972 -0.07635708 -0.07624031 -0.07612962 -0.07602255 -0.07592549 -0.07582986 -0.07572395 -0.07560457 -0.07546186
 -0.07530146 -0.07512359 -0.07493638 -0.07474297 -0.0745529 -0.0743693 -0.07420195 -0.07405425 -0.07392889 -0.07382798
 -0.07374196 -0.07367059 -0.07359935 -0.07352751 -0.07344882 -0.073364 -0.07327975 -0.07319713 -0.07312635 -0.07306629
 -0.07301905 -0.07298202 -0.07294998 -0.07292213 -0.07289422 -0.07286842 -0.07284544 -0.07282745 -0.07281688 -0.07281324
 -0.07281734 -0.0728267 -0.07284081 -0.07285687 -0.0728742 -0.07289071 -0.07290595 -0.07291903 -0.07292972 -0.0729394
 -0.07294815 -0.07295919 -0.07297278 -0.07299319 -0.07302049 -0.07305777 -0.07310396 -0.0731575 -0.07321613 -0.07327376
 -0.07332892 -0.07337581 -0.073416 -0.07344858 -0.07347661 -0.07350222 -0.07352725 -0.07355328 -0.07358092 -0.07361066
 -0.07364294 -0.07367819 -0.07371543 -0.07375483 -0.07379337 -0.07383083 -0.07386409 -0.073893 -0.07391715 -0.07393671
 -0.07395373 -0.07396837 -0.07398283 -0.07399654 -0.07400879 -0.07401862 -0.07402293 -0.07402233 -0.07401541 -0.07400588
 -0.07399695 -0.07399267 -0.07399783 -0.07401243 -0.07403897 -0.07407184 -0.07411007 -0.07414693 -0.07418033 -0.07420752
 -0.07422716 -0.07424287 -0.07425462 -0.07426924 -0.07428714 -0.074312 -0.07434351 -0.07437848 -0.07441616 -0.0744504
 -0.07448126 -0.07450537 -0.07452402 -0.07453826 -0.07454974 -0.07456169 -0.07457483 -0.07459158 -0.07461087 -0.07463292
 -0.07465552 -0.07467731 -0.07469767 -0.07471567 -0.07473306 -0.07475017 -0.07476788 -0.0747866 -0.07480491 -0.07482265
 -0.07483969 -0.07485602 -0.07487516 -0.07489731 -0.07492629 -0.07496169 -0.07500338 -0.07505026 -0.07509866 -0.07514724
 -0.07519119 -0.07522928 -0.07525703 -0.07527486 -0.07528058 -0.07527785 -0.07526806 -0.07525674 -0.07524748 -0.07524272
 -0.07524491 -0.07525136 -0.07526194 -0.07527357 -0.07528532 -0.07529861 -0.07531333 -0.07533389 -0.07536054 -0.07539352
 -0.07543232 -0.07546979 -0.07550523 -0.07553014 -0.07554557 -0.07555028 -0.07554712 -0.07554239 -0.075538 -0.07554065
 -0.07554913 -0.07556514 -0.07558569 -0.07560913 -0.07563262 -0.07565428 -0.07567209 -0.07568472 -0.07569186 -0.07569256
 -0.07569053 -0.0756857 -0.07568534 -0.07569022 -0.07570469 -0.07572909 -0.07575884 -0.07579325 -0.07582131 -0.07584283
 -0.07585052 -0.07584625 -0.07583268 -0.07581262 -0.07579456 -0.07577947 -0.07577322 -0.07577448 -0.07578413 -0.07580031
 -0.07582189 -0.07584728 -0.07587563 -0.07590475 -0.07593393 -0.07596067 -0.07598422 -0.07600306 -0.07601683 -0.07602476
 -0.07602665 -0.0760231 -0.07601412 -0.07600159 -0.07598562 -0.07596811 -0.07594903 -0.07592881 -0.07590789 -0.07588765
 -0.07586943 -0.07585754 -0.07585237 -0.07585765 -0.07587029 -0.07588886 -0.0759085 -0.07592418 -0.0759348 -0.07593701
 -0.07593626 -0.07593329 -0.07593503 -0.07594416 -0.07596104 -0.07598693 -0.07601493 -0.07604454 -0.07606912 -0.07608823
 -0.07610142 -0.07610885 -0.07611309 -0.07611398 -0.0761117 -0.07610614 -0.07609652 -0.07608394 -0.07607053 -0.07605776
 -0.07604929 -0.07604545 -0.07604829 -0.0760571 -0.07607231 -0.07609198 -0.07611591 -0.0761398 -0.07616227 -0.07617898
 -0.07618801 -0.07618956 -0.07618288 -0.07617223 -0.07615796 -0.07614343 -0.07612888 -0.07611509 -0.07610215 -0.07609152
 -0.07608369 -0.07608276 -0.07608868 -0.07610416 -0.07612734 -0.07615536 -0.07618553 -0.07621157 -0.07623246 -0.0762438
 -0.07624753 -0.07624345 -0.07623468 -0.0762228 -0.07621058 -0.07619924 -0.07619138 -0.07618801 -0.07619025 -0.07619892
 -0.07621068 -0.07622545 -0.07623778 -0.07624728 -0.07625242 -0.07625347 -0.07625519 -0.07625795 -0.07626715 -0.07628214
 -0.07630362 -0.0763298 -0.07635649 -0.07638213 -0.07640161 -0.07641543 -0.07642168 -0.07642255 -0.07641932 -0.07641341
 -0.07640596 -0.07639767 -0.07638846 -0.0763813 -0.07637651 -0.07637872 -0.07638936 -0.07640734 -0.07643328 -0.07645874
 -0.07648323 -0.07650007 -0.07650932 -0.07651294 -0.07651157 -0.07651091 -0.07651065 -0.07651258 -0.07651557 -0.07651731
 -0.0765176 -0.07651456 -0.07650959 -0.07650351 -0.07649802 -0.0764951 -0.07649497 -0.07649875 -0.0765047 -0.0765127
 -0.07651997 -0.07652578 -0.076528 -0.07652596 -0.07651989 -0.07650959 -0.07649686 -0.07648177 -0.07646589 -0.0764492
 -0.07643166 -0.07641318 -0.07639314 -0.07637151 -0.07634799 -0.07632248 -0.07629433 -0.07626389 -0.07623088 -0.07619718
 -0.07616477 -0.07613568 -0.07611322 -0.07609553 -0.07608359 -0.07607134 -0.0760563 -0.07603525 -0.07600569 -0.07597211
 -0.07593431 -0.07590067 -0.07587232 -0.07585274 -0.07584238 -0.07583749 -0.07583765 -0.07583502 -0.07582917 -0.07581294
 -0.07578699 -0.07574955 -0.07570304 -0.07565255 -0.07560099 -0.07555628 -0.07551916 -0.07549464 -0.07547981 -0.07547489
 -0.07547376 -0.07547365 -0.07546736 -0.07545093 -0.07542147 -0.07537616 -0.07532065 -0.07525467 -0.07518905 -0.07512518
 -0.07506863 -0.07502005 -0.07497516 -0.07493365 -0.07488848 -0.07484017 -0.07478896 -0.07473641 -0.07468943 -0.07464848
 -0.07461888 -0.07459884 -0.07458804 -0.07458328 -0.07458057 -0.07457695 -0.0745682 -0.07455344 -0.07453026 -0.07450128
 -0.07446653 -0.0744305 -0.07439471 -0.07436083 -0.07433 -0.0742989 -0.07426758 -0.0742299 -0.07418542 -0.07413013
 -0.07406409 -0.07398937 -0.07390687 -0.07382431 -0.07374258 -0.07366981 -0.07360576 -0.07355459 -0.07351442 -0.07348417
 -0.07346095 -0.07344072 -0.07342118 -0.0733985 -0.07337277 -0.0733427 -0.07330978 -0.07327484 -0.07323689 -0.07319602
 -0.07315028 -0.07309882 -0.07304391 -0.07298548 -0.07292862 -0.07287379 -0.07282119 -0.07277068 -0.07271793 -0.07266339
 -0.07260805 -0.07255369 -0.07250923 -0.07247444 -0.07245529 -0.07244565 -0.07243754 -0.07242365 -0.07238875 -0.07233556
 -0.07225915 -0.07217041 -0.07207561 -0.07197941 -0.07188661 -0.07179322 -0.07169829 -0.07160189 -0.07150245 -0.07141048
 -0.07132708 -0.07125992 -0.07120994 -0.07117148 -0.07114415 -0.07111897 -0.07109603 -0.071073 -0.07104902 -0.07102019
 -0.07098351 -0.07092712 -0.07085218 -0.07075288 -0.07063802 -0.07051639 -0.07039627 -0.07028898 -0.07019701 -0.07012617
 -0.07007293 -0.07003871 -0.07001358 -0.0699964 -0.06997246 -0.06993901 -0.06988434 -0.06980612 -0.06970342 -0.0695757
 -0.06943189 -0.0692726 -0.06911089 -0.06894736 -0.06879313 -0.0686477 -0.06851497 -0.06839383 -0.06828289 -0.06818209
 -0.06809107 -0.06800905 -0.06793608 -0.06786776 -0.06780037 -0.0677296 -0.06765055 -0.06756476 -0.06747132 -0.06737391
 -0.06727433 -0.06717058 -0.06706288 -0.06694678 -0.06682121 -0.06668875 -0.06654926 -0.06641314 -0.06628074 -0.06615777
 -0.06604235 -0.06592196 -0.06579325 -0.06563175 -0.06544106 -0.06521568 -0.06496826 -0.06472216 -0.06448352 -0.06427389
 -0.06408444 -0.0639163 -0.0637547 -0.06358894 -0.0634144 -0.06322369 -0.06302746 -0.06282671 -0.06263405 -0.06245384
 -0.06228353 -0.06212559 -0.06195335 -0.06176529 -0.06153307 -0.06125645 -0.06094706 -0.06060833 -0.06027647 -0.05995066
 -0.05964717 -0.05936078 -0.05908468 -0.05881511 -0.05854086 -0.05826211 -0.05797358 -0.05767917 -0.05737999 -0.05708173
 -0.0567901 -0.05650272 -0.05622414 -0.05593392 -0.05562801 -0.0552848 -0.05489571 -0.05447135 -0.05401018 -0.05354202
 -0.05306943 -0.05260205 -0.05213996 -0.05167636 -0.05121106 -0.05074066 -0.05026447 -0.04977936 -0.049281 -0.04875472
 -0.04819752 -0.04759289 -0.0469494 -0.04627026 -0.04556874 -0.04486087 -0.04414844 -0.04343779 -0.04272609 -0.04201201
 -0.04129927 -0.040589 -0.03988354 -0.03918774 -0.03847637 -0.03775106 -0.0369481 -0.03606211 -0.03505803 -0.03393714
 -0.03278209 -0.03159925 -0.03048619 -0.02943199 -0.02843552 -0.02748325 -0.02653198 -0.0255808 -0.02460746 -0.02361555
 -0.02260646 -0.0215674 -0.02049614 -0.01935131 -0.01810758 -0.01672596 -0.01516694 -0.01347294 -0.01163217 -0.009767408
 -0.007902249 -0.006120714 -0.004441197 -0.002869769 -0.001410112 -2.254313E-05 0.001296189 0.002628935 0.003984094 0.005483278
 0.007115255 0.008909887 0.0108106 0.01264809 0.01441003 0.01596952 0.01739139 0.01871694 0.01999599 0.02130079
 0.02263312 0.0240171 0.02543901 0.02689605 0.0283856 0.02991215 0.03144532 0.03298329 0.0344782 0.0359196
 0.03731448 0.03866201 0.03998806 0.04129224 0.04252746 0.04368807 0.04469616 0.04555814 0.04626226 0.0468237
 0.04728443 0.04765092 0.0479579 0.04820227 0.04838972 0.04852882 0.04862582 0.04870079 0.0487713 0.04884325
 0.04892978 0.04900693 0.04907325 0.04909261 0.04905721 0.04894271 0.04874366 0.04845591 0.04807718 0.04763843
 0.04714152 0.04663364 0.04611322 0.04558378 0.04503924 0.04444906 0.04381361 0.04311375 0.04236304 0.04157577
 0.04077633 0.04000723 0.0392817 0.03863277 0.03805137 0.03754044 0.03709215 0.03670017 0.03637272 0.03611191
 0.03592115 0.03580461 0.03574426 0.03573908 0.03576713 0.0358264 0.03590478 0.03600169 0.0361123 0.03623664
 0.03637335 0.03652199 0.03667995 0.03684591 0.03701406 0.03718418 0.03735251 0.03752078 0.03769044 0.03786164
 0.03803548 0.03821045 0.0383849 0.03856099 0.03873798 0.03892308 0.0391179 0.03933043 0.0395632 0.03981819
 0.04009748 0.04038826 0.04069017 0.04098213 0.04126335 0.04153194 0.04179067 0.04206882 0.04236711 0.04270915
 0.04308398 0.04346931 0.04385441 0.04420393 0.04451683 0.04477871 0.0449851 0.04512683 0.04519953 0.04519654
 0.04511898 0.04497141 0.04473279 0.0444049 0.04393313 0.0432977 0.04250778 0.04154711 0.04057053 0.03959228
 0.03867984 0.03783519 0.03697145 0.03608476 0.03510407 0.03403451 0.03286728 0.03160744 0.03027193 0.02885005
 0.02733064 0.02569307 0.02387925 0.02194069 0.01987311 0.01783818 0.01597344 0.01430844 0.01292638 0.01168528
 0.0105503 0.009433411 0.00829829 0.007161996 0.006020284 0.004913772 0.003847675 0.002812671 0.001808081 0.000792165
 -0.0002352025 -0.001291882 -0.002371007 -0.003445524 -0.004508624 -0.005520093 -0.006486203 -0.007398013 -0.008271714 -0.009128178
 -0.009979079 -0.01084307 -0.01173063 -0.01264922 -0.01362459 -0.01467247 -0.01580629 -0.01705706 -0.01831974 -0.01958767
 -0.02070487 -0.02163199 -0.02240656 -0.02302328 -0.0236154 -0.02418916 -0.02480405 -0.02545537 -0.02610805 -0.02675657
 -0.02734821 -0.02789351 -0.02840148 -0.02888105 -0.02936542 -0.02983537 -0.03028082 -0.03066924 -0.03095539 -0.0311389
 -0.03119845 -0.03116423 -0.03104618 -0.03086698 -0.03063837 -0.03036494 -0.03005265 -0.02968545 -0.02926577 -0.02874606
 -0.0281225 -0.0273515 -0.02643141 -0.0254247 -0.02434108 -0.02331837 -0.02235486 -0.02151321 -0.02078038 -0.02014327
 -0.01959696 -0.01912551 -0.01872526 -0.01839079 -0.01809967 -0.01783317 -0.01755133 -0.01721342 -0.01681229 -0.01631837
 -0.01579574 -0.01526063 -0.0147605 -0.01431634 -0.01391221 -0.0135496 -0.01320267 -0.0128683 -0.01254365 -0.01222855
 -0.01193767 -0.01167139 -0.01143968 -0.01124034 -0.01106765 -0.01091665 -0.01076943 -0.01061825 -0.01043798 -0.01022071
 -0.009943157 -0.009601076 -0.009181634 -0.008682159 -0.008096222 -0.007424777 -0.006663454 -0.005826597 -0.004916461 -0.003952624
 -0.002942915 -0.001883602 -0.0007784012 0.0004060054 0.001673208 0.003037682 0.004500086 0.005994672 0.007514955 0.008958813
 0.01032817 0.01158207 0.01272789 0.0137739 0.01471517 0.01554787 0.01625633 0.01681333 0.01720928 0.01742087
 0.01745181 0.01729649 0.01696397 0.01645713 0.01578432 0.01494723 0.01395902 0.01281756 0.01156283 0.01019502
 0.008789585 0.007353358 0.005944457 0.004566295 0.003210457 0.001874403 0.0005196971 -0.0008501488 -0.002237016 -0.003628645
 -0.004980987 -0.006289596 -0.007518033 -0.008678415 -0.009772739 -0.01081683 -0.01183006 -0.01282028 -0.01380155 -0.01477049
 -0.01573184 -0.01667019 -0.01758309 -0.01844974 -0.01926407 -0.02001598 -0.0207014 -0.0213286 -0.02189745 -0.02242324
 -0.02290683 -0.02335277 -0.02376021 -0.02411823 -0.02442636 -0.02467495 -0.02486731 -0.02500913 -0.02510588 -0.02517267
 -0.02521446 -0.02524544 -0.02526967 -0.02529666 -0.02532965 -0.02537364 -0.02543165 -0.02550596 -0.02560033 -0.02571643
 -0.02585737 -0.02602484 -0.02621708 -0.02643522 -0.02666849 -0.02691654 -0.02716263 -0.0274058 -0.02763489 -0.02785017
 -0.02805313 -0.02824426 -0.0284281 -0.02860271 -0.02876394 -0.02890873 -0.02902658 -0.02911859 -0.02917992 -0.02921797
 -0.02923849 -0.02924996 -0.02926172 -0.02927605 -0.02929789 -0.02932251 -0.02934935 -0.0293739 -0.0293939 -0.02941238
 -0.02942871 -0.02945199 -0.02948303 -0.02952869 -0.02958945 -0.02966628 -0.02975894 -0.02986441 -0.02998225 -0.03010835
 -0.03024231 -0.03038033 -0.0305225 -0.03066722 -0.03081448 -0.03096447 -0.03111478 -0.03126395 -0.0314063 -0.03153716
 -0.03165165 -0.03174495 -0.03181798 -0.03186869 -0.03190459 -0.0319262 -0.03194472 -0.0319618 -0.03198702 -0.03202182
 -0.0320682 -0.03212642 -0.03218975 -0.03225762 -0.03232033 -0.0323778 -0.03242451 -0.03246114 -0.0324874 -0.03250366
 -0.03251109 -0.03250884 -0.03249617 -0.03247197 -0.03243393 -0.03238351 -0.03232037 -0.0322485 -0.0321704 -0.03208734
 -0.03200122 -0.03190842 -0.03180825 -0.03169839 -0.03157737 -0.03145174 -0.03132157 -0.03119812 -0.03108207 -0.03097956
 -0.03089048 -0.03081415 -0.03075002 -0.03069463 -0.03064724 -0.03060352 -0.03056262 -0.0305198 -0.0304758 -0.03042854
 -0.03038226 -0.03034038 -0.03030853 -0.03029299 -0.03029528 -0.03031857 -0.03036055 -0.03042034 -0.03049895 -0.03059603
 -0.03071523 -0.03085833 -0.03101891 -0.03119756 -0.03137464 -0.03154899 -0.0317058 -0.03184549 -0.03197337 -0.03209122
 -0.03221403 -0.03234136 -0.03247971 -0.03262676 -0.03277957 -0.0329371 -0.03309615 -0.03325645 -0.0334173 -0.0335759
 -0.03373056 -0.03387634 -0.03400971 -0.03412858 -0.0342301 -0.03431904 -0.03439508 -0.03446775 -0.03453864 -0.03461416
 -0.03469555 -0.03478163 -0.03487247 -0.03496198 -0.03504973 -0.03512854 -0.0351978 -0.0352499 -0.03528463 -0.03529663
 -0.03528716 -0.03525649 -0.03520649 -0.03514102 -0.03505999 -0.03496592 -0.03485505 -0.03472627 -0.03457252 -0.03439033
 -0.03417169 -0.03391217 -0.03360929 -0.0332601 -0.03287209 -0.03244529 -0.03199176 -0.03151288 -0.03101566 -0.03050067
 -0.02996809 -0.02941797 -0.02885007 -0.02826525 -0.02766895 -0.02706286 -0.02645695 -0.02585144 -0.02525293 -0.02465845
 -0.02406574 -0.02347227 -0.02287234 -0.0222697 -0.02166425 -0.02106399 -0.02047358 -0.01989817 -0.01934097 -0.01880405
 -0.01828835 -0.01779587 -0.01732763 -0.016881 -0.01645633 -0.01604464 -0.01564541 -0.01525179 -0.01486362 -0.01447811
 -0.01409463 -0.01370764 -0.0133157 -0.01290966 -0.01248941 -0.01205009 -0.01159222 -0.01111493 -0.01061764 -0.0100986
 -0.00955945 -0.008999645 -0.008425168 -0.00783913 -0.007246566 -0.006650581 -0.006052195 -0.005451729 -0.004851951 -0.004252489
 -0.003661843 -0.003080668 -0.002517967 -0.001974417 -0.001453649 -0.0009555329 -0.0004771251 -1.803811E-05 0.0004261986 0.0008550186
 0.001268407 0.001665749 0.002044267 0.002406496 0.00275491 0.003094023 0.003430722 0.003767306 0.004107889 0.004453967
 0.004807367 0.005169355 0.005542246 0.005920554 0.006304301 0.006682989 0.007053167 0.007418704 0.007778192 0.008153264
 0.00854529 0.008969435 0.00942539 0.009905463 0.01040735 0.01091135 0.01141512 0.01189994 0.01236216 0.01278372
 0.01315962 0.01347166 0.01371935 0.01389168 0.01399944 0.01404507 0.01404822 0.01402148 0.01397738 0.01392657
 0.01386366 0.01378971 0.01369561 0.013578 0.01344392 0.01329305 0.01314041 0.0129872 0.01283491 0.01268316
 0.01252252 0.01235334 0.01217353 0.01198526 0.01179641 0.01160885 0.01143101 0.01126508 0.01111835 0.01099375
 0.01089852 0.01083265 0.01079977 0.01079511 0.01081772 0.01086051 0.01092078 0.010992 0.01107175 0.01115657
 0.01124531 0.01133762 0.0114336 0.01153026 0.01162747 0.01171962 0.01180692 0.01189442 0.01198415 0.01209495
 0.01222703 0.01239314 0.01258802 0.01280429 0.01303594 0.01326731 0.01349793 0.01372011 0.01393728 0.01414993
 0.01436115 0.01457298 0.01478739 0.01500544 0.015229 0.0154584 0.01569687 0.01594498 0.01620569 0.01647983
 0.01676491 0.01706107 0.01735817 0.01765551 0.01793943 0.01820866 0.01844787 0.01865494 0.0188124 0.01891914
 0.0189622 0.01894386 0.01886179 0.01872031 0.01852371 0.01827651 0.01798326 0.01765005 0.01728196 0.01688268
 0.01645706 0.01599787 0.01550555 0.01496587 0.01437589 0.01372808 0.01302073 0.01225493 0.01143066 0.01054856
 0.009608629 0.008610003 0.007553276 0.00644209 0.005278458 0.004072093 0.002826658 0.001556 0.0002657653 -0.001028215
 -0.002318744 -0.00359102 -0.004837296 -0.006045843 -0.007211018 -0.008324648 -0.00938915 -0.01040196 -0.01137337 -0.01230654
 -0.01320579 -0.01407425 -0.01490152 -0.01568706 -0.01641893 -0.01709599 -0.01771841 -0.01828643 -0.01880699 -0.01928049
 -0.01971275 -0.02010447 -0.02046197 -0.02078553 -0.02108011 -0.02134349 -0.02157299 -0.02176871 -0.02192652 -0.02205656
 -0.02216501 -0.02226534 -0.02237017 -0.02247939 -0.02259935 -0.02271323 -0.02281784 -0.02289761 -0.02294747 -0.02296797
 -0.02295769 -0.02292806 -0.02287978 -0.02282187 -0.02275475 -0.02268377 -0.02261 -0.02254456 -0.02248902 -0.02245807
 -0.02244925 -0.02246489 -0.02249754 -0.02253336 -0.02256775 -0.0225871 -0.02259441 -0.02258792 -0.02257062 -0.02254578
 -0.02250893 -0.02245953 -0.02239131 -0.02230151 -0.02219014 -0.0220562 -0.02190416 -0.02173433 -0.02155143 -0.02135581
 -0.02115103 -0.02093716 -0.02071381 -0.02048026 -0.02022989 -0.01996248 -0.01967185 -0.01936181 -0.01903834 -0.01870966
 -0.01839498 -0.01809967 -0.01784209 -0.01761519 -0.01742244 -0.01724483 -0.01707208 -0.01688675 -0.01667674 -0.0164397
 -0.0161701 -0.01588104 -0.01557293 -0.01526464 -0.0149583 -0.01466994 -0.01440102 -0.01416059 -0.01394886 -0.01376538
 -0.01360884 -0.01346814 -0.0133416 -0.01321459 -0.01308867 -0.0129596 -0.01283248 -0.01271697 -0.01261282 -0.01252737
 -0.01244826 -0.01236706 -0.01227139 -0.01214679 -0.01199976 -0.011826 -0.01164802 -0.01147162 -0.01131419 -0.01118156
 -0.01107521 -0.01099697 -0.01093683 -0.01089442 -0.01085574 -0.01082018 -0.01077878 -0.01073214 -0.01068232 -0.01062993
 -0.01057969 -0.01052999 -0.01047759 -0.0104228 -0.01036208 -0.01030322 -0.01025518 -0.01022547 -0.01022845 -0.01025584
 -0.01031073 -0.01036964 -0.01042278 -0.01045289 -0.01044994 -0.01041787 -0.01035433 -0.01027453 -0.01018019 -0.01008181
 -0.009980195 -0.009884449 -0.0097952 -0.009727153 -0.009680138 -0.009660843 -0.009664609 -0.009673307 -0.00968096 -0.00965823
 -0.009606428 -0.009512544 -0.009384441 -0.009228197 -0.009049264 -0.008855328 -0.008649027 -0.008433039 -0.008213178 -0.007992427
 -0.007775873 -0.007567243 -0.007361848 -0.00716055 -0.006951253 -0.006732469 -0.006495549 -0.00623946 -0.005963748 -0.005668475
 -0.005357646 -0.005032121 -0.004700274 -0.004364919 -0.004044008 -0.003740273 -0.003474792 -0.003240803 -0.00303885 -0.002850291
 -0.002647169 -0.002420052 -0.002141877 -0.001833678 -0.00149699 -0.001166883 -0.0008632648 -0.0005966094 -0.0003787802 -0.0001904884
 -3.052613E-05 0.0001226819 0.0002725337 0.0004297833 0.0005956333 0.000775466 0.0009694778 0.001177411 0.001398367 0.001623837
 0.001852316 0.002071941 0.0022818 0.00247273 0.002644984 0.002794455 0.002922416 0.003029392 0.003115299 0.003180522
 0.003223972 0.003242659 0.003244146 0.003228288 0.003213003 0.003204404 0.003212955 0.003244113 0.003289419 0.003349007
 0.003409909 0.00347093 0.003526438 0.003576111 0.003615322 0.003644011 0.00365851 0.003660896 0.00365909 0.003656569
 0.003669061 0.003697146 0.003750225 0.003825931 0.003924863 0.00404444 0.004182297 0.004336454 0.004505403 0.004686013
 0.004877982 0.005073079 0.005269603 0.005456672 0.005630076 0.005792354 0.005941649 0.006096832 0.006259533 0.006439744
 0.006637761 0.006844291 0.00705915 0.007277051 0.007499036 0.007730137 0.007966829 0.008201706 0.008428144 0.008625955
 0.008797114 0.008934194 0.009045639 0.009139642 0.009215744 0.009277887 0.009318298 0.009332675 0.009321285 0.009281284
 0.009223523 0.009148644 0.009072241 0.008995894 0.008936653 0.008896356 0.008882063 0.008893992 0.008922473 0.008966975
 0.009018066 0.00907681 0.009145139 0.009222126 0.009306462 0.009395052 0.009479714 0.009560309 0.009633227 0.009698835
 0.00975557 0.009805952 0.009845876 0.009896472 0.009963196 0.0100775 0.01026183 0.01048479 0.01075274 0.0109775
 0.01114173 0.01123401 0.01124943 0.01123184 0.01118324 0.01113176 0.01107767 0.01103306 0.01099772 0.01097834
 0.01097233 0.01097527 0.01098354 0.01098569 0.01098317 0.01097269 0.0109581 0.01094265 0.01092822 0.01091671
 0.01091075 0.01091376 0.01092076 0.01093376 0.01093399 0.01091607 0.01087504 0.01080618 0.01073751 0.01067124
 0.01062709 0.0106058 0.01058303 0.01055655 0.01049186 0.01039068 0.01024507 0.01005742 0.009830327 0.009567161
 0.009269474 0.008957955 0.008659626 0.008406065 0.008248996 0.008183125 0.00823406 0.008344443 0.008496567 0.008629275
 0.008713214 0.008732313 0.00866949 0.008570475 0.008435037 0.008340859 0.008295975 0.008336455 0.008464106 0.008649421
 0.008890209 0.009151985 0.009435421 0.009728982 0.01003042 0.01032396 0.01061159 0.01088452 0.01115983 0.01146152
 0.01179932 0.01220178 0.01264429 0.01312226 0.01359828 0.01404699 0.01446442 0.01483592 0.0152011 0.01556344
 0.01597287 0.01643963 0.01697829 0.01759381 0.01824807 0.01893914 0.01961984 0.02029035 0.0209421 0.02157482
 0.02218782 0.02276923 0.02327736 0.02370275 0.02399602 0.02417267 0.02423127 0.02419978 0.0241092 0.02397626
 0.02382405 0.02365764 0.02348873 0.02330501 0.02310917 0.02286871 0.02257262 0.02221923 0.02179843 0.02138276
 0.02097614 0.02066467 0.020453 0.0203477 0.02034337 0.02037294 0.0204319 0.02045767 0.02045691 0.02041795
 0.02035303 0.02028652 0.02022195 0.02017979 0.02014802 0.02012253 0.02008807 0.02003173 0.0199437 0.01981843
 0.01963981 0.01940163 0.01908966 0.01869287 0.01824063 0.01773051 0.0172319 0.01675159 0.01633206 0.01597591
 0.01566387 0.0153929 0.01511865 0.01483935 0.01452089 0.01416656 0.01376397 0.01332993 0.01289351 0.01247835
 0.01214222 0.01188 0.01171746 0.01161486 0.01154869 0.01149229 0.01141858 0.01134055 0.0112554 0.01118481
 0.01113698 0.01110714 0.01109856 0.01108158 0.01105365 0.01099338 0.01089946</values></Ydata></AB><ScSm><Ydata ylabel="Single channel"><values byteorder="INTEL" format="FLOAT32" numvalues="1814"> 0.07367659 0.07369973 0.07378696 0.0739518 0.07416624 0.07437685 0.07453571 0.07462713 0.07466149 0.07464778
 0.07459864 0.07456502 0.07462382 0.07480483 0.07504579 0.07523353 0.07529266 0.07525267 0.07523315 0.07532699
 0.07547289 0.07547265 0.07517673 0.07465477 0.07414983 0.07385407 0.07379031 0.07395665 0.07444403 0.07519875
 0.07576128 0.07559819 0.07477292 0.07397228 0.0737412 0.07396016 0.07416934 0.0740957 0.0737361 0.07326034
 0.07306086 0.07364035 0.07511714 0.07682806 0.07757013 0.07635394 0.07310444 0.06889428 0.06555895 0.06471403
 0.06661084 0.06979977 0.07222012 0.07284717 0.07218516 0.07123107 0.07040969 0.06969366 0.06927353 0.06958802
 0.07070731 0.07192775 0.07212488 0.0706983 0.0682901 0.06635365 0.06583837 0.06657724 0.06804129 0.06991845
 0.07133726 0.07041389 0.06609964 0.06053456 0.05809849 0.06124587 0.06788816 0.07345462 0.07496627 0.07267249
 0.06869642 0.06527963 0.06397341 0.06521077 0.06818726 0.07153968 0.07419504 0.07543069 0.07468352 0.07203189
 0.06867519 0.06634834 0.066255 0.06860593 0.07257479 0.07635432 0.07797535 0.07677291 0.07383335 0.07083548
 0.06893808 0.06879275 0.07070914 0.07431534 0.07854482 0.08227268 0.08478212 0.08580647 0.08556358 0.08462626
 0.08349145 0.08250505 0.08217857 0.0828715 0.08395598 0.08405732 0.08256091 0.08043763 0.07924089 0.07949783
 0.08028963 0.08036588 0.07940646 0.07779795 0.07538503 0.0714815 0.06642651 0.06196855 0.05951423 0.0590727
 0.0603145 0.06311138 0.06628671 0.06753163 0.06592777 0.06356396 0.06344306 0.06627806 0.07013546 0.07282269
 0.07391865 0.07461891 0.0761843 0.07864174 0.0806154 0.080357 0.07748018 0.07393694 0.07263681 0.07459301
 0.07795644 0.08029982 0.08117767 0.08184895 0.0830771 0.08395072 0.08282703 0.07927229 0.0751316 0.07341011
 0.07565928 0.08041795 0.08426241 0.08433954 0.08028945 0.07434498 0.06959236 0.06783258 0.06907397 0.07268547
 0.07809778 0.08421575 0.08914232 0.09123465 0.09030507 0.08752111 0.08407824 0.08009396 0.07524859 0.07063089
 0.06895481 0.07197885 0.0782449 0.08429769 0.08777289 0.08857203 0.08749828 0.08477573 0.08028045 0.07497896
 0.0714044 0.07168729 0.07499537 0.0780087 0.07840584 0.07697958 0.07591468 0.07603948 0.07652509 0.07659768
 0.07663299 0.07753011 0.07945378 0.08149857 0.08258043 0.08242778 0.08162925 0.08093489 0.08057189 0.08008446
 0.07897872 0.0777126 0.07764031 0.07953261 0.08251955 0.08498399 0.08617814 0.08649431 0.08640023 0.08562431
 0.08356521 0.0804456 0.07778077 0.07725239 0.07907733 0.08187917 0.084124 0.08521856 0.08534332 0.08489266
 0.0842137 0.08349781 0.08283957 0.08248512 0.08276874 0.08364186 0.0845671 0.08505961 0.08508371 0.08481404
 0.08429222 0.08349046 0.08255671 0.08183032 0.08160175 0.0818914 0.08247913 0.08310392 0.08356297 0.08368488
 0.08339266 0.0828228 0.08223563 0.08177881 0.08145 0.08126907 0.08132274 0.08160684 0.08195336 0.08217442
 0.08221206 0.08211467 0.08192973 0.08166865 0.08134946 0.08103587 0.08082856 0.08080044 0.08091711 0.0810526
 0.08112673 0.0811842 0.08127972 0.08134253 0.08124823 0.08099485 0.08072007 0.08055322 0.08051211 0.08053383
 0.08054154 0.08046004 0.08021645 0.07980148 0.07934839 0.079084 0.079146 0.07947855 0.07992244 0.08034045
 0.08063892 0.08076772 0.08075667 0.08069029 0.08060844 0.0804749 0.0802598 0.08001944 0.07988213 0.07995427
 0.08022363 0.08055885 0.08081885 0.08094728 0.08096663 0.08093932 0.08094445 0.08102069 0.08110896 0.08110921
 0.08100946 0.08090826 0.08089967 0.08097257 0.08103345 0.08101214 0.08093981 0.08091627 0.08099937 0.08114733
 0.08127937 0.08136494 0.0814351 0.08152086 0.08159633 0.08159193 0.08147676 0.08131427 0.08120376 0.08117595
 0.08118872 0.08121613 0.08128523 0.08141319 0.08155344 0.08163289 0.08162923 0.08159101 0.08157587 0.08158113
 0.08155203 0.08145441 0.08131682 0.08119796 0.0811325 0.08111357 0.08111033 0.08109204 0.08104247 0.08096121
 0.08085654 0.08073802 0.08061244 0.0804894 0.08039499 0.08036766 0.0804169 0.08048594 0.08048074 0.08035302
 0.08014774 0.07995848 0.07983748 0.07975728 0.0796583 0.07951838 0.07936533 0.07923462 0.07913639 0.0790614
 0.07899652 0.07893081 0.0788677 0.07883983 0.07888912 0.07901166 0.07913601 0.07918125 0.07913484 0.07905613
 0.07901095 0.07902098 0.07906926 0.07913141 0.07920103 0.07929341 0.07941546 0.07953322 0.07959671 0.07960431
 0.07961341 0.07968022 0.07981762 0.08000888 0.08022051 0.08039819 0.08049783 0.08053819 0.08059007 0.08069935
 0.08084706 0.08099341 0.08113077 0.08127605 0.08143524 0.0816013 0.08177983 0.08199498 0.08226464 0.08257583
 0.08288568 0.08314859 0.08335358 0.08354212 0.08378097 0.08410609 0.08449093 0.08486997 0.08519405 0.08546653
 0.0857279 0.08600692 0.0862968 0.08658643 0.08689621 0.08725738 0.08766428 0.08807522 0.08845969 0.08882255
 0.08918263 0.08954839 0.08991915 0.09029804 0.09069733 0.09112635 0.09156914 0.09198126 0.09232479 0.09260798
 0.09288174 0.09319928 0.09358013 0.09399509 0.09437659 0.09466749 0.09488289 0.09510618 0.09540083 0.09574167
 0.09606032 0.09634247 0.09664321 0.09700626 0.09740366 0.09777055 0.09807935 0.09836058 0.09865693 0.09897107
 0.09926224 0.09949121 0.09966362 0.09982323 0.1000072 0.1002248 0.1004837 0.1008072 0.1012012 0.1016197
 0.1019934 0.1022874 0.102513 0.1026987 0.1028717 0.1030539 0.1032501 0.1034465 0.1036342 0.1038174
 0.1039904 0.1041371 0.104269 0.104432 0.104656 0.1049259 0.1052225 0.1055573 0.1059369 0.1063232
 0.1066729 0.1070043 0.1073792 0.1078077 0.108213 0.1085119 0.1087013 0.1088371 0.1089624 0.1090981
 0.109282 0.1095604 0.1099337 0.110347 0.1107458 0.1111158 0.1114682 0.1118075 0.1121215 0.1123891
 0.1125942 0.1127392 0.1128529 0.1129816 0.113168 0.1134257 0.1137256 0.1140129 0.1142415 0.1143874
 0.114435 0.1143788 0.1142538 0.1141364 0.1140817 0.1140606 0.1139768 0.113747 0.1133518 0.1128158
 0.1121631 0.1114092 0.1105897 0.1097813 0.1090816 0.1085661 0.1082719 0.1082194 0.1084305 0.1089031
 0.109571 0.1103087 0.1109855 0.111503 0.1117853 0.1117664 0.1114236 0.1108117 0.1100421 0.1092257
 0.1084384 0.1077166 0.1070625 0.1064738 0.1059984 0.1057576 0.1058979 0.1065182 0.1076314 0.1091621
 0.1109537 0.1127997 0.1145126 0.1159954 0.1172559 0.118355 0.1193483 0.1202728 0.1211585 0.1220203
 0.1228406 0.1235881 0.1242553 0.1248607 0.1254157 0.1259107 0.1263299 0.1266644 0.1269151 0.1271009
 0.1272533 0.1273907 0.1275087 0.1276039 0.12769 0.1277739 0.1278269 0.127794 0.1276317 0.1273392
 0.1269736 0.1266556 0.126562 0.1268822 0.1277352 0.1290927 0.1307808 0.1325716 0.1342809 0.1357954
 0.1370534 0.1380416 0.1388046 0.1394232 0.1399707 0.1404888 0.1409921 0.1414812 0.1419521 0.1424057
 0.1428503 0.1432965 0.1437534 0.1442215 0.1446856 0.1451198 0.145512 0.1458829 0.1462739 0.1467128
 0.1471909 0.1476738 0.1481362 0.1485828 0.1490272 0.149458 0.1498488 0.1501976 0.1505372 0.1509035
 0.1513078 0.1517398 0.1521762 0.1525862 0.1529485 0.1532702 0.153581 0.1539053 0.1542471 0.1545976
 0.1549484 0.1552944 0.1556355 0.1559796 0.1563402 0.1567193 0.1570947 0.1574318 0.1577173 0.1579748
 0.1582434 0.1585412 0.1588548 0.1591628 0.1594639 0.1597798 0.160131 0.1605109 0.1608853 0.1612197
 0.1615075 0.1617722 0.1620438 0.1623373 0.1626498 0.1629715 0.163293 0.1636084 0.1639182 0.1642299
 0.1645506 0.1648784 0.1652029 0.1655152 0.1658157 0.1661145 0.1664221 0.166739 0.1670592 0.1673835
 0.1677233 0.1680823 0.168441 0.1687691 0.1690532 0.1693066 0.1695542 0.1698136 0.1700892 0.1703758
 0.1706664 0.1709586 0.1712544 0.1715537 0.1718514 0.1721449 0.172439 0.17274 0.1730468 0.1733525
 0.1736532 0.1739522 0.1742539 0.1745558 0.17485 0.1751304 0.1753998 0.17567 0.1759537 0.1762518
 0.1765496 0.1768312 0.1770964 0.1773585 0.177628 0.1779045 0.178185 0.1784687 0.1787558 0.1790444
 0.1793312 0.1796129 0.1798888 0.180163 0.1804423 0.180729 0.1810176 0.1812989 0.1815692 0.1818345
 0.1821052 0.182386 0.1826729 0.1829607 0.183247 0.1835305 0.183809 0.184083 0.1843569 0.1846364
 0.1849231 0.1852103 0.1854876 0.1857514 0.1860097 0.1862719 0.1865401 0.1868103 0.1870788 0.1873462
 0.1876168 0.1878937 0.1881728 0.1884486 0.1887209 0.1889931 0.1892655 0.1895385 0.1898167 0.190102
 0.1903902 0.1906762 0.1909581 0.1912368 0.191515 0.1917939 0.1920675 0.1923265 0.1925698 0.1928037
 0.1930349 0.1932718 0.1935241 0.193792 0.1940643 0.194329 0.1945834 0.1948334 0.1950901 0.1953601
 0.1956355 0.1959024 0.1961576 0.1964104 0.1966702 0.1969413 0.1972213 0.1974995 0.1977668 0.1980273
 0.1982922 0.1985658 0.1988466 0.1991305 0.1994117 0.1996875 0.1999626 0.2002389 0.2005101 0.2007733
 0.2010347 0.2012988 0.2015655 0.2018344 0.2021024 0.2023655 0.2026278 0.2028951 0.2031613 0.2034194
 0.2036757 0.2039378 0.2042015 0.2044652 0.2047346 0.2050086 0.2052796 0.2055451 0.2058048 0.2060573
 0.2063114 0.2065781 0.2068503 0.2071138 0.2073702 0.2076287 0.2078911 0.2081571 0.2084223 0.2086626
 0.2088241 0.2087768 0.2081928 0.2064203 0.2024752 0.1952412 0.1839128 0.1685019 0.1500133 0.1300921
 0.1104216 0.09228387 0.07643485 0.06320564 0.05266862 0.04474141 0.03925173 0.0360485 0.03511877 0.03670926
 0.04146142 0.05003088 0.06164148 0.07280678 0.07869092 0.07693056 0.06989577 0.06252951 0.05824296 0.05727279
 0.05815855 0.05965628 0.06137427 0.0635406 0.06654263 0.0704861 0.07517981 0.08061579 0.08720118 0.0952417
 0.1043224 0.1134799 0.1220312 0.1301088 0.1383396 0.1470846 0.1560546 0.1645918 0.172195 0.178773
 0.1845385 0.1897722 0.1946653 0.1993055 0.2037339 0.2079411 0.2117749 0.2149092 0.2170044 0.2179663
 0.2180607 0.2177637 0.217485 0.2174137 0.2175683 0.2179172 0.2184343 0.2190995 0.219896 0.2208017
 0.2217794 0.2227864 0.2237931 0.224778 0.2257172 0.2265912 0.2273924 0.2281229 0.2287922 0.229416
 0.2300043 0.2305543 0.2310623 0.231534 0.2319796 0.2324087 0.2328271 0.233231 0.2336074 0.2339484
 0.2342597 0.2345521 0.2348336 0.2351082 0.2353763 0.2356364 0.2358913 0.236148 0.2364095 0.236675
 0.2369449 0.2372207 0.2374998 0.2377759 0.2380415 0.2382888 0.2385178 0.2387428 0.2389812 0.2392344
 0.2394914 0.2397453 0.2399992 0.2402554 0.2405101 0.2407567 0.2409936 0.2412275 0.241467 0.2417126
 0.2419623 0.2422221 0.2424988 0.2427839 0.2430617 0.2433299 0.2435987 0.2438735 0.24415 0.2444175
 0.2446611 0.2448696 0.2450488 0.2452224 0.2454192 0.2456579 0.2459353 0.2462259 0.2465043 0.2467643
 0.2470106 0.2472425 0.2474564 0.2476545 0.2478483 0.2480636 0.2483289 0.2486433 0.2489718 0.2492858
 0.2495848 0.2498746 0.2501551 0.250434 0.2507159 0.250976 0.2511823 0.2513482 0.2515444 0.2518438
 0.2522507 0.2526862 0.2530588 0.2533501 0.2536136 0.2539051 0.254241 0.2545846 0.2548353 0.2548974
 0.2548279 0.2548561 0.2551782 0.2557647 0.2564177 0.2569721 0.2573956 0.2577413 0.2580581 0.2583422
 0.2585447 0.2586272 0.2586371 0.2587271 0.2590516 0.2596083 0.2602256 0.2607386 0.261117 0.2614053
 0.2616381 0.26184 0.2619818 0.2619181 0.2615464 0.2610888 0.2610304 0.2616476 0.2626947 0.2636641
 0.2642851 0.2646616 0.2649866 0.2653067 0.2655727 0.2656845 0.2653844 0.2644085 0.2630065 0.262078
 0.262428 0.2639568 0.2658196 0.267268 0.2681177 0.2685583 0.2688279 0.2690567 0.2691711 0.2688968
 0.2680627 0.2670139 0.2665354 0.267129 0.2684518 0.2696876 0.2703834 0.2706866 0.2709113 0.2711827
 0.2713562 0.2709605 0.2694586 0.2670466 0.2650682 0.2650687 0.2672771 0.2703274 0.2726169 0.2736855
 0.274077 0.2741553 0.2735743 0.2719078 0.2692822 0.2663069 0.2639152 0.2632775 0.2650214 0.2682213
 0.2709158 0.27205 0.2723663 0.2731392 0.2746396 0.2761294 0.2768405 0.276579 0.2755883 0.2741157
 0.2722957 0.2705578 0.2698716 0.2710537 0.273771 0.276661 0.2785958 0.2795389 0.2799436 0.2794225
 0.2764932 0.2703726 0.2631924 0.2593822 0.2617447 0.2685205 0.2752774 0.2792588 0.2808697 0.2815883
 0.2820116 0.2816886 0.2793502 0.2735862 0.26504 0.2578095 0.2566754 0.2623656 0.2707334 0.2766417
 0.2774971 0.2735314 0.2668294 0.260671 0.2582021 0.2605457 0.266326 0.2730277 0.278497 0.2815196
 0.281816 0.2799333 0.2771856 0.2753228 0.2752694 0.2757433 0.2742251 0.270154 0.2658893 0.263235
 0.26061 0.2559298 0.2511868 0.2511083 0.2570342 0.2647099 0.2690936 0.2694604 0.2684366 0.2671718
 0.2633086 0.2543462 0.2423803 0.2341261 0.2350497 0.2437213 0.2531161 0.2574934 0.2569461 0.2553089
 0.2550287 0.2546786 0.2509933 0.2431637 0.2349286 0.2313958 0.2335753 0.2374672 0.2387538 0.236209
 0.2300912 0.2207513 0.2111683 0.2077923 0.2150329 0.2298035 0.2440012 0.2512058 0.2489454 0.2371049
 0.2187917 0.2022516 0.1968482 0.2046531 0.2179422 0.2263469 0.2250564 0.2155507 0.2011676 0.1849024
 0.170837 0.1644012 0.1690485 0.1828126 0.198549 0.207477 0.2039459 0.1898076 0.1748139 0.1695709
 0.1758815 0.1855592 0.1896626 0.1866284 0.180861 0.1769931 0.1772204 0.1811263 0.1861391 0.1898791
 0.1920471 0.1917467 0.1848832 0.1691194 0.1505383 0.1396926 0.1406173 0.1486522 0.1589315 0.1707706
 0.182295 0.1874018 0.182666 0.1739297 0.171414 0.1788765 0.1903552 0.1974532 0.1976515 0.1948192
 0.1931324 0.1925407 0.1909174 0.18902 0.1906295 0.1973878 0.2059741 0.2118233 0.2138761 0.214179
 0.2144105 0.2146157 0.2143711 0.2135323 0.2121563 0.2106162 0.2094897 0.2088948 0.2083761 0.2075917
 0.2062834 0.2032335 0.1965251 0.1862481 0.1762471 0.1711074 0.1713014 0.1734492 0.1753483 0.1772708
 0.1772552 0.169797 0.153153 0.1353029 0.1281469 0.1360199 0.1524729 0.1675899 0.1755476 0.1750813
 0.1665113 0.1520107 0.1381522 0.1339082 0.1433167 0.1615635 0.1801152 0.1940863 0.2028621 0.2060434
 0.2025385 0.1935338 0.1837625 0.1788535 0.1818767 0.1919178 0.2043934 0.2122664 0.2094441 0.1968047
 0.1850226 0.1867814 0.2034366 0.2227464 0.2326129 0.2333853 0.2331072 0.2350124 0.2358399 0.2345334
 0.2358081 0.2435995 0.2551909 0.2638594 0.2647538 0.2567875 0.2420389 0.2262978 0.2175885 0.2197433
 0.2280729 0.2345014 0.2354243 0.2312483 0.221582 0.2072409 0.1953778 0.1951947 0.2072652 0.2222632
 0.2315746 0.2351515 0.2376616 0.2404607 0.2399917 0.2332363 0.2227865 0.2152523 0.2146872 0.2189835
 0.2233302 0.2252651 0.224718 0.2211286 0.2137848 0.2049693 0.1999978 0.2025959 0.211058 0.2198894
 0.2247721 0.2252793 0.2234985 0.2213988 0.2195637 0.2174016 0.2144158 0.211837 0.2124009 0.2173783
 0.2244547 0.2300609 0.2334499 0.2369412 0.2422597 0.2481143 0.2517193 0.251799 0.249788 0.2485835
 0.2502179 0.2542264 0.2579735 0.2588977 0.256959 0.2549138 0.2557805 0.2599661 0.26522 0.2692097
 0.2714326 0.2727181 0.2738428 0.2748739 0.275138 0.2737361 0.2708217 0.2683548 0.2687079 0.2722954
 0.2771619 0.2809849 0.2829378 0.2835647 0.2835191 0.2828882 0.2815563 0.2798054 0.2783318 0.2777051
 0.277964 0.2787583 0.2797206 0.28063 0.2813831 0.2819685 0.2824357 0.282823 0.2831349 0.2833892
 0.2836093 0.2837614 0.2837867 0.2837335 0.2837752 0.2840294 0.2844115 0.2847213 0.2848176 0.2846335
 0.2840859 0.2830995 0.2817243 0.2801153 0.2783607 0.2764333 0.2744198 0.2727636 0.2721343 0.2729377
 0.274942 0.2774191 0.2796437 0.2812549 0.2822445 0.2827582 0.282962 0.2830067 0.2830031 0.2829919
 0.2829562 0.2828732 0.2827422 0.2825665 0.2823429 0.2820899 0.2818617 0.281707 0.2816199 0.2815431
 0.2814108 0.2811816 0.2808504 0.2804435 0.2799931 0.2794987 0.2789177 0.2782021 0.2773478 0.2764079
 0.2754594 0.2745559 0.2736984 0.2728395 0.271919 0.2708971 0.2697416 0.2683993 0.2668372 0.2651353
 0.2634774 0.2620022 0.2606888 0.2594118 0.2580647 0.2566029 0.2550167 0.2533185 0.2515441 0.2497351
 0.2479163 0.2460903 0.244248 0.2423784 0.240472 0.2385204 0.23652 0.2344786 0.2324135 0.2303351
 0.2282184 0.2259824 0.2234946 0.2206096 0.2172107 0.2132297 0.2086621 0.2035936 0.1982042 0.1927212
 0.1873518 0.1822514 0.1775331 0.1732902 0.1696064 0.1665492 0.1641629 0.1624745 0.1614991 0.1612331
 0.161653 0.1627206 0.1643718 0.1664922 0.168919 0.1714732 0.1739899 0.1763401 0.1784665 0.1804112
 0.182282 0.1841591 0.1860266 0.1877999 0.189417 0.1908737 0.1921752 0.1932997 0.1942387 0.1950341
 0.1957407 0.1963755 0.1969293 0.197404 0.1978114 0.1981523 0.1984187 0.1986125 0.198756 0.1988822
 0.199015 0.1991642 0.1993411 0.1995657 0.199851 0.2001894 0.2005596 0.2009412 0.2013254 0.2017195
 0.2021381 0.2025918 0.2030939 0.203676 0.2043768 0.2052133 0.2061735 0.2072273 0.2083339 0.2094425
 0.210498 0.2114507 0.2122698 0.2129529 0.213515 0.2139716 0.2143413 0.2146584 0.2149635 0.2152861
 0.2156433 0.2160444 0.2164912 0.2169811 0.21751 0.21806 0.2185983 0.2190968 0.2195426 0.2199243
 0.2202314 0.2204689 0.2206512 0.220778 0.2208324 0.2207986 0.2206742 0.2204707 0.2202053 0.2198843
 0.219498 0.2190342 0.218486 0.2178381 0.2170642 0.2161456 0.2150848 0.2138996 0.212611 0.2112348
 0.2097789 0.2082504 0.2066577 0.2050012 0.2032732 0.2014661 0.1995631 0.1975308 0.1953578 0.1931046
 0.1908834 0.1887805 0.1868185 0.1849783 0.1832298 0.1815442 0.1799059 0.1783199 0.1768055 0.1753798
 0.1740441 0.1727791 0.1715585 0.1703695 0.1692243 0.1681585 0.1672158 0.1664188 0.1657478 0.1651584
 0.1646216 0.1641423 0.1637482 0.1634718 0.163325 0.1632752 0.1632549 0.1632038 0.1630982 0.1629484
 0.16278 0.1626152 0.1624646 0.162335 0.16223 0.1621246 0.1619515 0.1616246 0.1610643 0.1602021
 0.158997 0.1574654 0.1556807 0.1537518 0.1518146 0.1500188 0.1484835 0.1472588 0.1463268 0.1456179
 0.1450366 0.144511 0.1440375 0.1436797 0.1435196 0.1435752 0.1437372 0.1438226 0.1437404 0.1435833
 0.1435362 0.1437293 0.1441788 0.1447968 0.1454309 0.1459429 0.1462767 0.1464487 0.1465006 0.1464733
 0.1463879 0.146234 0.145994 0.1456717 0.145282 0.1448385 0.1443578 0.1438448 0.1432828 0.1426619
 0.1419901 0.141261 0.1404508 0.1395457 0.1385249 0.1373581 0.1361024 0.1349739 0.1342514 0.1341113
 0.134542 0.1353589 0.1363214 0.1372881 0.1382004 0.1388963 0.1391426 0.1390143 0.1390928 0.1400431
 0.141972 0.1443083 0.146309 0.1475829 0.1481355 0.1480957 0.147551 0.1465511 0.1450945 0.143138
 0.1407114 0.137953 0.1349973 0.1319562 0.1290101 0.1263567 0.1240907 0.1222292 0.1207724 0.1197656
 0.1193392 0.1191217 0.1172471 0.1113326 0.1021473 0.0952553 0.0963476 0.1048457 0.1142951 0.1191851
 0.119339 0.1176671 0.1161919 0.1152406 0.114731 0.1148019 0.1155569 0.1168274 0.1182143 0.1193333
 0.1200574 0.1204408 0.1204127 0.1195916 0.1172747 0.1126621 0.105488 0.09660481 0.0877012 0.08030759
 0.07511142 0.07200009 0.07039829 0.06959525 0.06908665 0.06880355 0.06901854 0.07001644 0.07185245 0.07438758
 0.07744014 0.08077045 0.08397426 0.08662465 0.08859171 0.09006636 0.0912299 0.0920474 0.09239727 0.09225094
 0.09169203 0.09085745 0.08988442 0.08885811 0.08777845 0.08659421 0.08532181 0.08415082 0.08335343 0.0830307
 0.08302346 0.08311611 0.08322217 0.08333391 0.08342452 0.08346403 0.08345917 0.08346194 0.08357076 0.08386794
 0.08431369 0.08475608 0.08506697 0.08523308 0.08532827 0.08539988 0.0853496 0.08500469 0.08440283 0.0838532
 0.08352435 0.08313639 0.08232774 0.0812169 0.0803376 0.08006463 0.08029892 0.08067317 0.08088741 0.08085053
 0.08067451 0.08062018 0.08092419 0.08152404</values></Ydata></ScSm><ScRf><Ydata ylabel="Single channel"><values byteorder="INTEL" format="FLOAT32" numvalues="1820"> 0.06058004 0.06073199 0.06082452 0.06086115 0.06086576 0.06087913 0.06094514 0.06108349 0.06127157 0.06145513
 0.06158528 0.06165081 0.0616685 0.06164901 0.06159944 0.06155968 0.06159629 0.0617383 0.06193533 0.06209082
 0.06213747 0.06209718 0.06207221 0.06214519 0.06226613 0.06226571 0.06201594 0.06157587 0.06115143 0.06090568
 0.0608585 0.06100571 0.06141906 0.06205354 0.06252909 0.06240035 0.0617141 0.06103905 0.06083345 0.06100496
 0.06117377 0.06111031 0.06080719 0.0604018 0.06022058 0.06068622 0.06190348 0.06332421 0.06394537 0.06293651
 0.06022822 0.05671294 0.05392535 0.05321838 0.0548037 0.05746954 0.0594923 0.06001584 0.05946588 0.05868024
 0.05801069 0.05742232 0.05706463 0.05730744 0.05822229 0.05923113 0.05939466 0.05820571 0.05619578 0.05457653
 0.05414009 0.05474695 0.05595589 0.05750787 0.05868002 0.05790741 0.05431804 0.04969021 0.04766687 0.0502942
 0.05583765 0.06048555 0.06174262 0.05981277 0.05648267 0.05364098 0.05257681 0.05362498 0.05609648 0.05886267
 0.06104958 0.06206658 0.06144354 0.05924129 0.05645585 0.05452918 0.05446004 0.0564209 0.05972311 0.06286544
 0.06421448 0.06321865 0.0607761 0.05827554 0.05668003 0.05653976 0.05812261 0.0611237 0.06465267 0.06776702
 0.06986427 0.07071847 0.07051055 0.06972365 0.06878203 0.06797764 0.06772633 0.06831203 0.06920581 0.06926891
 0.06799832 0.06620772 0.06519365 0.06539788 0.06605685 0.06612788 0.06534056 0.06401332 0.06201579 0.05877692
 0.05457826 0.0508743 0.04883723 0.04847968 0.04953404 0.0518962 0.0545792 0.05564373 0.05430963 0.05231593
 0.05218036 0.05451744 0.05772541 0.05997133 0.06089218 0.06147625 0.06277333 0.06481073 0.06644972 0.06623937
 0.06385741 0.0609248 0.05986027 0.06150448 0.06431433 0.06626773 0.06700075 0.06757451 0.0686316 0.0694057
 0.0685149 0.06559248 0.06217857 0.06077484 0.06266478 0.06663001 0.06983086 0.0699023 0.06654561 0.06161845
 0.05769224 0.056268 0.05735551 0.06043781 0.06504697 0.07026559 0.07450012 0.0763652 0.07568549 0.07342376
 0.07058543 0.06728303 0.06325357 0.05941386 0.05806167 0.06069968 0.06610738 0.07135893 0.074439 0.07524839
 0.07445492 0.07223597 0.06847772 0.06401452 0.06104221 0.0614125 0.06440933 0.06715476 0.06762983 0.06651533
 0.06570657 0.06592834 0.06646628 0.06665365 0.06682731 0.06777718 0.06964029 0.07161061 0.07272844 0.07274903
 0.07218408 0.07169479 0.07148987 0.07117465 0.07032053 0.06934898 0.06947427 0.07136987 0.07422961 0.07658985
 0.07779044 0.07820678 0.07826971 0.07772013 0.07599249 0.07328552 0.07099768 0.0706867 0.07255784 0.07533637
 0.07759243 0.07876936 0.0790406 0.07878394 0.0783281 0.07785347 0.07744911 0.07733552 0.07780419 0.07879493
 0.07980977 0.0804104 0.08057261 0.08045837 0.08010416 0.07949065 0.07876824 0.07825806 0.07822251 0.07866986
 0.07939368 0.08015767 0.08077581 0.08107655 0.08096651 0.08056384 0.08012964 0.0798315 0.0796811 0.0796895
 0.07992371 0.08036853 0.08085764 0.08120995 0.0813738 0.08140385 0.08135378 0.08123572 0.08106118 0.08089072
 0.08083054 0.08095346 0.08120938 0.08146294 0.0816532 0.08185361 0.08211817 0.08234295 0.08237328 0.08220755
 0.08200697 0.0819204 0.0819658 0.08207045 0.08215529 0.08215225 0.08199352 0.08166882 0.08131059 0.08114912
 0.0813303 0.08180924 0.0824288 0.08303086 0.08348589 0.08372244 0.08377977 0.08376548 0.0837322 0.08364411
 0.08347319 0.08328524 0.08321805 0.08338003 0.08375469 0.08420467 0.08457996 0.08481063 0.08491002 0.08495089
 0.08503912 0.08522655 0.08542973 0.08550952 0.08544859 0.08538124 0.08542898 0.08556232 0.08564968 0.08561417
 0.08551958 0.08550273 0.08563055 0.08584205 0.08603308 0.0861735 0.08632137 0.08652855 0.08674719 0.08684923
 0.08676002 0.08655638 0.08639123 0.08633432 0.08634439 0.08638877 0.08650586 0.08671735 0.08694406 0.08706952
 0.08706946 0.08703437 0.08705857 0.08713424 0.08716904 0.0870917 0.08692287 0.08675191 0.08666459 0.08668871
 0.08678453 0.08687456 0.08689398 0.08682868 0.08671372 0.08659616 0.08650326 0.08645235 0.08648083 0.08663147
 0.08688189 0.08710612 0.08715072 0.08697166 0.08668614 0.0864718 0.08641018 0.08642976 0.08639409 0.08623239
 0.08598382 0.08573696 0.08554959 0.08542306 0.08532854 0.0852458 0.08518946 0.08520532 0.08532111 0.0854822
 0.08555926 0.08545631 0.08520725 0.08494072 0.08476019 0.08468252 0.08466825 0.08467127 0.08467153 0.08469051
 0.08475874 0.08485138 0.08489043 0.08483476 0.08473438 0.0846789 0.08472705 0.0848856 0.08510127 0.08526428
 0.08528193 0.08517493 0.08506292 0.08504064 0.08510154 0.08518688 0.08526566 0.08534607 0.08544001 0.08554822
 0.08567563 0.08584037 0.08605722 0.08631253 0.08655851 0.08674143 0.08684854 0.08693167 0.08707388 0.08732118
 0.08764334 0.08796196 0.08821694 0.08840889 0.08858171 0.0887684 0.08896406 0.08915733 0.08936982 0.08963764
 0.0899594 0.09029116 0.09059578 0.09087481 0.0911494 0.09143128 0.0917218 0.09203072 0.09238413 0.09279919
 0.09324117 0.09362161 0.0938684 0.09399946 0.09411386 0.09431443 0.09463846 0.09503263 0.09537877 0.09558193
 0.0956661 0.09575759 0.09594733 0.09620169 0.0964407 0.09666969 0.09697834 0.09741332 0.09789629 0.09828771
 0.09851834 0.09864558 0.09878113 0.0989724 0.09916727 0.09929759 0.09937236 0.09946141 0.09960298 0.09977616
 0.09997165 0.1002357 0.1006043 0.1010295 0.1014138 0.101703 0.1019107 0.10207 0.1021963 0.102285
 0.1023249 0.1023234 0.1023284 0.1023954 0.1025186 0.1026269 0.1026701 0.1026799 0.1027273 0.1028527
 0.1030594 0.1033395 0.1036654 0.1039778 0.1042354 0.1044763 0.1047805 0.1051496 0.1054724 0.1056467
 0.1056972 0.1057258 0.1057798 0.105837 0.1058991 0.1060244 0.1062543 0.1065603 0.1068852 0.107203
 0.107523 0.1078537 0.1081713 0.1084185 0.10854 0.1085338 0.1084669 0.1084388 0.1085258 0.1087469
 0.1090584 0.109383 0.1096553 0.1098417 0.109924 0.109899 0.1098171 0.1097881 0.1098945 0.1100969
 0.1102556 0.1102479 0.1100435 0.1096728 0.1091665 0.1085482 0.1078678 0.10721 0.1066605 0.106269
 0.1060514 0.1060263 0.1062305 0.1066784 0.1073092 0.1080029 0.1086492 0.1091737 0.1094965 0.1095214
 0.1092081 0.1086299 0.1079263 0.1072121 0.1065411 0.1059198 0.1053235 0.104733 0.1042005 0.1038749
 0.1039353 0.1044905 0.1055271 0.1069156 0.1084461 0.1098959 0.1111171 0.1120883 0.1128827 0.1135857
 0.1142465 0.1148945 0.1155596 0.1162445 0.116898 0.1174581 0.1179202 0.1183345 0.1187416 0.1191359
 0.1194875 0.1197743 0.1200026 0.1202087 0.1204245 0.1206241 0.120734 0.1207163 0.1206146 0.1204986
 0.1203872 0.1202395 0.1200006 0.1196456 0.1192131 0.1188245 0.1186613 0.1188874 0.1195604 0.1206004
 0.1218465 0.1231516 0.1244222 0.1255781 0.126526 0.1272085 0.1276594 0.1279772 0.1282524 0.1285329
 0.1288338 0.1291509 0.1294678 0.1297683 0.1300483 0.1303215 0.1306148 0.1309461 0.1312954 0.131611
 0.1318613 0.1320757 0.1323238 0.1326506 0.1330338 0.1334098 0.1337438 0.1340598 0.1343891 0.1347094
 0.1349666 0.1351492 0.1353083 0.1355085 0.1357827 0.1361249 0.1364937 0.136826 0.1370797 0.1372693
 0.1374454 0.1376434 0.137865 0.1381014 0.1383499 0.1386064 0.1388635 0.1391237 0.1394043 0.1397119
 0.1400165 0.1402681 0.1404449 0.1405788 0.1407254 0.1409133 0.1411268 0.141333 0.1415238 0.14173
 0.1419931 0.1423166 0.1426488 0.1429201 0.1431005 0.1432182 0.1433288 0.143474 0.1436643 0.1438871
 0.1441195 0.1443415 0.1445447 0.1447353 0.1449284 0.1451369 0.1453624 0.1455949 0.1458217 0.1460371
 0.1462424 0.1464419 0.1466446 0.1468664 0.1471214 0.1474032 0.1476802 0.1479166 0.1481003 0.1482474
 0.1483826 0.1485217 0.1486709 0.1488349 0.149018 0.1492201 0.1494353 0.1496563 0.1498781 0.1500973
 0.1503095 0.1505097 0.1506979 0.1508815 0.1510745 0.1512887 0.1515239 0.1517645 0.151988 0.1521843
 0.1523629 0.1525439 0.1527411 0.1529517 0.1531602 0.1533541 0.1535382 0.1537272 0.1539272 0.1541299
 0.1543272 0.1545202 0.1547121 0.1549029 0.1550934 0.1552873 0.1554853 0.1556815 0.1558707 0.1560556
 0.1562434 0.1564369 0.1566327 0.1568278 0.1570236 0.1572224 0.1574249 0.1576311 0.1578408 0.158052
 0.1582618 0.1584672 0.158665 0.1588541 0.1590387 0.1592251 0.1594164 0.1596116 0.159809 0.1600076
 0.1602077 0.1604097 0.1606119 0.1608112 0.1610097 0.1612141 0.1614265 0.161642 0.1618562 0.1620702
 0.1622862 0.1625061 0.1627318 0.1629635 0.1631969 0.1634253 0.163644 0.163853 0.1640542 0.1642454
 0.1644212 0.1645838 0.1647462 0.1649195 0.1651025 0.1652878 0.1654715 0.1656539 0.1658387 0.1660301
 0.1662259 0.1664178 0.1666041 0.1667947 0.1669973 0.1672089 0.1674209 0.167625 0.1678167 0.1680019
 0.1681937 0.1684005 0.1686196 0.1688417 0.1690561 0.1692589 0.1694589 0.1696684 0.1698876 0.1701072
 0.1703221 0.1705326 0.1707393 0.1709448 0.1711513 0.1713566 0.1715597 0.1717654 0.1719773 0.1721933
 0.1724128 0.172634 0.172848 0.1730498 0.1732473 0.1734487 0.1736537 0.1738634 0.1740803 0.1742986
 0.1745125 0.1747251 0.1749375 0.1751464 0.1753572 0.1755787 0.175805 0.1760243 0.176237 0.1764464
 0.1766486 0.1768454 0.1770443 0.1772353 0.1773704 0.1773256 0.1768121 0.1752803 0.1719028 0.1657291
 0.1560604 0.1428968 0.1270981 0.1100806 0.09329146 0.07782783 0.0643315 0.05307957 0.04412671 0.03739308
 0.03272423 0.02999261 0.02919477 0.03054363 0.03457833 0.04184964 0.05170097 0.06117922 0.0661808 0.06469513
 0.05873018 0.05248067 0.04884067 0.04801061 0.04875632 0.05002943 0.05149588 0.05333909 0.055883 0.05922453
 0.06321081 0.06783611 0.07344016 0.08027554 0.08798519 0.09575108 0.103 0.1098534 0.1168461 0.1242777
 0.1318933 0.1391335 0.1455798 0.151159 0.1560483 0.1604794 0.1646129 0.1685259 0.1722574 0.175803
 0.1790357 0.1816779 0.1834378 0.1842292 0.1842729 0.1839754 0.1836943 0.1835988 0.1837047 0.1839786
 0.1843934 0.1849299 0.1855728 0.186305 0.1870993 0.1879248 0.1887571 0.1895749 0.1903554 0.1910835
 0.1917582 0.1923814 0.1929517 0.19347 0.1939414 0.1943727 0.1947734 0.1951541 0.1955185 0.1958641
 0.1961901 0.1964984 0.196788 0.1970576 0.1973088 0.1975441 0.1977654 0.197977 0.198184 0.1983873
 0.1985866 0.1987863 0.1989909 0.1991993 0.1994067 0.1996083 0.1998027 0.199992 0.2001797 0.200368
 0.2005593 0.2007579 0.2009651 0.2011751 0.2013817 0.2015844 0.2017838 0.2019754 0.2021558 0.2023317
 0.2025152 0.2027124 0.2029176 0.2031186 0.2033118 0.203509 0.2037231 0.2039526 0.2041856 0.2044141
 0.2046343 0.2048437 0.2050462 0.205251 0.205457 0.2056485 0.2058136 0.2059612 0.2061146 0.2062938
 0.2065005 0.2067185 0.2069316 0.2071381 0.2073434 0.2075461 0.2077399 0.2079235 0.2081052 0.2083033
 0.208533 0.2087882 0.2090462 0.2092972 0.2095471 0.2097917 0.2100171 0.2102274 0.2104375 0.2106381
 0.2108036 0.2109416 0.2111108 0.211373 0.2117267 0.2120978 0.212405 0.2126333 0.2128319 0.2130569
 0.2133318 0.2136267 0.2138502 0.2139159 0.2138697 0.2139008 0.2141667 0.2146389 0.2151589 0.215602
 0.2159502 0.2162461 0.2165235 0.2167717 0.2169436 0.2170044 0.2169992 0.2170659 0.2173362 0.2178002
 0.2183047 0.218711 0.2190032 0.2192292 0.2194211 0.2195948 0.2197212 0.2196761 0.2193672 0.2189721
 0.218899 0.2193938 0.2202621 0.2210751 0.2215959 0.221909 0.2221808 0.2224533 0.2226821 0.2227775
 0.2225214 0.2216955 0.2205153 0.2197394 0.2200429 0.2213393 0.2229179 0.2241509 0.2248848 0.2252793
 0.2255352 0.2257606 0.2258875 0.2256777 0.2249897 0.2241263 0.2237547 0.2242893 0.2254271 0.2264758
 0.2270613 0.2273222 0.2275353 0.2278076 0.2280051 0.2277133 0.2264707 0.2244466 0.2227862 0.2228069
 0.2247104 0.2273405 0.2293296 0.2302788 0.2306519 0.2307668 0.2303307 0.2289707 0.2267832 0.2242846
 0.2222734 0.2217475 0.2232414 0.225972 0.2282778 0.2292652 0.2295651 0.2302629 0.2315947 0.2329345
 0.2336187 0.2334666 0.2326756 0.2314591 0.2299425 0.2284993 0.2279513 0.2289863 0.2313251 0.2338209
 0.2355164 0.2363712 0.2367671 0.2363833 0.2339612 0.2288198 0.2227559 0.2195422 0.2215856 0.2274048
 0.2332258 0.2366968 0.2381628 0.2388754 0.2393205 0.2391001 0.2371459 0.232277 0.2250454 0.2189402
 0.2180438 0.2229852 0.2302207 0.2353499 0.2361449 0.2328029 0.2271186 0.2219142 0.2198913 0.2220122
 0.2270955 0.2329776 0.2377996 0.240513 0.2408776 0.2393594 0.237084 0.2355627 0.2356025 0.2361073
 0.2349123 0.2315374 0.2280097 0.2258719 0.2237505 0.2198471 0.2158964 0.2160048 0.221338 0.2281924
 0.2321763 0.2326631 0.2319532 0.2310575 0.227917 0.2203342 0.21012 0.2031388 0.2041877 0.2120329
 0.2205247 0.2246284 0.2244218 0.2232663 0.2233104 0.2233001 0.2203524 0.213747 0.2067982 0.2040456
 0.2063875 0.2102656 0.21184 0.2100159 0.205009 0.1971207 0.1890227 0.1865204 0.1936135 0.2075664
 0.2210872 0.2283377 0.2269969 0.2168745 0.2007831 0.1863433 0.1822571 0.19047 0.2037989 0.2125674
 0.2122509 0.204177 0.1914221 0.1768101 0.1643045 0.1592433 0.165089 0.179998 0.1969442 0.2071417
 0.2048264 0.1917871 0.1779047 0.1740057 0.1819161 0.193187 0.1986014 0.1965707 0.1916834 0.1888104
 0.190339 0.1958575 0.2025661 0.2078782 0.2114669 0.2122264 0.2054368 0.1884204 0.1680149 0.1560962
 0.1572419 0.1662903 0.1778454 0.1911637 0.204112 0.2097814 0.20429 0.1941943 0.1909707 0.1988263
 0.2110743 0.2183377 0.2178453 0.2139669 0.2114128 0.2101883 0.2079672 0.2055617 0.2070887 0.2143284
 0.2236478 0.2300583 0.2323864 0.2328424 0.2332457 0.2336387 0.2335481 0.2328081 0.2314831 0.2299808
 0.2289287 0.228461 0.228096 0.2274767 0.2263236 0.2232733 0.2161734 0.2051082 0.1943504 0.1889897
 0.1895271 0.1921821 0.1944862 0.1967137 0.1966674 0.188243 0.1695138 0.1493163 0.1408254 0.1488376
 0.1662065 0.1819619 0.1897099 0.188169 0.1778526 0.1612198 0.1453013 0.1395577 0.1481842 0.1660621
 0.1842004 0.1974904 0.2053834 0.2076192 0.2031729 0.1932555 0.1826256 0.1769094 0.1791189 0.1882638
 0.1997437 0.2066331 0.2030348 0.1898722 0.1775176 0.1782302 0.193339 0.2110962 0.2198759 0.2199754
 0.2190849 0.2203306 0.2206269 0.2189419 0.2197269 0.2267483 0.237516 0.2457353 0.2468318 0.2397501
 0.2264194 0.2122937 0.2049477 0.2079546 0.2167657 0.2236269 0.2250802 0.2215071 0.2125402 0.1990253
 0.1879358 0.1881796 0.2002816 0.2151913 0.2245681 0.2283756 0.2311345 0.2341344 0.2338906 0.2274656
 0.2174199 0.2102573 0.2099975 0.2146365 0.2195019 0.222179 0.2225509 0.2199906 0.2137439 0.2060931
 0.202394 0.2063988 0.216338 0.2265645 0.2325974 0.2339041 0.2325368 0.2304781 0.2283348 0.2255203
 0.2215573 0.2177665 0.2170265 0.2207094 0.2265026 0.2307805 0.2327621 0.2347912 0.2386581 0.2431426
 0.2455107 0.2444985 0.2414968 0.2393171 0.2399305 0.242909 0.2457479 0.2460071 0.2436399 0.241262
 0.2417441 0.2454763 0.2503147 0.2540225 0.2560893 0.2572681 0.2582718 0.2591506 0.2592577 0.2577392
 0.2547472 0.2521514 0.2522127 0.2553346 0.2596751 0.2630507 0.2647036 0.2651708 0.2650716 0.2644633
 0.2632032 0.26154 0.2601324 0.2595238 0.2597448 0.2604488 0.2612773 0.2620206 0.2625889 0.262981
 0.263252 0.2634417 0.2635564 0.2636222 0.2636817 0.2637223 0.263691 0.2636162 0.2636323 0.2638264
 0.2641144 0.2643243 0.264346 0.2641298 0.2635992 0.2626826 0.2614288 0.2599868 0.2584352 0.2567369
 0.2549666 0.253543 0.2530941 0.2539858 0.2559816 0.2583913 0.2605398 0.2620984 0.2630696 0.2635994
 0.2638442 0.2639292 0.2639351 0.2638895 0.2637796 0.2635828 0.2632912 0.2629219 0.2625134 0.2621135
 0.2617611 0.2614702 0.2612215 0.2609696 0.260662 0.2602649 0.2597842 0.2592603 0.2587312 0.2581874
 0.2575681 0.2568141 0.2559234 0.2549577 0.2540042 0.2531283 0.2523417 0.2515982 0.2508323 0.2500034
 0.2490914 0.2480672 0.246922 0.2457368 0.2446667 0.2438154 0.2431487 0.2425482 0.2419131 0.2411882
 0.2403426 0.2393748 0.2383249 0.2372438 0.2361478 0.2350181 0.2338303 0.232567 0.2312149 0.2297714
 0.2282498 0.226671 0.2250586 0.2234342 0.2217909 0.2200587 0.2181093 0.2158005 0.2130108 0.2096539
 0.2057073 0.2012461 0.1964393 0.1914964 0.1866103 0.1819334 0.1775873 0.173676 0.1702875 0.1674914
 0.1653432 0.1638874 0.1631518 0.1631412 0.1638383 0.1652004 0.1671511 0.1695808 0.1723545 0.1753132
 0.1782793 0.181091 0.1836555 0.1859795 0.188137 0.1901915 0.1921426 0.1939456 0.1955682 0.1970031
 0.1982411 0.1992688 0.2001008 0.2007838 0.2013607 0.2018469 0.2022477 0.2025824 0.2028799 0.2031574
 0.2034123 0.2036382 0.2038428 0.2040454 0.2042625 0.2045025 0.2047717 0.2050829 0.2054595 0.2059252
 0.2064774 0.2070782 0.2076871 0.2082966 0.2089254 0.2095923 0.210317 0.211137 0.2120992 0.2132274
 0.2145055 0.2158848 0.2172972 0.218659 0.2198776 0.2208747 0.2216147 0.2221074 0.2223859 0.2224856
 0.2224387 0.2222693 0.2219926 0.2216229 0.221178 0.220669 0.2200972 0.2194687 0.2188007 0.2181073
 0.2173947 0.2166757 0.2159731 0.2152992 0.2146444 0.2139949 0.2133548 0.2127402 0.2121552 0.2115852
 0.211016 0.2104474 0.2098838 0.2093234 0.2087615 0.2081882 0.2075709 0.2068576 0.206015 0.2050541
 0.2040072 0.2028929 0.2017128 0.2004657 0.1991478 0.1977462 0.1962463 0.19465 0.1929793 0.1912527
 0.1894559 0.1875511 0.1855335 0.1834712 0.1814709 0.1796078 0.1778954 0.1763103 0.1748246 0.1734201
 0.1720878 0.1708183 0.1695957 0.1684085 0.1672635 0.1661788 0.1651651 0.1642199 0.1633383 0.1625278
 0.161808 0.1611891 0.1606539 0.1601751 0.1597442 0.1593694 0.1590635 0.1588527 0.1587718 0.1588173
 0.1589209 0.1589917 0.1589789 0.1588875 0.1587545 0.15862 0.1585054 0.1584153 0.1583479 0.1582831
 0.1581559 0.1578636 0.1573062 0.1564249 0.155217 0.1537287 0.1520305 0.1502091 0.1483823 0.146684
 0.1452142 0.1440176 0.1431019 0.1424358 0.1419397 0.1415313 0.1411928 0.1409782 0.1409583 0.1411433
 0.1414304 0.1416539 0.1417346 0.1417647 0.1419216 0.142323 0.1429628 0.1437311 0.1444848 0.1451324
 0.1456535 0.1460414 0.1462823 0.1463922 0.1464112 0.146356 0.1462244 0.1460271 0.1457779 0.1454794
 0.1451329 0.1447315 0.1442533 0.1436891 0.1430474 0.1423203 0.1414944 0.1405802 0.1395725 0.1384328
 0.1372037 0.1360957 0.1353849 0.1352466 0.1356801 0.1365182 0.1375299 0.138573 0.1395841 0.1403953
 0.1407647 0.1407559 0.1409427 0.1420014 0.1440627 0.1465613 0.148734 0.1501767 0.1508964 0.1510091
 0.1505747 0.149636 0.1482049 0.1462411 0.1437656 0.1409198 0.1378552 0.1347064 0.1316767 0.1289742
 0.1266848 0.1248162 0.1233696 0.1223885 0.1219973 0.1218121 0.1199238 0.1138967 0.1045383 0.09756856
 0.09879866 0.1075864 0.1172929 0.1222875 0.1224172 0.1206827 0.1191647 0.1181924 0.1176693 0.1177353
 0.1185017 0.1197997 0.1212241 0.1223764 0.1231067 0.1234635 0.1234004 0.1225451 0.1201548 0.1153796
 0.1079472 0.09874631 0.08952346 0.08187641 0.07654025 0.07339443 0.07180774 0.07100938 0.07046955 0.07014269
 0.07035093 0.07140686 0.07335478 0.07603692 0.07926224 0.08277717 0.08616553 0.08901209 0.09120426 0.09291926
 0.09430294 0.09530504 0.09582686 0.09587822 0.09555705 0.09497502 0.09423776 0.09342481 0.09253018 0.09146386
 0.09020779 0.08897272 0.08808585 0.08768313 0.08760764 0.08762396 0.08761609 0.08757306 0.08751675 0.087476
 0.08746289 0.0874847 0.0876004 0.0878898 0.08833136 0.08878058 0.08909458 0.089241 0.08928351 0.08925575
 0.08904254 0.08848532 0.08767532 0.08696544 0.0865168 0.08600722 0.08503948 0.08373429 0.08267243 0.08228384
 0.08247619 0.08283794 0.08303024 0.08296272 0.08276576 0.08270541 0.08300515 0.08358562 0.08403559 0.08399151
</values></Ydata></ScRf><Data_Parameters_AB><parameter name="DPF">1</parameter><parameter name="NPT">3497</parameter><parameter name="FXV">3996</parameter><parameter name="LXV">500</parameter><parameter name="CSF">1</parameter><parameter name="MXY">0.0490926131606102</parameter><parameter name="MNY">-0.0859475880861282</parameter><parameter name="DAT">20/05/2022</parameter><parameter name="TIM">10:54:38.407 (GMT+2)</parameter><parameter name="DXU">WN</parameter></Data_Parameters_AB><AB__Qtest><MainReport name="Quality Test Report"><Header><Line><Legend>Test result ok/not ok [1/0]: </Legend><Value>0</Value></Line><Line><Legend>Method file: </Legend><Value>C:\Users\Public\Documents\Bruker\OPUS_8.2.28\QT\IRBT_v3_default.QT</Value></Line></Header><Matrix><Line><Legend></Legend><Legend>min</Legend><Legend>max</Legend><Legend>measured</Legend></Line><Line><Value>Absorption (X-Range 1):</Value><Value>0.400000</Value><Value>2.000000</Value><Value>0.125621</Value></Line><Line><Value>Noise (X-Range 4):</Value><Value></Value><Value>0.000300</Value><Value>0.000036</Value></Line><Line><Value>Signal/Noise (X-Range 2):</Value><Value>200.000000</Value><Value></Value><Value>70.078322</Value></Line><Line><Value>Signal/Noise (X-Range 3):</Value><Value>40.000000</Value><Value></Value><Value>52.242771</Value></Line><Line><Value>Water vapour (X-Range 5):</Value><Value></Value><Value>0.000300</Value><Value>0.000063</Value></Line><Line><Value>Signal/Water (X-Range 2):</Value><Value>100.000000</Value><Value></Value><Value>39.807314</Value></Line><Line><Value>Signal/Water (X-Range 3):</Value><Value>20.000000</Value><Value></Value><Value>29.676001</Value></Line><Line><Value>Fringes (X-Range 6):</Value><Value></Value><Value>0.000100</Value><Value>0.000062</Value></Line></Matrix></MainReport></AB__Qtest><Data_Parameters_ScSm><parameter name="DPF">1</parameter><parameter name="NPT">1814</parameter><parameter name="FXV">3996.33169228125</parameter><parameter name="LXV">499.541461535156</parameter><parameter name="CSF">1</parameter><parameter name="MXY">0.284817636013031</parameter><parameter name="MNY">0.0351187698543072</parameter><parameter name="DAT">20/05/2022</parameter><parameter name="TIM">10:54:38.407 (GMT+2)</parameter><parameter name="DXU">WN</parameter></Data_Parameters_ScSm><Data_Parameters_ScRf><parameter name="DPF">1</parameter><parameter name="NPT">1820</parameter><parameter name="FXV">4004.04661832813</parameter><parameter name="LXV">495.683998511719</parameter><parameter name="CSF">1</parameter><parameter name="MXY">0.265170812606812</parameter><parameter name="MNY">0.0291947685182095</parameter><parameter name="DAT">20/05/2022</parameter><parameter name="TIM">10:54:12.555 (GMT+2)</parameter><parameter name="DXU">WN</parameter></Data_Parameters_ScRf><Optic_Parameters_Rf><parameter name="APR">0</parameter><parameter name="APT">Open</parameter><parameter name="BMS">KBr</parameter><parameter name="DTC">RT-DLaTGS_IR-Biotyper [Microplate reader]</parameter><parameter name="HPF">0</parameter><parameter name="LPF">10.0</parameter><parameter name="LPV">4000</parameter><parameter name="PGR">0</parameter><parameter name="RCH">Module port</parameter><parameter name="RDX">0</parameter><parameter name="SRC">MIR</parameter><parameter name="VEL">10.0</parameter><parameter name="SON">Off</parameter></Optic_Parameters_Rf><Acquisition_Parameters_Rf><parameter name="ADT">1</parameter><parameter name="AQM">DD</parameter><parameter name="CFE">0</parameter><parameter name="COR">0</parameter><parameter name="DEL">0</parameter><parameter name="DLY">0</parameter><parameter name="HFW">8000</parameter><parameter name="LFW">0</parameter><parameter name="NSR">32</parameter><parameter name="PLF">AB</parameter><parameter name="RES">6</parameter><parameter name="RGN">-1</parameter><parameter name="STR">0</parameter><parameter name="TCL">MakeCompatibleScalar (0, {WSV=1.000000, ARV=0});</parameter><parameter name="TDL">37</parameter><parameter name="RPO">0</parameter></Acquisition_Parameters_Rf><FT_-_Parameters_Rf><parameter name="APF">B3</parameter><parameter name="HFQ">500</parameter><parameter name="LFQ">4000</parameter><parameter name="NLI">0</parameter><parameter name="PHR">24</parameter><parameter name="PHZ">ML</parameter><parameter name="SPZ">NO</parameter><parameter name="ZFF">1</parameter></FT_-_Parameters_Rf><Optic_Parameters_><parameter name="APR">0</parameter><parameter name="APT">Open</parameter><parameter name="BMS">KBr</parameter><parameter name="CHN">Module port</parameter><parameter name="DTC">RT-DLaTGS_IR-Biotyper [Microplate reader]</parameter><parameter name="HPF">0</parameter><parameter name="LPF">10.0</parameter><parameter name="LPV">4000</parameter><parameter name="PGN">0</parameter><parameter name="RDX">0</parameter><parameter name="SRC">MIR</parameter><parameter name="VEL">10.0</parameter><parameter name="SON">Off</parameter></Optic_Parameters_><FT_-_Parameters_><parameter name="APF">B3</parameter><parameter name="HFQ">500</parameter><parameter name="LFQ">4000</parameter><parameter name="NLI">0</parameter><parameter name="PHR">24</parameter><parameter name="PHZ">ML</parameter><parameter name="SPZ">NO</parameter><parameter name="ZFF">1</parameter></FT_-_Parameters_><Acquisition_Parameters_><parameter name="ADT">1</parameter><parameter name="AQM">DD</parameter><parameter name="CFE">0</parameter><parameter name="COR">0</parameter><parameter name="DEL">0</parameter><parameter name="DLY">0</parameter><parameter name="HFW">8000</parameter><parameter name="LFW">0</parameter><parameter name="NSS">32</parameter><parameter name="PLF">AB</parameter><parameter name="RES">6</parameter><parameter name="SOT">0</parameter><parameter name="TCL">MakeCompatibleScalar (0, {WSV=1.000000, ARV=0});</parameter><parameter name="TDL">37</parameter><parameter name="SPO">0</parameter><parameter name="SGN">-1</parameter></Acquisition_Parameters_><Instrument_Parameters_Rf><parameter name="HFL">15800.168544</parameter><parameter name="LFL">0</parameter><parameter name="LWN">15800.168544</parameter><parameter name="ABP">32197</parameter><parameter name="SSP">1</parameter><parameter name="ARG">2</parameter><parameter name="ASG">2</parameter><parameter name="ASS">32</parameter><parameter name="GFW">16</parameter><parameter name="GBW">16</parameter><parameter name="BFW">0</parameter><parameter name="BBW">0</parameter><parameter name="PKA">7378</parameter><parameter name="PKL">4990</parameter><parameter name="PRA">7527</parameter><parameter name="PRL">5001</parameter><parameter name="P2A">1</parameter><parameter name="P2L">1</parameter><parameter name="P2R">1</parameter><parameter name="P2K">1</parameter><parameter name="DAQ">0</parameter><parameter name="AG2">1</parameter><parameter name="SSM">1</parameter><parameter name="RSN">24493</parameter><parameter name="CRR">0</parameter><parameter name="SRT">1653044052.556</parameter><parameter name="DUR">19.6369934082031</parameter><parameter name="TSC">28.9</parameter><parameter name="MVD">0.226876795291901</parameter><parameter name="AN1">0.225801464082774</parameter><parameter name="AN2">0</parameter><parameter name="VSN">2.485 Apr  4 2017</parameter><parameter name="SRN">0085</parameter><parameter name="CAM">0</parameter><parameter name="INS">IR-Biotyper</parameter><parameter name="FOC">69</parameter><parameter name="RDY">1</parameter><parameter name="ARS">32</parameter></Instrument_Parameters_Rf><Sample_Parameters_><parameter name="BLD"></parameter><parameter name="CNM">Admin</parameter><parameter name="CPY"></parameter><parameter name="DPM"></parameter><parameter name="EXP">IRBT_v3_32Scans.XPM</parameter><parameter name="LCT"></parameter><parameter name="SFM">Microplate, HTS-XT</parameter><parameter name="SNM">220520-0930(v.3)_MPP28F (D_3)_A3_90b6489f-4262-4ece-90db-621a4bf28619.0</parameter><parameter name="XPP">C:\Users\Public\Documents\Bruker\OPUS_8.2.28\XPM</parameter><parameter name="IST">OK</parameter><parameter name="CPG">1252</parameter><parameter name="UID">aa5faab7-b043-4e6e-9d50-6c06cde7f170</parameter></Sample_Parameters_><Instrument_Parameters_><parameter name="HFL">15800.168544</parameter><parameter name="LFL">0</parameter><parameter name="LWN">15800.168544</parameter><parameter name="ABP">32197</parameter><parameter name="SSP">1</parameter><parameter name="ASG">2</parameter><parameter name="ARG">2</parameter><parameter name="ASS">32</parameter><parameter name="GFW">16</parameter><parameter name="GBW">16</parameter><parameter name="BFW">0</parameter><parameter name="BBW">0</parameter><parameter name="PKA">8046</parameter><parameter name="PKL">4989</parameter><parameter name="PRA">8253</parameter><parameter name="PRL">4993</parameter><parameter name="P2A">1</parameter><parameter name="P2L">1</parameter><parameter name="P2R">1</parameter><parameter name="P2K">1</parameter><parameter name="DAQ">0</parameter><parameter name="AG2">1</parameter><parameter name="SSM">1</parameter><parameter name="RSN">12871</parameter><parameter name="CRR">0</parameter><parameter name="SRT">1653044078.408</parameter><parameter name="DUR">19.6369934082031</parameter><parameter name="TSC">28.9</parameter><parameter name="MVD">0.274332225322723</parameter><parameter name="AN1">0.225792818006058</parameter><parameter name="AN2">0</parameter><parameter name="VSN">2.485 Apr  4 2017</parameter><parameter name="SRN">0085</parameter><parameter name="CAM">0</parameter><parameter name="INS">IR-Biotyper</parameter><parameter name="FOC">69</parameter><parameter name="RDY">1</parameter></Instrument_Parameters_><History/></OPUSDataFile>
