<?xml version="1.0" encoding="UTF-8" ?>
<OPUSDataFile><AB><Ydata ylabel="Absorbance Units"><values byteorder="INTEL" format="FLOAT32" numvalues="3497"> -0.06912746 -0.06910617 -0.06905971 -0.06898712 -0.06890188 -0.06880473 -0.06871679 -0.06863879 -0.06858551 -0.06855565
 -0.06855039 -0.06856653 -0.06859383 -0.06862985 -0.06866297 -0.0686948 -0.06872252 -0.06874912 -0.0687781 -0.06880791
 -0.06883962 -0.06886773 -0.06888887 -0.06890216 -0.06890526 -0.06890427 -0.06890029 -0.06889765 -0.06889762 -0.06889902
 -0.06890193 -0.06890411 -0.06890541 -0.06890412 -0.06890006 -0.06888983 -0.06887384 -0.06885181 -0.06882624 -0.06880587
 -0.06879254 -0.06879669 -0.06881431 -0.06884522 -0.0688807 -0.0689102 -0.06892981 -0.06893059 -0.06892016 -0.06889866
 -0.06887883 -0.06886621 -0.06886522 -0.06887996 -0.06890045 -0.06892681 -0.0689418 -0.06894358 -0.06892272 -0.06887861
 -0.06881747 -0.06874056 -0.06866653 -0.06859633 -0.0685463 -0.06851389 -0.06849946 -0.06849829 -0.06849868 -0.06849936
 -0.06849129 -0.06847981 -0.06846647 -0.06845914 -0.06846606 -0.06848698 -0.06852729 -0.06857243 -0.06861964 -0.06865155
 -0.06866106 -0.06865049 -0.06861673 -0.06858347 -0.06855217 -0.0685484 -0.06857373 -0.06863672 -0.06873588 -0.06885441
 -0.06898686 -0.06909153 -0.06916432 -0.06916276 -0.06909861 -0.06897383 -0.06881325 -0.06866086 -0.06852801 -0.06844992
 -0.06841377 -0.06842501 -0.06845615 -0.06849384 -0.06851823 -0.06851486 -0.06849233 -0.06844806 -0.0684037 -0.06836371
 -0.06833279 -0.06831253 -0.06829402 -0.06827678 -0.06826293 -0.06825326 -0.0682608 -0.06828474 -0.06832769 -0.06838586
 -0.06844699 -0.06850763 -0.06855253 -0.06858238 -0.06858948 -0.06858125 -0.06856272 -0.0685419 -0.06852958 -0.06852122
 -0.06851948 -0.06851076 -0.0684877 -0.06845345 -0.06840248 -0.06836721 -0.06835058 -0.06838985 -0.06849116 -0.06865423
 -0.06888007 -0.06907823 -0.06924303 -0.06926275 -0.06915243 -0.06895278 -0.06868435 -0.06844991 -0.06824758 -0.06812508
 -0.06806967 -0.06808509 -0.0681488 -0.06823903 -0.06832929 -0.0683876 -0.06840987 -0.06837844 -0.06832178 -0.06824593
 -0.06817713 -0.06812637 -0.06809185 -0.06807613 -0.06806521 -0.06805763 -0.0680472 -0.06803335 -0.06802362 -0.06801889
 -0.06803463 -0.06807055 -0.06813531 -0.06822231 -0.06831376 -0.06839789 -0.06843349 -0.06842059 -0.06833403 -0.06819634
 -0.06802137 -0.0678375 -0.06767339 -0.06754395 -0.06746717 -0.06744179 -0.06747422 -0.06754781 -0.06766274 -0.06778828
 -0.0679206 -0.0680287 -0.06810856 -0.06814491 -0.06813643 -0.06808648 -0.06799611 -0.06788301 -0.06774904 -0.06761546
 -0.06748288 -0.06736472 -0.06726078 -0.06717724 -0.06711369 -0.06707342 -0.06705252 -0.06705011 -0.0670552 -0.06705919
 -0.06705159 -0.06702104 -0.0669734 -0.06690498 -0.06683724 -0.06677528 -0.06673376 -0.06671782 -0.06672142 -0.06674491
 -0.06677654 -0.06681553 -0.06685795 -0.06690343 -0.0669466 -0.06698547 -0.06700309 -0.06699901 -0.06695972 -0.06689222
 -0.0668063 -0.06671146 -0.06663004 -0.06656415 -0.06652623 -0.06651217 -0.06652134 -0.06655388 -0.06660803 -0.06669049
 -0.0668058 -0.06694899 -0.06712487 -0.06729998 -0.06747071 -0.06760141 -0.06768594 -0.0677264 -0.06772246 -0.06768453
 -0.0676124 -0.06749932 -0.06734846 -0.06717643 -0.06699158 -0.06683782 -0.06671638 -0.06665689 -0.06664624 -0.06667911
 -0.06673139 -0.06676783 -0.06678248 -0.06675125 -0.06669867 -0.06663293 -0.06657212 -0.06652918 -0.06649745 -0.06647976
 -0.06645652 -0.06642398 -0.06637289 -0.06630021 -0.06622071 -0.06613491 -0.06606776 -0.06602003 -0.06600615 -0.06602435
 -0.06607197 -0.06614225 -0.06620872 -0.06626166 -0.06625681 -0.0662019 -0.06608341 -0.06593057 -0.06577694 -0.06563682
 -0.0655396 -0.06547158 -0.06543563 -0.06540766 -0.06537698 -0.06533408 -0.0652713 -0.06520142 -0.06512535 -0.06505562
 -0.0649949 -0.0649374 -0.06488317 -0.06481319 -0.06472695 -0.06461366 -0.06447632 -0.06433132 -0.06418224 -0.06405318
 -0.06394336 -0.06386252 -0.0638095 -0.06378729 -0.06379304 -0.06382807 -0.0638788 -0.06393733 -0.06398244 -0.06399682
 -0.0639766 -0.06391249 -0.06382174 -0.06370918 -0.06357836 -0.06343202 -0.06326061 -0.06306233 -0.06284196 -0.06259942
 -0.06235014 -0.06209494 -0.06184775 -0.06160978 -0.06139636 -0.06120859 -0.06106111 -0.06095022 -0.0608754 -0.06082835
 -0.06079337 -0.06076537 -0.06073258 -0.06068963 -0.06063199 -0.06054296 -0.06040952 -0.06022685 -0.05998186 -0.05970918
 -0.05941469 -0.05913174 -0.05887002 -0.05863119 -0.05841775 -0.0582133 -0.05801683 -0.05781689 -0.05761396 -0.05742029
 -0.05723844 -0.05709584 -0.05698985 -0.05692937 -0.05689871 -0.05686115 -0.05680108 -0.05666323 -0.05646543 -0.05620367
 -0.05591059 -0.05561833 -0.05533496 -0.05507708 -0.0548357 -0.05461095 -0.05439392 -0.05418137 -0.05397153 -0.0537633
 -0.05355844 -0.05335747 -0.05315688 -0.05295664 -0.05274738 -0.05252879 -0.05229522 -0.0520475 -0.0517896 -0.05152237
 -0.05125124 -0.05097678 -0.0507021 -0.05043015 -0.05016766 -0.04991739 -0.04968774 -0.04947387 -0.04927579 -0.04908429
 -0.04889272 -0.04869848 -0.04849913 -0.04829343 -0.04808268 -0.04785523 -0.04760883 -0.04733606 -0.04703346 -0.04672258
 -0.04640422 -0.04611174 -0.04584585 -0.04561461 -0.04541512 -0.04522857 -0.04505187 -0.04486041 -0.04465604 -0.04442851
 -0.04418755 -0.04394606 -0.04371393 -0.0435128 -0.04333822 -0.04319973 -0.04307143 -0.04294259 -0.04278399 -0.04257538
 -0.04232122 -0.04201333 -0.04168829 -0.04135171 -0.04103115 -0.04073213 -0.0404551 -0.04020094 -0.03995316 -0.03971107
 -0.03946147 -0.03920542 -0.03894532 -0.03868271 -0.03842651 -0.03817519 -0.03792934 -0.03768596 -0.03743852 -0.03718788
 -0.03693116 -0.03667372 -0.03641932 -0.03617258 -0.03593776 -0.03571655 -0.03551089 -0.0353205 -0.03514644 -0.03498442
 -0.03483532 -0.0346857 -0.0345352 -0.0343617 -0.03416361 -0.03392391 -0.0336426 -0.03332676 -0.03297971 -0.03263192
 -0.03228611 -0.03197194 -0.0316868 -0.03143975 -0.03122439 -0.03103342 -0.03085973 -0.0306911 -0.03052211 -0.03034258
 -0.03015282 -0.02994864 -0.02973699 -0.02951959 -0.02930327 -0.0290911 -0.02888353 -0.02868155 -0.02848202 -0.02828468
 -0.02808721 -0.02788943 -0.02768977 -0.02748823 -0.02728541 -0.02708183 -0.02688202 -0.02668655 -0.02650096 -0.02632431
 -0.02615743 -0.02599766 -0.02584032 -0.02568311 -0.02552032 -0.02535267 -0.02517797 -0.02500028 -0.02482178 -0.02464493
 -0.02447227 -0.02430117 -0.02413136 -0.02396045 -0.02378711 -0.02361554 -0.02344609 -0.02328285 -0.02312655 -0.0229692
 -0.02281016 -0.02263329 -0.02243909 -0.02222325 -0.02199027 -0.02175843 -0.02153198 -0.0213354 -0.02116415 -0.0210233
 -0.02090078 -0.02078027 -0.02065803 -0.02052023 -0.02038104 -0.02024499 -0.02012628 -0.02003683 -0.01996672 -0.01991847
 -0.01986652 -0.01980534 -0.0197221 -0.01961304 -0.0194857 -0.01934012 -0.01918893 -0.01903264 -0.01887819 -0.01872524
 -0.01857441 -0.01842424 -0.01826848 -0.01810539 -0.01792531 -0.01773046 -0.01751856 -0.01729785 -0.01707791 -0.01686771
 -0.01668057 -0.01651776 -0.01638591 -0.01627727 -0.0161906 -0.01611677 -0.01605236 -0.0159935 -0.01593887 -0.01588673
 -0.01583708 -0.01578533 -0.01573127 -0.01566906 -0.01559842 -0.01551502 -0.01541856 -0.01530385 -0.01517148 -0.01501986
 -0.01485321 -0.01468243 -0.01451325 -0.01436467 -0.01423429 -0.01412993 -0.01403852 -0.01394979 -0.01385452 -0.01373932
 -0.01361447 -0.0134784 -0.01335308 -0.01324662 -0.01316656 -0.01311911 -0.0130858 -0.01306601 -0.01303465 -0.012989
 -0.01292688 -0.01284868 -0.01277775 -0.01271506 -0.01268043 -0.01267036 -0.01267909 -0.01270118 -0.01271609 -0.01272318
 -0.01270985 -0.01268139 -0.01263954 -0.01259063 -0.01254251 -0.01249614 -0.01245704 -0.01241565 -0.0123709 -0.01230694
 -0.01221673 -0.01209837 -0.01194594 -0.01178768 -0.01162475 -0.01149712 -0.01140887 -0.01137177 -0.0113857 -0.01142239
 -0.01147955 -0.01152265 -0.01155404 -0.01156722 -0.01156608 -0.01156188 -0.01155064 -0.0115304 -0.01149416 -0.01142657
 -0.01133595 -0.01121996 -0.011103 -0.01100263 -0.0109305 -0.01090269 -0.01089835 -0.01091734 -0.01092611 -0.01091583
 -0.01087409 -0.01079561 -0.0106976 -0.01058019 -0.01047459 -0.01038234 -0.01032927 -0.01031452 -0.01034162 -0.01040517
 -0.01048144 -0.01056357 -0.01061674 -0.01064014 -0.01061292 -0.01054341 -0.01043253 -0.01029471 -0.01014309 -0.009993533
 -0.009861115 -0.00975469 -0.009684912 -0.009644317 -0.009635519 -0.009637488 -0.009646974 -0.009644056 -0.009625738 -0.009578316
 -0.009500588 -0.009379721 -0.00921518 -0.009002523 -0.008744658 -0.008467172 -0.008177374 -0.007927285 -0.007719072 -0.007591696
 -0.007531993 -0.007534758 -0.00757706 -0.00762218 -0.007656195 -0.007646967 -0.007602826 -0.007515462 -0.007410335 -0.007295798
 -0.007197719 -0.007126934 -0.007096258 -0.007112331 -0.007169067 -0.007268394 -0.007387006 -0.0075236 -0.0076516 -0.007769751
 -0.00786535 -0.007939203 -0.007995475 -0.008035012 -0.008064782 -0.008083613 -0.008090613 -0.008086012 -0.008066924 -0.008041616
 -0.008017986 -0.00801199 -0.008042796 -0.008121961 -0.008267642 -0.00847098 -0.00873759 -0.009036846 -0.009361962 -0.009680453
 -0.009982809 -0.01025594 -0.01049546 -0.01070679 -0.01088973 -0.01105461 -0.01120202 -0.01134488 -0.01148405 -0.01163437
 -0.01179473 -0.01196854 -0.01215089 -0.01232674 -0.01249414 -0.01263848 -0.01276781 -0.0128869 -0.01300618 -0.01314082
 -0.01328986 -0.01346062 -0.01363857 -0.01382021 -0.01398729 -0.01413236 -0.01424619 -0.01432253 -0.01437415 -0.01439916
 -0.0144338 -0.01448069 -0.01457375 -0.0147145 -0.01490216 -0.0151336 -0.01537418 -0.01562052 -0.01583507 -0.0160202
 -0.01616208 -0.01626926 -0.01635288 -0.01642229 -0.01649773 -0.01658148 -0.0166858 -0.01680272 -0.01693098 -0.01706094
 -0.01718632 -0.01730546 -0.01741582 -0.01752078 -0.01762081 -0.01771786 -0.01781195 -0.0179069 -0.0180028 -0.018107
 -0.01821985 -0.01834162 -0.01847128 -0.01859671 -0.01871724 -0.01882165 -0.01891294 -0.01899433 -0.01907106 -0.019157
 -0.01925408 -0.01937294 -0.01950903 -0.01966289 -0.01982566 -0.01999132 -0.02015246 -0.02030308 -0.02044201 -0.02056645
 -0.02068206 -0.02078902 -0.02089547 -0.02100269 -0.02111577 -0.02123549 -0.02136139 -0.02149346 -0.02162846 -0.02176621
 -0.0219038 -0.02204108 -0.02217572 -0.02230755 -0.02243434 -0.0225569 -0.02267549 -0.02279188 -0.02290931 -0.02302806
 -0.02315033 -0.02327397 -0.02339874 -0.02352055 -0.02363853 -0.02374479 -0.0238371 -0.02390662 -0.02394864 -0.02397048
 -0.0239694 -0.023979 -0.02400144 -0.02407312 -0.02419596 -0.02437197 -0.02459794 -0.0248359 -0.02508111 -0.0252861
 -0.02545186 -0.02555349 -0.02560174 -0.02560525 -0.02558267 -0.02556675 -0.02557166 -0.02562986 -0.02573377 -0.02589338
 -0.02608033 -0.02628298 -0.02647887 -0.0266546 -0.02681166 -0.02694786 -0.02706904 -0.02717802 -0.0272604 -0.02731561
 -0.02732276 -0.02728077 -0.02719749 -0.02707611 -0.02695908 -0.02685001 -0.0267933 -0.02678587 -0.0268431 -0.02695413
 -0.02710271 -0.02727706 -0.02744961 -0.02761796 -0.02776648 -0.02790426 -0.02803382 -0.02816148 -0.02829483 -0.02842333
 -0.028546 -0.02864856 -0.0287245 -0.02878137 -0.02881769 -0.02885552 -0.02889768 -0.02894673 -0.02900295 -0.02904414
 -0.02906985 -0.02906708 -0.02903913 -0.02899925 -0.02895025 -0.0289103 -0.02887704 -0.02885378 -0.02883778 -0.02882458
 -0.02881662 -0.02881368 -0.0288221 -0.02884603 -0.0288923 -0.02896564 -0.02906995 -0.02920967 -0.02937753 -0.02957572
 -0.02978007 -0.02998866 -0.03017109 -0.03032357 -0.03043521 -0.03050517 -0.03055627 -0.03059086 -0.03064732 -0.03072484
 -0.03084061 -0.0309866 -0.0311435 -0.03130361 -0.03143614 -0.03154514 -0.03162082 -0.03167678 -0.0317254 -0.03177512
 -0.03183874 -0.0319128 -0.0319999 -0.0320914 -0.03218476 -0.03227345 -0.03235528 -0.03242697 -0.03248687 -0.03253971
 -0.032585 -0.03263834 -0.03270058 -0.03278534 -0.03289204 -0.03301559 -0.03315345 -0.03328643 -0.03341492 -0.03352857
 -0.03363267 -0.0337352 -0.03383941 -0.03395646 -0.0340813 -0.03421359 -0.03434477 -0.03446752 -0.03457743 -0.03466999
 -0.03474396 -0.03479803 -0.03483128 -0.03484232 -0.0348357 -0.03481069 -0.03478098 -0.03474754 -0.03472488 -0.03471389
 -0.03472131 -0.03474724 -0.03479404 -0.03486151 -0.03495099 -0.03505991 -0.03518134 -0.03530877 -0.03542317 -0.03551945
 -0.03557836 -0.03560399 -0.03559153 -0.03555252 -0.03549479 -0.03542629 -0.03535483 -0.03527929 -0.03520072 -0.0351178
 -0.03502877 -0.03494185 -0.03485778 -0.03478636 -0.03472982 -0.03467933 -0.03463466 -0.03456603 -0.03447225 -0.03432878
 -0.03413877 -0.03390855 -0.03364467 -0.03337584 -0.03310408 -0.03285037 -0.03260971 -0.03238258 -0.03216506 -0.03195096
 -0.03174328 -0.03154254 -0.03135119 -0.03117334 -0.0310005 -0.03083181 -0.0306541 -0.03046216 -0.03025655 -0.03003433
 -0.02981508 -0.02959999 -0.02941073 -0.02924877 -0.02911943 -0.02902219 -0.02894859 -0.02889841 -0.02886588 -0.0288522
 -0.02886018 -0.02888795 -0.02893482 -0.02899245 -0.02904687 -0.02909011 -0.02910461 -0.02909396 -0.02905268 -0.02899451
 -0.02892633 -0.02885581 -0.02879027 -0.02872075 -0.02864777 -0.02855516 -0.02843976 -0.02829391 -0.02811556 -0.02791172
 -0.02768251 -0.02744851 -0.02721138 -0.02699977 -0.026815 -0.02668108 -0.0265958 -0.02656469 -0.02658232 -0.02663766
 -0.02672736 -0.02683949 -0.02697607 -0.02713429 -0.02731846 -0.02753099 -0.02777591 -0.02805566 -0.0283745 -0.0287354
 -0.02913778 -0.02958483 -0.03006061 -0.03056526 -0.03106898 -0.03156888 -0.03204099 -0.03248343 -0.03289428 -0.03327417
 -0.03363553 -0.03397831 -0.03430887 -0.0346247 -0.03491904 -0.03519041 -0.03543007 -0.03564177 -0.03582652 -0.03599251
 -0.03615002 -0.03630517 -0.03646845 -0.03663648 -0.0368129 -0.03698361 -0.0371451 -0.03728182 -0.03738797 -0.0374593
 -0.03749275 -0.03749792 -0.03747531 -0.03743544 -0.03737912 -0.03730634 -0.03721711 -0.03710945 -0.03698581 -0.03686072
 -0.03673961 -0.03665259 -0.03660131 -0.03660822 -0.03666499 -0.03676977 -0.0369074 -0.03705931 -0.03721219 -0.03734801
 -0.0374613 -0.03754267 -0.03759563 -0.03761782 -0.03762018 -0.03760421 -0.03758307 -0.03755908 -0.03754231 -0.03753394
 -0.03754188 -0.03756655 -0.03762128 -0.0377071 -0.03784358 -0.03803082 -0.03828106 -0.03858959 -0.03894641 -0.03934205
 -0.0397471 -0.04015426 -0.04053516 -0.04089188 -0.04121397 -0.04151083 -0.04178737 -0.04204995 -0.04230527 -0.04255076
 -0.04278745 -0.04300997 -0.04321618 -0.04340687 -0.04358108 -0.04374585 -0.04390194 -0.04405388 -0.04420217 -0.0443423
 -0.04447384 -0.04458811 -0.04468568 -0.04476561 -0.04483069 -0.044892 -0.04495113 -0.04501971 -0.04509357 -0.04517125
 -0.04524662 -0.04530935 -0.04536137 -0.04539803 -0.04543149 -0.04546789 -0.04551547 -0.04558219 -0.04565864 -0.04574594
 -0.04582401 -0.04588848 -0.04593157 -0.04595039 -0.04595896 -0.04595785 -0.04596696 -0.04598658 -0.04602017 -0.04606568
 -0.04610882 -0.04614918 -0.04617537 -0.04619275 -0.04620924 -0.0462313 -0.04627674 -0.04634303 -0.04643754 -0.04654616
 -0.0466604 -0.04676482 -0.04684645 -0.04690077 -0.04692046 -0.04691528 -0.04688457 -0.04684697 -0.04680508 -0.04677701
 -0.04676566 -0.04677712 -0.04681232 -0.04686162 -0.04692425 -0.04698507 -0.0470441 -0.04709446 -0.04713728 -0.04717416
 -0.04720513 -0.04723122 -0.04725185 -0.04726543 -0.04727426 -0.04727985 -0.04728664 -0.04730003 -0.04731993 -0.04734952
 -0.04738169 -0.0474143 -0.04744164 -0.04746008 -0.04747462 -0.04748464 -0.0475017 -0.04752757 -0.04756519 -0.04761525
 -0.04766612 -0.04771705 -0.04775244 -0.04777276 -0.04777357 -0.04775779 -0.04773504 -0.04770883 -0.04769427 -0.04769172
 -0.04771072 -0.04774537 -0.04779346 -0.04784502 -0.04788973 -0.04792269 -0.04793527 -0.04793542 -0.0479225 -0.04791193
 -0.04790837 -0.04792056 -0.04795222 -0.04799869 -0.04806053 -0.04812608 -0.04819459 -0.04825761 -0.04831493 -0.04836475
 -0.04840737 -0.04844445 -0.04847603 -0.04850302 -0.04852533 -0.04854296 -0.04855635 -0.04856599 -0.04857322 -0.04857979
 -0.04858725 -0.04859758 -0.04861177 -0.04863132 -0.04865543 -0.04868453 -0.04871595 -0.04874913 -0.04878141 -0.04881199
 -0.04884079 -0.04886765 -0.04889377 -0.04891929 -0.04894335 -0.04896582 -0.04898324 -0.04899535 -0.04899825 -0.04899227
 -0.04897597 -0.04895144 -0.04892303 -0.04889428 -0.04887413 -0.04886451 -0.04887285 -0.04889615 -0.04893534 -0.04898376
 -0.04903761 -0.04909167 -0.04914214 -0.04918879 -0.04923028 -0.04926997 -0.0493085 -0.04934708 -0.04938641 -0.04942197
 -0.04945359 -0.04947455 -0.04948479 -0.04948567 -0.04947833 -0.049473 -0.0494701 -0.04947776 -0.04949385 -0.04951657
 -0.04954365 -0.04956902 -0.04959361 -0.04961581 -0.04963796 -0.04966248 -0.04968851 -0.04971721 -0.04974394 -0.04976688
 -0.04978294 -0.04979012 -0.0497903 -0.04978327 -0.04977257 -0.04975875 -0.04974268 -0.04972446 -0.04970418 -0.049682
 -0.04966229 -0.04964548 -0.04963757 -0.04963795 -0.04964718 -0.04966388 -0.04968391 -0.04970729 -0.04973187 -0.04975882
 -0.04978957 -0.04982314 -0.04985988 -0.04989624 -0.04993009 -0.04995871 -0.04998011 -0.04999392 -0.04999939 -0.04999781
 -0.04998898 -0.04997585 -0.04995846 -0.04994173 -0.04992596 -0.04991613 -0.04991241 -0.04991688 -0.04992923 -0.04994779
 -0.04997179 -0.049997 -0.05002258 -0.05004371 -0.05006031 -0.05006946 -0.05007265 -0.05007023 -0.05006505 -0.05005998
 -0.05005701 -0.05005895 -0.05006434 -0.05007403 -0.05008315 -0.05009042 -0.05009224 -0.05008714 -0.05007643 -0.0500598
 -0.05004159 -0.05002207 -0.05000476 -0.04998985 -0.04998026 -0.04997613 -0.04998012 -0.04999182 -0.05001109 -0.05003642
 -0.05006308 -0.05009012 -0.05011272 -0.05013233 -0.05014886 -0.05016404 -0.05018054 -0.05019606 -0.05021084 -0.05021935
 -0.05021854 -0.05020696 -0.050182 -0.05015114 -0.05011472 -0.05008364 -0.05005971 -0.05004694 -0.05004608 -0.05005202
 -0.05006448 -0.05007676 -0.05008896 -0.05009947 -0.05010879 -0.05011868 -0.0501291 -0.05014099 -0.05015371 -0.05016642
 -0.0501784 -0.05018887 -0.05019554 -0.05019641 -0.05018828 -0.05016756 -0.05013544 -0.05008985 -0.05003942 -0.04998584
 -0.04993835 -0.04989992 -0.04987149 -0.04985404 -0.04984241 -0.04983621 -0.04983337 -0.04983383 -0.04983875 -0.04984777
 -0.04985803 -0.04986858 -0.04987263 -0.04987081 -0.04986058 -0.04984514 -0.04982983 -0.04981721 -0.04981425 -0.049819
 -0.04983334 -0.04985075 -0.04986749 -0.04987836 -0.04987869 -0.04987107 -0.04985407 -0.04983696 -0.04982146 -0.04981417
 -0.0498168 -0.04982739 -0.04984613 -0.04986631 -0.0498876 -0.04990507 -0.04991861 -0.04992553 -0.04992578 -0.04991724
 -0.04990056 -0.04987604 -0.0498457 -0.04981367 -0.04978208 -0.04975642 -0.04973612 -0.04972334 -0.04971468 -0.0497083
 -0.04970211 -0.04969363 -0.04968601 -0.04967947 -0.04967813 -0.04968379 -0.04969377 -0.04970855 -0.04972013 -0.04972783
 -0.04972784 -0.0497201 -0.04970868 -0.04969393 -0.04968102 -0.0496696 -0.04966053 -0.04965329 -0.04964647 -0.04964029
 -0.0496345 -0.04962944 -0.04962569 -0.04962298 -0.04962146 -0.04962011 -0.04961839 -0.04961503 -0.04960919 -0.04960052
 -0.04958839 -0.04957448 -0.04955896 -0.04954374 -0.04952926 -0.04951539 -0.04950224 -0.04948806 -0.04947279 -0.04945662
 -0.0494399 -0.04942632 -0.0494161 -0.04941273 -0.04941509 -0.04942181 -0.04943066 -0.04943575 -0.04943663 -0.04942892
 -0.04941634 -0.04940055 -0.04938655 -0.04937931 -0.04937893 -0.0493883 -0.04940021 -0.04941361 -0.04941944 -0.04941498
 -0.04939772 -0.04936608 -0.04932723 -0.04928137 -0.04923933 -0.04920162 -0.04917328 -0.04915383 -0.04914001 -0.04913123
 -0.04912248 -0.04911434 -0.04910614 -0.04909873 -0.04909405 -0.04909164 -0.04909208 -0.04909351 -0.04909411 -0.04909278
 -0.04908787 -0.04907994 -0.0490685 -0.04905554 -0.04904149 -0.04902826 -0.04901631 -0.04900702 -0.04900067 -0.04899791
 -0.04899891 -0.04900252 -0.04900865 -0.04901399 -0.04901841 -0.04901888 -0.04901588 -0.04900998 -0.04900242 -0.04899729
 -0.04899598 -0.04900342 -0.04902047 -0.04905078 -0.04909389 -0.0491509 -0.0492204 -0.04930121 -0.04939393 -0.04949694
 -0.04961741 -0.04975645 -0.0499239 -0.05012297 -0.05035549 -0.05062378 -0.05091416 -0.05122649 -0.05153553 -0.05183991
 -0.05211404 -0.05235805 -0.05256506 -0.05273676 -0.05288352 -0.05299717 -0.05306074 -0.05305508 -0.05291928 -0.05266691
 -0.05227689 -0.05181057 -0.05132611 -0.0508672 -0.05049015 -0.05019504 -0.04999775 -0.04988348 -0.0498515 -0.0498849
 -0.04998287 -0.05011592 -0.05028228 -0.05043816 -0.05057905 -0.05068213 -0.05074625 -0.05078302 -0.05079374 -0.05079752
 -0.05079407 -0.05079247 -0.05078975 -0.0507807 -0.05076279 -0.05072569 -0.05067372 -0.05060889 -0.05053598 -0.05046467
 -0.05038602 -0.05029809 -0.05018737 -0.05004175 -0.04987135 -0.04967246 -0.0494764 -0.04929039 -0.04913278 -0.04900957
 -0.04891158 -0.04883926 -0.04877212 -0.04870909 -0.04863745 -0.0485577 -0.0484717 -0.04838132 -0.04829792 -0.04822243
 -0.04816503 -0.04812312 -0.04809698 -0.04808085 -0.04806585 -0.0480477 -0.04801712 -0.04797607 -0.04792174 -0.04786137
 -0.04779789 -0.04773676 -0.04768134 -0.04763084 -0.04758611 -0.04754312 -0.04750125 -0.04745867 -0.047415 -0.04737171
 -0.04732886 -0.04728877 -0.04725164 -0.04722036 -0.04719529 -0.04718012 -0.04717454 -0.04718035 -0.04719519 -0.0472152
 -0.04723683 -0.0472524 -0.04726054 -0.04725585 -0.04724124 -0.04721658 -0.04718671 -0.04715436 -0.04712183 -0.04709089
 -0.04706068 -0.047031 -0.04700263 -0.04697511 -0.0469536 -0.04693852 -0.04693409 -0.04694054 -0.04695297 -0.04697047
 -0.04698001 -0.04698119 -0.04696399 -0.04693089 -0.04688438 -0.04682877 -0.04677573 -0.04672714 -0.04669235 -0.04666829
 -0.04665598 -0.04664955 -0.04664477 -0.04663772 -0.04662472 -0.04660571 -0.04657928 -0.04654874 -0.04651416 -0.04648089
 -0.04644975 -0.04642489 -0.04640704 -0.04639513 -0.04638914 -0.0463834 -0.04637767 -0.04636756 -0.04635342 -0.04633503
 -0.0463131 -0.0462899 -0.04626604 -0.04624406 -0.04622417 -0.04620829 -0.04619497 -0.04618391 -0.04617191 -0.04615634
 -0.04613515 -0.04610575 -0.0460704 -0.04602857 -0.04598575 -0.04594284 -0.0459057 -0.0458755 -0.04585519 -0.04584549
 -0.04584345 -0.04584894 -0.04585421 -0.04585899 -0.04585763 -0.04585068 -0.04583868 -0.04582206 -0.04580287 -0.04578066
 -0.04575472 -0.04572604 -0.04569476 -0.04566502 -0.04564181 -0.04562749 -0.0456274 -0.04563603 -0.04565321 -0.04566902
 -0.04567934 -0.04567952 -0.04566649 -0.04564491 -0.04561472 -0.0455831 -0.04555094 -0.04552032 -0.04549142 -0.04546089
 -0.04542864 -0.04539209 -0.04535188 -0.04531055 -0.04526909 -0.04523261 -0.04520117 -0.04517759 -0.045161 -0.04515103
 -0.04514733 -0.04514964 -0.04515676 -0.04516865 -0.04518107 -0.04519191 -0.04519746 -0.04519457 -0.04518707 -0.04517462
 -0.0451649 -0.04515994 -0.04515862 -0.04516166 -0.04515839 -0.04514821 -0.0451264 -0.04509366 -0.04505977 -0.04502568
 -0.04500336 -0.04499069 -0.04498683 -0.04498777 -0.04498258 -0.04497056 -0.0449442 -0.04490815 -0.04486449 -0.04481861
 -0.04477666 -0.04473832 -0.04470619 -0.0446748 -0.04464193 -0.04460666 -0.0445668 -0.04453106 -0.04450046 -0.04448282
 -0.0444799 -0.04448488 -0.04449753 -0.04450141 -0.0444963 -0.04447529 -0.04444061 -0.04440306 -0.0443648 -0.04434089
 -0.04432936 -0.04433398 -0.04434948 -0.04436841 -0.04438736 -0.04439864 -0.04440293 -0.04439802 -0.04438619 -0.04436834
 -0.0443454 -0.04431808 -0.04428609 -0.04424936 -0.04420821 -0.04416234 -0.04411443 -0.04406443 -0.04401795 -0.0439753
 -0.0439421 -0.04391832 -0.04390458 -0.04390025 -0.04390141 -0.0439078 -0.04391651 -0.04392736 -0.04393931 -0.04395011
 -0.04395568 -0.04395352 -0.04393739 -0.04391099 -0.04387336 -0.04383448 -0.0438003 -0.04377542 -0.04376521 -0.04376152
 -0.04376405 -0.04376129 -0.04375032 -0.04373015 -0.0436997 -0.04366792 -0.04363531 -0.04360891 -0.04358865 -0.04357384
 -0.04356396 -0.04355513 -0.04354753 -0.0435399 -0.04353258 -0.04352624 -0.04351996 -0.04351267 -0.04350308 -0.04348851
 -0.04347019 -0.04344739 -0.0434242 -0.04340301 -0.0433858 -0.04337497 -0.04336647 -0.0433602 -0.04334993 -0.04333398
 -0.04331255 -0.04328503 -0.043258 -0.04323187 -0.04320945 -0.04319042 -0.0431691 -0.04314512 -0.04311229 -0.04307229
 -0.04302795 -0.04298221 -0.04294444 -0.04291547 -0.04290195 -0.04290117 -0.04291314 -0.0429331 -0.04295764 -0.0429815
 -0.04300103 -0.04301191 -0.04301124 -0.04299842 -0.04297188 -0.04293649 -0.04289237 -0.04284711 -0.04280162 -0.04276018
 -0.04272318 -0.04268846 -0.04265585 -0.04262144 -0.04258566 -0.04254942 -0.04251387 -0.0424844 -0.04246086 -0.04244637
 -0.04243846 -0.04243441 -0.04243141 -0.04242438 -0.04241328 -0.04239574 -0.0423746 -0.0423508 -0.04232676 -0.04230418
 -0.04228214 -0.04226111 -0.04223797 -0.04221208 -0.04218246 -0.04214866 -0.04211346 -0.04207699 -0.04204218 -0.04200912
 -0.04197861 -0.04195069 -0.04192604 -0.04190468 -0.0418876 -0.04187372 -0.04186099 -0.04184751 -0.04182835 -0.04180369
 -0.0417707 -0.04173328 -0.04169346 -0.04165554 -0.04162348 -0.04159664 -0.04157672 -0.04155802 -0.04153929 -0.04151641
 -0.04148777 -0.04145607 -0.04142123 -0.04138822 -0.04135747 -0.04132826 -0.04130039 -0.04126912 -0.04123488 -0.04119829
 -0.04116071 -0.04112865 -0.04110188 -0.04108386 -0.04107191 -0.04106269 -0.04105397 -0.04104135 -0.04102429 -0.04100085
 -0.04097106 -0.04093414 -0.04089119 -0.0408419 -0.04078973 -0.04073545 -0.04068226 -0.04063101 -0.04058257 -0.04053706
 -0.04049566 -0.04045846 -0.04042684 -0.04040068 -0.04037778 -0.04035754 -0.0403342 -0.04030788 -0.04027552 -0.04023857
 -0.04019946 -0.04015931 -0.04012189 -0.04008606 -0.04005236 -0.0400183 -0.03998132 -0.03994147 -0.039897 -0.0398523
 -0.03980838 -0.03977031 -0.03974016 -0.03971864 -0.03970689 -0.03969996 -0.03969778 -0.03969273 -0.03968429 -0.03966684
 -0.03964032 -0.03960494 -0.03956149 -0.03951621 -0.03946982 -0.0394293 -0.03939336 -0.03936274 -0.03933412 -0.03930148
 -0.03926305 -0.03921272 -0.03915388 -0.03908627 -0.03901698 -0.03895051 -0.03889089 -0.03884223 -0.03880048 -0.03876588
 -0.03873152 -0.03869583 -0.0386562 -0.03861185 -0.03856463 -0.03851462 -0.03846316 -0.03841036 -0.03835764 -0.03830542
 -0.03825783 -0.03821516 -0.03818149 -0.03815551 -0.03813616 -0.03812078 -0.03810373 -0.03808356 -0.03805555 -0.03802073
 -0.03797829 -0.03792985 -0.03787627 -0.03781841 -0.03775661 -0.03769215 -0.03762505 -0.03755829 -0.03749206 -0.03743091
 -0.03737537 -0.03732878 -0.03729148 -0.03726285 -0.03724275 -0.03722772 -0.03721752 -0.03720914 -0.0372019 -0.03719174
 -0.03717692 -0.03714996 -0.03711079 -0.03705427 -0.03698505 -0.03690626 -0.03682464 -0.03674769 -0.03667904 -0.03662428
 -0.03658058 -0.03654924 -0.03652233 -0.03649782 -0.03646997 -0.03643669 -0.03639926 -0.03635746 -0.03631446 -0.03627063
 -0.03622347 -0.03617277 -0.03611319 -0.03604485 -0.03596614 -0.03587817 -0.0357846 -0.03568722 -0.03559276 -0.03550266
 -0.03542348 -0.03535394 -0.03529606 -0.03524524 -0.03519814 -0.03515058 -0.03509835 -0.03504131 -0.03497817 -0.03491064
 -0.03483896 -0.0347646 -0.03468769 -0.03461062 -0.03453363 -0.03445918 -0.03438754 -0.03431912 -0.03425385 -0.03418981
 -0.03412653 -0.03405955 -0.03398821 -0.0339062 -0.03381506 -0.0337149 -0.03360989 -0.03350911 -0.03341306 -0.033328
 -0.0332479 -0.03316961 -0.03308716 -0.03299388 -0.03289314 -0.03278308 -0.03267457 -0.03257087 -0.0324779 -0.03239896
 -0.0323267 -0.03226189 -0.0321849 -0.03209428 -0.03197671 -0.03183232 -0.03167386 -0.03150291 -0.03133968 -0.03118226
 -0.03103287 -0.03088764 -0.03073561 -0.03057632 -0.03040216 -0.03021817 -0.03002766 -0.02983635 -0.02965197 -0.02947431
 -0.02930724 -0.0291432 -0.02898033 -0.02881037 -0.02862858 -0.0284393 -0.02824114 -0.02804893 -0.02786538 -0.02769099
 -0.02752664 -0.02735472 -0.02717457 -0.02697545 -0.0267588 -0.02653316 -0.02629987 -0.02607085 -0.0258436 -0.02561723
 -0.02538812 -0.02514712 -0.02489601 -0.02463212 -0.02436164 -0.02409013 -0.02382032 -0.02355612 -0.02329685 -0.02304302
 -0.02279401 -0.02255028 -0.02230906 -0.02207192 -0.02182404 -0.02156592 -0.02126396 -0.0209153 -0.02050099 -0.0200217
 -0.01952243 -0.01900651 -0.01852596 -0.01807451 -0.01764921 -0.01724292 -0.01683165 -0.01641528 -0.01598274 -0.01553467
 -0.01507154 -0.01458192 -0.01406064 -0.01348043 -0.01282048 -0.01206651 -0.01119355 -0.01025115 -0.009240388 -0.008247148
 -0.007293124 -0.006410554 -0.005609902 -0.004871288 -0.004194607 -0.00354957 -0.002934389 -0.002314454 -0.001686874 -0.001007097
 -0.0002791117 0.0005086897 0.001335884 0.002140963 0.002921377 0.00363487 0.004306783 0.004958267 0.005602428 0.006265853
 0.006935048 0.007609662 0.008273794 0.008915382 0.009543358 0.01015768 0.0107691 0.01138199 0.01198924 0.01259004
 0.01318279 0.01376736 0.01434416 0.01491259 0.01544692 0.01594494 0.01637367 0.0167356 0.01702476 0.01724664
 0.01741442 0.01753264 0.01761608 0.01766895 0.01770285 0.01772174 0.01773221 0.0177411 0.01775382 0.01777873
 0.01782365 0.01788271 0.01795864 0.01803094 0.01809596 0.01813755 0.01815221 0.01813805 0.01809391 0.01803501
 0.01796212 0.01789176 0.01782263 0.01774914 0.01766785 0.01755919 0.01742027 0.01723152 0.0169931 0.01669299
 0.01634035 0.01594115 0.01550962 0.01506317 0.01460819 0.01415339 0.0137041 0.01326003 0.0128437 0.01246004
 0.01213574 0.01188014 0.01169208 0.01157431 0.01150697 0.01148863 0.01150586 0.01155801 0.01163873 0.01174743
 0.01187615 0.01202397 0.01218135 0.01234889 0.01252255 0.01270558 0.01290254 0.01311705 0.01335732 0.01362255
 0.01391676 0.01423246 0.01456672 0.01491008 0.01525665 0.01560306 0.01594541 0.01629035 0.01663814 0.01699788
 0.01737193 0.01775661 0.01815243 0.01854306 0.01892785 0.01930061 0.0196631 0.02003244 0.02040898 0.02080667
 0.02121771 0.02162388 0.02201954 0.02238144 0.02271378 0.02301432 0.02328375 0.02352397 0.02372888 0.02389452
 0.02401735 0.02409654 0.02412308 0.02409811 0.02399444 0.02380425 0.02351939 0.02313037 0.02270323 0.02224319
 0.02179295 0.02135398 0.0208961 0.02041765 0.01989053 0.019317 0.01869517 0.01802692 0.01732071 0.01656905
 0.01576358 0.01488764 0.01390043 0.01282647 0.01165004 0.010478 0.009393224 0.008431459 0.007654443 0.006977138
 0.006383122 0.005807923 0.005228506 0.004642457 0.004044724 0.003456029 0.002878498 0.002313542 0.001761116 0.001205281
 0.0006458903 7.502249E-05 -0.0005046123 -0.001082783 -0.001656676 -0.002210499 -0.002746021 -0.003258312 -0.003752914 -0.004236134
 -0.004712205 -0.005187189 -0.005665753 -0.006149786 -0.006653639 -0.007184247 -0.007754472 -0.008381722 -0.009017829 -0.009662333
 -0.01022996 -0.01070034 -0.01108656 -0.0113851 -0.01166446 -0.01192788 -0.01221096 -0.01251161 -0.01281769 -0.01312543
 -0.01340632 -0.01366358 -0.0138934 -0.01409981 -0.01429297 -0.01446731 -0.01461982 -0.01474192 -0.01482088 -0.01485879
 -0.01485189 -0.01480794 -0.01473043 -0.01462279 -0.01448692 -0.01432457 -0.01413691 -0.0139225 -0.01368298 -0.01340221
 -0.0130792 -0.01269436 -0.01224697 -0.01176392 -0.01124958 -0.01076604 -0.01031215 -0.009914139 -0.009565378 -0.009256373
 -0.008984411 -0.00873924 -0.008519568 -0.008321791 -0.008137414 -0.007958087 -0.007770931 -0.007559502 -0.007330916 -0.007078299
 -0.006834418 -0.006611587 -0.006421576 -0.006272337 -0.006149971 -0.006053535 -0.005971157 -0.00590152 -0.0058397 -0.005785378
 -0.005734783 -0.005687604 -0.005639159 -0.005588946 -0.005532133 -0.005467662 -0.00538963 -0.005296746 -0.005182957 -0.005048181
 -0.004890224 -0.004707808 -0.004500489 -0.004261802 -0.003987078 -0.003670719 -0.003306255 -0.002900124 -0.002451356 -0.001974466
 -0.001474148 -0.000952114 -0.0004114775 0.0001671089 0.000785137 0.001459065 0.002189715 0.002954142 0.003748938 0.004524309
 0.005279539 0.005985596 0.006644118 0.007247452 0.007792668 0.008270024 0.008674676 0.008993492 0.009226902 0.009369719
 0.009425743 0.009397113 0.009283923 0.009087295 0.008804796 0.008434432 0.00798033 0.007439507 0.006835863 0.006169433
 0.005484559 0.004785402 0.004103439 0.003440538 0.002791234 0.002154425 0.001512466 0.0008678626 0.0002253455 -0.0004092727
 -0.001011021 -0.001580781 -0.002105777 -0.00259545 -0.003059497 -0.003505269 -0.003946207 -0.004381553 -0.004815921 -0.005243949
 -0.005663963 -0.006071889 -0.006465607 -0.006844073 -0.00720632 -0.007553998 -0.007886779 -0.008209834 -0.008523636 -0.00883241
 -0.009136423 -0.009428316 -0.009706751 -0.009951482 -0.0101623 -0.01032586 -0.01044672 -0.01053366 -0.01059174 -0.0106386
 -0.01067329 -0.01070316 -0.01072286 -0.01072795 -0.01071783 -0.0106877 -0.01064783 -0.0106008 -0.01056062 -0.01053368
 -0.01052549 -0.01053985 -0.01057129 -0.01061988 -0.01067764 -0.01074367 -0.01081424 -0.01088908 -0.01096818 -0.01105145
 -0.01113817 -0.01122766 -0.01131587 -0.0114015 -0.01147782 -0.01154408 -0.01159489 -0.01163087 -0.01165063 -0.01165496
 -0.01164445 -0.01161913 -0.01157876 -0.01152475 -0.01145665 -0.01137985 -0.01129548 -0.0112107 -0.01112743 -0.01105064
 -0.01098144 -0.01092225 -0.0108734 -0.01083674 -0.01081242 -0.0108005 -0.01080079 -0.01081082 -0.01083006 -0.01085419
 -0.01088258 -0.01091089 -0.01093822 -0.01096012 -0.01097617 -0.01098308 -0.01098256 -0.01097432 -0.01096306 -0.01095205
 -0.01094579 -0.01094842 -0.01095916 -0.0109797 -0.01100377 -0.01103035 -0.01105334 -0.0110713 -0.01108264 -0.01108686
 -0.01108607 -0.01108034 -0.01107213 -0.01106156 -0.01105044 -0.01103897 -0.01102921 -0.01102144 -0.01101803 -0.01101872
 -0.01102494 -0.01103425 -0.01104448 -0.01104989 -0.01104344 -0.01101962 -0.01097027 -0.0108972 -0.0107968 -0.01068085
 -0.01055183 -0.01042357 -0.01030043 -0.01018879 -0.01009088 -0.01000553 -0.009932941 -0.009870709 -0.009818702 -0.009776082
 -0.009742616 -0.009714948 -0.009692344 -0.009668156 -0.009642265 -0.009610157 -0.009573327 -0.009532996 -0.009491062 -0.009451311
 -0.009414924 -0.009384318 -0.009361411 -0.009348083 -0.009347042 -0.009360772 -0.009389066 -0.009433496 -0.009488525 -0.009553566
 -0.009621387 -0.009690345 -0.00975835 -0.00982471 -0.009892774 -0.009962721 -0.01003621 -0.01011285 -0.01018645 -0.01025623
 -0.01031326 -0.01035882 -0.0103921 -0.01041689 -0.01044244 -0.01047116 -0.01051246 -0.0105642 -0.01062841 -0.01069986
 -0.01077542 -0.01084952 -0.01091831 -0.01097807 -0.01102574 -0.0110629 -0.01108827 -0.01110993 -0.01112893 -0.01115232
 -0.01118151 -0.01121372 -0.01124895 -0.01127781 -0.01130004 -0.01131034 -0.0113095 -0.0113004 -0.01128349 -0.0112629
 -0.01123684 -0.01120342 -0.0111594 -0.01109769 -0.01101781 -0.01091474 -0.01079393 -0.01065731 -0.01051255 -0.01036545
 -0.01021754 -0.01007244 -0.009922477 -0.009767067 -0.009596046 -0.009407184 -0.009196548 -0.008962893 -0.008711582 -0.008442787
 -0.00816648 -0.007883034 -0.007599181 -0.007314843 -0.007032391 -0.006752225 -0.006477303 -0.006207919 -0.005947364 -0.00569311
 -0.005443037 -0.005192613 -0.004934639 -0.004668546 -0.004389933 -0.004104398 -0.003813576 -0.003523395 -0.003236769 -0.002956413
 -0.002683311 -0.002420191 -0.002167426 -0.00192859 -0.001704235 -0.001495387 -0.001302232 -0.001121025 -0.0009512096 -0.000783268
 -0.0006156809 -0.0004331947 -0.0002348651 -7.410702E-06 0.0002461582 0.0005263084 0.0008261032 0.001133271 0.001443216 0.001743665
 0.002037765 0.002322674 0.002606756 0.00289426 0.003190749 0.003500719 0.003821441 0.004154113 0.004490041 0.004828237
 0.005159824 0.005483659 0.005794713 0.006092561 0.006375724 0.006644139 0.006896915 0.007133878 0.007352898 0.007554555
 0.007738933 0.007909099 0.008072453 0.008233175 0.008402992 0.008582152 0.00877731 0.00898244 0.009195961 0.009408306
 0.009614144 0.009804307 0.009973238 0.01011823 0.01023481 0.0103365 0.01042284 0.0105205 0.01063266 0.01077564
 0.01095115 0.01114874 0.01136724 0.01158341 0.01179701 0.01199508 0.01217948 0.0123514 0.01251166 0.01266403
 0.01280608 0.01293604 0.0130491 0.01313823 0.01320078 0.0132306 0.01323142 0.01320261 0.01315191 0.01308275
 0.01299873 0.01290197 0.01279154 0.01266714 0.01253078 0.0123822 0.01222822 0.01206927 0.0119107 0.01175263
 0.01159595 0.01144073 0.01128774 0.01113738 0.01099202 0.01085126 0.01071604 0.01058391 0.01045113 0.01031487
 0.01016894 0.0100149 0.009850308 0.009682739 0.009515814 0.009356149 0.009208906 0.009071096 0.008944293 0.008817784
 0.008690027 0.008551884 0.008401657 0.008238591 0.008062261 0.007882313 0.007699461 0.007528572 0.007369271 0.0072269
 0.007097879 0.006970089 0.00684001 0.006690245 0.006523206 0.006333739 0.006129436 0.005918117 0.005705441 0.005500371
 0.005301912 0.005113309 0.004927713 0.004743383 0.00455348 0.004355031 0.004147442 0.003929523 0.003706125 0.00347779
 0.003247073 0.003014307 0.002776972 0.002534862 0.002283651 0.002023153 0.001749556 0.001463567 0.001164876 0.0008570126
 0.0005489578 0.000245018 -4.071101E-05 -0.0003107103 -0.0005605532 -0.000799296 -0.001034909 -0.001269923 -0.001510914 -0.001748231
 -0.001978697 -0.002197132 -0.002398315 -0.002595822 -0.00279026 -0.003000763 -0.00323092 -0.003480614 -0.003750727 -0.004018826
 -0.004283748 -0.004522587 -0.004736331 -0.004921788 -0.005082493 -0.005232257 -0.0053733 -0.005519637 -0.005669867 -0.0058282
 -0.005991677 -0.006158021 -0.006325106 -0.006489885 -0.006652162 -0.006810314 -0.006966978 -0.00712326 -0.007279815 -0.007438611
 -0.007591753 -0.00773877 -0.007868382 -0.007978457 -0.008068776 -0.0081388 -0.008200738 -0.008255144 -0.0083122 -0.008371441
 -0.008433563 -0.008497633 -0.008560048 -0.008620113 -0.00867413 -0.008721616 -0.008758957 -0.008788609 -0.008811426 -0.008832438
 -0.008857546 -0.008887113 -0.008925293 -0.008963324 -0.008999296 -0.009022649 -0.009029033 -0.009016074 -0.008981432 -0.008932557
 -0.008869495 -0.008804293 -0.008737829 -0.008678834 -0.008627498 -0.008583856 -0.008547453 -0.008513965 -0.008484116 -0.008458569
 -0.008439155 -0.008432621 -0.008437535 -0.008456274 -0.008481625 -0.008505476 -0.008520224 -0.008514347 -0.008488447 -0.008437653
 -0.008371008 -0.008291045 -0.008205857 -0.008118741 -0.008032505 -0.007947883 -0.007868263 -0.007793915 -0.00773011 -0.007677602
 -0.007631395 -0.007590766 -0.00753583 -0.00746568 -0.007362613 -0.007229301 -0.007067382 -0.00688252 -0.006691685 -0.006499446
 -0.006323255 -0.006163895 -0.006030732 -0.00591975 -0.005831722 -0.005758662 -0.005695762 -0.005636871 -0.00557746 -0.005516967
 -0.00545474 -0.005389364 -0.005321588 -0.005242827 -0.005152052 -0.005042735 -0.004913731 -0.004774982 -0.004627443 -0.004496452
 -0.004382932 -0.004307248 -0.004266242 -0.00425774 -0.004274619 -0.004294688 -0.004313325 -0.004308439 -0.004284875 -0.004237743
 -0.004179693 -0.004121553 -0.004071393 -0.004040797 -0.004022601 -0.004018492 -0.00401272 -0.003999794 -0.003973732 -0.003930616
 -0.003879815 -0.003821658 -0.003767847 -0.003719527 -0.003679218 -0.003646919 -0.003619164 -0.00359557 -0.003571708 -0.003546847
 -0.003515179 -0.003476239 -0.003424779 -0.003362748 -0.003291135 -0.003212998 -0.00313405 -0.003053354 -0.002973108 -0.002888501
 -0.002796628 -0.002695115 -0.002580418 -0.002458615 -0.002328775 -0.002206145 -0.002092594 -0.002006197 -0.001950195 -0.001930817
 -0.001949672 -0.001990236 -0.002051371 -0.002104233 -0.002148236 -0.002165797 -0.002158909 -0.002128036 -0.002074876 -0.002005108
 -0.001918472 -0.001816145 -0.001700004 -0.001571527 -0.001437152 -0.001303424 -0.00117589 -0.00106162 -0.0009585974 -0.0008690049
 -0.0007845755 -0.0007034683 -0.0006180681 -0.0005259103 -0.0004257194 -0.0003160088 -0.0002059435 -9.561957E-05 -3.743246E-06 6.886312E-05
 0.0001097467 0.0001206897 0.0001128929 9.035229E-05 7.981034E-05 8.09413E-05 0.0001084129 0.0001557975 0.0002165308 0.0002858137
 0.0003522978 0.000418394 0.0004812588 0.0005475685 0.0006209639 0.0007066565 0.0008095445 0.0009262467 0.001059541 0.001192093
 0.001321975 0.001428031 0.001505671 0.001554429 0.001572675 0.001587915 0.001601583 0.001643458 0.001712323 0.001809345
 0.00192876 0.00204187 0.002145692 0.002212387 0.002250656 0.002262675 0.002264153 0.002281842 0.002317806 0.002389811
 0.002476947 0.002571004 0.002652005 0.002702786 0.002734519 0.002742761 0.002761062 0.002796861 0.002868225 0.002981588
 0.003119156 0.00328104 0.003430817 0.003566863 0.003668688 0.003738389 0.003789116 0.003824594 0.003872026 0.003929875
 0.004008334 0.004102145 0.004203855 0.004312553 0.004423477 0.004537707 0.004657167 0.004774787 0.004887864 0.004985258
 0.005059087 0.005109815 0.00513286 0.005145209 0.005148246 0.005164345 0.00519726 0.005258068 0.005348874 0.005459643
 0.005589679 0.005714741 0.005833892 0.00592769 0.005998227 0.006044375 0.006072059 0.006098597 0.006130478 0.006191978
 0.006281215 0.006410783 0.006562475 0.006725177 0.006874733 0.006987405 0.007059485 0.007077568 0.007066059 0.007028484
 0.006992485 0.006966265 0.006958172 0.006971801 0.006998291 0.007037513 0.007076079 0.007113365 0.007142638 0.007164717
 0.007186177 0.007207975 0.007239636 0.007279013 0.007323402 0.007372028 0.007419323 0.007472063 0.007538352 0.007622939
 0.007737485 0.007872504 0.008028209 0.008184456 0.00833352 0.008453072 0.008530746 0.008568193 0.008557252 0.008542513
 0.008529834 0.008547928 0.008601718 0.008673475 0.008762262 0.008834798 0.008891252 0.008920684 0.008928241 0.008937041
 0.008949033 0.008985663 0.009039074 0.009102378 0.009168233 0.009220258 0.009260697 0.009285051 0.009299214 0.009307112
 0.009309635 0.009308785 0.00930212 0.009287714 0.009270662 0.009249951 0.009241203 0.009247469 0.009272831 0.009319639
 0.009358989 0.009389366 0.009375052 0.009317496 0.009220335 0.009089869 0.008964059 0.008843602 0.008753425 0.008684517
 0.00862833 0.008578443 0.008518124 0.008453214 0.008382774 0.008315801 0.008259996 0.008216742 0.008190105 0.008174096
 0.008167167 0.008165735 0.008165256 0.008184388 0.008223367 0.008314758 0.008463445 0.008660628 0.008905612 0.009132616
 0.009339319 0.009474702 0.009546575 0.00957131 0.009559172 0.009556221 0.009560606 0.009592838 0.009641891 0.009698136
 0.009756411 0.009803396 0.009849902 0.009896653 0.009963867 0.01006415 0.01020266 0.01038888 0.01060012 0.01083483
 0.01106274 0.01127807 0.01146949 0.01163468 0.01178064 0.01190767 0.01202282 0.0121255 0.01221073 0.01227699
 0.01231146 0.0123168 0.01229153 0.01224756 0.01221031 0.01219157 0.01222633 0.01230559 0.01243928 0.01259635
 0.01275756 0.01289681 0.0129926 0.01304275 0.01303901 0.01299743 0.01291852 0.01282556 0.0127218 0.01262599
 0.01254039 0.01247264 0.01242327 0.01239983 0.01240272 0.01244185 0.01251337 0.01260335 0.01270152 0.01276291
 0.0127847 0.01273288 0.01262298 0.01246259 0.01227205 0.01207867 0.01188989 0.01172183 0.01156982 0.01143585
 0.01131322 0.01119842 0.01109377 0.0109974 0.01092292 0.01087285 0.01085243 0.01086425 0.01088216 0.01090482
 0.01088997 0.01083684 0.01072449 0.01055559 0.01033408 0.01006426 0.009759964 0.009430898 0.009104255 0.008792547
 0.008531258 0.008317931 0.008167414 0.008061462 0.007989721 0.007941454 0.007906365 0.007886627 0.007882368 0.007889709
 0.007909285 0.00792894 0.007945913 0.007959507 0.007968772 0.007984345 0.008006786</values></Ydata></AB><ScSm><Ydata ylabel="Single channel"><values byteorder="INTEL" format="FLOAT32" numvalues="1814"> 0.07160172 0.07159796 0.07165161 0.07179612 0.07201232 0.07223506 0.07239801 0.07247885 0.07249318 0.07245435
 0.07237433 0.07230732 0.07234156 0.07251621 0.07276446 0.0729562 0.07300147 0.07293066 0.07287901 0.07295433
 0.07309286 0.0730764 0.07273715 0.07214926 0.0715814 0.07124861 0.07117703 0.07135967 0.07188861 0.07270184
 0.073299 0.07309884 0.07216895 0.07125962 0.07097165 0.07118011 0.07138404 0.0712877 0.0708943 0.07038898
 0.07018249 0.07079877 0.07235837 0.07415719 0.07492297 0.07361746 0.07017541 0.06573635 0.06222565 0.06132554
 0.06329197 0.06661195 0.06913821 0.06980264 0.06912991 0.06815329 0.06729766 0.06651251 0.06599717 0.0662448
 0.06736867 0.06863777 0.06885057 0.0673651 0.06486201 0.06285992 0.06232534 0.06306453 0.06453504 0.06643615
 0.06789288 0.06699182 0.06266563 0.05707255 0.05463059 0.05781746 0.06452553 0.07012185 0.07156792 0.0691192
 0.06497739 0.06146741 0.06016425 0.06146812 0.0645297 0.06795514 0.07065124 0.07187913 0.07107086 0.06832398
 0.06488132 0.06252602 0.06248708 0.06496036 0.06906945 0.07294682 0.07458431 0.07331658 0.07025997 0.06713264
 0.06512807 0.06492524 0.06685297 0.07054622 0.07492454 0.07882018 0.08145413 0.08251391 0.08222051 0.08118889
 0.07996009 0.07891046 0.07857487 0.07931536 0.08045927 0.08055965 0.07897118 0.07671185 0.07541263 0.07563187
 0.07641436 0.07645392 0.07541426 0.07371397 0.07123367 0.06728831 0.06219832 0.05771416 0.05526796 0.05488019
 0.05619616 0.05904381 0.06221365 0.06339292 0.06169847 0.05928591 0.05921201 0.06217546 0.06616052 0.06889617
 0.06995782 0.07060602 0.07216477 0.07466587 0.07668206 0.07640424 0.07343559 0.06979387 0.06848177 0.07053924
 0.07404662 0.07648878 0.07740796 0.07811514 0.07939881 0.08029945 0.07911039 0.07540703 0.07112882 0.06937698
 0.07171133 0.07658626 0.08047324 0.08047026 0.07625318 0.07014427 0.06530296 0.06354049 0.0648409 0.0685716
 0.07417987 0.08054891 0.08570625 0.08793227 0.08701564 0.08415626 0.08059373 0.0764581 0.07142465 0.06662504
 0.06488042 0.06803253 0.07459158 0.08098213 0.08473258 0.08570328 0.08469917 0.08195369 0.07736187 0.07194894
 0.06834769 0.06875478 0.07228254 0.07546245 0.07587463 0.07435334 0.07320006 0.07331645 0.07387044 0.07406244
 0.07426766 0.07539506 0.07758446 0.07986404 0.08109185 0.08099522 0.08021381 0.07955612 0.0792661 0.07884572
 0.07775191 0.07647572 0.07648702 0.07862551 0.0819466 0.084693 0.0860592 0.08648507 0.08647969 0.08572333
 0.08353186 0.08014828 0.07726514 0.07676898 0.07891663 0.08217566 0.0848159 0.08615153 0.08637953 0.0859565
 0.08528899 0.08459769 0.08398319 0.08371363 0.08416159 0.0852716 0.08643337 0.08709638 0.08722493 0.08702043
 0.08652298 0.08569384 0.08470901 0.08397168 0.08382192 0.08428045 0.0850891 0.08594508 0.08661341 0.08688898
 0.08666709 0.08609623 0.0854907 0.08504588 0.08477016 0.08468075 0.08486922 0.08532365 0.08584245 0.08620496
 0.08634657 0.08632635 0.08620225 0.08599214 0.08571897 0.08545424 0.08531317 0.0853788 0.0856041 0.08583768
 0.08599499 0.08614217 0.08634394 0.08650532 0.08647054 0.08623672 0.08597171 0.08583511 0.08585101 0.08594117
 0.08600776 0.08595804 0.0857079 0.08525453 0.08476606 0.08451624 0.08466613 0.08514593 0.08576321 0.08634604
 0.08676963 0.08696786 0.08698241 0.08692507 0.08684966 0.08671363 0.08648217 0.08622763 0.08610882 0.08625126
 0.08663111 0.08708416 0.08744258 0.08764197 0.08770704 0.08770995 0.08775207 0.08789124 0.08805579 0.08810881
 0.08802206 0.08791983 0.08792944 0.08803782 0.08811864 0.08808075 0.08797415 0.08793968 0.08805698 0.08826914
 0.08846571 0.08860491 0.08873132 0.08889093 0.08904889 0.08910343 0.08899805 0.08880562 0.08865917 0.08860953
 0.08860928 0.08863056 0.08871952 0.08890588 0.08911968 0.08924835 0.08925915 0.08922674 0.08923413 0.08927247
 0.0892603 0.08914792 0.08897365 0.08882061 0.08874571 0.08875164 0.08879811 0.08882789 0.08879907 0.08870884
 0.0885876 0.08846755 0.08835991 0.08826858 0.08822244 0.0882701 0.08841684 0.08857328 0.08860204 0.08843955
 0.08816466 0.08792987 0.08782096 0.08779053 0.08772655 0.08756906 0.08735068 0.08714138 0.08698159 0.08686842
 0.08678002 0.08670138 0.08664435 0.08665338 0.0867677 0.08695436 0.08709902 0.08709998 0.08696882 0.08681306
 0.0867293 0.08673669 0.08679637 0.08686121 0.08691619 0.08699191 0.08712076 0.08726985 0.08735552 0.08734308
 0.08729388 0.08729865 0.08740328 0.08760146 0.08784293 0.08803737 0.08811027 0.08808222 0.08805545 0.0881056
 0.08822013 0.08834961 0.0884764 0.08861113 0.08875538 0.08890323 0.08906904 0.08928576 0.08956902 0.08989124
 0.0901922 0.09041709 0.09056017 0.09068259 0.09087606 0.09119034 0.09159079 0.09198871 0.09231538 0.09257054
 0.09280287 0.09304801 0.09329908 0.09354509 0.09381458 0.09414952 0.09454516 0.09494959 0.09532392 0.09567568
 0.09603091 0.09639837 0.09677109 0.09715065 0.0975576 0.09800868 0.0984797 0.09890436 0.09922886 0.0994662
 0.09968793 0.09996924 0.1003408 0.1007649 0.1011455 0.1013995 0.1015485 0.1017128 0.101982 0.1023184
 0.1026259 0.1028905 0.1031979 0.1036104 0.1040771 0.1044858 0.1047792 0.1050011 0.1052343 0.1055092
 0.1057769 0.1059726 0.1060962 0.1062125 0.1063752 0.1065852 0.1068359 0.1071552 0.1075626 0.1080095
 0.108407 0.1087056 0.1089173 0.1090778 0.1092182 0.109357 0.1094923 0.1096109 0.1097208 0.1098468
 0.1099839 0.1100929 0.1101642 0.1102467 0.1103905 0.1105983 0.1108565 0.1111733 0.1115458 0.111924
 0.1122598 0.1125824 0.1129648 0.113406 0.1137981 0.1140423 0.1141562 0.1142281 0.1143066 0.1143941
 0.1145186 0.1147401 0.1150772 0.1154772 0.1158743 0.1162468 0.1166105 0.1169734 0.117308 0.1175635
 0.1177078 0.1177605 0.1177847 0.1178499 0.1180035 0.1182563 0.1185744 0.1188916 0.1191486 0.1193167
 0.1193835 0.1193443 0.1192344 0.1191433 0.1191491 0.1192291 0.1192635 0.1191338 0.1188015 0.1182917
 0.1176374 0.1168653 0.1160238 0.115199 0.1144879 0.1139575 0.1136351 0.1135426 0.1137201 0.1141897
 0.114891 0.1156819 0.1164108 0.1169699 0.1172762 0.1172529 0.1168714 0.116194 0.1153471 0.1144553
 0.1136056 0.1128374 0.1121401 0.1114897 0.1109296 0.1106116 0.1107305 0.1114105 0.1126415 0.1142879
 0.1161318 0.1179352 0.1195231 0.1208438 0.1219549 0.1229434 0.1238631 0.1247404 0.1256003 0.1264498
 0.1272494 0.1279465 0.1285387 0.1290736 0.1295862 0.1300634 0.1304701 0.1307828 0.1310059 0.131174
 0.1313269 0.1314655 0.1315506 0.1315606 0.1315261 0.1314861 0.1314305 0.1313027 0.1310453 0.1306414
 0.1301436 0.1296948 0.1295098 0.1297952 0.13064 0.1319621 0.1335631 0.1352448 0.1368731 0.1383468
 0.139565 0.140467 0.1410897 0.1415463 0.1419474 0.1423512 0.1427686 0.1431868 0.1435877 0.1439637
 0.1443247 0.1446919 0.145083 0.1454975 0.1459079 0.1462761 0.1465891 0.14688 0.1472071 0.1476055
 0.1480548 0.1484962 0.1488917 0.1492567 0.1496229 0.1499823 0.1502969 0.1505583 0.1508053 0.1510843
 0.1514178 0.1518042 0.1522149 0.1525932 0.1528911 0.1531157 0.1533217 0.1535551 0.1538229 0.1541114
 0.154411 0.1547159 0.1550202 0.1553276 0.1556558 0.1560123 0.1563652 0.1566599 0.1568724 0.1570383
 0.1572185 0.1574434 0.1576975 0.1579496 0.1581917 0.1584481 0.1587502 0.1590987 0.1594502 0.1597482
 0.1599694 0.160139 0.1603031 0.1604949 0.1607237 0.1609811 0.1612489 0.1615062 0.1617434 0.1619702
 0.1622064 0.1624621 0.1627294 0.1629931 0.163246 0.1634932 0.163743 0.1639969 0.1642534 0.1645206
 0.164814 0.1651323 0.1654451 0.1657169 0.1659389 0.1661291 0.1663091 0.1664903 0.166679 0.1668809
 0.1670989 0.1673315 0.1675752 0.1678258 0.1680799 0.1683364 0.1685935 0.1688475 0.1690957 0.1693397
 0.1695863 0.1698429 0.170109 0.1703724 0.1706155 0.1708308 0.1710291 0.1712315 0.1714541 0.171695
 0.1719356 0.1721586 0.1723665 0.172579 0.1728093 0.1730501 0.1732829 0.1734971 0.1736979 0.1738997
 0.1741124 0.1743355 0.1745633 0.1747922 0.1750222 0.1752541 0.1754886 0.175725 0.1759585 0.1761835
 0.1763996 0.1766127 0.1768293 0.177053 0.1772845 0.1775216 0.1777593 0.1779905 0.1782102 0.1784213
 0.1786337 0.1788521 0.179071 0.1792855 0.1795007 0.1797252 0.1799593 0.1801963 0.1804306 0.1806612
 0.1808915 0.1811248 0.1813605 0.1815953 0.1818274 0.1820553 0.1822768 0.1824947 0.1827166 0.1829457
 0.1831787 0.1834149 0.1836564 0.1838986 0.1841311 0.1843471 0.1845484 0.1847436 0.184942 0.1851447
 0.1853436 0.1855354 0.1857281 0.1859299 0.1861415 0.1863608 0.1865836 0.1868006 0.1870058 0.1872068
 0.1874179 0.1876458 0.1878841 0.1881178 0.1883373 0.1885494 0.1887691 0.1889996 0.189233 0.1894647
 0.1896948 0.1899217 0.1901449 0.1903691 0.1905981 0.1908322 0.1910713 0.1913113 0.191544 0.1917681
 0.1919906 0.1922151 0.1924411 0.1926698 0.1929007 0.1931293 0.1933551 0.1935819 0.1938087 0.1940342
 0.1942642 0.1945018 0.1947409 0.1949778 0.1952131 0.1954416 0.1956593 0.195876 0.1961015 0.1963324
 0.1965629 0.1967919 0.1970168 0.1972375 0.1974615 0.1976918 0.1979216 0.1981488 0.1983732 0.1985763
 0.1987078 0.1986397 0.1980527 0.1963203 0.1925003 0.1855284 0.1746487 0.1598961 0.1422459 0.1232643
 0.1045408 0.08728772 0.07222398 0.0596632 0.0496665 0.04214459 0.0369254 0.03386454 0.03295615 0.03443912
 0.03891648 0.04700056 0.05795852 0.06850335 0.07406688 0.07240696 0.06575631 0.05879126 0.05474629 0.05384855
 0.054711 0.05614736 0.05777917 0.05981989 0.06264167 0.06635527 0.07078684 0.07592539 0.08214678 0.08973524
 0.0983007 0.1069357 0.114995 0.1226037 0.1303584 0.1386063 0.1470781 0.1551519 0.1623502 0.1685805
 0.1740378 0.1789848 0.1836025 0.1879743 0.1921409 0.1960996 0.1997145 0.2026772 0.204652 0.2055309
 0.2055628 0.2052163 0.2048987 0.2047885 0.2048884 0.2051605 0.2055866 0.2061593 0.2068668 0.2076864
 0.2085784 0.209498 0.2104125 0.2112984 0.2121365 0.2129198 0.2136514 0.2143289 0.2149443 0.215499
 0.2160037 0.2164661 0.2168922 0.2172919 0.2176732 0.2180395 0.2183945 0.2187389 0.2190618 0.2193495
 0.2196016 0.2198316 0.2200543 0.2202762 0.2204957 0.2207094 0.2209203 0.2211372 0.2213644 0.2215944
 0.2218153 0.2220224 0.2222213 0.2224195 0.2226185 0.2228149 0.223011 0.223215 0.2234278 0.2236363
 0.22383 0.2240157 0.224206 0.2244021 0.2245946 0.2247784 0.2249612 0.2251577 0.2253737 0.2255972
 0.225813 0.2260223 0.2262362 0.2264558 0.2266768 0.2269025 0.2271345 0.2273621 0.2275782 0.2277916
 0.2280062 0.2282042 0.2283685 0.2285137 0.2286778 0.2288858 0.2291232 0.2293508 0.2295468 0.2297291
 0.2299261 0.2301381 0.2303393 0.2305122 0.2306714 0.2308583 0.2311067 0.2314034 0.2316994 0.2319641
 0.2322066 0.2324404 0.2326648 0.2328834 0.2331019 0.2333014 0.2334528 0.2335698 0.2337256 0.2339977
 0.234389 0.2348093 0.235155 0.2354042 0.2356148 0.2358477 0.2361224 0.2364063 0.2366025 0.236613
 0.2364907 0.236468 0.23675 0.2373094 0.2379393 0.2384627 0.2388427 0.2391362 0.2394018 0.2396398
 0.2397924 0.2398082 0.2397373 0.2397563 0.2400402 0.2405778 0.2411662 0.2416211 0.2419271 0.2421593
 0.2423644 0.2425523 0.2426686 0.2425477 0.2420813 0.2415114 0.2413634 0.2419389 0.2429759 0.2439294
 0.2445133 0.2448452 0.2451334 0.245422 0.245651 0.2457141 0.2453486 0.244282 0.2427689 0.2417417
 0.2420452 0.2435852 0.245482 0.2469498 0.2477941 0.2482143 0.2484584 0.2486591 0.2487381 0.2484125
 0.2475117 0.2464014 0.2458933 0.2464981 0.2478502 0.2490967 0.2497652 0.2500189 0.2502074 0.2504739
 0.2506538 0.250233 0.2486486 0.2461172 0.2440394 0.2440117 0.2462676 0.2493976 0.251744 0.2528283
 0.2532175 0.2532949 0.25269 0.2509376 0.2481793 0.2450988 0.2426889 0.242104 0.243904 0.2471097
 0.2497572 0.250831 0.2511188 0.2519116 0.2534607 0.254997 0.2557345 0.2554761 0.2544612 0.2529306
 0.2510222 0.2491922 0.2484512 0.2496411 0.2524177 0.2553825 0.2573752 0.2583496 0.2587646 0.2582343
 0.2552562 0.2490209 0.2416746 0.2377276 0.240072 0.2469539 0.2538552 0.2579362 0.2595942 0.2603421
 0.2607859 0.2604552 0.2580804 0.2522885 0.2437623 0.2365952 0.235516 0.241208 0.2495381 0.2554193
 0.2562708 0.2522805 0.2454989 0.2392405 0.2367309 0.239146 0.2450918 0.2519816 0.257594 0.2606912
 0.2610006 0.2590781 0.2562604 0.2543495 0.2543123 0.2548473 0.2533706 0.2492868 0.2449894 0.2423497
 0.2398213 0.2352972 0.230727 0.2308223 0.2369282 0.2447723 0.2492661 0.2496577 0.2486105 0.2473564
 0.2435958 0.2348141 0.2230473 0.2149741 0.2160746 0.2249416 0.2345385 0.23909 0.2386678 0.2371244
 0.2369531 0.2367519 0.2332054 0.2254138 0.2170995 0.2134922 0.2157708 0.2200012 0.2217926 0.2198127
 0.2142704 0.2054868 0.1963746 0.1933527 0.2009395 0.216219 0.2311203 0.239062 0.2373662 0.2258203
 0.2075923 0.1911372 0.1860865 0.1946338 0.2088784 0.2180965 0.2172568 0.207922 0.1936557 0.1775716
 0.1637714 0.1578096 0.1633708 0.1785277 0.1957883 0.2058347 0.2026831 0.1883378 0.1731676 0.1684368
 0.1760585 0.1872834 0.1924913 0.1899132 0.1842552 0.1806418 0.1816489 0.1868725 0.1933678 0.1984019
 0.201627 0.202019 0.1949451 0.1777594 0.1572461 0.1451561 0.1459968 0.1547228 0.1661503 0.1795901
 0.1927235 0.1984316 0.1928277 0.1826431 0.1794988 0.1875761 0.2000473 0.2074384 0.2070225 0.2033032
 0.2010792 0.2003196 0.1985926 0.1966531 0.1986372 0.2063246 0.2159997 0.2225909 0.2249471 0.2253712
 0.2257376 0.2260813 0.2259031 0.2250139 0.2234662 0.2216969 0.2203969 0.2197354 0.2192069 0.2184045
 0.2170046 0.2136118 0.2060705 0.1945032 0.1832275 0.1773463 0.1773558 0.179495 0.1813486 0.1832668
 0.1831407 0.1749223 0.1566212 0.1368729 0.1286536 0.136746 0.1541811 0.170175 0.1783659 0.1773573
 0.1675256 0.1512906 0.1357735 0.130554 0.1398321 0.1583828 0.1771486 0.1910461 0.1995052 0.2021244
 0.1977711 0.1877422 0.1770125 0.1713957 0.1740212 0.1839531 0.1964653 0.2042169 0.2008471 0.1873305
 0.1748123 0.1763682 0.193237 0.2126974 0.2223634 0.2227354 0.2221106 0.2236931 0.2240324 0.2221275
 0.2230489 0.2309903 0.2430957 0.252269 0.2534042 0.2454049 0.2305095 0.2147675 0.2064587 0.2094482
 0.218766 0.2259829 0.2273492 0.2232963 0.2134663 0.1987903 0.1867515 0.1868888 0.199752 0.2156421
 0.22564 0.2297325 0.2327698 0.2360968 0.2359163 0.2290375 0.2181961 0.2103605 0.2098361 0.2144974
 0.2193757 0.2218886 0.2218866 0.2187012 0.2115548 0.2028735 0.1983137 0.2018535 0.2116722 0.2218519
 0.2276777 0.2285996 0.2268189 0.2244693 0.2222025 0.2193761 0.2154605 0.2118597 0.2116395 0.2162235
 0.2230731 0.2282755 0.2310167 0.2338363 0.2386297 0.244015 0.2469878 0.2461804 0.2431626 0.2410834
 0.242146 0.245853 0.2493772 0.2499788 0.2476122 0.2452073 0.2459638 0.2502953 0.2557862 0.2599398
 0.2622086 0.263458 0.2644983 0.2653888 0.2653963 0.2635471 0.2600212 0.2569764 0.2570239 0.2606339
 0.2656812 0.2696323 0.2715876 0.2721467 0.2720225 0.271292 0.2697996 0.2678351 0.2661616 0.2654119
 0.265632 0.2664361 0.2674184 0.268328 0.2690391 0.2695313 0.269863 0.2700872 0.2702242 0.2703127
 0.2703938 0.2704291 0.2703419 0.2701828 0.2701505 0.2703748 0.270745 0.2710244 0.2710674 0.2708353
 0.2702674 0.2692899 0.2679515 0.2664163 0.2647738 0.2629779 0.2610902 0.2595379 0.2589802 0.2598147
 0.2618135 0.264266 0.2664616 0.2680418 0.2689962 0.2694775 0.2696655 0.2697152 0.2697231 0.2697066
 0.2696341 0.2694802 0.269251 0.2689685 0.268653 0.2683277 0.2680244 0.2677676 0.2675495 0.2673276
 0.2670507 0.2666912 0.2662589 0.2657861 0.265294 0.2647645 0.2641467 0.2633926 0.2624955 0.2615036
 0.2605028 0.2595721 0.2587312 0.2579243 0.2570713 0.2561296 0.2550881 0.2539209 0.2526061 0.2512058
 0.2498686 0.2487119 0.2477254 0.2468049 0.2458453 0.2447827 0.2435966 0.2423102 0.2409715 0.239612
 0.2382293 0.2368091 0.2353415 0.2338148 0.2322168 0.2305468 0.2288154 0.2270334 0.2252111 0.2233555
 0.2214477 0.2194204 0.2171681 0.2145737 0.2115254 0.2079324 0.2037632 0.1990862 0.1940695 0.1889296
 0.1838684 0.1790447 0.1745832 0.1705891 0.1671468 0.1643112 0.1621136 0.160577 0.1597238 0.1595719
 0.1601248 0.161356 0.1631884 0.1654911 0.1681003 0.1708507 0.1735909 0.1761914 0.1785728 0.1807417
 0.1827803 0.1847664 0.1866994 0.1885174 0.1901716 0.1916563 0.1929727 0.1941048 0.1950455 0.1958242
 0.1964925 0.19709 0.197631 0.1981169 0.1985542 0.198955 0.1993239 0.1996556 0.1999526 0.2002409
 0.2005557 0.2009157 0.2013187 0.2017633 0.2022654 0.202845 0.2034976 0.2041943 0.2049134 0.2056592
 0.2064445 0.2072739 0.20816 0.209143 0.2102765 0.21159 0.2130676 0.2146555 0.2162819 0.2178707
 0.2193448 0.2206287 0.2216659 0.2224373 0.222963 0.223284 0.223441 0.2234662 0.2233881 0.2232334
 0.223016 0.2227299 0.2223641 0.2219274 0.2214455 0.2209356 0.2203976 0.219833 0.2192568 0.2186865
 0.2181298 0.217586 0.2170539 0.2165331 0.2160211 0.2155118 0.2149981 0.2144766 0.2139461 0.2134031
 0.2128416 0.2122539 0.2116239 0.2109214 0.2101133 0.2091818 0.2081263 0.2069541 0.2056772 0.2043126
 0.2028752 0.2013723 0.1998086 0.1981906 0.1965195 0.1947786 0.1929336 0.1909569 0.1888633 0.1867237
 0.1846355 0.1826755 0.1808726 0.179207 0.1776284 0.1760938 0.174598 0.1731644 0.1718112 0.1705397
 0.1693452 0.1682182 0.1671424 0.1661087 0.1651293 0.1642285 0.1634246 0.1627229 0.162119 0.1616043
 0.1611679 0.1607965 0.1604856 0.160259 0.1601567 0.1601798 0.1602595 0.1602991 0.1602436 0.1601024
 0.1599228 0.1597516 0.1596149 0.1595178 0.1594469 0.1593613 0.1591892 0.1588427 0.1582356 0.1573008
 0.1560194 0.1544386 0.1526511 0.1507682 0.1489152 0.1472128 0.1457396 0.1445281 0.1435874 0.1428906
 0.1423588 0.1419083 0.141522 0.1412552 0.1411771 0.1412953 0.1415063 0.1416488 0.1416521 0.1416173
 0.1417229 0.142078 0.1426697 0.1433968 0.1441304 0.1447766 0.1452903 0.1456411 0.1458143 0.1458484
 0.1458133 0.1457404 0.1456123 0.1454048 0.145111 0.1447477 0.1443488 0.1439203 0.1434169 0.1427963
 0.1420692 0.1412727 0.1404316 0.1395398 0.1385361 0.1373479 0.1360325 0.1348363 0.1340567 0.1338645
 0.134242 0.1350132 0.1359546 0.136937 0.1378997 0.1386685 0.1389971 0.1389438 0.1390688 0.1400324
 0.1419668 0.1443323 0.1463979 0.1477688 0.1484327 0.1484809 0.1479726 0.1469724 0.1455132 0.1435556
 0.1411073 0.1382974 0.1352705 0.1321536 0.1291446 0.126459 0.1241971 0.1223663 0.1209509 0.1199815
 0.1195821 0.1193754 0.1174798 0.1115059 0.1022625 0.09537685 0.0965464 0.1051256 0.1145976 0.1194576
 0.1195774 0.1178958 0.1164193 0.1154409 0.1148709 0.1148771 0.1155951 0.1168693 0.1182984 0.1194759
 0.1202318 0.1205975 0.1205384 0.1197238 0.1174482 0.112859 0.1056455 0.0966569 0.08761734 0.08010994
 0.07486197 0.07176637 0.07022167 0.06947464 0.06898709 0.06869346 0.06890164 0.06991971 0.0717932 0.0743663
 0.07745175 0.08080985 0.0840479 0.08676834 0.08886249 0.09050712 0.09184432 0.09280352 0.09325384 0.09319378
 0.0927489 0.09207507 0.0913044 0.09051459 0.0896796 0.08868314 0.08748198 0.0862694 0.08536716 0.08491763
 0.08478287 0.08475995 0.08476467 0.08478592 0.08480064 0.0847817 0.08472493 0.08467329 0.08473898 0.08503099
 0.08551963 0.08603212 0.08640352 0.08659838 0.08668992 0.08672103 0.08657497 0.08607896 0.08531156 0.08463201
 0.08421995 0.08376181 0.08286101 0.08164889 0.08071351 0.08045644 0.08073212 0.08109856 0.08122675 0.08105698
 0.08076143 0.08065692 0.08099477 0.08166694</values></Ydata></ScSm><ScRf><Ydata ylabel="Single channel"><values byteorder="INTEL" format="FLOAT32" numvalues="1820"> 0.06079976 0.06095219 0.06104328 0.06107259 0.06106528 0.06106872 0.06113388 0.06128264 0.06148817 0.06168747
 0.06182368 0.06188362 0.061887 0.06184642 0.06177005 0.06170457 0.06172874 0.06187717 0.06208993 0.06225353
 0.06229145 0.06223075 0.06218785 0.06225628 0.06238122 0.06237135 0.06207828 0.06156733 0.06107603 0.06079315
 0.06073768 0.06089604 0.06134326 0.06203084 0.06254061 0.06238172 0.06160823 0.06085066 0.0606145 0.06079398
 0.06096803 0.06088848 0.06055531 0.06012027 0.05993276 0.06044768 0.06177775 0.06332237 0.06398366 0.06286134
 0.05989716 0.0560768 0.05306379 0.05230692 0.05401953 0.05688889 0.0590614 0.05962368 0.05904044 0.05820856
 0.05748877 0.05682769 0.05639265 0.05660848 0.05757103 0.05864988 0.05881758 0.05753317 0.05538678 0.05367759
 0.0532258 0.05385962 0.05511653 0.05674674 0.05800273 0.05723425 0.05351322 0.04869138 0.04657622 0.04931267
 0.05509449 0.05992854 0.06118585 0.05908093 0.05551817 0.05250913 0.05140509 0.05253616 0.05516442 0.05809689
 0.06040417 0.06145741 0.06076717 0.05840977 0.05544671 0.05341379 0.05337961 0.0555211 0.05908039 0.06243844
 0.06385654 0.06275897 0.06011175 0.05740408 0.05567161 0.05550025 0.0571698 0.06036265 0.06414646 0.06751396
 0.06979194 0.07070909 0.07045714 0.06957337 0.06853153 0.06765221 0.06738142 0.06802048 0.06899453 0.06906889
 0.06769367 0.06574595 0.06463258 0.06483756 0.06553499 0.06559004 0.06470551 0.0632412 0.06109578 0.05768035
 0.05327605 0.0493997 0.04728894 0.04695775 0.04809879 0.05056843 0.05332569 0.05436766 0.05292092 0.0508415
 0.05077233 0.05332307 0.05675686 0.05911412 0.06003037 0.06059632 0.06195375 0.0641242 0.06586944 0.06562683
 0.06305908 0.05991732 0.05880082 0.06060484 0.06365989 0.0657841 0.06658441 0.06720303 0.06832674 0.06912452
 0.06811944 0.06494713 0.06128594 0.05981173 0.0618645 0.06610364 0.06947786 0.06947705 0.06582337 0.06053578
 0.05635726 0.05485372 0.05600533 0.05926738 0.06417155 0.06975566 0.07430528 0.0763156 0.07558442 0.07313988
 0.07006133 0.06647525 0.06210943 0.05795415 0.05647463 0.05928479 0.06508423 0.07074115 0.07408784 0.07500257
 0.07419004 0.07184281 0.06785145 0.06311521 0.05997031 0.06037401 0.06355043 0.06643128 0.06686884 0.06559292
 0.06463637 0.06479887 0.06534693 0.06557553 0.06582119 0.06689331 0.06891689 0.07102797 0.07220735 0.07220311
 0.07157685 0.07105146 0.07085302 0.07054034 0.0696283 0.06856188 0.06866369 0.07068156 0.07375415 0.0762955
 0.07758837 0.07804212 0.07811922 0.07751718 0.07559833 0.07257912 0.07001181 0.06963103 0.07167765 0.0747477
 0.07725099 0.07855688 0.07885025 0.07855305 0.07803363 0.07748799 0.07700863 0.07684652 0.07734604 0.07845357
 0.07960358 0.08028579 0.08046554 0.08033055 0.07992649 0.07923152 0.07841787 0.0778528 0.07783271 0.07836004
 0.07919128 0.08005208 0.08073501 0.08105814 0.08092552 0.08046997 0.07997891 0.07963411 0.07944563 0.07943168
 0.07967968 0.08017857 0.08073627 0.08114167 0.08133351 0.08137127 0.08131398 0.08117927 0.08098534 0.080797
 0.0807246 0.08084869 0.0811227 0.081401 0.08160858 0.08181824 0.08209312 0.08232939 0.08236183 0.08218642
 0.08197799 0.08189815 0.08196039 0.08207692 0.08215889 0.08213553 0.08193664 0.08155533 0.08114389 0.08095976
 0.08115768 0.08167623 0.08233786 0.08297746 0.08346418 0.08372025 0.08377992 0.08375545 0.0837063 0.08359539
 0.08339094 0.0831659 0.08307753 0.08325031 0.08366497 0.08416316 0.08457311 0.08481772 0.08491731 0.08495463
 0.08504036 0.08522524 0.08542253 0.08549152 0.08541635 0.08533482 0.08537233 0.08550085 0.08558495 0.08554139
 0.08543436 0.08540948 0.08554082 0.08576496 0.08597122 0.08612613 0.08628628 0.08649957 0.08671282 0.08679847
 0.08669261 0.08648551 0.08633036 0.08628099 0.08628421 0.08631645 0.08643387 0.08666043 0.08690327 0.08703668
 0.08704147 0.08701648 0.08705417 0.08713505 0.08715747 0.08705476 0.08686324 0.08668349 0.08659805 0.08662437
 0.08671822 0.08680552 0.08682443 0.08675943 0.08664354 0.08652401 0.08642775 0.0863697 0.0863874 0.08653015
 0.0867831 0.08702012 0.08707958 0.08690936 0.086624 0.08640322 0.08633249 0.0863442 0.08630413 0.08614025
 0.08588764 0.08563149 0.08543034 0.08529031 0.0851873 0.08510199 0.08504641 0.08506395 0.08518161 0.08534456
 0.08542238 0.0853183 0.08506812 0.08480439 0.08463362 0.08457187 0.08457372 0.08458382 0.08457763 0.08458382
 0.08464532 0.08473939 0.08477779 0.08471248 0.08459945 0.0845378 0.08458786 0.08475235 0.08497462 0.0851423
 0.08515993 0.08504842 0.08493122 0.08490752 0.08497337 0.08506982 0.08516169 0.08524951 0.08533937 0.08543475
 0.08555267 0.08572289 0.0859587 0.08623067 0.08647609 0.08664262 0.08673336 0.08681417 0.08696905 0.08723378
 0.08756687 0.08788546 0.08813339 0.08831947 0.08849306 0.08868448 0.08888093 0.0890678 0.08927225 0.08953642
 0.08985795 0.09018931 0.09049509 0.09078176 0.09107102 0.09136959 0.09167255 0.09198561 0.09233573 0.09274674
 0.09319089 0.0935802 0.09383618 0.09396999 0.09407928 0.09427229 0.09459566 0.09500086 0.09536167 0.09556701
 0.09563467 0.09570427 0.09588496 0.09614433 0.09638873 0.09661599 0.09692182 0.09735804 0.09784275 0.09823446
 0.0984689 0.09860525 0.09874952 0.09894459 0.09913896 0.09926435 0.09932868 0.09940554 0.09954078 0.09971832
 0.09992942 0.1002168 0.1006081 0.1010467 0.1014343 0.1017221 0.1019249 0.102074 0.1021902 0.1022819
 0.1023415 0.1023624 0.1023732 0.1024232 0.1025174 0.1026005 0.1026323 0.1026461 0.1027078 0.1028475
 0.1030582 0.1033303 0.1036452 0.1039557 0.1042251 0.1044877 0.1048149 0.1052019 0.1055355 0.1057129
 0.1057556 0.1057616 0.1057841 0.1058163 0.1058743 0.1060169 0.1062729 0.1066017 0.1069454 0.1072855
 0.1076328 0.1079825 0.1082961 0.10852 0.108622 0.1086203 0.1085823 0.108593 0.1087153 0.1089608
 0.1092842 0.109612 0.1098879 0.110086 0.1101874 0.1101794 0.1101022 0.1100646 0.1101593 0.1103582
 0.1105225 0.1105226 0.1103228 0.1099523 0.1094397 0.1088065 0.1081054 0.1074298 0.106871 0.1064753
 0.10625 0.1062108 0.1064024 0.1068501 0.1074958 0.1082099 0.1088685 0.1093905 0.1097006 0.1097125
 0.1093881 0.1087919 0.1080568 0.1073068 0.106617 0.1060057 0.1054376 0.1048702 0.1043418 0.1040068
 0.1040602 0.1046196 0.1056692 0.1070739 0.1086212 0.1100867 0.1113206 0.1123037 0.1131142 0.113837
 0.1145127 0.1151607 0.1158118 0.1164805 0.1171267 0.1176867 0.1181446 0.1185446 0.1189341 0.1193202
 0.1196773 0.1199762 0.120211 0.1204125 0.120617 0.1208085 0.120919 0.120907 0.1208086 0.1206899
 0.1205714 0.1204161 0.1201712 0.1198095 0.1193646 0.1189559 0.1187719 0.1189877 0.1196655 0.1207178
 0.1219743 0.1232876 0.1245688 0.1257374 0.1266924 0.1273689 0.1278016 0.1280998 0.128364 0.1286398
 0.1289325 0.1292351 0.1295395 0.1298391 0.1301299 0.1304192 0.1307274 0.1310675 0.1314168 0.1317247
 0.1319658 0.1321784 0.1324372 0.1327841 0.1331871 0.1335726 0.1339029 0.1342072 0.1345246 0.1348355
 0.1350836 0.1352572 0.1354128 0.1356204 0.1359122 0.1362779 0.1366696 0.1370145 0.1372612 0.1374264
 0.1375755 0.1377579 0.1379782 0.1382232 0.1384852 0.138755 0.1390178 0.1392746 0.1395497 0.1398582
 0.1401671 0.1404142 0.1405746 0.1406928 0.1408406 0.1410496 0.1412926 0.1415226 0.1417216 0.1419196
 0.1421653 0.1424724 0.1427946 0.143061 0.1432377 0.1433508 0.143455 0.1435901 0.1437669 0.1439763
 0.1442007 0.1444213 0.1446282 0.1448265 0.1450299 0.1452448 0.1454645 0.1456791 0.1458855 0.1460889
 0.1462957 0.1465082 0.1467293 0.1469709 0.1472475 0.1475505 0.1478391 0.1480713 0.148241 0.1483754
 0.1485037 0.1486382 0.1487812 0.148936 0.1491104 0.1493108 0.1495318 0.1497571 0.1499747 0.1501865
 0.1503992 0.1506111 0.1508155 0.1510144 0.1512205 0.1514455 0.1516878 0.151932 0.1521611 0.1523677
 0.1525557 0.1527369 0.1529256 0.1531253 0.1533222 0.1534991 0.1536595 0.1538271 0.1540194 0.1542315
 0.1544453 0.1546476 0.1548369 0.1550192 0.155201 0.1553843 0.1555699 0.1557614 0.1559626 0.156172
 0.1563839 0.1565922 0.1567938 0.1569902 0.157187 0.1573883 0.1575945 0.157804 0.1580135 0.1582176
 0.1584128 0.1586 0.1587811 0.1589581 0.1591359 0.1593218 0.1595199 0.1597293 0.1599457 0.1601616
 0.1603711 0.1605743 0.1607745 0.1609731 0.1611709 0.1613699 0.161571 0.1617741 0.1619833 0.1622044
 0.1624357 0.1626671 0.1628913 0.1631081 0.1633204 0.1635307 0.16374 0.1639487 0.1641563 0.1643589
 0.1645484 0.1647215 0.1648868 0.1650569 0.1652358 0.165419 0.1656007 0.1657782 0.1659537 0.1661342
 0.1663227 0.1665152 0.1667091 0.1669093 0.1671211 0.1673412 0.1675617 0.1677748 0.1679766 0.1681696
 0.1683609 0.1685563 0.1687593 0.1689712 0.1691868 0.1693979 0.1696028 0.1698076 0.1700159 0.1702271
 0.1704415 0.1706573 0.1708701 0.1710795 0.1712896 0.1715009 0.1717128 0.1719284 0.1721469 0.172359
 0.1725598 0.172756 0.1729566 0.1731658 0.1733827 0.1735982 0.1738038 0.1740067 0.1742222 0.1744507
 0.1746793 0.1749015 0.1751188 0.1753329 0.1755452 0.1757557 0.1759591 0.1761554 0.1763557 0.1765662
 0.1767808 0.1769945 0.1772038 0.1773899 0.1775067 0.1774414 0.1769138 0.1753682 0.1719611 0.1657348
 0.1560065 0.1428049 0.1270058 0.110016 0.09325968 0.07781757 0.06432935 0.053078 0.04412416 0.03739171
 0.03272539 0.029989 0.02916901 0.03047969 0.03447427 0.04171584 0.05155 0.06102191 0.06602743 0.06455207
 0.05859622 0.05235228 0.04872099 0.04790794 0.04867195 0.04995007 0.05140239 0.05322156 0.05574358 0.05906647
 0.06303217 0.06763697 0.07322922 0.08006389 0.08777595 0.09553768 0.102772 0.1096037 0.116577 0.1240018
 0.1316257 0.13888 0.1453362 0.1509247 0.1558351 0.1603052 0.1644867 0.1684438 0.1722116 0.1757926
 0.1790678 0.1817584 0.1835595 0.1843689 0.1844038 0.1840831 0.183781 0.1836728 0.1837703 0.1840363
 0.1844451 0.1849841 0.1856431 0.1864004 0.1872125 0.1880333 0.1888411 0.1896349 0.190412 0.1911597
 0.1918592 0.1924921 0.1930528 0.1935559 0.1940222 0.1944612 0.1948733 0.1952584 0.1956163 0.1959515
 0.1962761 0.1965974 0.196906 0.1971853 0.19743 0.1976494 0.1978597 0.198075 0.1983 0.1985292
 0.1987553 0.1989757 0.1991886 0.1993918 0.1995869 0.1997788 0.1999715 0.2001688 0.2003726 0.2005765
 0.2007698 0.2009503 0.201127 0.2013081 0.2014956 0.2016894 0.2018892 0.2020921 0.2022946 0.2024957
 0.2026973 0.2029039 0.2031157 0.2033229 0.2035131 0.2036908 0.2038754 0.2040771 0.2042866 0.2044941
 0.204702 0.2049171 0.2051398 0.2053622 0.2055692 0.2057484 0.2059054 0.2060656 0.2062547 0.2064794
 0.2067229 0.206959 0.2071712 0.2073616 0.2075425 0.2077245 0.2079111 0.2080965 0.2082746 0.2084571
 0.2086706 0.2089209 0.2091808 0.2094272 0.2096644 0.2099023 0.2101401 0.2103804 0.2106236 0.2108429
 0.2110025 0.2111138 0.2112499 0.2114863 0.2118295 0.2122082 0.2125408 0.2128022 0.2130218 0.2132404
 0.2134881 0.2137567 0.213962 0.2140015 0.2139105 0.2139003 0.214163 0.214676 0.2152519 0.2157337
 0.2160932 0.216381 0.2166403 0.2168655 0.2170109 0.2170413 0.2170029 0.2170449 0.2173211 0.2178312
 0.2184012 0.2188569 0.2191651 0.2193814 0.2195514 0.2196979 0.2197873 0.219682 0.219287 0.2188132
 0.2187224 0.2192802 0.2202525 0.2211518 0.221716 0.2220415 0.222313 0.222578 0.2227947 0.2228709
 0.222563 0.2216175 0.220266 0.2193599 0.2196681 0.221101 0.2228554 0.224216 0.2250046 0.225401
 0.2256359 0.2258407 0.2259479 0.2256912 0.224903 0.2239136 0.2234717 0.2240501 0.2253133 0.2264774
 0.2271139 0.2273788 0.2275875 0.2278583 0.2280362 0.2276623 0.2262358 0.2239587 0.2221066 0.2221307
 0.224238 0.2271391 0.2293219 0.2303474 0.2307294 0.2308216 0.2302969 0.228736 0.2262617 0.2234895
 0.2213253 0.2208294 0.2225152 0.2254819 0.2279261 0.2289176 0.2291837 0.229917 0.2313575 0.232803
 0.2335238 0.2333263 0.2324297 0.2310686 0.2293809 0.227778 0.2271651 0.2283003 0.2308754 0.2336252
 0.2354946 0.2364384 0.2368734 0.2364424 0.2337606 0.2280787 0.2213668 0.2177697 0.2199481 0.2262985
 0.2326797 0.236486 0.2380767 0.2388316 0.2392964 0.2390324 0.236875 0.2315705 0.2237523 0.2171869
 0.21623 0.2215191 0.2292511 0.2347306 0.235566 0.2319292 0.2257203 0.2199993 0.2177318 0.2199963
 0.2255173 0.2319264 0.2371826 0.2401368 0.2405194 0.2388255 0.2362849 0.2345721 0.2345941 0.2351549
 0.2338673 0.2301763 0.2262852 0.2239181 0.2216466 0.2175272 0.2133694 0.2135417 0.2192909 0.2266497
 0.2308952 0.2313401 0.2304682 0.229417 0.2260302 0.2179577 0.2070984 0.1996852 0.2008337 0.2092308
 0.2183108 0.2226924 0.2224543 0.2211926 0.2212206 0.2212108 0.2180577 0.2109269 0.2033125 0.2001085
 0.2024082 0.2065299 0.2083793 0.2067154 0.2017103 0.1936373 0.1852382 0.182588 0.189978 0.2046701
 0.2190304 0.2268107 0.2254453 0.2147085 0.1976112 0.182233 0.1777888 0.1863753 0.2004214 0.2096497
 0.2092279 0.2006315 0.1872617 0.1721272 0.1592421 0.1540557 0.1601961 0.1757893 0.1934677 0.2040103
 0.2014421 0.1877106 0.1731438 0.1690241 0.1772911 0.1891716 0.1949916 0.19295 0.1877599 0.1845996
 0.1861355 0.1920089 0.1992126 0.2049295 0.2087837 0.2096528 0.202647 0.1849785 0.1637297 0.1511847
 0.1520776 0.1611738 0.1730912 0.1871336 0.2008846 0.206889 0.2010562 0.1904009 0.1870648 0.1954219
 0.2083392 0.2159094 0.215263 0.2110838 0.2083883 0.207186 0.2049873 0.2025941 0.2043047 0.2119826
 0.2218108 0.2285603 0.2310309 0.2315743 0.2320991 0.2326227 0.2326255 0.2319236 0.2305883 0.2290723
 0.228071 0.2277367 0.2275356 0.227056 0.2259765 0.2228324 0.2153327 0.2035754 0.1920946 0.1862651
 0.1866049 0.189144 0.191338 0.1935538 0.1935481 0.1849129 0.1655323 0.1445265 0.1356142 0.1438543
 0.1618768 0.1782887 0.1864007 0.1848066 0.1739908 0.1565377 0.1398379 0.1337613 0.1426101 0.160996
 0.1795989 0.1931892 0.2012109 0.203331 0.198462 0.1879302 0.176736 0.1706922 0.1728911 0.1823521
 0.1943415 0.2015822 0.1978232 0.1840649 0.171287 0.1723333 0.1884302 0.2071244 0.2162782 0.2163535
 0.2154544 0.2167369 0.2168597 0.2148427 0.2156038 0.2232214 0.2349428 0.2439035 0.2451566 0.2376215
 0.223443 0.2084877 0.2008156 0.2041802 0.2136958 0.221099 0.2227159 0.2189684 0.2095057 0.1952605
 0.1836134 0.183952 0.1967995 0.2125912 0.2225424 0.2266492 0.2297019 0.2330349 0.2329089 0.2261811
 0.2155598 0.2079362 0.207576 0.2123969 0.2175092 0.2203711 0.2208158 0.2181341 0.2115199 0.2034023
 0.199473 0.2037435 0.2143721 0.2253495 0.2318451 0.2332302 0.231692 0.2293939 0.2270128 0.2238999
 0.2195199 0.2153229 0.2144654 0.2184366 0.2246931 0.229281 0.2313718 0.2335362 0.2377118 0.2425345
 0.2449953 0.2437197 0.2402709 0.237777 0.2384124 0.2416763 0.2447794 0.2450281 0.2423823 0.2397331
 0.2402436 0.2443324 0.2496182 0.2536275 0.2558136 0.2570353 0.2580896 0.2590097 0.2590417 0.2572166
 0.2537201 0.2506759 0.2506389 0.2540659 0.258884 0.262634 0.2644575 0.2649533 0.2648195 0.2641293
 0.2627302 0.2608995 0.2593664 0.2587295 0.2590216 0.2598609 0.2608471 0.2617355 0.2624087 0.262857
 0.2631485 0.263346 0.2634764 0.2635743 0.263664 0.2636919 0.263582 0.2633971 0.2633459 0.2635598
 0.2639269 0.2642111 0.2642662 0.2640493 0.2634962 0.2625337 0.26122 0.2597406 0.2582075 0.2565768
 0.2548802 0.2535001 0.2530634 0.2539601 0.2559732 0.2584106 0.2605854 0.2621608 0.2631357 0.2636549
 0.2638832 0.2639633 0.2639804 0.2639421 0.2638157 0.2635888 0.2632843 0.26293 0.2625399 0.2621339
 0.2617568 0.2614504 0.2612055 0.2609567 0.2606317 0.2602022 0.2596939 0.2591574 0.2586262 0.2580813
 0.2574559 0.2566877 0.2557752 0.2547838 0.2538077 0.2529179 0.2521261 0.2513849 0.2506339 0.2498402
 0.2489794 0.2480024 0.2468792 0.2456846 0.2445858 0.2437072 0.2430288 0.2424292 0.2417913 0.2410462
 0.240167 0.2391709 0.2381139 0.2370463 0.2359734 0.2348695 0.2337092 0.2324724 0.2311403 0.2297055
 0.2281765 0.2265724 0.2249228 0.2232639 0.2215993 0.2198564 0.2178983 0.2155796 0.2127856 0.2094416
 0.2055277 0.2011072 0.1963327 0.1914064 0.186525 0.1818488 0.1775055 0.1736027 0.1702314 0.1674637
 0.1653526 0.1639312 0.1632146 0.1632042 0.1638874 0.1652311 0.1671748 0.1696216 0.1724294 0.1754175
 0.1783991 0.1812222 0.183805 0.1861577 0.1883578 0.1904684 0.1924755 0.1943178 0.1959588 0.1974011
 0.1986457 0.1996796 0.2005065 0.2011659 0.2017132 0.2021912 0.2026185 0.2029965 0.2033228 0.2035974
 0.2038246 0.2040149 0.2041874 0.2043662 0.2045691 0.2047985 0.20505 0.205338 0.2057026 0.2061707
 0.2067145 0.2072736 0.2078204 0.2083802 0.2089882 0.2096532 0.2103754 0.2111805 0.2121192 0.213228
 0.2144947 0.2158607 0.2172454 0.2185659 0.2197467 0.2207338 0.2214995 0.2220297 0.2223221 0.2224054
 0.2223378 0.2221645 0.221891 0.2215089 0.2210313 0.2204912 0.2199178 0.2193238 0.2187076 0.2180596
 0.2173727 0.2166553 0.2159304 0.2152181 0.2145212 0.2138373 0.2131788 0.2125652 0.2119952 0.2114426
 0.2108832 0.2103124 0.2097358 0.2091575 0.2085769 0.2079809 0.2073386 0.2066154 0.2057948 0.204881
 0.2038802 0.2027876 0.2015945 0.2003029 0.1989269 0.19748 0.1959645 0.1943766 0.1927181 0.1909946
 0.1891981 0.1873069 0.1853204 0.1832915 0.1813088 0.179442 0.1777131 0.1761108 0.174614 0.1732036
 0.1718684 0.1706022 0.1693938 0.1682308 0.1671125 0.1660456 0.1650275 0.1640529 0.1631366 0.162314
 0.1616111 0.1610197 0.1605029 0.1600269 0.1595881 0.1592072 0.1589109 0.1587241 0.1586613 0.1587023
 0.1587847 0.1588356 0.1588115 0.1587113 0.1585668 0.1584203 0.158302 0.1582234 0.1581793 0.1581356
 0.1580179 0.15773 0.1571844 0.1563222 0.1551293 0.1536443 0.1519382 0.1500984 0.1482423 0.146511
 0.1450172 0.1438136 0.1429075 0.1422653 0.1418056 0.1414396 0.1411368 0.1409394 0.1409166 0.1410862
 0.1413558 0.1415664 0.1416369 0.1416471 0.1417623 0.1421062 0.1426975 0.1434508 0.144227 0.1449163
 0.1454721 0.145874 0.146117 0.1462371 0.1462823 0.1462575 0.1461433 0.1459467 0.1456947 0.1454031
 0.1450698 0.1446695 0.1441669 0.1435606 0.14288 0.1421352 0.1413171 0.1404272 0.1394443 0.1383185
 0.1370889 0.1359639 0.1352223 0.1350526 0.1354672 0.1362992 0.1373142 0.1383757 0.139422 0.1402658
 0.1406395 0.1405988 0.1407298 0.1417285 0.143744 0.1462207 0.1483907 0.1498297 0.1505249 0.1505944
 0.1501314 0.1492108 0.1478324 0.1459061 0.1434232 0.1405447 0.1374552 0.1342965 0.1312605 0.1285515
 0.1262654 0.1244166 0.1229979 0.1220377 0.1216588 0.1214897 0.1196266 0.1136222 0.1042677 0.09727606
 0.09846511 0.107212 0.1168992 0.121902 0.122055 0.1203454 0.1188448 0.1178712 0.1173231 0.1173531
 0.1180967 0.1194015 0.12086 0.1220551 0.1228178 0.1231963 0.1231591 0.1223405 0.1199867 0.1152359
 0.1078128 0.09860682 0.08936416 0.08168425 0.07630977 0.07313783 0.07155629 0.07079335 0.07029806 0.07001397
 0.07027291 0.07138544 0.07336411 0.07602154 0.07917525 0.08260915 0.08593567 0.08873988 0.09090043 0.0926054
 0.09402093 0.09508396 0.09564351 0.09567149 0.09528448 0.09464613 0.09389693 0.09311289 0.09225886 0.09121849
 0.08997284 0.08874928 0.08787799 0.08747443 0.08736664 0.08733779 0.0873116 0.08729446 0.08727735 0.08723918
 0.0871814 0.08715343 0.08725735 0.08757063 0.08803917 0.08849685 0.08880332 0.08893985 0.08898245 0.08897018
 0.08878443 0.0882578 0.08747432 0.08678364 0.08634081 0.08581009 0.08479003 0.08343074 0.08235896 0.08201127
 0.08224544 0.08259612 0.08271576 0.08254242 0.08224835 0.0821479 0.08249599 0.08318889 0.08374485 0.08374973
</values></Ydata></ScRf><Data_Parameters_AB><parameter name="DPF">1</parameter><parameter name="NPT">3497</parameter><parameter name="FXV">3996</parameter><parameter name="LXV">500</parameter><parameter name="CSF">1</parameter><parameter name="MXY">0.0241230838000774</parameter><parameter name="MNY">-0.0692627504467964</parameter><parameter name="DAT">31/05/2022</parameter><parameter name="TIM">14:11:59.578 (GMT+2)</parameter><parameter name="DXU">WN</parameter></Data_Parameters_AB><AB__Qtest><MainReport name="Quality Test Report"><Header><Line><Legend>Test result ok/not ok [1/0]: </Legend><Value>0</Value></Line><Line><Legend>Method file: </Legend><Value>C:\Users\Public\Documents\Bruker\OPUS_8.2.28\QT\IRBT_v3_default.QT</Value></Line></Header><Matrix><Line><Legend></Legend><Legend>min</Legend><Legend>max</Legend><Legend>measured</Legend></Line><Line><Value>Absorption (X-Range 1):</Value><Value>0.400000</Value><Value>2.000000</Value><Value>0.062267</Value></Line><Line><Value>Noise (X-Range 4):</Value><Value></Value><Value>0.000300</Value><Value>0.000061</Value></Line><Line><Value>Signal/Noise (X-Range 2):</Value><Value>200.000000</Value><Value></Value><Value>22.387559</Value></Line><Line><Value>Signal/Noise (X-Range 3):</Value><Value>40.000000</Value><Value></Value><Value>10.210694</Value></Line><Line><Value>Water vapour (X-Range 5):</Value><Value></Value><Value>0.000300</Value><Value>0.000050</Value></Line><Line><Value>Signal/Water (X-Range 2):</Value><Value>100.000000</Value><Value></Value><Value>27.170799</Value></Line><Line><Value>Signal/Water (X-Range 3):</Value><Value>20.000000</Value><Value></Value><Value>12.392272</Value></Line><Line><Value>Fringes (X-Range 6):</Value><Value></Value><Value>0.000100</Value><Value>0.000072</Value></Line></Matrix></MainReport></AB__Qtest><Data_Parameters_ScSm><parameter name="DPF">1</parameter><parameter name="NPT">1814</parameter><parameter name="FXV">3996.33169228125</parameter><parameter name="LXV">499.541461535156</parameter><parameter name="CSF">1</parameter><parameter name="MXY">0.272146672010422</parameter><parameter name="MNY">0.0329561531543732</parameter><parameter name="DAT">31/05/2022</parameter><parameter name="TIM">14:11:59.578 (GMT+2)</parameter><parameter name="DXU">WN</parameter></Data_Parameters_ScSm><Data_Parameters_ScRf><parameter name="DPF">1</parameter><parameter name="NPT">1820</parameter><parameter name="FXV">4004.04661832813</parameter><parameter name="LXV">495.683998511719</parameter><parameter name="CSF">1</parameter><parameter name="MXY">0.264953315258026</parameter><parameter name="MNY">0.0291690081357956</parameter><parameter name="DAT">31/05/2022</parameter><parameter name="TIM">14:11:32.494 (GMT+2)</parameter><parameter name="DXU">WN</parameter></Data_Parameters_ScRf><Optic_Parameters_Rf><parameter name="APR">0</parameter><parameter name="APT">Open</parameter><parameter name="BMS">KBr</parameter><parameter name="DTC">RT-DLaTGS_IR-Biotyper [Microplate reader]</parameter><parameter name="HPF">0</parameter><parameter name="LPF">10.0</parameter><parameter name="LPV">4000</parameter><parameter name="PGR">0</parameter><parameter name="RCH">Module port</parameter><parameter name="RDX">0</parameter><parameter name="SRC">MIR</parameter><parameter name="VEL">10.0</parameter><parameter name="SON">Off</parameter></Optic_Parameters_Rf><Acquisition_Parameters_Rf><parameter name="ADT">1</parameter><parameter name="AQM">DD</parameter><parameter name="CFE">0</parameter><parameter name="COR">0</parameter><parameter name="DEL">0</parameter><parameter name="DLY">0</parameter><parameter name="HFW">8000</parameter><parameter name="LFW">0</parameter><parameter name="NSR">32</parameter><parameter name="PLF">AB</parameter><parameter name="RES">6</parameter><parameter name="RGN">-1</parameter><parameter name="STR">0</parameter><parameter name="TCL">MakeCompatibleScalar (0, {WSV=1.000000, ARV=0});</parameter><parameter name="TDL">37</parameter><parameter name="RPO">0</parameter></Acquisition_Parameters_Rf><FT_-_Parameters_Rf><parameter name="APF">B3</parameter><parameter name="HFQ">500</parameter><parameter name="LFQ">4000</parameter><parameter name="NLI">0</parameter><parameter name="PHR">24</parameter><parameter name="PHZ">ML</parameter><parameter name="SPZ">NO</parameter><parameter name="ZFF">1</parameter></FT_-_Parameters_Rf><Optic_Parameters_><parameter name="APR">0</parameter><parameter name="APT">Open</parameter><parameter name="BMS">KBr</parameter><parameter name="CHN">Module port</parameter><parameter name="DTC">RT-DLaTGS_IR-Biotyper [Microplate reader]</parameter><parameter name="HPF">0</parameter><parameter name="LPF">10.0</parameter><parameter name="LPV">4000</parameter><parameter name="PGN">0</parameter><parameter name="RDX">0</parameter><parameter name="SRC">MIR</parameter><parameter name="VEL">10.0</parameter><parameter name="SON">Off</parameter></Optic_Parameters_><FT_-_Parameters_><parameter name="APF">B3</parameter><parameter name="HFQ">500</parameter><parameter name="LFQ">4000</parameter><parameter name="NLI">0</parameter><parameter name="PHR">24</parameter><parameter name="PHZ">ML</parameter><parameter name="SPZ">NO</parameter><parameter name="ZFF">1</parameter></FT_-_Parameters_><Acquisition_Parameters_><parameter name="ADT">1</parameter><parameter name="AQM">DD</parameter><parameter name="CFE">0</parameter><parameter name="COR">0</parameter><parameter name="DEL">0</parameter><parameter name="DLY">0</parameter><parameter name="HFW">8000</parameter><parameter name="LFW">0</parameter><parameter name="NSS">32</parameter><parameter name="PLF">AB</parameter><parameter name="RES">6</parameter><parameter name="SOT">0</parameter><parameter name="TCL">MakeCompatibleScalar (0, {WSV=1.000000, ARV=0});</parameter><parameter name="TDL">37</parameter><parameter name="SPO">0</parameter><parameter name="SGN">-1</parameter></Acquisition_Parameters_><Instrument_Parameters_Rf><parameter name="HFL">15800.168544</parameter><parameter name="LFL">0</parameter><parameter name="LWN">15800.168544</parameter><parameter name="ABP">32197</parameter><parameter name="SSP">1</parameter><parameter name="ARG">2</parameter><parameter name="ASG">2</parameter><parameter name="ASS">32</parameter><parameter name="GFW">16</parameter><parameter name="GBW">16</parameter><parameter name="BFW">0</parameter><parameter name="BBW">0</parameter><parameter name="PKA">7263</parameter><parameter name="PKL">4996</parameter><parameter name="PRA">7448</parameter><parameter name="PRL">5001</parameter><parameter name="P2A">1</parameter><parameter name="P2L">1</parameter><parameter name="P2R">1</parameter><parameter name="P2K">1</parameter><parameter name="DAQ">0</parameter><parameter name="AG2">1</parameter><parameter name="SSM">1</parameter><parameter name="RSN">25763</parameter><parameter name="CRR">0</parameter><parameter name="SRT">1654006292.495</parameter><parameter name="DUR">19.6379852294922</parameter><parameter name="TSC">29.1</parameter><parameter name="MVD">0.238889738917351</parameter><parameter name="AN1">0.225799089090867</parameter><parameter name="AN2">0</parameter><parameter name="VSN">2.485 Apr  4 2017</parameter><parameter name="SRN">0085</parameter><parameter name="CAM">0</parameter><parameter name="INS">IR-Biotyper</parameter><parameter name="FOC">69</parameter><parameter name="RDY">1</parameter><parameter name="ARS">32</parameter></Instrument_Parameters_Rf><Sample_Parameters_><parameter name="BLD"></parameter><parameter name="CNM">Admin</parameter><parameter name="CPY"></parameter><parameter name="DPM"></parameter><parameter name="EXP">IRBT_v3_32Scans.XPM</parameter><parameter name="LCT"></parameter><parameter name="SFM">Microplate, HTS-XT</parameter><parameter name="SNM">220531-1301_MPP28F (D_1)_E8_d8e10e21-2546-49e1-a6af-f9c9208ad166.0</parameter><parameter name="XPP">C:\Users\Public\Documents\Bruker\OPUS_8.2.28\XPM</parameter><parameter name="IST">OK</parameter><parameter name="CPG">1252</parameter><parameter name="UID">4665748c-7dbc-47eb-9729-2932bc5aa91b</parameter></Sample_Parameters_><Instrument_Parameters_><parameter name="HFL">15800.168544</parameter><parameter name="LFL">0</parameter><parameter name="LWN">15800.168544</parameter><parameter name="ABP">32197</parameter><parameter name="SSP">1</parameter><parameter name="ASG">2</parameter><parameter name="ARG">2</parameter><parameter name="ASS">32</parameter><parameter name="GFW">16</parameter><parameter name="GBW">16</parameter><parameter name="BFW">0</parameter><parameter name="BBW">0</parameter><parameter name="PKA">7713</parameter><parameter name="PKL">4988</parameter><parameter name="PRA">8024</parameter><parameter name="PRL">5002</parameter><parameter name="P2A">1</parameter><parameter name="P2L">1</parameter><parameter name="P2R">1</parameter><parameter name="P2K">1</parameter><parameter name="DAQ">0</parameter><parameter name="AG2">1</parameter><parameter name="SSM">1</parameter><parameter name="RSN">13507</parameter><parameter name="CRR">0</parameter><parameter name="SRT">1654006319.579</parameter><parameter name="DUR">19.6379852294922</parameter><parameter name="TSC">29.1</parameter><parameter name="MVD">0.226401895284653</parameter><parameter name="AN1">0.22581103764453</parameter><parameter name="AN2">0</parameter><parameter name="VSN">2.485 Apr  4 2017</parameter><parameter name="SRN">0085</parameter><parameter name="CAM">0</parameter><parameter name="INS">IR-Biotyper</parameter><parameter name="FOC">69</parameter><parameter name="RDY">1</parameter></Instrument_Parameters_><History/></OPUSDataFile>
