<?xml version="1.0" encoding="UTF-8" ?>
<OPUSDataFile><AB><Ydata ylabel="Absorbance Units"><values byteorder="INTEL" format="FLOAT32" numvalues="3497"> -0.06947223 -0.06947885 -0.06946319 -0.06942403 -0.06937865 -0.06932794 -0.06928936 -0.06926277 -0.06925189 -0.06925438
 -0.06925894 -0.06926314 -0.06925169 -0.0692258 -0.06917887 -0.0691178 -0.06904952 -0.0689828 -0.0689312 -0.06889641
 -0.0688869 -0.06889214 -0.06891016 -0.06892718 -0.06893614 -0.06893623 -0.06892405 -0.06891231 -0.06890275 -0.06890313
 -0.06891515 -0.06893082 -0.06894976 -0.06896032 -0.06896275 -0.06895691 -0.06894413 -0.0689323 -0.0689216 -0.06891674
 -0.06891697 -0.06892297 -0.0689338 -0.06894905 -0.06896577 -0.0689807 -0.06899098 -0.06899165 -0.06898703 -0.06897743
 -0.06896932 -0.06896771 -0.06896478 -0.0689614 -0.06893966 -0.06889504 -0.06882948 -0.06874083 -0.06866081 -0.0685911
 -0.06856274 -0.06857482 -0.06862346 -0.068703 -0.06877666 -0.06884199 -0.06886801 -0.06886194 -0.06882405 -0.06876538
 -0.06870461 -0.06864785 -0.06861106 -0.06859094 -0.06859211 -0.06860325 -0.06862062 -0.06863172 -0.06863038 -0.06861236
 -0.06857393 -0.0685225 -0.06845758 -0.06839391 -0.06833229 -0.06829088 -0.06827074 -0.06828976 -0.0683479 -0.06845059
 -0.06859256 -0.06874719 -0.06890456 -0.06901094 -0.06906839 -0.06904881 -0.06897397 -0.06886762 -0.06874685 -0.06864392
 -0.06855748 -0.06849863 -0.06845645 -0.06842761 -0.06840434 -0.06838128 -0.06836173 -0.06834439 -0.06833936 -0.0683484
 -0.06837641 -0.06842492 -0.06848476 -0.06855554 -0.06861838 -0.06867269 -0.06870598 -0.06871974 -0.06871694 -0.06869969
 -0.06867753 -0.06865129 -0.06862734 -0.06860644 -0.06859208 -0.06858616 -0.0685933 -0.06861129 -0.06864293 -0.06867554
 -0.06870387 -0.06871512 -0.06869985 -0.06866622 -0.06861091 -0.0685624 -0.06852451 -0.06852132 -0.06855729 -0.0686276
 -0.06873263 -0.06881519 -0.06887206 -0.06883872 -0.06872442 -0.06855608 -0.06834634 -0.0681584 -0.06799375 -0.06788768
 -0.0678362 -0.0678525 -0.06792025 -0.06803183 -0.06815421 -0.06825846 -0.06832133 -0.06831383 -0.06825683 -0.06814644
 -0.06802666 -0.06791021 -0.06781483 -0.0677476 -0.06769899 -0.06766886 -0.06764701 -0.06763272 -0.06762697 -0.0676301
 -0.06764846 -0.06768168 -0.06773165 -0.06779569 -0.0678658 -0.06793727 -0.06799433 -0.068034 -0.06804244 -0.06802347
 -0.06797383 -0.06790497 -0.06782351 -0.06774351 -0.06767398 -0.06762604 -0.06760697 -0.06761836 -0.06766494 -0.06772978
 -0.06781337 -0.06788237 -0.06793349 -0.06794062 -0.06790167 -0.06782134 -0.06770123 -0.06756931 -0.06742629 -0.06729088
 -0.06716094 -0.0670368 -0.06691916 -0.06680845 -0.06670984 -0.06663354 -0.06658047 -0.06655912 -0.06655845 -0.06657397
 -0.06659064 -0.06659668 -0.06659041 -0.06656614 -0.0665356 -0.06650069 -0.06647115 -0.0664496 -0.06643683 -0.06643317
 -0.06643873 -0.06645349 -0.06647969 -0.0665172 -0.06656466 -0.06662087 -0.06667717 -0.06673215 -0.06677487 -0.06680662
 -0.06682427 -0.06683173 -0.06683428 -0.06683525 -0.06684099 -0.06685268 -0.06687253 -0.06690355 -0.06694665 -0.06700913
 -0.06709512 -0.06720513 -0.06734452 -0.06748873 -0.0676377 -0.06774751 -0.06781298 -0.0678092 -0.06773396 -0.06759053
 -0.06738053 -0.06713039 -0.06684547 -0.06657564 -0.06632422 -0.06613228 -0.06599647 -0.06593061 -0.0659259 -0.06597725
 -0.06606607 -0.0661694 -0.06626833 -0.06633499 -0.06637301 -0.06637423 -0.06635517 -0.0663216 -0.06628145 -0.0662401
 -0.06618974 -0.06613026 -0.06605063 -0.06594811 -0.06583298 -0.06570528 -0.06559727 -0.06551041 -0.06547272 -0.06548227
 -0.0655423 -0.06564401 -0.06575702 -0.0658678 -0.06592083 -0.06591981 -0.0658384 -0.06570512 -0.06554689 -0.06538078
 -0.06523498 -0.06510291 -0.06498943 -0.06488236 -0.06477604 -0.06466974 -0.06456054 -0.06445847 -0.06436518 -0.0642863
 -0.06422343 -0.0641707 -0.064128 -0.06408314 -0.06403566 -0.06397718 -0.06390867 -0.06383296 -0.06375136 -0.06367017
 -0.06359067 -0.06351827 -0.06345641 -0.06341399 -0.06339268 -0.06340123 -0.06343039 -0.06347934 -0.06352624 -0.0635584
 -0.06355911 -0.06351676 -0.06343075 -0.06329837 -0.06312314 -0.06290376 -0.06265381 -0.06237323 -0.06208916 -0.06180346
 -0.06153257 -0.06127672 -0.06103709 -0.06081412 -0.06061165 -0.06043078 -0.06027998 -0.06015608 -0.06005581 -0.05997368
 -0.05989639 -0.05982503 -0.05975587 -0.05969037 -0.05963393 -0.05956989 -0.05949152 -0.0593798 -0.05921865 -0.05902597
 -0.05880122 -0.05857354 -0.05835042 -0.05813546 -0.05793094 -0.05772456 -0.0575155 -0.05729858 -0.05707445 -0.05685841
 -0.05665235 -0.05647984 -0.05633762 -0.0562288 -0.05613996 -0.05603611 -0.05590737 -0.05571078 -0.05546567 -0.05517637
 -0.0548709 -0.05457948 -0.05430835 -0.0540718 -0.0538625 -0.05368235 -0.05351716 -0.05336451 -0.05320805 -0.05304416
 -0.05286405 -0.05266604 -0.05244834 -0.05221072 -0.05195089 -0.051669 -0.05136789 -0.05104966 -0.05073157 -0.05041601
 -0.05012317 -0.04985209 -0.04961118 -0.04939664 -0.0492067 -0.04903435 -0.04887155 -0.04870806 -0.04853109 -0.04833708
 -0.04811699 -0.04788213 -0.04763519 -0.04738557 -0.04714005 -0.04688542 -0.04662131 -0.04632819 -0.04600116 -0.04565473
 -0.04528867 -0.04494626 -0.04462901 -0.04436178 -0.04414162 -0.04395785 -0.04380447 -0.04364972 -0.04349051 -0.04329882
 -0.04308233 -0.0428394 -0.04258641 -0.04234505 -0.04212474 -0.04194741 -0.04179786 -0.0416798 -0.04155394 -0.04140278
 -0.04120573 -0.04094598 -0.04065245 -0.04032541 -0.04000732 -0.03970486 -0.03943054 -0.03918653 -0.03895236 -0.0387269
 -0.03848632 -0.03823167 -0.03796073 -0.0376762 -0.03738955 -0.03710076 -0.0368154 -0.03653274 -0.03625251 -0.03597774
 -0.03571227 -0.03545883 -0.03522299 -0.03500063 -0.03479192 -0.03458887 -0.03438752 -0.0341848 -0.03397802 -0.03377128
 -0.03356496 -0.03336283 -0.03316634 -0.03296811 -0.03276803 -0.03255048 -0.03231503 -0.03205545 -0.03177394 -0.03148588
 -0.03119434 -0.03092266 -0.03066907 -0.03044249 -0.03023541 -0.03003785 -0.02984292 -0.02963516 -0.02941693 -0.02918224
 -0.02894374 -0.0287079 -0.02848377 -0.02828034 -0.02808788 -0.02790741 -0.02771916 -0.02751805 -0.02729943 -0.02706066
 -0.02681578 -0.02656559 -0.02632197 -0.02608517 -0.02585485 -0.02563092 -0.02541189 -0.0251991 -0.02499843 -0.02481042
 -0.02464105 -0.0244869 -0.02434537 -0.02420986 -0.02407028 -0.02392216 -0.02375641 -0.02357521 -0.02337622 -0.02316615
 -0.02294718 -0.02272519 -0.02250174 -0.02228334 -0.02207073 -0.02187366 -0.02169377 -0.02153497 -0.02139825 -0.02127072
 -0.02115145 -0.02101893 -0.02087329 -0.02070507 -0.02051792 -0.02032341 -0.02012539 -0.01994236 -0.01977274 -0.01962375
 -0.01948846 -0.01935961 -0.01923389 -0.01910288 -0.01897403 -0.01884888 -0.01873692 -0.0186455 -0.0185693 -0.01851108
 -0.01845106 -0.01838596 -0.01829988 -0.0181893 -0.01805531 -0.01789723 -0.01772923 -0.01755206 -0.01738077 -0.01721491
 -0.0170577 -0.0169064 -0.01674946 -0.01658553 -0.0164024 -0.0162054 -0.01599777 -0.01578881 -0.01559378 -0.0154163
 -0.01526742 -0.01514096 -0.01503719 -0.01494641 -0.01486406 -0.01478462 -0.01470536 -0.01462414 -0.01454036 -0.01445146
 -0.01435705 -0.01425521 -0.01414552 -0.01403259 -0.01391676 -0.01380681 -0.01370266 -0.01360768 -0.01352043 -0.01343552
 -0.01335224 -0.01326496 -0.01317527 -0.01308394 -0.01299182 -0.0129016 -0.01281022 -0.01271617 -0.01261536 -0.01250292
 -0.01238223 -0.0122513 -0.01212304 -0.01200069 -0.01189558 -0.01181244 -0.01174637 -0.01169861 -0.01165133 -0.01160296
 -0.01154585 -0.01148009 -0.01142056 -0.01136848 -0.01134285 -0.01134117 -0.01136262 -0.01140093 -0.01143643 -0.01146506
 -0.01146718 -0.0114466 -0.011398 -0.01133324 -0.01126125 -0.01119371 -0.01114381 -0.011109 -0.01109529 -0.01108248
 -0.01106604 -0.01102757 -0.01095952 -0.0108691 -0.01075404 -0.0106435 -0.01053951 -0.0104662 -0.01042438 -0.01041363
 -0.01043213 -0.01046181 -0.01050149 -0.01053563 -0.01056525 -0.01058641 -0.01059826 -0.01059847 -0.01058262 -0.01054178
 -0.01047735 -0.01038288 -0.01027534 -0.01016231 -0.01006397 -0.009995372 -0.009953774 -0.009946189 -0.009943744 -0.009941631
 -0.009916927 -0.009863291 -0.009790977 -0.009699212 -0.009620705 -0.009556933 -0.009529523 -0.009536851 -0.009572227 -0.00963108
 -0.009687364 -0.009737694 -0.009756804 -0.009746534 -0.009696224 -0.009615174 -0.009510458 -0.009395395 -0.009286239 -0.009191067
 -0.009122548 -0.009076455 -0.009055641 -0.009048157 -0.009050985 -0.009054405 -0.009056079 -0.009048887 -0.009032345 -0.008995111
 -0.008936564 -0.008841145 -0.008708196 -0.00853127 -0.008312677 -0.008071168 -0.007813355 -0.007582627 -0.007383833 -0.007259208
 -0.007200028 -0.007214067 -0.007276124 -0.007353947 -0.00742393 -0.007444763 -0.007420294 -0.007333449 -0.007217903 -0.007083041
 -0.006964748 -0.006878648 -0.006837752 -0.006850511 -0.006903747 -0.006998706 -0.007106155 -0.007224194 -0.007322895 -0.007400885
 -0.007446832 -0.007462459 -0.007461255 -0.007446171 -0.007440589 -0.007443537 -0.007465358 -0.007500781 -0.007542266 -0.00758861
 -0.007631293 -0.007680725 -0.007742155 -0.007831771 -0.007964912 -0.008144246 -0.008380293 -0.008650701 -0.008953741 -0.009255305
 -0.009547303 -0.009808552 -0.01003361 -0.01022263 -0.01037451 -0.01050216 -0.01060631 -0.01070466 -0.01079809 -0.01090288
 -0.01101788 -0.01114687 -0.01128538 -0.01142024 -0.01154944 -0.01165916 -0.01175729 -0.01184765 -0.01194366 -0.01206298
 -0.01220789 -0.01239087 -0.01259215 -0.01280891 -0.01301048 -0.01318451 -0.01331745 -0.01339969 -0.01345203 -0.01347352
 -0.01350515 -0.01355055 -0.01363631 -0.01376363 -0.01392622 -0.01412188 -0.01432412 -0.01453145 -0.01472161 -0.01489616
 -0.0150481 -0.01518032 -0.0152956 -0.01539649 -0.01548778 -0.01557195 -0.01565258 -0.01573378 -0.01581891 -0.01591293
 -0.01601972 -0.0161399 -0.0162761 -0.0164204 -0.01657241 -0.01672018 -0.01686163 -0.01699104 -0.01710738 -0.01721328
 -0.01730884 -0.01739891 -0.01748374 -0.01756749 -0.01765085 -0.01773964 -0.01783505 -0.0179447 -0.01806789 -0.01820812
 -0.018361 -0.01852206 -0.0186855 -0.01884286 -0.01899235 -0.01912894 -0.01925614 -0.01937419 -0.01948718 -0.01959671
 -0.01970474 -0.01981183 -0.01991984 -0.02002896 -0.02014183 -0.02025877 -0.02037985 -0.0205051 -0.02063406 -0.02076685
 -0.02090523 -0.0210487 -0.02119647 -0.02134613 -0.02148884 -0.02162319 -0.0217402 -0.02184341 -0.02193347 -0.02201661
 -0.02210024 -0.02218732 -0.02228354 -0.02238603 -0.02249665 -0.02260531 -0.02271008 -0.02279806 -0.02286419 -0.02290979
 -0.02293146 -0.0229561 -0.02298515 -0.02305064 -0.02315424 -0.02329854 -0.02348097 -0.0236708 -0.02386504 -0.02402953
 -0.02416697 -0.02426629 -0.02433665 -0.02439226 -0.02444353 -0.02451482 -0.0246074 -0.02473639 -0.02488572 -0.02505071
 -0.02520889 -0.02534433 -0.02545474 -0.02553133 -0.0255973 -0.02565687 -0.02572679 -0.02581335 -0.02590039 -0.02598813
 -0.02604429 -0.02606715 -0.0260472 -0.02598669 -0.02591092 -0.025824 -0.02576328 -0.0257287 -0.02574174 -0.02579578
 -0.02588758 -0.02600739 -0.02613782 -0.02627342 -0.02639978 -0.02652043 -0.02663279 -0.02674349 -0.02685657 -0.026972
 -0.02709173 -0.02720971 -0.02732459 -0.02743334 -0.02753516 -0.02763002 -0.02771823 -0.02779449 -0.02785853 -0.02789998
 -0.02791883 -0.02791153 -0.0278802 -0.02783459 -0.02777806 -0.02772747 -0.02768491 -0.02766429 -0.02766423 -0.02768971
 -0.02773581 -0.02779884 -0.02787505 -0.02795902 -0.0280534 -0.02815787 -0.02827646 -0.02841299 -0.02855915 -0.02871633
 -0.0288619 -0.02899269 -0.02909054 -0.02915199 -0.02918564 -0.02919174 -0.02920393 -0.02922384 -0.02928258 -0.02937758
 -0.02951094 -0.0296755 -0.02984665 -0.03001973 -0.03016978 -0.03029986 -0.03040305 -0.03048593 -0.03055351 -0.03061035
 -0.03066117 -0.03071002 -0.03075944 -0.03081489 -0.03087981 -0.03095352 -0.03103819 -0.03112241 -0.03120459 -0.03127631
 -0.03133544 -0.03139343 -0.03145078 -0.03152842 -0.03162617 -0.03174656 -0.03188617 -0.03202419 -0.03215994 -0.03227747
 -0.03238358 -0.03248687 -0.03259297 -0.03271866 -0.03285667 -0.03300781 -0.0331566 -0.03329008 -0.03340089 -0.03347933
 -0.03353117 -0.03355569 -0.03356178 -0.03355167 -0.03353037 -0.03349866 -0.03346157 -0.03341911 -0.03338234 -0.03335187
 -0.03334511 -0.03336281 -0.03342011 -0.03351526 -0.03364714 -0.03380944 -0.03397952 -0.03414991 -0.03429013 -0.03439899
 -0.03445871 -0.03447693 -0.03445425 -0.03440209 -0.03432954 -0.03424535 -0.03415702 -0.03406807 -0.03398184 -0.03389765
 -0.03381595 -0.03373531 -0.03365546 -0.03357628 -0.0334979 -0.03341864 -0.03333845 -0.03324864 -0.03314849 -0.03302503
 -0.03287856 -0.03270356 -0.03250312 -0.03228549 -0.03205437 -0.03182343 -0.03159361 -0.03137247 -0.03116008 -0.03095839
 -0.03077041 -0.03059947 -0.03044678 -0.03031677 -0.03019881 -0.03009245 -0.02997769 -0.02984849 -0.02969583 -0.0295147
 -0.02932069 -0.02911366 -0.02892284 -0.02875 -0.0286149 -0.02851738 -0.02845764 -0.02843382 -0.02843419 -0.02845741
 -0.02849242 -0.02853877 -0.02859066 -0.02864621 -0.02870104 -0.02874992 -0.02878528 -0.02880246 -0.02879367 -0.02876149
 -0.0287037 -0.0286292 -0.02854119 -0.02844489 -0.02834366 -0.02823241 -0.02811127 -0.02797162 -0.02781196 -0.02763354
 -0.02743612 -0.02723672 -0.02703686 -0.02686305 -0.02671624 -0.02661719 -0.02656298 -0.02655508 -0.02658658 -0.0266406
 -0.02671279 -0.0267853 -0.02686416 -0.02694685 -0.02704807 -0.02717857 -0.02735101 -0.02757677 -0.02785798 -0.02819994
 -0.02859352 -0.02903965 -0.02951851 -0.03002888 -0.03054209 -0.03105564 -0.03154133 -0.03199719 -0.03240938 -0.03277821
 -0.03310852 -0.03340178 -0.0336704 -0.03391462 -0.03414177 -0.03435146 -0.03454524 -0.03472532 -0.0348953 -0.03505964
 -0.03522607 -0.03539485 -0.03557117 -0.03574621 -0.03591806 -0.03607322 -0.03620576 -0.03630769 -0.03637432 -0.03640946
 -0.03641175 -0.03639472 -0.03635933 -0.03631989 -0.03627748 -0.0362362 -0.03619578 -0.0361502 -0.03609986 -0.03604325
 -0.03598405 -0.03593582 -0.03590239 -0.03590223 -0.035933 -0.036001 -0.0360973 -0.03621433 -0.03634227 -0.03647064
 -0.03659218 -0.03670037 -0.03678954 -0.0368557 -0.03689714 -0.0369113 -0.03690501 -0.0368777 -0.03684448 -0.03680629
 -0.03678097 -0.03676958 -0.03678998 -0.03684315 -0.0369474 -0.03710289 -0.03732164 -0.03759953 -0.03792929 -0.03830081
 -0.03868525 -0.0390723 -0.03942851 -0.0397535 -0.04003035 -0.04027135 -0.04047959 -0.04067151 -0.04085824 -0.04104818
 -0.04124914 -0.04145649 -0.04167192 -0.04188269 -0.04208688 -0.04227479 -0.04244459 -0.04259661 -0.04273065 -0.04285334
 -0.0429649 -0.04306907 -0.04316549 -0.04325316 -0.04333179 -0.04339971 -0.04345682 -0.04350194 -0.0435352 -0.04355541
 -0.04356526 -0.04356611 -0.04356489 -0.04356732 -0.04358086 -0.04361236 -0.04366309 -0.04373699 -0.04382571 -0.04392939
 -0.04403249 -0.04413271 -0.04421585 -0.04427944 -0.04432149 -0.04434145 -0.04435006 -0.04434789 -0.0443459 -0.04434386
 -0.04434481 -0.04434901 -0.0443583 -0.04437511 -0.04440768 -0.04445609 -0.04452672 -0.04461223 -0.04470697 -0.04480137
 -0.04488369 -0.04495259 -0.04500221 -0.04503996 -0.0450675 -0.045091 -0.04511297 -0.04513465 -0.04515648 -0.04517983
 -0.04520475 -0.04523408 -0.04526805 -0.04530611 -0.04534809 -0.04539004 -0.04543191 -0.04547155 -0.04550924 -0.04554517
 -0.04557922 -0.04561112 -0.04564067 -0.04566717 -0.04569099 -0.04571297 -0.04573156 -0.04574682 -0.04575373 -0.0457488
 -0.04573007 -0.04569315 -0.04564909 -0.04559809 -0.04555985 -0.04553881 -0.04554361 -0.04557746 -0.04562571 -0.04568786
 -0.04574104 -0.04578475 -0.04581248 -0.04582619 -0.04583823 -0.04584974 -0.04587315 -0.04590598 -0.04594829 -0.04599626
 -0.04604287 -0.04608546 -0.04611786 -0.04613826 -0.04614224 -0.04613123 -0.04610235 -0.04606664 -0.0460261 -0.04599734
 -0.0459865 -0.04599943 -0.04604052 -0.04609597 -0.04616552 -0.04622841 -0.04628296 -0.04632084 -0.0463422 -0.04635479
 -0.04635955 -0.04636759 -0.04637862 -0.04639743 -0.04642278 -0.04645392 -0.04648946 -0.04652686 -0.04656427 -0.04659829
 -0.04662757 -0.04664894 -0.04666442 -0.04667318 -0.04668133 -0.04669113 -0.04670751 -0.04673333 -0.04676639 -0.04680764
 -0.04684857 -0.04688831 -0.04692003 -0.04694298 -0.04695871 -0.04696747 -0.0469761 -0.0469844 -0.04699409 -0.04700371
 -0.04700703 -0.04700428 -0.04699138 -0.04697279 -0.046955 -0.04694217 -0.04694436 -0.04695834 -0.04698623 -0.04701933
 -0.04705234 -0.04708048 -0.04709904 -0.04711162 -0.04711773 -0.04712402 -0.04713174 -0.04714502 -0.04716466 -0.04719197
 -0.04722721 -0.04726788 -0.04731369 -0.04735804 -0.04740041 -0.04743329 -0.04745701 -0.04746855 -0.0474696 -0.0474632
 -0.04745141 -0.04743974 -0.04742916 -0.04742337 -0.04742237 -0.04742765 -0.04743814 -0.04745411 -0.04747274 -0.04749353
 -0.04751179 -0.04752598 -0.04753316 -0.04753174 -0.04752502 -0.04751264 -0.04750318 -0.04749723 -0.04750168 -0.04751661
 -0.04754031 -0.0475717 -0.04760095 -0.04762731 -0.04764117 -0.0476444 -0.04763645 -0.04762156 -0.04760817 -0.04759841
 -0.04760006 -0.04760984 -0.04762818 -0.0476495 -0.04766967 -0.04768708 -0.04769933 -0.04770893 -0.04771621 -0.04772311
 -0.04773023 -0.04773768 -0.04774544 -0.04775454 -0.04776505 -0.04777855 -0.04779504 -0.04781264 -0.04783078 -0.04784333
 -0.04785021 -0.04784701 -0.04783539 -0.04781765 -0.04779604 -0.04777656 -0.04775926 -0.04774712 -0.04773815 -0.04773093
 -0.04772545 -0.04772046 -0.04771927 -0.04772312 -0.04773423 -0.04775447 -0.04778033 -0.04781204 -0.04784247 -0.04787081
 -0.04789125 -0.04790318 -0.04790491 -0.04789645 -0.04788006 -0.04785631 -0.04783088 -0.04780454 -0.04778417 -0.04776963
 -0.04776467 -0.04776736 -0.04777609 -0.04778807 -0.04779855 -0.04780629 -0.04780785 -0.04780461 -0.04779603 -0.04778513
 -0.04777292 -0.04776257 -0.04775533 -0.04775286 -0.04775617 -0.04776322 -0.04777432 -0.04778328 -0.04778966 -0.04778833
 -0.04777918 -0.04776388 -0.04774298 -0.04772245 -0.04770217 -0.04768515 -0.04767 -0.0476538 -0.04763595 -0.04761324
 -0.04758713 -0.04755815 -0.04752832 -0.04750014 -0.04747392 -0.04745059 -0.04743 -0.04741165 -0.04739789 -0.04738902
 -0.04738855 -0.04739777 -0.04741573 -0.04744304 -0.04747276 -0.04750445 -0.04753113 -0.0475525 -0.04756622 -0.04757245
 -0.04757169 -0.04756403 -0.04754981 -0.04752981 -0.0475059 -0.04748025 -0.04745816 -0.04744121 -0.04743507 -0.04743691
 -0.04744731 -0.04745917 -0.0474679 -0.04746841 -0.04745561 -0.04743336 -0.04740025 -0.04736793 -0.04733855 -0.04732087
 -0.04731717 -0.04732493 -0.04734457 -0.04736456 -0.04738433 -0.04739339 -0.04739194 -0.04737742 -0.04735113 -0.04731777
 -0.04727907 -0.04724279 -0.04720994 -0.04718681 -0.04717245 -0.04716874 -0.04717276 -0.04718229 -0.047195 -0.04720822
 -0.04722201 -0.04723566 -0.04725 -0.04726586 -0.04728037 -0.0472936 -0.04729979 -0.04729804 -0.04728565 -0.04726201
 -0.0472317 -0.04719498 -0.04715992 -0.04712668 -0.04710034 -0.04708022 -0.0470656 -0.04705576 -0.04704798 -0.04704229
 -0.04703758 -0.04703379 -0.04703095 -0.04702746 -0.04702182 -0.04701247 -0.04699686 -0.04697772 -0.04695465 -0.04693441
 -0.04691948 -0.04691289 -0.04691683 -0.04692569 -0.04693945 -0.04694922 -0.04695409 -0.04695111 -0.04694022 -0.04692581
 -0.04690838 -0.04689497 -0.04688551 -0.04688383 -0.04688862 -0.04689818 -0.04691036 -0.04691972 -0.04692503 -0.04692149
 -0.04691063 -0.04689173 -0.0468682 -0.04684198 -0.04681638 -0.04679376 -0.04677492 -0.0467613 -0.04674964 -0.0467399
 -0.04672695 -0.04670985 -0.0466869 -0.04665765 -0.04662549 -0.04659059 -0.04655613 -0.04652202 -0.04648809 -0.04645453
 -0.04642181 -0.04639129 -0.04636789 -0.04635207 -0.04634823 -0.04635356 -0.04636639 -0.04638236 -0.04639582 -0.04640555
 -0.04640803 -0.04640646 -0.04640141 -0.04639613 -0.04639247 -0.04638941 -0.04638743 -0.04638284 -0.04637498 -0.04636289
 -0.04634624 -0.04632808 -0.04630858 -0.04629163 -0.04627746 -0.04626952 -0.04626794 -0.04627549 -0.04629176 -0.04631725
 -0.04635073 -0.04638959 -0.04643342 -0.04647955 -0.04653059 -0.04658708 -0.04665511 -0.04673808 -0.04684409 -0.04697749
 -0.04714532 -0.04735187 -0.04759635 -0.0478818 -0.0481918 -0.048526 -0.04885761 -0.04918388 -0.04949309 -0.04978471
 -0.05007169 -0.05035266 -0.0506224 -0.05086911 -0.05102539 -0.05108177 -0.05095978 -0.05068393 -0.05025955 -0.049739
 -0.04920724 -0.04869422 -0.0482702 -0.04792578 -0.04767657 -0.04750513 -0.04740602 -0.04736815 -0.04738918 -0.04745102
 -0.04755375 -0.04765743 -0.04775658 -0.04781875 -0.04783782 -0.04784148 -0.0478311 -0.0478522 -0.04790297 -0.04797767
 -0.04806944 -0.04813615 -0.04817651 -0.04816104 -0.04809917 -0.04799603 -0.04786462 -0.04772966 -0.04759273 -0.04746813
 -0.04734358 -0.04721388 -0.04707092 -0.046905 -0.04672865 -0.04654156 -0.04636653 -0.0462096 -0.04608117 -0.04598513
 -0.045914 -0.04586815 -0.04583015 -0.04579907 -0.04575824 -0.04570764 -0.04564143 -0.04556171 -0.04547651 -0.04538858
 -0.04531198 -0.04524698 -0.0452024 -0.04517404 -0.0451605 -0.04515416 -0.04514619 -0.04513134 -0.04510138 -0.04505917
 -0.04500257 -0.04494072 -0.04487635 -0.04481613 -0.04476272 -0.04471618 -0.04467708 -0.04464317 -0.0446143 -0.04458864
 -0.04456609 -0.04454363 -0.0445211 -0.04449549 -0.04446711 -0.044436 -0.04440276 -0.04436956 -0.04433656 -0.04430501
 -0.0442752 -0.04424782 -0.04422382 -0.04420486 -0.04419046 -0.0441816 -0.04417502 -0.04416928 -0.04416209 -0.04415163
 -0.04413982 -0.04412665 -0.0441148 -0.04410512 -0.04409602 -0.04408765 -0.04407505 -0.04405794 -0.04403418 -0.04400411
 -0.04397143 -0.04393679 -0.0439062 -0.04387943 -0.0438593 -0.04384434 -0.04383286 -0.04382294 -0.04381084 -0.04379512
 -0.04377236 -0.0437432 -0.04370617 -0.0436651 -0.04362115 -0.0435789 -0.04354084 -0.04350704 -0.04347867 -0.04345089
 -0.04342296 -0.04339232 -0.04335828 -0.04332537 -0.04329382 -0.0432708 -0.04325626 -0.04325175 -0.04325611 -0.04326355
 -0.04327289 -0.04327673 -0.04327525 -0.04326492 -0.0432471 -0.04322251 -0.04319207 -0.04315724 -0.04311828 -0.04307541
 -0.04303018 -0.04298265 -0.04293704 -0.04289455 -0.04285972 -0.04283421 -0.0428188 -0.04281441 -0.04281646 -0.04282484
 -0.04283251 -0.04283908 -0.04283894 -0.04283202 -0.04281595 -0.04279114 -0.04275855 -0.04271915 -0.04267648 -0.0426323
 -0.04259239 -0.0425583 -0.04253585 -0.04252378 -0.04252411 -0.04253152 -0.04254324 -0.04255258 -0.04255467 -0.04254755
 -0.04252827 -0.04250181 -0.04246819 -0.04243536 -0.04240479 -0.04238041 -0.04236309 -0.04235018 -0.04234159 -0.04233155
 -0.04231998 -0.04230417 -0.04228474 -0.04226402 -0.0422427 -0.04222474 -0.04220987 -0.04219985 -0.04219334 -0.04218899
 -0.0421856 -0.04218108 -0.04217523 -0.04216703 -0.04215722 -0.04214602 -0.04213373 -0.04212099 -0.04210579 -0.04208797
 -0.04206477 -0.04203536 -0.04200051 -0.04195979 -0.04192022 -0.04188216 -0.04185333 -0.04183369 -0.04182409 -0.04182348
 -0.04182554 -0.04182945 -0.04182873 -0.04182345 -0.04181064 -0.04179064 -0.04176228 -0.04172716 -0.04168565 -0.04164235
 -0.04160057 -0.04156524 -0.04154081 -0.04152689 -0.04152543 -0.04153036 -0.04154074 -0.04155076 -0.04155928 -0.04156316
 -0.04156196 -0.04155395 -0.04153898 -0.0415164 -0.04148638 -0.04145127 -0.04141161 -0.04137206 -0.04133296 -0.04129819
 -0.04126737 -0.0412416 -0.04122017 -0.04120243 -0.04118766 -0.04117483 -0.04116329 -0.04115207 -0.04114125 -0.04113013
 -0.04112075 -0.04111359 -0.04111083 -0.04111377 -0.04112015 -0.04113049 -0.04113726 -0.0411398 -0.04113187 -0.04111298
 -0.04108544 -0.04104974 -0.04101418 -0.04097915 -0.0409514 -0.04093039 -0.04091798 -0.04091256 -0.0409116 -0.04091266
 -0.04091059 -0.04090339 -0.0408861 -0.04085943 -0.04082149 -0.04077621 -0.04072473 -0.04067208 -0.04062013 -0.04057346
 -0.04053355 -0.04050335 -0.04048391 -0.04047431 -0.04047493 -0.04048013 -0.04048964 -0.04049653 -0.04050061 -0.04049773
 -0.04048812 -0.04047108 -0.04044733 -0.04041893 -0.04038715 -0.04035603 -0.04032698 -0.04030457 -0.04028855 -0.04028138
 -0.04027935 -0.04028084 -0.04028073 -0.04027507 -0.04026296 -0.04024206 -0.04021734 -0.04018946 -0.04016341 -0.04014063
 -0.04012047 -0.04010323 -0.04008509 -0.04006583 -0.04004303 -0.04001667 -0.03998611 -0.03995148 -0.03991284 -0.03987096
 -0.03982849 -0.03978673 -0.03975067 -0.03972036 -0.03969875 -0.03968393 -0.03967508 -0.0396695 -0.03966475 -0.03965854
 -0.03964891 -0.03963448 -0.03961397 -0.03958815 -0.03955646 -0.03952254 -0.03948665 -0.03945361 -0.03942402 -0.03940069
 -0.03938388 -0.0393718 -0.03936411 -0.03935434 -0.03934222 -0.03932213 -0.03929529 -0.03926318 -0.03922794 -0.03919647
 -0.03916854 -0.03914779 -0.03913082 -0.03911444 -0.03909726 -0.03907565 -0.03905369 -0.03903268 -0.03901625 -0.0390078
 -0.03900227 -0.03900009 -0.03899048 -0.03897104 -0.03893812 -0.03889021 -0.03883605 -0.03877603 -0.03872208 -0.03867451
 -0.03863843 -0.0386133 -0.03859828 -0.03859245 -0.03859236 -0.03859625 -0.03859805 -0.0385957 -0.03858196 -0.03855781
 -0.03852045 -0.03847471 -0.03842369 -0.03837139 -0.03832161 -0.03827439 -0.03823063 -0.03818967 -0.03815113 -0.0381165
 -0.03808632 -0.03805938 -0.03803607 -0.0380094 -0.03797896 -0.03793889 -0.03788935 -0.03783397 -0.03777392 -0.03771974
 -0.0376716 -0.03763642 -0.03761226 -0.03759781 -0.03759056 -0.03758545 -0.03758073 -0.0375723 -0.03755882 -0.03753765
 -0.03750851 -0.03746973 -0.03742424 -0.03737233 -0.03731858 -0.03726443 -0.03721226 -0.03716279 -0.03711659 -0.03707362
 -0.03703612 -0.03700427 -0.03697929 -0.03696097 -0.03694472 -0.03692985 -0.03690848 -0.03688135 -0.03684652 -0.03680666
 -0.03676822 -0.03673263 -0.03670697 -0.03668737 -0.03667289 -0.03665652 -0.03663078 -0.03659406 -0.03654098 -0.03648011
 -0.03641283 -0.03634988 -0.03629537 -0.03625189 -0.03622159 -0.03619788 -0.03618058 -0.03616064 -0.03613738 -0.03610699
 -0.0360696 -0.03602909 -0.03598596 -0.03594607 -0.03590878 -0.03587476 -0.03584245 -0.03580755 -0.03577004 -0.03572718
 -0.03568144 -0.0356351 -0.03558952 -0.03554752 -0.03550702 -0.03546769 -0.03542723 -0.03538387 -0.03533925 -0.03529302
 -0.03524928 -0.03520897 -0.03517361 -0.03514384 -0.0351163 -0.03509084 -0.03506202 -0.03502972 -0.03499265 -0.0349515
 -0.03491138 -0.03487273 -0.03484083 -0.03481412 -0.03479161 -0.0347702 -0.03474331 -0.03470952 -0.03466323 -0.03460735
 -0.03454181 -0.03447181 -0.03440041 -0.03433157 -0.03426794 -0.03421049 -0.03416052 -0.03411547 -0.03407528 -0.03403638
 -0.03399823 -0.03395947 -0.03391989 -0.03388122 -0.03384355 -0.03380896 -0.03377705 -0.03374603 -0.03371464 -0.03367612
 -0.03363023 -0.03357166 -0.03350357 -0.03342914 -0.03335215 -0.03327941 -0.03321175 -0.03315232 -0.03310084 -0.03305795
 -0.03302342 -0.03299808 -0.03297843 -0.03296463 -0.03294886 -0.03292975 -0.03290113 -0.03286166 -0.03281216 -0.03275245
 -0.03268733 -0.03261704 -0.03254581 -0.03247376 -0.03240379 -0.03233578 -0.03227091 -0.03220899 -0.03215014 -0.03209401
 -0.03204054 -0.03198792 -0.03193428 -0.03187659 -0.03181063 -0.03173709 -0.03165387 -0.03156688 -0.03147832 -0.03139203
 -0.03131057 -0.03123067 -0.03115223 -0.03107127 -0.03098676 -0.03090162 -0.03081585 -0.03073579 -0.03066155 -0.030594
 -0.03053232 -0.03047022 -0.03040694 -0.03033495 -0.03025581 -0.0301697 -0.03007934 -0.02999118 -0.02990416 -0.02982051
 -0.02973576 -0.02964594 -0.02954957 -0.02944294 -0.02933158 -0.02921658 -0.02910426 -0.02899777 -0.02889579 -0.02879971
 -0.0287002 -0.02859664 -0.02847781 -0.02834249 -0.02819132 -0.02802482 -0.02785997 -0.0276974 -0.02755051 -0.0274173
 -0.02729579 -0.02718359 -0.02707255 -0.02696228 -0.02684806 -0.02673074 -0.02660955 -0.02648547 -0.02635913 -0.02623149
 -0.02610392 -0.02597485 -0.02584526 -0.02570817 -0.02556174 -0.02540059 -0.02522202 -0.02503187 -0.02483028 -0.02462492
 -0.02441661 -0.02420414 -0.02398748 -0.02376515 -0.02353779 -0.02331101 -0.02308471 -0.02286225 -0.02264114 -0.02241535
 -0.02218356 -0.02193861 -0.0216845 -0.0214237 -0.02116015 -0.02090027 -0.02064068 -0.02038179 -0.02011774 -0.01984528
 -0.01956335 -0.01927013 -0.01897005 -0.01866442 -0.01835258 -0.01803604 -0.01769928 -0.01734118 -0.01694962 -0.01652488
 -0.01608964 -0.01564546 -0.01521799 -0.01480302 -0.01439356 -0.01398545 -0.01356144 -0.013123 -0.01266505 -0.01219001
 -0.01170251 -0.01119455 -0.01066493 -0.01009107 -0.009457147 -0.00874918 -0.007946044 -0.007086281 -0.006169296 -0.005267753
 -0.004399345 -0.003594619 -0.002863058 -0.002187716 -0.001568848 -0.0009736703 -0.0004001616 0.0001937061 0.0008106011 0.001497672
 0.002247533 0.003056878 0.003902048 0.004701704 0.005457556 0.006126802 0.006739011 0.007321743 0.007888949 0.008468589
 0.00905278 0.009643968 0.01023502 0.01082055 0.01140696 0.0119973 0.01258646 0.01317564 0.01374853 0.01430163
 0.01483882 0.01535998 0.0158743 0.01638156 0.01686169 0.01731256 0.01770436 0.01803922 0.0183118 0.01852621
 0.018692 0.01881233 0.01889619 0.01895051 0.01898867 0.01901631 0.01904496 0.01907373 0.0191046 0.01913854
 0.01917631 0.01921923 0.01926914 0.01932048 0.01937298 0.01941851 0.01945558 0.01948204 0.01949738 0.01950574
 0.01950717 0.01949942 0.01948112 0.01943809 0.01936886 0.01925873 0.01910731 0.01890454 0.01865348 0.01835272
 0.01801321 0.01764849 0.01727197 0.0169029 0.01654673 0.01621254 0.01590309 0.01562008 0.01537157 0.01516075
 0.01499159 0.01486694 0.01477914 0.01472748 0.01470613 0.01471418 0.01475584 0.01483128 0.01494532 0.01509722
 0.01528205 0.01549781 0.01573206 0.01598311 0.016239 0.0164997 0.01675864 0.01701843 0.01727936 0.01754579
 0.01782242 0.01811188 0.01841859 0.0187397 0.01907589 0.01942059 0.01977135 0.02012576 0.0204821 0.02084448
 0.0212136 0.02158967 0.02197308 0.0223571 0.02274152 0.02312836 0.02351887 0.02392891 0.02435625 0.02480054
 0.02525247 0.02567988 0.02608078 0.02643323 0.02674442 0.02701844 0.02725396 0.0274529 0.02760784 0.02771292
 0.02776723 0.02777103 0.02771621 0.02760475 0.02740777 0.02711535 0.02672942 0.02624003 0.02573653 0.02522694
 0.0247538 0.02431841 0.0238706 0.02340804 0.02288843 0.0223151 0.02168355 0.02099834 0.02027513 0.01950853
 0.0186995 0.01782866 0.0168571 0.01580044 0.01463296 0.0134597 0.01235582 0.01136923 0.0105671 0.009868079
 0.009260127 0.00867021 0.008074082 0.007462626 0.006828678 0.006197577 0.005571219 0.004963176 0.004374007 0.003796845
 0.003231182 0.002668829 0.002110655 0.00155668 0.001008923 0.0004737387 -4.698057E-05 -0.0005451073 -0.001022116 -0.001475328
 -0.001910659 -0.00233175 -0.002748221 -0.003165251 -0.003599274 -0.00405927 -0.00455811 -0.005112038 -0.00568021 -0.00626307
 -0.006784407 -0.007226672 -0.007596457 -0.00789023 -0.008165266 -0.008424272 -0.008700044 -0.008990934 -0.009289168 -0.009590994
 -0.009870491 -0.01012956 -0.010361 -0.01056843 -0.01075917 -0.01092844 -0.01107348 -0.01118566 -0.011252 -0.01127543
 -0.01125143 -0.01119299 -0.01110558 -0.01099833 -0.0108766 -0.01074033 -0.01059217 -0.01042082 -0.01022685 -0.00998519
 -0.009693602 -0.009332611 -0.008901492 -0.008432771 -0.007930844 -0.007459827 -0.007018149 -0.006630513 -0.006290498 -0.005988425
 -0.005722221 -0.00548281 -0.005269839 -0.005081466 -0.004910411 -0.004750444 -0.004588918 -0.00441156 -0.004220698 -0.004008559
 -0.003800407 -0.003605191 -0.003432654 -0.003289669 -0.003161965 -0.003048605 -0.00293561 -0.002821143 -0.002703795 -0.002583471
 -0.002469541 -0.002362371 -0.002269882 -0.002190587 -0.002121469 -0.002058384 -0.00198635 -0.0019008 -0.001782421 -0.001633039
 -0.001445806 -0.001227371 -0.000984799 -0.0007157896 -0.0004230577 -9.626499E-05 0.0002706917 0.0006793048 0.001133666 0.001622613
 0.002143177 0.002692798 0.003268521 0.003888529 0.004554505 0.005278105 0.006059868 0.006862444 0.007682082 0.008459328
 0.009196056 0.009872894 0.01049472 0.01107134 0.0115986 0.01207421 0.01248668 0.01281575 0.01305613 0.01319182
 0.01322914 0.0131673 0.01301435 0.01277515 0.0124515 0.01204438 0.01155684 0.01098615 0.01035495 0.009662849
 0.008955594 0.008237388 0.007541809 0.006870838 0.006218944 0.005584746 0.004947248 0.004308289 0.003666616 0.003028371
 0.002415777 0.001830305 0.001289004 0.000783957 0.0003107927 -0.0001400595 -0.0005820702 -0.001017968 -0.001456221 -0.001889822
 -0.002318499 -0.002731443 -0.00312376 -0.003492597 -0.003834778 -0.004159047 -0.004465883 -0.004765971 -0.005060769 -0.005351817
 -0.005639277 -0.005913539 -0.006173878 -0.006408036 -0.006616302 -0.006793906 -0.006942252 -0.007063751 -0.00715958 -0.007233175
 -0.007286386 -0.007323051 -0.00734628 -0.007361252 -0.007369259 -0.007373523 -0.007372371 -0.007365253 -0.007352457 -0.007332469
 -0.007312477 -0.007293023 -0.007284826 -0.007289805 -0.007314111 -0.007359046 -0.007420829 -0.007499333 -0.007582556 -0.007669873
 -0.007750147 -0.007823396 -0.007884106 -0.007932658 -0.007967249 -0.007988703 -0.007997595 -0.007995768 -0.007986394 -0.007971101
 -0.007953499 -0.007932773 -0.007909863 -0.00788231 -0.007848399 -0.007808784 -0.007762317 -0.00771444 -0.007666084 -0.007622405
 -0.007584647 -0.00755366 -0.007529664 -0.007512549 -0.007502308 -0.007501313 -0.007509568 -0.007528116 -0.007556029 -0.007588333
 -0.007623631 -0.007653767 -0.007678931 -0.007695031 -0.00770406 -0.007707471 -0.007707054 -0.007705624 -0.007703692 -0.007702628
 -0.007702276 -0.007703015 -0.007704145 -0.007705573 -0.007706349 -0.007706088 -0.00770491 -0.007702662 -0.007700493 -0.007698525
 -0.007697191 -0.007696519 -0.00769718 -0.007699332 -0.007705568 -0.007715896 -0.007732376 -0.00775353 -0.007775547 -0.007795782
 -0.007805521 -0.007803983 -0.007784947 -0.007751442 -0.007704224 -0.007647206 -0.007584332 -0.007516298 -0.007444922 -0.007368531
 -0.007285985 -0.007199892 -0.007109575 -0.007023564 -0.006943236 -0.006874341 -0.006818238 -0.006769788 -0.006728814 -0.006684889
 -0.006637893 -0.00658408 -0.00652477 -0.006466392 -0.006410531 -0.006367109 -0.006335483 -0.006320092 -0.006317034 -0.006322065
 -0.006330933 -0.006336039 -0.006337633 -0.006332157 -0.006325031 -0.006318001 -0.006316491 -0.006323246 -0.006340241 -0.006368584
 -0.006408497 -0.006460393 -0.006522697 -0.006595634 -0.00667344 -0.006755803 -0.006836154 -0.006914491 -0.006990138 -0.007063582
 -0.007138137 -0.007213227 -0.007288658 -0.007362999 -0.007431921 -0.007496043 -0.007553891 -0.007608027 -0.00766165 -0.007714512
 -0.007768947 -0.007819319 -0.007863367 -0.007895768 -0.007912651 -0.007916708 -0.007906933 -0.007891561 -0.007871849 -0.007853587
 -0.007837733 -0.007824878 -0.007815124 -0.007807831 -0.007802912 -0.007799316 -0.007796415 -0.007789741 -0.00777824 -0.007755257
 -0.007720636 -0.007670197 -0.007605374 -0.007526325 -0.007435626 -0.007335881 -0.00723071 -0.007123933 -0.007018018 -0.006916474
 -0.006816434 -0.006719225 -0.006614958 -0.006502263 -0.006368692 -0.006211731 -0.006024382 -0.005805016 -0.005557089 -0.005280566
 -0.004987805 -0.004679586 -0.00436992 -0.004059189 -0.003756982 -0.003462784 -0.003180227 -0.002907545 -0.002642505 -0.002382602
 -0.002122002 -0.001860251 -0.001593365 -0.00132505 -0.001056715 -0.0007927344 -0.0005367143 -0.0002887629 -5.01182E-05 0.0001815018
 0.0004066269 0.0006261449 0.0008401766 0.001049944 0.001255433 0.001459544 0.00166248 0.001865178 0.002067593 0.002268335
 0.002467871 0.002668178 0.002871035 0.003084539 0.003310215 0.003556869 0.003823195 0.004112181 0.004418577 0.004737998
 0.00506351 0.005387671 0.005706304 0.006014191 0.006312323 0.006599301 0.006879343 0.007152763 0.007425662 0.007698728
 0.007979475 0.008269169 0.008569 0.0088794 0.009187425 0.009492029 0.009772991 0.01003033 0.01025344 0.0104455
 0.01061278 0.01076024 0.01090363 0.01104703 0.01120563 0.01137954 0.01157653 0.01179055 0.01202034 0.01225638
 0.01249313 0.01272274 0.01294089 0.01314263 0.01332554 0.01348827 0.0136292 0.01375492 0.01386516 0.01397485
 0.01408486 0.01420984 0.01435004 0.01450934 0.01468606 0.01487024 0.01505931 0.01523697 0.01540284 0.01554687
 0.0156717 0.01577827 0.01586705 0.01594071 0.01599407 0.01602355 0.01602493 0.01599232 0.01593219 0.01584395
 0.01574121 0.01562786 0.01551188 0.01539605 0.01527938 0.01516205 0.01504286 0.01492164 0.01480268 0.01468612
 0.0145752 0.01446894 0.01436174 0.01425231 0.01413114 0.01400022 0.01385915 0.01371263 0.01357021 0.01343231
 0.01330521 0.01318249 0.01306049 0.01293432 0.01279821 0.01265599 0.01250712 0.01235869 0.01221335 0.01207196
 0.01193573 0.01179987 0.01166398 0.01152402 0.01137958 0.01123141 0.01107962 0.01092739 0.0107746 0.01062187
 0.01046842 0.01031083 0.0101493 0.009981933 0.009810989 0.009639952 0.009470303 0.009306878 0.009145773 0.008986715
 0.008821178 0.008643696 0.008449025 0.008231361 0.007998084 0.007748065 0.007498825 0.007253932 0.007022802 0.006808539
 0.006598691 0.006392894 0.006170331 0.00593063 0.005670188 0.005391103 0.005108452 0.00482348 0.004549961 0.004286505
 0.004036134 0.003797503 0.003569586 0.003351248 0.003141633 0.002936861 0.002733945 0.002527474 0.002312736 0.002088311
 0.001851304 0.001606627 0.001354175 0.001102811 0.0008538184 0.0006158277 0.0003900506 0.000181743 -8.526251E-06 -0.0001808833
 -0.0003355949 -0.0004790232 -0.0006123566 -0.000747661 -0.0008862349 -0.001040764 -0.001210475 -0.001400838 -0.001607865 -0.00182754
 -0.002053812 -0.002277795 -0.002493119 -0.002690498 -0.002867586 -0.003017687 -0.003149887 -0.003264135 -0.003377997 -0.003497532
 -0.003629964 -0.003780208 -0.003933889 -0.004090639 -0.004229981 -0.004350062 -0.004447498 -0.004522632 -0.004587909 -0.004643771
 -0.004699636 -0.004754218 -0.004806173 -0.004855297 -0.004899391 -0.004941126 -0.004985277 -0.00503236 -0.005087446 -0.005143056
 -0.005195181 -0.00523409 -0.005250109 -0.00524569 -0.005216827 -0.005178744 -0.005135505 -0.005096506 -0.005066 -0.005037064
 -0.005009764 -0.004973199 -0.004926242 -0.00487065 -0.004806917 -0.00474919 -0.004698278 -0.00466829 -0.004657139 -0.00466484
 -0.004684872 -0.004698816 -0.004701136 -0.004669101 -0.004609083 -0.004516468 -0.004409701 -0.004304714 -0.004214219 -0.00415509
 -0.004118865 -0.004108217 -0.004104437 -0.004101212 -0.004091853 -0.004072708 -0.004050189 -0.004025117 -0.003998492 -0.003970838
 -0.003931414 -0.00387983 -0.003809671 -0.003722211 -0.003626041 -0.003522216 -0.003421405 -0.00332083 -0.003218074 -0.003109763
 -0.002986673 -0.002850619 -0.00269926 -0.002537912 -0.002370746 -0.002201893 -0.002034139 -0.001873762 -0.001722491 -0.001591526
 -0.001485336 -0.001407818 -0.001363412 -0.001334311 -0.001320328 -0.001291829 -0.001246264 -0.001169866 -0.001062712 -0.000939691
 -0.0008031796 -0.0006807928 -0.0005727677 -0.0004957753 -0.0004462668 -0.0004233941 -0.0004215851 -0.0004300585 -0.0004431237 -0.000448306
 -0.0004426759 -0.0004173454 -0.000376902 -0.0003197732 -0.0002575025 -0.0001947369 -0.0001402636 -9.850953E-05 -7.027509E-05 -5.657772E-05
 -5.608172E-05 -6.892314E-05 -9.276131E-05 -0.0001278796 -0.000162058 -0.0001944175 -0.000203745 -0.0001898363 -0.0001407088 -5.964708E-05
 4.477915E-05 0.0001681078 0.0002924107 0.0004157387 0.0005253021 0.0006219493 0.0007012686 0.0007655533 0.0008147042 0.0008531957
 0.0008833343 0.0009105258 0.0009376241 0.0009685609 0.001004854 0.001049926 0.001104526 0.001172204 0.001254095 0.001347236
 0.001451992 0.001553816 0.001652001 0.001733206 0.001798463 0.001851819 0.001895412 0.001942951 0.001992854 0.002047782
 0.002104451 0.002155253 0.002203594 0.0022496 0.002301201 0.002368217 0.002449822 0.002551025 0.002660364 0.002773847
 0.00288259 0.002981738 0.003072458 0.003153763 0.003230498 0.003303374 0.003374211 0.003443409 0.003507593 0.003566553
 0.003614453 0.003651875 0.003680794 0.003704279 0.003738388 0.003785719 0.003864622 0.00397114 0.004108091 0.004265188
 0.004429532 0.004591459 0.004735785 0.004859967 0.00495589 0.005030369 0.005083483 0.005125775 0.00516111 0.005194118
 0.005227178 0.005257373 0.005284304 0.00530797 0.005327983 0.005352336 0.005381414 0.005422239 0.005474367 0.005536282
 0.005606871 0.005680006 0.005754723 0.005825215 0.005890282 0.005944596 0.005987616 0.006015598 0.006030602 0.006032133
 0.006025964 0.006014617 0.006006822 0.006006438 0.00602265 0.006059833 0.006120605 0.006208311 0.006311017 0.006429104
 0.006538469 0.006637205 0.006706652 0.006746214 0.006761611 0.006755 0.00675104 0.006750093 0.006767871 0.006800775
 0.006844404 0.006898332 0.006957607 0.007028089 0.007117401 0.007227073 0.00736429 0.007520039 0.007690923 0.007867242
 0.008043421 0.008214018 0.008377645 0.008524264 0.008652182 0.008749832 0.00881392 0.00885001 0.0088573 0.008860381
 0.008860504 0.008880076 0.008918824 0.008982736 0.009069219 0.009168539 0.009277887 0.009382234 0.009482693 0.009573058
 0.009658855 0.009746552 0.00983791 0.009939858 0.01004404 0.01014807 0.01024023 0.01031295 0.01036385 0.01038823
 0.01039734 0.01039159 0.01038799 0.01038992 0.01040116 0.01042343 0.01043672 0.01044007 0.0104145 0.0103623
 0.01030063 0.01023473 0.01020389 0.01020508 0.01025187 0.01033218 0.01042567 0.01052474 0.0106078 0.0106757
 0.0107213 0.0107476 0.01075232 0.01074614 0.01072806 0.01072876 0.01075805 0.01083898 0.01098631 0.01116365
 0.01136968 0.01155745 0.01172173 0.01185101 0.01194467 0.01200709 0.0120393 0.0120532 0.01205086 0.01204982
 0.01205064 0.01206524 0.0120911 0.01212945 0.01217529 0.01222224 0.01226484 0.01229373 0.01230953 0.01230808
 0.01229709 0.01228027 0.01225977 0.01223891 0.01220954 0.01216944 0.01211802 0.01205347 0.01198897 0.01192553
 0.01187249 0.01183034 0.01179951 0.0117803 0.01177709 0.01178932 0.01181898 0.01185981 0.01189255 0.01191052
 0.01188499 0.01182433 0.01172438 0.01160732 0.01149573 0.01140448 0.01135277 0.01134366 0.01138579 0.01146959
 0.01159924 0.01173981 0.01188677 0.01199811 0.01206435 0.01208113 0.01204541 0.01198889 0.01191308 0.01183711
 0.01176028 0.01167754 0.01159072 0.01150521 0.01142866 0.01139029 0.0113946 0.01146913 0.01160658 0.01180959
 0.01206476 0.01235822 0.01268148 0.0130249 0.01338097 0.01374791 0.01410423 0.01444439 0.01474296 0.01499033
 0.01518688 0.01532923 0.01543952 0.01551994 0.01557827 0.01561493 0.01562121 0.01559806 0.01555348 0.01549132
 0.01543833 0.01539565 0.01538226 0.01539471 0.01543638 0.01549873 0.01557359 0.01564372 0.01568609 0.01569257
 0.01564005 0.01555986 0.01545475 0.01537908 0.01535573 0.01540598 0.0155455 0.01574389 0.01600198 0.01626755
 0.01653668 0.01676054 0.01693637 0.01703014 0.01704298 0.01697627 0.01683811 0.01667402 0.01649321 0.0163549
 0.01625522 0.01622046 0.01622793 0.01625594 0.0162779 0.01625246 0.01617466 0.01602 0.01581665 0.01556806
 0.01531617 0.01507768 0.01487552 0.01472299 0.01460359 0.01452102 0.01442357 0.01430726 0.0141245 0.01387254
 0.01356368 0.01320265 0.01285651 0.01252636 0.01225676 0.01203601 0.01184593 0.01167685 0.01149154 0.01130062
 0.01110137 0.01091497 0.01076667 0.01066351 0.01062362 0.01063254 0.01069053 0.01077268 0.01087037 0.01096543
 0.01105036 0.0111242 0.01118526 0.01123955 0.01128815 0.01132462 0.01134865</values></Ydata></AB><ScSm><Ydata ylabel="Single channel"><values byteorder="INTEL" format="FLOAT32" numvalues="1814"> 0.07161769 0.0716269 0.07169926 0.07186097 0.07208493 0.07230203 0.07244928 0.07251352 0.07251806 0.07247683
 0.07239851 0.07233542 0.07237472 0.07255207 0.07279756 0.07298334 0.07302487 0.07295464 0.07290515 0.07298002
 0.07311216 0.07308298 0.07273027 0.07213674 0.07157393 0.07125123 0.07118796 0.07137363 0.0718967 0.0726928
 0.07326968 0.07306353 0.07215092 0.07127027 0.07100175 0.07121225 0.07141013 0.07131235 0.07092488 0.07042555
 0.07021724 0.07082308 0.07236993 0.07416034 0.07492276 0.07361475 0.07016931 0.06573042 0.06222761 0.06133951
 0.06331253 0.06662732 0.06913777 0.06978141 0.06908963 0.06810248 0.06725016 0.06648391 0.06599924 0.06627907
 0.06742358 0.06869455 0.06889461 0.06739214 0.0648752 0.06286451 0.06232626 0.06306531 0.06453793 0.06644388
 0.0679075 0.06700929 0.06267546 0.05706785 0.05461694 0.05780708 0.06452276 0.07011818 0.07155266 0.06909356
 0.06495588 0.06146482 0.06018159 0.06149234 0.06454577 0.06795638 0.07063936 0.07185799 0.07104227 0.06828825
 0.06484041 0.06248544 0.06245421 0.06494072 0.0690641 0.07295106 0.07458778 0.07330732 0.07023185 0.06708828
 0.06507303 0.06486167 0.06678104 0.07046878 0.0748456 0.07873933 0.08136639 0.08241665 0.08211757 0.08108726
 0.07986452 0.07882168 0.07849075 0.07923339 0.0803795 0.08048578 0.07890765 0.07666056 0.07537355 0.07560471
 0.07639778 0.07644515 0.07541212 0.07371978 0.07124707 0.0673048 0.06221361 0.05772832 0.05528139 0.05488824
 0.05619159 0.05902426 0.06218345 0.06335822 0.06166361 0.05925409 0.05918547 0.06215292 0.06613712 0.06886799
 0.06992455 0.07056659 0.07211316 0.07459582 0.07659638 0.07631589 0.0733569 0.06972659 0.06841905 0.07047537
 0.07398175 0.076424 0.07733989 0.07803842 0.07931276 0.08020893 0.07901955 0.07531423 0.07102914 0.06926841
 0.07159627 0.07646784 0.08035359 0.08035333 0.07614513 0.07004826 0.06521565 0.06345624 0.06475624 0.06848222
 0.07407647 0.08042171 0.08555435 0.08776602 0.08684893 0.08399716 0.08044313 0.07631613 0.07129582 0.06651475
 0.06478757 0.06794828 0.07450433 0.08088122 0.08460912 0.0855532 0.08452839 0.08177832 0.0771993 0.07180531
 0.0682123 0.06860854 0.07211405 0.0752759 0.07568277 0.07416615 0.07302085 0.07314491 0.0737052 0.07390092
 0.07410519 0.07522604 0.07740711 0.07968443 0.08092085 0.08083913 0.08006814 0.07940832 0.07910446 0.07866763
 0.07756438 0.07628616 0.07629311 0.0784169 0.08171696 0.08444795 0.08581163 0.08624429 0.08624585 0.08549167
 0.08330298 0.07993202 0.07706998 0.0765871 0.07872517 0.08195606 0.08457035 0.08589867 0.08613575 0.08572258
 0.08505347 0.08435121 0.08372765 0.08345753 0.08390999 0.08502362 0.08618675 0.08684889 0.08697159 0.08675539
 0.08624747 0.08541904 0.08444746 0.0837255 0.08358165 0.0840351 0.08483486 0.08568303 0.08634244 0.0866061
 0.08637493 0.08580498 0.08520976 0.08477589 0.08450498 0.08441463 0.0845997 0.08504973 0.08556341 0.08592108
 0.08605894 0.08603525 0.08590549 0.08568542 0.08539863 0.08512127 0.08497427 0.08504243 0.08527547 0.08551753
 0.08568208 0.08583538 0.08604138 0.08620255 0.08616169 0.08591937 0.08564948 0.08551399 0.08553354 0.0856259
 0.08569348 0.08564698 0.08540545 0.08496621 0.08449311 0.08425255 0.08440102 0.08487187 0.08548079 0.08606137
 0.08648804 0.08669034 0.08670711 0.08665032 0.08657375 0.08643236 0.08619035 0.08592518 0.08580408 0.08595604
 0.08635294 0.08682229 0.08718877 0.08738521 0.08744087 0.08743645 0.08747704 0.08761631 0.08777723 0.08782302
 0.08773026 0.08762763 0.08764294 0.08776021 0.08785041 0.08782277 0.08772784 0.0877033 0.08782485 0.08803723
 0.08823669 0.08838619 0.08852954 0.08870724 0.08887559 0.08892483 0.0887995 0.08858413 0.08842355 0.08837067
 0.08837368 0.08840216 0.08850069 0.08869396 0.08890766 0.08903284 0.08904408 0.0890166 0.08902842 0.08906994
 0.08906318 0.08895713 0.08878428 0.08862695 0.08854803 0.08855477 0.08860734 0.08864821 0.08863333 0.08855404
 0.08843648 0.08831606 0.0882109 0.08812882 0.088099 0.08816694 0.08833055 0.08849357 0.08852053 0.08835713
 0.08808855 0.08786517 0.08776651 0.08774038 0.08767413 0.08751182 0.08729079 0.08708052 0.08691586 0.08679089
 0.08668871 0.08660337 0.08655164 0.08657417 0.08670098 0.08689223 0.0870342 0.08703024 0.08689384 0.08672862
 0.08662638 0.08660744 0.08664115 0.08668913 0.08673799 0.08681183 0.08693534 0.08707397 0.08714889 0.0871317
 0.08708555 0.08709667 0.08720423 0.08740001 0.08763854 0.08783498 0.08791421 0.08789137 0.08786492 0.0879121
 0.08802342 0.08814819 0.08826414 0.08838119 0.08850786 0.08864582 0.08880948 0.08902621 0.08930869 0.08963173
 0.08993779 0.0901716 0.09032519 0.09045793 0.09066036 0.09098097 0.09138308 0.09177564 0.0920898 0.09232934
 0.09254954 0.0927913 0.09304928 0.09331045 0.09359813 0.09394723 0.09434789 0.09474866 0.09511444 0.09545402
 0.09579157 0.09613711 0.09649131 0.09686407 0.09727693 0.09774008 0.09822036 0.09864474 0.09895773 0.099177
 0.09938319 0.09965972 0.1000398 0.1004807 0.1008759 0.101133 0.101272 0.1014203 0.1016754 0.1020028
 0.1023068 0.1025742 0.1028887 0.1033071 0.1037732 0.1041766 0.1044679 0.1046952 0.1049375 0.1052157
 0.1054749 0.1056549 0.1057677 0.1058853 0.1060534 0.1062583 0.1064918 0.1067971 0.1072076 0.1076708
 0.1080853 0.1083963 0.1086198 0.1087936 0.1089442 0.1090854 0.1092139 0.1093183 0.1094095 0.1095178
 0.1096436 0.1097499 0.1098232 0.1099081 0.110057 0.1102778 0.1105551 0.1108853 0.1112552 0.1116169
 0.1119336 0.1122423 0.1126174 0.1130559 0.1134487 0.1136965 0.1138158 0.113893 0.1139741 0.1140602
 0.1141805 0.1143966 0.1147259 0.1151145 0.1154998 0.1158672 0.1162335 0.1166003 0.1169372 0.117201
 0.1173667 0.1174465 0.1174861 0.1175462 0.1176817 0.1179157 0.1182196 0.1185282 0.1187836 0.1189568
 0.1190295 0.1189917 0.1188827 0.1188006 0.1188243 0.1189225 0.1189687 0.1188462 0.118521 0.11802
 0.1173778 0.1166244 0.1158098 0.1150133 0.1143219 0.1137988 0.1134795 0.1133979 0.1135961 0.1140836
 0.1147855 0.1155604 0.116275 0.1168376 0.1171617 0.1171525 0.1167702 0.1160856 0.1152409 0.1143668
 0.1135445 0.1128044 0.1121292 0.1114906 0.1109294 0.1105954 0.1106827 0.1113202 0.1125101 0.1141289
 0.1159605 0.1177614 0.1193506 0.1206708 0.1217734 0.1227423 0.1236363 0.1244895 0.1253297 0.1261624
 0.1269507 0.1276469 0.1282479 0.1287921 0.1293048 0.1297706 0.1301593 0.130456 0.1306748 0.1308557
 0.131034 0.1311964 0.1312907 0.1312924 0.1312405 0.1311861 0.1311268 0.1310049 0.1307563 0.1303588
 0.1298652 0.129421 0.1292385 0.1295167 0.1303424 0.1316414 0.1332253 0.1348952 0.1365034 0.1379386
 0.1391072 0.1399694 0.1405758 0.1410342 0.1414392 0.1418399 0.1422519 0.1426715 0.1430813 0.1434641
 0.143818 0.1441597 0.1445161 0.1449031 0.1453043 0.1456784 0.1460022 0.1463031 0.1466394 0.1470433
 0.1474868 0.1479094 0.1482819 0.1486329 0.1489995 0.1493657 0.14968 0.1499276 0.1501551 0.1504233
 0.1507625 0.1511657 0.1515932 0.1519806 0.15228 0.1525024 0.1527061 0.1529399 0.1532111 0.1535043
 0.1538076 0.154113 0.1544095 0.1546947 0.1549865 0.155305 0.155635 0.1559259 0.1561434 0.1563116
 0.1564912 0.1567203 0.1569858 0.1572517 0.1575035 0.1577639 0.1580634 0.1583997 0.1587303 0.1590082
 0.1592213 0.1593944 0.1595634 0.159753 0.1599723 0.1602189 0.1604817 0.1607456 0.161001 0.16125
 0.1614999 0.1617518 0.1620004 0.162242 0.162479 0.162717 0.1629601 0.1632092 0.1634648 0.1637347
 0.1640325 0.1643571 0.1646785 0.1649567 0.1651755 0.1653504 0.1655082 0.1656688 0.1658457 0.1660478
 0.1662767 0.1665245 0.1667778 0.167025 0.1672629 0.1674951 0.1677252 0.1679535 0.1681818 0.168415
 0.1686593 0.1689197 0.1691955 0.1694741 0.1697356 0.1699703 0.1701865 0.1703998 0.1706183 0.1708399
 0.1710573 0.1712646 0.1714648 0.1716703 0.1718919 0.172127 0.172363 0.1725905 0.17281 0.1730282
 0.1732479 0.1734656 0.1736787 0.17389 0.1741048 0.1743253 0.1745505 0.1747776 0.1750036 0.1752278
 0.1754509 0.175672 0.1758896 0.1761066 0.1763266 0.1765479 0.1767655 0.1769786 0.1771907 0.1774061
 0.1776277 0.1778555 0.1780842 0.1783084 0.1785272 0.1787431 0.178958 0.1791742 0.1793946 0.1796209
 0.1798537 0.1800908 0.1803255 0.1805514 0.1807696 0.1809861 0.1812046 0.1814271 0.1816575 0.1818992
 0.1821521 0.1824127 0.1826716 0.1829147 0.1831335 0.183332 0.1835197 0.1837042 0.1838897 0.184075
 0.1842558 0.1844343 0.1846209 0.1848222 0.1850349 0.1852536 0.1854743 0.1856931 0.1859096 0.1861289
 0.1863541 0.1865827 0.1868121 0.1870418 0.1872701 0.1874954 0.1877166 0.1879314 0.1881415 0.1883553
 0.1885772 0.1888022 0.1890265 0.1892539 0.189486 0.1897186 0.1899476 0.1901717 0.1903921 0.1906157
 0.1908472 0.1910799 0.1913048 0.1915234 0.1917411 0.191959 0.1921802 0.1924086 0.1926385 0.1928617
 0.1930815 0.1933068 0.1935403 0.1937799 0.194019 0.1942475 0.1944641 0.1946792 0.1948946 0.1951021
 0.1953077 0.1955296 0.1957696 0.1960136 0.1962528 0.1964842 0.1967067 0.1969275 0.1971508 0.1973535
 0.1974774 0.1973947 0.1967982 0.1950762 0.1912961 0.1843941 0.1736062 0.1589564 0.1414161 0.1225542
 0.1039577 0.08682559 0.07186151 0.05937178 0.04942033 0.04192851 0.03673602 0.03369901 0.03279693 0.03425507
 0.03868143 0.04670722 0.0576151 0.06812592 0.07367882 0.07203695 0.06542572 0.05850119 0.05447971 0.05358531
 0.05443931 0.05586293 0.05747811 0.05949572 0.06228763 0.06596702 0.07036246 0.07546403 0.08164679 0.08919257
 0.09770989 0.1062942 0.1143059 0.1218717 0.1295819 0.1377749 0.1461788 0.154181 0.1613182 0.167505
 0.1729299 0.1778438 0.1824258 0.1867669 0.1909117 0.1948493 0.198434 0.2013598 0.2033037 0.2041671
 0.2041952 0.2038441 0.2035105 0.2033758 0.203458 0.2037328 0.2041806 0.2047772 0.2054957 0.2063109
 0.2071888 0.2080893 0.2089834 0.2098564 0.2106976 0.2114971 0.2122435 0.2129198 0.2135135 0.2140313
 0.2144954 0.2149263 0.2153374 0.2157347 0.2161176 0.2164845 0.2168379 0.2171789 0.2175015 0.2178
 0.2180749 0.2183271 0.218554 0.2187567 0.2189447 0.2191313 0.2193281 0.2195404 0.2197635 0.2199876
 0.2202063 0.2204172 0.2206188 0.2208136 0.221009 0.22121 0.2214133 0.2216122 0.2218041 0.221993
 0.2221882 0.222396 0.2226109 0.2228188 0.2230123 0.2231978 0.2233871 0.2235871 0.2237961 0.2240072
 0.2242171 0.2244308 0.2246518 0.224872 0.2250823 0.2252851 0.2254881 0.2256949 0.2259086 0.2261323
 0.2263543 0.2265488 0.2267016 0.2268314 0.2269805 0.2271829 0.2274349 0.2276971 0.2279314 0.2281336
 0.2283227 0.2285126 0.2287015 0.2288806 0.2290498 0.2292311 0.2294551 0.2297223 0.2299968 0.2302501
 0.2304856 0.2307173 0.2309536 0.2312027 0.2314567 0.2316743 0.2318194 0.2319191 0.232061 0.2323225
 0.2327014 0.2331094 0.2334469 0.2336883 0.2338845 0.2340987 0.2343613 0.2346472 0.2348565 0.2348827
 0.2347711 0.2347484 0.2350159 0.2355497 0.2361559 0.2366716 0.2370624 0.2373723 0.2376423 0.2378681
 0.2380038 0.2380127 0.2379459 0.2379659 0.2382363 0.2387517 0.2393274 0.2397893 0.2401121 0.2403497
 0.2405378 0.2406936 0.2407813 0.2406504 0.2401948 0.239646 0.2395156 0.2400987 0.2411349 0.2420829
 0.2426574 0.2429763 0.2432503 0.2435257 0.243744 0.2438018 0.2434408 0.2423907 0.2409001 0.2398906
 0.2402005 0.2417386 0.2436332 0.245102 0.2459482 0.2463683 0.2466103 0.2468059 0.2468749 0.2465353
 0.2456209 0.2445012 0.2439868 0.2445826 0.2459181 0.2471431 0.2477963 0.2480484 0.2482433 0.2485131
 0.2486908 0.2482724 0.2467022 0.2441908 0.2421251 0.2420919 0.2443256 0.247428 0.2497554 0.2508315
 0.2512122 0.2512727 0.2506539 0.2489112 0.24619 0.2431557 0.2407766 0.240194 0.2419709 0.2451444
 0.2477675 0.2488296 0.2491095 0.2498907 0.2514293 0.2529634 0.2537029 0.253439 0.2524114 0.2508782
 0.2489931 0.2472041 0.2464924 0.2476778 0.2504212 0.2533474 0.2553138 0.256276 0.256689 0.2561675
 0.2532166 0.2470297 0.2397369 0.2358154 0.2381354 0.2449588 0.2518074 0.2558673 0.2575302 0.2582901
 0.2587396 0.2584059 0.256031 0.2502626 0.2417857 0.2346604 0.2335743 0.2392063 0.2474595 0.2532875
 0.2541294 0.2501751 0.2434624 0.2372732 0.2347938 0.2371845 0.2430715 0.2499041 0.2554839 0.258572
 0.2588837 0.256968 0.2541609 0.2522611 0.2522308 0.2527756 0.2513263 0.247284 0.2430165 0.2403817
 0.237855 0.2333522 0.2288051 0.2288852 0.2349311 0.2427109 0.2471762 0.2475773 0.2465541 0.2453262
 0.2416057 0.2328906 0.2212007 0.2131721 0.2142555 0.2230629 0.2326096 0.2371546 0.2367628 0.2352604
 0.2351278 0.2349706 0.2314883 0.2237821 0.215548 0.2119775 0.2142404 0.2184373 0.2202179 0.2182598
 0.2127614 0.2040362 0.1949807 0.191974 0.1994996 0.214655 0.2294229 0.2372723 0.2355542 0.2240713
 0.2059794 0.18967 0.1846872 0.1931883 0.2073233 0.2164554 0.2156036 0.2063295 0.1921782 0.176245
 0.1625972 0.1567361 0.162307 0.1773942 0.1945671 0.2045801 0.2014847 0.187256 0.1721901 0.1674953
 0.1750942 0.1862967 0.1915303 0.1890227 0.1834406 0.1798775 0.1809078 0.1861457 0.1926622 0.1977265
 0.2009853 0.2014168 0.1944017 0.1773005 0.1568726 0.1448227 0.1456327 0.154281 0.1656314 0.1790199
 0.1921227 0.197812 0.1921989 0.1820048 0.1788319 0.1868591 0.1992821 0.2066493 0.2062247 0.202479
 0.2001927 0.199352 0.1975498 0.1955336 0.1974086 0.2049514 0.2144876 0.2209847 0.2232847 0.223656
 0.2239536 0.2242185 0.2239679 0.223029 0.2214634 0.2196993 0.2184069 0.2177436 0.2172072 0.2163973
 0.2149957 0.2116205 0.2041357 0.1926636 0.181489 0.1756769 0.1757191 0.1778767 0.1797445 0.1816699
 0.1815729 0.1734688 0.155389 0.1358868 0.1278102 0.1358837 0.1531947 0.1690647 0.1772012 0.176218
 0.1664707 0.1503505 0.1349373 0.1297593 0.1389865 0.1574171 0.176053 0.1898585 0.1982771 0.2009011
 0.1965868 0.1866135 0.1759317 0.1703344 0.1729412 0.1828157 0.195245 0.2029233 0.1995329 0.1860512
 0.1735592 0.1750516 0.1917617 0.2110518 0.2206162 0.2209538 0.2203126 0.2218801 0.2222266 0.2203485
 0.2212685 0.2291433 0.2411427 0.2502405 0.2513831 0.243479 0.2287338 0.2131399 0.2049146 0.2078982
 0.21716 0.2243329 0.2256903 0.2216574 0.2118862 0.1973161 0.1853805 0.1855382 0.1983217 0.2141001
 0.2240189 0.2280575 0.2310266 0.2342767 0.2340639 0.2272304 0.2164744 0.2086881 0.208138 0.2127278
 0.2175393 0.2200101 0.2199862 0.2168054 0.2097008 0.2010763 0.1965334 0.2000172 0.2097328 0.2198168
 0.2255846 0.226483 0.224705 0.2223831 0.2201642 0.2173964 0.2135454 0.2100073 0.2098291 0.2144218
 0.2212611 0.2264591 0.2292016 0.2320053 0.2367534 0.2420842 0.2450287 0.2442376 0.241266 0.2392239
 0.2402835 0.243952 0.2474356 0.2480203 0.245653 0.2432392 0.2439715 0.2482781 0.2537557 0.2579046
 0.2601742 0.2614357 0.2624974 0.2634012 0.2634007 0.2615341 0.2580009 0.2549578 0.2549973 0.2585799
 0.2635911 0.2675129 0.2694484 0.26999 0.2698486 0.2691109 0.2676319 0.2656985 0.2640553 0.2633195
 0.2635368 0.2643321 0.2653085 0.2662193 0.2669387 0.267444 0.2677882 0.2680203 0.2681606 0.2682503
 0.2683318 0.268366 0.2682741 0.2681044 0.2680575 0.2682705 0.2686396 0.2689297 0.2689926 0.2687861
 0.2682454 0.267288 0.2659548 0.2644128 0.2627674 0.260986 0.2591267 0.2576022 0.2570626 0.2579063
 0.2599047 0.2623419 0.2645076 0.2660549 0.2669907 0.2674783 0.2676943 0.2677771 0.2678041 0.2677833
 0.2676879 0.2675068 0.2672621 0.2669812 0.2666737 0.266349 0.2660428 0.2657953 0.2655995 0.2653948
 0.2651161 0.2647408 0.2642884 0.2637932 0.263276 0.2627226 0.262084 0.2613131 0.2604107 0.2594345
 0.258465 0.25756 0.2567237 0.2559068 0.2550455 0.2541057 0.2530769 0.2519345 0.2506569 0.2492976
 0.2479934 0.2468566 0.2458773 0.2449526 0.2439836 0.2429191 0.2417457 0.2404776 0.2391523 0.2378055
 0.2364475 0.235068 0.2336499 0.2321716 0.2306101 0.2289538 0.2272102 0.225403 0.2235654 0.2217215
 0.2198506 0.2178663 0.2156414 0.2130554 0.2100161 0.2064546 0.2023376 0.1977105 0.1927246 0.1876034
 0.1825694 0.1777908 0.1733822 0.1694315 0.1660156 0.1631953 0.16101 0.1594846 0.1586397 0.1584916
 0.1590387 0.1602441 0.1620282 0.1642769 0.1668527 0.1696011 0.1723593 0.1749814 0.1773806 0.1795606
 0.1815975 0.1835649 0.185469 0.1872583 0.1888847 0.1903363 0.1916185 0.1927332 0.1936845 0.1944885
 0.1951704 0.1957584 0.1962769 0.1967405 0.197154 0.1975206 0.1978471 0.1981441 0.1984265 0.1987136
 0.1990248 0.1993727 0.1997653 0.2002115 0.200722 0.2013009 0.2019365 0.2026083 0.2033045 0.2040267
 0.2047829 0.2055878 0.2064721 0.207476 0.2086279 0.2099348 0.2113853 0.2129467 0.2145545 0.2161206
 0.2175569 0.2187949 0.2197945 0.220545 0.2210633 0.2213853 0.2215502 0.2215868 0.2215122 0.2213407
 0.2210848 0.2207498 0.2203412 0.2198789 0.2193895 0.2188842 0.2183599 0.2178217 0.2172852 0.216756
 0.2162274 0.215702 0.2151931 0.2147017 0.2142103 0.2137057 0.2131922 0.2126733 0.2121373 0.2115737
 0.2109917 0.2104019 0.2097814 0.2090779 0.2082555 0.207317 0.2062772 0.2051349 0.2038844 0.2025376
 0.2011183 0.1996396 0.1980943 0.1964665 0.1947491 0.1929508 0.1910787 0.1891245 0.187086 0.1850078
 0.1829788 0.181077 0.1793213 0.1776773 0.1761012 0.1745766 0.1731161 0.1717321 0.170415 0.1691448
 0.1679142 0.1667338 0.1656213 0.1645917 0.1636495 0.1627884 0.162007 0.1613143 0.1607162 0.160207
 0.1597777 0.1594229 0.1591422 0.1589487 0.1588618 0.1588727 0.1589251 0.1589459 0.1588918 0.1587663
 0.158608 0.1584589 0.1583359 0.1582308 0.1581289 0.1580046 0.1578008 0.1574352 0.1568298 0.15593
 0.1547161 0.15321 0.1514691 0.1495854 0.147695 0.1459527 0.1444656 0.1432667 0.1423433 0.1416539
 0.1411226 0.1406761 0.1403016 0.1400533 0.1399958 0.1401303 0.1403519 0.1405034 0.1405156 0.1404843
 0.140586 0.1409347 0.1415183 0.1422245 0.1429136 0.1434959 0.1439467 0.1442613 0.1444397 0.1445099
 0.144509 0.1444418 0.1442965 0.1440807 0.1438099 0.1434903 0.1431259 0.1427096 0.1422145 0.1416245
 0.1409496 0.1401967 0.1393616 0.138442 0.1374118 0.1362355 0.1349795 0.1338644 0.1331467 0.1329733
 0.1333343 0.13408 0.1350051 0.1359782 0.1369261 0.1376676 0.1379601 0.1378719 0.1379735 0.1389319
 0.1408752 0.1432473 0.1453012 0.1466442 0.1472839 0.1473311 0.1468469 0.1458817 0.1444481 0.142496
 0.1400421 0.1372394 0.1342498 0.1311953 0.1282556 0.1256329 0.1234232 0.1216286 0.1202238 0.119234
 0.1187924 0.1185513 0.116669 0.1107763 0.1016461 0.09482443 0.09595355 0.1044182 0.1137847 0.1185977
 0.1187137 0.1170387 0.1155702 0.1146045 0.1140474 0.1140626 0.1147906 0.1160775 0.1175122 0.1186809
 0.1194193 0.1197716 0.1197079 0.1188911 0.11661 0.1120213 0.1048367 0.09591931 0.08698298 0.0795819
 0.07441131 0.0713422 0.06977212 0.06897048 0.0684309 0.0681082 0.06831186 0.06933972 0.07122728 0.07381709
 0.07692459 0.0803023 0.08353623 0.0862146 0.08823718 0.08980142 0.09106886 0.09198943 0.09245094 0.09244927
 0.09208028 0.09146476 0.09071469 0.08990517 0.08902621 0.0879944 0.0867947 0.08562061 0.08477479 0.08438399
 0.08429562 0.0842815 0.08424054 0.08418123 0.08412303 0.0840642 0.08399953 0.08396361 0.08405606 0.08436082
 0.08482897 0.08530287 0.08565737 0.08588089 0.08603488 0.08613084 0.08602612 0.0855435 0.08477875 0.08411038
 0.08371761 0.083272 0.08237085 0.08115205 0.08020603 0.0799282 0.08017282 0.08051129 0.08063172 0.08047999
 0.08021638 0.08013761 0.08048638 0.08116539</values></Ydata></ScSm><ScRf><Ydata ylabel="Single channel"><values byteorder="INTEL" format="FLOAT32" numvalues="1820"> 0.0607705 0.06093207 0.06102119 0.06104298 0.06103163 0.06103845 0.06111022 0.06126107 0.06145938 0.06164464
 0.06176926 0.06183003 0.06184925 0.06183265 0.06177776 0.06172483 0.06175355 0.06190309 0.06211567 0.06227626
 0.06230859 0.06224393 0.06220087 0.06226781 0.0623835 0.06235894 0.06205548 0.06154465 0.06106103 0.06078615
 0.06073462 0.06089365 0.06134216 0.06203438 0.06254999 0.06239198 0.06161035 0.060839 0.06059223 0.06077103
 0.06095372 0.06088612 0.06056298 0.06013513 0.05995325 0.0604722 0.06180413 0.06335092 0.06401861 0.06290579
 0.05994675 0.05612125 0.05309433 0.05232018 0.05401627 0.05687338 0.05904119 0.05960451 0.05902067 0.05818306
 0.05745848 0.05680074 0.05637462 0.05659663 0.05756032 0.05864099 0.05881532 0.05753899 0.05539544 0.05368084
 0.05321825 0.05384159 0.05509342 0.05672552 0.05798846 0.05722924 0.05351904 0.04870997 0.04660748 0.04935184
 0.05513342 0.05995977 0.06120563 0.05909003 0.05552233 0.052518 0.05142727 0.05257343 0.0552111 0.05814528
 0.06044916 0.06149586 0.06079689 0.05843193 0.05546682 0.05343557 0.05339804 0.05552582 0.05906704 0.06241383
 0.06383161 0.06273864 0.06009338 0.05738366 0.05564895 0.05547768 0.05714827 0.06034146 0.06412652 0.06749837
 0.06978223 0.07070272 0.07044947 0.06956053 0.06851112 0.06762427 0.06735025 0.06799354 0.06897794 0.0690645
 0.06769933 0.06575561 0.06463602 0.06482428 0.06550105 0.06554121 0.06465304 0.06319521 0.0610619 0.0576594
 0.05326498 0.04939434 0.04728879 0.04696821 0.04812666 0.05061457 0.05338338 0.05442827 0.0529786 0.05089184
 0.05080993 0.05334462 0.05676574 0.05911893 0.06003759 0.06060591 0.06196228 0.06413031 0.06587484 0.06563257
 0.06306231 0.05991239 0.05878443 0.06058136 0.06364151 0.06578325 0.06660447 0.06723778 0.06836824 0.06916856
 0.06816188 0.06497857 0.06129473 0.05979309 0.06182448 0.06605452 0.06943125 0.06944029 0.06579796 0.06051657
 0.05633644 0.05483012 0.0559887 0.05926884 0.06418954 0.06977544 0.07431312 0.07631028 0.07557482 0.07313587
 0.07006891 0.06649594 0.06214019 0.05798844 0.05650544 0.05930694 0.06509392 0.07073486 0.07406281 0.07495904
 0.07413407 0.07178748 0.06781246 0.06310114 0.05997588 0.06038474 0.06355424 0.0664241 0.06685029 0.06556188
 0.06459376 0.06475164 0.06530567 0.06554845 0.06581147 0.06690019 0.06893608 0.07105134 0.07222541 0.07220998
 0.07157303 0.07104141 0.07084052 0.07052685 0.06961451 0.06854954 0.06865543 0.07067922 0.07375672 0.07629851
 0.07758623 0.07803261 0.07810626 0.07750897 0.07560207 0.07259579 0.07003407 0.06964654 0.0716756 0.07472397
 0.07720973 0.07850839 0.07880523 0.07851553 0.07800003 0.07745498 0.07697926 0.07682537 0.07733084 0.07843712
 0.07958311 0.08026643 0.08045361 0.08032686 0.07992667 0.07923029 0.07841106 0.07783651 0.07780261 0.07831432
 0.07913467 0.07999542 0.08068745 0.08101894 0.08088576 0.08042352 0.07993066 0.07959594 0.07942545 0.07942805
 0.079686 0.08018988 0.08075073 0.0811571 0.08134479 0.08137219 0.08130142 0.08115542 0.08095685 0.08077271
 0.08071268 0.08085246 0.0811379 0.08141823 0.08161934 0.08181814 0.08208112 0.08230659 0.08233108 0.08215082
 0.081939 0.08185665 0.08191903 0.08203909 0.08212558 0.08210658 0.08191614 0.08155145 0.08116028 0.08098893
 0.08118687 0.08169881 0.08235535 0.08299151 0.08347181 0.08371849 0.08377138 0.08374684 0.08370253 0.08359736
 0.08339861 0.08318232 0.08310732 0.08329312 0.0837108 0.08419718 0.08458598 0.08481114 0.08489938 0.08493171
 0.08501479 0.08519924 0.08540027 0.08547534 0.08540385 0.0853228 0.08536171 0.08549522 0.08558535 0.08554581
 0.08544184 0.08542243 0.08556271 0.08579637 0.08600754 0.08615856 0.08630705 0.08650778 0.08671485 0.08680113
 0.08669524 0.08647978 0.08630898 0.08624573 0.08624305 0.08627453 0.08639127 0.08661877 0.08686885 0.08701429
 0.08702819 0.08700441 0.0870371 0.0871112 0.08712816 0.0870232 0.0868338 0.08666055 0.08658393 0.08661717
 0.08671123 0.08679084 0.08679923 0.08672798 0.08661188 0.08649422 0.08639903 0.0863426 0.0863643 0.08651235
 0.08676966 0.08700864 0.08706577 0.08688813 0.08659545 0.08637606 0.08631684 0.08634049 0.0863035 0.08613627
 0.08588314 0.08563337 0.08544233 0.0853119 0.08521556 0.08513108 0.08506846 0.0850738 0.08518095 0.0853406
 0.08542243 0.08532484 0.08507727 0.08480833 0.08462543 0.08454965 0.08454219 0.084553 0.08455797 0.08457899
 0.08465023 0.08474665 0.08478449 0.0847183 0.08460181 0.0845333 0.08457662 0.08473717 0.08495823 0.08512928
 0.08515851 0.08506475 0.08496198 0.08494056 0.08499593 0.08507623 0.08515513 0.08523747 0.085326 0.08541676
 0.08552202 0.08567353 0.08589222 0.08615848 0.08641563 0.08660723 0.0867224 0.08681346 0.08696169 0.0872118
 0.08753406 0.08785011 0.0880989 0.08828242 0.08845004 0.0886388 0.08884187 0.08904486 0.08926976 0.08954997
 0.08987497 0.09019715 0.09049044 0.09076986 0.09105603 0.09134993 0.09164627 0.09195546 0.09230652 0.09272037
 0.09316572 0.09355354 0.09380723 0.09394184 0.09405756 0.09425948 0.09458566 0.09498016 0.09531856 0.09550238
 0.09556469 0.09565069 0.09585958 0.0961415 0.09639166 0.09660855 0.09689545 0.09731284 0.09778737 0.09818448
 0.09844065 0.09860691 0.09877651 0.09898403 0.09917878 0.09929778 0.09935127 0.09941162 0.09952492 0.09967886
 0.09987013 0.1001475 0.1005444 0.1010026 0.1014113 0.1017065 0.1018994 0.1020309 0.1021321 0.1022147
 0.1022721 0.1023002 0.1023289 0.1024025 0.1025148 0.1026036 0.1026312 0.1026393 0.1027 0.1028433
 0.1030601 0.1033393 0.1036611 0.1039743 0.1042381 0.1044867 0.1047986 0.1051784 0.1055154 0.1057005
 0.1057481 0.1057562 0.1057801 0.1058105 0.1058596 0.1059892 0.1062358 0.1065629 0.1069103 0.1072562
 0.1076105 0.1079694 0.1082946 0.1085303 0.1086406 0.10864 0.108595 0.1085928 0.1087006 0.108935
 0.1092535 0.1095817 0.1098596 0.1100597 0.1101659 0.1101695 0.1101086 0.110082 0.1101742 0.1103606
 0.1105147 0.1105137 0.1103172 0.109946 0.1094269 0.1087854 0.108078 0.107399 0.1068395 0.1064461
 0.1062273 0.106198 0.1063978 0.106846 0.1074829 0.1081824 0.1088265 0.1093403 0.1096528 0.1096753
 0.1093612 0.1087702 0.1080384 0.1072955 0.1066162 0.1060136 0.1054485 0.1048775 0.1043403 0.1039959
 0.1040428 0.1045994 0.1056478 0.1070508 0.1085966 0.110062 0.1112959 0.1122737 0.1130718 0.1137833
 0.1144597 0.1151218 0.1157883 0.1164619 0.1171029 0.1176576 0.1181192 0.1185333 0.11894 0.1193368
 0.1196939 0.1199848 0.1202083 0.1203967 0.1205873 0.1207678 0.1208743 0.1208651 0.1207718 0.1206559
 0.1205341 0.120368 0.1201082 0.1197378 0.1192986 0.1189089 0.1187453 0.1189725 0.1196512 0.1207013
 0.121959 0.1232764 0.124559 0.1257243 0.1266765 0.1273553 0.1277919 0.1280871 0.1283405 0.1286079
 0.1289043 0.1292198 0.1295349 0.1298352 0.1301208 0.1304084 0.1307226 0.1310729 0.1314315 0.1317474
 0.1319944 0.1322062 0.1324535 0.1327821 0.1331699 0.1335516 0.1338888 0.1342035 0.1345254 0.1348303
 0.1350663 0.1352327 0.1353919 0.1356066 0.1358963 0.1362465 0.1366183 0.1369518 0.1372009 0.1373761
 0.1375342 0.1377214 0.1379445 0.1381899 0.1384476 0.1387101 0.1389698 0.1392327 0.1395193 0.1398352
 0.1401424 0.1403834 0.1405427 0.140667 0.1408184 0.1410166 0.1412365 0.1414468 0.1416455 0.1418631
 0.1421342 0.1424565 0.1427769 0.14303 0.1431947 0.1433081 0.1434264 0.1435821 0.1437748 0.1439895
 0.1442105 0.1444258 0.1446313 0.1448347 0.1450471 0.1452678 0.1454833 0.1456826 0.1458692 0.146058
 0.1462614 0.1464784 0.1467022 0.1469385 0.1472066 0.1475088 0.147807 0.1480512 0.1482275 0.1483639
 0.1484944 0.1486343 0.148787 0.1489547 0.1491368 0.1493295 0.1495289 0.1497338 0.1499445 0.1501593
 0.1503729 0.1505798 0.1507793 0.150977 0.1511827 0.1514078 0.1516564 0.1519136 0.1521511 0.1523518
 0.1525257 0.1526991 0.1528909 0.153098 0.1533005 0.1534821 0.153648 0.1538191 0.1540098 0.1542155
 0.154422 0.1546203 0.1548095 0.1549939 0.1551787 0.1553685 0.1555658 0.1557691 0.1559741 0.1561789
 0.156385 0.1565909 0.1567891 0.156975 0.1571534 0.1573326 0.1575196 0.1577193 0.157932 0.1581482
 0.1583543 0.158545 0.1587274 0.158914 0.159113 0.1593238 0.1595368 0.1597419 0.1599352 0.1601214
 0.1603101 0.16051 0.1607214 0.1609385 0.1611584 0.1613833 0.1616114 0.1618351 0.1620503 0.1622604
 0.1624684 0.1626727 0.1628715 0.1630688 0.1632734 0.1634917 0.1637186 0.1639411 0.1641507 0.1643469
 0.164529 0.1646957 0.1648537 0.1650158 0.1651895 0.1653733 0.1655601 0.1657426 0.1659201 0.1661028
 0.1663012 0.166515 0.1667365 0.1669582 0.1671734 0.167378 0.1675756 0.1677716 0.1679661 0.1681567
 0.1683464 0.1685415 0.1687474 0.1689656 0.1691894 0.1694072 0.1696168 0.1698256 0.1700371 0.1702482
 0.1704593 0.1706732 0.1708878 0.1710981 0.1713025 0.171502 0.1717007 0.1719046 0.1721124 0.1723155
 0.1725117 0.172708 0.1729092 0.1731153 0.1733289 0.1735512 0.1737774 0.1740027 0.1742257 0.1744448
 0.1746618 0.1748817 0.1751017 0.1753142 0.175523 0.1757364 0.1759507 0.1761585 0.1763643 0.1765716
 0.1767756 0.1769767 0.1771796 0.1773685 0.1774926 0.1774331 0.1769079 0.1753618 0.1719528 0.1657259
 0.1560012 0.142806 0.1270129 0.110027 0.09327126 0.07782535 0.06432982 0.05307103 0.04411221 0.03737633
 0.03270688 0.02997041 0.02915838 0.03048576 0.03449921 0.04175403 0.05159349 0.06106462 0.06606498 0.0645839
 0.05863063 0.05240401 0.04879696 0.0479966 0.04875123 0.0500071 0.05144277 0.05325986 0.05578908 0.05912034
 0.06309442 0.06770962 0.07331216 0.08015274 0.0878655 0.09562467 0.102854 0.1096783 0.1166433 0.1240605
 0.1316785 0.1389289 0.1453823 0.1509642 0.155861 0.1603149 0.1644878 0.1684492 0.1722272 0.1758096
 0.1790671 0.1817259 0.1834989 0.1843011 0.1843532 0.1840632 0.1837868 0.183686 0.1837738 0.1840286
 0.1844382 0.1849859 0.1856455 0.18639 0.1871908 0.1880189 0.1888513 0.1896686 0.190452 0.1911888
 0.1918724 0.1924959 0.1930548 0.1935564 0.1940134 0.194435 0.1948315 0.1952157 0.1955912 0.1959497
 0.1962827 0.1965892 0.1968738 0.1971441 0.1974062 0.197659 0.1978968 0.198119 0.1983305 0.1985349
 0.1987338 0.1989297 0.1991253 0.1993234 0.1995275 0.1997394 0.1999555 0.2001707 0.20038 0.200577
 0.2007578 0.2009285 0.2011035 0.2012938 0.2015002 0.2017149 0.2019253 0.2021225 0.2023086 0.2024937
 0.2026843 0.2028799 0.2030766 0.2032715 0.2034666 0.2036686 0.2038796 0.2040918 0.2043 0.2045113
 0.2047317 0.204953 0.2051655 0.2053709 0.2055697 0.2057501 0.2059049 0.2060523 0.2062266 0.2064463
 0.2066944 0.2069325 0.2071364 0.2073132 0.2074869 0.2076733 0.2078719 0.2080703 0.2082601 0.2084545
 0.2086795 0.2089373 0.2091983 0.2094389 0.2096629 0.2098791 0.2100908 0.2103089 0.210539 0.2107544
 0.2109182 0.2110412 0.2111912 0.2114362 0.2117807 0.2121567 0.2124847 0.2127433 0.212971 0.2132136
 0.2134884 0.213766 0.2139564 0.2139724 0.2138672 0.2138549 0.2141197 0.2146353 0.215216 0.2157039
 0.2160644 0.2163461 0.2165998 0.2168267 0.2169766 0.2170063 0.2169625 0.2169997 0.2172716 0.2177746
 0.2183395 0.2188015 0.2191274 0.2193614 0.21954 0.2196874 0.2197786 0.2196807 0.2192959 0.2188288
 0.2187376 0.2192867 0.2202418 0.2211198 0.2216695 0.2219945 0.2222735 0.2225434 0.2227595 0.2228339
 0.2225231 0.2215708 0.2202126 0.2193111 0.2196406 0.221104 0.2228836 0.2242538 0.225036 0.2254179
 0.2256403 0.2258392 0.2259442 0.2256852 0.2248969 0.2239143 0.2234806 0.2240559 0.2253038 0.2264578
 0.2271053 0.2273953 0.2276233 0.2278981 0.228071 0.2276922 0.2262632 0.2239844 0.2221304 0.2221515
 0.2242545 0.2271513 0.229331 0.2303514 0.2307208 0.2307926 0.230251 0.228689 0.2262255 0.2234591
 0.2212878 0.2207823 0.2224709 0.2254543 0.2279192 0.2289265 0.2292029 0.2299463 0.2313995 0.2328551
 0.233575 0.2333661 0.2324578 0.2310916 0.2294019 0.2277955 0.2271799 0.2283166 0.2308922 0.233631
 0.2354757 0.2363908 0.2368057 0.2363667 0.2336839 0.2280027 0.2212932 0.2177033 0.2198953 0.226264
 0.2326627 0.2364787 0.2380673 0.2388125 0.2392688 0.239002 0.2368449 0.2315421 0.2237309 0.2171803
 0.2162374 0.2215261 0.2292407 0.2346978 0.2355194 0.2318792 0.2256721 0.2199558 0.2176965 0.2199709
 0.2255001 0.2319125 0.2371625 0.240096 0.2404464 0.2387231 0.2361738 0.2344807 0.2345407 0.2351389
 0.2338751 0.2301944 0.2263064 0.2239371 0.2216564 0.2175212 0.2133428 0.2134907 0.2192166 0.2265639
 0.2308184 0.2312882 0.2304433 0.2294118 0.2260385 0.2179792 0.2071357 0.1997378 0.2008988 0.209307
 0.2183967 0.2227777 0.2225189 0.2212209 0.2212168 0.2211936 0.2180395 0.2109048 0.2032802 0.2000729
 0.2023894 0.2065454 0.2084295 0.2067839 0.2017771 0.193693 0.1852857 0.1826316 0.1900122 0.2046829
 0.2190183 0.2267891 0.2254419 0.2147444 0.1976867 0.1823258 0.1778677 0.1864192 0.2004303 0.2096395
 0.2092174 0.2006349 0.1872882 0.1721802 0.1593155 0.1541333 0.1602578 0.1758202 0.1934644 0.2039843
 0.2014169 0.1877088 0.1731732 0.1690758 0.1773507 0.1892297 0.1950422 0.1929865 0.1877797 0.1846121
 0.1861564 0.1920446 0.1992552 0.2049672 0.2088127 0.2096801 0.2026868 0.1850449 0.1638229 0.1512833
 0.1521512 0.1612071 0.1730917 0.187116 0.200856 0.2068504 0.2010126 0.1903641 0.1870465 0.195426
 0.2083574 0.2159239 0.2152545 0.2110404 0.2083135 0.2071042 0.2049366 0.2026007 0.2043619 0.2120589
 0.2218779 0.2286091 0.2310655 0.2316014 0.2321254 0.2326544 0.2326618 0.2319536 0.2305954 0.2290458
 0.2280146 0.2276646 0.2274587 0.2269709 0.2258715 0.2227037 0.2151943 0.2034544 0.1920153 0.1862367
 0.1866197 0.1891855 0.1913869 0.1935901 0.1935593 0.1849071 0.1655358 0.1445613 0.1356782 0.1439274
 0.1619442 0.1783509 0.1864657 0.1848785 0.1740688 0.1566223 0.1399318 0.1338632 0.1427107 0.1610845
 0.1796702 0.1932435 0.2012471 0.2033466 0.1984587 0.1879161 0.1767206 0.1706817 0.1728903 0.1823687
 0.1943846 0.2016539 0.1979117 0.1841523 0.1713642 0.172404 0.188498 0.2071834 0.2163182 0.2163715
 0.2154572 0.2167366 0.2168681 0.214866 0.2156415 0.2232707 0.2350026 0.2439706 0.2452214 0.2376733
 0.2234807 0.2085204 0.200852 0.2042216 0.2137404 0.221145 0.2227573 0.2189934 0.2095058 0.1952383
 0.1835775 0.1839054 0.1967413 0.2125267 0.2224859 0.2266124 0.229684 0.2330257 0.2328985 0.2261647
 0.2155378 0.2079125 0.2075532 0.212371 0.2174705 0.2203133 0.2207433 0.2180608 0.211462 0.2033698
 0.1994605 0.2037285 0.2143284 0.2252671 0.2317348 0.2331082 0.2315654 0.2292616 0.2268732 0.2237541
 0.219372 0.2151812 0.2143413 0.218341 0.2246342 0.2292609 0.2313801 0.233548 0.237701 0.2424944
 0.2449425 0.2436764 0.2402456 0.237765 0.2384094 0.2416852 0.2448025 0.2450599 0.2424129 0.239754
 0.24025 0.2443227 0.2495983 0.253611 0.2558099 0.2570372 0.2580788 0.2589777 0.2589999 0.2571832
 0.2536994 0.2506564 0.2506101 0.2540346 0.258873 0.262665 0.2645357 0.265065 0.2649413 0.2642394
 0.2628163 0.2609592 0.2593991 0.2587303 0.258986 0.2597947 0.2607658 0.261652 0.2623287 0.2627855
 0.2630928 0.2633073 0.2634438 0.2635339 0.2636148 0.2636474 0.2635558 0.2633895 0.2633459 0.2635574
 0.2639206 0.2642028 0.264253 0.2640269 0.2634718 0.2625287 0.2612509 0.2597965 0.2582545 0.256587
 0.2548535 0.2534541 0.253011 0.2539048 0.2559206 0.2583747 0.2605746 0.2621638 0.2631266 0.2636159
 0.2638201 0.2638978 0.2639317 0.2639171 0.2638115 0.2635969 0.2632935 0.2629321 0.2625344 0.2621235
 0.2617362 0.2614056 0.2611267 0.2608492 0.2605109 0.2600806 0.2595754 0.2590432 0.2585201 0.2579888
 0.2573833 0.2566439 0.2557688 0.2548159 0.2538676 0.252991 0.2522049 0.2514691 0.2507184 0.2499084
 0.2490143 0.2480015 0.2468531 0.2456433 0.2445343 0.2436526 0.2429822 0.2423968 0.24177 0.2410314
 0.2401607 0.2391788 0.2381368 0.2370774 0.2360027 0.2348896 0.2337181 0.2324704 0.231126 0.2296757
 0.2281323 0.2265211 0.2248741 0.2232205 0.221556 0.2198096 0.2178541 0.2155503 0.2127794 0.2094539
 0.205537 0.2010811 0.1962497 0.1912815 0.1864038 0.1817685 0.1774655 0.1735748 0.1701914 0.1674069
 0.1652882 0.163872 0.1631724 0.1631896 0.163908 0.165281 0.1672245 0.1696297 0.1723756 0.1753239
 0.1783125 0.1811755 0.1837971 0.1861646 0.1883567 0.1904508 0.192441 0.1942605 0.1958675 0.1972734
 0.1985001 0.1995506 0.2004282 0.2011562 0.2017653 0.2022746 0.2026948 0.2030431 0.2033436 0.2036089
 0.2038335 0.204014 0.20417 0.2043344 0.2045303 0.2047635 0.2050352 0.2053551 0.2057393 0.206192
 0.2066956 0.207227 0.2077819 0.2083699 0.2089919 0.2096421 0.2103361 0.2111253 0.2120696 0.213194
 0.2144677 0.2158222 0.2171861 0.2184962 0.2196886 0.220701 0.2214906 0.2220426 0.2223626 0.2224706
 0.2223999 0.2221881 0.2218704 0.2214788 0.2210363 0.220548 0.2200069 0.2194099 0.2187601 0.2180611
 0.2173228 0.2165758 0.2158618 0.2151991 0.2145651 0.2139269 0.2132803 0.212649 0.2120503 0.2114778
 0.2109153 0.2103507 0.2097742 0.2091773 0.2085594 0.2079251 0.2072693 0.2065667 0.2057829 0.2048935
 0.2038937 0.2027911 0.2015969 0.2003198 0.1989604 0.1975104 0.1959677 0.1943524 0.1926954 0.1910013
 0.1892311 0.1873376 0.1853257 0.1832712 0.1812768 0.1794128 0.1776966 0.1761081 0.1746115 0.173178
 0.1718061 0.1705133 0.169304 0.1681591 0.1670603 0.1660074 0.1650056 0.164052 0.1631441 0.1622993
 0.1615551 0.1609386 0.1604359 0.1600052 0.1596164 0.1592681 0.1589798 0.1587868 0.1587228 0.1587754
 0.15887 0.1589178 0.1588718 0.1587367 0.1585551 0.1583855 0.1582715 0.1582189 0.1581997 0.158162
 0.1580293 0.157713 0.1571373 0.1562558 0.155059 0.1535759 0.1518694 0.1500359 0.1482073 0.1465216
 0.1450721 0.1438977 0.1430018 0.1423445 0.1418417 0.1414236 0.1410933 0.140909 0.1409211 0.1411172
 0.1413911 0.1415896 0.1416449 0.1416501 0.1417771 0.142145 0.1427621 0.1435369 0.1443281 0.1450214
 0.1455642 0.145939 0.1461517 0.1462454 0.1462656 0.1462149 0.1460816 0.1458825 0.1456413 0.1453619
 0.1450404 0.1446613 0.1441897 0.1436048 0.1429191 0.1421493 0.1413059 0.1404005 0.1394112 0.138288
 0.1370708 0.1359634 0.1352334 0.1350571 0.1354414 0.1362295 0.1372097 0.1382604 0.1393146 0.1401768
 0.1405833 0.1405924 0.1407719 0.1417885 0.1437785 0.1462018 0.1483229 0.1497483 0.1504725 0.1505885
 0.150152 0.1492244 0.1478257 0.1458923 0.1434215 0.1405642 0.1374997 0.1343733 0.1313735 0.1286876
 0.1263974 0.1245253 0.123084 0.1221084 0.1217086 0.1215018 0.119592 0.1135518 0.1041877 0.09721427
 0.0984377 0.1072161 0.1169169 0.1219138 0.1220528 0.1203317 0.1188225 0.1178414 0.117291 0.1173299
 0.1180907 0.1194117 0.1208779 0.1220673 0.1228037 0.1231315 0.1230323 0.12217 0.1198154 0.1151056
 0.1077409 0.09858601 0.08938231 0.08173716 0.07639183 0.07322989 0.07163611 0.07085428 0.07034273 0.07002948
 0.07022862 0.0712624 0.0731773 0.07580924 0.07897364 0.08243851 0.08580199 0.08864444 0.09084831 0.09260215
 0.09406059 0.09514984 0.09572797 0.09578586 0.09543756 0.09481473 0.09402904 0.09316634 0.09223754 0.0911705
 0.08994935 0.08876122 0.08789422 0.08746409 0.08733591 0.08732039 0.0873359 0.08737275 0.08741295 0.08741809
 0.08735852 0.08727349 0.08730231 0.08757599 0.08805886 0.08856075 0.08890876 0.08907142 0.08913241 0.0891417
 0.08897524 0.08844081 0.08760087 0.08681406 0.08627494 0.08569062 0.08467588 0.08335768 0.08231682 0.0819616
 0.0821663 0.08250612 0.08265382 0.08253355 0.08229333 0.08223462 0.0826098 0.08331564 0.08387253 0.08386971
</values></Ydata></ScRf><Data_Parameters_AB><parameter name="DPF">1</parameter><parameter name="NPT">3497</parameter><parameter name="FXV">3996</parameter><parameter name="LXV">500</parameter><parameter name="CSF">1</parameter><parameter name="MXY">0.0277710296213627</parameter><parameter name="MNY">-0.0694788545370102</parameter><parameter name="DAT">31/05/2022</parameter><parameter name="TIM">14:04:41.578 (GMT+2)</parameter><parameter name="DXU">WN</parameter></Data_Parameters_AB><AB__Qtest><MainReport name="Quality Test Report"><Header><Line><Legend>Test result ok/not ok [1/0]: </Legend><Value>0</Value></Line><Line><Legend>Method file: </Legend><Value>C:\Users\Public\Documents\Bruker\OPUS_8.2.28\QT\IRBT_v3_default.QT</Value></Line></Header><Matrix><Line><Legend></Legend><Legend>min</Legend><Legend>max</Legend><Legend>measured</Legend></Line><Line><Value>Absorption (X-Range 1):</Value><Value>0.400000</Value><Value>2.000000</Value><Value>0.060647</Value></Line><Line><Value>Noise (X-Range 4):</Value><Value></Value><Value>0.000300</Value><Value>0.000049</Value></Line><Line><Value>Signal/Noise (X-Range 2):</Value><Value>200.000000</Value><Value></Value><Value>24.331317</Value></Line><Line><Value>Signal/Noise (X-Range 3):</Value><Value>40.000000</Value><Value></Value><Value>11.907821</Value></Line><Line><Value>Water vapour (X-Range 5):</Value><Value></Value><Value>0.000300</Value><Value>0.000029</Value></Line><Line><Value>Signal/Water (X-Range 2):</Value><Value>100.000000</Value><Value></Value><Value>40.732125</Value></Line><Line><Value>Signal/Water (X-Range 3):</Value><Value>20.000000</Value><Value></Value><Value>19.934426</Value></Line><Line><Value>Fringes (X-Range 6):</Value><Value></Value><Value>0.000100</Value><Value>0.000048</Value></Line></Matrix></MainReport></AB__Qtest><Data_Parameters_ScSm><parameter name="DPF">1</parameter><parameter name="NPT">1814</parameter><parameter name="FXV">3996.33169228125</parameter><parameter name="LXV">499.541461535156</parameter><parameter name="CSF">1</parameter><parameter name="MXY">0.269989997148514</parameter><parameter name="MNY">0.0327969267964363</parameter><parameter name="DAT">31/05/2022</parameter><parameter name="TIM">14:04:41.578 (GMT+2)</parameter><parameter name="DXU">WN</parameter></Data_Parameters_ScSm><Data_Parameters_ScRf><parameter name="DPF">1</parameter><parameter name="NPT">1820</parameter><parameter name="FXV">4004.04661832813</parameter><parameter name="LXV">495.683998511719</parameter><parameter name="CSF">1</parameter><parameter name="MXY">0.265065044164658</parameter><parameter name="MNY">0.0291583761572838</parameter><parameter name="DAT">31/05/2022</parameter><parameter name="TIM">14:04:15.724 (GMT+2)</parameter><parameter name="DXU">WN</parameter></Data_Parameters_ScRf><Optic_Parameters_Rf><parameter name="APR">0</parameter><parameter name="APT">Open</parameter><parameter name="BMS">KBr</parameter><parameter name="DTC">RT-DLaTGS_IR-Biotyper [Microplate reader]</parameter><parameter name="HPF">0</parameter><parameter name="LPF">10.0</parameter><parameter name="LPV">4000</parameter><parameter name="PGR">0</parameter><parameter name="RCH">Module port</parameter><parameter name="RDX">0</parameter><parameter name="SRC">MIR</parameter><parameter name="VEL">10.0</parameter><parameter name="SON">Off</parameter></Optic_Parameters_Rf><Acquisition_Parameters_Rf><parameter name="ADT">1</parameter><parameter name="AQM">DD</parameter><parameter name="CFE">0</parameter><parameter name="COR">0</parameter><parameter name="DEL">0</parameter><parameter name="DLY">0</parameter><parameter name="HFW">8000</parameter><parameter name="LFW">0</parameter><parameter name="NSR">32</parameter><parameter name="PLF">AB</parameter><parameter name="RES">6</parameter><parameter name="RGN">-1</parameter><parameter name="STR">0</parameter><parameter name="TCL">MakeCompatibleScalar (0, {WSV=1.000000, ARV=0});</parameter><parameter name="TDL">37</parameter><parameter name="RPO">0</parameter></Acquisition_Parameters_Rf><FT_-_Parameters_Rf><parameter name="APF">B3</parameter><parameter name="HFQ">500</parameter><parameter name="LFQ">4000</parameter><parameter name="NLI">0</parameter><parameter name="PHR">24</parameter><parameter name="PHZ">ML</parameter><parameter name="SPZ">NO</parameter><parameter name="ZFF">1</parameter></FT_-_Parameters_Rf><Optic_Parameters_><parameter name="APR">0</parameter><parameter name="APT">Open</parameter><parameter name="BMS">KBr</parameter><parameter name="CHN">Module port</parameter><parameter name="DTC">RT-DLaTGS_IR-Biotyper [Microplate reader]</parameter><parameter name="HPF">0</parameter><parameter name="LPF">10.0</parameter><parameter name="LPV">4000</parameter><parameter name="PGN">0</parameter><parameter name="RDX">0</parameter><parameter name="SRC">MIR</parameter><parameter name="VEL">10.0</parameter><parameter name="SON">Off</parameter></Optic_Parameters_><FT_-_Parameters_><parameter name="APF">B3</parameter><parameter name="HFQ">500</parameter><parameter name="LFQ">4000</parameter><parameter name="NLI">0</parameter><parameter name="PHR">24</parameter><parameter name="PHZ">ML</parameter><parameter name="SPZ">NO</parameter><parameter name="ZFF">1</parameter></FT_-_Parameters_><Acquisition_Parameters_><parameter name="ADT">1</parameter><parameter name="AQM">DD</parameter><parameter name="CFE">0</parameter><parameter name="COR">0</parameter><parameter name="DEL">0</parameter><parameter name="DLY">0</parameter><parameter name="HFW">8000</parameter><parameter name="LFW">0</parameter><parameter name="NSS">32</parameter><parameter name="PLF">AB</parameter><parameter name="RES">6</parameter><parameter name="SOT">0</parameter><parameter name="TCL">MakeCompatibleScalar (0, {WSV=1.000000, ARV=0});</parameter><parameter name="TDL">37</parameter><parameter name="SPO">0</parameter><parameter name="SGN">-1</parameter></Acquisition_Parameters_><Instrument_Parameters_Rf><parameter name="HFL">15800.168544</parameter><parameter name="LFL">0</parameter><parameter name="LWN">15800.168544</parameter><parameter name="ABP">32197</parameter><parameter name="SSP">1</parameter><parameter name="ARG">2</parameter><parameter name="ASG">2</parameter><parameter name="ASS">32</parameter><parameter name="GFW">16</parameter><parameter name="GBW">16</parameter><parameter name="BFW">0</parameter><parameter name="BBW">0</parameter><parameter name="PKA">7264</parameter><parameter name="PKL">4996</parameter><parameter name="PRA">7448</parameter><parameter name="PRL">5001</parameter><parameter name="P2A">1</parameter><parameter name="P2L">1</parameter><parameter name="P2R">1</parameter><parameter name="P2K">1</parameter><parameter name="DAQ">0</parameter><parameter name="AG2">1</parameter><parameter name="SSM">1</parameter><parameter name="RSN">25747</parameter><parameter name="CRR">0</parameter><parameter name="SRT">1654005855.725</parameter><parameter name="DUR">19.6379852294922</parameter><parameter name="TSC">29</parameter><parameter name="MVD">0.207475244998932</parameter><parameter name="AN1">0.225770060284713</parameter><parameter name="AN2">0</parameter><parameter name="VSN">2.485 Apr  4 2017</parameter><parameter name="SRN">0085</parameter><parameter name="CAM">0</parameter><parameter name="INS">IR-Biotyper</parameter><parameter name="FOC">69</parameter><parameter name="RDY">1</parameter><parameter name="ARS">32</parameter></Instrument_Parameters_Rf><Sample_Parameters_><parameter name="BLD"></parameter><parameter name="CNM">Admin</parameter><parameter name="CPY"></parameter><parameter name="DPM"></parameter><parameter name="EXP">IRBT_v3_32Scans.XPM</parameter><parameter name="LCT"></parameter><parameter name="SFM">Microplate, HTS-XT</parameter><parameter name="SNM">220531-1301_MPP28F (D_1)_E7_f6c3077c-f289-44ed-ad2d-727862f06af4.0</parameter><parameter name="XPP">C:\Users\Public\Documents\Bruker\OPUS_8.2.28\XPM</parameter><parameter name="IST">OK</parameter><parameter name="CPG">1252</parameter><parameter name="UID">7391f965-8f86-489a-bf5b-7abd2b276017</parameter></Sample_Parameters_><Instrument_Parameters_><parameter name="HFL">15800.168544</parameter><parameter name="LFL">0</parameter><parameter name="LWN">15800.168544</parameter><parameter name="ABP">32197</parameter><parameter name="SSP">1</parameter><parameter name="ASG">2</parameter><parameter name="ARG">2</parameter><parameter name="ASS">32</parameter><parameter name="GFW">16</parameter><parameter name="GBW">16</parameter><parameter name="BFW">0</parameter><parameter name="BBW">0</parameter><parameter name="PKA">7676</parameter><parameter name="PKL">4988</parameter><parameter name="PRA">7983</parameter><parameter name="PRL">5002</parameter><parameter name="P2A">1</parameter><parameter name="P2L">1</parameter><parameter name="P2R">1</parameter><parameter name="P2K">1</parameter><parameter name="DAQ">0</parameter><parameter name="AG2">1</parameter><parameter name="SSM">1</parameter><parameter name="RSN">13499</parameter><parameter name="CRR">0</parameter><parameter name="SRT">1654005881.578</parameter><parameter name="DUR">19.6379852294922</parameter><parameter name="TSC">29</parameter><parameter name="MVD">0.205960288643837</parameter><parameter name="AN1">0.225803668461452</parameter><parameter name="AN2">0</parameter><parameter name="VSN">2.485 Apr  4 2017</parameter><parameter name="SRN">0085</parameter><parameter name="CAM">0</parameter><parameter name="INS">IR-Biotyper</parameter><parameter name="FOC">69</parameter><parameter name="RDY">1</parameter></Instrument_Parameters_><History/></OPUSDataFile>
