<?xml version="1.0" encoding="UTF-8" ?>
<OPUSDataFile><AB><Ydata ylabel="Absorbance Units"><values byteorder="INTEL" format="FLOAT32" numvalues="3497"> -0.04700357 -0.04698852 -0.04696641 -0.04693692 -0.046905 -0.04687088 -0.04683377 -0.04679397 -0.04675472 -0.04671682
 -0.0466872 -0.04666519 -0.04665261 -0.0466472 -0.0466441 -0.04664294 -0.0466403 -0.04663843 -0.04663923 -0.04664244
 -0.04664972 -0.04665613 -0.0466587 -0.046657 -0.04664771 -0.04664304 -0.04664489 -0.04666537 -0.04670871 -0.04676577
 -0.04683735 -0.04689574 -0.04693945 -0.0469503 -0.04692942 -0.04688688 -0.04682614 -0.04677306 -0.04672831 -0.04670882
 -0.04671096 -0.04673511 -0.04677632 -0.04682693 -0.04688315 -0.04693818 -0.04698899 -0.04703095 -0.04706318 -0.047083
 -0.04709445 -0.04709807 -0.04709876 -0.04709902 -0.04709486 -0.04708675 -0.04706471 -0.04702723 -0.04697556 -0.04690966
 -0.04684857 -0.04679329 -0.04676313 -0.04675601 -0.04677007 -0.04680087 -0.04683074 -0.04685904 -0.04687446 -0.04688078
 -0.04687948 -0.04687336 -0.04686675 -0.04685958 -0.04685366 -0.04684685 -0.04683885 -0.04682657 -0.0468089 -0.0467835
 -0.04674911 -0.04670703 -0.04665658 -0.04660435 -0.04655028 -0.04650771 -0.04647734 -0.04647944 -0.04651463 -0.0465984
 -0.04672646 -0.04688438 -0.04706005 -0.04719967 -0.04729962 -0.04731653 -0.04727254 -0.04718243 -0.04707328 -0.04698605
 -0.04692542 -0.04691407 -0.04693038 -0.04697173 -0.04700782 -0.0470236 -0.04701386 -0.04696975 -0.04691917 -0.04686446
 -0.04683487 -0.04683499 -0.04686365 -0.04692117 -0.04697988 -0.04703867 -0.04707544 -0.04709261 -0.04709383 -0.04708291
 -0.04707713 -0.04707555 -0.04708656 -0.04710254 -0.04711398 -0.04711641 -0.04709763 -0.047066 -0.04702411 -0.04697973
 -0.04694065 -0.04690055 -0.04685839 -0.04680995 -0.04675041 -0.04669736 -0.04665113 -0.04664026 -0.04666854 -0.0467459
 -0.04687353 -0.04700478 -0.0471355 -0.04718888 -0.04717205 -0.04709104 -0.04696007 -0.04683846 -0.04672726 -0.04666004
 -0.04662853 -0.04663566 -0.04666812 -0.04671186 -0.04675596 -0.04678477 -0.04680004 -0.04679743 -0.0467848 -0.04676565
 -0.04673917 -0.04670634 -0.04666239 -0.04660549 -0.04654088 -0.04646795 -0.04640366 -0.04634893 -0.04632268 -0.04632524
 -0.04636503 -0.04643963 -0.04653936 -0.04665847 -0.04677055 -0.04687094 -0.0469331 -0.04695962 -0.04694102 -0.04688681
 -0.04680277 -0.04670206 -0.04659565 -0.04649762 -0.04641856 -0.0463675 -0.04635201 -0.04636859 -0.04642026 -0.046489
 -0.04657306 -0.04665312 -0.04672674 -0.04678497 -0.04682711 -0.04684714 -0.04684464 -0.04681169 -0.04674913 -0.04665708
 -0.04653947 -0.0464102 -0.04627512 -0.04615594 -0.04605618 -0.04599344 -0.04596386 -0.04597224 -0.0460063 -0.04605892
 -0.04611603 -0.04616693 -0.04620606 -0.04622742 -0.04623581 -0.04623062 -0.04622069 -0.04620733 -0.04619747 -0.04619223
 -0.04619284 -0.04619954 -0.0462071 -0.0462151 -0.0462159 -0.04620953 -0.04619231 -0.04616521 -0.04612987 -0.04608743
 -0.04604077 -0.04599229 -0.04594667 -0.04590764 -0.04588187 -0.04587073 -0.04587868 -0.04590216 -0.04594037 -0.04599006
 -0.04604978 -0.04611761 -0.04619435 -0.04627059 -0.04634616 -0.04640415 -0.04644242 -0.04645313 -0.04643556 -0.04638959
 -0.04631545 -0.04621543 -0.04609241 -0.04596597 -0.04584157 -0.04575188 -0.04569868 -0.0457067 -0.04576603 -0.04587713
 -0.04601219 -0.04613686 -0.04623199 -0.04626072 -0.04624465 -0.04618308 -0.04610782 -0.04603423 -0.04597107 -0.04592635
 -0.04588716 -0.0458527 -0.04580976 -0.04575571 -0.04569547 -0.04562901 -0.04557105 -0.04552214 -0.04549229 -0.04548112
 -0.04549212 -0.04552231 -0.04556456 -0.04561013 -0.04563133 -0.04562491 -0.0455659 -0.04547232 -0.04535494 -0.04523455
 -0.04513641 -0.04506087 -0.04501951 -0.04499213 -0.0449739 -0.04494609 -0.04489985 -0.0448391 -0.04476182 -0.04468341
 -0.04460575 -0.04453507 -0.04447204 -0.04441234 -0.04435585 -0.04429962 -0.04424433 -0.04419377 -0.04414821 -0.04411063
 -0.04408072 -0.04405848 -0.04404508 -0.04404311 -0.04405225 -0.0440756 -0.04410508 -0.04413748 -0.04415758 -0.0441551
 -0.04412138 -0.04404892 -0.04394088 -0.04379643 -0.04362044 -0.04341245 -0.04318419 -0.04293602 -0.04268721 -0.04243919
 -0.04219954 -0.04196819 -0.04174073 -0.04151819 -0.04130529 -0.04110562 -0.04093776 -0.04080181 -0.0407102 -0.04065472
 -0.0406271 -0.04061751 -0.04061104 -0.04059866 -0.04057053 -0.04051139 -0.04040824 -0.04025583 -0.04004249 -0.03979547
 -0.03951843 -0.03924143 -0.03897198 -0.038719 -0.03848507 -0.03826566 -0.0380607 -0.03786398 -0.03767551 -0.03749599
 -0.03732608 -0.03717255 -0.03703315 -0.03690517 -0.03677941 -0.03662932 -0.03644851 -0.03620599 -0.03591841 -0.03559155
 -0.03525013 -0.03492055 -0.03461121 -0.03433695 -0.03409119 -0.03387707 -0.03367699 -0.03348714 -0.03329191 -0.03308637
 -0.03287153 -0.03264675 -0.03241739 -0.03218412 -0.03193787 -0.03167813 -0.03139313 -0.03108472 -0.03076139 -0.03042661
 -0.03010071 -0.02978331 -0.02948411 -0.02920044 -0.02893163 -0.02867566 -0.02843017 -0.02819211 -0.02795802 -0.02772556
 -0.0274915 -0.02725781 -0.02702543 -0.02679266 -0.02656166 -0.02631794 -0.02605922 -0.02577344 -0.02545664 -0.02512621
 -0.02478241 -0.02446243 -0.0241675 -0.02391739 -0.02370954 -0.02353431 -0.02338597 -0.02323456 -0.02307666 -0.02288423
 -0.02266463 -0.02241596 -0.02215319 -0.0218975 -0.02165288 -0.02143634 -0.02122831 -0.02102437 -0.02079793 -0.02053114
 -0.02023006 -0.01988737 -0.0195407 -0.01919663 -0.0188793 -0.01859467 -0.01833263 -0.01809344 -0.01784958 -0.01760005
 -0.01732911 -0.0170384 -0.01673423 -0.01641856 -0.01610376 -0.01578908 -0.01547797 -0.01517081 -0.01486825 -0.01457535
 -0.01429948 -0.01404332 -0.0138146 -0.01360545 -0.01341525 -0.01322981 -0.01304243 -0.01284544 -0.01263343 -0.01241209
 -0.0121809 -0.0119507 -0.0117235 -0.01149909 -0.01127799 -0.01104736 -0.01080672 -0.01054748 -0.01027106 -0.009985119
 -0.009692067 -0.009407195 -0.009130779 -0.008871888 -0.008628611 -0.008402233 -0.00818889 -0.007984513 -0.007784446 -0.007582352
 -0.007377268 -0.007165396 -0.006951945 -0.006738435 -0.006528488 -0.006324865 -0.006122565 -0.005921837 -0.005713218 -0.005495539
 -0.005262498 -0.005013401 -0.00474787 -0.004466163 -0.004175807 -0.003878301 -0.003589354 -0.003310468 -0.003057698 -0.002829618
 -0.002631986 -0.002459004 -0.002302887 -0.002156714 -0.002006918 -0.001851983 -0.00168434 -0.001508893 -0.001327024 -0.001141622
 -0.0009558229 -0.0007647444 -0.0005669089 -0.0003613394 -0.0001456997 6.726219E-05 0.0002763332 0.000470068 0.0006468144 0.0008176778
 0.0009835734 0.001169019 0.001373001 0.001599508 0.001841793 0.002070497 0.002280683 0.002438358 0.002552807 0.002621911
 0.002667433 0.002719934 0.002790905 0.002908929 0.003056358 0.00323377 0.003411434 0.003572869 0.00371177 0.003818508
 0.003914941 0.004003482 0.004104512 0.004222413 0.004355289 0.00450381 0.004652524 0.004800845 0.004939849 0.005071027
 0.005203425 0.005339861 0.005499499 0.005681391 0.005895043 0.006132564 0.006383872 0.006639129 0.006879614 0.007101565
 0.007293689 0.007458601 0.007594488 0.007705398 0.007792388 0.007859766 0.00790795 0.007945082 0.007971565 0.00800133
 0.008035596 0.008090334 0.008167065 0.008272601 0.008406896 0.008560236 0.008731193 0.008902441 0.009073902 0.009236121
 0.009390061 0.009534522 0.009668454 0.00978897 0.009895477 0.009983141 0.01006011 0.01012952 0.01020788 0.01030835
 0.01043777 0.01060776 0.01079881 0.01101069 0.01121006 0.01138835 0.01153332 0.01163979 0.01172696 0.01179579
 0.01186562 0.0119368 0.01199974 0.01205282 0.0120747 0.0120685 0.01203641 0.01198641 0.01194459 0.01191508
 0.01192051 0.011957 0.01202973 0.01213042 0.01225369 0.01239012 0.01253182 0.01267262 0.01280556 0.01293675
 0.01306503 0.01320475 0.01336083 0.0135306 0.01371737 0.01388809 0.0140407 0.01414214 0.01419151 0.01419728
 0.01416333 0.01413226 0.01410427 0.01410502 0.01412656 0.0141556 0.01418996 0.01421372 0.01424085 0.01428504
 0.01435732 0.01448119 0.01463839 0.0148289 0.0150172 0.01518334 0.01531651 0.01540263 0.01547096 0.01552326
 0.01559684 0.01569909 0.01583561 0.01600895 0.01618881 0.01637356 0.0165263 0.01664734 0.01672419 0.01676206
 0.01677922 0.01678252 0.01680343 0.016844 0.0169261 0.01704244 0.01719505 0.01736702 0.01754345 0.01770734
 0.01783957 0.0179405 0.01800082 0.01804325 0.01807177 0.01811068 0.01816705 0.01824845 0.01835673 0.01849518
 0.01866359 0.01887755 0.01913773 0.01945281 0.01981909 0.02020492 0.0206011 0.02094269 0.02122684 0.02140494
 0.02149226 0.02149205 0.02143411 0.02136285 0.02130214 0.02129788 0.02134574 0.02146403 0.02161758 0.02179792
 0.02196269 0.02209505 0.02217395 0.02218879 0.02214892 0.02205198 0.02192793 0.02177856 0.02163563 0.02150067
 0.02139019 0.02130322 0.02123572 0.02118586 0.02114089 0.02110237 0.02106757 0.02104119 0.02103418 0.02104456
 0.02107988 0.02112035 0.02115254 0.02114749 0.02107725 0.02093493 0.02070163 0.02041173 0.02006787 0.01972065
 0.01938325 0.01907995 0.01881826 0.01858953 0.01839403 0.01821689 0.01805736 0.01790501 0.01775891 0.01760495
 0.017443 0.0172628 0.01706927 0.01687262 0.0166783 0.0165063 0.01635123 0.01621649 0.01608758 0.01594915
 0.01579511 0.01561162 0.01541325 0.01519977 0.01499919 0.01482128 0.01468341 0.0145955 0.01454103 0.01452257
 0.01449339 0.01444984 0.0143536 0.01420299 0.01400409 0.01376055 0.01351486 0.01327001 0.01306594 0.01289858
 0.01277802 0.01269354 0.01262755 0.01256912 0.01249199 0.01239565 0.0122656 0.01211761 0.01195705 0.01180239
 0.01166743 0.01155087 0.01145842 0.01137076 0.01128389 0.0111867 0.0110753 0.01095883 0.01083755 0.01072272
 0.01061482 0.01050986 0.01040684 0.01029268 0.01016774 0.01002631 0.009871421 0.009709698 0.009544755 0.009388057
 0.009241189 0.009112719 0.008999546 0.008903396 0.008815289 0.008730182 0.008637996 0.008531244 0.00840833 0.008265377
 0.008111091 0.007946414 0.007780506 0.00761516 0.007453504 0.007296036 0.007143536 0.006996059 0.006853516 0.006715422
 0.006576181 0.006434917 0.006283103 0.006121755 0.005948827 0.005767999 0.005586093 0.005407179 0.005240684 0.005088682
 0.004957845 0.004845935 0.004754314 0.004677302 0.004611488 0.004556241 0.004509366 0.004477409 0.004463617 0.004461222
 0.004473253 0.004463399 0.004429287 0.004331914 0.004169245 0.003945008 0.00366335 0.003375827 0.003087353 0.002854481
 0.002673613 0.002565844 0.002517135 0.002508086 0.002521707 0.002521035 0.002500382 0.002434731 0.002339021 0.002213719
 0.00208242 0.001959951 0.001852232 0.0017681 0.00169164 0.001620094 0.001543401 0.001456989 0.001377109 0.001304007
 0.001264736 0.001260743 0.00129731 0.001372015 0.00145648 0.00154614 0.001598848 0.001615074 0.001570977 0.001476752
 0.001342275 0.001181389 0.001022203 0.000868877 0.0007396233 0.0006252935 0.0005243885 0.0004293658 0.0003326329 0.0002422667
 0.0001584248 9.345878E-05 5.312717E-05 2.964737E-05 2.477081E-05 1.297518E-05 -8.550543E-06 -5.038862E-05 -0.0001132489 -0.0001752634
 -0.0002346839 -0.0002613577 -0.000257513 -0.0002192708 -0.0001537591 -8.447918E-05 -1.568702E-05 2.874863E-05 5.376827E-05 5.520751E-05
 4.324954E-05 2.934882E-05 1.602263E-05 1.332152E-05 6.151031E-06 -7.998526E-06 -5.223308E-05 -0.0001383133 -0.000268519 -0.0004513359
 -0.0006517966 -0.0008681479 -0.001052487 -0.001198732 -0.001292471 -0.001332519 -0.001354051 -0.001360036 -0.001400531 -0.001473933
 -0.001598679 -0.001765279 -0.0019504 -0.002144553 -0.002311773 -0.002452407 -0.002548354 -0.00261068 -0.002643365 -0.002661217
 -0.00267697 -0.002700805 -0.002742856 -0.002802937 -0.002885379 -0.002978143 -0.003080155 -0.003175644 -0.003260962 -0.00333319
 -0.003390585 -0.003448569 -0.003507924 -0.003584706 -0.003678262 -0.003782844 -0.003895944 -0.003997434 -0.004089385 -0.004166569
 -0.004237136 -0.004319782 -0.004416381 -0.004542946 -0.004685754 -0.004836892 -0.004979442 -0.005093832 -0.005181782 -0.005235315
 -0.005273202 -0.005301581 -0.005330398 -0.005366014 -0.005397562 -0.005424593 -0.005434046 -0.005423329 -0.005400774 -0.005366602
 -0.00534803 -0.005346246 -0.005384487 -0.005460788 -0.005576145 -0.005724828 -0.005887206 -0.006057254 -0.00621027 -0.006344085
 -0.006442992 -0.00651018 -0.006542796 -0.006545982 -0.006523468 -0.006477264 -0.006409988 -0.006320319 -0.00620706 -0.006074457
 -0.005921203 -0.005762724 -0.005600753 -0.005451507 -0.005317767 -0.005197564 -0.005091118 -0.004974084 -0.004844903 -0.004675275
 -0.004466182 -0.004208089 -0.003906433 -0.00357539 -0.003221575 -0.002868513 -0.002519306 -0.002190555 -0.001880415 -0.001593861
 -0.001325998 -0.001075375 -0.0008350599 -0.0006024235 -0.000366848 -0.0001247204 0.0001353199 0.0004181771 0.0007236692 0.001055089
 0.001391168 0.001731317 0.002042771 0.002323517 0.002551764 0.002727569 0.002849649 0.002919362 0.002944221 0.00292572
 0.002871057 0.002786005 0.002685157 0.002581335 0.002502758 0.002458925 0.002476133 0.002546327 0.00267529 0.002841596
 0.003034065 0.003240038 0.003449545 0.003668012 0.003894559 0.00413772 0.004399752 0.004679316 0.004976837 0.005286418
 0.005607738 0.005936214 0.006271284 0.006603987 0.006932858 0.007243102 0.007534749 0.007798945 0.008038995 0.008259585
 0.008461606 0.008653137 0.008821681 0.008961722 0.009043397 0.009044077 0.008929955 0.008673234 0.008263416 0.007682559
 0.006962141 0.00609949 0.005161123 0.00415405 0.003153717 0.002168458 0.001253364 0.0004126131 -0.0003362616 -0.0009940519
 -0.00157439 -0.002079216 -0.002528291 -0.002921361 -0.003266728 -0.003565471 -0.003821908 -0.004043513 -0.00424434 -0.004432817
 -0.004626967 -0.004824785 -0.00503342 -0.005239766 -0.005438736 -0.005618518 -0.005772192 -0.005897742 -0.005992271 -0.006061731
 -0.006106068 -0.006135059 -0.006149841 -0.006156501 -0.006155673 -0.006140446 -0.006110243 -0.006052447 -0.005969216 -0.005867057
 -0.005753245 -0.005660518 -0.005593386 -0.00558372 -0.005623215 -0.005715177 -0.005841252 -0.005980851 -0.006118339 -0.006232599
 -0.006318275 -0.006365562 -0.00637724 -0.006352164 -0.006294074 -0.006204435 -0.006082154 -0.005927023 -0.005738445 -0.005514297
 -0.005276662 -0.005025868 -0.004825988 -0.004681556 -0.00467791 -0.004815075 -0.005140539 -0.005638896 -0.006279558 -0.007035526
 -0.007821616 -0.008618526 -0.00934859 -0.01001589 -0.01059024 -0.01109458 -0.01153809 -0.0119412 -0.012321 -0.01268041
 -0.01302621 -0.01334983 -0.01364962 -0.01392154 -0.01416352 -0.0143815 -0.01457568 -0.01475397 -0.01491696 -0.01506835
 -0.01520834 -0.01534011 -0.01546439 -0.01558833 -0.0157123 -0.01584285 -0.01597745 -0.01611371 -0.01624689 -0.01636641
 -0.01647162 -0.01655468 -0.01662481 -0.01668564 -0.01675036 -0.01682952 -0.01692526 -0.01704442 -0.01717097 -0.01730329
 -0.01742096 -0.01751876 -0.01759216 -0.01763865 -0.01767356 -0.01769761 -0.01772884 -0.01776746 -0.01781583 -0.01787225
 -0.01792444 -0.01797237 -0.01800753 -0.01803512 -0.01806412 -0.01810091 -0.01816359 -0.01824979 -0.01836726 -0.01850175
 -0.0186446 -0.01878081 -0.01889713 -0.01899131 -0.01905702 -0.01910526 -0.01913696 -0.01916587 -0.01919478 -0.01923192
 -0.019279 -0.01933569 -0.01940228 -0.01947097 -0.01954136 -0.01960522 -0.01966293 -0.01971333 -0.01975768 -0.01980068
 -0.01984294 -0.01988868 -0.01993731 -0.0199898 -0.0200451 -0.02010246 -0.02016052 -0.02021815 -0.02027334 -0.0203249
 -0.02037031 -0.02040821 -0.0204371 -0.02045551 -0.02046673 -0.02047004 -0.02047591 -0.02048522 -0.02050867 -0.02054726
 -0.02060098 -0.02066938 -0.02074102 -0.02081536 -0.02088236 -0.02094338 -0.02099899 -0.0210506 -0.02110335 -0.02115551
 -0.02120703 -0.02125388 -0.02128981 -0.02131488 -0.02132466 -0.02132765 -0.0213263 -0.02133281 -0.02135399 -0.02139318
 -0.02145467 -0.02152866 -0.02161476 -0.02169968 -0.0217815 -0.02185478 -0.02191882 -0.02197647 -0.02202799 -0.02207893
 -0.02212961 -0.02218526 -0.02224581 -0.0223141 -0.02238888 -0.02246887 -0.02255129 -0.02263056 -0.02270405 -0.02276553
 -0.02281507 -0.02284955 -0.02287298 -0.02288612 -0.02289526 -0.0229032 -0.02291438 -0.02293103 -0.02295345 -0.02298228
 -0.02301547 -0.02305291 -0.02309253 -0.02313426 -0.0231748 -0.02321388 -0.02324575 -0.02327012 -0.02328154 -0.02328109
 -0.02326968 -0.02325049 -0.02323245 -0.02321919 -0.02322242 -0.02324278 -0.02328712 -0.0233513 -0.02343527 -0.0235308
 -0.02363378 -0.02373458 -0.02382834 -0.02390797 -0.02396923 -0.02401437 -0.02404183 -0.02406322 -0.02407956 -0.02410187
 -0.02413127 -0.02416793 -0.02421164 -0.02425483 -0.02429722 -0.02433311 -0.02436295 -0.02438565 -0.02440194 -0.02441291
 -0.02441997 -0.02442584 -0.02443283 -0.02444543 -0.02446421 -0.02449225 -0.02452616 -0.02456513 -0.02460476 -0.02464223
 -0.0246776 -0.02470947 -0.02474306 -0.02477922 -0.0248216 -0.02487135 -0.02492445 -0.02498086 -0.02503242 -0.02507885
 -0.0251168 -0.02514679 -0.02517208 -0.02519296 -0.02521265 -0.02523068 -0.02524682 -0.02526196 -0.02527711 -0.02529498
 -0.02532002 -0.02535316 -0.02539798 -0.02545099 -0.02551186 -0.02557441 -0.02563599 -0.02569184 -0.02573966 -0.0257783
 -0.02580672 -0.0258276 -0.02584082 -0.02585188 -0.0258611 -0.02587438 -0.02589191 -0.02591605 -0.02594624 -0.02597882
 -0.02601268 -0.02604018 -0.02606173 -0.02607353 -0.02607899 -0.02608271 -0.02608855 -0.02610502 -0.02613072 -0.02616904
 -0.02621241 -0.02625726 -0.02629646 -0.02632494 -0.02634264 -0.02634742 -0.0263459 -0.02633867 -0.02633343 -0.02633137
 -0.02633641 -0.02634909 -0.02636782 -0.02639244 -0.02641827 -0.02644509 -0.02646877 -0.02648971 -0.02650735 -0.02652251
 -0.02653743 -0.02655251 -0.02657001 -0.02658898 -0.02660946 -0.02662936 -0.02664685 -0.02665995 -0.02666623 -0.02666663
 -0.02665984 -0.0266516 -0.02664273 -0.02664105 -0.02664879 -0.02666808 -0.02670023 -0.02673852 -0.02678267 -0.02682338
 -0.02686028 -0.02689027 -0.02691368 -0.02693267 -0.02694712 -0.02695755 -0.02696337 -0.02696234 -0.02695568 -0.02694399
 -0.0269307 -0.02692108 -0.0269172 -0.02692419 -0.02693895 -0.02696225 -0.02698634 -0.02700808 -0.02702109 -0.02702167
 -0.02701136 -0.02698869 -0.02696325 -0.02693589 -0.02691634 -0.02690572 -0.02690455 -0.02691271 -0.02692256 -0.02693382
 -0.02694041 -0.02694347 -0.02694533 -0.02694745 -0.02695601 -0.02697047 -0.02699314 -0.02702184 -0.02705435 -0.02708915
 -0.02712378 -0.02715798 -0.02719134 -0.02722221 -0.02725006 -0.02727243 -0.02728806 -0.02729725 -0.02729921 -0.02729866
 -0.02729597 -0.02729626 -0.02730006 -0.02730899 -0.02732309 -0.02734095 -0.02736248 -0.02738625 -0.02741205 -0.02743825
 -0.02746409 -0.02748626 -0.02750452 -0.02751585 -0.0275228 -0.02752727 -0.02753303 -0.02754568 -0.0275639 -0.02759025
 -0.02761658 -0.02763954 -0.02765376 -0.027655 -0.02764939 -0.02763666 -0.02762774 -0.0276246 -0.02763004 -0.02764487
 -0.02766194 -0.02768087 -0.02769311 -0.02769866 -0.02769409 -0.02768043 -0.02766054 -0.02763646 -0.02761592 -0.02760058
 -0.0275988 -0.02760818 -0.02763038 -0.02765807 -0.02768467 -0.02770394 -0.02770788 -0.02769902 -0.02767473 -0.02764557
 -0.02761412 -0.02758948 -0.0275749 -0.02757043 -0.02757703 -0.0275886 -0.0276047 -0.02762072 -0.02763647 -0.02765217
 -0.02766802 -0.02768616 -0.02770627 -0.02772817 -0.02775063 -0.0277698 -0.02778444 -0.02778964 -0.02778598 -0.0277712
 -0.02774922 -0.02772246 -0.02769652 -0.02767644 -0.02766451 -0.02766445 -0.02767135 -0.02768523 -0.02769781 -0.02770675
 -0.02770983 -0.02770569 -0.02770051 -0.0276946 -0.02769447 -0.02770035 -0.02771062 -0.02772481 -0.02773724 -0.02774818
 -0.02775591 -0.02776152 -0.02776813 -0.02777561 -0.02778557 -0.02779638 -0.02780629 -0.0278139 -0.02781684 -0.02781513
 -0.02780756 -0.02779628 -0.0277817 -0.02776683 -0.02775304 -0.02774087 -0.02773109 -0.02772094 -0.02771002 -0.02769689
 -0.02768118 -0.02766643 -0.02765283 -0.02764483 -0.02764236 -0.0276461 -0.02765587 -0.02767088 -0.02769176 -0.02772012
 -0.02775664 -0.02780382 -0.02786136 -0.02792973 -0.02800899 -0.02809876 -0.02820108 -0.02831693 -0.02844901 -0.02859927
 -0.02876779 -0.02895482 -0.02916071 -0.02938407 -0.02963431 -0.02991174 -0.03023176 -0.03059657 -0.03100373 -0.03145283
 -0.03190632 -0.03236069 -0.03276467 -0.03311631 -0.0333803 -0.03355393 -0.03361081 -0.03354648 -0.03332935 -0.03298
 -0.03250314 -0.03195514 -0.03139657 -0.03087116 -0.03043378 -0.03009224 -0.0298658 -0.02974564 -0.02973542 -0.02981416
 -0.02998356 -0.03019391 -0.03044177 -0.03065992 -0.03084089 -0.0309596 -0.03101475 -0.03102538 -0.03099226 -0.03092899
 -0.03083578 -0.03071919 -0.03058226 -0.0304383 -0.03029071 -0.03015455 -0.030029 -0.02992078 -0.0298238 -0.02973474
 -0.02964646 -0.02955095 -0.02944967 -0.02933866 -0.02923078 -0.02912938 -0.02904532 -0.0289833 -0.02894017 -0.02891707
 -0.02890234 -0.02889514 -0.02888527 -0.02887217 -0.02885099 -0.0288219 -0.02878532 -0.02874202 -0.02869626 -0.02864899
 -0.02860571 -0.02856666 -0.02853554 -0.02851102 -0.02849329 -0.02847923 -0.02846556 -0.02844995 -0.02842859 -0.02840394
 -0.02837519 -0.02834908 -0.02832804 -0.02831551 -0.02831366 -0.02831859 -0.02833033 -0.02834269 -0.02835498 -0.02836522
 -0.0283733 -0.02838104 -0.02838855 -0.0283973 -0.02840729 -0.02841907 -0.0284329 -0.02844995 -0.0284707 -0.02849726
 -0.02852887 -0.02856607 -0.0286057 -0.02864492 -0.02867997 -0.02870629 -0.0287244 -0.02873191 -0.02873576 -0.0287374
 -0.02874428 -0.02875918 -0.02878233 -0.02881493 -0.02884985 -0.0288867 -0.02891761 -0.02894212 -0.02895747 -0.02896385
 -0.02896299 -0.02895521 -0.02894307 -0.02892691 -0.02890882 -0.02888996 -0.0288737 -0.02886168 -0.02885841 -0.02886377
 -0.02888038 -0.02890448 -0.02893456 -0.02896588 -0.02899512 -0.02902096 -0.02904158 -0.02905969 -0.02907556 -0.02909187
 -0.02910948 -0.02912687 -0.02914421 -0.02915684 -0.02916451 -0.0291647 -0.02915774 -0.02914736 -0.02913438 -0.0291258
 -0.02912148 -0.0291251 -0.02913514 -0.02914998 -0.02916796 -0.02918531 -0.02920196 -0.02921596 -0.0292289 -0.02924125
 -0.02925478 -0.02927099 -0.02928933 -0.02931059 -0.02933089 -0.02934951 -0.02936308 -0.02937044 -0.02937379 -0.02937298
 -0.02937391 -0.02937691 -0.02938447 -0.02939632 -0.02940919 -0.0294227 -0.0294326 -0.0294392 -0.02944149 -0.02943971
 -0.02943405 -0.02942445 -0.02941024 -0.02939329 -0.02937444 -0.02935834 -0.029349 -0.02934915 -0.02936286 -0.02938529
 -0.02941657 -0.02944795 -0.02947686 -0.02949984 -0.02951538 -0.02952693 -0.02953467 -0.0295419 -0.02954883 -0.0295537
 -0.0295563 -0.02955306 -0.02954439 -0.02953053 -0.02951315 -0.02949823 -0.0294875 -0.02948892 -0.02950138 -0.02952797
 -0.02956335 -0.02960302 -0.02964137 -0.02967146 -0.02969352 -0.02970451 -0.02971088 -0.02971417 -0.02972018 -0.02973134
 -0.02974713 -0.02976833 -0.02978982 -0.02981114 -0.02982912 -0.02984353 -0.02985599 -0.02986663 -0.02987804 -0.02988972
 -0.02989976 -0.02990723 -0.02990719 -0.02989999 -0.02988339 -0.02985971 -0.02983133 -0.02980152 -0.02977489 -0.02975398
 -0.02974284 -0.02974099 -0.02975032 -0.02976574 -0.02978633 -0.0298057 -0.02982164 -0.02983245 -0.02983702 -0.02983871
 -0.0298377 -0.02983698 -0.02983675 -0.02983751 -0.02983917 -0.02984087 -0.02984231 -0.02984119 -0.02983741 -0.02982874
 -0.02981664 -0.02980296 -0.02979078 -0.02978684 -0.02979132 -0.02980866 -0.0298333 -0.02986302 -0.02989049 -0.02991035
 -0.02992064 -0.02991829 -0.02990808 -0.02988999 -0.0298717 -0.02985446 -0.02984377 -0.02984057 -0.02984495 -0.02985703
 -0.02987136 -0.02988766 -0.02990071 -0.02991086 -0.02991787 -0.02992249 -0.02992773 -0.02993326 -0.02993987 -0.02994658
 -0.02995163 -0.02995549 -0.02995764 -0.02995983 -0.02996361 -0.02996922 -0.02997768 -0.0299871 -0.02999709 -0.0300057
 -0.03001229 -0.0300159 -0.03001628 -0.03001277 -0.03000513 -0.02999484 -0.02998195 -0.02997196 -0.02996518 -0.02996731
 -0.02997774 -0.02999568 -0.03001911 -0.03003968 -0.03005629 -0.03006091 -0.03005608 -0.03004154 -0.03002283 -0.03000666
 -0.02999661 -0.02999913 -0.03001173 -0.03003581 -0.03006466 -0.03009613 -0.03012471 -0.03014836 -0.03016479 -0.03017323
 -0.03017303 -0.03016389 -0.03014736 -0.03012342 -0.03009787 -0.03007108 -0.03005024 -0.03003518 -0.03002858 -0.03002919
 -0.03003343 -0.03004058 -0.03004638 -0.03005222 -0.03005844 -0.03006681 -0.03008051 -0.0300979 -0.03011984 -0.03014074
 -0.03015751 -0.03016658 -0.03016457 -0.03015512 -0.03013757 -0.0301206 -0.03010557 -0.03009909 -0.03010239 -0.03011497
 -0.03013699 -0.03016133 -0.0301876 -0.03020783 -0.03022224 -0.03022807 -0.03022647 -0.03022065 -0.03021142 -0.03020255
 -0.03019405 -0.03018742 -0.03018316 -0.03018237 -0.03018576 -0.03019506 -0.03020811 -0.030225 -0.03024069 -0.03025311
 -0.0302591 -0.03025676 -0.03024792 -0.0302321 -0.03021483 -0.0301966 -0.03018237 -0.03017253 -0.03016761 -0.03016737
 -0.03016699 -0.03016613 -0.0301596 -0.03014832 -0.03013299 -0.03011524 -0.03010027 -0.03008774 -0.03008001 -0.03007459
 -0.03006892 -0.03006212 -0.03005175 -0.03004038 -0.03002887 -0.03001929 -0.0300135 -0.03000905 -0.03000598 -0.03000021
 -0.02999069 -0.02997692 -0.02995854 -0.02993806 -0.02991565 -0.02989275 -0.02986941 -0.02984616 -0.02982316 -0.02980205
 -0.02978297 -0.02976743 -0.02975529 -0.02974669 -0.02974192 -0.02974156 -0.02974591 -0.02975656 -0.02977063 -0.02978753
 -0.0298005 -0.02980524 -0.02979759 -0.02977332 -0.02973691 -0.02968749 -0.02963608 -0.02958419 -0.02954223 -0.02951186
 -0.02949641 -0.02949642 -0.02950468 -0.02952051 -0.02953067 -0.02953517 -0.02952719 -0.02950881 -0.02948501 -0.02945787
 -0.0294363 -0.02941943 -0.02941051 -0.02940612 -0.02940317 -0.02939911 -0.02938995 -0.02937651 -0.02935756 -0.02933655
 -0.02931482 -0.02929419 -0.02927582 -0.02925868 -0.02924269 -0.02922725 -0.02921213 -0.02919859 -0.02918674 -0.02917613
 -0.02916662 -0.02915489 -0.02914089 -0.02912243 -0.02909995 -0.02907421 -0.02904551 -0.02901496 -0.02898286 -0.02894993
 -0.02891712 -0.02888595 -0.028857 -0.02883167 -0.02880908 -0.02878897 -0.02877094 -0.02875451 -0.02874066 -0.02872978
 -0.02872153 -0.02871641 -0.02871057 -0.02870376 -0.02869166 -0.0286739 -0.02864979 -0.02861953 -0.02858768 -0.02855486
 -0.02852826 -0.02850768 -0.02849703 -0.02849376 -0.02849376 -0.02849262 -0.02847972 -0.02845335 -0.02840495 -0.02834051
 -0.02826093 -0.02817656 -0.02809415 -0.02802029 -0.02796063 -0.02791291 -0.02787878 -0.02784907 -0.02782235 -0.02779152
 -0.02775498 -0.02771493 -0.02767123 -0.02763269 -0.02759965 -0.0275786 -0.02756885 -0.02756852 -0.02757558 -0.02758005
 -0.02758078 -0.02756813 -0.02754516 -0.02751295 -0.02747522 -0.02743857 -0.02740177 -0.02736633 -0.02732958 -0.02728928
 -0.02724708 -0.0272026 -0.02715974 -0.02712008 -0.0270836 -0.02705118 -0.02701816 -0.02698422 -0.02694438 -0.0268982
 -0.02684341 -0.02678005 -0.02671064 -0.02663592 -0.02656322 -0.02649294 -0.02643131 -0.02637716 -0.02633068 -0.02629001
 -0.02625154 -0.02621425 -0.02617519 -0.0261342 -0.02608996 -0.02604308 -0.02599339 -0.02594203 -0.02588971 -0.02583606
 -0.02578145 -0.0257236 -0.02566192 -0.02559606 -0.02552546 -0.02545485 -0.02538447 -0.02531982 -0.02526098 -0.02520792
 -0.02515969 -0.0251085 -0.0250532 -0.02498333 -0.02490082 -0.0248049 -0.02469993 -0.02459508 -0.0244908 -0.0243926
 -0.02429635 -0.02419951 -0.02410065 -0.0239964 -0.02389256 -0.0237905 -0.02369622 -0.02361278 -0.02353885 -0.02347572
 -0.02341468 -0.02335555 -0.02328407 -0.02319911 -0.0230908 -0.02295916 -0.02281199 -0.02265053 -0.02248937 -0.02232749
 -0.02216803 -0.02200871 -0.02184405 -0.02167385 -0.02149483 -0.02130823 -0.02111446 -0.02091436 -0.02070848 -0.02049874
 -0.0202866 -0.02007324 -0.01986074 -0.01964459 -0.01942411 -0.0191943 -0.01895281 -0.0187049 -0.01845078 -0.01819701
 -0.01794448 -0.01768749 -0.01742574 -0.01715139 -0.01686525 -0.01657099 -0.01627011 -0.01597197 -0.01567619 -0.01538659
 -0.01510187 -0.01482153 -0.01454372 -0.01426646 -0.01398608 -0.01369836 -0.01340077 -0.01308951 -0.01276669 -0.0124316
 -0.01208945 -0.01174228 -0.01139111 -0.01103866 -0.01067109 -0.01028855 -0.009863377 -0.009392741 -0.008872604 -0.008304175
 -0.007738611 -0.007177634 -0.006661104 -0.006181305 -0.005722495 -0.005276819 -0.004811956 -0.004326652 -0.00380328 -0.003242917
 -0.002642633 -0.001995547 -0.001298801 -0.0005316581 0.0003206846 0.001271851 0.002343117 0.00349372 0.004725456 0.005954922
 0.007163679 0.0083053 0.009368101 0.01035857 0.01127511 0.01215121 0.01298937 0.01384917 0.01473633 0.01573543
 0.01683818 0.01806369 0.01937086 0.02063569 0.02184838 0.02291445 0.02388044 0.02477353 0.02563287 0.0265122
 0.02741743 0.02837121 0.02936075 0.03038585 0.03143395 0.03250403 0.03357298 0.03463664 0.03567351 0.03667759
 0.03766249 0.03862904 0.0395872 0.04053612 0.04142575 0.04225199 0.0429522 0.04353163 0.04398281 0.04431434
 0.04455034 0.04469159 0.04474892 0.04472642 0.0446298 0.04447565 0.04428196 0.04406207 0.04383046 0.04359384
 0.04336005 0.04312668 0.04289756 0.04265479 0.04239752 0.04209811 0.04175321 0.04133878 0.04085148 0.04029905
 0.03968257 0.03904818 0.03839638 0.03775148 0.03710774 0.03644846 0.03576995 0.03504993 0.0342931 0.03349492
 0.03267037 0.03183838 0.03101284 0.03021786 0.02945069 0.0287175 0.0280102 0.02732163 0.0266652 0.02604012
 0.02547547 0.02497994 0.02455697 0.02421066 0.02391629 0.02367214 0.02346029 0.02328006 0.02313245 0.02301761
 0.02293826 0.02289215 0.02286932 0.02286725 0.02287188 0.02288419 0.022899 0.02291936 0.02294765 0.02298603
 0.02303761 0.02310343 0.0231855 0.023283 0.02339662 0.02352323 0.02366179 0.02381093 0.02397002 0.0241398
 0.02432105 0.02450752 0.0246991 0.02488361 0.02506066 0.02523189 0.02539957 0.02558859 0.02579951 0.02605152
 0.02633663 0.02663839 0.02695181 0.02725511 0.02755492 0.02785404 0.02815242 0.02845565 0.02874808 0.02901996
 0.0292612 0.0294614 0.02962797 0.02975983 0.02987066 0.02996342 0.03004698 0.03012411 0.03018963 0.03024376
 0.03027417 0.03028021 0.03025027 0.03018302 0.03006056 0.02988089 0.02962314 0.02928806 0.02886747 0.0283622
 0.02777238 0.02709265 0.02630766 0.02543467 0.02446719 0.02348021 0.02253131 0.02165209 0.0208899 0.02018556
 0.01952864 0.01887275 0.01819981 0.0175185 0.01682589 0.01614986 0.01549354 0.01485879 0.01424551 0.01363146
 0.01301566 0.01237917 0.01172399 0.01104961 0.01036124 0.009675805 0.008996656 0.008341565 0.007705757 0.007091028
 0.006488363 0.005890197 0.005285977 0.004670289 0.004020747 0.003326764 0.002565403 0.001711438 0.0008239358 -0.0001008371
 -0.0009348278 -0.001650584 -0.002243136 -0.002705008 -0.003126343 -0.003511413 -0.003920451 -0.004351299 -0.004799454 -0.005258714
 -0.005690829 -0.006097943 -0.006466937 -0.006803689 -0.007118731 -0.007406409 -0.007664867 -0.007881779 -0.008039935 -0.008141549
 -0.008179711 -0.008169424 -0.008117464 -0.008030991 -0.007916398 -0.0077654 -0.007579856 -0.00733709 -0.007035853 -0.006643062
 -0.006154559 -0.005562145 -0.004865865 -0.004139209 -0.003388789 -0.002718397 -0.00212436 -0.001640733 -0.001256639 -0.0009530691
 -0.0007237264 -0.0005460869 -0.0004162598 -0.0003214774 -0.0002516881 -0.0001963851 -0.0001329487 -4.081896E-05 9.278855E-05 0.000289737
 0.0005148291 0.0007631755 0.0009938725 0.001192108 0.001358954 0.001491037 0.001606848 0.001708247 0.001800988 0.001885368
 0.001950259 0.001995067 0.002009006 0.001993041 0.001946479 0.001871847 0.001775482 0.001663383 0.001550329 0.001445507
 0.001370797 0.001328962 0.001332832 0.001377188 0.00146141 0.001582948 0.001739354 0.001932978 0.002164443 0.002434239
 0.002742743 0.003089003 0.003472381 0.003897029 0.004363407 0.004873743 0.005428103 0.006007739 0.006610629 0.007205354
 0.007792345 0.008357913 0.008904524 0.00943508 0.00994777 0.01044162 0.01090973 0.01134135 0.01172949 0.01206272
 0.01233596 0.01254276 0.0126774 0.01273585 0.01271277 0.0126044 0.01241213 0.0121326 0.01178498 0.01136889
 0.01092249 0.01044918 0.009978159 0.009511136 0.009044992 0.008578542 0.008094192 0.007593345 0.007074299 0.006541835
 0.006012944 0.005488589 0.004981107 0.004485097 0.003997414 0.003512882 0.003023703 0.002529216 0.002025159 0.001516419
 0.001002427 0.0004950583 -2.710897E-06 -0.0004772492 -0.0009237124 -0.001339438 -0.001721912 -0.002082549 -0.002422041 -0.00275197
 -0.003073021 -0.003382344 -0.003678825 -0.003946381 -0.004184636 -0.004382301 -0.004542007 -0.004666802 -0.004760007 -0.004830865
 -0.004881477 -0.004918685 -0.004945109 -0.004965571 -0.00498377 -0.005003954 -0.005028737 -0.005061139 -0.00510025 -0.005146579
 -0.005198078 -0.005254101 -0.00531456 -0.005379258 -0.00544931 -0.005525073 -0.005603541 -0.005684575 -0.005761527 -0.005834167
 -0.00589801 -0.005953078 -0.005997554 -0.00603094 -0.006050341 -0.00605549 -0.006043519 -0.006016413 -0.005975342 -0.005924374
 -0.005868602 -0.00581087 -0.005755603 -0.005702269 -0.005652026 -0.00560273 -0.005553422 -0.005504322 -0.005454483 -0.005409015
 -0.005368217 -0.005339065 -0.005322491 -0.005320258 -0.005332545 -0.005353987 -0.005384192 -0.005416431 -0.00545076 -0.005484205
 -0.005517082 -0.005548992 -0.005580081 -0.00561026 -0.005640144 -0.005670823 -0.005702443 -0.005736294 -0.005770164 -0.005803133
 -0.005832041 -0.005854307 -0.00587031 -0.005878968 -0.005884063 -0.005886479 -0.005888234 -0.005890003 -0.005891096 -0.005891483
 -0.005890958 -0.005889507 -0.005887258 -0.005883998 -0.005876478 -0.005864509 -0.005844599 -0.005818034 -0.005787455 -0.005754772
 -0.005726879 -0.005702624 -0.005684236 -0.005667137 -0.005646942 -0.005619841 -0.005581066 -0.005529469 -0.0054633 -0.005381879
 -0.005284361 -0.005171388 -0.005041955 -0.004902345 -0.004752766 -0.004603202 -0.004454759 -0.004313442 -0.004179716 -0.00405209
 -0.003930337 -0.003810398 -0.003692585 -0.003576466 -0.003463504 -0.003358871 -0.003263934 -0.003185471 -0.003122025 -0.003074873
 -0.003040355 -0.003013832 -0.002995113 -0.002980766 -0.002977248 -0.002986793 -0.003016045 -0.003069291 -0.00314497 -0.003244861
 -0.003359176 -0.003487042 -0.003617388 -0.003748803 -0.003876141 -0.003998938 -0.004120483 -0.004241191 -0.004368454 -0.004502195
 -0.004645848 -0.004798276 -0.004956753 -0.005120786 -0.00528785 -0.005457792 -0.005630122 -0.005802324 -0.005971834 -0.006134808
 -0.006286099 -0.006427167 -0.006555841 -0.006680064 -0.006802667 -0.006928376 -0.007060506 -0.007192877 -0.007325517 -0.007448569
 -0.007560556 -0.007660498 -0.007748165 -0.007830122 -0.007906446 -0.007979423 -0.008047963 -0.008105662 -0.00815185 -0.008180103
 -0.008191487 -0.008185543 -0.008163297 -0.008126443 -0.008075277 -0.00801037 -0.007933157 -0.007844755 -0.007747062 -0.007642344
 -0.007528405 -0.007406188 -0.00726806 -0.007112652 -0.006931892 -0.006723484 -0.006487168 -0.00622163 -0.005940143 -0.005643243
 -0.005354415 -0.005074592 -0.004821929 -0.004594699 -0.004391113 -0.004206751 -0.004023249 -0.003837878 -0.003632997 -0.003411541
 -0.003169209 -0.002913507 -0.002651947 -0.002390148 -0.002136948 -0.001889989 -0.001651852 -0.001413835 -0.001172792 -0.0009236466
 -0.0006632284 -0.0003955037 -0.0001199759 0.0001546167 0.0004276032 0.0006901281 0.0009415812 0.001175787 0.001392993 0.001596652
 0.001789136 0.001988468 0.002197027 0.002435329 0.00270098 0.002999408 0.003324311 0.003666375 0.004022457 0.004383896
 0.004752743 0.005128605 0.005511338 0.005902947 0.006295054 0.006685659 0.007064681 0.007427825 0.00777515 0.008104893
 0.008426794 0.00874194 0.009055431 0.009367884 0.009671343 0.009965263 0.01023893 0.01049274 0.0107242 0.01093496
 0.01112972 0.01131111 0.01148718 0.01166254 0.01184867 0.01204997 0.0122778 0.01253048 0.01281235 0.01311428
 0.01343327 0.01375807 0.01408334 0.01440231 0.01471124 0.01501134 0.01530194 0.01558753 0.01586898 0.01614475
 0.01641492 0.01667132 0.01691381 0.01713996 0.01735109 0.01755597 0.01775533 0.01795806 0.01816147 0.01836423
 0.01856035 0.01873911 0.01889405 0.01901198 0.01909125 0.01912375 0.01911722 0.01907231 0.01900179 0.01891113
 0.01880829 0.01869643 0.01857995 0.01845911 0.01834359 0.01823429 0.018141 0.01806471 0.01800141 0.01795029
 0.01789415 0.01783229 0.01775053 0.01765087 0.01753302 0.01740165 0.01726837 0.01713833 0.01702658 0.01693531
 0.0168747 0.01684114 0.01683667 0.01685181 0.01688334 0.01691727 0.01694782 0.01696264 0.01695567 0.01692734
 0.01687467 0.01681451 0.01674805 0.01669293 0.01665071 0.01662268 0.01660839 0.0165964 0.0165861 0.01656748
 0.01654119 0.01650434 0.01645848 0.01640589 0.01634875 0.01629206 0.01623754 0.01618956 0.01614849 0.01611581
 0.01609247 0.0160792 0.01607751 0.01608886 0.01611128 0.01614506 0.01618561 0.01623187 0.01628257 0.01633735
 0.01639713 0.01646212 0.01652768 0.01659323 0.01664649 0.01668665 0.01670162 0.01669189 0.01665273 0.01658581
 0.0164935 0.0163767 0.01623882 0.0160786 0.0158957 0.01568928 0.01545739 0.01520306 0.01492694 0.01463386
 0.01432636 0.01400597 0.0136736 0.01332968 0.01297369 0.01261089 0.01224165 0.01187219 0.01150318 0.01113217
 0.01075862 0.01036948 0.00996415 0.00953082 0.009071798 0.008589636 0.008089589 0.007588223 0.007087818 0.006602434
 0.006126882 0.005660397 0.005196881 0.004728087 0.004257835 0.003784162 0.00331827 0.002865243 0.002429825 0.002015477
 0.001618533 0.001238756 0.0008733849 0.0005219484 0.0001841135 -0.0001400698 -0.0004540074 -0.0007578949 -0.001056082 -0.001348029
 -0.001631841 -0.001905681 -0.002160688 -0.002394917 -0.00259772 -0.002769611 -0.002904855 -0.003009353 -0.003086469 -0.003147629
 -0.003204131 -0.003265261 -0.003342349 -0.003432242 -0.003539133 -0.003646734 -0.003751752 -0.003838551 -0.003901924 -0.00394297
 -0.003959795 -0.003969883 -0.003974339 -0.003987548 -0.004009698 -0.004037797 -0.004070631 -0.004096112 -0.004114698 -0.004121857
 -0.004119498 -0.004111307 -0.004097471 -0.004080607 -0.0040589 -0.004031044 -0.003995238 -0.003949301 -0.003892221 -0.003821891
 -0.003740859 -0.003647578 -0.003553185 -0.003459025 -0.003381728 -0.003325602 -0.0032968 -0.003298644 -0.003313319 -0.003340376
 -0.00334851 -0.003336538 -0.00328734 -0.00320293 -0.003093167 -0.002960814 -0.002824936 -0.002683817 -0.002542572 -0.002397677
 -0.00224243 -0.002080058 -0.001910208 -0.00174213 -0.001585419 -0.001443609 -0.00132432 -0.001219453 -0.001128161 -0.001039721
 -0.0009496922 -0.0008562076 -0.000756985 -0.0006598053 -0.0005650165 -0.0004823825 -0.0004127763 -0.0003603629 -0.0003251071 -0.0003024744
 -0.0002912244 -0.0002789198 -0.0002640167 -0.0002320714 -0.0001838405 -0.0001126476 -2.329566E-05 7.821617E-05 0.0001868011 0.0002917999
 0.0003934557 0.0004876968 0.0005775687 0.0006652889 0.0007483482 0.0008270296 0.0008954364 0.0009504111 0.0009949555 0.001027837
 0.001060999 0.001096309 0.001138031 0.001187246 0.001231212 0.001269194 0.001284492 0.001277783 0.001247313 0.001196497
 0.001140354 0.001081928 0.001038756 0.00101031 0.001004918 0.001018113 0.001048154 0.001088115 0.001131092 0.001170907
 0.001200028 0.001220071 0.001227721 0.001234647 0.001243832 0.001263956 0.001299455 0.001341371 0.001390076 0.001427698
 0.001452431 0.001461493 0.00145516 0.0014497 0.001446049 0.001459838 0.001490018 0.001539695 0.001607407 0.001690832
 0.001788105 0.001896081 0.002008929 0.002117881 0.002216327 0.002291815 0.002349673 0.002385735 0.002419989 0.002460738
 0.002521983 0.002613845 0.002723889 0.002853308 0.002976951 0.00309045 0.003187429 0.003266203 0.003342932 0.003418353
 0.003506188 0.003605692 0.003714672 0.003832251 0.003952729 0.004076771 0.004203942 0.004334171 0.004467699 0.004602717
 0.004736724 0.004868331 0.004995397 0.005116741 0.00523102 0.005337286 0.005433972 0.0055239 0.005606829 0.005689174
 0.005772739 0.005858977 0.0059491 0.006035798 0.006118529 0.006192219 0.006256872 0.006321305 0.00638654 0.006467342
 0.006561955 0.006670676 0.006788301 0.006897619 0.006997661 0.007075282 0.007139023 0.007195287 0.007252726 0.007325308
 0.007408903 0.00750726 0.007607081 0.007702373 0.007786119 0.00785308 0.007908407 0.007951705 0.007991848 0.00803047
 0.008069597 0.008109997 0.008143018 0.008168177 0.008173606 0.008159803 0.008126113 0.008075799 0.008024115 0.007975576
 0.007952361 0.007956833 0.008006866 0.00809691 0.008230683 0.008390125 0.008560389 0.008721014 0.008849528 0.008946775
 0.009002314 0.009041902 0.009070773 0.009113431 0.009178216 0.009267066 0.009382891 0.009510345 0.00964874 0.009779557
 0.009901919 0.01000534 0.01009087 0.01016527 0.01023083 0.01030446 0.01038419 0.01047427 0.0105678 0.01065053
 0.01072123 0.01076925 0.01080333 0.01082888 0.01085231 0.01088241 0.01091358 0.01094558 0.01097188 0.01098807
 0.01100071 0.0110098 0.01102597 0.01105248 0.01108109 0.01111241 0.01111927 0.01110049 0.01104312 0.01094992
 0.01084536 0.01073407 0.01065498 0.01060615 0.01060373 0.01063887 0.01070123 0.0107809 0.01085934 0.01092816
 0.01097087 0.01098609 0.01096351 0.0109192 0.01085329 0.01079935 0.01077053 0.01078107 0.01084341 0.01091983
 0.01100665 0.01107374 0.01111688 0.0111412 0.01114692 0.01114776 0.01114406 0.01114494 0.01114877 0.01115235
 0.01115241 0.01113461 0.01110146 0.01104897 0.01098707 0.0109313 0.01088288 0.01085338 0.01082745 0.0107963
 0.01075199 0.01068326 0.01060675 0.01052466 0.0104559 0.01040741 0.01037736 0.01036746 0.01036512 0.01036942
 0.01037166 0.01037134 0.01035887 0.01033323 0.01027945 0.01019724 0.01007585 0.009918427 0.009728023 0.009511714
 0.009285869 0.009057604 0.008845246 0.008651765 0.0084866 0.008351925 0.008251308 0.008188559 0.008167752 0.008185875
 0.008243473 0.008334153 0.008455642 0.008609827 0.008798425 0.009009954 0.009245804 0.009457197 0.009641672 0.009763799
 0.009827542 0.009869284 0.009895221 0.009964178 0.01006634 0.01020053 0.01035195 0.01047947 0.01059253 0.01068217
 0.01077653 0.01090623 0.01108081 0.01132564 0.01161284 0.01193853 0.01226465 0.01257276 0.01285858 0.01311227
 0.01336963 0.01363444 0.01393709 0.01428278 0.01465657 0.01505777 0.01545093 0.01583622 0.01620593 0.01656247
 0.01691842 0.0172697 0.01761012 0.01793184 0.01821258 0.01845092 0.01863514 0.01876557 0.01883984 0.01885377
 0.01880102 0.01868741 0.0185074 0.01829302 0.01804822 0.01782431 0.01763278 0.01751582 0.01748527 0.01753564
 0.01767089 0.01782958 0.01800851 0.01814026 0.01822492 0.01824519 0.01820593 0.01812731 0.01800974 0.01786426
 0.01769025 0.01748766 0.0172662 0.0170389 0.01682044 0.01663339 0.01648262 0.01638214 0.01632165 0.01630332
 0.01630269 0.01631416 0.0163084 0.01627643 0.01620533 0.01608946 0.01594269 0.01576512 0.01557841 0.01538375
 0.01518962 0.01499575 0.01480039 0.01460374 0.0144058 0.01420821 0.01401675 0.0138326 0.01366285 0.01350408
 0.01335537 0.01320929 0.01305567 0.01289416 0.01271841 0.01253939 0.01236099 0.01219246 0.0120386 0.01190152
 0.01178117 0.01168612 0.01161725 0.01158545 0.01159348 0.01162154 0.01166864</values></Ydata></AB><ScSm><Ydata ylabel="Single channel"><values byteorder="INTEL" format="FLOAT32" numvalues="1814"> 0.06763966 0.06764897 0.06772264 0.0678799 0.06808829 0.06828563 0.06842296 0.0684939 0.06851886 0.06850748
 0.06846315 0.06842495 0.06846339 0.06861168 0.06881957 0.06898718 0.06904376 0.0690098 0.06898911 0.06906684
 0.06919041 0.06917989 0.06889823 0.06841165 0.0679478 0.06768479 0.06764014 0.06780732 0.06826663 0.06896487
 0.06947413 0.06930287 0.06851822 0.06776448 0.06754664 0.06774732 0.06793544 0.06785916 0.06751877 0.06707183
 0.06687981 0.06740743 0.06876488 0.0703373 0.07100806 0.06985981 0.06682777 0.06291451 0.05982576 0.05905414
 0.06082293 0.06378329 0.06602751 0.06661017 0.06599918 0.0651143 0.06434354 0.06366 0.06324725 0.06352393
 0.06456031 0.06569555 0.06587499 0.06454113 0.06229806 0.0604962 0.06000893 0.0606777 0.06201797 0.06374532
 0.06504957 0.06418481 0.06018753 0.05504572 0.05280868 0.05573641 0.06188806 0.06703015 0.06840387 0.06624478
 0.06253354 0.05936012 0.05815892 0.05931418 0.06206843 0.06516156 0.0676074 0.06873807 0.06803011 0.06555918
 0.06244417 0.06029829 0.06023609 0.06244424 0.06614392 0.06965087 0.07114004 0.0700008 0.06724581 0.06443811
 0.06266088 0.06252277 0.06430584 0.06765714 0.0715854 0.07504934 0.07738296 0.07833426 0.07810315 0.07722379
 0.07616226 0.07524367 0.07494403 0.0755945 0.0766065 0.07669766 0.07529522 0.07330497 0.07217674 0.07240354
 0.07312983 0.07319207 0.07229404 0.07079695 0.06855775 0.0649413 0.06026555 0.05615436 0.053909 0.05353
 0.05470371 0.05730793 0.06025593 0.06141432 0.05993281 0.05774066 0.05761647 0.0602265 0.06378829 0.06627126
 0.06727789 0.06791097 0.0693436 0.07161066 0.07344037 0.07320422 0.07053317 0.06723513 0.06601573 0.06782264
 0.07094379 0.07312791 0.07396193 0.07461197 0.0757796 0.07660964 0.07557409 0.07227877 0.06844878 0.06687506
 0.06898563 0.07341251 0.07697693 0.0770382 0.07327259 0.06776129 0.06336966 0.06176084 0.06293627 0.0663157
 0.07138048 0.07711568 0.08175229 0.08375256 0.08292945 0.08036176 0.07716756 0.07346982 0.06897951 0.06471066
 0.06318919 0.06605418 0.07194954 0.07765559 0.0809629 0.08176874 0.08081293 0.07830325 0.07413135 0.06921251
 0.06592533 0.06626325 0.06943704 0.07232637 0.07275257 0.07146164 0.07050771 0.07067458 0.07119107 0.07133416
 0.07145459 0.07238919 0.07428277 0.07627906 0.07736224 0.07728386 0.07660136 0.0760204 0.0757523 0.07536438
 0.07439294 0.07328089 0.07331587 0.07521863 0.07814746 0.08056229 0.08176331 0.08213551 0.0821232 0.08145506
 0.07954633 0.07661143 0.0741138 0.07368033 0.07552698 0.07832741 0.08059175 0.08173329 0.08192192 0.08154875
 0.08096436 0.08036196 0.07982977 0.07959567 0.07997431 0.08091596 0.08190116 0.08246014 0.0825558 0.08235475
 0.08189932 0.08117335 0.08033584 0.07972293 0.07960631 0.0799877 0.08064537 0.08133505 0.08187272 0.0820895
 0.08189249 0.08140244 0.0808825 0.08049665 0.08025163 0.08016066 0.08029884 0.08065736 0.08107199 0.08136052
 0.08146638 0.08143526 0.08131447 0.0811201 0.08087294 0.08063499 0.08050518 0.08055477 0.08074293 0.08093791
 0.08106582 0.08118504 0.08135392 0.08149116 0.08146174 0.08126313 0.08103812 0.08091897 0.08092366 0.08098996
 0.08104256 0.08100534 0.08080096 0.08041787 0.07999483 0.0797679 0.07988054 0.08027977 0.08080748 0.08131836
 0.08169778 0.0818774 0.08189061 0.08184166 0.08178318 0.0816762 0.08148558 0.0812702 0.08116429 0.08127577
 0.08158952 0.08197045 0.08227444 0.08244328 0.08249964 0.08250888 0.08255461 0.08267653 0.08280773 0.08283697
 0.0827513 0.08266205 0.08267391 0.08276985 0.08284138 0.08281355 0.08272833 0.08269991 0.08279008 0.08295017
 0.08309341 0.08319531 0.0833008 0.08344509 0.08358538 0.08362392 0.08351234 0.08331958 0.08316511 0.08309767
 0.08308462 0.08310638 0.08319347 0.08335375 0.08351816 0.08359771 0.08357848 0.08353099 0.08352217 0.08353698
 0.08350146 0.08337283 0.08318743 0.08302356 0.08293612 0.08292621 0.08295273 0.0829635 0.08292445 0.0828325
 0.08270916 0.08258102 0.08246142 0.08235504 0.08228435 0.08229154 0.08238517 0.08249083 0.0824914 0.08233552
 0.08209297 0.08188899 0.08178701 0.08174206 0.08166304 0.081506 0.08130195 0.08111004 0.08096462 0.08086513
 0.0807943 0.08073722 0.08069779 0.08070619 0.08079205 0.08093277 0.08104361 0.08104604 0.08094448 0.08081833
 0.08074503 0.0807464 0.08079548 0.08085273 0.08090433 0.08097716 0.08109799 0.0812348 0.08131467 0.08131288
 0.08128773 0.08131552 0.08142705 0.08160959 0.08182084 0.08199111 0.08206359 0.08205587 0.08204876 0.08209991
 0.08219767 0.08230677 0.08242196 0.08255582 0.08270149 0.08284037 0.08298055 0.08316131 0.08341095 0.08370958
 0.08399771 0.08422129 0.0843759 0.08451605 0.08471617 0.08501069 0.08536619 0.08571213 0.08599982 0.08623547
 0.08646032 0.08670219 0.08695529 0.08721083 0.08748861 0.08781621 0.08818705 0.08856432 0.08892322 0.08926733
 0.08960591 0.08993672 0.0902565 0.09057866 0.09093416 0.09134625 0.09179415 0.0922098 0.09253065 0.09275936
 0.0929639 0.0932228 0.09356958 0.0939671 0.09432358 0.09456237 0.09470218 0.0948493 0.09508517 0.09538221
 0.0956614 0.09591195 0.09620677 0.09659736 0.0970353 0.0974187 0.09769564 0.09790315 0.09811231 0.09835014
 0.09857916 0.09875039 0.09886649 0.0989783 0.09912399 0.09930164 0.09951135 0.09978589 0.1001451 0.1005435
 0.1009015 0.1011774 0.1013831 0.1015441 0.1016769 0.1017916 0.101892 0.1019793 0.1020694 0.1021843
 0.1023157 0.1024268 0.1025069 0.1025962 0.1027382 0.1029366 0.1031791 0.1034687 0.1038012 0.1041354
 0.1044338 0.1047226 0.1050655 0.1054632 0.1058235 0.1060592 0.106181 0.1062616 0.1063439 0.1064333
 0.1065561 0.1067618 0.1070637 0.1074183 0.1077757 0.1081215 0.1084659 0.1088089 0.1091261 0.1093774
 0.109532 0.1095958 0.1096186 0.1096716 0.1098128 0.1100564 0.1103615 0.1106558 0.1108794 0.1110057
 0.1110262 0.110946 0.1108102 0.1107077 0.110702 0.1107565 0.1107542 0.1105943 0.1102528 0.1097545
 0.1091232 0.1083789 0.1075669 0.1067655 0.1060605 0.1055168 0.1051739 0.1050655 0.1052273 0.1056654
 0.1063124 0.1070349 0.1076955 0.1081947 0.1084524 0.1083929 0.1079886 0.1073045 0.1064699 0.1056045
 0.1047794 0.1040172 0.1033017 0.1026122 0.1019886 0.1015662 0.1015262 0.1020044 0.1030349 0.1045376
 0.1063309 0.1081773 0.1098705 0.1113127 0.1125207 0.1135625 0.1144955 0.115357 0.116179 0.1169773
 0.1177311 0.1184037 0.1189889 0.1195162 0.1200091 0.1204587 0.1208386 0.1211316 0.121345 0.1215112
 0.1216634 0.1217986 0.1218819 0.1218959 0.1218675 0.1218283 0.1217653 0.1216244 0.1213506 0.1209246
 0.1203872 0.1198624 0.1195565 0.1197002 0.1204372 0.1217339 0.1233937 0.1251701 0.1268696 0.1283667
 0.1295815 0.1304896 0.131142 0.1316367 0.1320626 0.1324699 0.132877 0.1332831 0.133679 0.1340586
 0.1344247 0.1347865 0.135156 0.1355398 0.135928 0.1362958 0.1366289 0.1369454 0.1372854 0.137673
 0.1380888 0.138488 0.1388493 0.1391968 0.1395578 0.1399157 0.1402286 0.1404875 0.1407305 0.1410029
 0.1413292 0.1417112 0.1421222 0.142507 0.1428174 0.143057 0.1432753 0.1435169 0.1437901 0.1440795
 0.1443712 0.1446599 0.1449457 0.1452359 0.1455452 0.1458779 0.146207 0.146488 0.146703 0.1468851
 0.1470875 0.1473337 0.1476038 0.1478634 0.1481011 0.1483389 0.1486113 0.1489289 0.1492613 0.1495596
 0.1497973 0.1499892 0.1501722 0.1503745 0.1506051 0.1508605 0.1511321 0.1514071 0.1516728 0.1519254
 0.1521708 0.1524172 0.1526657 0.1529124 0.1531545 0.1533936 0.1536322 0.1538703 0.15411 0.1543629
 0.1546445 0.1549533 0.1552619 0.1555373 0.1557686 0.1559689 0.1561569 0.1563455 0.1565438 0.1567565
 0.1569816 0.1572144 0.157453 0.1576953 0.1579357 0.1581693 0.1584 0.1586368 0.1588829 0.1591312
 0.1593743 0.1596157 0.1598661 0.1601272 0.1603852 0.1606245 0.1608453 0.1610613 0.1612836 0.1615105
 0.1617343 0.1619538 0.1621767 0.1624103 0.1626518 0.1628902 0.1631176 0.1633345 0.1635472 0.1637618
 0.1639819 0.1642067 0.1644315 0.1646517 0.1648683 0.1650891 0.1653211 0.1655604 0.1657943 0.1660134
 0.1662197 0.1664236 0.1666362 0.1668634 0.1671043 0.1673513 0.167595 0.1678291 0.1680524 0.1682676
 0.1684791 0.1686885 0.168895 0.1691025 0.1693197 0.1695495 0.1697856 0.1700213 0.170255 0.1704871
 0.1707168 0.1709433 0.171167 0.1713907 0.1716193 0.1718535 0.1720849 0.1723049 0.1725164 0.1727325
 0.1729647 0.1732138 0.1734685 0.1737122 0.1739357 0.1741421 0.1743401 0.1745375 0.1747384 0.1749406
 0.1751384 0.175331 0.1755236 0.17572 0.1759209 0.1761299 0.1763521 0.1765867 0.1768267 0.1770635
 0.1772909 0.1775113 0.1777334 0.177959 0.1781797 0.1783919 0.1786036 0.1788214 0.1790442 0.1792684
 0.1794903 0.1797059 0.1799187 0.1801393 0.1803738 0.1806175 0.1808597 0.1810885 0.1812991 0.1815027
 0.1817166 0.1819449 0.1821802 0.1824184 0.1826576 0.1828918 0.1831183 0.1833397 0.1835554 0.1837642
 0.1839725 0.1841891 0.1844167 0.1846536 0.1848947 0.1851302 0.185357 0.1855841 0.1858158 0.1860465
 0.1862753 0.186507 0.1867382 0.1869641 0.1871883 0.1874104 0.1876235 0.1878307 0.18804 0.1882368
 0.188371 0.1883232 0.1878024 0.1862308 0.1827235 0.1762604 0.1660883 0.1521908 0.1354618 0.1173947
 0.09953152 0.08305152 0.06864902 0.05662801 0.04705755 0.0398638 0.03488553 0.03197853 0.03112764 0.03255701
 0.03684789 0.04459302 0.05509064 0.06518728 0.07050506 0.06889893 0.06250823 0.05580779 0.0518929 0.05098812
 0.0517811 0.05315035 0.05473612 0.05673289 0.05948358 0.06308679 0.06737681 0.072348 0.07836297 0.08569115
 0.09395418 0.1022816 0.1100567 0.1173953 0.1248558 0.1327574 0.1408391 0.148515 0.1553412 0.1612366
 0.166388 0.1710459 0.1753882 0.179504 0.1834388 0.1871866 0.1906067 0.193398 0.1952466 0.1960627
 0.1960886 0.1957633 0.1954663 0.1953687 0.1954817 0.195774 0.1962247 0.1968168 0.1975324 0.1983483
 0.1992287 0.2001326 0.2010297 0.2018994 0.2027236 0.2034924 0.2042075 0.204872 0.2054862 0.2060513
 0.2065688 0.2070398 0.2074727 0.2078811 0.2082721 0.2086456 0.2090032 0.2093461 0.2096694 0.2099668
 0.2102391 0.2104927 0.210736 0.2109785 0.2112233 0.2114638 0.2116932 0.2119139 0.2121348 0.212364
 0.2126031 0.2128449 0.2130783 0.2132979 0.2135062 0.2137063 0.213903 0.214108 0.2143299 0.2145607
 0.2147842 0.2149956 0.2152017 0.2154076 0.2156116 0.2158115 0.2160119 0.2162243 0.2164563 0.2167003
 0.216942 0.2171785 0.2174186 0.2176645 0.2179088 0.2181467 0.2183783 0.2186038 0.2188274 0.2190541
 0.2192761 0.2194733 0.2196386 0.2197922 0.219968 0.2201874 0.2204418 0.2206985 0.2209282 0.2211302
 0.221324 0.2215259 0.2217371 0.2219458 0.2221417 0.2223379 0.2225674 0.2228419 0.2231332 0.2234095
 0.2236681 0.2239166 0.2241576 0.2244 0.224652 0.2248914 0.2250796 0.2252217 0.2253886 0.2256575
 0.2260303 0.2264259 0.2267596 0.2270201 0.2272533 0.2275022 0.2277839 0.2280784 0.2283034 0.2283675
 0.2283131 0.2283442 0.2286373 0.2291616 0.2297361 0.2302188 0.2305928 0.2309099 0.2312076 0.2314737
 0.2316594 0.2317289 0.2317233 0.2317812 0.2320475 0.2325287 0.2330736 0.2335306 0.2338706 0.2341382
 0.2343672 0.2345734 0.2347192 0.2346665 0.2343209 0.2338869 0.2338135 0.2343611 0.2353073 0.2361846
 0.2367432 0.2370785 0.2373654 0.237643 0.23787 0.2379659 0.2377038 0.2368367 0.2355765 0.2347326
 0.2350428 0.2364273 0.2381208 0.239435 0.2401962 0.2405828 0.2408263 0.2410523 0.2411844 0.2409587
 0.2402163 0.2392792 0.2388638 0.2394185 0.2406233 0.2417376 0.2423608 0.2426414 0.2428724 0.2431598
 0.243354 0.2430149 0.2416569 0.239467 0.2376707 0.2376728 0.2396841 0.2424699 0.2445784 0.2455891
 0.2459873 0.2460931 0.2455864 0.244081 0.2416987 0.2389999 0.236835 0.2362652 0.2378592 0.2407777
 0.2432413 0.2442933 0.2446103 0.245352 0.2467644 0.2481715 0.2488659 0.2486636 0.2477813 0.2464421
 0.2447715 0.2431736 0.2425478 0.2436452 0.2461578 0.2488355 0.2506418 0.2515368 0.2519338 0.2514879
 0.2488513 0.2432996 0.2367633 0.2332859 0.2354444 0.2416489 0.2478541 0.2515368 0.2530615 0.2537695
 0.2541941 0.253922 0.2518079 0.246575 0.2388073 0.2322432 0.231256 0.2365169 0.2442285 0.2496795
 0.2504858 0.2468573 0.2407143 0.2350844 0.232871 0.2351042 0.2405024 0.2467339 0.2518118 0.2546271
 0.2549325 0.2532329 0.2507398 0.2490742 0.2490965 0.2496206 0.2483083 0.244628 0.2407535 0.2383631
 0.2360175 0.2317989 0.2275361 0.2275846 0.2331811 0.2403901 0.244538 0.2449469 0.2440591 0.242963
 0.239487 0.231305 0.2203479 0.2128436 0.2138666 0.2220781 0.2309386 0.2351183 0.234721 0.2333207
 0.2331882 0.232992 0.2296919 0.2225283 0.2149742 0.211794 0.2139529 0.2177439 0.2191379 0.2169723
 0.2114829 0.203011 0.1943467 0.1915088 0.1986201 0.2128126 0.2265124 0.2336795 0.2319402 0.2211394
 0.2042048 0.1889667 0.1843278 0.192258 0.2053947 0.213839 0.212983 0.204235 0.1907936 0.1755309
 0.1623694 0.1565662 0.1615124 0.175348 0.191132 0.2002753 0.1972197 0.1837599 0.169466 0.1647691
 0.1714419 0.1814082 0.185836 0.1831639 0.1777394 0.1741889 0.1747607 0.1790608 0.1844778 0.1885945
 0.1911135 0.1911229 0.1844617 0.1687548 0.1501573 0.1393476 0.1404191 0.148696 0.1593129 0.1715995
 0.1835904 0.1889813 0.1842477 0.1753949 0.1729237 0.180688 0.1925512 0.1998787 0.2000902 0.1971931
 0.1955214 0.1950476 0.1935857 0.1919081 0.1938984 0.2012233 0.210426 0.2167765 0.2191764 0.2197366
 0.2201881 0.2205777 0.2204751 0.2197437 0.2184512 0.2169785 0.2159148 0.2153881 0.2149464 0.2142479
 0.2130175 0.2099598 0.203045 0.1923594 0.1819406 0.1766016 0.1768279 0.1790565 0.180957 0.1828084
 0.1825908 0.1745951 0.1569893 0.1380202 0.1300211 0.1375009 0.1537894 0.1686284 0.176041 0.1748287
 0.1654445 0.1501523 0.1355611 0.1306366 0.1393869 0.1569782 0.1748826 0.188236 0.1964584 0.1992009
 0.1954097 0.1862503 0.1763647 0.1712639 0.1739367 0.1834684 0.1953724 0.2027941 0.1998225 0.1873206
 0.1756316 0.1770225 0.1927999 0.2111441 0.2203934 0.2209059 0.2204502 0.2221296 0.2227696 0.2213306
 0.2223662 0.2297099 0.2407943 0.2491731 0.2501701 0.2427112 0.2287672 0.2138903 0.2057927 0.2081572
 0.216472 0.2229701 0.2241738 0.2204416 0.2113698 0.1977643 0.1865733 0.1866972 0.1986665 0.2134442
 0.222702 0.2264082 0.2290889 0.23205 0.2318258 0.2254798 0.2155455 0.2084784 0.2082509 0.2128405
 0.2175918 0.2201113 0.2202773 0.2174491 0.2108802 0.2028658 0.1987408 0.202219 0.2115329 0.2210957
 0.2265042 0.2272791 0.225496 0.2231473 0.220856 0.2180662 0.2143174 0.2108875 0.2105548 0.214611
 0.2207535 0.2254269 0.2278857 0.2304392 0.2348271 0.2398165 0.2426837 0.242166 0.239652 0.2379653
 0.239086 0.2425669 0.2458655 0.2465175 0.2444823 0.2423987 0.243154 0.2471319 0.252164 0.2559951
 0.2581208 0.2593235 0.2603509 0.2612732 0.2614375 0.2599699 0.2570154 0.2544615 0.2545909 0.2578078
 0.2622497 0.2657064 0.2674005 0.2678611 0.2677127 0.2670275 0.2656785 0.263923 0.2624231 0.2617308
 0.2618964 0.262593 0.263463 0.2642797 0.2649317 0.2654021 0.2657354 0.265969 0.2661211 0.2662336
 0.2663453 0.2664176 0.2663799 0.266276 0.2662759 0.2664847 0.2668036 0.267032 0.2670411 0.2667822
 0.2661933 0.2652196 0.2639161 0.2624227 0.2608052 0.2590224 0.2571472 0.2555916 0.2549796 0.2556922
 0.2575224 0.2597993 0.2618455 0.2633182 0.2642083 0.2646555 0.2648188 0.2648403 0.2648228 0.2648023
 0.2647587 0.2646638 0.2645106 0.2643045 0.2640557 0.2637945 0.2635742 0.2634339 0.2633603 0.2632943
 0.2631706 0.2629507 0.2626357 0.2622608 0.2618655 0.2614497 0.2609599 0.2603325 0.259555 0.2586802
 0.2577877 0.2569369 0.2561401 0.2553616 0.2545466 0.2536567 0.2526657 0.2515335 0.2502358 0.2488389
 0.2474969 0.2463312 0.2453365 0.2444208 0.2434964 0.2425081 0.2414175 0.2402118 0.2389183 0.2375821
 0.2362253 0.2348372 0.2333928 0.231874 0.2302764 0.2286045 0.2268641 0.2250656 0.2232291 0.2213684
 0.2194577 0.2174151 0.2151239 0.2124644 0.2093339 0.2056627 0.2014426 0.1967501 0.1917393 0.186607
 0.181554 0.1767547 0.1723422 0.1684093 0.1650222 0.1622314 0.160074 0.1585703 0.157726 0.157543
 0.1580257 0.1591647 0.1609031 0.1631209 0.1656555 0.1683372 0.1710067 0.1735261 0.1758144 0.1778867
 0.1798365 0.1817481 0.183622 0.1853915 0.1869959 0.1884173 0.1896565 0.1907086 0.1915766 0.1922917
 0.1929059 0.1934614 0.1939699 0.1944192 0.1947958 0.1950981 0.1953351 0.1955239 0.1956899 0.1958604
 0.1960527 0.1962731 0.196528 0.1968338 0.197215 0.1976883 0.1982437 0.1988449 0.199456 0.2000653
 0.2006808 0.2013153 0.2019892 0.202739 0.2036056 0.2046123 0.2057543 0.2070026 0.2083091 0.2096072
 0.2108214 0.2118865 0.2127669 0.2134573 0.2139704 0.2143265 0.2145496 0.2146646 0.2146956 0.2146665
 0.2145975 0.2144971 0.2143679 0.2142167 0.2140487 0.2138543 0.2136202 0.2133567 0.2130933 0.2128453
 0.2125993 0.2123396 0.2120722 0.2118136 0.2115656 0.211312 0.2110326 0.2107133 0.2103446 0.2099236
 0.2094558 0.2089441 0.2083742 0.2077193 0.2069597 0.2060896 0.2051063 0.2040078 0.2028065 0.2015268
 0.2001841 0.1987715 0.1972733 0.1956849 0.194017 0.1922781 0.1904513 0.1885012 0.1864246 0.1842948
 0.1822358 0.1803423 0.178626 0.1770319 0.1754964 0.1739932 0.1725328 0.1711287 0.1697781 0.1684806
 0.1672513 0.1660988 0.1650092 0.1639699 0.1629951 0.1621148 0.1613469 0.1606877 0.160118 0.1596161
 0.1591693 0.1587788 0.1584601 0.158239 0.1581297 0.1581098 0.1581261 0.158127 0.1580785 0.1579675
 0.1578137 0.1576661 0.1575636 0.1575059 0.1574648 0.1573984 0.1572433 0.1569191 0.1563506 0.1554845
 0.1542965 0.1528035 0.1510715 0.1492135 0.1473708 0.1456752 0.1442139 0.1430307 0.1421338 0.1414754
 0.1409576 0.1405056 0.1401267 0.1398819 0.1398216 0.139937 0.1401314 0.1402597 0.1402529 0.1401993
 0.1402708 0.1405848 0.1411366 0.1418185 0.1424903 0.1430605 0.1435065 0.1438248 0.144009 0.1440745
 0.14405 0.143946 0.143767 0.1435305 0.1432448 0.1429024 0.142503 0.1420431 0.1414994 0.1408622
 0.1401541 0.1393913 0.1385688 0.1376798 0.1366944 0.1355663 0.1343476 0.133259 0.1325715 0.1324392
 0.1328406 0.1336083 0.1345306 0.1354824 0.1364043 0.137132 0.1374348 0.1373785 0.1375149 0.1384845
 0.1404009 0.1427249 0.1447464 0.1460916 0.1467512 0.14681 0.1463272 0.1453701 0.1439621 0.1420487
 0.1396363 0.1368655 0.1338866 0.1308185 0.1278487 0.125188 0.1229358 0.1211023 0.1196797 0.1187052
 0.118306 0.1181227 0.1163158 0.11052 0.10149 0.09473911 0.09590012 0.1043829 0.1137783 0.1186241
 0.1187534 0.1170715 0.1156064 0.1146837 0.1142031 0.1142918 0.1150635 0.1163674 0.1178084 0.1189795
 0.1197198 0.1200793 0.1200209 0.1191889 0.1168742 0.112271 0.1051221 0.09627832 0.08741581 0.08006786
 0.07492963 0.07187186 0.07029106 0.06946999 0.06892427 0.0686143 0.06883274 0.06986077 0.07173348 0.07429928
 0.0773758 0.0807249 0.08395322 0.08665493 0.08870268 0.09026091 0.09148919 0.09235616 0.09275053 0.09264883
 0.09214394 0.09138569 0.0905156 0.0896071 0.0886302 0.08749993 0.08622587 0.08502169 0.08418256 0.08381611
 0.08376591 0.08381236 0.08385085 0.08386877 0.08386794 0.08384609 0.08380242 0.08377041 0.08385609 0.08416677
 0.08466967 0.08518778 0.08555415 0.08573229 0.08579442 0.08579107 0.08563018 0.08516388 0.0844613 0.08383896
 0.08345202 0.08301231 0.08215652 0.08100133 0.0800893 0.07980945 0.08005475 0.08043061 0.08062632 0.08056735
 0.08038592 0.08034468 0.08065921 0.08124243</values></Ydata></ScSm><ScRf><Ydata ylabel="Single channel"><values byteorder="INTEL" format="FLOAT32" numvalues="1820"> 0.06043406 0.06058497 0.0606746 0.06070373 0.0607008 0.06071344 0.06078741 0.06093779 0.06113549 0.06132289
 0.06145266 0.06151847 0.0615414 0.06153179 0.06149143 0.06145522 0.06148944 0.06162469 0.06180965 0.06194803
 0.06198035 0.0619386 0.06192476 0.06200984 0.06213333 0.06212502 0.06186248 0.06141089 0.06098013 0.06073387
 0.06068924 0.06083844 0.06125081 0.06188028 0.06234778 0.06221142 0.06152164 0.06084774 0.0606451 0.06081763
 0.06098391 0.06091655 0.06061285 0.0602133 0.06004346 0.0605225 0.06175115 0.0631772 0.06379423 0.06277017
 0.06003664 0.05649095 0.05367738 0.0529592 0.05455081 0.05723169 0.05926499 0.05978781 0.05922907 0.05843278
 0.05775233 0.05715111 0.05678004 0.05701499 0.05793077 0.05894415 0.05910707 0.05791088 0.05589472 0.05427653
 0.05384541 0.05445591 0.05566851 0.05723018 0.05841591 0.05764919 0.05405108 0.04940721 0.04737376 0.05000165
 0.05554914 0.06019469 0.06144033 0.05949525 0.05615108 0.0532961 0.05221906 0.05326136 0.05574332 0.05853616
 0.06075222 0.06178237 0.06114559 0.05890674 0.05607961 0.05412777 0.05406259 0.0560542 0.05939978 0.06257778
 0.06393528 0.06291318 0.06042258 0.05787879 0.05626471 0.05613051 0.0577318 0.06075624 0.0643156 0.06746748
 0.0695982 0.07046743 0.07025276 0.06944486 0.0684761 0.06764489 0.06737722 0.06796569 0.06887697 0.06895714
 0.06769414 0.0659065 0.06489934 0.06511493 0.06578207 0.0658503 0.06504767 0.06369646 0.06167022 0.05840102
 0.05417788 0.05046599 0.04844056 0.04810385 0.04917426 0.05154222 0.05422311 0.05528079 0.05393727 0.05193546
 0.05179837 0.05414269 0.05736163 0.05961303 0.06053038 0.06110996 0.06241409 0.06447294 0.06613438 0.06592561
 0.06351291 0.06053141 0.05943286 0.06108116 0.063926 0.06591992 0.06668247 0.06727499 0.0683428 0.06911476
 0.06820361 0.06524807 0.06180629 0.06040005 0.0623191 0.06632759 0.06955307 0.06960703 0.0661968 0.06121033
 0.05724685 0.05581409 0.05691459 0.06002665 0.06468171 0.06995524 0.07423782 0.07612943 0.07544856 0.07315927
 0.07027251 0.06691017 0.06282333 0.05894637 0.05759151 0.0602623 0.06572105 0.07101692 0.07411814 0.07492428
 0.0741106 0.07186347 0.06807776 0.06359659 0.06062213 0.06100581 0.06402301 0.06678213 0.06725433 0.0661227
 0.06529567 0.06551046 0.06605512 0.06625696 0.06644565 0.06740588 0.06927089 0.07123338 0.07233764 0.07234821
 0.07178625 0.07131566 0.07113802 0.07084689 0.07000664 0.06904106 0.06917101 0.0710727 0.07393633 0.07629348
 0.07748443 0.0778916 0.07795283 0.07740701 0.07567716 0.07295381 0.07064204 0.07031539 0.07218719 0.07497609
 0.07724073 0.07841951 0.07868835 0.07843012 0.07797626 0.07750425 0.07709651 0.07697182 0.07742926 0.07841742
 0.07943863 0.08004851 0.08021758 0.08010408 0.07974143 0.07911298 0.0783807 0.07787728 0.07786378 0.07833351
 0.07906473 0.07981831 0.08041804 0.08070384 0.08058617 0.0801795 0.07973944 0.07943057 0.07926621 0.07926418
 0.07949955 0.07995915 0.08047 0.08084038 0.0810107 0.08103374 0.08096834 0.08083625 0.08065558 0.08048528
 0.08042701 0.08055314 0.08081531 0.08107461 0.08126386 0.0814565 0.08171196 0.08192737 0.08194448 0.08176453
 0.08156054 0.0814883 0.08155733 0.08168004 0.08177127 0.08176725 0.08160419 0.08127011 0.08089542 0.08071361
 0.08087684 0.08134489 0.08196316 0.08257435 0.08304469 0.08329365 0.08335374 0.08333382 0.08329125 0.08319275
 0.08301271 0.08282228 0.08276281 0.08293802 0.08332127 0.08376823 0.08413015 0.08434473 0.08443303 0.08446994
 0.08455873 0.08474997 0.08496259 0.08505726 0.08500938 0.08494465 0.0849832 0.08510144 0.08517458 0.08512921
 0.08502921 0.08500925 0.08513522 0.08534899 0.08555008 0.08570542 0.08586431 0.0860735 0.08628768 0.08638343
 0.08628815 0.08607934 0.08590969 0.08584615 0.08584502 0.08587731 0.08598986 0.08620904 0.08645195 0.08659396
 0.08660589 0.08657937 0.0866113 0.08669184 0.08672392 0.08663751 0.08646252 0.0862954 0.08621793 0.08624719
 0.08633746 0.08641426 0.08641954 0.08634473 0.08622855 0.08611863 0.08603688 0.08599178 0.08601719 0.08616132
 0.08640845 0.08663277 0.08667779 0.08650018 0.08621997 0.08601348 0.085957 0.08597632 0.08593798 0.08577463
 0.08552308 0.08526649 0.08506357 0.08492526 0.08483063 0.08475555 0.08470334 0.08471361 0.08481827 0.08497172
 0.08505056 0.08495811 0.08472266 0.08446718 0.08429382 0.08422167 0.08421235 0.08421649 0.08420984 0.0842146
 0.08426742 0.08434911 0.08438286 0.08432644 0.0842294 0.08418015 0.08423327 0.0843911 0.08460027 0.08475691
 0.08477582 0.08467963 0.08458158 0.08456849 0.08463314 0.08472238 0.08480794 0.08489326 0.08498327 0.08507732
 0.08518652 0.08533809 0.08555199 0.08581273 0.08606658 0.08625555 0.08636643 0.08645172 0.08659348 0.08683648
 0.08715318 0.08747061 0.08772994 0.08792647 0.08809871 0.08828074 0.0884738 0.08867194 0.08889607 0.0891738
 0.08949405 0.08981335 0.09010594 0.09038236 0.09066133 0.09094691 0.09123564 0.09153602 0.09187788 0.09228922
 0.09274398 0.09314615 0.09340338 0.09352185 0.0936103 0.09379132 0.09411231 0.09451428 0.09486795 0.0950741
 0.09516054 0.09525871 0.09546061 0.09572773 0.09597215 0.09619465 0.09648879 0.09690978 0.09738588 0.0977806
 0.09802406 0.09816638 0.09830793 0.09849294 0.0986792 0.09880917 0.09889097 0.09898634 0.09912843 0.09929546
 0.09947896 0.09972861 0.1000874 0.1005116 0.1008999 0.1011903 0.1013931 0.101548 0.1016787 0.1017822
 0.101838 0.101842 0.1018382 0.101889 0.1019992 0.1021039 0.1021518 0.10217 0.1022249 0.1023542
 0.1025603 0.1028368 0.1031585 0.1034685 0.1037258 0.1039667 0.1042686 0.1046356 0.1049643 0.1051553
 0.1052246 0.1052607 0.105308 0.1053536 0.1054114 0.1055458 0.1057957 0.1061236 0.106463 0.1067884
 0.1071173 0.107461 0.1077886 0.1080368 0.1081554 0.108151 0.1080933 0.1080781 0.1081785 0.1084099
 0.1087263 0.1090527 0.1093306 0.1095296 0.1096271 0.1096127 0.1095323 0.1094952 0.109589 0.109785
 0.1099517 0.109964 0.1097794 0.1094178 0.1089074 0.1082769 0.1075839 0.1069189 0.1063687 0.1059803
 0.1057658 0.1057409 0.1059402 0.1063772 0.1069926 0.1076706 0.1083069 0.1088302 0.1091599 0.1091957
 0.1088909 0.108312 0.1075959 0.1068626 0.1061787 0.1055624 0.1049891 0.1044249 0.1039042 0.1035698
 0.103611 0.1041505 0.1051799 0.1065659 0.1080957 0.1095462 0.1107685 0.111739 0.1125326 0.1132396
 0.1139081 0.1145587 0.1152153 0.1158866 0.1165332 0.1170969 0.1175672 0.1179876 0.1183978 0.1187942
 0.1191462 0.1194272 0.1196387 0.119819 0.1200111 0.1202028 0.1203239 0.1203256 0.1202377 0.1201248
 0.1200084 0.1198513 0.1196 0.1192315 0.1187861 0.1183849 0.1182084 0.1184219 0.1190856 0.1201214
 0.1213699 0.1226849 0.1239683 0.1251319 0.1260778 0.1267517 0.1271937 0.1275075 0.1277844 0.1280682
 0.1283686 0.1286803 0.1289903 0.1292851 0.1295614 0.1298328 0.1301244 0.1304498 0.1307872 0.1310915
 0.1313413 0.1315708 0.1318428 0.1321872 0.1325706 0.1329311 0.1332458 0.1335506 0.1338791 0.134202
 0.1344563 0.1346289 0.1347778 0.1349739 0.1352498 0.1355962 0.1359707 0.1363098 0.136567 0.1367542
 0.1369273 0.1371303 0.1373653 0.1376126 0.1378581 0.1380984 0.1383364 0.138583 0.1388566 0.1391635
 0.1394746 0.1397352 0.1399162 0.1400487 0.1401963 0.1403922 0.1406165 0.1408311 0.1410269 0.1412344
 0.1414896 0.1417909 0.1420905 0.1423341 0.1425066 0.1426383 0.1427715 0.1429305 0.143117 0.1433217
 0.1435332 0.1437422 0.1439461 0.1441503 0.1443644 0.1445906 0.1448206 0.1450429 0.1452536 0.1454562
 0.1456559 0.1458568 0.146068 0.1463065 0.1465843 0.1468866 0.1471702 0.1473953 0.147556 0.1476787
 0.1477982 0.1479389 0.1481085 0.1482978 0.1484912 0.1486834 0.1488813 0.1490901 0.1493054 0.1495207
 0.1497344 0.1499477 0.1501598 0.1503683 0.1505733 0.1507796 0.150991 0.1512043 0.1514109 0.1516057
 0.1517931 0.1519821 0.1521794 0.152383 0.1525829 0.15277 0.1529472 0.1531257 0.1533128 0.1535065
 0.1537021 0.1538971 0.1540905 0.1542807 0.154468 0.1546571 0.1548531 0.1550553 0.1552558 0.155449
 0.1556391 0.1558349 0.1560378 0.1562414 0.1564399 0.1566325 0.1568237 0.157021 0.1572294 0.1574469
 0.157665 0.1578747 0.1580718 0.15826 0.158448 0.1586421 0.1588413 0.1590413 0.1592385 0.1594318
 0.1596236 0.1598192 0.1600217 0.1602289 0.1604399 0.1606563 0.1608756 0.1610905 0.1612978 0.1615009
 0.1617049 0.1619132 0.1621281 0.1623495 0.162575 0.1628042 0.163036 0.1632623 0.1634707 0.1636555
 0.1638223 0.1639832 0.1641469 0.1643132 0.16448 0.1646506 0.1648301 0.1650158 0.1652013 0.1653875
 0.1655807 0.1657824 0.1659887 0.1661967 0.1664038 0.1666069 0.166804 0.1669962 0.1671884 0.1673878
 0.1675947 0.1678005 0.1679991 0.1681963 0.1684002 0.1686114 0.168828 0.1690476 0.1692638 0.1694734
 0.1696831 0.1698986 0.1701157 0.1703288 0.1705391 0.1707484 0.1709575 0.1711691 0.1713812 0.171586
 0.1717816 0.1719771 0.1721797 0.1723899 0.1726057 0.1728218 0.1730337 0.1732458 0.1734662 0.1736899
 0.1739064 0.1741151 0.1743223 0.1745302 0.17474 0.1749517 0.1751604 0.1753655 0.1755752 0.1757907
 0.176002 0.1762069 0.176411 0.1766045 0.1767424 0.1767076 0.1762212 0.1747397 0.1714339 0.1653451
 0.1557658 0.1426849 0.1269468 0.1099556 0.09315959 0.07766831 0.06413399 0.05283687 0.04383574 0.03706165
 0.03236888 0.02962466 0.02881173 0.03013855 0.03415617 0.04143065 0.05130764 0.0608184 0.06583543 0.06433208
 0.05832 0.05201372 0.04832768 0.0474727 0.0482169 0.04951116 0.05101812 0.05291356 0.05551098 0.05890018
 0.06293023 0.06760271 0.07325886 0.08014399 0.08789492 0.09569517 0.1029736 0.1098467 0.1168422 0.1242597
 0.1318514 0.1390623 0.1454714 0.1510027 0.1558372 0.160216 0.1643035 0.1681731 0.17186 0.1753626
 0.1785572 0.1811654 0.1828908 0.1836472 0.1836604 0.1833397 0.1830373 0.1829146 0.1829901 0.1832451
 0.1836617 0.1842132 0.1848693 0.1856063 0.1864009 0.1872265 0.1880597 0.1888788 0.1896625 0.1903974
 0.191078 0.1916984 0.1922557 0.1927582 0.1932182 0.1936416 0.1940326 0.1943995 0.1947509 0.1950938
 0.1954333 0.1957643 0.196071 0.1963421 0.1965821 0.1968043 0.1970201 0.1972356 0.1974495 0.1976561
 0.1978552 0.1980552 0.1982617 0.1984729 0.1986865 0.1989011 0.1991127 0.1993185 0.1995203 0.1997214
 0.1999209 0.2001172 0.2003097 0.2004978 0.2006823 0.2008662 0.2010515 0.2012379 0.2014264 0.2016201
 0.2018219 0.2020308 0.2022399 0.2024394 0.2026298 0.2028267 0.2030425 0.2032683 0.2034854 0.2036888
 0.2038863 0.2040836 0.2042823 0.2044836 0.2046838 0.2048726 0.2050462 0.2052163 0.2054022 0.2056135
 0.2058407 0.206062 0.206263 0.2064475 0.206629 0.2068176 0.2070134 0.2072072 0.2073931 0.2075865
 0.2078124 0.208068 0.2083203 0.2085516 0.2087777 0.2090139 0.2092552 0.2094961 0.2097338 0.2099469
 0.2101081 0.2102309 0.2103818 0.2106276 0.2109694 0.2113345 0.211644 0.2118829 0.2120922 0.2123155
 0.2125729 0.212848 0.2130652 0.2131363 0.2130914 0.2131117 0.2133647 0.2138374 0.214375 0.2148417
 0.2152034 0.2154927 0.2157458 0.2159649 0.2161172 0.2161753 0.2161792 0.2162552 0.2165285 0.2169925
 0.217502 0.2179224 0.2182342 0.2184766 0.2186751 0.2188465 0.2189691 0.2189238 0.2186178 0.2182256
 0.2181533 0.2186438 0.2195022 0.220306 0.220827 0.2211477 0.2214237 0.2216879 0.2218983 0.221977
 0.2217163 0.2208973 0.2197255 0.2189536 0.2192597 0.2205608 0.2221417 0.2233691 0.2240894 0.2244669
 0.2247074 0.2249246 0.2250541 0.2248543 0.2241723 0.2233032 0.2229193 0.2234472 0.2245899 0.2256521
 0.2262572 0.2265421 0.2267774 0.2270588 0.2272463 0.2269272 0.2256466 0.2235867 0.2219094 0.2219387
 0.2238658 0.2265173 0.2285162 0.2294615 0.2298197 0.229914 0.2294569 0.2280766 0.2258689 0.2233531
 0.2213332 0.2208116 0.2223209 0.22507 0.2273912 0.2283908 0.2287022 0.2294078 0.2307387 0.2320688
 0.2327405 0.2325801 0.2317874 0.2305683 0.2290358 0.227565 0.2269988 0.2280417 0.2304039 0.2329161
 0.2346149 0.2354715 0.2358738 0.2354898 0.2330431 0.2278496 0.2217293 0.218493 0.2205703 0.2264652
 0.2323622 0.2358734 0.2373385 0.2380322 0.2384692 0.2382586 0.2363089 0.2314097 0.2241149 0.2179535
 0.2170459 0.2220185 0.2292948 0.2344499 0.2352499 0.2318873 0.2261559 0.2208988 0.2188531 0.2209977
 0.2261349 0.2320697 0.2369197 0.2396281 0.239961 0.2384012 0.236096 0.2345751 0.2346486 0.2351974
 0.2340185 0.2306139 0.227032 0.2248471 0.222693 0.2187608 0.2147906 0.214912 0.2202965 0.2272126
 0.2312329 0.23172 0.2309869 0.2300512 0.2268416 0.2191535 0.2088296 0.2017956 0.2028823 0.2108202
 0.2193888 0.2235178 0.2233071 0.222156 0.2222243 0.2222423 0.2193014 0.2126636 0.205648 0.2028239
 0.205122 0.2089917 0.2105751 0.2087577 0.2037465 0.1958419 0.187722 0.18521 0.1923255 0.2063358
 0.2199268 0.2272257 0.2258835 0.2157058 0.1995327 0.1850311 0.1809379 0.1891898 0.2025547 0.2113047
 0.2109072 0.2027354 0.1899194 0.1752932 0.1627924 0.15774 0.1636125 0.1785713 0.1955598 0.2057542
 0.2033803 0.1902535 0.1763023 0.1723942 0.1803559 0.1916936 0.1971359 0.1950717 0.19011 0.1871685
 0.1886762 0.1942285 0.2009977 0.2063673 0.2100001 0.210782 0.2039779 0.1869093 0.1664379 0.154462
 0.1555611 0.1645795 0.1761476 0.1895357 0.2025697 0.2082705 0.2027335 0.1925741 0.1893488 0.1972827
 0.209634 0.2169603 0.2164721 0.2125675 0.209991 0.2087559 0.2065273 0.2041224 0.2056829 0.212997
 0.2223993 0.2288617 0.2312092 0.2316789 0.2321007 0.2325033 0.2324052 0.2316529 0.2303249 0.2288315
 0.2277988 0.2273623 0.2270383 0.2264625 0.2253431 0.2222957 0.2151443 0.2039766 0.1931075 0.1876712
 0.1881699 0.1907963 0.1930775 0.1953115 0.1953041 0.1869085 0.1681558 0.1478976 0.1393726 0.147424
 0.1648912 0.1807484 0.1885496 0.1869873 0.1765741 0.1597943 0.143733 0.1379109 0.1465478 0.1644987
 0.1827258 0.19609 0.2040311 0.2062785 0.2017988 0.1918128 0.1811067 0.1753352 0.1775341 0.186729
 0.1983084 0.2052933 0.2017204 0.1884988 0.1760624 0.17675 0.1919062 0.2097259 0.218529 0.2186205
 0.2177296 0.2189872 0.2192805 0.2175759 0.2183652 0.2254457 0.2363053 0.2445972 0.245712 0.2385965
 0.2252049 0.2110228 0.2036504 0.2066645 0.2154955 0.2223665 0.2238176 0.2202359 0.2112481 0.1977019
 0.1866047 0.1868996 0.1990958 0.2140877 0.223504 0.2273261 0.2301023 0.2331233 0.2328863 0.2264431
 0.2163636 0.2091696 0.208889 0.213515 0.2183782 0.2210729 0.2214776 0.2189411 0.2126945 0.2050378
 0.2013606 0.2054287 0.2154511 0.2257425 0.2317972 0.2330841 0.2316741 0.2295709 0.227392 0.2245495
 0.2205605 0.2167495 0.2160078 0.2197107 0.2255307 0.2298266 0.2318196 0.2338676 0.2377655 0.2422786
 0.2446469 0.2435925 0.2405225 0.2382877 0.2388887 0.2418938 0.2447691 0.2450476 0.2426787 0.2402949
 0.2407852 0.2445417 0.2494072 0.2531312 0.2551979 0.2563651 0.2573556 0.2582274 0.2583351 0.2568199
 0.2538274 0.2512209 0.2512594 0.2543525 0.2586704 0.2620385 0.2636984 0.264178 0.2640865 0.2634771
 0.2622095 0.2605347 0.2591107 0.2584828 0.2586906 0.2593963 0.2602426 0.2610161 0.2616209 0.2620471
 0.2623397 0.2625352 0.262649 0.2627205 0.2627941 0.2628421 0.2627958 0.2626905 0.2626885 0.2628942
 0.2632105 0.26344 0.2634626 0.2632363 0.2626925 0.2617612 0.260495 0.259048 0.257502 0.2558231
 0.2540861 0.2526962 0.2522575 0.2531279 0.2550914 0.2574869 0.2596511 0.2612429 0.2622394 0.2627634
 0.2629721 0.2630198 0.2630138 0.2629739 0.262861 0.2626473 0.262347 0.2619908 0.2616009 0.261201
 0.2608284 0.2605155 0.260255 0.2599947 0.2596737 0.2592652 0.2587857 0.2582705 0.2577397 0.2571798
 0.2565494 0.2558066 0.2549424 0.2539963 0.2530429 0.2521539 0.251354 0.2506085 0.2498588 0.249064
 0.2481928 0.2471994 0.2460629 0.244865 0.2437745 0.2429121 0.2422462 0.2416401 0.240973 0.2401971
 0.2393141 0.2383472 0.2373274 0.2362746 0.2351868 0.2340522 0.2328644 0.2316182 0.230303 0.2289062
 0.2274162 0.2258327 0.2241847 0.2225217 0.2208544 0.2191058 0.2171343 0.2147981 0.2119896 0.2086345
 0.2047049 0.2002559 0.1954413 0.1904767 0.1855752 0.1809049 0.1765894 0.1727246 0.1693902 0.1666556
 0.1645818 0.16321 0.1625509 0.162594 0.1633264 0.164728 0.1667419 0.169251 0.1720861 0.1750608
 0.1780058 0.1807897 0.1833391 0.1856635 0.1878361 0.1899154 0.1918863 0.1936885 0.1952832 0.1966693
 0.197858 0.1988614 0.1996984 0.2003956 0.2009798 0.2014725 0.2018879 0.2022379 0.20254 0.2028124
 0.2030628 0.2032883 0.2034839 0.2036504 0.2038029 0.2039746 0.2042017 0.2045044 0.2048899 0.2053587
 0.205896 0.2064695 0.2070531 0.2076447 0.2082571 0.2089073 0.2096204 0.2104313 0.2113748 0.212472
 0.2137188 0.2150763 0.2164725 0.2178163 0.2190201 0.2200205 0.2207865 0.2213109 0.2216045 0.2216949
 0.221619 0.2214081 0.2210895 0.2206981 0.2202653 0.2197957 0.2192689 0.2186729 0.218022 0.2173403
 0.2166407 0.2159273 0.2152116 0.2145122 0.2138389 0.2131889 0.2125638 0.2119746 0.2114216 0.2108824
 0.2103303 0.2097557 0.2091665 0.2085793 0.2080066 0.2074354 0.206816 0.206091 0.20524 0.2042867
 0.2032581 0.2021533 0.2009568 0.1996697 0.198312 0.1968956 0.1954114 0.1938483 0.1922129 0.1905173
 0.18875 0.186879 0.1848969 0.1828571 0.180855 0.178975 0.1772545 0.1756833 0.1742211 0.1728261
 0.1714817 0.1701948 0.1689713 0.167806 0.1666926 0.1656275 0.1646072 0.1636365 0.1627347 0.1619222
 0.1612042 0.1605717 0.1600124 0.1595218 0.1591067 0.1587752 0.158531 0.1583824 0.1583378 0.1583782
 0.1584476 0.1584855 0.1584607 0.158375 0.158254 0.158131 0.1580251 0.1579349 0.1578538 0.1577641
 0.1576129 0.1573127 0.1567719 0.1559212 0.1547351 0.1532461 0.1515334 0.1497 0.1478669 0.1461633
 0.1446958 0.1435263 0.1426663 0.142064 0.1416138 0.1412246 0.1408858 0.1406617 0.1406308 0.1408068
 0.1410818 0.1412805 0.1413243 0.1413189 0.1414527 0.1418422 0.1424768 0.1432474 0.1440119 0.1446735
 0.1452047 0.1455986 0.1458463 0.1459664 0.1459962 0.1459484 0.1458199 0.1456228 0.1453761 0.145088
 0.1447561 0.1443547 0.1438462 0.1432345 0.1425637 0.1418502 0.1410704 0.1402053 0.1392287 0.1381034
 0.1368856 0.1357906 0.1350829 0.1349205 0.1353005 0.1360802 0.1370651 0.1381257 0.1391684 0.139983
 0.1403236 0.140287 0.1404698 0.1415328 0.1435777 0.1460327 0.1481589 0.1495812 0.150309 0.1504308
 0.1499861 0.1490317 0.1476042 0.1456622 0.1432076 0.1403756 0.137327 0.1341954 0.1311644 0.1284233
 0.1260641 0.124125 0.122637 0.1216511 0.1212813 0.1211329 0.1192957 0.1133356 0.1040472 0.09711847
 0.09833598 0.1070728 0.1167325 0.1217084 0.1218399 0.1201159 0.1186128 0.1176512 0.1171278 0.1171918
 0.1179687 0.1192863 0.1207252 0.1218832 0.1226171 0.1229797 0.1229215 0.1220683 0.1196837 0.1149296
 0.1075404 0.0984022 0.08925405 0.08167826 0.07638561 0.07324076 0.07162744 0.07081161 0.07029527 0.07003818
 0.0703323 0.07143973 0.07337853 0.0760144 0.07919526 0.08267645 0.08602798 0.08883262 0.09099285 0.09269932
 0.09409668 0.09511581 0.09563094 0.09564181 0.09526667 0.09464884 0.09390801 0.09311394 0.09224287 0.09119873
 0.08997219 0.08877644 0.08791779 0.08750472 0.08737803 0.08733456 0.08730739 0.08731809 0.08736703 0.08740944
 0.08739725 0.08735274 0.08740013 0.08765952 0.08809934 0.08855081 0.08886471 0.08901665 0.0890762 0.08907491
 0.0888917 0.08836102 0.08756387 0.08684418 0.08636894 0.08583897 0.08487962 0.083617 0.08261579 0.08227336
 0.08246855 0.08279057 0.08292761 0.08281214 0.08258367 0.08251822 0.08284389 0.08346032 0.08392386 0.08386272
</values></Ydata></ScRf><Data_Parameters_AB><parameter name="DPF">1</parameter><parameter name="NPT">3497</parameter><parameter name="FXV">3996</parameter><parameter name="LXV">500</parameter><parameter name="CSF">1</parameter><parameter name="MXY">0.0447489209473133</parameter><parameter name="MNY">-0.047316525131464</parameter><parameter name="DAT">27/05/2022</parameter><parameter name="TIM">11:27:31.632 (GMT+2)</parameter><parameter name="DXU">WN</parameter></Data_Parameters_AB><AB__Qtest><MainReport name="Quality Test Report"><Header><Line><Legend>Test result ok/not ok [1/0]: </Legend><Value>0</Value></Line><Line><Legend>Method file: </Legend><Value>C:\Users\Public\Documents\Bruker\OPUS_8.2.28\QT\IRBT_v3_default.QT</Value></Line></Header><Matrix><Line><Legend></Legend><Legend>min</Legend><Legend>max</Legend><Legend>measured</Legend></Line><Line><Value>Absorption (X-Range 1):</Value><Value>0.400000</Value><Value>2.000000</Value><Value>0.075008</Value></Line><Line><Value>Noise (X-Range 4):</Value><Value></Value><Value>0.000300</Value><Value>0.000044</Value></Line><Line><Value>Signal/Noise (X-Range 2):</Value><Value>200.000000</Value><Value></Value><Value>44.800215</Value></Line><Line><Value>Signal/Noise (X-Range 3):</Value><Value>40.000000</Value><Value></Value><Value>19.727632</Value></Line><Line><Value>Water vapour (X-Range 5):</Value><Value></Value><Value>0.000300</Value><Value>0.000035</Value></Line><Line><Value>Signal/Water (X-Range 2):</Value><Value>100.000000</Value><Value></Value><Value>57.082340</Value></Line><Line><Value>Signal/Water (X-Range 3):</Value><Value>20.000000</Value><Value></Value><Value>25.136027</Value></Line><Line><Value>Fringes (X-Range 6):</Value><Value></Value><Value>0.000100</Value><Value>0.000055</Value></Line></Matrix></MainReport></AB__Qtest><Data_Parameters_ScSm><parameter name="DPF">1</parameter><parameter name="NPT">1814</parameter><parameter name="FXV">3996.33169228125</parameter><parameter name="LXV">499.541461535156</parameter><parameter name="CSF">1</parameter><parameter name="MXY">0.267861068248749</parameter><parameter name="MNY">0.031127642840147</parameter><parameter name="DAT">27/05/2022</parameter><parameter name="TIM">11:27:31.632 (GMT+2)</parameter><parameter name="DXU">WN</parameter></Data_Parameters_ScSm><Data_Parameters_ScRf><parameter name="DPF">1</parameter><parameter name="NPT">1820</parameter><parameter name="FXV">4004.04661832813</parameter><parameter name="LXV">495.683998511719</parameter><parameter name="CSF">1</parameter><parameter name="MXY">0.264178037643433</parameter><parameter name="MNY">0.0288117323070765</parameter><parameter name="DAT">27/05/2022</parameter><parameter name="TIM">11:27:06.282 (GMT+2)</parameter><parameter name="DXU">WN</parameter></Data_Parameters_ScRf><Optic_Parameters_Rf><parameter name="APR">0</parameter><parameter name="APT">Open</parameter><parameter name="BMS">KBr</parameter><parameter name="DTC">RT-DLaTGS_IR-Biotyper [Microplate reader]</parameter><parameter name="HPF">0</parameter><parameter name="LPF">10.0</parameter><parameter name="LPV">4000</parameter><parameter name="PGR">0</parameter><parameter name="RCH">Module port</parameter><parameter name="RDX">0</parameter><parameter name="SRC">MIR</parameter><parameter name="VEL">10.0</parameter><parameter name="SON">Off</parameter></Optic_Parameters_Rf><Acquisition_Parameters_Rf><parameter name="ADT">1</parameter><parameter name="AQM">DD</parameter><parameter name="CFE">0</parameter><parameter name="COR">0</parameter><parameter name="DEL">0</parameter><parameter name="DLY">0</parameter><parameter name="HFW">8000</parameter><parameter name="LFW">0</parameter><parameter name="NSR">32</parameter><parameter name="PLF">AB</parameter><parameter name="RES">6</parameter><parameter name="RGN">-1</parameter><parameter name="STR">0</parameter><parameter name="TCL">MakeCompatibleScalar (0, {WSV=1.000000, ARV=0});</parameter><parameter name="TDL">37</parameter><parameter name="RPO">0</parameter></Acquisition_Parameters_Rf><FT_-_Parameters_Rf><parameter name="APF">B3</parameter><parameter name="HFQ">500</parameter><parameter name="LFQ">4000</parameter><parameter name="NLI">0</parameter><parameter name="PHR">24</parameter><parameter name="PHZ">ML</parameter><parameter name="SPZ">NO</parameter><parameter name="ZFF">1</parameter></FT_-_Parameters_Rf><Optic_Parameters_><parameter name="APR">0</parameter><parameter name="APT">Open</parameter><parameter name="BMS">KBr</parameter><parameter name="CHN">Module port</parameter><parameter name="DTC">RT-DLaTGS_IR-Biotyper [Microplate reader]</parameter><parameter name="HPF">0</parameter><parameter name="LPF">10.0</parameter><parameter name="LPV">4000</parameter><parameter name="PGN">0</parameter><parameter name="RDX">0</parameter><parameter name="SRC">MIR</parameter><parameter name="VEL">10.0</parameter><parameter name="SON">Off</parameter></Optic_Parameters_><FT_-_Parameters_><parameter name="APF">B3</parameter><parameter name="HFQ">500</parameter><parameter name="LFQ">4000</parameter><parameter name="NLI">0</parameter><parameter name="PHR">24</parameter><parameter name="PHZ">ML</parameter><parameter name="SPZ">NO</parameter><parameter name="ZFF">1</parameter></FT_-_Parameters_><Acquisition_Parameters_><parameter name="ADT">1</parameter><parameter name="AQM">DD</parameter><parameter name="CFE">0</parameter><parameter name="COR">0</parameter><parameter name="DEL">0</parameter><parameter name="DLY">0</parameter><parameter name="HFW">8000</parameter><parameter name="LFW">0</parameter><parameter name="NSS">32</parameter><parameter name="PLF">AB</parameter><parameter name="RES">6</parameter><parameter name="SOT">0</parameter><parameter name="TCL">MakeCompatibleScalar (0, {WSV=1.000000, ARV=0});</parameter><parameter name="TDL">37</parameter><parameter name="SPO">0</parameter><parameter name="SGN">-1</parameter></Acquisition_Parameters_><Instrument_Parameters_Rf><parameter name="HFL">15800.168544</parameter><parameter name="LFL">0</parameter><parameter name="LWN">15800.168544</parameter><parameter name="ABP">32197</parameter><parameter name="SSP">1</parameter><parameter name="ARG">2</parameter><parameter name="ASG">2</parameter><parameter name="ASS">32</parameter><parameter name="GFW">16</parameter><parameter name="GBW">16</parameter><parameter name="BFW">0</parameter><parameter name="BBW">0</parameter><parameter name="PKA">7269</parameter><parameter name="PKL">4996</parameter><parameter name="PRA">7447</parameter><parameter name="PRL">5001</parameter><parameter name="P2A">1</parameter><parameter name="P2L">1</parameter><parameter name="P2R">1</parameter><parameter name="P2K">1</parameter><parameter name="DAQ">0</parameter><parameter name="AG2">1</parameter><parameter name="SSM">1</parameter><parameter name="RSN">24846</parameter><parameter name="CRR">0</parameter><parameter name="SRT">1653650826.282</parameter><parameter name="DUR">19.6349945068359</parameter><parameter name="TSC">27.2</parameter><parameter name="MVD">0.286160051822662</parameter><parameter name="AN1">0.225800150162257</parameter><parameter name="AN2">0</parameter><parameter name="VSN">2.485 Apr  4 2017</parameter><parameter name="SRN">0085</parameter><parameter name="CAM">0</parameter><parameter name="INS">IR-Biotyper</parameter><parameter name="FOC">69</parameter><parameter name="RDY">1</parameter><parameter name="ARS">32</parameter></Instrument_Parameters_Rf><Sample_Parameters_><parameter name="BLD"></parameter><parameter name="CNM">Admin</parameter><parameter name="CPY"></parameter><parameter name="DPM"></parameter><parameter name="EXP">IRBT_v3_32Scans.XPM</parameter><parameter name="LCT"></parameter><parameter name="SFM">Microplate, HTS-XT</parameter><parameter name="SNM">220527-1039(v.2)_MPP28F (D_4)_G3_75d6eae8-74c8-4fc8-a492-49db3e0f311e.0</parameter><parameter name="XPP">C:\Users\Public\Documents\Bruker\OPUS_8.2.28\XPM</parameter><parameter name="IST">OK</parameter><parameter name="CPG">1252</parameter><parameter name="UID">b24ad73f-a60f-49a4-84b8-7e3cd4b417f3</parameter></Sample_Parameters_><Instrument_Parameters_><parameter name="HFL">15800.168544</parameter><parameter name="LFL">0</parameter><parameter name="LWN">15800.168544</parameter><parameter name="ABP">32197</parameter><parameter name="SSP">1</parameter><parameter name="ASG">2</parameter><parameter name="ARG">2</parameter><parameter name="ASS">32</parameter><parameter name="GFW">16</parameter><parameter name="GBW">16</parameter><parameter name="BFW">0</parameter><parameter name="BBW">0</parameter><parameter name="PKA">7453</parameter><parameter name="PKL">4988</parameter><parameter name="PRA">7712</parameter><parameter name="PRL">5002</parameter><parameter name="P2A">1</parameter><parameter name="P2L">1</parameter><parameter name="P2R">1</parameter><parameter name="P2K">1</parameter><parameter name="DAQ">0</parameter><parameter name="AG2">1</parameter><parameter name="SSM">1</parameter><parameter name="RSN">13049</parameter><parameter name="CRR">0</parameter><parameter name="SRT">1653650851.633</parameter><parameter name="DUR">19.635986328125</parameter><parameter name="TSC">27.2</parameter><parameter name="MVD">0.607175707817078</parameter><parameter name="AN1">0.22578000505577</parameter><parameter name="AN2">0</parameter><parameter name="VSN">2.485 Apr  4 2017</parameter><parameter name="SRN">0085</parameter><parameter name="CAM">0</parameter><parameter name="INS">IR-Biotyper</parameter><parameter name="FOC">69</parameter><parameter name="RDY">1</parameter></Instrument_Parameters_><History/></OPUSDataFile>
