<?xml version="1.0" encoding="UTF-8" ?>
<OPUSDataFile><AB><Ydata ylabel="Absorbance Units"><values byteorder="INTEL" format="FLOAT32" numvalues="3497"> -0.06983666 -0.06985695 -0.06988124 -0.06991076 -0.06992701 -0.06992907 -0.0699062 -0.06985974 -0.06980339 -0.06974027
 -0.06969692 -0.0696721 -0.06967772 -0.06970581 -0.06974389 -0.06978524 -0.06981137 -0.06982534 -0.06982142 -0.06981046
 -0.06979865 -0.06979515 -0.06980751 -0.06983642 -0.06988592 -0.06994507 -0.07001357 -0.0700736 -0.07012188 -0.07015002
 -0.07015583 -0.07015115 -0.07013655 -0.07012981 -0.07013079 -0.07014177 -0.07016148 -0.07018232 -0.07020596 -0.07023439
 -0.07026956 -0.07031956 -0.07037922 -0.07044549 -0.07050873 -0.07055522 -0.07058404 -0.07058701 -0.07057603 -0.07055499
 -0.07053435 -0.07052083 -0.07051074 -0.07050517 -0.07049505 -0.07047773 -0.07045757 -0.07043379 -0.07042514 -0.07043266
 -0.07046761 -0.07052868 -0.07060137 -0.07068233 -0.07074267 -0.07078359 -0.07079248 -0.07077622 -0.07074483 -0.07070387
 -0.07066748 -0.07063674 -0.07061902 -0.07061142 -0.07061563 -0.07062329 -0.07063182 -0.07062945 -0.07061007 -0.07057157
 -0.070509 -0.07044131 -0.07036862 -0.07032284 -0.07030693 -0.07034613 -0.0704421 -0.07059779 -0.07081098 -0.0710541
 -0.07132051 -0.07155626 -0.07175624 -0.07186849 -0.07190289 -0.07185244 -0.0717402 -0.07160147 -0.07145216 -0.07132646
 -0.07122483 -0.0711617 -0.07112297 -0.07110678 -0.07109373 -0.07107348 -0.07104582 -0.07100439 -0.07097727 -0.07096784
 -0.07100013 -0.07107935 -0.07118625 -0.07132019 -0.0714302 -0.07151569 -0.07155638 -0.07155931 -0.0715589 -0.07156054
 -0.07160705 -0.07168832 -0.07180539 -0.07193665 -0.07204279 -0.07211895 -0.07213738 -0.0721204 -0.07207942 -0.07202441
 -0.07196865 -0.0718981 -0.07180524 -0.07170116 -0.07157911 -0.07149517 -0.07145634 -0.0715147 -0.07168069 -0.07193289
 -0.07227175 -0.07253399 -0.07271212 -0.07264857 -0.07237096 -0.07198135 -0.0715069 -0.07111035 -0.07078137 -0.07057554
 -0.07047335 -0.07047106 -0.07054085 -0.07065433 -0.0707744 -0.07085879 -0.07089505 -0.07085303 -0.0707768 -0.0706734
 -0.07059196 -0.0705536 -0.07054821 -0.07058045 -0.07061117 -0.07063553 -0.07064323 -0.07063313 -0.07062521 -0.07062011
 -0.07063142 -0.07065684 -0.07068839 -0.07072287 -0.07074422 -0.07075044 -0.07072842 -0.0706778 -0.07058927 -0.07047115
 -0.07032571 -0.07017232 -0.07002585 -0.06990542 -0.06982629 -0.0697972 -0.06982759 -0.06990889 -0.07004531 -0.07020339
 -0.07038157 -0.07052935 -0.07064166 -0.07067867 -0.0706374 -0.07051423 -0.07031144 -0.0700653 -0.06978011 -0.0695026
 -0.06923305 -0.06899775 -0.0687936 -0.06862579 -0.06849211 -0.06839196 -0.06832153 -0.06827952 -0.06825228 -0.06823093
 -0.06819628 -0.0681321 -0.06803776 -0.06790353 -0.06775817 -0.06760529 -0.0674785 -0.06738597 -0.06733528 -0.06732967
 -0.06735135 -0.06739951 -0.06745125 -0.06750569 -0.06754635 -0.0675738 -0.06758342 -0.06757714 -0.06755989 -0.06753327
 -0.06750343 -0.06747197 -0.06744399 -0.06742161 -0.06740902 -0.06740861 -0.06742205 -0.06745632 -0.06751513 -0.06760612
 -0.06773848 -0.0678933 -0.06807485 -0.06822582 -0.06833574 -0.06837197 -0.06832573 -0.06823354 -0.06809753 -0.06792714
 -0.06772045 -0.06743435 -0.06707554 -0.06666633 -0.06622433 -0.06583645 -0.06550302 -0.06527515 -0.06512959 -0.06505304
 -0.06501252 -0.06495726 -0.06488042 -0.0647513 -0.06459782 -0.06442913 -0.06426354 -0.0641164 -0.06397182 -0.06383226
 -0.0636619 -0.06345239 -0.06319516 -0.06288452 -0.06256501 -0.06223877 -0.06195892 -0.06172654 -0.06156116 -0.06145892
 -0.06140734 -0.06139421 -0.06136795 -0.06131109 -0.06114175 -0.06087491 -0.06048939 -0.06003269 -0.0595646 -0.05909306
 -0.05865462 -0.05821502 -0.05776143 -0.05727567 -0.05673902 -0.05617912 -0.05559713 -0.0550316 -0.05449232 -0.0539862
 -0.05351865 -0.05305044 -0.05258044 -0.05202531 -0.05138249 -0.05059738 -0.04968495 -0.04872786 -0.04774279 -0.04685213
 -0.0460382 -0.0453172 -0.04466402 -0.04404142 -0.04343007 -0.04279976 -0.04211253 -0.04132877 -0.04041286 -0.03931725
 -0.03808136 -0.03670326 -0.03524991 -0.03374935 -0.03219116 -0.03057612 -0.02889899 -0.02715379 -0.02540409 -0.0236539
 -0.02194279 -0.02027039 -0.01862129 -0.01699418 -0.01537337 -0.01375937 -0.01214749 -0.01053599 -0.00891642 -0.007290487
 -0.005663957 -0.004020703 -0.002365271 -0.0006149355 0.001299511 0.003444224 0.005934665 0.008594564 0.01140192 0.01410982
 0.01660837 0.01893602 0.02106848 0.02316657 0.02524999 0.02738895 0.02959126 0.03182696 0.03409309 0.03632393
 0.03852231 0.04066593 0.0427848 0.04498623 0.04731131 0.04996442 0.05287482 0.05604505 0.05929556 0.06235322
 0.06521963 0.06775837 0.07015137 0.07247441 0.07485779 0.07739895 0.08006167 0.08287048 0.08569326 0.08850199
 0.09125114 0.09392308 0.09660008 0.09928576 0.1020807 0.104985 0.1079783 0.1110441 0.1140367 0.1169569
 0.1197204 0.1223635 0.1249447 0.1274906 0.1300841 0.1327207 0.1354293 0.1381962 0.141025 0.1438832
 0.1467588 0.1496017 0.1523735 0.1551036 0.1577724 0.1605184 0.1633704 0.1663918 0.1696101 0.172871
 0.1761669 0.1793299 0.1823583 0.1852691 0.1880739 0.1908725 0.1936654 0.1965114 0.1993937 0.2022999
 0.2052061 0.2080508 0.2108479 0.2135674 0.2162965 0.2191009 0.222057 0.2252698 0.2286395 0.2321764
 0.235671 0.2390448 0.2422591 0.2452774 0.2482105 0.2510686 0.253924 0.2567837 0.2596647 0.2625679
 0.2655023 0.2684662 0.2714519 0.2744559 0.2774566 0.2804576 0.2834574 0.2864617 0.2894838 0.2925196
 0.295571 0.2986289 0.301686 0.3047351 0.307768 0.3107867 0.3137854 0.3167859 0.3197939 0.3228245
 0.3258865 0.3289552 0.3320292 0.3350822 0.3381114 0.3411291 0.3441352 0.3471294 0.3501083 0.3530383
 0.3559262 0.3587834 0.3616229 0.3644985 0.3673911 0.3702933 0.3731735 0.3759713 0.3787096 0.3813764
 0.3840346 0.3867266 0.3894753 0.3923131 0.3951966 0.3981273 0.4010297 0.4038896 0.4066526 0.4093044
 0.4118718 0.4143535 0.4168405 0.4193356 0.4218771 0.4244586 0.4270364 0.4296111 0.4321605 0.4346927
 0.4372267 0.4397508 0.4422501 0.4447156 0.4471168 0.4494859 0.4518438 0.4542135 0.4566302 0.4590534
 0.4614753 0.4638548 0.4661689 0.4684371 0.4706572 0.4728656 0.4750683 0.4772745 0.4794865 0.481681
 0.4838554 0.4859408 0.4879359 0.4897887 0.4915226 0.4932133 0.4948941 0.4967158 0.4986623 0.5007879
 0.5030268 0.5053089 0.5075869 0.5097823 0.5118985 0.5139086 0.5158466 0.5177167 0.5195646 0.5214074
 0.5232628 0.5251446 0.5270093 0.528854 0.5306346 0.5323455 0.5340076 0.5356224 0.5372288 0.5388252
 0.5404121 0.5419872 0.5435402 0.5450705 0.5465727 0.5480418 0.5494602 0.5508379 0.5521744 0.5534994
 0.5548468 0.5562197 0.5576387 0.5590703 0.5605009 0.5619187 0.563314 0.564699 0.5660792 0.5674353
 0.5687667 0.5700462 0.5712704 0.5724552 0.5736012 0.574727 0.5758303 0.5768957 0.5779252 0.5789187
 0.5798854 0.5808567 0.5818325 0.5828295 0.5838411 0.5848641 0.5858949 0.5869343 0.587963 0.5889732
 0.5899335 0.5908225 0.5916429 0.5923856 0.593087 0.5937541 0.5944062 0.5950479 0.5956784 0.5962982
 0.5969063 0.5975024 0.5980669 0.5985973 0.5990594 0.5994582 0.5997969 0.60009 0.6003852 0.6006898
 0.6010454 0.6014435 0.6018929 0.6023741 0.602872 0.6033679 0.6038379 0.604294 0.6047277 0.6051849
 0.6056833 0.6062319 0.6068482 0.607452 0.6080382 0.6085105 0.608858 0.6090707 0.6091495 0.6091684
 0.6091326 0.6091233 0.6091367 0.6091996 0.6092997 0.6094088 0.6095259 0.6096277 0.6097381 0.6098855
 0.6100786 0.6103541 0.6106583 0.6109728 0.6112306 0.6113808 0.6114425 0.6113959 0.611342 0.6112978
 0.6113449 0.6115028 0.6117657 0.6121387 0.6125298 0.6129333 0.613222 0.6133956 0.6133913 0.6132311
 0.6129856 0.6126871 0.6124784 0.6123666 0.6124457 0.6126817 0.6130744 0.6135637 0.6140914 0.6146063
 0.6150463 0.615416 0.6156902 0.6159329 0.6161593 0.6164208 0.616737 0.6171001 0.6175108 0.6179612
 0.6184483 0.6190177 0.6196716 0.6204532 0.6213558 0.622335 0.6233701 0.6243336 0.62521 0.625875
 0.6263487 0.626598 0.6266894 0.6267003 0.6266997 0.6268008 0.6269984 0.6273452 0.6277438 0.6281713
 0.6285096 0.6287118 0.6287195 0.6285025 0.6280929 0.627483 0.6267775 0.6259828 0.6252055 0.62445
 0.6237441 0.6230818 0.6224089 0.6217204 0.6209577 0.6201314 0.6192421 0.6183084 0.6173776 0.6164431
 0.6155313 0.6145832 0.6135563 0.6123756 0.6109594 0.6093163 0.6074031 0.6053489 0.6031778 0.6010337
 0.5989611 0.5969974 0.5951614 0.593399 0.5917085 0.5900281 0.5883547 0.5866472 0.5849057 0.5831112
 0.5812728 0.5794236 0.57758 0.5758185 0.5741358 0.5725738 0.5710908 0.5696461 0.5681938 0.5666595
 0.5650493 0.5633271 0.5615692 0.5597948 0.5580995 0.5565264 0.5551035 0.5538607 0.5527092 0.5516505
 0.5505246 0.5493175 0.5479163 0.5463158 0.5445384 0.5425959 0.5406248 0.5386377 0.5367776 0.5350371
 0.5334746 0.5320616 0.5307676 0.5295594 0.5283734 0.5271893 0.5259592 0.5246825 0.5233403 0.5219507
 0.5205147 0.5190593 0.517594 0.5161372 0.5146977 0.5132673 0.5118488 0.510409 0.5089453 0.5074275
 0.505854 0.5042293 0.5025569 0.5008768 0.4991928 0.4975473 0.4959365 0.4943723 0.4928436 0.4913319
 0.4898271 0.488305 0.4867629 0.4851885 0.483583 0.4819435 0.480271 0.4785644 0.4768276 0.4750604
 0.473272 0.4714637 0.4696467 0.4678225 0.4660002 0.4641809 0.4623686 0.4605636 0.458761 0.4569608
 0.4551571 0.4533526 0.4515581 0.4497795 0.4480447 0.4463527 0.4447192 0.4431276 0.4415613 0.4399987
 0.4384064 0.4367811 0.4351014 0.4333987 0.4316753 0.4299898 0.4283633 0.4268357 0.4254312 0.4241074
 0.4228718 0.4215985 0.4202778 0.4188007 0.4171616 0.4153741 0.413448 0.411507 0.4095614 0.4077376
 0.4060273 0.4044769 0.4030557 0.4017232 0.400438 0.399115 0.3977327 0.3962222 0.3946175 0.3929096
 0.3911766 0.3894585 0.3878016 0.3862413 0.3847501 0.3833286 0.3819414 0.3805758 0.3792689 0.3780203
 0.3769054 0.3759282 0.3750901 0.374382 0.3736913 0.3730035 0.3721719 0.3712012 0.370019 0.3686626
 0.3671737 0.3656043 0.3640599 0.3625618 0.3611868 0.3598978 0.3586961 0.3575284 0.3563572 0.3551859
 0.3539993 0.3528468 0.3517435 0.3506934 0.3497066 0.3487172 0.3477189 0.3466716 0.3455727 0.3444752
 0.3433833 0.3423747 0.3414433 0.3405953 0.3398146 0.3390444 0.338279 0.3374732 0.3366376 0.3357699
 0.3348798 0.3339831 0.3330673 0.3321355 0.3311513 0.3300974 0.3289444 0.3276684 0.3262963 0.3248177
 0.3233301 0.3218434 0.3204631 0.3192043 0.3180822 0.3170987 0.3161487 0.315224 0.3141852 0.3130365
 0.311725 0.3102773 0.308758 0.3071954 0.3056927 0.3042519 0.3029282 0.3016955 0.3005489 0.2994523
 0.2983772 0.2972961 0.2961831 0.2950372 0.2938458 0.2926429 0.2914326 0.290254 0.2891191 0.2880125
 0.2869379 0.2858209 0.2846575 0.283403 0.2820622 0.2806932 0.2793067 0.278005 0.2767774 0.2756469
 0.2745797 0.2735009 0.2723994 0.2712093 0.2699719 0.2687039 0.2674599 0.2662953 0.2652214 0.2642646
 0.2634011 0.2626248 0.2619292 0.2613076 0.2607805 0.2603517 0.2600262 0.2598084 0.2596516 0.2595537
 0.259422 0.2592514 0.2589471 0.2585123 0.2579125 0.2571689 0.2563356 0.2554419 0.2545866 0.2537827
 0.2531007 0.2525274 0.2520769 0.2517255 0.251457 0.251259 0.2511171 0.2510379 0.2510195 0.2510753
 0.2512095 0.251424 0.2517197 0.2520938 0.2525435 0.2530979 0.253758 0.2546 0.2556271 0.2569083
 0.2584349 0.2601944 0.262162 0.2642415 0.2664096 0.2685586 0.2706851 0.2727319 0.2747134 0.2766236
 0.2784798 0.2802944 0.2820779 0.2838406 0.285584 0.2873144 0.2890162 0.2906939 0.292296 0.2938221
 0.2951804 0.2963643 0.2972745 0.2979045 0.2982029 0.2981716 0.2978353 0.2972043 0.2963546 0.2952992
 0.2941216 0.2928418 0.2915411 0.2902566 0.2890822 0.2880589 0.2872775 0.2867429 0.2865003 0.286504
 0.2867454 0.2871679 0.2877467 0.2884513 0.2892714 0.2901822 0.2911827 0.2922228 0.2932996 0.2943494
 0.2953686 0.2962961 0.2971279 0.2977915 0.2982819 0.2985242 0.2985235 0.2982539 0.297736 0.2970099
 0.2960907 0.295031 0.2938137 0.2924494 0.2908877 0.2890991 0.2870164 0.284596 0.2817865 0.2785462
 0.2748997 0.2708216 0.266467 0.2618396 0.2571963 0.2525606 0.2481669 0.2440321 0.2402491 0.2368148
 0.2336775 0.2308276 0.2281731 0.2257142 0.223405 0.2212464 0.2192253 0.2173243 0.2155108 0.2137602
 0.2120229 0.2103054 0.2085848 0.2069111 0.2053019 0.2038124 0.2024721 0.2012979 0.2003044 0.1994717
 0.198799 0.1982652 0.1978666 0.1976083 0.1974901 0.1975245 0.1977086 0.1979981 0.1983749 0.1986971
 0.1989399 0.1989227 0.1986487 0.1980193 0.1970886 0.1958944 0.1945202 0.1930797 0.1916433 0.1903107
 0.1891122 0.1880986 0.1872542 0.1865916 0.1860596 0.1856509 0.1853069 0.1850174 0.1847375 0.1844643
 0.1841376 0.1837552 0.1831778 0.1823936 0.1811861 0.1795493 0.1773192 0.1745343 0.1712374 0.1675201
 0.1636333 0.1596655 0.1559024 0.1523551 0.1491705 0.146273 0.1436534 0.1412218 0.1389155 0.1367028
 0.1345495 0.1324767 0.1304835 0.1285922 0.1268087 0.1251329 0.1235666 0.1220954 0.1207189 0.1194157
 0.1181844 0.117 0.1158615 0.1147481 0.1136608 0.11259 0.1115398 0.1105144 0.1095212 0.1085767
 0.107683 0.1068547 0.1060741 0.1053364 0.1046077 0.1038651 0.1030909 0.1022647 0.1014123 0.1005309
 0.09967435 0.09885246 0.09809891 0.09742209 0.09680183 0.09623823 0.09567536 0.09511136 0.09451236 0.09388293
 0.09324142 0.09259254 0.09197008 0.09136514 0.09077369 0.0901794 0.08954631 0.08887474 0.08814369 0.08737849
 0.08659042 0.08581249 0.08506761 0.08437714 0.08375771 0.08320899 0.08273954 0.0823172 0.08194199 0.08155688
 0.08115526 0.08069704 0.08017807 0.07961256 0.07900272 0.07839696 0.0777963 0.07723182 0.07669938 0.07619723
 0.0757228 0.0752674 0.07483251 0.07441846 0.07402302 0.07364544 0.07327799 0.07291165 0.07254752 0.07217978
 0.07182524 0.07149052 0.07118431 0.07091668 0.07065891 0.07041141 0.07012154 0.06978193 0.06936906 0.06887946
 0.06834818 0.06777813 0.06723066 0.06670614 0.06623759 0.06581768 0.0654334 0.06507639 0.06471508 0.06435023
 0.06396548 0.06357258 0.06317948 0.06279809 0.06244551 0.06211704 0.0618203 0.06152865 0.061235 0.06090964
 0.06054029 0.06012084 0.05964479 0.05913502 0.05859222 0.05804802 0.05750481 0.05698099 0.05647695 0.05599489
 0.0555339 0.0550885 0.0546576 0.05423404 0.05381669 0.0533984 0.05297953 0.05255619 0.05213232 0.05171088
 0.05129709 0.05089768 0.05051292 0.05014644 0.04979188 0.04944793 0.04910723 0.04876716 0.04842439 0.04807769
 0.04772681 0.04737158 0.0470119 0.04664766 0.04628081 0.04591174 0.0455492 0.04519467 0.04486423 0.04455854
 0.04429134 0.04405761 0.04385332 0.0436665 0.04347302 0.04326224 0.04300766 0.04271079 0.04236067 0.04197153
 0.04154745 0.04110616 0.04065584 0.04020977 0.0397737 0.03935381 0.0389532 0.0385681 0.03819921 0.03783442
 0.03747291 0.03710544 0.03673192 0.0363555 0.0359772 0.0356072 0.03524535 0.03489684 0.03455977 0.0342312
 0.03390992 0.03359167 0.03327748 0.032967 0.03266149 0.03236267 0.03206905 0.03178055 0.03149458 0.0312094
 0.03092571 0.03064281 0.03036455 0.03009223 0.02982441 0.02956185 0.02929473 0.0290224 0.02873616 0.02843597
 0.02812619 0.02780842 0.02749838 0.02719668 0.02691561 0.02665197 0.02640403 0.02616584 0.02592463 0.02567713
 0.02541181 0.02513298 0.02483907 0.02453961 0.02424071 0.02394769 0.02366598 0.02339133 0.02312412 0.02285722
 0.02258858 0.02231776 0.02204398 0.02177268 0.02150434 0.02124074 0.02098178 0.02072128 0.02045885 0.02018771
 0.01990903 0.01962394 0.01933548 0.0190533 0.0187793 0.01852328 0.01828194 0.01805671 0.01783851 0.01761959
 0.01739189 0.01714572 0.01688427 0.01660412 0.01631979 0.01603474 0.01576097 0.01550289 0.01525815 0.01502774
 0.01480083 0.01457656 0.01435039 0.01412226 0.01389543 0.01366984 0.01344648 0.01322434 0.0129986 0.01276952
 0.01253431 0.01229622 0.01206034 0.01182977 0.01161206 0.0114057 0.01121326 0.01102838 0.01084796 0.01066607
 0.01047853 0.01028499 0.01008393 0.009879039 0.009671076 0.009461328 0.009250458 0.009034896 0.008814356 0.008587022
 0.00835305 0.008120142 0.00788927 0.007673215 0.007471301 0.007288037 0.007120013 0.00695942 0.006803305 0.006641216
 0.006473728 0.006296849 0.006113166 0.00592373 0.005730903 0.005536371 0.005342354 0.005150327 0.004961351 0.004776561
 0.004593811 0.004412916 0.004231514 0.004048875 0.003867286 0.003686724 0.003512519 0.003344878 0.003186247 0.003036228
 0.002892317 0.002753566 0.002614267 0.002473425 0.002324437 0.00216828 0.002002619 0.001831859 0.001661378 0.001494386
 0.001338122 0.001187353 0.00104236 0.000892524 0.0007319316 0.0005576301 0.0003655078 0.0001646061 -4.45252E-05 -0.0002504393
 -0.0004513417 -0.0006414959 -0.0008201596 -0.0009867264 -0.001141243 -0.00128742 -0.001425928 -0.001564759 -0.001704297 -0.001851382
 -0.002004391 -0.002162223 -0.002322402 -0.002478482 -0.002630897 -0.002776603 -0.002919354 -0.003061863 -0.003206947 -0.003358298
 -0.003514125 -0.003675139 -0.003836845 -0.003997575 -0.00415593 -0.004310538 -0.004465928 -0.00462226 -0.004785941 -0.004957748
 -0.005137402 -0.005324737 -0.005510508 -0.005694062 -0.00586486 -0.006023725 -0.006168555 -0.006302054 -0.006431522 -0.006559107
 -0.006693531 -0.006833866 -0.006983437 -0.007137949 -0.00729478 -0.007448845 -0.007595193 -0.007732865 -0.007858889 -0.007978692
 -0.008092946 -0.008208374 -0.008327438 -0.008448945 -0.008573796 -0.008693229 -0.008806471 -0.008909176 -0.009001295 -0.009090554
 -0.009177746 -0.009274513 -0.009379989 -0.009496542 -0.009621213 -0.009745847 -0.009868266 -0.009979238 -0.01007966 -0.01016629
 -0.01024237 -0.01030949 -0.01037185 -0.0104326 -0.0104955 -0.01056342 -0.01063733 -0.01071904 -0.01080437 -0.01089312
 -0.01097935 -0.01106178 -0.01113991 -0.01121323 -0.01128895 -0.01136742 -0.01145445 -0.01154946 -0.01164843 -0.01175004
 -0.0118447 -0.01193298 -0.012011 -0.01208165 -0.01214953 -0.01221623 -0.01228688 -0.0123597 -0.01243488 -0.01250998
 -0.01258278 -0.0126534 -0.01272112 -0.01278737 -0.01285307 -0.01291648 -0.01297797 -0.0130324 -0.01307892 -0.01311527
 -0.0131408 -0.01316159 -0.013178 -0.01320169 -0.0132331 -0.01328111 -0.01334547 -0.0134291 -0.0135322 -0.01365627
 -0.01380354 -0.01397902 -0.01418603 -0.01443152 -0.01471822 -0.0150512 -0.01543295 -0.01586574 -0.01635452 -0.01690069
 -0.01751385 -0.0181971 -0.01895882 -0.01980286 -0.02072587 -0.02173025 -0.02279246 -0.02391215 -0.02504773 -0.02619672
 -0.02730071 -0.02835306 -0.02926555 -0.0300253 -0.03051574 -0.03073069 -0.03057987 -0.03008368 -0.02922381 -0.02807116
 -0.02670547 -0.02524089 -0.02382837 -0.0225423 -0.02149087 -0.02068147 -0.0201473 -0.01986867 -0.01985118 -0.02005226
 -0.02047777 -0.0210118 -0.0216493 -0.02220872 -0.02267082 -0.02295382 -0.02305375 -0.0230426 -0.02292538 -0.02278335
 -0.02261297 -0.02243575 -0.0222457 -0.02203212 -0.02179657 -0.02153506 -0.02125674 -0.02097601 -0.02069423 -0.0204227
 -0.02014652 -0.01985796 -0.01954599 -0.01919747 -0.01882841 -0.01843794 -0.01805661 -0.01769212 -0.0173606 -0.01706693
 -0.01680724 -0.01658198 -0.0163809 -0.01620348 -0.01604291 -0.01589933 -0.01577229 -0.01566216 -0.01557121 -0.0154985
 -0.01544285 -0.01540119 -0.01536616 -0.01533511 -0.01529997 -0.01526152 -0.01521652 -0.01516964 -0.01512295 -0.01508159
 -0.01504934 -0.01502688 -0.01501642 -0.01501233 -0.01501417 -0.01501445 -0.01501141 -0.01500457 -0.01499316 -0.01498686
 -0.01498617 -0.0150026 -0.01503595 -0.01508777 -0.01515603 -0.01523024 -0.0153084 -0.0153774 -0.01543824 -0.01548599
 -0.01552428 -0.01555688 -0.01558619 -0.01561747 -0.01564812 -0.01567839 -0.01570388 -0.01572137 -0.01573185 -0.01573356
 -0.01573445 -0.01573604 -0.01574455 -0.01576211 -0.01578461 -0.01581232 -0.01583434 -0.01585012 -0.01585505 -0.01584988
 -0.01584296 -0.01583553 -0.01583997 -0.01585482 -0.01588253 -0.01591874 -0.01595421 -0.01598665 -0.01600669 -0.01601854
 -0.01602234 -0.01602526 -0.01603379 -0.01604956 -0.01607683 -0.01610893 -0.01614518 -0.01617652 -0.01620013 -0.01621298
 -0.01621336 -0.01620686 -0.0161935 -0.01618347 -0.01617733 -0.01618157 -0.01619583 -0.01621723 -0.01624468 -0.01626997
 -0.0162931 -0.0163095 -0.01632038 -0.01632657 -0.01632859 -0.0163277 -0.0163241 -0.01631773 -0.01631109 -0.01630566
 -0.01630475 -0.01631111 -0.01632434 -0.01634535 -0.01637112 -0.0164008 -0.01643373 -0.0164697 -0.01650863 -0.01655086
 -0.01659095 -0.01662864 -0.01665622 -0.01667386 -0.01668158 -0.01668115 -0.01668315 -0.01668898 -0.01671018 -0.01674478
 -0.01679507 -0.01685549 -0.01691817 -0.01697832 -0.01702615 -0.01706314 -0.01708571 -0.01710169 -0.01711418 -0.01712968
 -0.01715234 -0.01718103 -0.01721689 -0.0172542 -0.01729194 -0.01732785 -0.0173613 -0.01739579 -0.0174315 -0.01747263
 -0.01751908 -0.01757038 -0.01762577 -0.01768031 -0.01773364 -0.01778142 -0.01782474 -0.01786378 -0.01790056 -0.01793874
 -0.01797921 -0.01802525 -0.01807442 -0.01812672 -0.01817722 -0.01822292 -0.01826185 -0.01829131 -0.01831652 -0.01833766
 -0.01836269 -0.01839333 -0.01843179 -0.01847884 -0.01852984 -0.01858453 -0.01863927 -0.01869417 -0.01875081 -0.01880945
 -0.01887285 -0.01894034 -0.01901115 -0.01908403 -0.01915538 -0.01922463 -0.01928859 -0.01934896 -0.01940587 -0.0194627
 -0.01952269 -0.01958648 -0.01965663 -0.0197279 -0.01979922 -0.01986507 -0.01992294 -0.01997454 -0.02001925 -0.02006309
 -0.02010675 -0.02015242 -0.02020026 -0.02024967 -0.02030085 -0.02035661 -0.02041744 -0.02048846 -0.02056884 -0.02065884
 -0.02075581 -0.02085353 -0.02094964 -0.02103679 -0.02111548 -0.02118253 -0.02124182 -0.02129497 -0.02134666 -0.02140011
 -0.02145767 -0.02152149 -0.02159018 -0.02166407 -0.02174 -0.02181757 -0.02189397 -0.0219688 -0.02204134 -0.0221115
 -0.02218014 -0.02224724 -0.02231266 -0.02237625 -0.02243653 -0.02249377 -0.0225479 -0.02259988 -0.0226525 -0.0227057
 -0.02276121 -0.02281714 -0.02287177 -0.0229241 -0.0229717 -0.02301755 -0.02306191 -0.02311 -0.02316417 -0.02322671
 -0.02329949 -0.02337882 -0.02346501 -0.02354998 -0.02363294 -0.02370791 -0.0237744 -0.02383401 -0.02388713 -0.02394083
 -0.02399524 -0.02405506 -0.02411936 -0.02418708 -0.02425732 -0.02432704 -0.02439648 -0.02446456 -0.02453217 -0.02459984
 -0.02466867 -0.02473985 -0.02481386 -0.02489194 -0.02497187 -0.02505373 -0.02513268 -0.02520729 -0.02527522 -0.0253351
 -0.02539133 -0.02544391 -0.02550036 -0.02556118 -0.02563027 -0.02570746 -0.02579021 -0.02587786 -0.02596471 -0.02605058
 -0.0261314 -0.02620822 -0.02628167 -0.02635276 -0.02642412 -0.02649466 -0.02656448 -0.0266312 -0.02669198 -0.02674809
 -0.02679808 -0.02684853 -0.02690176 -0.02696238 -0.02703328 -0.02711052 -0.02719456 -0.02727642 -0.02735509 -0.02742537
 -0.02748681 -0.02754099 -0.02758813 -0.02763235 -0.02767358 -0.02771334 -0.02775105 -0.02778503 -0.02781503 -0.02783899
 -0.02785818 -0.02787352 -0.02788723 -0.02790242 -0.02792071 -0.02794439 -0.0279746 -0.02801255 -0.02805904 -0.02811544
 -0.02817881 -0.02824991 -0.02831939 -0.02838618 -0.0284401 -0.02847944 -0.02850304 -0.02851054 -0.02851064 -0.02850385
 -0.02849989 -0.02849859 -0.02850358 -0.02851374 -0.02852643 -0.02854085 -0.02855325 -0.02856411 -0.02857234 -0.02857921
 -0.02858599 -0.02859332 -0.02860257 -0.02861284 -0.02862458 -0.02863474 -0.02864269 -0.02864398 -0.02863678 -0.0286208
 -0.02859472 -0.02856608 -0.02853528 -0.0285114 -0.02849517 -0.02848817 -0.02849014 -0.02849576 -0.02850442 -0.02850927
 -0.02851016 -0.02850235 -0.0284872 -0.02846512 -0.02843953 -0.02841704 -0.02839964 -0.02839406 -0.02839634 -0.02840656
 -0.02841702 -0.02842271 -0.02842008 -0.02840527 -0.02838228 -0.02835082 -0.02831806 -0.02828536 -0.02825706 -0.02823424
 -0.02821455 -0.02819803 -0.0281781 -0.02815465 -0.02812534 -0.02809116 -0.02805831 -0.02802791 -0.02800816 -0.02799888
 -0.02800456 -0.0280227 -0.02805255 -0.02808712 -0.0281184 -0.02813758 -0.02813198 -0.02810345 -0.02804582 -0.02797609
 -0.02789949 -0.02783023 -0.02777544 -0.02773204 -0.02770177 -0.02767215 -0.02764187 -0.02760253 -0.02755331 -0.02749465
 -0.02742686 -0.02735716 -0.02728591 -0.02721955 -0.02715709 -0.02709762 -0.02704018 -0.02698065 -0.0269211 -0.02686358
 -0.02680983 -0.02676472 -0.02672383 -0.02668577 -0.02664398 -0.02659288 -0.02653264 -0.02646097 -0.02638349 -0.02630137
 -0.02621885 -0.02613725 -0.02605671 -0.0259777 -0.02589612 -0.02581166 -0.02572193 -0.02562735 -0.02553835 -0.02545639
 -0.02539918 -0.02536484 -0.02535694 -0.02536827 -0.0253815 -0.02538951 -0.02536923 -0.02532142 -0.02523508 -0.02512068
 -0.02498253 -0.02483374 -0.02468431 -0.02454015 -0.02440771 -0.02428234 -0.02416436 -0.02404698 -0.02392791 -0.02380995
 -0.02369279 -0.02358356 -0.02348284 -0.02339285 -0.02331357 -0.02324401 -0.02318316 -0.02312416 -0.02306306 -0.02297812
 -0.022868 -0.02271335 -0.02252571 -0.0223171 -0.02210016 -0.02189967 -0.02171388 -0.02155009 -0.0214033 -0.0212713
 -0.02115409 -0.0210529 -0.02096085 -0.02087877 -0.02078815 -0.02068564 -0.02055796 -0.02040224 -0.02021969 -0.02000997
 -0.01978136 -0.01953456 -0.0192838 -0.01903018 -0.01878968 -0.01856143 -0.01835037 -0.01815428 -0.01796909 -0.01779418
 -0.01762806 -0.0174665 -0.01730546 -0.01713516 -0.01694308 -0.01672945 -0.0164871 -0.01623159 -0.01596903 -0.01570674
 -0.01545067 -0.01519081 -0.01492586 -0.01464946 -0.01435967 -0.0140637 -0.01376194 -0.013461 -0.01316072 -0.0128541
 -0.01253865 -0.01219057 -0.01180775 -0.01136371 -0.01086735 -0.01032783 -0.009760587 -0.009204876 -0.008657685 -0.008135865
 -0.007618953 -0.007091437 -0.006544589 -0.005962688 -0.005362696 -0.004747636 -0.004134705 -0.003533326 -0.002935988 -0.002347345
 -0.001729784 -0.001082435 -0.0003425005 0.0004955654 0.001456599 0.00253904 0.003672889 0.00485489 0.006020469 0.007183835
 0.008375215 0.009612005 0.01096604 0.01243218 0.01404203 0.01576414 0.01757289 0.01942981 0.0212886 0.02312754
 0.02490985 0.02666024 0.02836993 0.03010871 0.03190269 0.03376817 0.03572876 0.03767823 0.03960575 0.04143128
 0.04314436 0.044792 0.04637641 0.04794827 0.04950279 0.05101278 0.05247938 0.05388441 0.05525281 0.05665014
 0.05809445 0.05966721 0.06133652 0.06309531 0.06490301 0.06670368 0.06851784 0.07033595 0.07220412 0.07414549
 0.07617244 0.07829399 0.08050715 0.08279639 0.08525979 0.08788922 0.09095507 0.09448104 0.09859843 0.1032993
 0.1081527 0.1131327 0.1177946 0.1222027 0.1264329 0.1305532 0.1348181 0.139226 0.1438932 0.148798
 0.1539251 0.1593514 0.1650941 0.1713831 0.1783776 0.186231 0.1951626 0.2047884 0.2151216 0.2254087
 0.2354723 0.2449622 0.2537802 0.2620391 0.2697315 0.2771434 0.284296 0.2916745 0.2993267 0.3079595
 0.3174963 0.3280706 0.3393153 0.3500918 0.3603409 0.3692583 0.3772947 0.3847752 0.3920221 0.3995306
 0.4072842 0.4154372 0.4238451 0.4324636 0.4412394 0.4501742 0.4591081 0.4680274 0.4766872 0.4850291
 0.493136 0.5010069 0.508819 0.5165705 0.5239545 0.5309355 0.5370179 0.5422485 0.5465891 0.5501312
 0.5531673 0.5556787 0.5577819 0.5593905 0.5603745 0.5608279 0.5607714 0.5603727 0.5597618 0.5590147
 0.5582034 0.5573391 0.5564488 0.5554836 0.5544483 0.553236 0.5518376 0.550129 0.5480952 0.5457367
 0.5430571 0.5402663 0.5373702 0.5345168 0.5316792 0.5287969 0.5258481 0.5227203 0.5194405 0.5159867
 0.5124552 0.5089658 0.5056207 0.5025711 0.499859 0.4975502 0.4956838 0.4942853 0.493409 0.49309
 0.4932978 0.4940393 0.4952332 0.4968619 0.4989386 0.5014608 0.5044937 0.508039 0.5120817 0.5166146
 0.5215556 0.5269039 0.5326139 0.5386889 0.545119 0.551901 0.55902 0.5664799 0.5742801 0.5824255
 0.5909277 0.5997679 0.608938 0.6184172 0.6281897 0.6382588 0.6486273 0.6592789 0.6702276 0.6813592
 0.6926758 0.7039434 0.7151423 0.7260966 0.7368022 0.7474474 0.7580633 0.7691095 0.7805038 0.7921395
 0.8037565 0.8143877 0.8240339 0.8321467 0.839039 0.8450143 0.8501222 0.8545874 0.8582016 0.8608303
 0.8625023 0.8631865 0.8629785 0.8619946 0.8598551 0.8565147 0.851533 0.8447295 0.8368701 0.8279933
 0.8189395 0.8097403 0.800158 0.790174 0.7794971 0.7681743 0.7563145 0.7439534 0.7313304 0.7182955
 0.704733 0.6902586 0.6740879 0.6564108 0.6366981 0.6165876 0.5972123 0.5793313 0.5639462 0.549973
 0.5372386 0.5249193 0.5127065 0.5006922 0.4888301 0.4774549 0.4666078 0.4562282 0.4463113 0.4365381
 0.4269056 0.4172629 0.4076507 0.3982091 0.3889746 0.380158 0.3717276 0.3637249 0.3560851 0.3487208
 0.3416028 0.3346827 0.3279008 0.321258 0.3145092 0.3075624 0.300124 0.2919332 0.2834882 0.2747423
 0.2668347 0.2600145 0.2542666 0.2496496 0.2453742 0.2414034 0.2372648 0.2329782 0.2286149 0.2242216
 0.2201099 0.2162523 0.2127239 0.2094666 0.206359 0.2034349 0.2006718 0.1981739 0.1960619 0.1943547
 0.193126 0.1922937 0.1918324 0.1916865 0.1918207 0.1922532 0.1929675 0.1940681 0.1955498 0.197653
 0.2003984 0.2039891 0.2084325 0.2133699 0.2187501 0.2238328 0.2286322 0.2328414 0.2365312 0.2397925
 0.2426427 0.2451564 0.2473468 0.2492234 0.2509183 0.2525409 0.2543042 0.2564495 0.2589391 0.2619009
 0.2649264 0.2678676 0.270584 0.2729658 0.2752707 0.2775187 0.2799491 0.2825935 0.285474 0.2885922
 0.2917912 0.2950655 0.2982893 0.3014885 0.3047288 0.3080678 0.3117418 0.3157744 0.3203722 0.3254376
 0.3309115 0.3366923 0.342599 0.3487193 0.3550457 0.3617206 0.368847 0.3763941 0.3843934 0.3927044
 0.4012732 0.4101495 0.4193003 0.4290667 0.4394815 0.450762 0.4629186 0.4753853 0.488093 0.4999935
 0.5110942 0.5209013 0.5294884 0.5368988 0.5430784 0.5479593 0.5513812 0.5530365 0.5528783 0.5506862
 0.546624 0.5407129 0.5332093 0.5242389 0.5140204 0.5026444 0.4902925 0.4769757 0.4630689 0.4485776
 0.4342074 0.4200233 0.4065585 0.3938447 0.3817933 0.3703802 0.3592486 0.3484192 0.3378187 0.3275221
 0.3177764 0.308585 0.3001086 0.2922407 0.2848874 0.277938 0.2712268 0.2647049 0.2582733 0.2519476
 0.2456974 0.2395986 0.2336663 0.227984 0.2225836 0.2174644 0.2126407 0.2080211 0.2035987 0.1992978
 0.1951138 0.1910901 0.1872367 0.1837009 0.180488 0.1777112 0.1753521 0.1734063 0.1718503 0.1706246
 0.1697219 0.1691036 0.1687705 0.1687155 0.1689211 0.1693884 0.1700479 0.170886 0.1717671 0.1726566
 0.1733866 0.1739177 0.1740989 0.1739005 0.1732306 0.1720718 0.170449 0.1683622 0.1659701 0.1632849
 0.1605061 0.1576437 0.1548548 0.1521496 0.1496469 0.1473545 0.1453553 0.1436359 0.1422182 0.1410666
 0.1401514 0.1394376 0.1388887 0.1384811 0.1381952 0.1380106 0.1379196 0.1378938 0.1379292 0.137983
 0.1380509 0.1380791 0.1380623 0.1379607 0.1377719 0.1374935 0.1371275 0.1367022 0.1362201 0.1357121
 0.1351775 0.1346312 0.1340681 0.1334841 0.1328715 0.1322148 0.1315115 0.1307496 0.1299378 0.1290766
 0.1281808 0.1272577 0.1263199 0.1253729 0.1244273 0.1234858 0.1225578 0.1216451 0.1207535 0.1198838
 0.1190395 0.1182209 0.117434 0.1166797 0.1159703 0.1153084 0.1147154 0.1141955 0.1137762 0.1134603
 0.1132685 0.1131998 0.1132612 0.1134513 0.1137715 0.1142191 0.1147966 0.1154879 0.1162912 0.1171703
 0.1181154 0.1190838 0.1200641 0.1210242 0.1219571 0.1228442 0.1236831 0.1244642 0.1251871 0.1258479
 0.1264465 0.1269813 0.1274523 0.1278584 0.1281997 0.1284757 0.1286849 0.1288245 0.1288903 0.1288747
 0.1287718 0.1285727 0.1282717 0.1278618 0.1273391 0.1266987 0.1259416 0.1250653 0.1240788 0.1229821
 0.1217923 0.1205104 0.1191611 0.1177459 0.1162953 0.1148112 0.1133187 0.111818 0.1103176 0.1088162
 0.1073111 0.1058029 0.1042924 0.1027829 0.1012824 0.09979393 0.09832601 0.09688129 0.09546626 0.09408217
 0.09273336 0.09141611 0.09013074 0.08886924 0.08762831 0.08640365 0.08519237 0.08399867 0.08282202 0.08167199
 0.08054914 0.07946491 0.07841996 0.0774271 0.07648706 0.07561329 0.07480607 0.07407448 0.07341763 0.07283687
 0.07233135 0.07189846 0.07154065 0.07125962 0.07106148 0.07095409 0.07094236 0.07103266 0.07122862 0.07153162
 0.07195245 0.07249282 0.07317231 0.07399672 0.07497767 0.07612092 0.07741201 0.07885244 0.08040075 0.08205485
 0.08376164 0.08551867 0.08728106 0.08904898 0.09080066 0.09253927 0.09426558 0.0959822 0.09769685 0.09940911
 0.1011222 0.1028339 0.1045438 0.1062467 0.1079413 0.1096127 0.1112563 0.1128462 0.1143732 0.1158116
 0.117152 0.1183823 0.1194977 0.1205029 0.1213972 0.1221965 0.1229012 0.1235363 0.1241041 0.124644
 0.1251613 0.125709 0.1262923 0.1269601 0.1277142 0.1285838 0.129569 0.1306825 0.1319245 0.1333013
 0.1348088 0.1364482 0.1382063 0.1400785 0.1420444 0.1440974 0.1462128 0.1483858 0.1505856 0.1528091
 0.1550156 0.1572024 0.15932 0.1613654 0.1632911 0.1650957 0.1667538 0.1682688 0.1696498 0.1709045
 0.1720663 0.1731445 0.1741782 0.1751778 0.1761781 0.1771889 0.1782363 0.1793258 0.1804711 0.1816733
 0.1829375 0.1842596 0.1856411 0.1870701 0.1885444 0.1900516 0.1915875 0.1931551 0.194753 0.1963994
 0.1980953 0.1998545 0.2016768 0.203555 0.2054843 0.20743 0.2093814 0.2112786 0.2131093 0.2148101
 0.2163742 0.2177608 0.2189679 0.219978 0.2207883 0.2213888 0.2217852 0.2219708 0.2219774 0.2218079
 0.2215206 0.2211263 0.2206937 0.2202343 0.2198108 0.2194316 0.2191385 0.2189354 0.2188339 0.2188336
 0.2189231 0.219101 0.2193512 0.2196737 0.2200595 0.2205091 0.2210209 0.2215912 0.2222171 0.2228832
 0.2235741 0.2242603 0.2249153 0.2255027 0.2259969 0.2263619 0.226579 0.2266193 0.226468 0.2261248
 0.225581 0.2248831 0.2240317 0.2231017 0.2220976 0.2210893 0.2200802 0.2191272 0.2182331 0.2174461
 0.2167653 0.2162163 0.2157904 0.2154798 0.2152704 0.215135 0.2150568 0.2150082 0.2149639 0.2149009
 0.2147753 0.2145663 0.2142019 0.2136593 0.2128415 0.2117211 0.2102114 0.208287 0.2059282 0.2031222
 0.199944 0.1963953 0.19262 0.1886266 0.1845748 0.1804724 0.1764515 0.1725152 0.168748 0.1651493
 0.1617609 0.1585797 0.1556209 0.1528772 0.1503475 0.1480189 0.1458814 0.143919 0.1421215 0.1404713
 0.1389616 0.1375692 0.1362889 0.1350929 0.1339758 0.1329147 0.1319064 0.1309368 0.1300048 0.1291007
 0.1282241 0.1273679 0.1265319 0.1257121 0.124908 0.1241162 0.1233354 0.12256 0.1217899 0.1210215
 0.1202572 0.1194994 0.1187475 0.1180047 0.1172596 0.1165078 0.115733 0.1149244 0.1140829 0.1132021
 0.1123083 0.1114044 0.1105193 0.1096579 0.1088279 0.1080304 0.1072603 0.1065177 0.1058061 0.1051268
 0.1044912 0.1038998 0.1033601 0.1028715 0.1024367 0.1020552 0.1017286 0.1014547 0.1012317 0.1010563
 0.1009238 0.1008345 0.1007852 0.1007833 0.100829 0.1009384 0.1011141 0.1013779 0.1017351 0.1021957
 0.1027644 0.1034193 0.1041605 0.1049346 0.1057381 0.1065016 0.1072193 0.1078139 0.1082778 0.1085346
 0.1085832 0.1083746 0.1079261 0.1072398 0.1063544 0.1053148 0.1041728 0.1029866 0.1018073 0.1006823
 0.0996476 0.09873074 0.09794676 0.09730643 0.09681007 0.0964604 0.09624933 0.09617741 0.09622657 0.0963961
 0.0966577 0.09700976 0.09742226 0.09789447 0.09840659 0.09895992 0.09955002 0.1001777 0.1008449 0.1015474
 0.1022793 0.1030343 0.1037993 0.1045769 0.1053626 0.1061671 0.1069983 0.1078563 0.1087478 0.1096512
 0.1105639 0.1114568 0.1123239 0.1131453 0.1139178 0.1146317 0.1152861 0.1158797 0.1164128 0.1168942
 0.1173253 0.1177212 0.1180843 0.1184315 0.1187675 0.1191136 0.1194771 0.1198828 0.1203336 0.1208465
 0.1214131 0.1220335 0.1226916 0.1233768 0.1240777 0.1247855 0.125499 0.1262169 0.1269362 0.1276578
 0.1283666 0.129061 0.1297273 0.1303633 0.1309794 0.1315763 0.1321834 0.1328013 0.1334487 0.134122
 0.1348142 0.1355211 0.1362256 0.1369299 0.1376285 0.1383312 0.1390488 0.1397914 0.1405747 0.1413988
 0.1422724 0.1431799 0.1441202 0.1450665 0.1460112 0.1469309 0.1478175 0.14867 0.149485 0.1502879
 0.1510799 0.1518909 0.1527217 0.1535823 0.1544708 0.1553763 0.156295 0.1572052 0.1581017 0.1589562
 0.1597677 0.1605166 0.1612158 0.1618737 0.1625078 0.1631425 0.1637772 0.1644215 0.1650614 0.1656885
 0.1663103 0.1669212 0.1675594 0.1682309 0.1689707 0.1697865 0.1706785 0.1716488 0.1726601 0.1737101
 0.1747517 0.1757855 0.1767955 0.1777872 0.1787808 0.1797767 0.1807897 0.1818108 0.1828278 0.1838364
 0.184824 0.1857926 0.1867437 0.1876661 0.188556 0.1893936 0.1901644 0.1908736 0.1915151 0.1921195
 0.192692 0.1932562 0.1938161 0.1943836 0.1949597 0.1955573 0.1961766 0.1968131 0.1974634 0.1980914
 0.1986957 0.1992463 0.1997533 0.2002312 0.2006918 0.2011713 0.201664 0.2021814 0.2027026 0.2032088
 0.203691 0.2041313 0.2045482 0.2049443 0.2053429 0.2057557 0.2061793 0.2066171 0.2070494 0.2074726
 0.2078869 0.2082911 0.2087094 0.2091431 0.209614 0.2101219 0.2106716 0.2112603 0.2118769 0.2125168
 0.2131583 0.2138028 0.2144389 0.2150814 0.2157463 0.2164479 0.2172122 0.2180297 0.2189093 0.2198143
 0.2207352 0.221622 0.2224572 0.2232034 0.2238426 0.2243937 0.2248498 0.2252936 0.2257311 0.22623
 0.226793 0.2274086 0.2280723 0.2287336 0.2293929 0.230027 0.2306413 0.2312422 0.2318292 0.2324072
 0.2329668 0.2334995 0.2339867 0.2344087 0.2347434 0.2349655 0.235075 0.2350559 0.2349512 0.2347649
 0.2345635 0.2343623 0.234206 0.2341061 0.2340603 0.234071 0.2341035 0.2341563 0.2342114 0.2342725
 0.2343718 0.2345138 0.2347432 0.2350524 0.2354427 0.2358994 0.236392 0.2369091 0.237422 0.2379216
 0.2383796 0.2388173 0.2392151 0.2396834 0.240251 0.2410826 0.2422767 0.2437621 0.2455831 0.2473885
 0.2491158 0.2506761 0.2520458 0.2533852 0.2547008 0.2560702 0.2574834 0.2588583 0.2601769 0.2612991
 0.2622195 0.2628466 0.2631845 0.2631976 0.2628913 0.262258 0.2613036 0.2600261 0.2584482 0.2565686
 0.2544646 0.2521549 0.2497704 0.2473492 0.2450242 0.2428299 0.2408601 0.2391349 0.2376932 0.236543
 0.2356572 0.2350341 0.234591 0.2343211 0.2341235 0.2339916 0.2338372 0.2336574 0.2333917 0.2330489
 0.2326156 0.2321089 0.2315573 0.2309482 0.2302921 0.2295341 0.2286332 0.2275644 0.2262862 0.2248612
 0.223287 0.2216856 0.2200781 0.2185881 0.2172394 0.2160899 0.2151515 0.2143758 0.2137605 0.2132273
 0.2127773 0.2124045 0.2121131 0.2119296 0.2118424 0.2118262 0.2118691 0.2119247 0.2120058 0.2121099
 0.2122565 0.2124701 0.2127499 0.2131052 0.2135244 0.2140015 0.2145356 0.2151233 0.2157742 0.2164914
 0.217275 0.2181296 0.2190203 0.2199465 0.2208444 0.2217104 0.2225084 0.2232402 0.2239239 0.2245575
 0.2251449 0.2256675 0.2260619 0.2263169 0.2263644 0.2262312 0.2259224 0.2254833 0.224971 0.2243973
 0.2238011 0.2231407 0.2224074 0.2215571 0.2205587 0.2194498 0.2182189 0.2169884 0.2157771 0.2146606
 0.2136548 0.2126901 0.2117632 0.2107616 0.2096882 0.2085449 0.2073479 0.2061951 0.2050894 0.2040975
 0.203201 0.2023931 0.20165 0.2009329 0.2002211 0.1994762 0.1986901 0.1978396 0.1969397 0.1959918
 0.1950106 0.1940079 0.192964 0.1918797 0.1907185 0.1894715 0.188139 0.1867161 0.1852652 0.1837893
 0.1823662 0.1809945 0.1796808 0.1784125 0.1771137 0.1757824 0.1743596 0.1728774 0.171377 0.1698971
 0.1685287 0.1672662 0.1661477 0.1651292 0.1641904 0.1632921 0.1624064 0.1615181 0.1606099 0.1597037
 0.1587955 0.157941 0.1571507 0.1564456 0.1558338 0.1552404 0.1546617</values></Ydata></AB><ScSm><Ydata ylabel="Single channel"><values byteorder="INTEL" format="FLOAT32" numvalues="1814"> 0.07166892 0.07166562 0.07173409 0.07189231 0.07210511 0.07230813 0.07245092 0.0725244 0.07254247 0.07250737
 0.07242522 0.07235537 0.07239457 0.07258368 0.07284854 0.07304952 0.07309383 0.07301894 0.07297055 0.07305961
 0.07321452 0.07320453 0.07285514 0.07224476 0.07165374 0.07130663 0.07123158 0.07141973 0.07196209 0.07279322
 0.07340328 0.07320251 0.07226189 0.07134461 0.07105955 0.07127826 0.07149243 0.07140337 0.0710133 0.07050511
 0.07029312 0.0709158 0.07250631 0.07435091 0.07514594 0.07382359 0.07031377 0.06578162 0.06219818 0.06128657
 0.06330729 0.06670654 0.06928372 0.06994985 0.06924881 0.06824085 0.06735969 0.06655484 0.06603479 0.06630348
 0.06746525 0.06876132 0.06896915 0.0674509 0.0649091 0.06288125 0.06233714 0.06307644 0.06455636 0.06648379
 0.06797753 0.06709159 0.06272967 0.0570676 0.05458204 0.05779374 0.06457704 0.07023545 0.07167827 0.06916095
 0.06492712 0.06134712 0.06002066 0.06135231 0.06447984 0.06798212 0.07073737 0.07198888 0.07115954 0.06834701
 0.0648165 0.06239464 0.06234741 0.06487785 0.06908566 0.07305743 0.07473641 0.07343792 0.0703028 0.06709272
 0.06503075 0.0648063 0.06675056 0.07049478 0.07494414 0.07890571 0.08157364 0.08262382 0.0822888 0.08120348
 0.07991926 0.07881936 0.07845502 0.07920166 0.08037273 0.08048393 0.07886413 0.07654414 0.07519339 0.0753929
 0.07617174 0.07619371 0.07511587 0.07337464 0.07086195 0.06688201 0.06174075 0.05719386 0.05469544 0.05427793
 0.05557219 0.05838236 0.06149154 0.06259701 0.06083119 0.05836962 0.05828685 0.06127479 0.0652833 0.06801073
 0.0690292 0.06961473 0.07111021 0.07356191 0.07554419 0.07523499 0.0722211 0.06851126 0.06711096 0.06907532
 0.07249774 0.07485211 0.07565461 0.07620881 0.07732327 0.07806492 0.07674333 0.07292658 0.06851156 0.06654602
 0.06857616 0.07309989 0.07666443 0.07644027 0.07212222 0.06595883 0.06098962 0.05895566 0.05983113 0.06296957
 0.06780562 0.0732876 0.07759614 0.07916205 0.07782146 0.07470113 0.07095346 0.06673174 0.06176256 0.05700557
 0.05487782 0.05697118 0.06200691 0.06689045 0.0694809 0.06967415 0.06820875 0.06535462 0.06106865 0.05615351
 0.05264919 0.0522756 0.05437656 0.05626941 0.05604214 0.05429518 0.05279438 0.05226111 0.05209066 0.05166671
 0.05121996 0.0513927 0.05231285 0.05331865 0.05360173 0.05295823 0.05183169 0.05078306 0.04999525 0.04916728
 0.04794439 0.04659426 0.04600733 0.0467139 0.04814722 0.04923035 0.0494689 0.04913288 0.04854893 0.04756742
 0.04580947 0.04338392 0.04120847 0.04034074 0.04094583 0.04217919 0.0430799 0.04327592 0.04288459 0.04215631
 0.04131003 0.04046604 0.03967489 0.03906152 0.03879651 0.03884174 0.03890364 0.03872944 0.03830639 0.03772949
 0.03702977 0.03620531 0.03533762 0.03460046 0.03413549 0.03393314 0.03386521 0.03381337 0.03370427 0.03345542
 0.03300355 0.03239708 0.03177256 0.03122996 0.03078836 0.03044577 0.03021085 0.03006559 0.02994149 0.02976129
 0.02950012 0.02918941 0.02886095 0.02851272 0.0281404 0.02777482 0.02746671 0.02724134 0.02707268 0.02690642
 0.02672205 0.02655786 0.02644132 0.0263174 0.02610101 0.02578741 0.0254579 0.02518613 0.02498158 0.02481157
 0.02463805 0.0244319 0.02417644 0.02387728 0.02357829 0.02335111 0.02324216 0.02323481 0.02327659 0.02331956
 0.023322 0.0232532 0.02312226 0.02296958 0.0228156 0.02264746 0.02245885 0.02227475 0.02213659 0.02207508
 0.02208504 0.02212086 0.02213064 0.02209342 0.02201792 0.02192746 0.02185469 0.02181958 0.02180071 0.0217559
 0.02167647 0.02159629 0.02154729 0.02152692 0.02150759 0.02146674 0.0214103 0.02136738 0.02135777 0.02137156
 0.02138504 0.02138556 0.02137717 0.02137097 0.02136982 0.02135965 0.02132507 0.02127395 0.02123092 0.02120761
 0.02119705 0.02119477 0.0212063 0.02123366 0.02126725 0.0212927 0.02130236 0.02130009 0.02129213 0.02127487
 0.02124147 0.02119931 0.02116653 0.02115066 0.02114253 0.02112999 0.02110805 0.02107768 0.02104149 0.02099955
 0.02094942 0.02089217 0.02083375 0.02077758 0.02072357 0.02067544 0.02063877 0.02060948 0.02057373 0.02052205
 0.02045901 0.02039859 0.02035192 0.02031861 0.02029134 0.02026941 0.02026144 0.02027234 0.02029617 0.02032611
 0.02036389 0.02041532 0.02048363 0.02057164 0.02068507 0.02082664 0.02098689 0.02114611 0.02128964 0.02142015
 0.0215522 0.02169697 0.02185578 0.02202525 0.02220376 0.02239105 0.02258161 0.02276125 0.02291773 0.02305709
 0.0232007 0.0233624 0.02353761 0.02371703 0.02389812 0.02407909 0.0242557 0.0244299 0.02460899 0.02479134
 0.02496431 0.02512242 0.02527796 0.02544744 0.02563463 0.0258327 0.02603819 0.02625664 0.02649531 0.02675345
 0.02701894 0.02727387 0.02750835 0.02773253 0.02797217 0.02824687 0.02855172 0.02886256 0.02915966 0.02944396
 0.02973004 0.0300266 0.03032941 0.03063491 0.03095331 0.0312989 0.03166857 0.03203974 0.03239273 0.03272899
 0.03306478 0.03341336 0.03377674 0.03414918 0.03452275 0.03489123 0.03525329 0.0356122 0.03597153 0.03633144
 0.03669081 0.03705239 0.03742192 0.03779815 0.03816601 0.0385083 0.03882802 0.03915059 0.03949577 0.03985275
 0.04019261 0.04050316 0.04080142 0.041112 0.04144306 0.04178692 0.04213572 0.04248766 0.04283968 0.04318175
 0.04350112 0.04379021 0.04405135 0.04429711 0.04454658 0.04481826 0.04512444 0.04546777 0.04583631 0.04620415
 0.04654603 0.04685331 0.04713134 0.04738868 0.04763933 0.04790667 0.0482079 0.04853572 0.04886412 0.04916816
 0.04943705 0.04968335 0.04994575 0.05026425 0.05064178 0.05104387 0.05144257 0.05184354 0.05226196 0.05269165
 0.05311583 0.05353729 0.05397565 0.05443376 0.05488368 0.05529193 0.05564651 0.05595582 0.05623879 0.05652687
 0.05685824 0.05725002 0.05767998 0.05810535 0.05849486 0.05883779 0.05913272 0.05937957 0.05958281 0.05975748
 0.05992742 0.0601119 0.06031373 0.06052697 0.06075366 0.06100012 0.06125399 0.06147801 0.0616331 0.06169886
 0.06166881 0.0615399 0.06131814 0.06102394 0.06067631 0.06027257 0.05979444 0.05923391 0.05860277 0.05791634
 0.05718037 0.05640115 0.05560578 0.05484895 0.05420106 0.05372763 0.0534745 0.05346577 0.05370566 0.05417001
 0.05479247 0.05546734 0.05607577 0.05651522 0.05671549 0.05664595 0.05632256 0.05580699 0.05518799 0.05455241
 0.05396406 0.05345882 0.05305223 0.05275478 0.05259225 0.05261929 0.05291202 0.05354042 0.05454115 0.05590538
 0.05757524 0.05944081 0.06135159 0.06315891 0.0647714 0.06617844 0.06742488 0.06856638 0.06964065 0.07066138
 0.07162599 0.07252862 0.07336648 0.07413265 0.07480863 0.07537191 0.07580909 0.07611648 0.07629676 0.07637012
 0.07638991 0.07643485 0.07657573 0.07684317 0.07721588 0.07762763 0.07798814 0.07821574 0.07827016 0.07816727
 0.07797419 0.07780494 0.07782699 0.0782504 0.07926124 0.08091464 0.08307087 0.08544579 0.08774611 0.08978361
 0.09149976 0.09292404 0.09412354 0.09516832 0.09611112 0.09698264 0.09780027 0.09857725 0.09932417 0.100047
 0.1007466 0.1014201 0.1020661 0.1026885 0.1032939 0.1038864 0.1044689 0.1050466 0.1056256 0.1062066
 0.1067841 0.1073531 0.1079156 0.108479 0.1090445 0.1096005 0.1101334 0.1106454 0.1111534 0.1116704
 0.1121941 0.112714 0.1132212 0.1137097 0.1141753 0.1146203 0.1150541 0.1154884 0.1159277 0.1163663
 0.1167949 0.11721 0.1176159 0.1180191 0.1184247 0.1188345 0.1192449 0.1196473 0.1200365 0.1204169
 0.1207983 0.121186 0.1215773 0.1219659 0.1223513 0.1227445 0.1231612 0.1236058 0.1240627 0.1245089
 0.1249329 0.1253404 0.1257452 0.1261593 0.1265859 0.1270195 0.1274504 0.1278728 0.1282884 0.1287015
 0.1291118 0.1295156 0.1299106 0.1302986 0.1306847 0.1310727 0.1314629 0.1318521 0.1322384 0.1326253
 0.1330195 0.1334227 0.133828 0.1342256 0.1346114 0.1349872 0.1353571 0.1357253 0.1360976 0.1364803
 0.1368777 0.1372882 0.137705 0.138118 0.1385203 0.1389115 0.1392961 0.1396779 0.1400575 0.1404344
 0.140809 0.1411839 0.1415624 0.1419449 0.1423274 0.1427055 0.1430763 0.1434397 0.1437985 0.1441565
 0.1445166 0.1448789 0.1452429 0.1456078 0.1459715 0.1463323 0.1466912 0.1470495 0.1474051 0.1477561
 0.1481061 0.1484615 0.148825 0.149191 0.1495505 0.1499002 0.1502478 0.1506051 0.1509751 0.1513492
 0.1517163 0.1520714 0.1524157 0.1527548 0.1530949 0.1534389 0.1537863 0.1541356 0.1544846 0.1548294
 0.1551667 0.1554982 0.1558292 0.1561629 0.1564979 0.1568329 0.1571719 0.1575198 0.1578728 0.1582199
 0.1585578 0.1588952 0.1592386 0.1595846 0.1599286 0.1602706 0.1606101 0.1609448 0.1612739 0.1615999
 0.1619253 0.1622517 0.1625774 0.1628975 0.163211 0.1635236 0.1638389 0.1641515 0.1644552 0.1647518
 0.1650493 0.1653538 0.1656645 0.1659761 0.1662867 0.1666 0.1669181 0.1672364 0.1675508 0.1678614
 0.1681696 0.1684803 0.1688016 0.1691346 0.1694672 0.169789 0.1701038 0.170424 0.170758 0.171105
 0.1714544 0.1717929 0.1721164 0.1724323 0.1727491 0.173072 0.1734024 0.1737321 0.1740494 0.1743561
 0.174665 0.1749769 0.1752785 0.175563 0.1758403 0.1761256 0.1764273 0.1767391 0.177042 0.1773243
 0.1775925 0.1778574 0.1781233 0.1783948 0.1786749 0.1789575 0.1792377 0.1795239 0.1798215 0.1801203
 0.1804115 0.1806969 0.1809783 0.1812556 0.1815331 0.1818112 0.182084 0.1823495 0.1826038 0.1828234
 0.1829612 0.1829078 0.1823787 0.1807957 0.1772785 0.1708337 0.1607609 0.1471018 0.1307768 0.1132528
 0.09600575 0.08014698 0.06632394 0.05481104 0.04565576 0.03877471 0.03401101 0.0312254 0.03039591 0.03173009
 0.03578679 0.04314438 0.05314527 0.06278446 0.06787985 0.06637698 0.06031547 0.0539692 0.05029005 0.04947737
 0.05025878 0.05155382 0.05302485 0.05487389 0.05744595 0.06084463 0.0649096 0.06963061 0.0753579 0.08235802
 0.09026707 0.09823574 0.1056621 0.1126725 0.1198408 0.127507 0.1354217 0.1429896 0.1497441 0.1555891
 0.1607131 0.1653749 0.1697521 0.1739186 0.1778979 0.1816723 0.185111 0.1879351 0.189843 0.1907358
 0.1908349 0.1905638 0.1903011 0.1902277 0.1903612 0.190667 0.1911163 0.1916931 0.1923907 0.1931976
 0.1940788 0.1949822 0.1958681 0.1967205 0.1975344 0.1983046 0.1990239 0.1996863 0.2002942 0.200858
 0.2013822 0.2018604 0.2022902 0.2026832 0.2030568 0.2034232 0.2037872 0.2041427 0.2044759 0.204778
 0.2050512 0.2052993 0.2055239 0.2057339 0.2059466 0.2061746 0.2064184 0.206671 0.2069237 0.2071698
 0.2074097 0.2076496 0.2078935 0.2081394 0.2083803 0.2086082 0.2088218 0.2090328 0.2092558 0.2094921
 0.209731 0.2099654 0.210197 0.2104288 0.210662 0.2108997 0.2111447 0.2113967 0.2116519 0.211904
 0.2121494 0.2123931 0.2126437 0.2129031 0.2131688 0.2134425 0.2137238 0.2140037 0.2142758 0.2145457
 0.2148161 0.2150739 0.2153029 0.2155084 0.215723 0.215983 0.2162929 0.2166177 0.2169198 0.2171945
 0.2174581 0.217717 0.2179651 0.2182016 0.2184393 0.2187018 0.2190076 0.2193449 0.219679 0.2199933
 0.2203015 0.220615 0.2209299 0.221247 0.2215657 0.2218567 0.2220831 0.2222601 0.2224692 0.2227943
 0.2232389 0.2237112 0.224108 0.2244078 0.2246678 0.2249536 0.2252974 0.2256731 0.2259704 0.2260703
 0.2260219 0.2260718 0.2264322 0.227067 0.2277629 0.2283511 0.2288049 0.2291786 0.2295197 0.2298248
 0.2300439 0.2301362 0.2301543 0.2302653 0.2306328 0.2312469 0.2319188 0.2324728 0.2328841 0.2332096
 0.2334861 0.2337284 0.2338977 0.233847 0.2334754 0.2330122 0.2329602 0.2336105 0.234711 0.2357343
 0.2363978 0.2368028 0.2371388 0.2374496 0.2376965 0.2377946 0.2374865 0.2364933 0.2350604 0.2341094
 0.2344738 0.2360554 0.2379825 0.2394812 0.2403621 0.2408207 0.2411007 0.2413359 0.2414497 0.2411566
 0.2402824 0.2391925 0.2387001 0.2393142 0.2406697 0.2419189 0.2425978 0.2428733 0.2430858 0.2433621
 0.2435307 0.2430914 0.2414999 0.2389761 0.2369125 0.2369 0.2391713 0.2423163 0.2446788 0.245777
 0.2461706 0.246243 0.2456374 0.2439013 0.2411784 0.2381496 0.2357958 0.2352457 0.237041 0.2402141
 0.2428254 0.2438687 0.2441291 0.2448997 0.2464378 0.2479719 0.2487008 0.248409 0.2473386 0.2457611
 0.2438398 0.2420167 0.2412665 0.2424152 0.2451313 0.2480356 0.2499797 0.2509155 0.2512935 0.2507326
 0.2477482 0.2415306 0.2341932 0.2302089 0.2324624 0.2392259 0.2460198 0.2500255 0.2516296 0.252324
 0.252704 0.2522971 0.2498455 0.2440145 0.2355052 0.2283476 0.2271736 0.2326505 0.2407262 0.2464023
 0.2471402 0.2431308 0.2363849 0.2301376 0.2275439 0.2297632 0.235438 0.242046 0.2474216 0.2503389
 0.2505021 0.2484488 0.2455044 0.2434474 0.2432323 0.2435872 0.2419652 0.2377561 0.2332997 0.2304553
 0.2277407 0.2230943 0.2183679 0.2180912 0.223569 0.2307065 0.2345999 0.2344938 0.2329477 0.2311994
 0.2271015 0.218255 0.2065468 0.1982368 0.198459 0.2059023 0.2139719 0.2171991 0.2155709 0.2126781
 0.2109342 0.2091914 0.2045413 0.1961878 0.1873802 0.1827108 0.1832821 0.1857134 0.1861546 0.1834332
 0.1777964 0.1695475 0.161043 0.1575333 0.1627195 0.1741475 0.1851039 0.1901612 0.1872291 0.1763265
 0.1600733 0.145015 0.1384911 0.1421813 0.1501508 0.1543503 0.1510754 0.1416759 0.1289953 0.1152888
 0.1031015 0.09571101 0.09515591 0.1000987 0.1061416 0.1082322 0.1034437 0.09301548 0.08215223 0.07631604
 0.0765145 0.07878491 0.07868074 0.07527251 0.07057284 0.06673205 0.06468433 0.06420872 0.06426521 0.06387907
 0.06291653 0.06126278 0.05779621 0.05181718 0.04522655 0.04135103 0.04144001 0.04397883 0.04742351 0.05154892
 0.05565201 0.05762494 0.0563238 0.05376146 0.0534258 0.05659031 0.06118642 0.06429233 0.06502281 0.06472856
 0.06485254 0.06530204 0.0652207 0.06481475 0.06544061 0.0677029 0.07036673 0.07172081 0.07137811 0.0701426
 0.06868435 0.06704935 0.06510904 0.06284522 0.06030814 0.05764728 0.05507419 0.05264301 0.05022655 0.04774768
 0.0452012 0.04240759 0.03904712 0.03517064 0.0315242 0.02901688 0.02781253 0.02728642 0.02693463 0.02675534
 0.02648255 0.0252355 0.02267594 0.02006735 0.01937833 0.02139056 0.02512645 0.02897028 0.03185194 0.03333292
 0.0331966 0.03173711 0.03050554 0.03185463 0.0369683 0.04469106 0.05282141 0.06003009 0.06590825 0.06987556
 0.07122612 0.07029316 0.06887248 0.06924746 0.07287197 0.07966058 0.08779727 0.09395965 0.09494305 0.09102073
 0.08771352 0.09169783 0.1035447 0.1164789 0.1239546 0.1263912 0.1283409 0.1313787 0.1333765 0.1338257
 0.1358738 0.1420453 0.1504657 0.1566319 0.1573122 0.1518145 0.1415364 0.1302008 0.1228987 0.1221613
 0.1253295 0.1276313 0.1269192 0.1234681 0.1170852 0.1081288 0.1005009 0.09936981 0.1051322 0.1125669
 0.1167577 0.1175732 0.1175897 0.1176492 0.1159419 0.1108781 0.1037259 0.09781212 0.09520838 0.09490053
 0.09448704 0.09272097 0.0896392 0.08519679 0.07923332 0.0726658 0.06751945 0.06525335 0.06540497 0.06617329
 0.06617461 0.06542175 0.06479602 0.0650268 0.06623752 0.06808318 0.0702457 0.07308212 0.0775838 0.08415529
 0.09167343 0.09850745 0.1043601 0.1103257 0.1171123 0.1239067 0.1291897 0.132299 0.1341032 0.1363583
 0.1403334 0.1457408 0.1508798 0.1540592 0.1552053 0.1560934 0.1586998 0.1632463 0.1681242 0.1716705
 0.1735271 0.174298 0.1745783 0.1745295 0.1738803 0.1722543 0.1700182 0.1687687 0.1702726 0.1747116
 0.180404 0.1853412 0.188648 0.1905703 0.1915651 0.1917454 0.1910898 0.1898864 0.1887534 0.1882131
 0.1883704 0.189023 0.1899298 0.1909099 0.1918343 0.19265 0.1933827 0.1940793 0.1947799 0.1955292
 0.1963463 0.1971757 0.1979355 0.1986383 0.1994083 0.2003311 0.2013233 0.2021998 0.2028257 0.2031278
 0.2030087 0.2023731 0.2012486 0.1997757 0.1980518 0.1960832 0.1939656 0.1920676 0.1909272 0.1908842
 0.1918003 0.1931551 0.1944151 0.1953106 0.1958386 0.196125 0.196323 0.1965717 0.1969659 0.197534
 0.1982522 0.1990834 0.2000038 0.2009934 0.2020211 0.2030624 0.2041255 0.2052345 0.2063855 0.2075334
 0.2086193 0.2096012 0.2104709 0.2112556 0.2119879 0.2126639 0.213237 0.2136575 0.2139086 0.214006
 0.2139825 0.2138726 0.2136914 0.2134143 0.2129868 0.2123571 0.2114834 0.2103148 0.2088098 0.2070009
 0.2050093 0.2029622 0.2009146 0.1988643 0.1968015 0.1947119 0.1925662 0.1903485 0.1880806 0.1858017
 0.1835434 0.181336 0.1792172 0.1772179 0.1753441 0.1735802 0.1719012 0.1702749 0.1686568 0.1669883
 0.1651981 0.1631979 0.1608841 0.1581585 0.1549544 0.1512482 0.1470666 0.1425058 0.1377381 0.132978
 0.128425 0.1242232 0.1204523 0.1171414 0.1142953 0.1119118 0.1099859 0.1085092 0.1074707 0.1068558
 0.106647 0.1068217 0.1073392 0.1081238 0.1090697 0.1100642 0.1110084 0.1118348 0.1125336 0.1131668
 0.1138384 0.1146337 0.1155737 0.1166182 0.117702 0.1187606 0.1197286 0.1205395 0.1211534 0.1215773
 0.1218478 0.121997 0.1220384 0.1219764 0.1218221 0.1216091 0.1213955 0.1212531 0.1212537 0.1214534
 0.1218674 0.1224579 0.1231569 0.1238991 0.1246305 0.1253023 0.1258794 0.1263554 0.1267576 0.1271383
 0.1275639 0.1281149 0.1289066 0.1300952 0.1318325 0.1341885 0.1371082 0.1404285 0.1439305 0.1473924
 0.1506289 0.1535123 0.1559808 0.15803 0.1596888 0.1609969 0.1620053 0.1627782 0.1633738 0.1638271
 0.1641589 0.164394 0.1645588 0.1646741 0.1647559 0.1648147 0.1648523 0.1648689 0.1648788 0.1649126
 0.164996 0.1651262 0.1652743 0.1654132 0.165534 0.16563 0.1656824 0.1656724 0.1655935 0.1654426
 0.1652136 0.1649007 0.1644917 0.163956 0.1632571 0.1623723 0.1612917 0.1600148 0.1585672 0.1570142
 0.1554549 0.1540024 0.1527565 0.1517664 0.1510065 0.1503806 0.1497479 0.1489674 0.1479585 0.1467322
 0.1453588 0.1439089 0.1424262 0.1409326 0.1394371 0.1379446 0.1364654 0.1350158 0.1336096 0.13225
 0.1309257 0.129617 0.1283183 0.1270566 0.1258795 0.124828 0.1239196 0.1231474 0.1224876 0.1219158
 0.1214136 0.1209579 0.1205223 0.1201015 0.1197181 0.1193858 0.1190759 0.1187358 0.1183359 0.1178926
 0.1174483 0.1170344 0.1166511 0.11628 0.1159019 0.1154917 0.1150049 0.1143802 0.1135555 0.1124858
 0.1111663 0.1096435 0.1079935 0.1062912 0.1046081 0.1030216 0.1015995 0.1003798 0.09937176 0.09855998
 0.09790051 0.09733672 0.09684113 0.09643927 0.09617609 0.0960413 0.09592889 0.09570117 0.0953166 0.09487791
 0.09453784 0.09437571 0.0943698 0.09444675 0.09452988 0.09456464 0.09452847 0.09442463 0.09426947 0.09408115
 0.0938642 0.09360118 0.09327029 0.09287126 0.09243001 0.09198247 0.09154707 0.09110297 0.09061135 0.09006526
 0.0894884 0.08888256 0.08821917 0.08748143 0.08666677 0.08576688 0.08481249 0.0839277 0.08328192 0.08298334
 0.0830259 0.08330553 0.08368349 0.08406418 0.08439104 0.08455772 0.08443774 0.08410609 0.08394347 0.08435898
 0.08539047 0.08665776 0.08770493 0.08831258 0.08848882 0.08829814 0.08779345 0.08703358 0.08605291 0.08483948
 0.08339911 0.08178705 0.08005141 0.07823523 0.07644525 0.0748193 0.07342943 0.0722784 0.07135011 0.07066764
 0.07031454 0.07007477 0.06884703 0.06521948 0.05961923 0.05528465 0.05554744 0.06008903 0.06515875 0.06756231
 0.06723528 0.06592153 0.06483506 0.06418581 0.06394104 0.064198 0.06502852 0.06632825 0.06782346 0.06920464
 0.07028916 0.07102875 0.07136749 0.07111196 0.06987783 0.06720919 0.06297009 0.05769363 0.05240304 0.04802766
 0.04500762 0.04330494 0.04258144 0.04239126 0.04239484 0.04250893 0.04287215 0.0436599 0.04492158 0.04658084
 0.04853193 0.05064044 0.05267043 0.05436433 0.05564423 0.05662416 0.05739476 0.05790086 0.05804849 0.05783701
 0.05736405 0.05675957 0.0561274 0.05551093 0.05488894 0.05421271 0.05348774 0.05283806 0.05243841 0.0523503
 0.05247881 0.0527007 0.05295373 0.0532013 0.05341759 0.05362161 0.05385131 0.05412027 0.05444822 0.05487382
 0.05538329 0.05588453 0.05629183 0.05660088 0.05686618 0.0571105 0.05725247 0.05718119 0.05695464 0.05680754
 0.05683918 0.05682101 0.05649468 0.0559702 0.05564321 0.0557597 0.05620283 0.05667656 0.05697388 0.05707123
 0.05708906 0.05722834 0.0576525 0.05830309</values></Ydata></ScSm><ScRf><Ydata ylabel="Single channel"><values byteorder="INTEL" format="FLOAT32" numvalues="1820"> 0.06075942 0.06092241 0.06101511 0.06103987 0.06102395 0.06101553 0.06106667 0.06120119 0.06139402 0.06158322
 0.06171257 0.06176936 0.06177376 0.06173858 0.06167072 0.06161356 0.06164198 0.0617888 0.06199623 0.06215491
 0.06219077 0.0621303 0.06208891 0.06215976 0.06228516 0.06226744 0.0619548 0.06141806 0.06090536 0.06061113
 0.06055294 0.0607163 0.06117927 0.06189059 0.06241494 0.0622417 0.06142632 0.06062581 0.0603717 0.06055985
 0.06075191 0.06068519 0.06035707 0.05992361 0.05974222 0.06027807 0.06164704 0.06323382 0.06391247 0.06276099
 0.05972271 0.05580932 0.05272123 0.05193548 0.0536693 0.05658752 0.05880351 0.05938276 0.05879159 0.05794157
 0.0572027 0.05651958 0.05605838 0.05625502 0.05721918 0.05831546 0.05849073 0.057185 0.05499928 0.05325993
 0.05279899 0.05343638 0.05470495 0.05636211 0.05765666 0.05691036 0.05317061 0.04830432 0.04616658 0.04893497
 0.05478694 0.05967896 0.06094247 0.05879185 0.05516388 0.05210737 0.05099291 0.05214639 0.05481233 0.05778216
 0.06011821 0.0611838 0.0604799 0.0580836 0.05507525 0.05301503 0.05298446 0.05516079 0.05877751 0.06219408
 0.06364064 0.06252249 0.05981646 0.05704243 0.05526448 0.05508409 0.05678526 0.06004381 0.06390989 0.06735171
 0.06967404 0.07059701 0.07032141 0.06940219 0.06832738 0.06742789 0.06715945 0.06782433 0.06882887 0.06891051
 0.06750806 0.0655138 0.06435847 0.06453604 0.06521165 0.06523763 0.06431663 0.06281947 0.06064923 0.05720779
 0.05277001 0.04886297 0.0467381 0.04640917 0.04755994 0.05004192 0.05280758 0.05383965 0.05236131 0.05025475
 0.05019814 0.05280428 0.05630055 0.05869098 0.05960917 0.06017287 0.0615491 0.06376091 0.06554668 0.06531089
 0.06270147 0.05949428 0.05833882 0.06016064 0.06327344 0.06545562 0.06629427 0.06694108 0.06809402 0.06891024
 0.06788604 0.06464867 0.06090887 0.05939522 0.06147179 0.06576984 0.06918456 0.06917114 0.06545484 0.06008538
 0.05584256 0.05431675 0.05549517 0.05882908 0.06383806 0.06953555 0.07417357 0.07622068 0.07546955 0.07296398
 0.06980506 0.06613044 0.06167056 0.05743241 0.05591917 0.05877117 0.0646686 0.07042785 0.07383992 0.07477197
 0.07393643 0.07153853 0.06748295 0.06268857 0.05951824 0.05994714 0.06318151 0.06610227 0.06652465 0.06519293
 0.06418569 0.06433098 0.06488935 0.06513837 0.06541092 0.06652434 0.06860169 0.07075682 0.07194553 0.07191345
 0.07124513 0.07069056 0.07048455 0.07017221 0.06925051 0.06816807 0.06827432 0.0703363 0.07347848 0.07608084
 0.07740558 0.07786685 0.07794058 0.07732593 0.07537402 0.07229909 0.06967893 0.06928614 0.07137413 0.07451416
 0.07708049 0.07842229 0.07872173 0.0784087 0.0778649 0.07729735 0.07680357 0.07664073 0.07716058 0.07830531
 0.07949175 0.08019714 0.08039002 0.08026316 0.07985567 0.07913548 0.07827708 0.07766446 0.07761279 0.07813407
 0.07898392 0.07988146 0.08060789 0.08096415 0.08083899 0.08036464 0.07984409 0.07947622 0.07927866 0.07926998
 0.07953665 0.08006391 0.08064993 0.08107285 0.08126839 0.08130261 0.08124319 0.08110952 0.08091508 0.08072245
 0.08064783 0.0807789 0.08106843 0.08136435 0.08158764 0.08180986 0.08209055 0.08232145 0.08233917 0.0821467
 0.08192292 0.08182932 0.08188231 0.08200106 0.08209814 0.08209215 0.08189788 0.08150175 0.08106296 0.08085366
 0.08104181 0.08157057 0.0822559 0.08291934 0.08341914 0.08367655 0.08373324 0.08370887 0.08366368 0.08355553
 0.08334797 0.08311559 0.08302293 0.08319931 0.08362074 0.0841197 0.08452205 0.0847577 0.08485431 0.08489496
 0.0849863 0.08517702 0.08538118 0.08545806 0.08538868 0.08530697 0.08533803 0.08545842 0.08553736 0.08549124
 0.08538118 0.08535461 0.08549335 0.08573776 0.08596908 0.08614011 0.08630202 0.08651017 0.08672213 0.08681196
 0.08670745 0.08649161 0.08632129 0.08626096 0.08626169 0.08629338 0.08640625 0.08662921 0.08687899 0.08702999
 0.08705249 0.08703509 0.08706802 0.08713678 0.08714846 0.08704421 0.08686031 0.08668807 0.08660113 0.08661754
 0.08669944 0.08677614 0.08678582 0.08671476 0.08659913 0.08648726 0.08640462 0.08636211 0.0863895 0.08652834
 0.08676495 0.08698509 0.08703957 0.0868793 0.08661343 0.08641374 0.08635707 0.08636737 0.08630835 0.08611886
 0.08585212 0.08560176 0.08541689 0.08528785 0.08518465 0.08509261 0.08502957 0.08504184 0.08515815 0.08532374
 0.08540638 0.08530918 0.08506915 0.08481561 0.08464693 0.084575 0.08456063 0.08456017 0.08455623 0.0845752
 0.08465135 0.0847535 0.08478932 0.08471204 0.08458461 0.08451614 0.08457255 0.08475234 0.08498931 0.08516522
 0.08518495 0.08507164 0.08494823 0.08490972 0.08494993 0.08501828 0.08509594 0.08519141 0.08530065 0.08541093
 0.08553311 0.08570151 0.08593509 0.08620744 0.08645728 0.08663071 0.08672617 0.08680693 0.08696035 0.08722842
 0.08757152 0.08790226 0.08815747 0.08834083 0.08849975 0.08866729 0.08883933 0.08901246 0.0892192 0.08949666
 0.08983138 0.09016838 0.09047438 0.09076344 0.0910601 0.09136528 0.09166855 0.09197836 0.09232692 0.09273749
 0.09317966 0.09356792 0.09382823 0.09397104 0.09408931 0.09428817 0.09461276 0.09501256 0.09536149 0.09555374
 0.0956143 0.09568498 0.09586985 0.09612983 0.09636835 0.0965835 0.09687263 0.0972928 0.097771 0.09816968
 0.09841751 0.09856339 0.09871177 0.09891298 0.09912074 0.09926189 0.09933381 0.0994046 0.09952447 0.09968496
 0.09988116 0.1001582 0.1005484 0.1009964 0.1013971 0.1016932 0.1018974 0.1020424 0.1021486 0.1022263
 0.1022762 0.1023 0.1023257 0.1023933 0.1024965 0.1025761 0.1025982 0.1026061 0.1026691 0.1028144
 0.1030339 0.1033214 0.1036582 0.1039899 0.1042729 0.104541 0.1048681 0.105249 0.1055689 0.1057292
 0.1057595 0.1057624 0.105785 0.1058116 0.1058579 0.1059936 0.1062568 0.1066022 0.1069584 0.1072989
 0.1076387 0.1079824 0.1082973 0.1085278 0.1086339 0.1086256 0.1085687 0.1085558 0.1086629 0.1089099
 0.1092476 0.1095891 0.1098671 0.1100585 0.1101551 0.1101504 0.1100821 0.1100528 0.1101526 0.1103552
 0.1105246 0.1105309 0.1103333 0.1099564 0.1094309 0.1087846 0.1080735 0.1073901 0.1068272 0.1064363
 0.106227 0.1062069 0.1064079 0.1068496 0.1074803 0.1081831 0.1088424 0.1093756 0.1096972 0.109712
 0.1093836 0.1087863 0.1080591 0.1073214 0.1066401 0.1060307 0.1054611 0.1048922 0.1043615 0.1040212
 0.1040667 0.1046206 0.1056732 0.1070907 0.1086569 0.1101394 0.1113788 0.1123484 0.11313 0.1138239
 0.114485 0.1151363 0.1158025 0.1164902 0.1171525 0.1177225 0.1181864 0.1185935 0.1189909 0.1193777
 0.1197224 0.1200016 0.1202241 0.1204293 0.1206479 0.1208509 0.1209619 0.1209397 0.1208263 0.1206957
 0.1205718 0.1204139 0.1201635 0.1197937 0.1193423 0.1189316 0.1187495 0.1189708 0.1196558 0.120712
 0.1219673 0.1232805 0.1245708 0.1257564 0.1267255 0.1274063 0.1278366 0.1281305 0.1283886 0.1286584
 0.128951 0.1292622 0.1295801 0.129891 0.1301875 0.1304747 0.1307735 0.1311024 0.1314466 0.1317586
 0.1320079 0.1322245 0.132477 0.1328075 0.1331908 0.1335628 0.1338911 0.134205 0.1345397 0.1348696
 0.1351313 0.1353084 0.1354571 0.1356501 0.1359247 0.1362756 0.1366569 0.1369959 0.1372409 0.1374085
 0.1375629 0.1377523 0.1379806 0.1382311 0.1384921 0.1387548 0.1390096 0.1392617 0.1395381 0.1398551
 0.1401767 0.1404319 0.1405854 0.1406809 0.1407987 0.1409812 0.141207 0.1414295 0.141631 0.1418419
 0.1421077 0.142434 0.1427674 0.1430383 0.14322 0.1433434 0.1434622 0.1436124 0.1438014 0.144016
 0.1442357 0.1444448 0.1446419 0.1448388 0.1450473 0.1452673 0.1454884 0.1457022 0.1459085 0.1461108
 0.1463091 0.146503 0.1467016 0.1469288 0.1472067 0.1475264 0.1478408 0.1480979 0.1482809 0.1484108
 0.1485212 0.1486399 0.1487842 0.1489578 0.1491508 0.1493506 0.1495534 0.1497604 0.1499699 0.1501774
 0.1503821 0.1505882 0.1507988 0.1510117 0.1512232 0.1514363 0.1516592 0.1518906 0.1521148 0.1523165
 0.1524986 0.1526809 0.1528806 0.1530969 0.1533124 0.1535109 0.1536939 0.1538772 0.1540701 0.1542676
 0.1544613 0.154651 0.1548406 0.1550302 0.1552161 0.1553971 0.155579 0.1557703 0.1559745 0.1561857
 0.156393 0.1565895 0.1567783 0.1569703 0.1571724 0.1573785 0.1575774 0.1577683 0.1579611 0.1581596
 0.158357 0.1585497 0.1587446 0.1589494 0.1591621 0.1593741 0.159579 0.1597774 0.1599722 0.1601639
 0.1603527 0.1605418 0.1607375 0.160945 0.1611654 0.1613952 0.1616252 0.1618466 0.1620579 0.1622643
 0.1624702 0.1626755 0.1628771 0.1630742 0.1632724 0.1634799 0.1636981 0.1639183 0.1641311 0.1643331
 0.1645265 0.164717 0.1649092 0.1650988 0.1652758 0.1654381 0.1655962 0.1657612 0.1659401 0.166138
 0.1663515 0.1665652 0.1667661 0.1669571 0.1671495 0.1673511 0.1675634 0.1677798 0.1679895 0.1681888
 0.1683846 0.1685834 0.1687847 0.1689883 0.1691962 0.1694092 0.1696253 0.1698398 0.1700475 0.1702501
 0.1704572 0.170673 0.1708905 0.1711043 0.1713166 0.1715286 0.1717386 0.171946 0.1721497 0.1723492
 0.1725507 0.1727613 0.1729772 0.1731909 0.1734029 0.1736141 0.1738197 0.1740209 0.1742261 0.1744382
 0.1746536 0.174871 0.1750879 0.1753007 0.1755142 0.1757349 0.1759561 0.1761695 0.1763802 0.176594
 0.1768062 0.177013 0.1772127 0.1773904 0.1775035 0.1774372 0.1768989 0.1753151 0.1718293 0.1654793
 0.1555873 0.1421983 0.1262176 0.1090836 0.09223807 0.07676111 0.06328013 0.05206181 0.0431517 0.03646321
 0.0318354 0.02912776 0.02831959 0.02961414 0.0335554 0.04071079 0.0504501 0.05985304 0.06483924 0.06339274
 0.05749192 0.05130384 0.04771294 0.04691841 0.04768017 0.04894427 0.05038274 0.05219271 0.05470516 0.05801414
 0.06196523 0.06656013 0.07214862 0.07898618 0.08670865 0.0944846 0.1017291 0.1085647 0.1155462 0.1229991
 0.1306787 0.1380097 0.1445499 0.1502168 0.1551956 0.1597289 0.1639777 0.1680092 0.1718525 0.1755014
 0.1788311 0.1815586 0.1833755 0.1841849 0.184218 0.1839048 0.1836173 0.1835214 0.183625 0.1838968
 0.1843178 0.1848726 0.1855426 0.1863061 0.1871342 0.1879926 0.1888496 0.1896767 0.1904507 0.1911649
 0.1918298 0.1924551 0.1930383 0.1935718 0.1940521 0.194483 0.1948788 0.1952574 0.1956275 0.195985
 0.1963242 0.1966442 0.1969447 0.1972248 0.1974847 0.1977258 0.197948 0.1981534 0.1983505 0.1985505
 0.1987585 0.1989697 0.1991763 0.1993809 0.1995955 0.1998248 0.2000544 0.2002636 0.2004449 0.2006094
 0.2007769 0.2009622 0.2011645 0.2013699 0.2015674 0.2017593 0.2019515 0.2021415 0.2023242 0.2025036
 0.2026908 0.2028925 0.2031036 0.2033099 0.2035023 0.2036893 0.2038904 0.2041134 0.2043478 0.2045811
 0.2048081 0.205027 0.2052376 0.2054426 0.2056407 0.2058215 0.2059767 0.2061166 0.2062699 0.206462
 0.2066935 0.20694 0.2071764 0.2073972 0.2076083 0.2078113 0.2080006 0.2081703 0.2083245 0.2084871
 0.208689 0.208934 0.2091937 0.2094442 0.2096864 0.2099241 0.2101545 0.2103841 0.2106174 0.2108282
 0.2109804 0.2110888 0.211233 0.2114923 0.2118644 0.2122601 0.212586 0.2128262 0.2130295 0.2132468
 0.2135025 0.2137776 0.2139817 0.2140129 0.2139154 0.2139106 0.2141913 0.2147255 0.2153171 0.2158082
 0.2161716 0.2164551 0.2167014 0.2169116 0.217048 0.2170775 0.2170427 0.217088 0.2173608 0.2178559
 0.2184057 0.2188516 0.2191688 0.2194061 0.2195996 0.2197701 0.2198803 0.2197784 0.2193589 0.2188431
 0.2187192 0.2192698 0.2202557 0.221175 0.22176 0.2221093 0.2224038 0.2226811 0.2228962 0.2229618
 0.2226323 0.2216439 0.2202323 0.2192791 0.2195835 0.2210561 0.2228657 0.2242704 0.2250864 0.225502
 0.2257528 0.2259656 0.2260651 0.225781 0.2249513 0.2239252 0.2234733 0.224074 0.2253723 0.226558
 0.2271931 0.2274434 0.227641 0.2279131 0.2280956 0.2277039 0.2262146 0.2238402 0.2219047 0.22191
 0.2240687 0.227047 0.2292838 0.2303309 0.2307239 0.2308255 0.2302888 0.2286733 0.2261064 0.2232344
 0.2210032 0.2205031 0.2222472 0.2252963 0.2277983 0.2288087 0.2290857 0.2298592 0.231371 0.2328841
 0.2336343 0.2334204 0.2324761 0.2310501 0.2292874 0.2276132 0.2269625 0.2281174 0.2307573 0.2335757
 0.2354898 0.2364604 0.2369143 0.2364706 0.2336959 0.2278254 0.2208951 0.2171725 0.219397 0.2259239
 0.2324923 0.2364145 0.2380562 0.2388389 0.2393215 0.2390424 0.2368037 0.2313416 0.223336 0.2166487
 0.2157039 0.221114 0.2289854 0.2345471 0.2353816 0.2316644 0.2253218 0.219472 0.2171511 0.2194726
 0.2251368 0.2317144 0.2371028 0.2401116 0.2404586 0.2386607 0.2360058 0.2342383 0.2342887 0.234904
 0.2336067 0.2298158 0.2257985 0.2233438 0.2210087 0.2168047 0.2125683 0.2127545 0.2186389 0.2261713
 0.2305186 0.2309636 0.2300416 0.2289386 0.2254817 0.2172737 0.2062253 0.1986726 0.1998409 0.2084163
 0.2177086 0.2222012 0.2219409 0.2206005 0.2205825 0.2205651 0.2173642 0.2100859 0.2022755 0.1989511
 0.2012715 0.2055022 0.2074534 0.2058366 0.2008214 0.1926821 0.1841838 0.1814801 0.1889474 0.2038467
 0.2184471 0.2263865 0.2250298 0.2141304 0.1967423 0.1810765 0.1765146 0.1852199 0.1995113 0.2089152
 0.2084858 0.1997376 0.1861799 0.1708847 0.1578774 0.1526361 0.1588436 0.1746278 0.1925212 0.2031671
 0.2005225 0.1865806 0.1718013 0.1676071 0.1759845 0.1880729 0.1940517 0.1920359 0.1867688 0.1835348
 0.1850965 0.1911047 0.1984745 0.2043151 0.2082442 0.2091438 0.2020743 0.1842122 0.1627079 0.1499599
 0.1507472 0.1598255 0.171835 0.1860972 0.2000977 0.2062028 0.200256 0.1894164 0.1860396 0.1945644
 0.2077261 0.2154412 0.2147833 0.2105116 0.207741 0.2065113 0.2043108 0.2019371 0.2037204 0.2115329
 0.221504 0.2283409 0.2308399 0.2313984 0.2319587 0.2325377 0.2325994 0.2319401 0.2306149 0.2290861
 0.2280844 0.2277857 0.227644 0.2272164 0.2261538 0.2229623 0.2153241 0.2033552 0.1916713 0.1857314
 0.1860529 0.1885933 0.1907626 0.1929428 0.1928858 0.1841172 0.164487 0.1432065 0.1341428 0.1424133
 0.160574 0.1771139 0.1852742 0.183636 0.1726922 0.1550583 0.1382027 0.1320854 0.1410233 0.1595506
 0.1782685 0.1919341 0.1999934 0.2020746 0.1970565 0.1863059 0.1749168 0.1687746 0.1709938 0.1805782
 0.1927365 0.2000823 0.1962626 0.1823028 0.1693703 0.1704985 0.1868956 0.205898 0.2152051 0.2153147
 0.2144399 0.2157361 0.2157906 0.2136582 0.2144202 0.2222586 0.2343233 0.2435425 0.2448348 0.2371193
 0.2226284 0.2073749 0.1995824 0.2030679 0.2128351 0.2204432 0.2221301 0.2183191 0.2086687 0.1941541
 0.1822993 0.1826483 0.1957232 0.2117931 0.2219291 0.2261371 0.2292957 0.2327504 0.2326658 0.2258195
 0.214974 0.2071714 0.2067788 0.2116857 0.2169071 0.2198384 0.2202974 0.2175665 0.2108363 0.2025808
 0.1985849 0.2029282 0.2137458 0.2249323 0.2315662 0.2329897 0.2314169 0.2290541 0.2265982 0.2233881
 0.2188762 0.214552 0.2136557 0.2177175 0.2241316 0.2288437 0.231002 0.2332347 0.2375129 0.2424246
 0.2448905 0.2435236 0.2399416 0.2373543 0.237999 0.2413746 0.2446104 0.2449057 0.2421925 0.239451
 0.2399606 0.2441632 0.2495994 0.2537121 0.2559363 0.2571582 0.2582009 0.2591065 0.2591047 0.2571912
 0.2535446 0.2503589 0.2502913 0.2538274 0.2588202 0.262717 0.264628 0.2651728 0.2650629 0.2643549
 0.2628804 0.2609347 0.2592927 0.2585919 0.2588732 0.2597377 0.2607645 0.2616961 0.2624139 0.2629128
 0.2632589 0.2635012 0.2636513 0.2637422 0.2638158 0.2638404 0.2637466 0.2635828 0.2635385 0.2637403
 0.264086 0.2643483 0.264383 0.2641501 0.2635916 0.2626352 0.2613327 0.259863 0.2583385 0.2567153
 0.2550167 0.2536155 0.2531465 0.2540277 0.2560665 0.2585663 0.2608082 0.2624227 0.2633987 0.2638915
 0.2640808 0.2641217 0.2641129 0.264073 0.2639666 0.2637631 0.2634696 0.263116 0.262729 0.2623312
 0.2619522 0.2616181 0.2613276 0.2610449 0.2607211 0.2603253 0.2598602 0.2593542 0.2588282 0.2582653
 0.2576173 0.2568467 0.2559608 0.2550089 0.2540594 0.2531721 0.2523668 0.25161 0.2508463 0.2500392
 0.2491614 0.2481658 0.2470276 0.2458247 0.2447216 0.2438363 0.2431468 0.2425406 0.2419133 0.2412025
 0.2403732 0.2394196 0.2383729 0.237276 0.2361523 0.2350005 0.2338069 0.2325526 0.2312192 0.2297982
 0.2282925 0.2267137 0.2250845 0.2234324 0.2217568 0.2199937 0.2180224 0.2157075 0.2129317 0.2096063
 0.2056941 0.2012514 0.1964427 0.191494 0.1866171 0.1819667 0.1776493 0.1737531 0.1703638 0.1675623
 0.1654163 0.1639719 0.1632489 0.1632443 0.1639382 0.1652905 0.1672319 0.1696588 0.1724392 0.1754218
 0.1784408 0.1813292 0.1839639 0.1863264 0.1885016 0.1905845 0.1925825 0.1944256 0.1960554 0.1974688
 0.1986829 0.1997038 0.2005434 0.2012387 0.2018345 0.2023579 0.2028158 0.2032088 0.2035384 0.2038055
 0.2040135 0.2041776 0.2043258 0.204484 0.2046672 0.2048848 0.205148 0.2054696 0.2058619 0.2063298
 0.2068582 0.2074158 0.2079824 0.2085649 0.2091791 0.2098325 0.210539 0.2113345 0.2122649 0.2133584
 0.2146091 0.2159755 0.2173859 0.2187483 0.2199663 0.2209648 0.221713 0.2222207 0.2225104 0.222605
 0.2225377 0.2223497 0.222066 0.221689 0.2212195 0.2206732 0.220073 0.2194389 0.2187848 0.2181139
 0.2174229 0.2167172 0.2160156 0.2153312 0.2146582 0.2139873 0.2133264 0.2126946 0.2120976 0.2115213
 0.2109485 0.2103754 0.2098073 0.209245 0.2086817 0.2081038 0.2074838 0.2067796 0.2059587 0.2050229
 0.2039985 0.2029007 0.2017212 0.2004489 0.199088 0.1976501 0.1961375 0.1945463 0.19288 0.1911483
 0.1893454 0.1874489 0.1854579 0.1834274 0.1814475 0.1795883 0.1778706 0.1762743 0.174763 0.1733116
 0.1719245 0.170621 0.1694041 0.1682559 0.1671597 0.1661084 0.1650989 0.1641347 0.1632344 0.1624217
 0.1617074 0.1610832 0.1605324 0.1600462 0.1596278 0.1592821 0.159014 0.1588405 0.1587829 0.1588291
 0.1589168 0.1589689 0.1589397 0.1588301 0.1586797 0.1585437 0.1584595 0.1584248 0.158403 0.1583369
 0.1581611 0.1578133 0.1572346 0.1563682 0.1551815 0.1536941 0.1519743 0.1501221 0.1482689 0.1465606
 0.1451062 0.1439476 0.1430718 0.1424237 0.1419228 0.14151 0.1411868 0.1410028 0.1410092 0.1411997
 0.1414652 0.141647 0.1416847 0.1416866 0.1418277 0.1422122 0.1428338 0.1435982 0.1443719 0.1450532
 0.1456029 0.1460055 0.1462524 0.1463713 0.1464059 0.1463607 0.1462187 0.1459931 0.1457162 0.1454014
 0.1450466 0.1446425 0.1441739 0.1436363 0.1430306 0.1423343 0.1415214 0.1405972 0.1395575 0.1383677
 0.1370762 0.1359095 0.1351665 0.13503 0.1354796 0.1363249 0.1373332 0.1383779 0.1394039 0.1402324
 0.1405997 0.1405523 0.14067 0.1416575 0.1436764 0.1461719 0.1483682 0.149833 0.1505453 0.1506159
 0.1501324 0.1491693 0.1477382 0.1457693 0.1432646 0.1403786 0.1372842 0.134114 0.1310498 0.1282908
 0.1259435 0.1240457 0.1226107 0.1216731 0.1213384 0.1211966 0.1193104 0.113238 0.1038176 0.09681292
 0.09805164 0.1068705 0.1166033 0.1216195 0.1217855 0.1201053 0.1186313 0.1176649 0.1171192 0.1171671
 0.1179353 0.1192436 0.1206749 0.1218329 0.1225704 0.1229366 0.1228993 0.1221111 0.119833 0.1151793
 0.1078293 0.09865363 0.08941638 0.08173856 0.07635954 0.07315511 0.0715102 0.07069423 0.07020745 0.06998587
 0.07029133 0.07138306 0.07329646 0.0759017 0.07904213 0.08248493 0.08581868 0.08862875 0.09081434 0.09257051
 0.09403755 0.09512208 0.09567438 0.09568864 0.09529296 0.09464985 0.09390324 0.09313662 0.09231158 0.09129362
 0.09004603 0.08880122 0.08791728 0.08752714 0.08744091 0.08741108 0.08735514 0.08730036 0.08726221 0.08722897
 0.0871883 0.08716562 0.08726179 0.0875835 0.08809607 0.08861212 0.08895536 0.08909833 0.08913532 0.08911571
 0.08890095 0.08829556 0.08739431 0.08660387 0.08612456 0.08560838 0.08461645 0.08328774 0.08225618 0.08195066
 0.08221094 0.08256543 0.08267236 0.08248083 0.08217983 0.08209655 0.08247795 0.08319455 0.0837438 0.08371608
</values></Ydata></ScRf><Data_Parameters_AB><parameter name="DPF">1</parameter><parameter name="NPT">3497</parameter><parameter name="FXV">3996</parameter><parameter name="LXV">500</parameter><parameter name="CSF">1</parameter><parameter name="MXY">0.863186538219452</parameter><parameter name="MNY">-0.0727121159434319</parameter><parameter name="DAT">01/06/2022</parameter><parameter name="TIM">11:51:44.286 (GMT+2)</parameter><parameter name="DXU">WN</parameter></Data_Parameters_AB><AB__Qtest><MainReport name="Quality Test Report"><Header><Line><Legend>Test result ok/not ok [1/0]: </Legend><Value>1</Value></Line><Line><Legend>Method file: </Legend><Value>C:\Users\Public\Documents\Bruker\OPUS_8.2.28\QT\IRBT_v3_default.QT</Value></Line></Header><Matrix><Line><Legend></Legend><Legend>min</Legend><Legend>max</Legend><Legend>measured</Legend></Line><Line><Value>Absorption (X-Range 1):</Value><Value>0.400000</Value><Value>2.000000</Value><Value>0.589472</Value></Line><Line><Value>Noise (X-Range 4):</Value><Value></Value><Value>0.000300</Value><Value>0.000064</Value></Line><Line><Value>Signal/Noise (X-Range 2):</Value><Value>200.000000</Value><Value></Value><Value>208.471468</Value></Line><Line><Value>Signal/Noise (X-Range 3):</Value><Value>40.000000</Value><Value></Value><Value>95.317356</Value></Line><Line><Value>Water vapour (X-Range 5):</Value><Value></Value><Value>0.000300</Value><Value>0.000078</Value></Line><Line><Value>Signal/Water (X-Range 2):</Value><Value>100.000000</Value><Value></Value><Value>171.223414</Value></Line><Line><Value>Signal/Water (X-Range 3):</Value><Value>20.000000</Value><Value></Value><Value>78.286795</Value></Line><Line><Value>Fringes (X-Range 6):</Value><Value></Value><Value>0.000100</Value><Value>0.000094</Value></Line></Matrix></MainReport></AB__Qtest><Data_Parameters_ScSm><parameter name="DPF">1</parameter><parameter name="NPT">1814</parameter><parameter name="FXV">3996.33169228125</parameter><parameter name="LXV">499.541461535156</parameter><parameter name="CSF">1</parameter><parameter name="MXY">0.25270402431488</parameter><parameter name="MNY">0.0193783268332481</parameter><parameter name="DAT">01/06/2022</parameter><parameter name="TIM">11:51:44.286 (GMT+2)</parameter><parameter name="DXU">WN</parameter></Data_Parameters_ScSm><Data_Parameters_ScRf><parameter name="DPF">1</parameter><parameter name="NPT">1820</parameter><parameter name="FXV">4004.04661832813</parameter><parameter name="LXV">495.683998511719</parameter><parameter name="CSF">1</parameter><parameter name="MXY">0.265172839164734</parameter><parameter name="MNY">0.0283195879310369</parameter><parameter name="DAT">01/06/2022</parameter><parameter name="TIM">11:51:18.219 (GMT+2)</parameter><parameter name="DXU">WN</parameter></Data_Parameters_ScRf><Optic_Parameters_Rf><parameter name="APR">0</parameter><parameter name="APT">Open</parameter><parameter name="BMS">KBr</parameter><parameter name="DTC">RT-DLaTGS_IR-Biotyper [Microplate reader]</parameter><parameter name="HPF">0</parameter><parameter name="LPF">10.0</parameter><parameter name="LPV">4000</parameter><parameter name="PGR">0</parameter><parameter name="RCH">Module port</parameter><parameter name="RDX">0</parameter><parameter name="SRC">MIR</parameter><parameter name="VEL">10.0</parameter><parameter name="SON">Off</parameter></Optic_Parameters_Rf><Acquisition_Parameters_Rf><parameter name="ADT">1</parameter><parameter name="AQM">DD</parameter><parameter name="CFE">0</parameter><parameter name="COR">0</parameter><parameter name="DEL">0</parameter><parameter name="DLY">0</parameter><parameter name="HFW">8000</parameter><parameter name="LFW">0</parameter><parameter name="NSR">32</parameter><parameter name="PLF">AB</parameter><parameter name="RES">6</parameter><parameter name="RGN">-1</parameter><parameter name="STR">0</parameter><parameter name="TCL">MakeCompatibleScalar (0, {WSV=1.000000, ARV=0});</parameter><parameter name="TDL">37</parameter><parameter name="RPO">0</parameter></Acquisition_Parameters_Rf><FT_-_Parameters_Rf><parameter name="APF">B3</parameter><parameter name="HFQ">500</parameter><parameter name="LFQ">4000</parameter><parameter name="NLI">0</parameter><parameter name="PHR">24</parameter><parameter name="PHZ">ML</parameter><parameter name="SPZ">NO</parameter><parameter name="ZFF">1</parameter></FT_-_Parameters_Rf><Optic_Parameters_><parameter name="APR">0</parameter><parameter name="APT">Open</parameter><parameter name="BMS">KBr</parameter><parameter name="CHN">Module port</parameter><parameter name="DTC">RT-DLaTGS_IR-Biotyper [Microplate reader]</parameter><parameter name="HPF">0</parameter><parameter name="LPF">10.0</parameter><parameter name="LPV">4000</parameter><parameter name="PGN">0</parameter><parameter name="RDX">0</parameter><parameter name="SRC">MIR</parameter><parameter name="VEL">10.0</parameter><parameter name="SON">Off</parameter></Optic_Parameters_><FT_-_Parameters_><parameter name="APF">B3</parameter><parameter name="HFQ">500</parameter><parameter name="LFQ">4000</parameter><parameter name="NLI">0</parameter><parameter name="PHR">24</parameter><parameter name="PHZ">ML</parameter><parameter name="SPZ">NO</parameter><parameter name="ZFF">1</parameter></FT_-_Parameters_><Acquisition_Parameters_><parameter name="ADT">1</parameter><parameter name="AQM">DD</parameter><parameter name="CFE">0</parameter><parameter name="COR">0</parameter><parameter name="DEL">0</parameter><parameter name="DLY">0</parameter><parameter name="HFW">8000</parameter><parameter name="LFW">0</parameter><parameter name="NSS">32</parameter><parameter name="PLF">AB</parameter><parameter name="RES">6</parameter><parameter name="SOT">0</parameter><parameter name="TCL">MakeCompatibleScalar (0, {WSV=1.000000, ARV=0});</parameter><parameter name="TDL">37</parameter><parameter name="SPO">0</parameter><parameter name="SGN">-1</parameter></Acquisition_Parameters_><Instrument_Parameters_Rf><parameter name="HFL">15800.168544</parameter><parameter name="LFL">0</parameter><parameter name="LWN">15800.168544</parameter><parameter name="ABP">32197</parameter><parameter name="SSP">1</parameter><parameter name="ARG">2</parameter><parameter name="ASG">2</parameter><parameter name="ASS">32</parameter><parameter name="GFW">16</parameter><parameter name="GBW">16</parameter><parameter name="BFW">0</parameter><parameter name="BBW">0</parameter><parameter name="PKA">7311</parameter><parameter name="PKL">4990</parameter><parameter name="PRA">7480</parameter><parameter name="PRL">5001</parameter><parameter name="P2A">1</parameter><parameter name="P2L">1</parameter><parameter name="P2R">1</parameter><parameter name="P2K">1</parameter><parameter name="DAQ">0</parameter><parameter name="AG2">1</parameter><parameter name="SSM">1</parameter><parameter name="RSN">25951</parameter><parameter name="CRR">0</parameter><parameter name="SRT">1654084278.219</parameter><parameter name="DUR">19.6379852294922</parameter><parameter name="TSC">29</parameter><parameter name="MVD">0.666942954063416</parameter><parameter name="AN1">0.225816807599558</parameter><parameter name="AN2">0</parameter><parameter name="VSN">2.485 Apr  4 2017</parameter><parameter name="SRN">0085</parameter><parameter name="CAM">0</parameter><parameter name="INS">IR-Biotyper</parameter><parameter name="FOC">69</parameter><parameter name="RDY">1</parameter><parameter name="ARS">32</parameter></Instrument_Parameters_Rf><Sample_Parameters_><parameter name="BLD"></parameter><parameter name="CNM">Admin</parameter><parameter name="CPY"></parameter><parameter name="DPM"></parameter><parameter name="EXP">IRBT_v3_32Scans.XPM</parameter><parameter name="LCT"></parameter><parameter name="SFM">Microplate, HTS-XT</parameter><parameter name="SNM">220601-1028(v.3)_MPP28F (D_2)_B8_0ead39ab-f0a5-4d9c-bf3a-4e5cac9abea3.0</parameter><parameter name="XPP">C:\Users\Public\Documents\Bruker\OPUS_8.2.28\XPM</parameter><parameter name="IST">OK</parameter><parameter name="CPG">1252</parameter><parameter name="UID">234ffee7-8acc-454b-b479-81c71b630934</parameter></Sample_Parameters_><Instrument_Parameters_><parameter name="HFL">15800.168544</parameter><parameter name="LFL">0</parameter><parameter name="LWN">15800.168544</parameter><parameter name="ABP">32197</parameter><parameter name="SSP">1</parameter><parameter name="ASG">4</parameter><parameter name="ARG">2</parameter><parameter name="ASS">32</parameter><parameter name="GFW">16</parameter><parameter name="GBW">16</parameter><parameter name="BFW">0</parameter><parameter name="BBW">0</parameter><parameter name="PKA">5796</parameter><parameter name="PKL">4988</parameter><parameter name="PRA">6046</parameter><parameter name="PRL">4993</parameter><parameter name="P2A">1</parameter><parameter name="P2L">1</parameter><parameter name="P2R">1</parameter><parameter name="P2K">1</parameter><parameter name="DAQ">0</parameter><parameter name="AG2">1</parameter><parameter name="SSM">1</parameter><parameter name="RSN">13601</parameter><parameter name="CRR">0</parameter><parameter name="SRT">1654084304.287</parameter><parameter name="DUR">19.6389923095703</parameter><parameter name="TSC">29</parameter><parameter name="MVD">0.2909896671772</parameter><parameter name="AN1">0.225800348376454</parameter><parameter name="AN2">0</parameter><parameter name="VSN">2.485 Apr  4 2017</parameter><parameter name="SRN">0085</parameter><parameter name="CAM">0</parameter><parameter name="INS">IR-Biotyper</parameter><parameter name="FOC">69</parameter><parameter name="RDY">1</parameter></Instrument_Parameters_><History/></OPUSDataFile>
