<?xml version="1.0" encoding="UTF-8" ?>
<OPUSDataFile><AB><Ydata ylabel="Absorbance Units"><values byteorder="INTEL" format="FLOAT32" numvalues="3497"> -0.06097474 -0.06092647 -0.06087323 -0.06081447 -0.06075899 -0.06070725 -0.06066048 -0.06061851 -0.06057858 -0.06054163
 -0.06051167 -0.06049003 -0.06048482 -0.06049369 -0.06051628 -0.06054752 -0.06057852 -0.06060762 -0.06062882 -0.06064444
 -0.06065516 -0.0606606 -0.06066136 -0.06065469 -0.06063887 -0.06061593 -0.06058531 -0.06055326 -0.06052111 -0.0604898
 -0.06045984 -0.06042601 -0.06038804 -0.06034518 -0.06029805 -0.06025472 -0.06021538 -0.06018592 -0.06016462 -0.0601477
 -0.0601353 -0.06012406 -0.06011915 -0.06012793 -0.06015313 -0.06020486 -0.06027082 -0.06034827 -0.06041515 -0.06045737
 -0.06046707 -0.06043413 -0.06037565 -0.06029202 -0.0602086 -0.06012984 -0.06006905 -0.06002843 -0.06000809 -0.06000813
 -0.0600233 -0.06005307 -0.06008964 -0.06013222 -0.06017223 -0.06020909 -0.06023647 -0.06025366 -0.0602552 -0.06024243
 -0.06021321 -0.06017453 -0.06013295 -0.06009562 -0.06007332 -0.06005951 -0.0600565 -0.06004629 -0.06002053 -0.05997683
 -0.05990883 -0.05984182 -0.05977785 -0.05974495 -0.05974686 -0.05979067 -0.05987702 -0.05999324 -0.06013769 -0.06028606
 -0.06043518 -0.06055321 -0.06063829 -0.06066305 -0.06063556 -0.06055817 -0.0604471 -0.06033153 -0.06021897 -0.06013285
 -0.06006426 -0.06001723 -0.05997065 -0.0599134 -0.05983334 -0.05971716 -0.05958797 -0.05944443 -0.05933284 -0.05926207
 -0.05925241 -0.05930995 -0.05940057 -0.05952276 -0.05961993 -0.05969149 -0.05971733 -0.05970319 -0.05967464 -0.05963685
 -0.05962416 -0.0596336 -0.05967825 -0.05974536 -0.05982025 -0.0598905 -0.05993214 -0.05994999 -0.05993703 -0.05991019
 -0.05987771 -0.05984858 -0.05982905 -0.0598185 -0.05981737 -0.05982709 -0.05984819 -0.05988109 -0.05992761 -0.0599653
 -0.0599932 -0.05995921 -0.0598637 -0.05969952 -0.0594777 -0.05926922 -0.05907605 -0.05894458 -0.05886604 -0.05884228
 -0.05886418 -0.05891971 -0.05899581 -0.05907424 -0.05914116 -0.05917632 -0.05918278 -0.05915207 -0.05910777 -0.05905794
 -0.05901541 -0.05898827 -0.05896379 -0.05894097 -0.05890873 -0.05886449 -0.05881952 -0.05877427 -0.05874779 -0.05874016
 -0.05875536 -0.05879089 -0.05883275 -0.05887817 -0.05890925 -0.05892493 -0.05891338 -0.05887542 -0.05880538 -0.05870936
 -0.0585893 -0.05845974 -0.05833164 -0.05822029 -0.05813792 -0.05809045 -0.05808512 -0.05811386 -0.05817877 -0.05825711
 -0.05834676 -0.05842077 -0.05847588 -0.05849696 -0.05848273 -0.05843773 -0.05836282 -0.05827322 -0.05816906 -0.05805853
 -0.05794077 -0.05781527 -0.05768478 -0.05755408 -0.05743063 -0.05732992 -0.0572561 -0.0572235 -0.0572234 -0.05725677
 -0.05730418 -0.05735525 -0.0573953 -0.05741442 -0.057413 -0.05738743 -0.05735049 -0.05730303 -0.05726088 -0.05722604
 -0.05720654 -0.05720316 -0.05721091 -0.05722908 -0.05724452 -0.05725706 -0.05725808 -0.0572501 -0.05723811 -0.05722492
 -0.05722095 -0.05722579 -0.05724384 -0.05727286 -0.0573114 -0.05735883 -0.05741306 -0.05747747 -0.05755316 -0.05764393
 -0.05775407 -0.05787487 -0.05800888 -0.05812703 -0.05822558 -0.05827662 -0.05827538 -0.05822189 -0.05811575 -0.05796425
 -0.05776804 -0.05753561 -0.05727189 -0.05701418 -0.05676904 -0.05658415 -0.0564584 -0.0564172 -0.05644631 -0.05653889
 -0.05666401 -0.05677939 -0.05686809 -0.05689209 -0.05687672 -0.05682515 -0.05676447 -0.05671099 -0.05666089 -0.0566191
 -0.05656305 -0.05648793 -0.05638817 -0.05626014 -0.05613285 -0.05600772 -0.05592041 -0.0558716 -0.05587372 -0.05592384
 -0.05601009 -0.05612521 -0.05623576 -0.05633295 -0.05637176 -0.05636044 -0.05628759 -0.05617847 -0.05606354 -0.05595094
 -0.05586291 -0.0557846 -0.05571406 -0.0556355 -0.05553906 -0.05542796 -0.05529874 -0.05516934 -0.05504278 -0.05492982
 -0.05483304 -0.0547462 -0.05466931 -0.0545844 -0.05449094 -0.05437799 -0.05424841 -0.05411774 -0.05398895 -0.05388414
 -0.05380054 -0.05374169 -0.05370464 -0.05368514 -0.05368288 -0.05369666 -0.05372405 -0.05376437 -0.05380985 -0.05385722
 -0.0538957 -0.05392282 -0.05392054 -0.05388572 -0.05379377 -0.05363747 -0.05341632 -0.05312628 -0.05280681 -0.05245996
 -0.0521286 -0.05181391 -0.05153402 -0.05128797 -0.05107786 -0.05090229 -0.0507578 -0.05064161 -0.05054491 -0.05046509
 -0.05039332 -0.05032839 -0.05026765 -0.05020342 -0.05013191 -0.05003504 -0.04989778 -0.04971984 -0.04949122 -0.0492429
 -0.04898224 -0.04872892 -0.04848967 -0.04826111 -0.04804388 -0.04783021 -0.0476195 -0.04740983 -0.04720153 -0.04700252
 -0.04681379 -0.04664852 -0.04650393 -0.04637939 -0.04626324 -0.04612315 -0.04595129 -0.04570966 -0.045419 -0.04508765
 -0.04474352 -0.04441761 -0.04411712 -0.04385677 -0.0436311 -0.0434439 -0.04327775 -0.04313125 -0.0429767 -0.04280778
 -0.04261259 -0.0423873 -0.04214563 -0.04188813 -0.04163105 -0.04137465 -0.04112011 -0.04086713 -0.04061279 -0.04035939
 -0.04011544 -0.03988294 -0.03967347 -0.0394836 -0.03931444 -0.03915641 -0.03899799 -0.03883054 -0.03863934 -0.03842973
 -0.03819788 -0.03796063 -0.03772638 -0.03749797 -0.0372823 -0.0370556 -0.03681455 -0.03653934 -0.03622392 -0.03589292
 -0.03554694 -0.03523107 -0.03494633 -0.03470447 -0.03450203 -0.03431717 -0.03414687 -0.03396548 -0.03377492 -0.03356602
 -0.03334517 -0.03312017 -0.03289612 -0.03268469 -0.03248334 -0.03229634 -0.03211204 -0.03192547 -0.03172399 -0.03149861
 -0.03125191 -0.03098025 -0.03070129 -0.03041759 -0.03014384 -0.0298829 -0.02963574 -0.02940296 -0.0291743 -0.02894921
 -0.0287172 -0.02847838 -0.02822931 -0.02797038 -0.02770154 -0.02742306 -0.02713462 -0.02683876 -0.02653899 -0.02624062
 -0.02595228 -0.02567707 -0.02542181 -0.02518452 -0.02496634 -0.02476346 -0.02457518 -0.02439584 -0.02422457 -0.02405303
 -0.0238798 -0.02369725 -0.02350418 -0.02329704 -0.02307538 -0.02283976 -0.02259053 -0.022336 -0.02207798 -0.02183524
 -0.02160868 -0.0214147 -0.02124801 -0.0211041 -0.02097278 -0.02083133 -0.02067496 -0.02048434 -0.02026881 -0.02002738
 -0.01977838 -0.01953371 -0.01930425 -0.01910063 -0.01891536 -0.01875067 -0.01858715 -0.0184217 -0.01823823 -0.01803378
 -0.01780392 -0.01754763 -0.01727489 -0.01698666 -0.01670552 -0.01643295 -0.01619202 -0.01598138 -0.01580862 -0.01566825
 -0.0155495 -0.01544547 -0.01533736 -0.01522163 -0.01508377 -0.01492852 -0.01475315 -0.01456942 -0.01438436 -0.01420558
 -0.01404034 -0.0138832 -0.01373472 -0.0135857 -0.01343325 -0.01327893 -0.01312217 -0.01296987 -0.01282285 -0.01267683
 -0.01253131 -0.01237173 -0.01219825 -0.01200473 -0.01179462 -0.01158006 -0.01136523 -0.01116969 -0.01099281 -0.0108442
 -0.01071751 -0.01060805 -0.01051033 -0.01041622 -0.01032639 -0.01023883 -0.01015527 -0.01007731 -0.01000085 -0.00992543
 -0.009845549 -0.009759552 -0.00966714 -0.009568009 -0.009463162 -0.009352718 -0.009235751 -0.009112214 -0.008981475 -0.008843198
 -0.008694641 -0.008534589 -0.008354791 -0.008156432 -0.007936227 -0.007701776 -0.00746607 -0.007237033 -0.007033269 -0.006852927
 -0.006702299 -0.006573276 -0.006460879 -0.006364067 -0.006279912 -0.006214 -0.006169236 -0.006141315 -0.00613228 -0.006122286
 -0.006109403 -0.006075162 -0.006017475 -0.005936403 -0.005832186 -0.005716518 -0.005589528 -0.005456876 -0.005318048 -0.00517209
 -0.005021529 -0.004872519 -0.004729846 -0.004607788 -0.004505127 -0.004429341 -0.004368588 -0.004315547 -0.004255847 -0.004175751
 -0.004073341 -0.003940256 -0.003794612 -0.003637974 -0.003496515 -0.00337746 -0.003288552 -0.003234163 -0.003193149 -0.003164487
 -0.00312376 -0.003070421 -0.003011434 -0.002949479 -0.002914503 -0.002905171 -0.002933715 -0.002990474 -0.003052948 -0.003111918
 -0.003134595 -0.003124689 -0.003069489 -0.002987143 -0.002889953 -0.002795557 -0.002723544 -0.002670167 -0.00264372 -0.002616674
 -0.002582168 -0.002518643 -0.002415615 -0.002290797 -0.002141904 -0.002016864 -0.00191955 -0.001880729 -0.001901071 -0.001963191
 -0.002063138 -0.002154992 -0.002238217 -0.002284216 -0.00229952 -0.002290156 -0.002260346 -0.002224421 -0.002176913 -0.002115434
 -0.002036163 -0.001929136 -0.001809197 -0.001679723 -0.001566061 -0.001483554 -0.001438209 -0.00144045 -0.001464727 -0.001509497
 -0.001540834 -0.001552749 -0.001533301 -0.001479887 -0.001409765 -0.00132405 -0.001253983 -0.00120041 -0.001185171 -0.001204684
 -0.001254804 -0.001327099 -0.001393372 -0.00144723 -0.001458825 -0.001433301 -0.001361549 -0.001261473 -0.001146695 -0.001034688
 -0.0009444059 -0.0008764124 -0.0008391633 -0.0008156373 -0.0008028308 -0.0007838146 -0.0007534401 -0.0007074979 -0.0006444292 -0.0005660781
 -0.0004726568 -0.000361664 -0.0002330194 -8.538482E-05 7.974971E-05 0.0002491248 0.0004186145 0.0005600865 0.0006709242 0.0007253253
 0.0007295388 0.0006797602 0.000594729 0.0004976098 0.0004108046 0.0003683904 0.0003753858 0.0004530517 0.0005742703 0.0007372011
 0.0008960754 0.001035606 0.001124607 0.001149719 0.001117932 0.001025395 0.0009091335 0.000771635 0.0006463071 0.0005345772
 0.0004404556 0.0003623622 0.0002838171 0.0002055871 0.0001215358 3.731256E-05 -3.112357E-05 -8.146468E-05 -9.689255E-05 -8.825529E-05
 -6.052403E-05 -3.50526E-05 -3.548766E-05 -7.757713E-05 -0.0001837227 -0.0003477366 -0.0005778224 -0.0008436664 -0.001140258 -0.001429411
 -0.001701402 -0.00193388 -0.002120187 -0.002267292 -0.002374035 -0.002469219 -0.002554359 -0.002659671 -0.002784876 -0.00293928
 -0.003117929 -0.003300284 -0.003480649 -0.003626929 -0.003743093 -0.003818054 -0.00386829 -0.003913289 -0.003967678 -0.004057788
 -0.004179753 -0.004343476 -0.004526776 -0.004723235 -0.004908195 -0.005070725 -0.005201453 -0.005292924 -0.005362331 -0.005408728
 -0.005467942 -0.005543162 -0.005657933 -0.005813244 -0.005996504 -0.006205027 -0.006404109 -0.006592943 -0.006748171 -0.006873528
 -0.006968417 -0.007038009 -0.00709265 -0.007137536 -0.00718432 -0.007238084 -0.007309285 -0.007398125 -0.007509716 -0.00763684
 -0.00777822 -0.007924086 -0.008070965 -0.008212049 -0.008345286 -0.008466263 -0.008573783 -0.008667599 -0.008747227 -0.008818957
 -0.008883137 -0.008949167 -0.009017334 -0.00909385 -0.009178548 -0.00927397 -0.009379489 -0.009495092 -0.009618657 -0.00974605
 -0.009874117 -0.009995443 -0.0101102 -0.01021428 -0.01031347 -0.01041026 -0.01051102 -0.01062074 -0.01073884 -0.01086737
 -0.01099929 -0.01113343 -0.01126387 -0.01138927 -0.01150873 -0.01162201 -0.01172947 -0.01183112 -0.01192811 -0.0120209
 -0.01211523 -0.01221202 -0.01232008 -0.01243863 -0.01257055 -0.01271271 -0.01285965 -0.01300855 -0.01315235 -0.01329034
 -0.01341967 -0.01353872 -0.01364663 -0.01373819 -0.01381056 -0.01385997 -0.01388214 -0.01388596 -0.01386954 -0.013859
 -0.01385689 -0.01389162 -0.01396691 -0.01408819 -0.01425578 -0.01444347 -0.01464875 -0.01483317 -0.0149962 -0.01511354
 -0.01518974 -0.01522516 -0.01522968 -0.01522402 -0.01522025 -0.01524768 -0.0153101 -0.01542786 -0.01558437 -0.01577826
 -0.01597905 -0.01616968 -0.01633359 -0.016457 -0.0165522 -0.01661836 -0.0166751 -0.01672714 -0.01677282 -0.01681349
 -0.01682897 -0.01681823 -0.01677106 -0.01668926 -0.01659144 -0.01648251 -0.01640065 -0.01634836 -0.01635728 -0.01642089
 -0.01654323 -0.01670839 -0.01689358 -0.01708459 -0.01725417 -0.01740343 -0.01752189 -0.01762303 -0.01771234 -0.01779595
 -0.01787982 -0.01795469 -0.01801901 -0.01806714 -0.01809603 -0.01811877 -0.01813597 -0.01816362 -0.01820262 -0.01824823
 -0.01829922 -0.01833698 -0.01836229 -0.01836938 -0.01836221 -0.01835261 -0.01834163 -0.01833894 -0.0183403 -0.01834213
 -0.01834321 -0.0183375 -0.01833512 -0.01833967 -0.01836682 -0.01842728 -0.01852538 -0.01866884 -0.01884085 -0.01904164
 -0.01924096 -0.01943449 -0.01959786 -0.01972729 -0.01982149 -0.01988017 -0.01992661 -0.01996258 -0.02001826 -0.0200928
 -0.02019853 -0.02032929 -0.0204703 -0.02061478 -0.02073735 -0.02083959 -0.02090997 -0.02096005 -0.02099795 -0.02103491
 -0.02108447 -0.02114594 -0.02122519 -0.0213092 -0.02139558 -0.02146935 -0.02152547 -0.02155913 -0.02156678 -0.02156262
 -0.02154644 -0.02154774 -0.0215682 -0.02162867 -0.02172804 -0.02185542 -0.02200676 -0.02215013 -0.02228636 -0.02239941
 -0.02249748 -0.02259341 -0.02269142 -0.0228077 -0.02293369 -0.02306693 -0.023196 -0.02330883 -0.02340558 -0.02348165
 -0.0235448 -0.02359799 -0.0236423 -0.02367986 -0.02370283 -0.02370988 -0.02369737 -0.02366364 -0.023622 -0.02357302
 -0.02354512 -0.02353949 -0.02358051 -0.02366545 -0.02379193 -0.02395212 -0.02411625 -0.02427792 -0.02440483 -0.02449944
 -0.02454951 -0.0245647 -0.02455112 -0.02451795 -0.02447535 -0.02442618 -0.02437562 -0.02432056 -0.02426111 -0.02419355
 -0.02411602 -0.02403121 -0.02393865 -0.02384609 -0.02375468 -0.02366463 -0.02357614 -0.02347387 -0.02335693 -0.02320784
 -0.02302853 -0.02282113 -0.02259101 -0.02235974 -0.02213002 -0.02192075 -0.02172841 -0.02155601 -0.02139828 -0.02124961
 -0.02110799 -0.02097004 -0.02083474 -0.02070136 -0.02056695 -0.0204298 -0.02028985 -0.02014556 -0.02000408 -0.01986586
 -0.01974032 -0.01962871 -0.01953449 -0.01945801 -0.01939462 -0.01934371 -0.01929511 -0.01924853 -0.01919619 -0.01914034
 -0.01908493 -0.01903343 -0.01899835 -0.01897722 -0.01897404 -0.01897833 -0.0189784 -0.01896877 -0.01893731 -0.01889454
 -0.01884196 -0.01879306 -0.01875677 -0.01872668 -0.0187059 -0.01867047 -0.01861649 -0.01852851 -0.01840305 -0.01824922
 -0.01806712 -0.01788325 -0.01769925 -0.01754425 -0.01741887 -0.01734267 -0.01731305 -0.01733201 -0.01739325 -0.01748268
 -0.01759381 -0.01770827 -0.01782473 -0.01793232 -0.0180383 -0.01814204 -0.01826012 -0.01839972 -0.01858003 -0.01881129
 -0.01910015 -0.01945385 -0.01985518 -0.02030514 -0.02076869 -0.02124283 -0.0216951 -0.02212318 -0.02251416 -0.02286834
 -0.02319111 -0.02348322 -0.02375285 -0.02399874 -0.0242199 -0.02441571 -0.02458219 -0.02472408 -0.02484661 -0.0249574
 -0.02506911 -0.02518268 -0.02530533 -0.02542871 -0.02555067 -0.025662 -0.02575795 -0.02583566 -0.02589297 -0.02593185
 -0.0259521 -0.02595728 -0.02594781 -0.02592543 -0.02589035 -0.0258404 -0.02577565 -0.02569604 -0.02560366 -0.02551215
 -0.02542548 -0.02536738 -0.02533845 -0.02535406 -0.0254082 -0.02549848 -0.02561598 -0.02574934 -0.02589075 -0.02603048
 -0.02616212 -0.02627946 -0.02637883 -0.0264567 -0.02651455 -0.02655116 -0.02657329 -0.02658129 -0.02658459 -0.02658376
 -0.02659091 -0.02660675 -0.02664457 -0.02670521 -0.02680377 -0.026941 -0.02713117 -0.02737154 -0.02766236 -0.02799274
 -0.02833639 -0.02867982 -0.02898353 -0.02924905 -0.02945683 -0.02962926 -0.02977753 -0.02992449 -0.03009057 -0.03027503
 -0.03048594 -0.03070297 -0.03092241 -0.03112713 -0.03131236 -0.03147601 -0.03161677 -0.0317414 -0.03185024 -0.03195062
 -0.03204277 -0.03213082 -0.03221466 -0.03229568 -0.03237353 -0.03244779 -0.03251761 -0.03258091 -0.03263614 -0.03267903
 -0.03270986 -0.03272532 -0.0327319 -0.03273245 -0.03273759 -0.03275542 -0.03278908 -0.03284466 -0.03291002 -0.03298459
 -0.03304994 -0.03310157 -0.03313445 -0.03314609 -0.03315099 -0.03314977 -0.03316193 -0.03318778 -0.03323193 -0.03329235
 -0.03335601 -0.03342148 -0.03347465 -0.03351838 -0.03355244 -0.03358179 -0.03361653 -0.03365695 -0.03370928 -0.03376717
 -0.03382777 -0.03388391 -0.03392991 -0.03396334 -0.03398109 -0.03398596 -0.03397698 -0.03396266 -0.0339434 -0.0339327
 -0.03393218 -0.03395129 -0.0339911 -0.0340453 -0.03411304 -0.03417619 -0.03423426 -0.03427422 -0.03429838 -0.03430891
 -0.03430935 -0.03431088 -0.03431448 -0.03432832 -0.03434873 -0.03437529 -0.03440147 -0.03442102 -0.03443037 -0.03442421
 -0.03440613 -0.03437519 -0.03433993 -0.03430199 -0.03427037 -0.03424676 -0.03423877 -0.03424776 -0.03427579 -0.03432337
 -0.03438181 -0.03445039 -0.0345135 -0.03457096 -0.03461367 -0.03464346 -0.03466325 -0.03467488 -0.0346856 -0.03469471
 -0.03470477 -0.03471332 -0.03471795 -0.03471743 -0.03470883 -0.03469491 -0.03467537 -0.03465687 -0.03464187 -0.03463617
 -0.03464236 -0.03466148 -0.03469458 -0.0347387 -0.034794 -0.03485427 -0.03491925 -0.03497908 -0.03503326 -0.03507258
 -0.03509772 -0.03510927 -0.03510947 -0.03510873 -0.03510777 -0.03511492 -0.03512753 -0.03514456 -0.03516323 -0.03517871
 -0.03519155 -0.03520001 -0.035207 -0.03521401 -0.03522272 -0.03523459 -0.03524877 -0.03526544 -0.0352831 -0.0353015
 -0.03531956 -0.03533713 -0.03535349 -0.03536858 -0.0353816 -0.03539248 -0.03539963 -0.03540296 -0.03540072 -0.03539319
 -0.03537998 -0.03536269 -0.03534517 -0.03533001 -0.03532445 -0.03532879 -0.03534773 -0.03537666 -0.03541334 -0.03545265
 -0.03548994 -0.03552492 -0.03555601 -0.03558537 -0.03561387 -0.03564035 -0.03566465 -0.03568589 -0.03570346 -0.03572207
 -0.03574201 -0.03576805 -0.03580011 -0.03583314 -0.03586617 -0.03588844 -0.03590053 -0.03589878 -0.03588592 -0.03586794
 -0.03584693 -0.03583011 -0.03581733 -0.03581136 -0.03581152 -0.03581827 -0.03583043 -0.03584816 -0.03586787 -0.0358886
 -0.03590532 -0.03591611 -0.03591897 -0.03591257 -0.0359002 -0.03588179 -0.0358631 -0.03584451 -0.03583146 -0.03582422
 -0.03582738 -0.03584069 -0.0358648 -0.03589819 -0.03593464 -0.03597233 -0.03600225 -0.03602475 -0.03603559 -0.03603765
 -0.03603316 -0.03602448 -0.0360149 -0.03600494 -0.03599556 -0.0359878 -0.03598187 -0.03598043 -0.03598454 -0.03599494
 -0.03601258 -0.03603365 -0.03605815 -0.03607958 -0.03609745 -0.03610689 -0.03610778 -0.03609949 -0.03608264 -0.03606192
 -0.03603875 -0.03602217 -0.03601297 -0.03601918 -0.03603834 -0.03607072 -0.03611028 -0.03614883 -0.03618186 -0.03620074
 -0.03620782 -0.03620096 -0.03618707 -0.03616905 -0.03615067 -0.0361342 -0.03611876 -0.03610426 -0.03609148 -0.03608028
 -0.03607396 -0.03607297 -0.03607535 -0.03608083 -0.03608089 -0.03607548 -0.03605984 -0.03603586 -0.03600992 -0.03598386
 -0.03596738 -0.03595887 -0.03596035 -0.03596804 -0.03597698 -0.0359859 -0.03599128 -0.03599457 -0.03599611 -0.03599576
 -0.0359938 -0.03598882 -0.03597979 -0.03596885 -0.03595577 -0.03594583 -0.03594 -0.03593905 -0.0359434 -0.0359467
 -0.03594866 -0.03594303 -0.03593021 -0.03591115 -0.03588711 -0.0358647 -0.03584463 -0.0358328 -0.03582822 -0.03583226
 -0.03584216 -0.03585474 -0.03586744 -0.03587632 -0.03588082 -0.03587914 -0.03587221 -0.03586001 -0.0358433 -0.03582214
 -0.03579772 -0.03576981 -0.03574231 -0.0357156 -0.03569385 -0.03567755 -0.03566641 -0.0356603 -0.03565421 -0.03564784
 -0.03563628 -0.03562005 -0.03559878 -0.03557378 -0.03554897 -0.03552514 -0.03550649 -0.03549161 -0.0354809 -0.03547109
 -0.03545873 -0.03544265 -0.03541949 -0.03539449 -0.0353684 -0.03534899 -0.0353399 -0.0353412 -0.03535493 -0.03537091
 -0.03538825 -0.03539699 -0.03539595 -0.0353853 -0.03536518 -0.03534301 -0.03531925 -0.03530095 -0.03528805 -0.03528414
 -0.03528868 -0.03530239 -0.03532366 -0.03534997 -0.03537872 -0.03540517 -0.03542747 -0.03544167 -0.03544818 -0.03544533
 -0.03543662 -0.03542241 -0.035409 -0.03539856 -0.03539512 -0.03540118 -0.03541086 -0.03542453 -0.03542898 -0.03542292
 -0.03540111 -0.03536353 -0.03532117 -0.03527514 -0.03524132 -0.0352186 -0.03521043 -0.03521335 -0.03521793 -0.03522252
 -0.03521797 -0.0352071 -0.03518978 -0.03516989 -0.03515228 -0.03513652 -0.03512476 -0.03511264 -0.03509786 -0.03508027
 -0.03505777 -0.03503852 -0.03502372 -0.03502113 -0.03503314 -0.0350544 -0.03508519 -0.03511002 -0.03512819 -0.03513053
 -0.03511798 -0.0350969 -0.03506875 -0.03504498 -0.03502447 -0.03500994 -0.03499882 -0.0349859 -0.03497212 -0.03495566
 -0.0349409 -0.03493259 -0.034931 -0.03493984 -0.0349513 -0.0349631 -0.03496705 -0.03495867 -0.03493916 -0.03490688
 -0.03487096 -0.03483235 -0.03479872 -0.03477091 -0.03475119 -0.03473963 -0.03473503 -0.03473707 -0.03474235 -0.03475017
 -0.03475518 -0.03475677 -0.0347498 -0.03473507 -0.0347112 -0.03468081 -0.03464695 -0.03461244 -0.03458161 -0.03455523
 -0.03453562 -0.03452117 -0.03451178 -0.0345055 -0.03450172 -0.03449898 -0.03449715 -0.03449354 -0.034488 -0.03447621
 -0.03445767 -0.03443157 -0.03439796 -0.03436328 -0.03432823 -0.03430288 -0.03428713 -0.03428608 -0.03429824 -0.03432142
 -0.03435431 -0.03439254 -0.03443654 -0.03448471 -0.03453888 -0.03460006 -0.03467074 -0.03475227 -0.03484882 -0.03496154
 -0.03509797 -0.03526025 -0.03545641 -0.0356892 -0.03596047 -0.0362722 -0.03661325 -0.03698365 -0.03736142 -0.03774527
 -0.03810577 -0.03844035 -0.03871217 -0.03891718 -0.03901253 -0.03899906 -0.0388516 -0.03858524 -0.03821515 -0.03776963
 -0.03729623 -0.03682118 -0.03639165 -0.03601666 -0.03571847 -0.03549368 -0.03534641 -0.03527045 -0.0352666 -0.03532078
 -0.03543421 -0.03557171 -0.03573073 -0.0358645 -0.03596754 -0.03602657 -0.03604093 -0.03603279 -0.03600308 -0.03596961
 -0.0359309 -0.03588809 -0.0358389 -0.03577527 -0.03569854 -0.03560591 -0.03550429 -0.0354041 -0.03530789 -0.03522603
 -0.03514725 -0.03506745 -0.03497402 -0.03485595 -0.03471979 -0.03456255 -0.03440481 -0.03425119 -0.03411394 -0.03399668
 -0.03389623 -0.03381296 -0.03373798 -0.03367082 -0.03360515 -0.03354101 -0.03347702 -0.03341376 -0.03335366 -0.03329753
 -0.0332497 -0.03321014 -0.0331818 -0.033162 -0.03314889 -0.03313716 -0.03312012 -0.03309476 -0.03305487 -0.03300566
 -0.03294678 -0.0328886 -0.03283525 -0.03279102 -0.03275901 -0.03273291 -0.03271255 -0.03268962 -0.03266309 -0.03263148
 -0.03259469 -0.03255735 -0.03251975 -0.03248665 -0.03245785 -0.03243466 -0.03241645 -0.03240158 -0.03239004 -0.03238058
 -0.03237454 -0.03237384 -0.03237863 -0.03239115 -0.0324069 -0.03242432 -0.03243611 -0.03243751 -0.03242605 -0.03239826
 -0.03236066 -0.03231344 -0.03226611 -0.03222042 -0.03218044 -0.03214701 -0.03211758 -0.03209205 -0.03206742 -0.03204379
 -0.03202149 -0.03200059 -0.03198194 -0.03196478 -0.03194693 -0.03192756 -0.03190304 -0.03187434 -0.03184079 -0.03180536
 -0.03177094 -0.03174023 -0.03171675 -0.03170008 -0.03169187 -0.03168755 -0.03168628 -0.03168251 -0.03167445 -0.03166037
 -0.03163933 -0.03161437 -0.03158567 -0.03155613 -0.03152591 -0.03149468 -0.03146237 -0.03142811 -0.03139217 -0.03135572
 -0.03131913 -0.03128442 -0.03125142 -0.03122075 -0.03119215 -0.0311653 -0.03114047 -0.03111777 -0.0310977 -0.03108073
 -0.03106704 -0.03105715 -0.03104993 -0.03104555 -0.03104093 -0.0310356 -0.03102597 -0.03101126 -0.03099037 -0.03096292
 -0.0309315 -0.03089624 -0.03086184 -0.03082846 -0.03079933 -0.0307742 -0.03075305 -0.03073578 -0.03072187 -0.03071184
 -0.03070704 -0.03070692 -0.03071237 -0.03071931 -0.03072409 -0.0307216 -0.03070561 -0.03067666 -0.03063156 -0.03057884
 -0.03052017 -0.03046548 -0.03041782 -0.03038172 -0.03035877 -0.03034783 -0.03034919 -0.03035838 -0.0303752 -0.03039278
 -0.03041074 -0.03042183 -0.03042619 -0.03042066 -0.03040652 -0.03038659 -0.03036247 -0.03033977 -0.03031844 -0.03030147
 -0.03028672 -0.03027287 -0.03025822 -0.03024034 -0.03022055 -0.03019856 -0.0301771 -0.03015753 -0.03013972 -0.03012437
 -0.03010823 -0.03009075 -0.03007037 -0.03004651 -0.03002318 -0.03000056 -0.02998551 -0.02997807 -0.02998069 -0.029992
 -0.0300049 -0.03001747 -0.03001814 -0.03000745 -0.02997966 -0.02993933 -0.029891 -0.02983998 -0.02979481 -0.02975695
 -0.02973133 -0.02971467 -0.02970691 -0.02970356 -0.0297029 -0.02970206 -0.02969996 -0.02969532 -0.02968772 -0.02967682
 -0.02966252 -0.02964487 -0.02962385 -0.02959994 -0.0295732 -0.02954477 -0.02951488 -0.02948541 -0.02945663 -0.02943049
 -0.02940692 -0.02938667 -0.02936957 -0.02935548 -0.02934484 -0.02933794 -0.02933562 -0.02933902 -0.02934757 -0.02936201
 -0.02937897 -0.029398 -0.02941374 -0.02942479 -0.02942718 -0.02941971 -0.02940243 -0.0293749 -0.02934189 -0.02930363
 -0.02926704 -0.02923233 -0.02920406 -0.02918165 -0.02916391 -0.02914948 -0.02913243 -0.02911214 -0.02908319 -0.02904772
 -0.02900621 -0.02896271 -0.02892271 -0.02888757 -0.02886145 -0.0288404 -0.02882369 -0.02880655 -0.02878598 -0.02876339
 -0.02873772 -0.02871554 -0.02869793 -0.02868878 -0.02868904 -0.02869531 -0.02870749 -0.02871794 -0.02872631 -0.02872642
 -0.02871861 -0.02870194 -0.02867732 -0.02864785 -0.02861378 -0.02857734 -0.02853821 -0.02849619 -0.02845267 -0.02840837
 -0.0283672 -0.02833296 -0.02830741 -0.02829396 -0.02828806 -0.02828948 -0.02829098 -0.02828993 -0.02828516 -0.02827521
 -0.02826664 -0.02825994 -0.02826099 -0.02827029 -0.02828397 -0.0283014 -0.02831104 -0.02831282 -0.02829979 -0.0282743
 -0.02824165 -0.02820445 -0.02817317 -0.02814635 -0.02812729 -0.0281107 -0.02809115 -0.02806539 -0.02802726 -0.02798069
 -0.02792485 -0.02786856 -0.02781511 -0.02777066 -0.02773853 -0.02771639 -0.02770515 -0.02769629 -0.02768903 -0.02767668
 -0.0276587 -0.02763591 -0.02760865 -0.02758292 -0.02755905 -0.02754241 -0.02753251 -0.02753074 -0.02753565 -0.02754459
 -0.02755545 -0.02756335 -0.02756676 -0.02756143 -0.02754804 -0.027525 -0.02749581 -0.02746155 -0.02742682 -0.02739403
 -0.02736465 -0.02734017 -0.02731747 -0.02729636 -0.02727308 -0.0272469 -0.02721878 -0.02718868 -0.02716031 -0.02713364
 -0.02710837 -0.02708401 -0.02705663 -0.02702651 -0.02699232 -0.02695534 -0.02691845 -0.0268822 -0.02684931 -0.02681874
 -0.02679046 -0.02676276 -0.02673428 -0.02670346 -0.02666881 -0.02663008 -0.02658594 -0.02654028 -0.02649318 -0.02645172
 -0.02641742 -0.02639355 -0.02638122 -0.02637529 -0.02637557 -0.02637421 -0.026371 -0.02636296 -0.0263505 -0.02633523
 -0.02631707 -0.02629652 -0.02627303 -0.02624496 -0.02621294 -0.02617698 -0.02613892 -0.02610139 -0.02606473 -0.0260307
 -0.0259973 -0.02596376 -0.02592874 -0.02589073 -0.02585244 -0.02581385 -0.02577979 -0.02575146 -0.02573001 -0.02571615
 -0.02570517 -0.02569685 -0.02568466 -0.02566848 -0.02564683 -0.02562025 -0.02559214 -0.02556256 -0.02553364 -0.02550488
 -0.02547549 -0.0254462 -0.02541786 -0.02539149 -0.02537 -0.02535034 -0.02533196 -0.02530849 -0.02527501 -0.02523067
 -0.02517202 -0.02510783 -0.02503899 -0.02497702 -0.02492462 -0.02488646 -0.02486417 -0.02485121 -0.02484747 -0.0248396
 -0.02482713 -0.02480147 -0.02476359 -0.02471649 -0.02466194 -0.02460921 -0.02455878 -0.02451713 -0.02448283 -0.02445657
 -0.02443595 -0.02441849 -0.02440139 -0.02438135 -0.02435661 -0.02432467 -0.02428656 -0.0242418 -0.02419306 -0.02414107
 -0.02408726 -0.02403207 -0.02397581 -0.02391852 -0.02386055 -0.02380189 -0.02374429 -0.02368795 -0.02363758 -0.02359375
 -0.02356363 -0.02354663 -0.02354541 -0.0235562 -0.02357094 -0.02358393 -0.02357945 -0.02355737 -0.02350824 -0.02344227
 -0.0233644 -0.0232862 -0.02321757 -0.02316069 -0.02312063 -0.02308921 -0.02306567 -0.02304007 -0.0230096 -0.02297329
 -0.02293002 -0.02288793 -0.02284754 -0.02281518 -0.02279086 -0.02277181 -0.02275706 -0.02273752 -0.02271278 -0.02267529
 -0.02262732 -0.02257062 -0.02250928 -0.02245314 -0.02240148 -0.02235883 -0.02231928 -0.02227824 -0.0222335 -0.02218031
 -0.02212551 -0.02207035 -0.02202287 -0.02198711 -0.02196068 -0.02194507 -0.0219284 -0.02190948 -0.02187877 -0.0218353
 -0.02177888 -0.02170969 -0.02163321 -0.02155 -0.02146678 -0.02138401 -0.02130722 -0.02123675 -0.02117661 -0.02112649
 -0.02108859 -0.02105981 -0.02103812 -0.02101726 -0.02099032 -0.02095443 -0.02090388 -0.02084472 -0.02077777 -0.02071003
 -0.02064494 -0.02058077 -0.0205183 -0.02045134 -0.0203787 -0.0203013 -0.02021887 -0.02013997 -0.02006488 -0.01999803
 -0.01993851 -0.01988087 -0.01982366 -0.01975666 -0.01968109 -0.01959424 -0.01950018 -0.01940597 -0.01931345 -0.01922908
 -0.01915019 -0.01907707 -0.01900529 -0.01893153 -0.01885481 -0.01877279 -0.01869009 -0.01860743 -0.01852966 -0.01845884
 -0.0183918 -0.01832958 -0.0182566 -0.01817177 -0.01806254 -0.01792901 -0.01778283 -0.01762567 -0.01747786 -0.01733795
 -0.01721036 -0.01709162 -0.01697322 -0.01685447 -0.0167287 -0.01659998 -0.01647061 -0.01634573 -0.01623225 -0.01612963
 -0.0160421 -0.01595907 -0.01587929 -0.01578452 -0.01566824 -0.01552189 -0.01533952 -0.0151382 -0.01491849 -0.01470339
 -0.01449515 -0.01429708 -0.01410901 -0.01392073 -0.01373162 -0.01353199 -0.01332182 -0.01309562 -0.0128542 -0.0125961
 -0.01232449 -0.01204448 -0.01176004 -0.01147981 -0.01120328 -0.01093336 -0.0106678 -0.01040496 -0.01014659 -0.009892846
 -0.009646339 -0.00940924 -0.009176964 -0.008951682 -0.008712246 -0.008458349 -0.008152089 -0.00778988 -0.007358232 -0.006858272
 -0.006347081 -0.005827746 -0.005355501 -0.004922389 -0.004519217 -0.004137523 -0.00374597 -0.003344356 -0.00291691 -0.002467665
 -0.001998111 -0.001504896 -0.0009901725 -0.0004352126 0.0001711825 0.0008447365 0.001605173 0.002420458 0.003293295 0.004153828
 0.004985908 0.00575619 0.006455047 0.007096851 0.00768113 0.008239043 0.008772549 0.009322932 0.009893216 0.01053333
 0.01123667 0.01200629 0.01281679 0.01358532 0.01431041 0.01494052 0.01550707 0.0160352 0.01654522 0.01707068
 0.01760773 0.0181646 0.01873106 0.01930231 0.01987913 0.02046241 0.02104561 0.02162938 0.02219614 0.02274231
 0.02326882 0.02377517 0.02427152 0.02475778 0.02521778 0.0256493 0.02602305 0.02634106 0.02659674 0.02679603
 0.02695303 0.02707324 0.02717483 0.02726008 0.02734073 0.0274145 0.02748325 0.02754459 0.02759658 0.02764046
 0.02767554 0.02770626 0.02773407 0.0277613 0.0277896 0.02781461 0.02783683 0.02784453 0.02783694 0.02780221
 0.02774001 0.02765475 0.02754749 0.02743154 0.02730578 0.02717183 0.02702734 0.0268651 0.02668543 0.02648394
 0.0262658 0.02603584 0.02580063 0.02556911 0.02534345 0.02512783 0.02492258 0.02472778 0.02454739 0.02438196
 0.02423774 0.02411607 0.02402145 0.02395453 0.02391907 0.02391536 0.02394747 0.0240155 0.02411814 0.02425433
 0.02441322 0.02459312 0.02477941 0.024972 0.0251622 0.02535265 0.02554465 0.02574096 0.02594695 0.02616198
 0.02638772 0.02662195 0.0268624 0.02711177 0.02736975 0.02764287 0.02793379 0.02824409 0.02857624 0.02892024
 0.02927633 0.0296246 0.02996343 0.03027745 0.03056617 0.03083629 0.03109017 0.03135579 0.03163288 0.03193773
 0.03226195 0.03258622 0.03290591 0.03319992 0.03347211 0.0337221 0.03394593 0.03414162 0.0342987 0.03440738
 0.03446717 0.0344759 0.03443304 0.03434201 0.03418271 0.03395039 0.0336343 0.03322623 0.03277757 0.03229216
 0.03180603 0.03132036 0.03080939 0.03027221 0.02968925 0.02906467 0.02841036 0.02773042 0.02704768 0.02635563
 0.02565571 0.02492925 0.02414209 0.02330038 0.02237859 0.0214475 0.02055509 0.01973504 0.01903204 0.01839481
 0.01781414 0.01725368 0.0166986 0.01615938 0.01563493 0.01514322 0.01468703 0.0142546 0.01384514 0.01342509
 0.0129932 0.01252253 0.01201681 0.01147868 0.01091854 0.01037248 0.009846257 0.009375218 0.008947045 0.008561372
 0.008197159 0.007832009 0.007451431 0.007037998 0.006584623 0.006080147 0.005534878 0.004939063 0.004354482 0.003791591
 0.003307958 0.002921691 0.002593387 0.002322658 0.002048747 0.001768847 0.001470215 0.001156099 0.0008603202 0.0005846501
 0.0003595806 0.0001764191 2.164357E-05 -0.0001120015 -0.0002514563 -0.0003888152 -0.0005261541 -0.000647645 -0.0007341568 -0.0007840298
 -0.0007868602 -0.0007554461 -0.0006937924 -0.0006111884 -0.0005129165 -0.0003985322 -0.00027043 -0.000118019 5.802427E-05 0.0002824604
 0.0005573904 0.0009039775 0.001323029 0.001783302 0.002280208 0.0027478 0.003187323 0.003571512 0.00390638 0.004199245
 0.004451183 0.004667671 0.004848935 0.004993998 0.005113415 0.005213718 0.005317167 0.005443922 0.005603022 0.005813077
 0.006041397 0.006281998 0.006502585 0.006691356 0.006848108 0.006970272 0.007068874 0.007144502 0.007208035 0.007260087
 0.007310844 0.007360626 0.007416214 0.007477512 0.007547416 0.007625923 0.007714427 0.007813325 0.007923634 0.008047147
 0.008185856 0.00834474 0.008529039 0.008745194 0.009000365 0.009296006 0.009636746 0.01001436 0.01042779 0.01086643
 0.01132605 0.01180862 0.01231231 0.01285338 0.01343352 0.01406061 0.01473504 0.01542881 0.0161391 0.01682125
 0.01747628 0.01808716 0.01865758 0.01919342 0.01969264 0.02015585 0.0205739 0.02093367 0.02122494 0.02143097
 0.02154741 0.02156398 0.02148562 0.02131039 0.0210505 0.02070877 0.02029866 0.01982232 0.01929658 0.01872218
 0.01812778 0.01751568 0.01691329 0.0163222 0.01574704 0.01518697 0.01463096 0.01407953 0.01352952 0.0129839
 0.01245258 0.01193537 0.01143816 0.01095581 0.01048218 0.01001443 0.00954541 0.009078928 0.008614559 0.008159556
 0.007717267 0.007293992 0.006892377 0.006517614 0.006171647 0.005856371 0.005573495 0.005314695 0.005080068 0.004852035
 0.004629625 0.004400219 0.004164587 0.003929525 0.003697525 0.003487645 0.003299717 0.00314405 0.003017136 0.002915972
 0.002837118 0.002773511 0.002723548 0.002682478 0.002650611 0.002626746 0.002611402 0.002605723 0.002605666 0.002611622
 0.002613196 0.002608246 0.002587486 0.002547961 0.002493297 0.002422756 0.002352042 0.002282014 0.002222123 0.002171723
 0.002123381 0.002076302 0.002020764 0.001959245 0.001895087 0.001832081 0.001782033 0.001744438 0.001724868 0.001718509
 0.001721384 0.001731485 0.001744516 0.001764579 0.001792894 0.001832386 0.00188625 0.001947745 0.002017052 0.002081434
 0.002138572 0.002182052 0.002210505 0.002227759 0.002233957 0.002234487 0.002229278 0.002218122 0.002200775 0.002175082
 0.002142063 0.002103993 0.002062711 0.002024152 0.001988581 0.001959546 0.0019354 0.001915633 0.001898674 0.001882745
 0.001868076 0.001853938 0.001842238 0.001833439 0.001829389 0.001830936 0.001837623 0.001850088 0.001863318 0.001877283
 0.001882539 0.001878537 0.001857497 0.001819762 0.001768468 0.001705633 0.001645703 0.001589875 0.001551085 0.001527363
 0.001520559 0.001527919 0.001544932 0.001571708 0.001606841 0.00165025 0.001702631 0.001759889 0.001820077 0.001879805
 0.001936418 0.001992351 0.002047553 0.00210545 0.002167149 0.002230628 0.002295933 0.002359392 0.002420783 0.002478519
 0.002532436 0.002579901 0.002620541 0.002649981 0.002669083 0.002678207 0.002679601 0.00267948 0.002678249 0.002680355
 0.002682755 0.002683591 0.002680218 0.002668889 0.002651376 0.002627051 0.00260003 0.002572155 0.002544468 0.002518283
 0.002489917 0.00245923 0.002421161 0.002375126 0.002318216 0.00225019 0.002171731 0.002083215 0.001990384 0.001894239
 0.00180445 0.001721117 0.001650783 0.001590732 0.001538021 0.001488811 0.001434087 0.001374453 0.00130524 0.001233604
 0.001163329 0.001101918 0.001056108 0.001024789 0.001011032 0.001003931 0.001001874 0.0009929962 0.0009741883 0.0009441143
 0.0009014217 0.0008575542 0.0008130445 0.0007836549 0.0007696604 0.0007775903 0.0008055427 0.0008445211 0.0008917227 0.0009307381
 0.0009619318 0.0009764447 0.0009796028 0.0009761198 0.0009719992 0.0009768918 0.0009929402 0.001025007 0.001073872 0.001140418
 0.001227874 0.001337765 0.001471941 0.001632289 0.001813579 0.002015794 0.002230228 0.00245581 0.002688446 0.002927783
 0.003173885 0.003426598 0.003683618 0.003944256 0.004202516 0.004458096 0.004706144 0.004947842 0.005183544 0.00541499
 0.00564573 0.005875987 0.006107736 0.006339851 0.006571893 0.006803354 0.007033989 0.007262927 0.007490619 0.007712746
 0.007928622 0.008132976 0.008324135 0.008503322 0.008669813 0.008833206 0.00899397 0.009164373 0.00934488 0.009544352
 0.009761994 0.009997586 0.01024827 0.01050279 0.01075853 0.01100146 0.01123446 0.01145444 0.01166972 0.01188959
 0.01211956 0.0123696 0.01263524 0.01291885 0.01320761 0.01349758 0.01377676 0.01404033 0.01428563 0.01451053
 0.01472148 0.01491891 0.01510848 0.01529065 0.01546555 0.01563334 0.01579664 0.01595639 0.01612117 0.01629089
 0.0164703 0.01665742 0.01684898 0.01704452 0.01724147 0.01744051 0.01764273 0.0178449 0.01804476 0.01823935
 0.01842414 0.01860551 0.01878398 0.0189693 0.01916594 0.0193713 0.01958705 0.01979923 0.02000611 0.02020121
 0.02038366 0.0205646 0.02074478 0.02093969 0.02114821 0.02137027 0.02160214 0.02182805 0.02204637 0.02224395
 0.022423 0.02258247 0.02272225 0.02284295 0.02294086 0.02301154 0.02305683 0.02307485 0.02307403 0.0230585
 0.02302942 0.02298956 0.02292959 0.02284745 0.02274128 0.02260937 0.02246565 0.0223108 0.02216069 0.02201571
 0.0218814 0.02175716 0.02164116 0.0215329 0.02142954 0.02133084 0.02123488 0.02114128 0.02104904 0.02095637
 0.02086118 0.02076041 0.02065015 0.02053007 0.02039752 0.02025779 0.02011191 0.01996625 0.01982324 0.01968458
 0.0195517 0.01942015 0.01929016 0.01915148 0.01900347 0.01883604 0.01864927 0.01844618 0.01822881 0.01801459
 0.01780421 0.01761132 0.01743194 0.01726271 0.01709852 0.01692729 0.01674874 0.01655667 0.0163549 0.01614461
 0.01592953 0.01571282 0.0154948 0.01527712 0.01505603 0.01483082 0.0145982 0.01435648 0.01411031 0.01385943
 0.01361456 0.01337653 0.0131488 0.01293098 0.01271248 0.01249227 0.01225647 0.01200679 0.01174223 0.01146716
 0.01119377 0.01092356 0.01066677 0.01041844 0.01017624 0.00993568 0.009689566 0.009442798 0.009195281 0.008955505
 0.008728928 0.008513209 0.008310143 0.00810938 0.007908525 0.007705063 0.007497848 0.007292624 0.007089869 0.006889028
 0.006689845 0.006485058 0.006275108 0.006060036 0.005841392 0.005626865 0.005415708 0.005210239 0.005007945 0.004803925
 0.004599498 0.004393277 0.004190244 0.003995211 0.003809422 0.00363578 0.003471638 0.003315507 0.003169538 0.003033437
 0.002912565 0.002809218 0.00271832 0.0026406 0.002559774 0.00247456 0.002377614 0.002269251 0.00216217 0.00205752
 0.001971266 0.001901699 0.001850024 0.001813087 0.00178175 0.001755994 0.00173098 0.001709103 0.001691941 0.001680528
 0.001677074 0.001679781 0.001688818 0.001700196 0.001712903 0.001721299 0.001723388 0.001716098 0.001697476 0.001672765
 0.00164154 0.001616969 0.001599982 0.001600557 0.001618716 0.001649677 0.001691852 0.001729206 0.001761737 0.001779667
 0.001786877 0.001789501 0.001790958 0.001802353 0.001821197 0.00184963 0.001881935 0.00191325 0.001940182 0.001959121
 0.001968485 0.001966508 0.001953411 0.001926862 0.001897541 0.001864856 0.001852529 0.00186348 0.00191477 0.002008714
 0.002134132 0.002289838 0.002443946 0.002595701 0.002723451 0.002831135 0.002925003 0.003009873 0.003104827 0.003207849
 0.003325764 0.003450398 0.003572552 0.003688241 0.003788077 0.003878087 0.003958499 0.004038219 0.004122087 0.004212634
 0.004312607 0.004417561 0.004527531 0.00463566 0.004741162 0.004838505 0.004927139 0.005005414 0.005073309 0.005132248
 0.005182026 0.005221617 0.005250294 0.005263274 0.005261706 0.005244738 0.005217927 0.005191135 0.005170893 0.005172022
 0.005193461 0.00524269 0.005306747 0.005380745 0.005449485 0.005503598 0.005539258 0.005551881 0.005548659 0.00553013
 0.005503236 0.005468702 0.005432829 0.005395771 0.005371188 0.005359781 0.00537514 0.005416185 0.005479355 0.005561727
 0.005646598 0.005734134 0.005815667 0.005894022 0.005972889 0.006049136 0.006121623 0.006182284 0.006220263 0.006238441
 0.006231013 0.006217824 0.006206241 0.006211993 0.00624527 0.006295914 0.006365484 0.006431044 0.006488537 0.006533761
 0.006565195 0.006602353 0.006646114 0.006712526 0.006800178 0.006902892 0.007017523 0.007125268 0.007225356 0.007304693
 0.00736652 0.007410133 0.007441624 0.007469126 0.00749765 0.007536905 0.007583499 0.007640485 0.007695366 0.007742852
 0.007774913 0.007784632 0.007784055 0.007771949 0.007775377 0.007798277 0.007855629 0.007950128 0.008064821 0.008198467
 0.008315063 0.008414153 0.008475335 0.008503525 0.008511203 0.008504828 0.00851162 0.008532615 0.008584269 0.008661678
 0.008765535 0.008888749 0.009025705 0.009167515 0.009308132 0.009436067 0.009544625 0.009626225 0.009674759 0.009697737
 0.009693149 0.009684199 0.009673394 0.009681171 0.009710043 0.009759617 0.009829624 0.009903717 0.009980965 0.01004612
 0.01009933 0.01013269 0.01014821 0.01014559 0.01013215 0.01012148 0.01012333 0.01016112 0.01023041 0.01034176
 0.01046833 0.01059634 0.01070016 0.0107592 0.01077913 0.01075256 0.01071207 0.0106626 0.01063327 0.01062992
 0.01065982 0.0107248 0.01081268 0.01092277 0.01103707 0.01115546 0.01126971 0.01138121 0.01149384 0.01160661
 0.01172014 0.01182876 0.01191999 0.01199159 0.01203104 0.01204943 0.01205054 0.01205332 0.01207453 0.01211825
 0.01219601 0.01228569 0.01238337 0.01246673 0.01252598 0.01257372 0.01260791 0.01266462 0.01274755 0.0128665
 0.01302154 0.01318627 0.01335907 0.01351312 0.01364968 0.01376163 0.01385043 0.01391648 0.01396142 0.01398701
 0.01399942 0.01400807 0.01401901 0.01404414 0.01407968 0.01412851 0.01417974 0.01422813 0.01426868 0.01429712
 0.01431858 0.01433299 0.01434793 0.01436501 0.01438437 0.01440652 0.01442374 0.01443568 0.01443831 0.01443235
 0.01442468 0.01441549 0.01440998 0.01440631 0.01439999 0.01439204 0.01438119 0.01437235 0.01437304 0.01438487
 0.0144112 0.01445583 0.01451827 0.01461586 0.01475977 0.01495137 0.01520829 0.01545677 0.01568522 0.01582525
 0.01585601 0.01582178 0.01572328 0.01562191 0.01552051 0.01543784 0.01537364 0.01533049 0.01530975 0.01532186
 0.01536615 0.01544911 0.01556203 0.01569072 0.01582325 0.01593415 0.0160196 0.01606282 0.01607422 0.01605354
 0.01601937 0.01598173 0.01594974 0.015931 0.01591782 0.01590965 0.01589982 0.0158857 0.01587736 0.01587543
 0.01588978 0.01592075 0.01595546 0.01599168 0.01600019 0.01597957 0.01590584 0.01578211 0.01560269 0.01537887
 0.01512927 0.01487214 0.01464334 0.01445559 0.01433851 0.01428917 0.01431896 0.01440708 0.01455299 0.01471295
 0.01487499 0.01499428 0.01505308 0.01505611 0.01499692 0.01492684 0.01485069 0.01479269 0.014754 0.01470994
 0.01466078 0.01459951 0.01453365 0.01450245 0.01451094 0.01459922 0.01476173 0.01500869 0.01532514 0.01569741
 0.01609911 0.01649996 0.01687151 0.0171786 0.01742112 0.01758269 0.01769804 0.01777463 0.01784441 0.01791912
 0.01800029 0.01809125 0.01817671 0.01825554 0.01831757 0.01836221 0.0183848 0.01838478 0.01835347 0.01829103
 0.01819015 0.01805821 0.01791203 0.01776841 0.01767447 0.01763991 0.01770798 0.01786037 0.01809925 0.01838835
 0.01870061 0.01901262 0.01930476 0.01956815 0.01979803 0.0199801 0.02011068 0.02017762 0.02017633 0.02011795
 0.02000172 0.01985844 0.01968974 0.01952462 0.01936289 0.0192117 0.01906697 0.01890834 0.01873357 0.01851943
 0.01827697 0.01801657 0.01775809 0.01754005 0.01736923 0.01727294 0.01723555 0.01725681 0.01731226 0.01738965
 0.01747051 0.01754552 0.01760531 0.01764651 0.01766227 0.01765224 0.01760288 0.01751316 0.01736872 0.01716876
 0.01691942 0.01662281 0.01630704 0.01597495 0.01565556 0.01535295 0.01509619 0.014889 0.0147611 0.01469687
 0.0146926 0.0147103 0.01470193 0.01465342 0.01452614 0.01435982 0.01416247 0.01397849 0.01383418 0.0137178
 0.01363663 0.01354382 0.01343038 0.0132836 0.01309832 0.01291952 0.01274952</values></Ydata></AB><ScSm><Ydata ylabel="Single channel"><values byteorder="INTEL" format="FLOAT32" numvalues="1814"> 0.07030807 0.07030685 0.07036938 0.070522 0.07073598 0.07094217 0.07108182 0.07114513 0.07115243 0.07111214
 0.07103252 0.07096995 0.07101285 0.07119332 0.07143763 0.07161767 0.07165118 0.07157296 0.07151656 0.07158607
 0.07171533 0.07168675 0.07133842 0.07075302 0.07020171 0.06989038 0.06983037 0.07000425 0.07050346 0.07127833
 0.07185184 0.07166073 0.07076594 0.06989148 0.06962013 0.06983173 0.07003818 0.0699482 0.06956235 0.06906132
 0.06884795 0.06943773 0.07095484 0.07271519 0.07347021 0.0721934 0.06881492 0.06445587 0.06101274 0.06013909
 0.06208158 0.06534751 0.06782345 0.06846061 0.06777978 0.06680441 0.06595884 0.06519532 0.06470509 0.06496252
 0.0660677 0.06729917 0.06748621 0.06601296 0.06355385 0.06159336 0.06107086 0.06179427 0.06323752 0.06511229
 0.06655901 0.06568922 0.06144204 0.05593128 0.05350408 0.05661142 0.06319492 0.0686992 0.07012534 0.06771782
 0.06364599 0.06020108 0.05892746 0.06020958 0.06320842 0.06655692 0.06918754 0.07038184 0.06958516 0.06688865
 0.06350538 0.06118499 0.0611389 0.06356314 0.06759684 0.0714047 0.07301371 0.07176886 0.06876537 0.06569126
 0.06371924 0.06351498 0.06540091 0.06902029 0.07331261 0.07712807 0.07969843 0.08071925 0.08041559 0.07939912
 0.07820223 0.07718647 0.07686505 0.07758833 0.07870297 0.07879966 0.0772478 0.07504032 0.07377256 0.07399349
 0.07476858 0.07481562 0.07380319 0.07214382 0.06972273 0.06586523 0.06087914 0.05647846 0.05407041 0.05367753
 0.05495074 0.05772114 0.06080787 0.06195075 0.06028737 0.05792786 0.05786133 0.06076654 0.06466809 0.06734541
 0.06838459 0.06901649 0.0705347 0.07297457 0.07494615 0.07467934 0.07177804 0.0682105 0.0669186 0.06892926
 0.07236669 0.07476177 0.07565829 0.07634061 0.07758853 0.07846777 0.07730532 0.07367946 0.06948498 0.06775934
 0.07003473 0.07480176 0.07860506 0.07860041 0.07446966 0.06848946 0.06375779 0.06204949 0.06334215 0.0670029
 0.07248183 0.07869142 0.08371685 0.08588669 0.08499223 0.08219709 0.07870799 0.07465617 0.06973033 0.06503703
 0.06333129 0.066414 0.07282969 0.07907869 0.08273953 0.08367752 0.08268607 0.0799965 0.07550361 0.0702047
 0.06666869 0.06704191 0.070463 0.07355176 0.07394896 0.07246911 0.07135616 0.0714836 0.07203103 0.07221484
 0.07240544 0.07349719 0.075633 0.07786886 0.07908891 0.07901724 0.07826649 0.07762238 0.07732964 0.07690993
 0.07583454 0.07457879 0.07457593 0.07665172 0.07989296 0.08258506 0.08393183 0.08435272 0.08434536 0.08360603
 0.08147223 0.07817841 0.07537057 0.0748869 0.07697971 0.08015743 0.0827343 0.08404037 0.08426522 0.08385278
 0.08319999 0.08252324 0.08192196 0.08165918 0.08209858 0.08318423 0.08431968 0.08496939 0.08509964 0.08490437
 0.08442029 0.08361283 0.08265945 0.08195333 0.08182032 0.0822771 0.08307344 0.08391486 0.08457004 0.08483915
 0.08462577 0.0840796 0.08350423 0.08308048 0.08280817 0.08270421 0.08286713 0.08329676 0.08380209 0.08416548
 0.0843174 0.08430924 0.0841926 0.08398268 0.08370393 0.08343226 0.08328718 0.08335413 0.08358669 0.08383228
 0.0840026 0.08415905 0.08436411 0.08452437 0.08448766 0.08425486 0.08399556 0.08386707 0.08388835 0.08397903
 0.08404696 0.08400886 0.08378386 0.0833602 0.08289041 0.08263819 0.08276761 0.08322094 0.08381709 0.08438935
 0.08481315 0.08501946 0.08504617 0.08500327 0.08494462 0.08482532 0.08460514 0.08435263 0.08422738 0.0843576
 0.08472232 0.08516128 0.08551088 0.08570831 0.08577714 0.08578648 0.08583196 0.08596537 0.08611599 0.0861566
 0.08606762 0.0859713 0.08598676 0.08610006 0.08619343 0.08618083 0.08610278 0.08608385 0.08619793 0.08639795
 0.08658676 0.0867267 0.08685707 0.08701712 0.08716962 0.08721592 0.08710518 0.08691292 0.08676934 0.08672194
 0.08672504 0.08675497 0.08685635 0.08705072 0.08726323 0.08738787 0.08740312 0.08738568 0.08740911 0.08745522
 0.0874422 0.08732612 0.08715066 0.08700123 0.08693337 0.08694661 0.08700078 0.08704302 0.08703219 0.08695742
 0.0868399 0.08671199 0.0865941 0.08650103 0.08646899 0.08654644 0.0867287 0.08691332 0.08695942 0.08681192
 0.08655752 0.08634473 0.08624765 0.08621342 0.08613805 0.08597568 0.08576478 0.08556828 0.08541688 0.08530644
 0.08522106 0.08514902 0.08509854 0.08510868 0.08521743 0.0853955 0.08553369 0.08553218 0.08539872 0.08523356
 0.08512846 0.08510562 0.08513661 0.08518407 0.08523284 0.08530326 0.08541857 0.08554782 0.08561732 0.08559879
 0.08555112 0.08555909 0.08566538 0.08586355 0.08610431 0.08629838 0.08637054 0.08633788 0.0862992 0.08633044
 0.08642124 0.08652268 0.08661913 0.08672892 0.08686231 0.08701368 0.08718977 0.08741702 0.08770865 0.08803374
 0.0883268 0.08853337 0.08865744 0.0887709 0.08896491 0.08927661 0.08965959 0.09002747 0.09032588 0.0905662
 0.0907958 0.09104078 0.09128781 0.09152694 0.09179008 0.09211957 0.09250899 0.09290604 0.09327129 0.09360839
 0.09393871 0.09427221 0.09460896 0.0949568 0.09533954 0.09577788 0.09625002 0.09668265 0.09700653 0.09722433
 0.09741244 0.09766099 0.09801304 0.09843376 0.09882295 0.09909085 0.09925094 0.09941363 0.09966187 0.09996212
 0.1002332 0.1004739 0.1007694 0.1011732 0.1016291 0.1020285 0.1023202 0.1025476 0.1027841 0.1030486
 0.1032905 0.103458 0.1035668 0.1036826 0.1038451 0.1040441 0.1042783 0.1045876 0.1049942 0.1054423
 0.1058371 0.1061285 0.1063313 0.1064838 0.1066182 0.1067505 0.1068737 0.1069738 0.1070653 0.1071817
 0.1073196 0.1074344 0.1075099 0.1075938 0.1077401 0.107954 0.1082184 0.1085348 0.1088964 0.1092549
 0.109566 0.1098597 0.1102108 0.1106245 0.1110011 0.1112421 0.1113558 0.1114225 0.1114925 0.1115723
 0.111688 0.1118937 0.1122085 0.1125894 0.1129801 0.113358 0.1137245 0.1140738 0.1143826 0.1146221
 0.1147742 0.1148468 0.114879 0.1149325 0.1150671 0.1153083 0.1156245 0.1159456 0.1162085 0.1163799
 0.1164421 0.1163915 0.1162739 0.1161901 0.1162187 0.1163266 0.1163839 0.1162704 0.1159534 0.1154644
 0.1148394 0.1141049 0.1133087 0.1125357 0.1118797 0.1114009 0.1111214 0.1110586 0.1112459 0.111697
 0.1123541 0.1130942 0.1137884 0.1143341 0.1146386 0.1146198 0.1142562 0.113618 0.112826 0.1119914
 0.111192 0.1104667 0.1098074 0.1091915 0.1086594 0.1083538 0.1084569 0.1090849 0.1102339 0.1117852
 0.1135385 0.1152655 0.1167912 0.1180587 0.11912 0.1200593 0.1209294 0.1217547 0.1225591 0.1233529
 0.1241055 0.1247692 0.1253357 0.12584 0.1263113 0.1267441 0.1271155 0.1274105 0.1276339 0.1278159
 0.1279895 0.1281479 0.1282451 0.1282561 0.1282144 0.1281659 0.128106 0.1279808 0.1277361 0.1273569
 0.1268923 0.126473 0.1262981 0.1265611 0.1273512 0.1286008 0.1301293 0.131742 0.1332928 0.1346745
 0.1358008 0.1366364 0.1372283 0.1376755 0.1380657 0.1384457 0.1388319 0.1392242 0.1396113 0.1399799
 0.1403259 0.14066 0.1410053 0.1413779 0.1417634 0.142124 0.1424372 0.1427272 0.1430464 0.1434277
 0.1438514 0.1442641 0.1446345 0.1449824 0.1453388 0.1456895 0.1459894 0.1462267 0.1464433 0.1466928
 0.1470026 0.1473702 0.1477645 0.1481312 0.1484285 0.1486641 0.1488832 0.1491212 0.1493814 0.1496536
 0.1499328 0.1502158 0.1504959 0.1507756 0.1510737 0.1513993 0.1517227 0.1519929 0.1521928 0.1523614
 0.1525545 0.1527914 0.1530462 0.1532824 0.1534942 0.1537154 0.1539889 0.1543203 0.1546658 0.1549662
 0.155195 0.1553725 0.1555415 0.1557336 0.1559559 0.1561988 0.156449 0.1566937 0.156925 0.1571465
 0.157371 0.157607 0.1578505 0.1580925 0.1583292 0.1585625 0.1587933 0.1590214 0.1592528 0.1595051
 0.1597963 0.1601211 0.1604421 0.1607156 0.1609263 0.1610934 0.1612484 0.1614145 0.1616031 0.1618163
 0.1620481 0.1622875 0.1625238 0.1627511 0.1629695 0.1631838 0.1634 0.1636221 0.1638505 0.1640836
 0.164321 0.1645659 0.1648198 0.1650735 0.1653099 0.1655209 0.1657186 0.1659246 0.1661491 0.1663824
 0.1666052 0.1668079 0.1669999 0.1671989 0.1674137 0.1676401 0.1678693 0.1680965 0.168319 0.1685334
 0.1687381 0.1689376 0.1691421 0.1693581 0.1695819 0.1698043 0.1700222 0.1702392 0.1704554 0.1706648
 0.1708644 0.1710605 0.171262 0.1714715 0.171684 0.1718934 0.1720993 0.1723067 0.1725198 0.1727391
 0.1729617 0.1731816 0.1733937 0.1736012 0.1738144 0.1740387 0.1742669 0.1744878 0.1746964 0.1748987
 0.1751065 0.1753297 0.1755678 0.1758105 0.1760485 0.1762782 0.1764988 0.1767112 0.1769198 0.1771318
 0.1773525 0.177582 0.177814 0.1780397 0.1782551 0.1784628 0.1786642 0.1788556 0.1790332 0.1791989
 0.1793626 0.1795386 0.1797333 0.1799381 0.1801406 0.1803389 0.1805382 0.1807415 0.1809516 0.1811723
 0.1814012 0.1816308 0.1818583 0.1820855 0.1823128 0.1825404 0.1827677 0.1829881 0.1831939 0.1833876
 0.1835816 0.1837871 0.1840073 0.1842348 0.1844553 0.1846643 0.1848738 0.1850929 0.185314 0.1855293
 0.1857455 0.1859716 0.1862048 0.1864356 0.1866579 0.1868734 0.1870906 0.1873136 0.1875355 0.1877519
 0.1879713 0.1881976 0.18842 0.1886313 0.1888393 0.189054 0.1892781 0.1895106 0.189746 0.189976
 0.1901995 0.1904182 0.190629 0.1908334 0.1910436 0.1912624 0.1914784 0.1916872 0.1918921 0.1920797
 0.1922004 0.1921268 0.1915498 0.1898689 0.1861794 0.1794504 0.1689373 0.1546577 0.1375541 0.1191584
 0.1010255 0.08433105 0.06976259 0.05761603 0.047947 0.04066954 0.03562089 0.03266323 0.03178505 0.03320852
 0.03751544 0.04530592 0.05588192 0.06607364 0.07146782 0.06989132 0.06348915 0.05676958 0.05285601 0.05197323
 0.05278828 0.05415998 0.0557243 0.05768801 0.06041244 0.06400473 0.06829189 0.0732576 0.07926657 0.08660094
 0.0948876 0.1032451 0.1110427 0.1184006 0.1259015 0.1338861 0.1420908 0.1499063 0.1568691 0.1628943
 0.1681732 0.1729577 0.1774236 0.1816572 0.1856984 0.1895361 0.1930306 0.1958857 0.1977884 0.1986432
 0.1986872 0.1983626 0.1980589 0.1979587 0.1980756 0.1983681 0.198801 0.1993541 0.2000194 0.2007874
 0.2016283 0.2025002 0.2033718 0.2042249 0.2050437 0.2058152 0.2065319 0.2071883 0.2077825 0.2083198
 0.2088079 0.2092524 0.2096623 0.2100487 0.2104156 0.2107622 0.2110923 0.2114098 0.2117101 0.2119841
 0.212229 0.2124497 0.2126565 0.2128625 0.2130752 0.213291 0.2135029 0.2137095 0.213914 0.2141178
 0.2143207 0.2145216 0.2147189 0.2149145 0.2151134 0.2153168 0.2155181 0.2157099 0.2158909 0.2160665
 0.2162451 0.2164336 0.2166311 0.2168296 0.217024 0.2172168 0.2174141 0.217619 0.2178282 0.2180328
 0.2182296 0.218429 0.2186432 0.218869 0.2190938 0.219313 0.2195294 0.2197434 0.2199563 0.2201716
 0.22038 0.2205582 0.2206961 0.2208176 0.2209646 0.2211625 0.2214002 0.2216418 0.2218603 0.2220581
 0.222252 0.2224477 0.2226355 0.2228038 0.2229563 0.223122 0.223337 0.2236035 0.2238843 0.2241491
 0.2244009 0.2246483 0.2248866 0.225115 0.225336 0.225531 0.2256735 0.22578 0.2259222 0.2261708
 0.2265254 0.226907 0.2272303 0.2274763 0.2276863 0.2279081 0.2281692 0.2284527 0.2286643 0.2286942
 0.2285815 0.2285527 0.2288154 0.2293491 0.2299535 0.2304564 0.2308227 0.2311069 0.2313609 0.2315828
 0.2317231 0.2317427 0.231693 0.2317352 0.2320262 0.2325529 0.2331282 0.2335817 0.2338924 0.234116
 0.2342882 0.2344277 0.2345032 0.2343709 0.2339267 0.2333919 0.2332601 0.2338184 0.2348209 0.2357507
 0.2363321 0.2366683 0.2369484 0.237213 0.2374154 0.2374661 0.2371153 0.2360955 0.2346475 0.2336672
 0.2339652 0.2354491 0.237276 0.238694 0.2395148 0.2399259 0.2401655 0.2403633 0.2404411 0.2401193
 0.2392298 0.2381318 0.2376237 0.2382074 0.2395267 0.2407495 0.2414191 0.2416941 0.2419021 0.2421674
 0.2423308 0.2419093 0.2403676 0.237911 0.2358897 0.2358521 0.2380337 0.2410775 0.2433783 0.2444594
 0.2448516 0.2449207 0.2443219 0.2426206 0.2399565 0.2369859 0.2346672 0.2341179 0.2358737 0.2389757
 0.2415189 0.242531 0.2427936 0.2435665 0.2450854 0.2465886 0.2473033 0.2470385 0.2460382 0.2445525
 0.2427253 0.2409912 0.2403084 0.2414774 0.2441658 0.2470271 0.2489424 0.2498685 0.2502549 0.2497356
 0.2468598 0.2408389 0.2337383 0.2299146 0.2321736 0.2388369 0.2455444 0.2495395 0.2511861 0.2519337
 0.2523676 0.2520398 0.2497305 0.2441161 0.2358552 0.2289041 0.2278414 0.2333377 0.2413973 0.2470908
 0.2479133 0.2440508 0.2374976 0.2314616 0.2290519 0.2313941 0.2371401 0.2437975 0.2492264 0.252229
 0.2525361 0.2506838 0.247969 0.2461397 0.2461318 0.24668 0.2452733 0.2413257 0.2371545 0.2345846
 0.2321309 0.2277507 0.2233233 0.2234146 0.2293396 0.2369627 0.2413425 0.2417405 0.2407391 0.2395391
 0.2359143 0.2274236 0.2160349 0.2082207 0.2093004 0.2179206 0.2272609 0.2317091 0.2313236 0.2298467
 0.2297169 0.2295855 0.2262248 0.2187364 0.2107116 0.2072197 0.2094169 0.2135105 0.2152582 0.2133596
 0.2079885 0.1994396 0.1905578 0.1876041 0.194972 0.2098134 0.2242801 0.2319889 0.2303498 0.21915
 0.2014502 0.1854579 0.1805428 0.1888535 0.2027161 0.2116945 0.2108827 0.2018017 0.1879376 0.1723371
 0.1589857 0.1532666 0.1587526 0.1735752 0.1904562 0.200325 0.1973357 0.1834122 0.1686466 0.1640416
 0.1715063 0.1825348 0.1877304 0.1853298 0.179896 0.1764278 0.1774561 0.1826046 0.1890047 0.1939846
 0.1971975 0.1976302 0.1907383 0.1739283 0.1538431 0.1419882 0.1427768 0.1512778 0.162436 0.1755941
 0.1884746 0.1940791 0.1885836 0.1785931 0.1755183 0.1834675 0.1957343 0.2030009 0.2025597 0.1988035
 0.1964436 0.1954891 0.1936007 0.1915301 0.1933119 0.2006797 0.2100115 0.2163625 0.2186072 0.2189877
 0.2193303 0.2196672 0.2195086 0.2186679 0.2171974 0.2155236 0.214316 0.2137291 0.2132591 0.2125099
 0.2111826 0.2079377 0.2006781 0.1895066 0.1786124 0.172963 0.1730451 0.1751921 0.1770492 0.1789635
 0.1788801 0.170885 0.1530211 0.1337264 0.1256985 0.133625 0.1506891 0.166336 0.1743386 0.1733306
 0.1636799 0.1477523 0.1325091 0.1273144 0.136279 0.1543093 0.172561 0.1860591 0.1942353 0.1966996
 0.1923623 0.1825067 0.1719945 0.1664857 0.1690033 0.1786056 0.1906881 0.1981404 0.1948144 0.1816556
 0.1694555 0.1708925 0.1871931 0.2060456 0.2154333 0.2158101 0.2151933 0.2166877 0.2169706 0.2151005
 0.2160043 0.2237368 0.2355096 0.2444341 0.2455633 0.2378368 0.223419 0.2081704 0.2001279 0.2030541
 0.212129 0.2191631 0.2205103 0.2165988 0.2070961 0.192906 0.1812729 0.1814339 0.1939163 0.2093173
 0.2189988 0.2229605 0.2259111 0.2291464 0.228965 0.2222631 0.2117126 0.2041066 0.2036336 0.2082074
 0.2129764 0.2154305 0.2154379 0.212355 0.2054237 0.1970077 0.1926203 0.196137 0.2057764 0.2157592
 0.2214771 0.2223851 0.2206319 0.2183099 0.2160638 0.2132643 0.2093878 0.2058045 0.2055152 0.2099201
 0.2165468 0.2215733 0.2241933 0.2268725 0.2314611 0.2366339 0.2394917 0.2387114 0.235803 0.2338035
 0.2348403 0.2384268 0.2418132 0.242337 0.2399661 0.2375743 0.2382999 0.2425545 0.2479706 0.2520852
 0.2543431 0.2555911 0.256633 0.2575305 0.2575612 0.2557715 0.2523365 0.2493552 0.2493667 0.2528357
 0.2577106 0.2615404 0.2634504 0.2640119 0.2639066 0.26321 0.2617794 0.2599 0.2583051 0.2576014
 0.257835 0.2586353 0.2596041 0.260491 0.2611754 0.2616467 0.2619684 0.2621933 0.2623413 0.26245
 0.2625554 0.2626144 0.2625483 0.2624015 0.2623619 0.2625616 0.2629162 0.2632179 0.2633173 0.2631416
 0.2626078 0.261652 0.2603438 0.2588544 0.257275 0.2555653 0.2537798 0.2523162 0.2518043 0.2526363
 0.2545976 0.2569945 0.2591354 0.2606781 0.261615 0.2620893 0.2622769 0.262339 0.2623727 0.2623845
 0.2623305 0.2621818 0.2619483 0.2616585 0.2613412 0.2610275 0.2607506 0.2605266 0.2603365 0.2601342
 0.2598737 0.2595282 0.259098 0.2586098 0.2580979 0.257569 0.2569832 0.2562814 0.2554353 0.2544774
 0.2534925 0.2525717 0.2517513 0.2509868 0.2501994 0.2493409 0.2483922 0.2473167 0.246081 0.2447407
 0.2434498 0.2423384 0.2414026 0.2405356 0.2396324 0.2386377 0.2375338 0.2363322 0.2350691 0.2337791
 0.2324691 0.231126 0.2297374 0.2282926 0.2267761 0.2251762 0.2234963 0.2217533 0.2199685 0.218159
 0.2163162 0.2143802 0.2122378 0.2097531 0.2068057 0.2033161 0.1992676 0.1947291 0.1898578 0.1848669
 0.1799677 0.1753226 0.171036 0.1671804 0.1638218 0.1610234 0.1588388 0.1573125 0.1564789 0.1563486
 0.1568967 0.1580694 0.1597949 0.1619797 0.164496 0.1671817 0.1698643 0.1723997 0.1747132 0.1768219
 0.1788073 0.1807373 0.1826026 0.1843372 0.1858945 0.1872789 0.1885068 0.1895719 0.1904669 0.1912154
 0.1918608 0.1924345 0.1929481 0.193407 0.1938182 0.1941878 0.1945183 0.1948149 0.1950912 0.1953692
 0.1956717 0.1960148 0.1964083 0.1968603 0.1973782 0.1979601 0.1985915 0.1992561 0.1999526 0.2006921
 0.201481 0.2023185 0.2032171 0.2042149 0.2053556 0.2066553 0.2080922 0.2096226 0.2111941 0.2127397
 0.2141723 0.2154084 0.216402 0.2171514 0.2176738 0.2179893 0.2181295 0.2181393 0.2180556 0.2178897
 0.2176395 0.2173123 0.2169277 0.2165038 0.2160488 0.2155641 0.2150524 0.2145229 0.2139913 0.2134722
 0.2129664 0.212458 0.2119359 0.2114125 0.2109108 0.2104325 0.2099525 0.209448 0.2089177 0.208371
 0.2078102 0.2072267 0.206599 0.205894 0.2050851 0.2041717 0.2031692 0.2020802 0.2008901 0.1995918
 0.1982029 0.1967493 0.195237 0.1936526 0.1919891 0.1902557 0.1884525 0.1865589 0.1845703 0.182536
 0.1805381 0.1786366 0.1768525 0.1751858 0.1736286 0.1721649 0.1707748 0.1694392 0.1681413 0.1668784
 0.1656651 0.1645145 0.1634241 0.1623906 0.161428 0.1605601 0.1598034 0.1591595 0.1586142 0.1581468
 0.1577432 0.1574008 0.1571254 0.1569347 0.1568487 0.1568566 0.1569028 0.1569212 0.1568775 0.1567764
 0.1566444 0.1565089 0.1563859 0.1562813 0.1561929 0.1560944 0.1559233 0.1555976 0.1550373 0.1541714
 0.1529598 0.1514308 0.1496798 0.1478284 0.1459988 0.1443042 0.1428313 0.1416286 0.1407078 0.1400337
 0.1395233 0.1390944 0.1387282 0.1384805 0.1384292 0.1385874 0.1388413 0.1390096 0.1390143 0.1389683
 0.1390657 0.139421 0.1400167 0.1407425 0.1414587 0.1420635 0.1425198 0.1428257 0.1429968 0.1430739
 0.1430911 0.1430368 0.142885 0.1426453 0.142351 0.1420278 0.1416864 0.1413058 0.1408293 0.1402217
 0.139508 0.1387336 0.1379189 0.1370546 0.1360878 0.1349505 0.1336828 0.1325079 0.1317236 0.1315235
 0.1319057 0.1326918 0.1336542 0.1346617 0.1356414 0.1363977 0.1366819 0.1365817 0.1366879 0.1376546
 0.1395794 0.1419043 0.1439131 0.1452334 0.1458638 0.1459057 0.1454301 0.144493 0.1430942 0.1411717
 0.1387464 0.1359759 0.1330116 0.1299625 0.1270089 0.1243632 0.1221315 0.1203265 0.1189364 0.1179918
 0.1176126 0.1174298 0.1155926 0.1097334 0.1006227 0.09380127 0.09492078 0.1033864 0.1127718 0.1176079
 0.1177375 0.1160666 0.114599 0.1136332 0.1130756 0.1130896 0.1138104 0.1150734 0.1164649 0.1175871
 0.1183018 0.1186658 0.1186346 0.1178483 0.1155954 0.1110581 0.1039672 0.09517235 0.08634941 0.07902057
 0.07387173 0.07078331 0.0691755 0.06835209 0.06783801 0.06758931 0.06788053 0.06896721 0.07086402 0.07341486
 0.07644826 0.07973839 0.08289316 0.08550895 0.08748713 0.08903892 0.09033862 0.09131487 0.09180914 0.09179667
 0.09139795 0.09077047 0.09004515 0.08929775 0.08849949 0.08752617 0.08632623 0.08509544 0.08416867 0.08369829
 0.08354425 0.08349641 0.08347154 0.08347204 0.08349004 0.08350261 0.08349949 0.08351745 0.08366123 0.08402082
 0.08454017 0.08503433 0.08535057 0.08547563 0.08549905 0.08547533 0.08530102 0.08481516 0.08409719 0.08349123
 0.08315007 0.08273332 0.08182895 0.08057022 0.07956673 0.079256 0.07952219 0.07992516 0.08011487 0.08001333
 0.07978857 0.07975362 0.08014527 0.08083769</values></Ydata></ScSm><ScRf><Ydata ylabel="Single channel"><values byteorder="INTEL" format="FLOAT32" numvalues="1820"> 0.0608248 0.06097556 0.06106469 0.06109632 0.06109637 0.06110857 0.06117854 0.06132525 0.06152296 0.06171245
 0.06184026 0.06189404 0.06189269 0.0618494 0.06177509 0.06171835 0.06175616 0.06191796 0.06213887 0.06230432
 0.06234199 0.06228445 0.06224804 0.06231945 0.06243842 0.06241737 0.06211606 0.06160142 0.06110542 0.06081463
 0.06075411 0.06091606 0.06137277 0.06206791 0.06257819 0.062412 0.06162515 0.06085261 0.06060638 0.06078519
 0.06096696 0.06089802 0.06057277 0.06014149 0.05995719 0.06047907 0.06181861 0.06336831 0.06402463 0.06288847
 0.05990846 0.05607726 0.05306037 0.05230347 0.05401657 0.05688704 0.0590627 0.05962989 0.05905402 0.05823497
 0.05753206 0.05688131 0.05643968 0.05663579 0.05758122 0.05865611 0.05882791 0.05754276 0.05538465 0.05365887
 0.05319664 0.05383135 0.05509625 0.05673392 0.05799415 0.05723055 0.05352014 0.04871562 0.04662055 0.04937355
 0.05516264 0.05999214 0.06123601 0.05911592 0.05554327 0.05253159 0.05142833 0.05255833 0.05518275 0.05811256
 0.06042093 0.06147543 0.06078182 0.05841832 0.0554528 0.053422 0.05338857 0.05552649 0.05908304 0.06244488
 0.06387177 0.0627816 0.0601365 0.05742653 0.05569014 0.05551501 0.05718143 0.06037307 0.0641607 0.0675385
 0.06982829 0.07074948 0.07048833 0.06958506 0.06852181 0.06762784 0.0673544 0.06800182 0.06898873 0.06907474
 0.06770964 0.06577119 0.06466171 0.06485894 0.06553781 0.06557192 0.06467221 0.06320167 0.06105866 0.05765159
 0.05325685 0.04938768 0.04728318 0.04696159 0.04811648 0.05059972 0.05336349 0.05440049 0.05293871 0.0508415
 0.05076 0.05330712 0.05674356 0.0591066 0.06003095 0.06060699 0.06197444 0.06415211 0.06589974 0.06565274
 0.0630722 0.05991101 0.05877483 0.0605662 0.06361882 0.06574879 0.06655896 0.06718926 0.0683265 0.06913869
 0.0681437 0.06497055 0.06129753 0.05980866 0.06185212 0.06608832 0.06946231 0.0694611 0.06580455 0.06050871
 0.0563174 0.05480418 0.05595815 0.05923595 0.06416173 0.06976372 0.07432216 0.07633317 0.0755995 0.07315359
 0.07007504 0.06648763 0.06211794 0.05795823 0.05647636 0.05928693 0.06508863 0.07074803 0.07409483 0.07500505
 0.0741846 0.07183176 0.06784227 0.0631146 0.05997875 0.06038714 0.06356421 0.06644338 0.06687562 0.06559011
 0.06462582 0.06479136 0.06535292 0.06559394 0.0658419 0.06690992 0.06893169 0.07104357 0.07221965 0.07220627
 0.07157196 0.07104588 0.07085149 0.07053974 0.06962125 0.06854388 0.0686369 0.07065355 0.07373425 0.0762897
 0.07759409 0.07804856 0.07811693 0.07750943 0.07560042 0.07260379 0.07005596 0.06967812 0.07171209 0.07476553
 0.07725803 0.07855931 0.07884886 0.07854608 0.07802364 0.0774839 0.07701961 0.07687456 0.07738492 0.07849433
 0.07964081 0.08032066 0.0805052 0.08038311 0.07999402 0.07930701 0.07848889 0.07790676 0.07785924 0.0783544
 0.07916052 0.08001573 0.08071353 0.08105861 0.08094054 0.08048892 0.07999687 0.07965101 0.07946316 0.0794534
 0.07971047 0.0802202 0.08078417 0.08118822 0.08137423 0.08140709 0.0813476 0.08120947 0.0810056 0.08080108
 0.08071398 0.08083366 0.08111525 0.08140694 0.0816258 0.08184052 0.08211508 0.08234923 0.08238026 0.08220264
 0.08198716 0.08189523 0.0819473 0.08206415 0.08215855 0.08215311 0.08196937 0.08159502 0.08117966 0.08098221
 0.08116618 0.08168101 0.08235007 0.08299767 0.08348536 0.08374067 0.0838065 0.08379333 0.08375071 0.0836371
 0.0834264 0.08319907 0.0831131 0.08328786 0.08369911 0.08418848 0.08458831 0.08482511 0.08491866 0.08494895
 0.08502752 0.08521141 0.08541819 0.08550137 0.08543397 0.08535066 0.08538572 0.08552042 0.08561807 0.08558702
 0.08548699 0.08546719 0.08560716 0.08584253 0.08605486 0.08620434 0.08635032 0.08655003 0.08675602 0.08683701
 0.08672057 0.08649422 0.0863198 0.0862639 0.08627583 0.08632207 0.08645021 0.0866873 0.08694654 0.0870979
 0.08711049 0.08707776 0.0870984 0.08716437 0.08718258 0.0870872 0.08690712 0.08673289 0.08664332 0.08666091
 0.08674863 0.08683468 0.08685528 0.08679338 0.08668193 0.08656724 0.08647443 0.08641776 0.08643495 0.08657452
 0.0868212 0.08705114 0.08710492 0.0869295 0.08663931 0.08641892 0.08635829 0.08638568 0.08635804 0.08620089
 0.0859545 0.08570724 0.08551335 0.08537196 0.0852567 0.08515309 0.08508162 0.08509161 0.08521056 0.08538111
 0.08547007 0.08537694 0.08513291 0.08486924 0.08469601 0.08463186 0.08462882 0.08462921 0.08461265 0.08461523
 0.08468258 0.08478831 0.08483845 0.08478042 0.08466858 0.08460422 0.08465152 0.08481401 0.0850323 0.08519349
 0.08520693 0.0850983 0.08498905 0.08496995 0.08503002 0.08511147 0.08518724 0.08526506 0.08535145 0.085446
 0.08556381 0.08573713 0.08598275 0.08627076 0.08653265 0.08670853 0.08679779 0.08686905 0.08701212 0.08726744
 0.087596 0.08791573 0.08816863 0.08835903 0.08853222 0.08871869 0.08891025 0.08909844 0.08931413 0.08959737
 0.0899373 0.09027665 0.09057566 0.09084324 0.09110689 0.09137985 0.09166507 0.09197576 0.09233925 0.09276928
 0.09322427 0.09361057 0.09385627 0.09398392 0.09409719 0.09430148 0.09463538 0.09504342 0.09539935 0.0955998
 0.09567047 0.0957502 0.09593984 0.09620091 0.0964399 0.0966558 0.09694526 0.09736682 0.09785062 0.09825993
 0.09852004 0.09867348 0.09881812 0.09900215 0.09918559 0.09930788 0.09937654 0.09946088 0.09960373 0.09978582
 0.09999351 0.1002686 0.1006464 0.1010775 0.1014606 0.10174 0.1019337 0.1020819 0.1022044 0.1022978
 0.1023473 0.1023529 0.1023555 0.102409 0.1025122 0.1026034 0.1026423 0.1026656 0.1027401 0.102894
 0.1031192 0.1034037 0.103723 0.1040272 0.1042853 0.1045411 0.1048717 0.1052705 0.1056178 0.1058024
 0.1058424 0.1058415 0.1058597 0.1058896 0.105942 0.1060752 0.1063236 0.1066506 0.1069966 0.1073383
 0.1076834 0.1080297 0.1083435 0.1085723 0.1086785 0.1086744 0.1086271 0.1086265 0.1087393 0.1089786
 0.1092996 0.1096285 0.1099073 0.1101079 0.1102118 0.1102086 0.1101418 0.1101202 0.1102328 0.110445
 0.110612 0.1106015 0.1103802 0.1099855 0.1094567 0.1088212 0.1081281 0.1074588 0.1068966 0.1064911
 0.1062603 0.1062253 0.106427 0.1068846 0.1075383 0.1082592 0.108923 0.1094477 0.1097569 0.1097638
 0.1094326 0.1088336 0.1081039 0.1073645 0.1066824 0.1060712 0.1054978 0.1049243 0.1043903 0.104049
 0.1040944 0.1046477 0.1056983 0.1071123 0.1086723 0.1101476 0.1113834 0.1123583 0.1131544 0.113866
 0.11454 0.1151933 0.11585 0.1165225 0.1171732 0.1177411 0.118211 0.1186244 0.1190209 0.1194004
 0.1197407 0.120024 0.1202535 0.120459 0.1206703 0.1208659 0.120977 0.1209655 0.120869 0.1207494
 0.1206199 0.1204428 0.1201741 0.1197994 0.119358 0.1189629 0.1187886 0.1190034 0.1196753 0.1207262
 0.1219884 0.1233122 0.124608 0.1257939 0.126763 0.1274452 0.1278767 0.1281709 0.1284306 0.128704
 0.1290001 0.1293111 0.1296219 0.1299189 0.1301989 0.1304754 0.1307749 0.1311142 0.1314704 0.1317908
 0.1320472 0.1322741 0.1325415 0.1328872 0.1332786 0.1336458 0.1339549 0.1342389 0.1345412 0.1348473
 0.1351021 0.1352884 0.1354534 0.1356593 0.1359374 0.1362832 0.1366579 0.1369956 0.1372468 0.1374252
 0.1375927 0.1377959 0.1380342 0.1382838 0.1385309 0.138776 0.1390254 0.1392905 0.1395857 0.1399088
 0.1402203 0.1404632 0.1406189 0.1407335 0.1408761 0.1410747 0.141301 0.141513 0.1417027 0.1419058
 0.1421651 0.1424833 0.1428098 0.1430813 0.1432705 0.1433993 0.1435149 0.1436583 0.1438461 0.1440682
 0.1442993 0.144518 0.1447198 0.144915 0.145117 0.1453297 0.1455461 0.1457583 0.1459647 0.1461686
 0.1463716 0.1465749 0.1467858 0.1470226 0.1473016 0.1476113 0.147907 0.1481432 0.1483124 0.1484424
 0.148565 0.1486996 0.1488576 0.1490419 0.1492417 0.1494415 0.149638 0.1498381 0.1500457 0.1502563
 0.150465 0.1506712 0.1508754 0.1510777 0.1512832 0.1515028 0.1517414 0.1519869 0.1522164 0.1524153
 0.1525891 0.1527576 0.1529392 0.1531371 0.1533384 0.1535296 0.153713 0.1539021 0.1541029 0.1543074
 0.1545061 0.1546991 0.1548923 0.1550888 0.1552877 0.1554866 0.1556821 0.1558706 0.1560511 0.1562308
 0.156422 0.1566284 0.1568398 0.1570438 0.1572374 0.1574251 0.1576113 0.1578012 0.1580005 0.1582086
 0.1584162 0.1586148 0.1588072 0.1590028 0.1592046 0.1594064 0.1596038 0.1598014 0.1600063 0.1602165
 0.1604242 0.1606266 0.1608273 0.1610297 0.1612356 0.161446 0.1616598 0.1618741 0.1620882 0.1623025
 0.1625155 0.1627268 0.1629388 0.1631527 0.1633677 0.1635841 0.163803 0.1640221 0.1642379 0.1644468
 0.1646444 0.1648282 0.1650022 0.1651724 0.1653408 0.1655077 0.1656773 0.1658549 0.1660427 0.1662393
 0.1664398 0.1666372 0.166829 0.1670185 0.1672089 0.1674025 0.1676043 0.1678175 0.1680374 0.1682535
 0.1684583 0.1686531 0.1688483 0.1690535 0.1692653 0.1694731 0.1696763 0.1698828 0.1700925 0.1702995
 0.1705053 0.1707164 0.1709322 0.171147 0.1713556 0.1715547 0.1717481 0.171948 0.172161 0.1723798
 0.1725963 0.1728114 0.1730265 0.1732382 0.1734446 0.1736458 0.173844 0.1740475 0.1742645 0.1744914
 0.1747192 0.1749431 0.1751597 0.1753666 0.1755712 0.1757829 0.1759992 0.1762148 0.1764314 0.1766472
 0.1768533 0.177049 0.1772401 0.1774187 0.1775452 0.1775027 0.1769962 0.1754562 0.1720398 0.1658
 0.1560576 0.142834 0.127001 0.1099737 0.09318851 0.07772981 0.06423312 0.05297536 0.04401323 0.03727011
 0.03259536 0.02986082 0.02905665 0.03038894 0.03439385 0.04162383 0.05143244 0.06088509 0.0658917 0.06443506
 0.05850271 0.05227582 0.04865074 0.04783432 0.04859 0.04986094 0.05131205 0.05313747 0.05567128 0.05900735
 0.06298219 0.06758741 0.0731716 0.07999763 0.08771062 0.09548487 0.1027347 0.1095754 0.1165505 0.1239769
 0.1316074 0.1388722 0.1453373 0.1509278 0.1558334 0.1602979 0.1644798 0.1684423 0.1722134 0.1757893
 0.1790518 0.1817292 0.1835246 0.1843417 0.1843985 0.1841075 0.1838315 0.1837367 0.1838336 0.1840926
 0.1844969 0.185035 0.185691 0.1864408 0.1872494 0.1880809 0.1889103 0.1897205 0.190496 0.191229
 0.1919181 0.1925577 0.1931379 0.1936551 0.1941148 0.1945299 0.1949192 0.1952969 0.1956626 0.1960113
 0.1963464 0.1966728 0.196984 0.1972683 0.197522 0.19775 0.1979613 0.1981668 0.1983726 0.1985776
 0.1987806 0.1989868 0.1992014 0.1994218 0.19964 0.1998499 0.2000498 0.2002419 0.2004289 0.2006128
 0.2007991 0.200997 0.2012082 0.201423 0.2016297 0.2018246 0.2020076 0.2021787 0.2023447 0.20252
 0.2027147 0.2029263 0.203141 0.203346 0.2035424 0.2037453 0.2039648 0.2041928 0.2044167 0.2046376
 0.2048607 0.20508 0.2052858 0.2054782 0.2056618 0.205835 0.2059965 0.2061557 0.2063311 0.2065359
 0.2067635 0.2069899 0.2071965 0.2073888 0.2075832 0.2077853 0.2079851 0.2081696 0.2083387 0.208516
 0.2087338 0.2089941 0.2092608 0.2095031 0.2097242 0.2099388 0.2101531 0.2103749 0.210607 0.210824
 0.2109893 0.2111108 0.2112583 0.2115091 0.2118719 0.2122691 0.2126071 0.2128598 0.2130723 0.2132999
 0.2135675 0.2138481 0.2140459 0.2140635 0.2139506 0.2139302 0.2141978 0.2147285 0.215331 0.215843
 0.2162271 0.2165227 0.216771 0.2169778 0.2171111 0.2171383 0.2170969 0.2171281 0.2173856 0.2178769
 0.2184379 0.2188974 0.2192161 0.2194428 0.2196262 0.2197979 0.2199233 0.2198486 0.2194612 0.2189708
 0.2188554 0.2193967 0.220363 0.2212587 0.2218153 0.2221279 0.2223808 0.2226239 0.2228232 0.2228964
 0.222601 0.2216749 0.2203391 0.2194398 0.2197452 0.221168 0.2229106 0.2242675 0.2250683 0.2254908
 0.2257525 0.22597 0.2260712 0.2257983 0.2249979 0.2240095 0.2235765 0.224158 0.2254119 0.2265636
 0.2271973 0.227468 0.2276815 0.2279543 0.2281391 0.22778 0.2263657 0.2240857 0.2222155 0.2222176
 0.2243102 0.2272059 0.2293888 0.2304173 0.2308035 0.2308951 0.2303603 0.2287855 0.2263028 0.2235282
 0.2213614 0.2208633 0.2225567 0.2255438 0.2280115 0.2290175 0.2292881 0.230024 0.2314723 0.2329294
 0.2336589 0.2334613 0.2325539 0.2311731 0.2294633 0.2278464 0.2272354 0.2283874 0.2309837 0.233748
 0.2356203 0.236558 0.2369824 0.2365367 0.2338331 0.2281226 0.2213838 0.2177766 0.2199731 0.226365
 0.2327886 0.2366157 0.238203 0.2389454 0.2394018 0.2391326 0.236968 0.2316572 0.223842 0.2172886
 0.2163371 0.2216085 0.2293046 0.2347573 0.235595 0.2319786 0.2257833 0.2200614 0.2177909 0.2200609
 0.2255934 0.2320108 0.237264 0.2401991 0.2405486 0.2388186 0.2362545 0.2345438 0.2345923 0.2351848
 0.2339112 0.2302115 0.2263057 0.2239341 0.2216652 0.2175414 0.2133674 0.2135243 0.2192762 0.2266587
 0.2309316 0.2313867 0.2305049 0.2294396 0.2260492 0.2179818 0.2071258 0.1997112 0.2008635 0.2092792
 0.2183857 0.2227802 0.2225269 0.2212315 0.2212314 0.2212115 0.2180565 0.210918 0.203292 0.2000869
 0.2024032 0.2065496 0.208416 0.2067523 0.2017345 0.193647 0.1852427 0.1826006 0.1900066 0.2047135
 0.2190823 0.2268657 0.2254992 0.2147543 0.1976408 0.182247 0.1778031 0.1864115 0.2004866 0.2097278
 0.2092939 0.2006738 0.1872877 0.1721483 0.1592583 0.1540604 0.16019 0.1757843 0.1934754 0.2040329
 0.2014716 0.187734 0.1731519 0.1690207 0.1772919 0.1891883 0.1950211 0.1929816 0.1877906 0.1846395
 0.1861969 0.1920927 0.1993063 0.2050186 0.2088629 0.2097224 0.202703 0.1850142 0.1637449 0.1511885
 0.1520802 0.1611818 0.1731081 0.1871587 0.2009122 0.2069116 0.2010699 0.1904092 0.1870805 0.1954633
 0.2084175 0.2160184 0.2153821 0.2111895 0.2084666 0.207243 0.2050484 0.2026844 0.2044249 0.2121069
 0.2219081 0.2286173 0.2310576 0.2315951 0.2321379 0.2326913 0.2327199 0.2320291 0.2306848 0.2291408
 0.228104 0.2277453 0.2275434 0.2270801 0.2260159 0.2228749 0.2153714 0.2036157 0.1921461 0.1863322
 0.1866862 0.189238 0.1914443 0.1936669 0.1936531 0.1849905 0.1655714 0.1445344 0.1356118 0.1438561
 0.1618748 0.1782576 0.1863227 0.1846927 0.1738764 0.1564581 0.1398084 0.1337752 0.1426467 0.1610313
 0.1796174 0.1931936 0.2012191 0.2033592 0.1985087 0.1879756 0.1767557 0.1706747 0.1728473 0.1823081
 0.1943186 0.2015794 0.1978179 0.1840325 0.1712234 0.172259 0.1883696 0.2070839 0.216248 0.2163291
 0.2154462 0.2167561 0.2169036 0.214902 0.2156815 0.223334 0.2350975 0.2440808 0.2453202 0.2377426
 0.2235138 0.2085191 0.2008312 0.2042077 0.2137526 0.2211804 0.2228015 0.2190384 0.2095501 0.1952796
 0.1836174 0.1839568 0.1968171 0.2126204 0.2225734 0.2266768 0.2297316 0.2330741 0.2329524 0.2262108
 0.2155647 0.2079299 0.2075861 0.212437 0.2175654 0.2204181 0.2208372 0.2181265 0.2114854 0.2033475
 0.1994109 0.2036868 0.214322 0.2252986 0.2317937 0.2331936 0.2316858 0.2294129 0.2270291 0.2238841
 0.2194635 0.2152435 0.2143937 0.2183987 0.2247033 0.2293455 0.2314888 0.2336878 0.237863 0.2426527
 0.2450708 0.2437654 0.2403035 0.2378054 0.2384425 0.2417193 0.2448472 0.2451199 0.24248 0.2398134
 0.2402995 0.2443812 0.2496881 0.2537331 0.2559423 0.2571565 0.2581816 0.2590801 0.2591159 0.2573053
 0.2538033 0.2507282 0.2506635 0.254092 0.2589357 0.2627138 0.2645583 0.2650727 0.2649529 0.2642612
 0.2628436 0.260994 0.2594566 0.2588273 0.2591248 0.2599615 0.2609434 0.2618293 0.2624979 0.262935
 0.2632114 0.2633945 0.2635126 0.2636003 0.2636881 0.2637318 0.2636569 0.2635124 0.2634868 0.2637015
 0.2640515 0.2643121 0.2643417 0.2640998 0.2635314 0.262575 0.2612884 0.2598389 0.258316 0.2566678
 0.2549385 0.2535313 0.2530864 0.2539956 0.2560368 0.258509 0.2607102 0.2622871 0.2632343 0.2637106
 0.2639021 0.2639632 0.2639806 0.2639629 0.263876 0.2636949 0.2634223 0.2630757 0.2626774 0.2622607
 0.2618724 0.2615495 0.2612855 0.2610239 0.2606959 0.2602677 0.2597594 0.2592232 0.2586962 0.2581611
 0.2575504 0.2567999 0.2559045 0.2549288 0.2539696 0.2530971 0.2523119 0.2515537 0.25076 0.2499112
 0.2490039 0.2480075 0.2468967 0.2457316 0.2446562 0.2437834 0.2431002 0.2424983 0.2418664 0.2411362
 0.2402804 0.2393123 0.238277 0.2372137 0.2361274 0.235003 0.2338256 0.2325749 0.2312245 0.229764
 0.2282149 0.2266173 0.2250084 0.2234021 0.2217659 0.220012 0.2180234 0.2156862 0.2128983 0.2095713
 0.2056597 0.2012071 0.1963684 0.191374 0.1864532 0.1817768 0.1774593 0.1735892 0.1702416 0.1674779
 0.1653512 0.1639095 0.163184 0.1631811 0.1638847 0.1652552 0.1672181 0.1696589 0.1724353 0.1753926
 0.1783707 0.1812171 0.1838282 0.1862001 0.1884145 0.1905404 0.1925576 0.1943963 0.1960215 0.1974419
 0.1986604 0.1996664 0.2004735 0.2011323 0.2016986 0.202203 0.2026526 0.2030493 0.2033976 0.2036968
 0.2039396 0.2041279 0.2042852 0.2044474 0.204643 0.2048817 0.2051563 0.2054594 0.2058043 0.2062186
 0.2067081 0.207247 0.2078094 0.2083953 0.2090172 0.2096836 0.2104103 0.2112303 0.212182 0.2132889
 0.2145456 0.2159126 0.2173175 0.2186678 0.2198748 0.2208776 0.2216486 0.222178 0.2224689 0.2225495
 0.2224719 0.2222814 0.2219974 0.2216251 0.2211713 0.2206426 0.2200474 0.2194055 0.2187384 0.2180506
 0.2173357 0.2166037 0.2158838 0.2151976 0.2145419 0.2139042 0.2132822 0.21268 0.2120937 0.211513
 0.2109338 0.2103592 0.2097883 0.2092136 0.208629 0.2080301 0.2073994 0.2067008 0.205899 0.2049817
 0.2039578 0.2028385 0.2016304 0.2003422 0.1989828 0.1975521 0.1960425 0.1944533 0.1927966 0.1910818
 0.1892955 0.1874061 0.185404 0.183339 0.1813104 0.1794143 0.1776959 0.1761386 0.174689 0.1733022
 0.1719702 0.1707014 0.1694857 0.1683015 0.1671485 0.1660467 0.1650092 0.1640393 0.1631459 0.1623437
 0.1616417 0.1610393 0.1605237 0.1600722 0.1596653 0.1593021 0.1590072 0.1588227 0.1587754 0.1588341
 0.1589148 0.1589398 0.1588818 0.1587556 0.1585976 0.1584534 0.1583556 0.1583043 0.1582754 0.1582314
 0.1581122 0.1578284 0.1572802 0.156395 0.155162 0.1536364 0.1519051 0.1500634 0.1482287 0.146538
 0.1450969 0.1439461 0.1430746 0.1424317 0.1419354 0.1415166 0.1411708 0.1409539 0.1409282 0.1410941
 0.1413481 0.1415372 0.1416004 0.1416339 0.1417952 0.1421794 0.142786 0.143537 0.1443106 0.1450013
 0.1455572 0.1459575 0.1461971 0.1463034 0.1463186 0.146259 0.146123 0.1459213 0.1456689 0.1453733
 0.1450367 0.1446408 0.1441512 0.1435642 0.1429092 0.1421907 0.1413848 0.1404808 0.139463 0.1382984
 0.1370383 0.1358984 0.1351642 0.1350261 0.1354862 0.1363603 0.1373974 0.1384502 0.1394584 0.1402548
 0.1405977 0.1405528 0.1406983 0.1417189 0.1437553 0.1462474 0.148429 0.149883 0.1505965 0.1506743
 0.1501948 0.1492334 0.1478085 0.145855 0.1433783 0.140532 0.1374776 0.1343365 0.1312956 0.1285672
 0.1262576 0.1243869 0.1229475 0.1219671 0.1215699 0.1213845 0.119504 0.1134852 0.1041368 0.09718568
 0.09843595 0.1072278 0.116915 0.1218758 0.1219748 0.1202312 0.1187305 0.117784 0.1172742 0.1173392
 0.1181017 0.1193983 0.120823 0.1219777 0.1227143 0.1230851 0.1230527 0.1222527 0.1199329 0.115216
 0.1078058 0.09859434 0.08935323 0.08169451 0.07634281 0.07316859 0.07155424 0.07074924 0.07023211 0.06995732
 0.07023633 0.07134737 0.07329363 0.0759111 0.07904828 0.08250183 0.08587672 0.08873996 0.09094928 0.09267786
 0.09409173 0.09514064 0.09568803 0.0957128 0.09532938 0.09469338 0.09393704 0.09313335 0.09225012 0.09117766
 0.08990522 0.08866888 0.0878062 0.08743675 0.08738519 0.087419 0.08743834 0.0874359 0.08741062 0.08736022
 0.08729449 0.0872561 0.08733945 0.08762382 0.08806407 0.08850342 0.08880606 0.08895034 0.08900568 0.08900876
 0.08884118 0.08832857 0.08754393 0.08683658 0.08637075 0.08581329 0.08476063 0.08337499 0.08230464 0.08198647
 0.08225182 0.08261578 0.08274116 0.08258605 0.08232248 0.08224291 0.0825808 0.08323139 0.08373586 0.08371224
</values></Ydata></ScRf><Data_Parameters_AB><parameter name="DPF">1</parameter><parameter name="NPT">3497</parameter><parameter name="FXV">3996</parameter><parameter name="LXV">500</parameter><parameter name="CSF">1</parameter><parameter name="MXY">0.0344759002327919</parameter><parameter name="MNY">-0.0609747432172298</parameter><parameter name="DAT">31/05/2022</parameter><parameter name="TIM">14:26:43.470 (GMT+2)</parameter><parameter name="DXU">WN</parameter></Data_Parameters_AB><AB__Qtest><MainReport name="Quality Test Report"><Header><Line><Legend>Test result ok/not ok [1/0]: </Legend><Value>0</Value></Line><Line><Legend>Method file: </Legend><Value>C:\Users\Public\Documents\Bruker\OPUS_8.2.28\QT\IRBT_v3_default.QT</Value></Line></Header><Matrix><Line><Legend></Legend><Legend>min</Legend><Legend>max</Legend><Legend>measured</Legend></Line><Line><Value>Absorption (X-Range 1):</Value><Value>0.400000</Value><Value>2.000000</Value><Value>0.057247</Value></Line><Line><Value>Noise (X-Range 4):</Value><Value></Value><Value>0.000300</Value><Value>0.000054</Value></Line><Line><Value>Signal/Noise (X-Range 2):</Value><Value>200.000000</Value><Value></Value><Value>18.993394</Value></Line><Line><Value>Signal/Noise (X-Range 3):</Value><Value>40.000000</Value><Value></Value><Value>9.933395</Value></Line><Line><Value>Water vapour (X-Range 5):</Value><Value></Value><Value>0.000300</Value><Value>0.000011</Value></Line><Line><Value>Signal/Water (X-Range 2):</Value><Value>100.000000</Value><Value></Value><Value>94.304622</Value></Line><Line><Value>Signal/Water (X-Range 3):</Value><Value>20.000000</Value><Value></Value><Value>49.320574</Value></Line><Line><Value>Fringes (X-Range 6):</Value><Value></Value><Value>0.000100</Value><Value>0.000059</Value></Line></Matrix></MainReport></AB__Qtest><Data_Parameters_ScSm><parameter name="DPF">1</parameter><parameter name="NPT">1814</parameter><parameter name="FXV">3996.33169228125</parameter><parameter name="LXV">499.541461535156</parameter><parameter name="CSF">1</parameter><parameter name="MXY">0.264011859893799</parameter><parameter name="MNY">0.0317850485444069</parameter><parameter name="DAT">31/05/2022</parameter><parameter name="TIM">14:26:43.470 (GMT+2)</parameter><parameter name="DXU">WN</parameter></Data_Parameters_ScSm><Data_Parameters_ScRf><parameter name="DPF">1</parameter><parameter name="NPT">1820</parameter><parameter name="FXV">4004.04661832813</parameter><parameter name="LXV">495.683998511719</parameter><parameter name="CSF">1</parameter><parameter name="MXY">0.265072673559189</parameter><parameter name="MNY">0.0290566477924585</parameter><parameter name="DAT">31/05/2022</parameter><parameter name="TIM">14:26:17.171 (GMT+2)</parameter><parameter name="DXU">WN</parameter></Data_Parameters_ScRf><Optic_Parameters_Rf><parameter name="APR">0</parameter><parameter name="APT">Open</parameter><parameter name="BMS">KBr</parameter><parameter name="DTC">RT-DLaTGS_IR-Biotyper [Microplate reader]</parameter><parameter name="HPF">0</parameter><parameter name="LPF">10.0</parameter><parameter name="LPV">4000</parameter><parameter name="PGR">0</parameter><parameter name="RCH">Module port</parameter><parameter name="RDX">0</parameter><parameter name="SRC">MIR</parameter><parameter name="VEL">10.0</parameter><parameter name="SON">Off</parameter></Optic_Parameters_Rf><Acquisition_Parameters_Rf><parameter name="ADT">1</parameter><parameter name="AQM">DD</parameter><parameter name="CFE">0</parameter><parameter name="COR">0</parameter><parameter name="DEL">0</parameter><parameter name="DLY">0</parameter><parameter name="HFW">8000</parameter><parameter name="LFW">0</parameter><parameter name="NSR">32</parameter><parameter name="PLF">AB</parameter><parameter name="RES">6</parameter><parameter name="RGN">-1</parameter><parameter name="STR">0</parameter><parameter name="TCL">MakeCompatibleScalar (0, {WSV=1.000000, ARV=0});</parameter><parameter name="TDL">37</parameter><parameter name="RPO">0</parameter></Acquisition_Parameters_Rf><FT_-_Parameters_Rf><parameter name="APF">B3</parameter><parameter name="HFQ">500</parameter><parameter name="LFQ">4000</parameter><parameter name="NLI">0</parameter><parameter name="PHR">24</parameter><parameter name="PHZ">ML</parameter><parameter name="SPZ">NO</parameter><parameter name="ZFF">1</parameter></FT_-_Parameters_Rf><Optic_Parameters_><parameter name="APR">0</parameter><parameter name="APT">Open</parameter><parameter name="BMS">KBr</parameter><parameter name="CHN">Module port</parameter><parameter name="DTC">RT-DLaTGS_IR-Biotyper [Microplate reader]</parameter><parameter name="HPF">0</parameter><parameter name="LPF">10.0</parameter><parameter name="LPV">4000</parameter><parameter name="PGN">0</parameter><parameter name="RDX">0</parameter><parameter name="SRC">MIR</parameter><parameter name="VEL">10.0</parameter><parameter name="SON">Off</parameter></Optic_Parameters_><FT_-_Parameters_><parameter name="APF">B3</parameter><parameter name="HFQ">500</parameter><parameter name="LFQ">4000</parameter><parameter name="NLI">0</parameter><parameter name="PHR">24</parameter><parameter name="PHZ">ML</parameter><parameter name="SPZ">NO</parameter><parameter name="ZFF">1</parameter></FT_-_Parameters_><Acquisition_Parameters_><parameter name="ADT">1</parameter><parameter name="AQM">DD</parameter><parameter name="CFE">0</parameter><parameter name="COR">0</parameter><parameter name="DEL">0</parameter><parameter name="DLY">0</parameter><parameter name="HFW">8000</parameter><parameter name="LFW">0</parameter><parameter name="NSS">32</parameter><parameter name="PLF">AB</parameter><parameter name="RES">6</parameter><parameter name="SOT">0</parameter><parameter name="TCL">MakeCompatibleScalar (0, {WSV=1.000000, ARV=0});</parameter><parameter name="TDL">37</parameter><parameter name="SPO">0</parameter><parameter name="SGN">-1</parameter></Acquisition_Parameters_><Instrument_Parameters_Rf><parameter name="HFL">15800.168544</parameter><parameter name="LFL">0</parameter><parameter name="LWN">15800.168544</parameter><parameter name="ABP">32197</parameter><parameter name="SSP">1</parameter><parameter name="ARG">2</parameter><parameter name="ASG">2</parameter><parameter name="ASS">32</parameter><parameter name="GFW">16</parameter><parameter name="GBW">16</parameter><parameter name="BFW">0</parameter><parameter name="BBW">0</parameter><parameter name="PKA">7266</parameter><parameter name="PKL">4996</parameter><parameter name="PRA">7450</parameter><parameter name="PRL">5001</parameter><parameter name="P2A">1</parameter><parameter name="P2L">1</parameter><parameter name="P2R">1</parameter><parameter name="P2K">1</parameter><parameter name="DAQ">0</parameter><parameter name="AG2">1</parameter><parameter name="SSM">1</parameter><parameter name="RSN">25795</parameter><parameter name="CRR">0</parameter><parameter name="SRT">1654007177.171</parameter><parameter name="DUR">19.6379852294922</parameter><parameter name="TSC">29.1</parameter><parameter name="MVD">0.207324117422104</parameter><parameter name="AN1">0.225822912702855</parameter><parameter name="AN2">0</parameter><parameter name="VSN">2.485 Apr  4 2017</parameter><parameter name="SRN">0085</parameter><parameter name="CAM">0</parameter><parameter name="INS">IR-Biotyper</parameter><parameter name="FOC">69</parameter><parameter name="RDY">1</parameter><parameter name="ARS">32</parameter></Instrument_Parameters_Rf><Sample_Parameters_><parameter name="BLD"></parameter><parameter name="CNM">Admin</parameter><parameter name="CPY"></parameter><parameter name="DPM"></parameter><parameter name="EXP">IRBT_v3_32Scans.XPM</parameter><parameter name="LCT"></parameter><parameter name="SFM">Microplate, HTS-XT</parameter><parameter name="SNM">220531-1301_MPP28F (D_1)_E10_51a67d67-5d14-4cb6-9830-16416afc4c29.0</parameter><parameter name="XPP">C:\Users\Public\Documents\Bruker\OPUS_8.2.28\XPM</parameter><parameter name="IST">OK</parameter><parameter name="CPG">1252</parameter><parameter name="UID">a5dc5736-03b8-4156-9d80-9be0de7cef7d</parameter></Sample_Parameters_><Instrument_Parameters_><parameter name="HFL">15800.168544</parameter><parameter name="LFL">0</parameter><parameter name="LWN">15800.168544</parameter><parameter name="ABP">32197</parameter><parameter name="SSP">1</parameter><parameter name="ASG">2</parameter><parameter name="ARG">2</parameter><parameter name="ASS">32</parameter><parameter name="GFW">16</parameter><parameter name="GBW">16</parameter><parameter name="BFW">0</parameter><parameter name="BBW">0</parameter><parameter name="PKA">7513</parameter><parameter name="PKL">4988</parameter><parameter name="PRA">7818</parameter><parameter name="PRL">5002</parameter><parameter name="P2A">1</parameter><parameter name="P2L">1</parameter><parameter name="P2R">1</parameter><parameter name="P2K">1</parameter><parameter name="DAQ">0</parameter><parameter name="AG2">1</parameter><parameter name="SSM">1</parameter><parameter name="RSN">13523</parameter><parameter name="CRR">0</parameter><parameter name="SRT">1654007203.47</parameter><parameter name="DUR">19.6379852294922</parameter><parameter name="TSC">29.1</parameter><parameter name="MVD">0.270926803350449</parameter><parameter name="AN1">0.225813107935457</parameter><parameter name="AN2">0</parameter><parameter name="VSN">2.485 Apr  4 2017</parameter><parameter name="SRN">0085</parameter><parameter name="CAM">0</parameter><parameter name="INS">IR-Biotyper</parameter><parameter name="FOC">69</parameter><parameter name="RDY">1</parameter></Instrument_Parameters_><History/></OPUSDataFile>
