<?xml version="1.0" encoding="UTF-8" ?>
<OPUSDataFile><AB><Ydata ylabel="Absorbance Units"><values byteorder="INTEL" format="FLOAT32" numvalues="3497"> -0.02582717 -0.02583966 -0.02583296 -0.02580689 -0.02576269 -0.02570044 -0.02563682 -0.02557331 -0.02553365 -0.02551788
 -0.02554038 -0.02559615 -0.0256771 -0.02577481 -0.02586517 -0.02594457 -0.02599393 -0.02602056 -0.0260233 -0.02601568
 -0.02600813 -0.02600851 -0.02602573 -0.02605525 -0.02609873 -0.02614496 -0.02619143 -0.02623091 -0.02626121 -0.02628424
 -0.0262998 -0.02631291 -0.02632382 -0.02633301 -0.02634045 -0.02634537 -0.02634868 -0.02635521 -0.02636618 -0.02638931
 -0.02642326 -0.02646971 -0.02652439 -0.02658136 -0.02663694 -0.02668421 -0.02672278 -0.02674949 -0.02676714 -0.02677687
 -0.02677916 -0.02677569 -0.02676068 -0.0267328 -0.02668858 -0.02662529 -0.02655692 -0.02648353 -0.02643136 -0.02640188
 -0.02641021 -0.02645543 -0.02652907 -0.02662835 -0.02673252 -0.02684027 -0.02693597 -0.02702 -0.02708501 -0.02713341
 -0.02716414 -0.02718429 -0.02720147 -0.02722089 -0.02725221 -0.02728719 -0.02732619 -0.02735326 -0.02736021 -0.02734732
 -0.02730935 -0.02727065 -0.02723306 -0.02722497 -0.02724957 -0.02732226 -0.02744411 -0.02761492 -0.02783304 -0.02807874
 -0.02834539 -0.02858473 -0.02878743 -0.02888856 -0.02889559 -0.02878506 -0.02859053 -0.02835596 -0.02811038 -0.02790867
 -0.02775248 -0.02766554 -0.02762621 -0.02763076 -0.02765428 -0.0276842 -0.02771626 -0.0277454 -0.02778195 -0.02782807
 -0.02788256 -0.02794648 -0.02800385 -0.02805379 -0.02808666 -0.02810336 -0.02811443 -0.02812277 -0.0281521 -0.02820341
 -0.02829584 -0.02842222 -0.02857885 -0.02874865 -0.02890079 -0.02902506 -0.02909223 -0.02911524 -0.02909411 -0.02904425
 -0.02897529 -0.02889252 -0.028795 -0.02870716 -0.02862911 -0.02861154 -0.02866332 -0.02881773 -0.02908464 -0.0294132
 -0.02980214 -0.03006155 -0.03018587 -0.03004139 -0.02966197 -0.02920487 -0.02869391 -0.02830839 -0.02803139 -0.02791082
 -0.02792212 -0.02805147 -0.02826305 -0.02851696 -0.0287653 -0.02895286 -0.0290625 -0.02905505 -0.02898472 -0.02885807
 -0.02874336 -0.02866651 -0.02863036 -0.02864336 -0.02866654 -0.02869592 -0.02871342 -0.02871748 -0.02872321 -0.02873153
 -0.02876001 -0.02880671 -0.02886912 -0.02894148 -0.02900136 -0.02904316 -0.02903874 -0.02899333 -0.0288975 -0.02877361
 -0.02864284 -0.02852757 -0.02845657 -0.028431 -0.02846312 -0.02853476 -0.02864383 -0.02876639 -0.02889669 -0.02901457
 -0.02911573 -0.02918842 -0.02923069 -0.02923936 -0.02921407 -0.02915847 -0.02907274 -0.02896016 -0.02882088 -0.02865545
 -0.02846755 -0.02826864 -0.02806853 -0.02789765 -0.02776299 -0.02769535 -0.02768347 -0.02773231 -0.02781073 -0.02789615
 -0.02796096 -0.02797825 -0.02795217 -0.02787248 -0.02777278 -0.02765786 -0.02756428 -0.02749992 -0.02748141 -0.02751246
 -0.02758791 -0.02770789 -0.02785284 -0.0280208 -0.02817864 -0.02832327 -0.02841555 -0.0284577 -0.02843326 -0.02835547
 -0.02824762 -0.02812559 -0.02802883 -0.02796356 -0.02795558 -0.02799729 -0.02809248 -0.02822762 -0.02839579 -0.02858829
 -0.02880242 -0.02902394 -0.02925276 -0.02945653 -0.0296296 -0.02975004 -0.0298139 -0.02982311 -0.02977804 -0.02965259
 -0.02944605 -0.0291358 -0.02873389 -0.02831198 -0.0278854 -0.02755934 -0.02732601 -0.02722488 -0.02722637 -0.02729981
 -0.02741139 -0.02750059 -0.02756732 -0.02758429 -0.02758222 -0.02757494 -0.02757404 -0.02759301 -0.02761173 -0.02763019
 -0.02761587 -0.02756113 -0.02745705 -0.02729865 -0.02712138 -0.02692678 -0.02676568 -0.02663949 -0.02657478 -0.02656764
 -0.02660816 -0.02668403 -0.02674273 -0.02677083 -0.0266959 -0.02653826 -0.02629235 -0.02600404 -0.02573755 -0.02549724
 -0.02531842 -0.02516275 -0.02501752 -0.02485123 -0.02464082 -0.02440045 -0.02412478 -0.02385512 -0.02359947 -0.02337715
 -0.0231941 -0.02302714 -0.02287592 -0.02268402 -0.02244948 -0.02213184 -0.02173993 -0.02131774 -0.02087718 -0.02049576
 -0.02016614 -0.0199091 -0.01971081 -0.01955728 -0.01943407 -0.01932481 -0.01919792 -0.01902469 -0.01877015 -0.01839461
 -0.01791947 -0.01733571 -0.01670341 -0.01604368 -0.01536408 -0.01467157 -0.0139468 -0.0131859 -0.01240362 -0.01160043
 -0.01079927 -0.01000086 -0.009215444 -0.008444839 -0.007707661 -0.007005818 -0.0063606 -0.005765395 -0.005215163 -0.004698767
 -0.004194092 -0.00369209 -0.003180979 -0.002629705 -0.002015483 -0.001288772 -0.0003949542 0.0006277132 0.001796172 0.002985921
 0.004156538 0.005268934 0.00630181 0.007297472 0.008258456 0.009219258 0.010183 0.01114832 0.01211401 0.01305136
 0.01395996 0.01481604 0.01563363 0.01645099 0.01729877 0.0182937 0.01942203 0.02073901 0.02214987 0.02354404
 0.02488072 0.02606247 0.027152 0.02815593 0.02914605 0.03016171 0.03121584 0.03232735 0.03345496 0.03459285
 0.0357147 0.03681303 0.03791404 0.03901832 0.04017444 0.0413832 0.04265516 0.04398316 0.04531585 0.04664816
 0.04792773 0.04916253 0.05034735 0.05149236 0.05261396 0.05371941 0.05482274 0.0559338 0.05706853 0.05822499
 0.05941151 0.06060564 0.06179564 0.06298266 0.06415642 0.0653655 0.06661995 0.06794056 0.06933849 0.07073929
 0.07213914 0.07345795 0.07469512 0.0758617 0.07696456 0.07806319 0.07915987 0.08029827 0.08147046 0.08268063
 0.08391125 0.08512999 0.08632725 0.08746821 0.08857647 0.08965262 0.09074676 0.09189412 0.0931148 0.09443866
 0.09581728 0.09724668 0.09866564 0.1000594 0.1014047 0.1026952 0.1039382 0.1051331 0.1063082 0.107465
 0.1086332 0.1098122 0.1110092 0.1122236 0.1134553 0.1147091 0.116001 0.117328 0.1186993 0.1200902
 0.1214729 0.1228254 0.1241095 0.1253401 0.1265089 0.1276554 0.1287965 0.1299529 0.1311401 0.1323377
 0.1335472 0.1347302 0.1358802 0.1369909 0.1380603 0.1391276 0.1401946 0.1412973 0.142433 0.143593
 0.1447732 0.1459475 0.1471192 0.1482844 0.1494472 0.1506167 0.1517885 0.1529619 0.154128 0.1552781
 0.1564077 0.1575089 0.1585895 0.1596476 0.1607043 0.1617656 0.1628459 0.1639523 0.1650718 0.1662047
 0.167331 0.1684486 0.1695602 0.170666 0.1717784 0.1728961 0.1740137 0.1751273 0.1762164 0.1772791
 0.1782975 0.1792758 0.1802099 0.1811142 0.182005 0.1828987 0.1838203 0.1847679 0.185752 0.1867529
 0.1877649 0.1887724 0.1897702 0.1907468 0.1917005 0.1926125 0.1934782 0.1943029 0.1950846 0.1958786
 0.1966878 0.1975709 0.1985241 0.1995423 0.2006123 0.2016697 0.2027066 0.2036614 0.2045443 0.205341
 0.2060782 0.2067866 0.2074871 0.208217 0.2089665 0.2097443 0.2105247 0.2112948 0.2120508 0.212786
 0.2135161 0.2142441 0.2149757 0.2157125 0.2164518 0.2171933 0.2179392 0.2186895 0.21944 0.2201906
 0.2209339 0.221674 0.2224262 0.223194 0.2240013 0.2248366 0.2256905 0.2265442 0.2273634 0.2281468
 0.2288774 0.2295697 0.2302302 0.2308655 0.2314824 0.2320764 0.2326465 0.2331931 0.2337146 0.2342214
 0.2347139 0.2352067 0.2357007 0.2362116 0.2367403 0.2373024 0.2378984 0.2385398 0.2392235 0.2399447
 0.2406929 0.2414355 0.2421609 0.2428248 0.2434343 0.2439723 0.2444729 0.2449604 0.2454703 0.2460404
 0.2466667 0.2473677 0.2480874 0.2488165 0.2494907 0.2500894 0.2506073 0.2510349 0.2514363 0.2518157
 0.252222 0.2526558 0.2530772 0.2534807 0.2537919 0.2540196 0.2541612 0.2542416 0.2543364 0.2544609
 0.2546888 0.2550082 0.255439 0.2559482 0.2565124 0.2570989 0.2576727 0.2582343 0.2587655 0.2593134
 0.2598884 0.2605316 0.2612639 0.2620446 0.2628793 0.2636523 0.2643552 0.2648958 0.2652714 0.265496
 0.2655794 0.2656205 0.2656261 0.2656848 0.2657899 0.2659647 0.2662056 0.2665116 0.2668933 0.2673714
 0.2679363 0.268602 0.2693066 0.2700171 0.2706706 0.2712159 0.2716724 0.2720225 0.2723567 0.272692
 0.2730922 0.2735747 0.2741153 0.2747163 0.2752926 0.27584 0.2762812 0.2766188 0.2768427 0.2769695
 0.2770724 0.2771718 0.2773736 0.2776792 0.2781521 0.2787592 0.2794895 0.2802835 0.2810799 0.2818291
 0.2824685 0.2830076 0.2834221 0.283783 0.2841052 0.2844569 0.2848592 0.2853282 0.2858693 0.2864853
 0.2871754 0.287973 0.2888795 0.2899125 0.291063 0.2922533 0.2934608 0.2945272 0.2954427 0.2960795
 0.2964725 0.2966184 0.296595 0.2965119 0.2964373 0.2964957 0.2966754 0.2970285 0.2974508 0.297916
 0.2983004 0.2985525 0.2986194 0.2984692 0.2981505 0.2976589 0.2971021 0.2964885 0.2959027 0.2953485
 0.2948357 0.2943605 0.2938857 0.2934127 0.2929253 0.2924351 0.2919728 0.2915444 0.2911881 0.2908774
 0.2906041 0.2903005 0.2898987 0.2893334 0.2885229 0.2874822 0.2861752 0.2847169 0.2831286 0.2815388
 0.2799841 0.2785169 0.2771535 0.2758851 0.2747128 0.2736189 0.2726022 0.2716288 0.2706949 0.2697432
 0.2687768 0.2677775 0.2667634 0.2657884 0.2648565 0.2640159 0.2632281 0.2624596 0.2616655 0.2607726
 0.2597966 0.2587076 0.2575907 0.2564732 0.2554455 0.2545501 0.2538123 0.2532575 0.252818 0.2524963
 0.2521591 0.251796 0.2512941 0.2506481 0.249853 0.2489177 0.2479404 0.2469309 0.2459968 0.2451317
 0.2443747 0.2437064 0.2431043 0.24255 0.2420057 0.2414606 0.2408884 0.2402881 0.239648 0.2389814
 0.2382883 0.2375932 0.2369034 0.2362402 0.235612 0.2350183 0.2344631 0.2339194 0.2333861 0.2328276
 0.2322419 0.2316101 0.2309334 0.2302192 0.2294715 0.2287149 0.2279536 0.2272145 0.2264979 0.2258203
 0.2251736 0.2245554 0.2239514 0.223345 0.2227265 0.2220814 0.2214126 0.2207165 0.2200029 0.2192744
 0.2185373 0.2177938 0.2170439 0.2162879 0.2155248 0.2147544 0.2139769 0.2131923 0.2124036 0.2116114
 0.210823 0.2100394 0.2092702 0.2085151 0.2077797 0.2070602 0.2063521 0.2056495 0.2049404 0.2042242
 0.2034923 0.2027559 0.2020166 0.2012962 0.2006039 0.199963 0.1993853 0.1988761 0.1984458 0.1980533
 0.1977007 0.1972996 0.1968427 0.1962521 0.1955236 0.1946669 0.1936902 0.1926977 0.1917008 0.1908223
 0.1900569 0.1894605 0.1890011 0.1886409 0.1883318 0.1879796 0.1875592 0.1869927 0.1863184 0.1855268
 0.1847031 0.1838917 0.183141 0.1824895 0.181903 0.1813823 0.1808808 0.1803841 0.179921 0.1794899
 0.1791665 0.1789548 0.1788701 0.1789046 0.178966 0.1790394 0.1789891 0.178816 0.1784421 0.1778992
 0.1772143 0.176435 0.1756526 0.1748899 0.1742165 0.1736088 0.1730734 0.1725776 0.1720986 0.1716433
 0.1712059 0.1708115 0.1704712 0.1701675 0.1699031 0.1696284 0.1693368 0.169024 0.1686895 0.1683933
 0.1681374 0.1679691 0.1678799 0.1678453 0.1678525 0.1678405 0.1678102 0.1677306 0.1676167 0.1674808
 0.1673329 0.1671962 0.1670538 0.1669097 0.1667162 0.1664518 0.1660731 0.1655495 0.1649017 0.1641152
 0.1632929 0.162444 0.1616853 0.1610324 0.1605142 0.1601333 0.1598056 0.1595238 0.1591694 0.158745
 0.1582002 0.1575556 0.1568555 0.1561219 0.1554332 0.1547889 0.1542294 0.1537295 0.1532787 0.1528468
 0.1524054 0.1519395 0.1514292 0.150885 0.1503007 0.1497131 0.1491286 0.1485846 0.1480927 0.1476398
 0.14723 0.1467902 0.1463166 0.1457553 0.14511 0.1444229 0.1437042 0.1430458 0.1424387 0.1419064
 0.1414181 0.1409065 0.1403619 0.1397249 0.1390346 0.1383082 0.1375953 0.136948 0.1363736 0.135896
 0.135489 0.1351457 0.1348555 0.1346113 0.1344259 0.1343024 0.1342379 0.1342357 0.1342506 0.1342807
 0.1342541 0.1341681 0.1339669 0.1336557 0.1332344 0.1327201 0.1321733 0.1316132 0.131119 0.1306945
 0.1303861 0.1301784 0.1300733 0.1300505 0.1300932 0.1301914 0.1303341 0.130522 0.1307541 0.1310278
 0.1313448 0.1316882 0.1320556 0.1324336 0.1328178 0.1332372 0.1336928 0.1342644 0.1349556 0.1358377
 0.1369024 0.1381395 0.1395267 0.1409765 0.1424733 0.143931 0.1453573 0.1467245 0.1480516 0.1493529
 0.1506359 0.1519133 0.1531814 0.1544389 0.155692 0.1569401 0.1582005 0.1594813 0.160774 0.1620858
 0.1633518 0.1645695 0.1656429 0.166566 0.1672768 0.167776 0.1680701 0.1681658 0.1681083 0.1679031
 0.1675904 0.1671821 0.1667182 0.1662315 0.1657904 0.1654351 0.1652465 0.1652286 0.1654229 0.165782
 0.1662931 0.1669067 0.1675942 0.1683551 0.1691803 0.1700975 0.1711129 0.1722271 0.173444 0.1747225
 0.176061 0.1773957 0.1787222 0.179964 0.1811164 0.1821084 0.1829452 0.1836028 0.1841013 0.1844791
 0.1847518 0.1849744 0.1851237 0.1852125 0.1851577 0.1849145 0.1843546 0.1833986 0.1819436 0.1799125
 0.1773342 0.1741694 0.1706323 0.1667318 0.1627886 0.1588345 0.1551313 0.1516986 0.1486263 0.145911
 0.1434952 0.1413692 0.1394408 0.1377088 0.1361224 0.1346801 0.1333588 0.1321428 0.1309969 0.1299028
 0.1288189 0.1277518 0.1266863 0.125655 0.1246716 0.1237644 0.1229501 0.122234 0.1216211 0.1211082
 0.1206943 0.1203845 0.1201785 0.1200896 0.1201187 0.120274 0.1205536 0.1209309 0.121394 0.1218522
 0.1222855 0.1225627 0.1226801 0.1225492 0.1222063 0.1216633 0.120987 0.1202597 0.1195421 0.1189147
 0.1184058 0.1180575 0.1178643 0.1178366 0.1179496 0.1182001 0.1185602 0.1190265 0.1195693 0.1201897
 0.1208171 0.1214497 0.1219158 0.1222013 0.1220422 0.1214295 0.120152 0.1182499 0.1157437 0.1127347
 0.1094862 0.1060986 0.1028847 0.09986226 0.09719729 0.09481739 0.09272122 0.09082347 0.08906575 0.08742038
 0.08585696 0.08439363 0.08303091 0.08178063 0.08064796 0.07961925 0.07869488 0.07784866 0.07707904 0.07636075
 0.07569282 0.07505863 0.07445838 0.07388578 0.07334077 0.0728197 0.07232193 0.07184321 0.07138468 0.07094704
 0.07052974 0.07013603 0.06975412 0.06937797 0.06898847 0.06856985 0.06811982 0.06762669 0.06712271 0.06660963
 0.06613843 0.06571983 0.06538045 0.06512833 0.06493472 0.06479919 0.06465685 0.06450543 0.06430387 0.06405675
 0.06377902 0.06347583 0.06318054 0.06288569 0.0625901 0.06228022 0.06192599 0.06153096 0.06108081 0.06060197
 0.06011009 0.05963441 0.05919818 0.05881447 0.0584969 0.05823819 0.0580429 0.05788258 0.057756 0.05761923
 0.05746711 0.05726834 0.05701965 0.05673054 0.0564028 0.05607576 0.05575067 0.05545639 0.0551889 0.05494671
 0.05472532 0.05451059 0.05430325 0.05409777 0.05389714 0.05370359 0.05351779 0.05334058 0.05317391 0.05301778
 0.05287891 0.05276128 0.0526647 0.05259406 0.05252654 0.05246142 0.05236181 0.05222247 0.05202676 0.05177221
 0.05148351 0.05116281 0.05085613 0.05056402 0.05031344 0.05009909 0.04991324 0.04974974 0.04958617 0.04942335
 0.0492503 0.04907544 0.0489052 0.04874663 0.04861119 0.0484933 0.04839699 0.04830119 0.04819951 0.04807004
 0.04790296 0.04769674 0.04744656 0.04717461 0.04688212 0.04659505 0.04631552 0.04605348 0.04580896 0.04557806
 0.0453604 0.04515174 0.04495217 0.04476059 0.04457597 0.04439525 0.04421651 0.04403405 0.04384846 0.04365725
 0.04346415 0.04327144 0.04308275 0.04290138 0.04272804 0.04256418 0.04240818 0.04226014 0.04211729 0.04197945
 0.04184232 0.04170568 0.04156316 0.04141429 0.04125534 0.04108647 0.04091235 0.0407345 0.04056734 0.04041232
 0.04028494 0.04018262 0.04010845 0.04005353 0.04000343 0.03994798 0.03986632 0.03975642 0.0396066 0.03942609
 0.03921587 0.03898922 0.03875193 0.03851346 0.03827771 0.03804984 0.03783148 0.03762522 0.03743185 0.0372498
 0.03707919 0.03691339 0.03675205 0.0365884 0.0364227 0.03625372 0.03608264 0.03591411 0.03574887 0.03559199
 0.03544211 0.03529919 0.03516115 0.03502436 0.03488987 0.03475647 0.03462823 0.0345078 0.03439672 0.03429733
 0.03420597 0.03412227 0.03404195 0.03396419 0.03388612 0.03380786 0.03372226 0.03362902 0.03351672 0.03338506
 0.03323091 0.03305612 0.03287476 0.03268924 0.03251932 0.03236331 0.03222802 0.0321072 0.03199158 0.03187692
 0.03175185 0.03161967 0.03147784 0.03133532 0.03119701 0.03106997 0.03095963 0.03086524 0.03078924 0.03072199
 0.03066297 0.03059838 0.03052646 0.03043707 0.03032898 0.03020418 0.03006312 0.02991918 0.02977332 0.02963982
 0.02951827 0.02941486 0.0293276 0.02925425 0.02919229 0.02913605 0.02908288 0.0290271 0.02896615 0.0288954
 0.02881427 0.02871998 0.02861649 0.02850377 0.02838972 0.02827664 0.0281704 0.02807343 0.02798356 0.02790133
 0.0278193 0.02773686 0.02765095 0.02756157 0.02747259 0.02738401 0.02729805 0.02721363 0.02712649 0.02703626
 0.02693864 0.02683603 0.02673104 0.02662643 0.0265282 0.026435 0.02634868 0.02626421 0.02617869 0.02608882
 0.02599125 0.025889 0.0257811 0.02567658 0.02557677 0.02549077 0.02542047 0.02536653 0.0253296 0.02529827
 0.02527183 0.02523484 0.02518739 0.02512358 0.02504559 0.02496072 0.02487086 0.02478641 0.02470596 0.02463226
 0.02456164 0.02448938 0.02441477 0.02433378 0.02425167 0.02416996 0.02409568 0.02403333 0.02398361 0.02394877
 0.02392268 0.02390423 0.02388979 0.02387811 0.02387336 0.02387578 0.02388925 0.0239137 0.02394198 0.02397295
 0.02399256 0.02400076 0.02398929 0.02396021 0.02391539 0.02385692 0.02379024 0.02371591 0.02363686 0.0235536
 0.02346695 0.02337957 0.02329303 0.02321083 0.0231356 0.02306699 0.02300715 0.02294677 0.02288533 0.02280883
 0.02271479 0.02259863 0.02245905 0.02230979 0.02215165 0.022004 0.0218665 0.02174381 0.02163349 0.02152493
 0.02141812 0.02130612 0.02119326 0.02108577 0.02098587 0.02090162 0.02082736 0.02076131 0.0206953 0.0206218
 0.02054043 0.02044744 0.02035098 0.02025272 0.02015987 0.02007497 0.01999781 0.01992919 0.01986363 0.01980085
 0.01973478 0.01966518 0.01958922 0.01950735 0.01942275 0.01933644 0.01925551 0.01918008 0.01911496 0.01905807
 0.01900764 0.01896101 0.01891308 0.01886347 0.01880933 0.01875282 0.01869459 0.01863647 0.01857968 0.01852466
 0.01847178 0.01842126 0.01837324 0.01832756 0.01828439 0.01824195 0.01820008 0.01815795 0.01811559 0.01807682
 0.01804186 0.01801507 0.01799535 0.01797953 0.01796574 0.01794545 0.01791959 0.01788511 0.01784591 0.01780706
 0.0177699 0.01773899 0.01771052 0.01768316 0.01765385 0.01761977 0.01758315 0.01754371 0.01750563 0.01746986
 0.01743879 0.01741296 0.01739302 0.01737922 0.01736931 0.01736309 0.01735308 0.01733894 0.01731363 0.01727831
 0.01723483 0.01718536 0.01713831 0.01709382 0.01705671 0.01702515 0.01699799 0.016975 0.01695492 0.01693964
 0.01693072 0.01692756 0.01693139 0.01693691 0.01694316 0.01694359 0.01693656 0.01691807 0.01688708 0.01684354
 0.01678707 0.01672334 0.01665268 0.01658466 0.01651932 0.01646161 0.01640961 0.01635638 0.01629891 0.01622371
 0.0161291 0.01600498 0.01585092 0.0156629 0.01543845 0.01517512 0.01486619 0.01450756 0.01408957 0.01360777
 0.01305081 0.01241479 0.01168866 0.01086891 0.009950351 0.008929156 0.007823638 0.006632098 0.005417754 0.004184498
 0.003043652 0.002002625 0.001181525 0.0005814739 0.0002720178 0.000247402 0.0005253682 0.001100313 0.001988295 0.003134534
 0.00449129 0.005930673 0.00729752 0.008508725 0.009441921 0.0101073 0.01047356 0.01058744 0.01045188 0.01013239
 0.009630769 0.009071223 0.008463341 0.007972172 0.007616688 0.007451264 0.007478454 0.007611069 0.00784361 0.008085717
 0.008339164 0.008567296 0.008775351 0.008960206 0.009128092 0.0092897 0.009453128 0.009635014 0.00984192 0.01008865
 0.01037346 0.01070309 0.01106257 0.01144923 0.01183926 0.01222479 0.01258586 0.01291558 0.01320741 0.01345806
 0.01367644 0.01386232 0.01403485 0.01419506 0.01435959 0.01452816 0.01470248 0.01488067 0.01505297 0.01521822
 0.01536706 0.01549996 0.01561314 0.01570811 0.01578489 0.01584693 0.01589709 0.01594074 0.01598237 0.01602682
 0.01607836 0.01613695 0.01620471 0.01627504 0.01634759 0.01641257 0.01646833 0.01650922 0.01653412 0.01654633
 0.016546 0.01654163 0.0165335 0.01652786 0.01652423 0.0165232 0.01652396 0.01652404 0.01652301 0.01651842
 0.01651081 0.01649969 0.01648642 0.01647244 0.01645835 0.01644531 0.01643266 0.01642 0.01640804 0.01639613
 0.01638866 0.0163864 0.01639349 0.01641122 0.01643761 0.01647295 0.01651031 0.01654932 0.01658264 0.01661005
 0.01662678 0.01663313 0.01662809 0.01661277 0.01659003 0.01656156 0.01653257 0.01650447 0.01648174 0.01646524
 0.01645756 0.01645912 0.01647128 0.01649341 0.01652608 0.0165667 0.01661527 0.01666622 0.01671883 0.01676585
 0.01680597 0.01683511 0.01685241 0.01686082 0.01686048 0.01685832 0.01685447 0.01685243 0.0168517 0.01685088
 0.0168499 0.01684761 0.01684459 0.01684186 0.0168394 0.01683775 0.01683628 0.01683399 0.01683182 0.01682945
 0.01683023 0.0168358 0.0168488 0.01687167 0.01690074 0.01693689 0.01696922 0.01699641 0.01700839 0.01700353
 0.01698277 0.01694607 0.01690513 0.01686062 0.0168246 0.01679673 0.01678152 0.01677748 0.01678216 0.01679337
 0.01680506 0.01681477 0.0168156 0.01680675 0.01678373 0.01674962 0.01670444 0.01665419 0.01660178 0.01655247
 0.01650908 0.01647345 0.01644688 0.0164281 0.01641748 0.01641102 0.01640863 0.01640349 0.01639522 0.01637831
 0.01635301 0.01632115 0.01628398 0.01625051 0.01622088 0.01620133 0.01618931 0.01618168 0.01617654 0.01616829
 0.01615886 0.01614834 0.0161386 0.01613259 0.01612673 0.01612036 0.01610866 0.01608856 0.01606218 0.01602866
 0.01599496 0.01596221 0.01593438 0.01591223 0.01589464 0.0158816 0.01587069 0.01586176 0.01585226 0.01584196
 0.01582813 0.01581066 0.01578754 0.01575912 0.01572502 0.01568616 0.01564379 0.01559884 0.01555327 0.01550639
 0.01545862 0.01540805 0.01535308 0.01529496 0.01523256 0.01517281 0.01511707 0.01507153 0.01503825 0.01501455
 0.01500096 0.01498686 0.01497167 0.01494587 0.01490954 0.01486206 0.01480494 0.01474744 0.01469098 0.01464686
 0.01461334 0.01459301 0.01458061 0.01456837 0.01455239 0.01452377 0.01448443 0.01443199 0.01437234 0.01430778
 0.01424391 0.01418348 0.01412948 0.01408366 0.0140448 0.01401364 0.01398347 0.01395386 0.01391716 0.01387283
 0.01382023 0.01375982 0.01369874 0.01363748 0.01358313 0.01353464 0.01349223 0.01345372 0.01341344 0.01337084
 0.01332144 0.01326812 0.01321199 0.01315727 0.01310875 0.01306592 0.01303129 0.01299806 0.01296424 0.01292444
 0.01287564 0.01282156 0.01276173 0.01270477 0.01265184 0.01260504 0.01256465 0.01252292 0.0124794 0.01242531
 0.01236116 0.01228572 0.01220075 0.01211222 0.01202174 0.01193642 0.01185688 0.01178765 0.01172801 0.01167942
 0.01163925 0.01160641 0.01157678 0.01154799 0.01151623 0.01147931 0.0114358 0.01138454 0.01132698 0.01126289
 0.01119574 0.01112575 0.01105691 0.01098948 0.01092484 0.01086287 0.01080132 0.01074001 0.01067637 0.01061092
 0.01054422 0.01047719 0.01041264 0.01035057 0.01029256 0.0102374 0.01018444 0.01013214 0.01007922 0.01002389
 0.009964829 0.009900584 0.009829752 0.009753863 0.009672473 0.00959018 0.009507648 0.009428694 0.009353996 0.009283543
 0.009217402 0.009153661 0.009092259 0.009032058 0.008973119 0.008915184 0.008858579 0.008804204 0.008752858 0.008707228
 0.008667479 0.008635958 0.008610247 0.008589261 0.008568003 0.008542056 0.008507348 0.00845953 0.00839932 0.008324917
 0.00824237 0.008152156 0.008063095 0.007976539 0.007900363 0.007835688 0.007786432 0.007753038 0.007732099 0.007723059
 0.007715438 0.007708483 0.007691304 0.007664733 0.007625732 0.007576833 0.007523087 0.007466476 0.00741305 0.007363244
 0.007320131 0.007283148 0.0072534 0.007228313 0.007207181 0.007186168 0.007163243 0.007137349 0.007107449 0.007075381
 0.007041733 0.007005032 0.00696543 0.006918361 0.006863435 0.006801737 0.006733685 0.006667836 0.006604631 0.00655164
 0.006508094 0.006475257 0.006451365 0.006432996 0.006417411 0.006398192 0.006373236 0.006336044 0.006289562 0.006232325
 0.006173291 0.006117048 0.006071257 0.006041584 0.006025956 0.006026305 0.006032344 0.006042751 0.006048186 0.006047114
 0.006037355 0.006018553 0.005994632 0.005965711 0.005934149 0.005899431 0.005858479 0.005811199 0.005755006 0.005691416
 0.005622956 0.005551575 0.00548169 0.005415401 0.005356553 0.005308197 0.005275039 0.005256508 0.005255817 0.005263538
 0.005277395 0.005286573 0.005286663 0.005275919 0.005252633 0.005221885 0.005184052 0.005143205 0.00509967 0.005055076
 0.005009489 0.004963834 0.004918202 0.004873564 0.00483029 0.004790477 0.004754383 0.00472453 0.004699165 0.004676728
 0.004654217 0.004626249 0.00459345 0.004552921 0.004511103 0.004470593 0.00443818 0.004418383 0.004410752 0.00441753
 0.004429558 0.00444614 0.004455673 0.004456425 0.004443871 0.004417421 0.004380567 0.004333425 0.00427839 0.004215014
 0.004140059 0.004054316 0.003958019 0.003855355 0.003757027 0.0036687 0.003607199 0.0035726 0.003574704 0.003603314
 0.003654453 0.003713699 0.003770253 0.003817584 0.003848433 0.003868747 0.003878209 0.003885812 0.003894437 0.003901798
 0.003908804 0.003903495 0.00388509 0.003844763 0.003782419 0.003698026 0.003593396 0.003480818 0.003365398 0.003276574
 0.003216711 0.003212602 0.003251722 0.003324859 0.003414757 0.00349161 0.003553778 0.003587702 0.003601324 0.003596466
 0.003577639 0.003546729 0.003508318 0.00346239 0.003420525 0.003384179 0.003366581 0.003369792 0.00339955 0.003456719
 0.00353579 0.003636021 0.003739906 0.003846091 0.003934761 0.004007261 0.004058292 0.004091559 0.004115119 0.004130884
 0.00414566 0.004161682 0.00418315 0.004215993 0.004268182 0.004340164 0.004437131 0.004548575 0.004670128 0.004798096
 0.004927611 0.005072508 0.005234735 0.005425433 0.005648204 0.005889105 0.006148001 0.00639548 0.006630344 0.006833445
 0.007005892 0.007147727 0.007261974 0.00736269 0.007450716 0.007536424 0.007617382 0.007691347 0.007762315 0.007831727
 0.007912233 0.008017223 0.008152134 0.008328763 0.008532726 0.008762777 0.008997571 0.009229278 0.009449651 0.009652546
 0.009855219 0.01005559 0.01030438 0.01060516 0.01099867 0.01148468 0.01202808 0.01262457 0.01321736 0.01381411
 0.01441844 0.01504404 0.01573518 0.01649401 0.01735009 0.01828886 0.01930618 0.02037828 0.02148246 0.02259826
 0.02370062 0.02479739 0.0258777 0.0269867 0.02813921 0.02935251 0.03064431 0.03194191 0.03323951 0.03446697
 0.03561624 0.03670424 0.03773205 0.03873218 0.0397022 0.04063025 0.04151757 0.04235737 0.04316645 0.04399129
 0.04484475 0.04578457 0.04678868 0.04785424 0.0489487 0.05003089 0.05110785 0.05216719 0.05323749 0.05433116
 0.05545859 0.05662653 0.05783188 0.0590662 0.0603807 0.06176927 0.06339157 0.06526083 0.06747171 0.07002024
 0.07266434 0.07538668 0.07791069 0.08027239 0.08249883 0.08463292 0.08682227 0.08907301 0.09146536 0.09399577
 0.09667257 0.09954871 0.1026461 0.106109 0.1100358 0.1145401 0.1197607 0.1254954 0.1317679 0.1381149
 0.1444362 0.150472 0.1561586 0.1615216 0.1665527 0.1714058 0.1760931 0.180908 0.1858807 0.1914512
 0.1975726 0.20433 0.2114978 0.2183761 0.2249334 0.2306844 0.235912 0.2408258 0.2456338 0.2506516
 0.2558806 0.2614264 0.2672082 0.273207 0.279384 0.2857454 0.292158 0.2986092 0.3049085 0.3110124
 0.316961 0.3227524 0.3284853 0.3341571 0.3395308 0.3445811 0.3489514 0.3526705 0.3556911 0.358066
 0.3599486 0.3613314 0.3622657 0.362743 0.3627407 0.3623455 0.3616312 0.360677 0.3595566 0.3583239
 0.3570172 0.3556827 0.3543587 0.3529915 0.351598 0.3499947 0.3481681 0.3458931 0.3431425 0.3399193
 0.3362306 0.3324548 0.3286023 0.3249322 0.3214016 0.3179226 0.3144688 0.3108966 0.3072447 0.3035064
 0.2997755 0.2961889 0.2928036 0.2897488 0.2869781 0.2845036 0.2822563 0.2801923 0.278322 0.2766306
 0.2751808 0.2739905 0.2730606 0.2723989 0.2719466 0.271699 0.2716167 0.2716981 0.2719408 0.2723447
 0.2729099 0.2736321 0.2744904 0.2754802 0.2765739 0.2777728 0.2790648 0.2804563 0.2819511 0.2835556
 0.2852772 0.2871211 0.2890931 0.291196 0.2934327 0.2958032 0.2983065 0.300949 0.3037329 0.3066578
 0.3097296 0.3128954 0.3161534 0.3194184 0.3226872 0.3259512 0.3292161 0.3325523 0.3359387 0.3393171
 0.3426296 0.3456369 0.3483536 0.3506742 0.3526878 0.3544986 0.3561289 0.3576582 0.3590296 0.3602166
 0.3612066 0.3619741 0.3625677 0.3630001 0.3633006 0.3634818 0.3635353 0.3634633 0.363243 0.3628746
 0.3623084 0.3615416 0.3605108 0.3592146 0.3576146 0.355715 0.3535189 0.3510291 0.3482744 0.3452126
 0.341802 0.3379114 0.3332897 0.3279497 0.3216538 0.3149489 0.3081662 0.30167 0.2958477 0.2903758
 0.2852232 0.2801132 0.2749375 0.2697792 0.2646268 0.2596553 0.2548865 0.2503005 0.2458956 0.2415317
 0.2372092 0.23288 0.2285648 0.224353 0.2202556 0.2163677 0.2126611 0.2091254 0.2057179 0.2023669
 0.1990523 0.1957334 0.1923806 0.1889891 0.1854395 0.1816821 0.1775874 0.1730168 0.168295 0.1634095
 0.1590152 0.15526 0.152106 0.1495845 0.1472284 0.1450158 0.1426858 0.1402512 0.1377715 0.1352727
 0.1329378 0.1307474 0.1287319 0.1268602 0.1250584 0.1233578 0.1217617 0.1203386 0.1191764 0.1182795
 0.117692 0.1173566 0.1172534 0.1173463 0.1176131 0.1180605 0.1186783 0.1195207 0.120584 0.1220002
 0.1237815 0.1260269 0.1287394 0.1316799 0.1348187 0.1377158 0.1403832 0.1426571 0.1445823 0.1462303
 0.1476167 0.1488073 0.1498098 0.1506436 0.1513719 0.1520488 0.1527877 0.1537119 0.1548159 0.1561795
 0.1575733 0.1589261 0.1601077 0.1610495 0.1618396 0.1624775 0.1630794 0.1636575 0.1642617 0.1648945
 0.1655375 0.1661886 0.1668146 0.1674204 0.1680136 0.1686091 0.169261 0.1699799 0.1708221 0.1717753
 0.1728433 0.1740181 0.1752802 0.1766633 0.1781846 0.179877 0.1817745 0.1838462 0.1860966 0.1884595
 0.1909123 0.1934552 0.1960754 0.1988659 0.2018355 0.2050377 0.208475 0.2119818 0.2155401 0.2188707
 0.2219772 0.2247376 0.2271729 0.2293003 0.2311126 0.2326088 0.2337571 0.2345052 0.2348347 0.2347005
 0.234112 0.2330587 0.231565 0.2296373 0.2273083 0.2245846 0.2215163 0.218102 0.2144566 0.2105832
 0.2066821 0.2027716 0.1990018 0.1953814 0.191893 0.1885308 0.1852078 0.181931 0.1786944 0.175519
 0.1724833 0.1695843 0.1668642 0.1642865 0.1618126 0.159408 0.1570168 0.1546273 0.1522088 0.1497736
 0.1473144 0.144867 0.1424392 0.1400722 0.1377801 0.1355733 0.1334591 0.1314083 0.1294191 0.1274599
 0.1255287 0.1236384 0.1217938 0.1200589 0.1184383 0.1169938 0.1157191 0.1146264 0.1137048 0.112934
 0.1123081 0.1118082 0.1114316 0.1111702 0.111017 0.1109687 0.1110051 0.1111207 0.1112793 0.11147
 0.111653 0.1118167 0.111937 0.1120076 0.1120232 0.1119822 0.1118871 0.1117377 0.1115396 0.1112942
 0.1110206 0.1107243 0.1104475 0.1101986 0.1100318 0.1099494 0.109988 0.1101337 0.1103845 0.1107144
 0.1110957 0.1115016 0.1119046 0.112281 0.1126131 0.1128793 0.1130689 0.1131656 0.1131634 0.1130537
 0.1128339 0.1125023 0.1120577 0.1115111 0.110863 0.1101415 0.1093485 0.1085192 0.1076547 0.1067815
 0.1058997 0.1050242 0.1041559 0.1033039 0.1024713 0.1016665 0.100894 0.1001623 0.09947328 0.09883309
 0.09823649 0.09768356 0.09716463 0.09667572 0.09621225 0.09577172 0.09535566 0.09496424 0.09459693 0.09425399
 0.09393038 0.0936258 0.09333597 0.09306089 0.09279938 0.09255201 0.09232065 0.09210748 0.09192012 0.09176371
 0.09165384 0.09159604 0.09160747 0.0916884 0.09184807 0.09207799 0.09237579 0.09272952 0.09313144 0.09357581
 0.09405817 0.09457905 0.09513916 0.09573239 0.09635998 0.09700111 0.0976547 0.09829403 0.09891745 0.0995056
 0.1000579 0.1005645 0.1010249 0.1014326 0.1017868 0.1020804 0.1023115 0.1024719 0.1025594 0.1025663
 0.1024914 0.10233 0.1020818 0.1017448 0.1013202 0.1008075 0.1002096 0.09952691 0.09876499 0.09792415
 0.09701413 0.09603502 0.09500486 0.09392455 0.0928195 0.09169126 0.09056024 0.08942664 0.08829591 0.0871668
 0.08603409 0.08489662 0.0837472 0.0825856 0.08140653 0.08021296 0.07900497 0.07779264 0.0765861 0.07539877
 0.07424634 0.07313275 0.07206784 0.0710391 0.07004566 0.06906933 0.06810425 0.06714352 0.0661836 0.06523274
 0.06429089 0.06337159 0.06247567 0.06161347 0.06078556 0.06000151 0.05926239 0.05858013 0.0579554 0.05739734
 0.05690538 0.05648215 0.05612816 0.05584463 0.05563418 0.0555005 0.05544523 0.0554705 0.05557851 0.05576872
 0.05605136 0.05642867 0.05691512 0.05751655 0.05823378 0.05907083 0.0600045 0.06103444 0.06212254 0.06326663
 0.06442706 0.06560205 0.06675922 0.06789869 0.06900377 0.07007821 0.07112639 0.07215464 0.07318134 0.07421055
 0.07525954 0.07632483 0.07741153 0.07850754 0.07960631 0.08069218 0.08175542 0.08278228 0.08376614 0.08469496
 0.08556461 0.08636637 0.08709694 0.08775984 0.08835392 0.0888966 0.08938874 0.08985123 0.09028526 0.09071086
 0.09113064 0.09157129 0.09203733 0.09256081 0.0931446 0.09381285 0.09456473 0.09541029 0.09634602 0.09737317
 0.09848356 0.09967311 0.1009278 0.1022395 0.1035944 0.1049857 0.1064037 0.1078463 0.1092987 0.1107609
 0.1122018 0.1136196 0.1149748 0.1162646 0.117467 0.1185823 0.1196203 0.1205836 0.1214965 0.1223592
 0.1231845 0.1239727 0.1247271 0.1254575 0.1261803 0.1269104 0.1276758 0.1284781 0.1293321 0.1302219
 0.1311426 0.1320799 0.133025 0.1339782 0.1349365 0.1359086 0.1368948 0.1379055 0.1389413 0.1400154
 0.1411287 0.1422921 0.1435053 0.1447621 0.1460573 0.1473535 0.14864 0.1498539 0.1509859 0.1519773
 0.1528289 0.1535132 0.1540399 0.1544096 0.1546334 0.1547197 0.1546813 0.1545253 0.1542707 0.1539236
 0.1535097 0.1530342 0.1525306 0.1520033 0.1514914 0.1509996 0.150557 0.1501664 0.1498334 0.1495579
 0.1493295 0.1491469 0.1489953 0.1488714 0.1487547 0.148641 0.1485073 0.1483545 0.1481722 0.1479666
 0.1477421 0.1475019 0.1472519 0.1469886 0.1467129 0.1464166 0.1460983 0.1457451 0.1453536 0.1449123
 0.1444173 0.1438707 0.1432716 0.1426336 0.1419576 0.1412533 0.140521 0.1397644 0.138984 0.1381863
 0.1373716 0.1365457 0.1357064 0.1348507 0.1339761 0.1330764 0.1321495 0.1311924 0.1301977 0.1291606
 0.1280675 0.126909 0.125675 0.1243573 0.1229577 0.1214741 0.1199154 0.1182829 0.1165823 0.1148145
 0.1129807 0.1110807 0.1091258 0.1071177 0.1050913 0.1030509 0.1010452 0.09907641 0.09718066 0.09535505
 0.09361081 0.09194272 0.09034683 0.08881749 0.08734669 0.08592787 0.08455268 0.08321626 0.08191308 0.0806414
 0.07939968 0.0781856 0.07699884 0.07583489 0.07469286 0.07356992 0.07246583 0.07137705 0.07030357 0.06923447
 0.06816919 0.06709614 0.0660168 0.06493622 0.06385944 0.06281121 0.06179522 0.06083702 0.05993154 0.0590844
 0.05828077 0.05750481 0.05674084 0.05596777 0.05518021 0.05436647 0.05353417 0.05268244 0.05182422 0.05096304
 0.05010824 0.04926289 0.04842751 0.047603 0.04678331 0.04596791 0.04515612 0.04434843 0.0435589 0.04278909
 0.04205865 0.0413672 0.04072364 0.04012586 0.03957187 0.03906127 0.03859241 0.03816529 0.03778078 0.03743438
 0.0371235 0.03684049 0.03657922 0.03633666 0.03610856 0.03590022 0.03571188 0.03555073 0.03541911 0.03531601
 0.0352425 0.03518754 0.03515054 0.03511981 0.03509494 0.03507072 0.03504673 0.03501788 0.03498238 0.03492892
 0.03485697 0.03475766 0.03463507 0.0344926 0.03433503 0.03417197 0.03400147 0.03382703 0.03363979 0.0334353
 0.03320609 0.03294532 0.03265906 0.03234398 0.03202471 0.03170329 0.03141275 0.03115766 0.03095837 0.03081715
 0.03073483 0.03071142 0.03074389 0.030833 0.03098512 0.03119992 0.03148186 0.03182483 0.03221525 0.03264339
 0.03308221 0.03352943 0.03396659 0.03440686 0.03485291 0.03532701 0.03584518 0.03641953 0.03706324 0.03776525
 0.03852817 0.03932483 0.04015141 0.04098117 0.04181068 0.04261915 0.04340508 0.04414748 0.04484518 0.04547667
 0.04604156 0.04652661 0.04693328 0.04726057 0.0475114 0.04769177 0.04780832 0.0478739 0.04790179 0.04791425
 0.04792468 0.0479563 0.04800836 0.04809026 0.04818722 0.04829486 0.0484016 0.04850149 0.04859531 0.04868117
 0.0487678 0.04885535 0.04895752 0.04907523 0.04922259 0.04939993 0.04960587 0.04983849 0.05007881 0.0503267
 0.05056979 0.0508131 0.05106575 0.05133081 0.05162119 0.05193144 0.0522601 0.05259963 0.05294137 0.0532828
 0.05361966 0.05395146 0.05427784 0.05459541 0.05490291 0.05519857 0.05548057 0.05575586 0.05602434 0.0562993
 0.05658185 0.05687904 0.05719095 0.05751226 0.05784277 0.05817751 0.05851833 0.05887237 0.05923987 0.05962722
 0.06002919 0.06043773 0.06084949 0.06125398 0.06165656 0.06205893 0.06246546 0.06288208 0.06330261 0.06372542
 0.06414601 0.06455998 0.06497799 0.06540025 0.06584354 0.06631049 0.06680902 0.06734033 0.06790162 0.06849264
 0.06910443 0.06973618 0.07037669 0.07102543 0.07167344 0.07232164 0.07296711 0.07361365 0.07426775 0.07493221
 0.07561861 0.07631414 0.07701863 0.07769427 0.078318 0.07885362 0.07927096 0.07958046 0.07977011 0.0798986
 0.07997423 0.08005355 0.08014741 0.08027148 0.08042895 0.08060484 0.08079847 0.08099504 0.08119474 0.08139479
 0.081595 0.08179355 0.08198836 0.08217042 0.08234178 0.08249932 0.08265374 0.08281995 0.08300411 0.08322253
 0.0834626 0.08372223 0.08398439 0.08423796 0.08448255 0.08471602 0.08493935 0.08515531 0.08534591 0.08550878
 0.08563168 0.08571167 0.08577577 0.08582576 0.08591204 0.08603583 0.08622917 0.08648873 0.08681493 0.08720329
 0.0876395 0.08812267 0.08864366 0.08920434 0.08980592 0.09044339 0.09111715 0.09180678 0.09250176 0.09317482
 0.09380908 0.09439237 0.09491099 0.09538964 0.09582309 0.09628307 0.09677632 0.09738003 0.09810435 0.09894332
 0.09989514 0.1008436 0.1017804 0.1025721 0.103226 0.1037041 0.104033 0.1042772 0.1044569 0.1046526
 0.1048563 0.1050966 0.1053442 0.1055797 0.1057786 0.1059126 0.1059843 0.1059824 0.1059353 0.1058473
 0.1057518 0.1056569 0.1055849 0.1055411 0.1055282 0.1055478 0.1055794 0.1056219 0.1056551 0.1056816
 0.105721 0.1057804 0.1059103 0.1061096 0.1064065 0.106786 0.107233 0.1077242 0.1082198 0.1086984
 0.1091154 0.1094838 0.1097787 0.1100876 0.110434 0.1109371 0.111674 0.1125677 0.1136468 0.1146314
 0.1154693 0.1161044 0.1165187 0.1168559 0.1171224 0.1174181 0.1177395 0.1180839 0.1184405 0.1187508
 0.1190099 0.1191707 0.119238 0.1191985 0.1190623 0.1188381 0.1185355 0.1181659 0.1177407 0.1172658
 0.1167677 0.1162556 0.1157675 0.1153173 0.1149318 0.11462 0.1143922 0.1142523 0.1141971 0.1142289
 0.1143128 0.1144465 0.114556 0.1146371 0.114618 0.1145016 0.1142621 0.1139126 0.1134767 0.1129777
 0.1124757 0.1119941 0.1116031 0.1112901 0.1110809 0.1109175 0.1107636 0.1105813 0.1103302 0.11004
 0.1097066 0.1093858 0.1090903 0.1088545 0.1086869 0.108595 0.1085811 0.1086317 0.1087463 0.1089206
 0.1091568 0.1094845 0.1099007 0.1104122 0.1109969 0.1115833 0.1121549 0.1126285 0.1130286 0.1133508
 0.1136397 0.1139462 0.1142869 0.1146966 0.1151568 0.1156699 0.116207 0.1167603 0.1173009 0.1178213
 0.1183012 0.1187346 0.119126 0.1194745 0.1198002 0.1201042 0.1203907 0.1206579 0.1208843 0.1210672
 0.1211787 0.1212226 0.1211926 0.1211052 0.1209918 0.1208734 0.1208005 0.1207743 0.1208215 0.1209175
 0.121054 0.1212033 0.1213493 0.1214741 0.1215695 0.1216192 0.1216174 0.1215556 0.1214299 0.1212508
 0.1210177 0.1207548 0.1204635 0.1201799 0.1199061 0.1196804 0.1194993 0.1193654 0.1192673 0.1191646
 0.1190554 0.1189115 0.1187472 0.1185754 0.1184016 0.1182409 0.1180816 0.1179181 0.1177459 0.1175605
 0.117363 0.1171584 0.1169222 0.1166527 0.1163114 0.1158895 0.1153805 0.1147804 0.1141277 0.1134246
 0.1127275 0.1120383 0.1113961 0.1107975 0.1102443 0.1097294 0.1092281 0.1087352 0.1082273 0.1077015
 0.1071443 0.1065507 0.1059076 0.1052207 0.1044825 0.1037256 0.1029599 0.1022285 0.101549 0.1009492
 0.1004399 0.1000306 0.09972782 0.09950994 0.09937909 0.09925894 0.09914527</values></Ydata></AB><ScSm><Ydata ylabel="Single channel"><values byteorder="INTEL" format="FLOAT32" numvalues="1814"> 0.06469822 0.06469889 0.06475718 0.06489868 0.06509984 0.06530093 0.06544881 0.06553029 0.0655577 0.06553344
 0.06546271 0.0653999 0.06543473 0.06560586 0.06584657 0.0660301 0.06607097 0.06599979 0.06594576 0.06601196
 0.06614091 0.06612955 0.06581903 0.0652743 0.0647444 0.06443283 0.06436756 0.06453951 0.06502686 0.06577039
 0.06631601 0.06613687 0.06529586 0.06447755 0.06423067 0.06444032 0.06464586 0.06457394 0.0642263 0.06377102
 0.06358382 0.06415007 0.06559035 0.06726229 0.06798746 0.06679549 0.06361927 0.05951507 0.05626969 0.05544035
 0.05725934 0.06032412 0.06265238 0.06326324 0.06264442 0.0617472 0.0609585 0.06023102 0.05975568 0.05999529
 0.06105214 0.06224084 0.0624469 0.06108356 0.05878482 0.05694705 0.05645212 0.05711922 0.05845696 0.06020258
 0.06156341 0.06077986 0.05685132 0.05173192 0.04946784 0.05235469 0.05849003 0.06363069 0.06496835 0.06271788
 0.05890125 0.05566494 0.05446303 0.05566747 0.05850076 0.06167718 0.06418067 0.06532399 0.06458171 0.06204074
 0.05884795 0.05666 0.05662563 0.05893085 0.06276321 0.06639026 0.06794102 0.06678058 0.06393422 0.06100506
 0.05911688 0.05890602 0.06067543 0.06408654 0.06814104 0.07175808 0.07421316 0.07521085 0.07494692 0.07398304
 0.07282007 0.07181706 0.07148685 0.07218 0.07327557 0.07341674 0.07197981 0.06989223 0.06867029 0.06884824
 0.06955381 0.06957964 0.06861322 0.06704605 0.06477472 0.0611619 0.05648483 0.05234609 0.05007406 0.04969819
 0.05088393 0.05345908 0.05631513 0.05734384 0.05574778 0.05351638 0.05346508 0.05623085 0.05993835 0.06247597
 0.06344808 0.06402764 0.06545117 0.06775804 0.0696291 0.0693803 0.06662835 0.06323057 0.06197233 0.06383672
 0.06706204 0.06931092 0.07013606 0.07074077 0.07186775 0.07264892 0.07151383 0.06805941 0.06405652 0.06235798
 0.06441474 0.06882109 0.07233571 0.07228863 0.06837682 0.0627168 0.05818959 0.05645479 0.05750599 0.06075909
 0.06569612 0.07129923 0.07578826 0.07762055 0.0766222 0.07388594 0.07052907 0.0666734 0.06203118 0.05758982
 0.05582266 0.05835266 0.06387933 0.06925888 0.07231048 0.07291169 0.07178909 0.06918311 0.06502563 0.06018004
 0.05685556 0.05690677 0.05960622 0.06204329 0.06216447 0.06064754 0.05942224 0.05926088 0.05948087 0.05940807
 0.0593313 0.05998792 0.06150104 0.06309098 0.06383392 0.06350804 0.06262653 0.06183392 0.06132861 0.0607293
 0.05961 0.05833984 0.05806069 0.05944227 0.06176262 0.06364766 0.06445266 0.06450716 0.06421384 0.06335524
 0.06143285 0.05862829 0.05619772 0.05554391 0.05685906 0.05900552 0.0607014 0.06143873 0.06135724 0.0607886
 0.06003537 0.05926408 0.05854517 0.05807123 0.05811983 0.05865908 0.05924513 0.05946865 0.05929622 0.0588825
 0.05827961 0.05747345 0.05657825 0.05585762 0.05553849 0.05563234 0.05595765 0.05630554 0.0565216 0.056476
 0.0561054 0.05551113 0.05489804 0.05438941 0.05398978 0.05371286 0.05361897 0.05370009 0.05382708 0.05385903
 0.05375611 0.05355873 0.05330129 0.05298577 0.05262088 0.05225689 0.05197721 0.05184451 0.05183497 0.05184539
 0.05180006 0.05172268 0.05165885 0.05157091 0.05138046 0.05108923 0.05078921 0.05056329 0.05042227 0.05032592
 0.05022083 0.0500511 0.04976663 0.04936662 0.04894884 0.04867263 0.04863109 0.0487788 0.0490001 0.04920056
 0.04931705 0.04931266 0.04920684 0.04906288 0.04891427 0.04873741 0.04851033 0.04827011 0.04810151 0.04807117
 0.04816467 0.04829318 0.04837163 0.04837441 0.0483166 0.04822559 0.04814132 0.0480927 0.04805657 0.04797991
 0.04785227 0.04772439 0.04765159 0.04763809 0.04763586 0.04759315 0.04750992 0.04743728 0.04741395 0.04742319
 0.04742447 0.04740256 0.0473691 0.04733192 0.04727619 0.04717597 0.0470305 0.04688322 0.0467836 0.04673225
 0.04668929 0.04663329 0.04658315 0.0465609 0.04655641 0.04653701 0.0464829 0.04640521 0.04632526 0.04624217
 0.04613607 0.04600241 0.0458644 0.0457463 0.04564925 0.04555705 0.04545588 0.04534468 0.04522949 0.04511034
 0.04497951 0.04483315 0.04467557 0.04451048 0.04434321 0.04419338 0.04408538 0.04401716 0.04395325 0.04385846
 0.04373212 0.04360369 0.04350004 0.04342319 0.04336066 0.04330899 0.04327717 0.04326988 0.04328144 0.04330666
 0.04334494 0.0433922 0.04344436 0.04351441 0.04363231 0.04381481 0.04403915 0.04425793 0.0444422 0.04460337
 0.0447714 0.04495921 0.04515503 0.04534598 0.04553998 0.04575636 0.04599396 0.0462201 0.04640429 0.04655614
 0.04671358 0.04689829 0.04710177 0.04730892 0.04751043 0.04769351 0.04784764 0.04798502 0.04813376 0.04830379
 0.04847655 0.04863539 0.04879091 0.04896588 0.04916606 0.04937869 0.04959566 0.04982607 0.05008367 0.05036655
 0.05065107 0.0509074 0.05112726 0.05133827 0.05158474 0.05188966 0.05223614 0.05258371 0.05290059 0.05318472
 0.05345804 0.0537397 0.05402965 0.05432525 0.05464322 0.05500488 0.05540237 0.05580034 0.05617351 0.05652716
 0.05687944 0.05723833 0.05760019 0.057962 0.05832865 0.05870738 0.0590952 0.05947613 0.05983551 0.06017407
 0.06050464 0.06083974 0.06118522 0.06153551 0.06186999 0.06216637 0.06242977 0.06269792 0.06300198 0.06332759
 0.06363213 0.06389871 0.06415473 0.06443314 0.06473473 0.06504026 0.06534371 0.06565556 0.065979 0.06629654
 0.06657991 0.06680845 0.06698462 0.06713676 0.06730023 0.06749335 0.0677184 0.06797858 0.06827439 0.0685838
 0.06886762 0.06909895 0.06927653 0.06941577 0.0695454 0.06970479 0.0699209 0.07018472 0.0704595 0.07070614
 0.07090078 0.07105009 0.07120071 0.07140975 0.071691 0.07200799 0.07232872 0.07266194 0.07302576 0.07340805
 0.07378486 0.0741608 0.07456053 0.07498172 0.07538252 0.07572151 0.07599079 0.07620656 0.07639283 0.07658721
 0.07683842 0.07717186 0.07756419 0.07796575 0.0783407 0.07867724 0.07897288 0.07922696 0.07944432 0.07963624
 0.07981512 0.07998825 0.08015677 0.08032428 0.08050552 0.08071478 0.08093987 0.08113781 0.08126328 0.08129464
 0.08123016 0.08107564 0.08084762 0.08057436 0.08027428 0.07993416 0.07951964 0.07900608 0.07839201 0.07768701
 0.07689953 0.07604103 0.07513908 0.0742453 0.07343052 0.0727687 0.07232113 0.07213136 0.07222245 0.07258147
 0.07313965 0.07377597 0.07435121 0.07474575 0.07487862 0.07471268 0.07425836 0.07357119 0.07273535 0.07183993
 0.07095992 0.07014394 0.06941207 0.06877334 0.06825882 0.06794082 0.0679168 0.06827594 0.06908023 0.07035667
 0.07207271 0.07410206 0.07623303 0.07824599 0.08000656 0.08149639 0.08277135 0.08390275 0.08494402 0.08591972
 0.08682802 0.08765891 0.08841364 0.08910234 0.0897254 0.09026458 0.0906922 0.09098577 0.09114192 0.09118579
 0.09116666 0.09114043 0.09115496 0.09124212 0.09140405 0.09159715 0.09173851 0.09174013 0.09154705 0.09115696
 0.09062628 0.09007696 0.089706 0.08977137 0.09051581 0.09203477 0.09418224 0.09661886 0.09898388 0.1010471
 0.1027371 0.104082 0.1051498 0.1060194 0.1067613 0.1074243 0.108037 0.1086153 0.1091663 0.1096902
 0.1101869 0.1106628 0.1111302 0.1116 0.1120722 0.1125369 0.1129875 0.1134297 0.1138737 0.1143199
 0.1147567 0.1151729 0.1155719 0.115971 0.1163835 0.1168032 0.1172134 0.1176068 0.1179911 0.1183772
 0.1187712 0.1191739 0.1195781 0.1199664 0.1203247 0.1206555 0.1209734 0.1212897 0.1216076 0.1219288
 0.1222558 0.1225867 0.1229132 0.1232315 0.123549 0.1238744 0.1242003 0.1245081 0.1247909 0.1250629
 0.1253418 0.1256301 0.1259179 0.1261986 0.1264777 0.1267692 0.1270856 0.1274252 0.1277692 0.1280945
 0.1283902 0.1286646 0.1289366 0.1292224 0.1295264 0.1298404 0.1301495 0.1304431 0.1307239 0.1310057
 0.1312996 0.1316033 0.1319039 0.1321902 0.1324606 0.1327232 0.1329894 0.1332657 0.1335518 0.1338452
 0.134147 0.1344578 0.1347703 0.1350689 0.1353413 0.1355895 0.1358286 0.1360767 0.1363431 0.1366257
 0.1369166 0.1372095 0.1375026 0.1377947 0.1380833 0.1383659 0.1386447 0.1389242 0.1392034 0.1394747
 0.139735 0.1399928 0.1402576 0.1405273 0.1407939 0.1410573 0.1413242 0.1415964 0.1418689 0.142138
 0.1424033 0.1426632 0.1429162 0.1431642 0.1434095 0.1436504 0.1438852 0.1441176 0.144356 0.144605
 0.144861 0.1451163 0.1453662 0.1456114 0.1458545 0.1460979 0.1463443 0.1465956 0.1468493 0.1470991
 0.1473406 0.1475749 0.1478083 0.1480465 0.1482911 0.1485408 0.1487933 0.1490461 0.1492947 0.1495365
 0.149775 0.1500151 0.1502584 0.1505041 0.15075 0.1509892 0.1512147 0.1514312 0.1516539 0.1518944
 0.1521514 0.1524151 0.152675 0.1529272 0.1531747 0.1534202 0.1536593 0.1538855 0.1540991 0.1543035
 0.154501 0.1546971 0.1549018 0.1551207 0.1553478 0.1555714 0.155786 0.1559971 0.156213 0.1564336
 0.1566519 0.1568671 0.1570898 0.1573312 0.1575927 0.1578666 0.1581399 0.1584042 0.1586641 0.1589305
 0.1592027 0.1594696 0.1597254 0.1599754 0.1602261 0.1604789 0.1607306 0.1609762 0.1612175 0.1614648
 0.1617244 0.1619895 0.1622482 0.1624947 0.1627297 0.1629593 0.1631919 0.1634285 0.1636631 0.1638956
 0.1641312 0.1643686 0.1646019 0.1648313 0.1650575 0.1652777 0.1654961 0.1657238 0.1659605 0.1661949
 0.1664227 0.1666485 0.1668756 0.1671053 0.1673378 0.1675667 0.1677858 0.167999 0.1682153 0.1684376
 0.1686646 0.1688926 0.1691165 0.1693405 0.169574 0.1698117 0.1700358 0.1702426 0.1704418 0.1706274
 0.1707575 0.1707161 0.1702197 0.1687209 0.1654045 0.1593539 0.1499206 0.1371444 0.1218871 0.1055214
 0.08942404 0.07462417 0.06171911 0.0509672 0.0424208 0.03600388 0.03156137 0.02895554 0.02816924 0.02940236
 0.03317294 0.04001507 0.04932528 0.0583214 0.06310867 0.06175167 0.05612779 0.05021488 0.04677439 0.04600294
 0.04671885 0.04791643 0.04928389 0.05101177 0.05341741 0.05658706 0.060365 0.06474745 0.07007302 0.07659597
 0.08397327 0.09140684 0.09833261 0.1048673 0.1115427 0.1186708 0.1260171 0.133032 0.139291 0.1447119
 0.1494694 0.1537977 0.1578556 0.161711 0.1653906 0.1688842 0.1720701 0.1746808 0.1764297 0.1772293
 0.1772953 0.1770251 0.176765 0.1766753 0.1767714 0.1770296 0.1774338 0.1779683 0.1786098 0.1793294
 0.1800953 0.1808807 0.1816705 0.1824533 0.1832112 0.1839249 0.1845821 0.1851791 0.1857199 0.1862134
 0.1866651 0.1870741 0.1874445 0.1877901 0.1881233 0.1884493 0.1887705 0.1890863 0.1893873 0.1896593
 0.189897 0.1901083 0.1903077 0.1905073 0.1907108 0.1909134 0.1911108 0.191306 0.1915063 0.1917166
 0.1919356 0.192153 0.1923547 0.1925375 0.1927143 0.1929019 0.1931058 0.1933224 0.1935452 0.1937655
 0.1939754 0.1941747 0.1943713 0.1945741 0.1947874 0.1950078 0.1952244 0.1954289 0.1956235 0.1958143
 0.1960043 0.1962007 0.1964157 0.1966527 0.1969013 0.1971498 0.1973923 0.1976242 0.1978453 0.1980607
 0.1982694 0.1984592 0.1986257 0.1987882 0.1989798 0.1992214 0.199502 0.1997835 0.2000328 0.2002495
 0.2004572 0.2006734 0.2008974 0.2011176 0.2013251 0.2015287 0.2017539 0.2020151 0.2023 0.2025895
 0.2028758 0.2031525 0.2034145 0.2036721 0.2039362 0.2041857 0.2043835 0.2045363 0.2047155 0.2050007
 0.2054 0.2058314 0.2061976 0.2064729 0.2067054 0.2069549 0.2072502 0.207563 0.2077926 0.2078417
 0.2077698 0.2078075 0.208146 0.208747 0.2094067 0.2099573 0.2103665 0.2106895 0.2109814 0.2112457
 0.2114372 0.2115158 0.2115237 0.2116084 0.2119237 0.2124718 0.2130854 0.2135962 0.2139703 0.2142562
 0.2144948 0.2147088 0.2148656 0.2148243 0.2144836 0.2140511 0.2139945 0.2145908 0.215612 0.2165679
 0.2171903 0.2175719 0.2178938 0.2182002 0.2184503 0.2185595 0.2182912 0.2173929 0.216092 0.2152346
 0.2155873 0.2170615 0.2188569 0.2202606 0.2210968 0.221546 0.2218348 0.2220863 0.2222254 0.221983
 0.2211969 0.22021 0.2197811 0.2203872 0.2216946 0.222919 0.2236203 0.223933 0.2241633 0.2244435
 0.2246391 0.2242961 0.2228981 0.2206299 0.2187698 0.2187914 0.2209197 0.2238622 0.2260945 0.2271734
 0.2276108 0.2277483 0.2272449 0.2256822 0.223198 0.220423 0.218267 0.2177855 0.2194906 0.2224862
 0.2249706 0.2260116 0.2263407 0.2271568 0.2286908 0.2302151 0.230979 0.2307864 0.2298715 0.2284929
 0.2268054 0.2252181 0.2246266 0.2257868 0.2283899 0.2311654 0.2330574 0.2340279 0.234497 0.2340984
 0.2314304 0.2257263 0.21896 0.215317 0.2175053 0.223924 0.2303892 0.2342574 0.235882 0.236655
 0.2371347 0.2368866 0.2347392 0.2294301 0.221594 0.2150066 0.2140334 0.2193195 0.2270613 0.2325512
 0.2333837 0.2297225 0.2234649 0.2176812 0.2153644 0.2176112 0.2231361 0.2295529 0.2348121 0.2377518
 0.2380845 0.2363059 0.2336667 0.2318604 0.231798 0.2322652 0.2308301 0.226903 0.2227111 0.2200463
 0.2175334 0.2132439 0.2089778 0.2090829 0.214788 0.2221118 0.2262972 0.2266073 0.2255159 0.2242158
 0.2206215 0.2124066 0.2014171 0.1937708 0.1944956 0.2023143 0.2107719 0.2145229 0.2135693 0.2114295
 0.2104362 0.2093879 0.2053409 0.1974941 0.1891463 0.1849555 0.1860421 0.1889961 0.189935 0.1876553
 0.1823544 0.1743142 0.1659905 0.1628494 0.1687591 0.1812208 0.1933019 0.1993493 0.1971106 0.1865037
 0.1702536 0.1553705 0.149778 0.1553066 0.1655249 0.171661 0.1696031 0.1606992 0.1479525 0.133851
 0.1214091 0.114608 0.115997 0.1240462 0.1333864 0.1376572 0.1330389 0.1210605 0.1085155 0.1026022
 0.1045921 0.1091085 0.1101722 0.1065794 0.1011008 0.09672573 0.09483761 0.09517346 0.09621058 0.09652299
 0.09593655 0.09419993 0.08946592 0.08063264 0.0707312 0.06500651 0.06542233 0.06962897 0.07525583 0.08197902
 0.08866443 0.09194918 0.09005119 0.08623882 0.08609013 0.09158386 0.0993349 0.1046112 0.1059707 0.1055871
 0.1058136 0.1065614 0.1065504 0.1062527 0.1079679 0.1126813 0.1183371 0.12213 0.1234311 0.1235239
 0.1234482 0.1232306 0.1226144 0.1215164 0.1199788 0.1182451 0.1166807 0.1153558 0.1139857 0.1123551
 0.1103146 0.1072095 0.1020501 0.09498335 0.08818518 0.0841922 0.08328496 0.08362008 0.08394046 0.08436076
 0.08393411 0.07987331 0.07122884 0.06196303 0.05806141 0.06175211 0.06987542 0.07751676 0.08175678 0.08190231
 0.07803124 0.07121361 0.0648964 0.06384998 0.07023911 0.0815215 0.09319702 0.1026697 0.1094387 0.1129453
 0.1123352 0.1082762 0.1036233 0.1018216 0.1048815 0.1124613 0.1218258 0.1283707 0.1278791 0.1208448
 0.1145825 0.1177995 0.1312544 0.146255 0.1543971 0.1561427 0.1572434 0.1597862 0.1612175 0.1608755
 0.1625223 0.1692092 0.1787395 0.1857795 0.1865077 0.1801187 0.1682959 0.1555249 0.1479387 0.1485069
 0.1538176 0.1578952 0.1580439 0.154567 0.1472202 0.136565 0.1276765 0.127151 0.1354652 0.1459899
 0.152538 0.1550201 0.1567338 0.1586246 0.1581274 0.1530612 0.1452513 0.1394037 0.1384362 0.1408973
 0.1433769 0.1440842 0.1429466 0.139629 0.1337081 0.126762 0.122391 0.1231379 0.1279283 0.1331449
 0.1359243 0.1359932 0.1347733 0.133609 0.1328923 0.1321927 0.1311311 0.1305255 0.1322467 0.1371276
 0.1434627 0.1486818 0.1522682 0.1559109 0.1608436 0.166099 0.1696294 0.1705114 0.1698537 0.1698875
 0.172191 0.1763972 0.1804207 0.1822163 0.1817246 0.1811188 0.1827986 0.1870649 0.192053 0.1958236
 0.1979459 0.1991 0.1999355 0.2005319 0.2003694 0.1987498 0.1958609 0.1934166 0.193475 0.1964094
 0.2005304 0.2037821 0.2053642 0.205686 0.2053233 0.204416 0.2029341 0.2011745 0.199779 0.1992689
 0.1996953 0.2007605 0.2021295 0.2035632 0.2049081 0.2060993 0.207148 0.2080774 0.208895 0.2096215
 0.210276 0.2108231 0.2112101 0.2114855 0.2118118 0.2123017 0.2128829 0.2133767 0.2136625 0.2136909
 0.213386 0.2126598 0.2115366 0.2101569 0.2086204 0.2069122 0.2050761 0.2034322 0.2025064 0.2026501
 0.2037263 0.2051996 0.2065282 0.2074547 0.2079964 0.2082891 0.2084849 0.2087161 0.2090648 0.209542
 0.2101134 0.2107498 0.2114462 0.2121941 0.2129638 0.2137294 0.2145019 0.2153149 0.2161825 0.2170809
 0.2179592 0.218761 0.2194526 0.2200435 0.2205683 0.2210395 0.2214254 0.2216813 0.2217925 0.2217843
 0.2216969 0.2215572 0.22136 0.2210641 0.2206138 0.2199717 0.2191184 0.2180219 0.216648 0.2150307
 0.2132968 0.2115809 0.2099303 0.208314 0.2066909 0.205038 0.2033389 0.201587 0.1997922 0.19797
 0.1961313 0.1942904 0.192472 0.190703 0.1889965 0.1873413 0.1857072 0.1840622 0.1823851 0.1806545
 0.1788268 0.1768233 0.1745402 0.171876 0.1687585 0.1651554 0.1610788 0.1566027 0.1518791 0.1471187
 0.1425302 0.1382622 0.1343886 0.130944 0.1279619 0.1254755 0.1234952 0.1220099 0.1210129 0.1205116
 0.120509 0.1209823 0.1218726 0.1230816 0.1244811 0.1259381 0.1273436 0.1286366 0.12982 0.1309575
 0.1321381 0.1334204 0.1347955 0.1362042 0.1375848 0.1388952 0.1400917 0.1411226 0.141961 0.1426276
 0.1431657 0.1436123 0.1439989 0.1443547 0.1446941 0.1450156 0.1453224 0.1456345 0.1459818 0.1463924
 0.1468826 0.1474523 0.1480948 0.1488099 0.1496016 0.1504673 0.1513947 0.1523705 0.1533916 0.1544738
 0.1556484 0.1569522 0.1584229 0.1600996 0.1620127 0.1641696 0.1665491 0.1690962 0.1717136 0.1742751
 0.1766653 0.1788103 0.1806791 0.1822723 0.1836112 0.1847298 0.1856691 0.1864719 0.1871726 0.1877907
 0.1883358 0.1888131 0.1892229 0.1895581 0.1898086 0.1899666 0.1900403 0.1900666 0.1900987 0.1901744
 0.1902999 0.1904608 0.1906386 0.1908184 0.1909906 0.1911424 0.1912513 0.1912958 0.1912711 0.191184
 0.1910353 0.190812 0.1904932 0.1900603 0.1895063 0.188832 0.1880319 0.1870964 0.1860327 0.1848685
 0.1836298 0.1823301 0.1809805 0.1795935 0.1781739 0.1767121 0.1751874 0.1735826 0.1719121 0.1702308
 0.1686007 0.1670478 0.1655603 0.164112 0.1626745 0.161224 0.1597564 0.1582914 0.1568546 0.155458
 0.1540923 0.1527311 0.151352 0.1499624 0.148601 0.147316 0.1461467 0.1451203 0.1442514 0.1435445
 0.1429972 0.1425995 0.1423316 0.1421733 0.142107 0.1421044 0.1421159 0.1420878 0.141992 0.1418318
 0.1416262 0.1413953 0.1411627 0.1409536 0.1407694 0.1405637 0.1402603 0.1397906 0.1390997 0.1381365
 0.1368768 0.1353562 0.1336564 0.1318679 0.1300849 0.1284099 0.1269314 0.1256973 0.1247106 0.1239318
 0.1232887 0.1227154 0.1221983 0.1217849 0.1215405 0.1214706 0.1214685 0.1213731 0.1211167 0.1207976
 0.120589 0.1205966 0.1208052 0.121112 0.1213921 0.1215674 0.121637 0.1216469 0.1216414 0.1216373
 0.1216155 0.1215354 0.1213735 0.1211386 0.1208441 0.1204924 0.1200894 0.119638 0.1191239 0.1185362
 0.1178838 0.1171727 0.1163954 0.1155456 0.1146092 0.1135673 0.1124679 0.1114741 0.1107904 0.1105418
 0.1107159 0.1111752 0.1117386 0.1122936 0.1127877 0.113096 0.1130524 0.1127385 0.1126211 0.1131964
 0.114488 0.1160148 0.1172586 0.118038 0.1184079 0.1183853 0.1179243 0.1170413 0.1157912 0.1141787
 0.1122138 0.10998 0.1075778 0.1051047 0.102714 0.10057 0.09874628 0.09723812 0.09601733 0.09510105
 0.09460077 0.09425277 0.09260874 0.08778602 0.08037053 0.07474139 0.07539898 0.08190185 0.08915916 0.09282051
 0.09275982 0.09130002 0.09005588 0.08928692 0.08892208 0.0890664 0.08979936 0.09098461 0.0922928 0.09338444
 0.09411269 0.094497 0.09450103 0.09386668 0.09207482 0.08850741 0.0829431 0.07602314 0.06904832 0.06322288
 0.05912174 0.05669618 0.05550324 0.05495691 0.05462519 0.05444069 0.05462924 0.05542726 0.0568697 0.05882486
 0.0611449 0.06367178 0.06613114 0.06820829 0.06979425 0.07102072 0.07200368 0.07268211 0.07294728 0.07280676
 0.07237214 0.07176919 0.07109974 0.07042912 0.06975104 0.06898513 0.06808555 0.06717415 0.06648628 0.06614012
 0.0660363 0.06601492 0.06601112 0.06602546 0.06605038 0.06607135 0.06608319 0.06610665 0.06621584 0.06649111
 0.06690948 0.06734016 0.06766661 0.06786872 0.06799358 0.06806543 0.06800605 0.06769961 0.06720886 0.06680168
 0.06660089 0.0663403 0.06569998 0.06480239 0.06414471 0.06406561 0.06445083 0.06493574 0.06523677 0.06528389
 0.06519569 0.06521311 0.0655451 0.06613643</values></Ydata></ScSm><ScRf><Ydata ylabel="Single channel"><values byteorder="INTEL" format="FLOAT32" numvalues="1820"> 0.06066752 0.06084019 0.06094347 0.06097525 0.06096401 0.06096194 0.06102412 0.06117358 0.06137969 0.06157424
 0.06170056 0.06175213 0.06175513 0.06172227 0.06165639 0.06159843 0.06162537 0.06177451 0.06198891 0.06215356
 0.0621876 0.06211755 0.06206461 0.06212581 0.06224428 0.06222507 0.06191867 0.06139088 0.06088086 0.06058173
 0.06051845 0.06068198 0.06114873 0.06186508 0.06239729 0.06223625 0.06143355 0.06063845 0.06037788 0.06055152
 0.06072998 0.06065581 0.0603244 0.05988803 0.05970304 0.06023434 0.06159668 0.06317541 0.06384799 0.06269474
 0.05965742 0.05574474 0.05265662 0.05187285 0.05361387 0.05654416 0.05877336 0.05936392 0.05878035 0.05793067
 0.0571828 0.05648856 0.05602745 0.05624 0.05722581 0.05833715 0.05851787 0.0572107 0.05501741 0.05326511
 0.05279164 0.05342347 0.05469256 0.05634919 0.05763873 0.05688766 0.05314847 0.04828561 0.04614817 0.04891349
 0.05476407 0.05965804 0.06092176 0.05876518 0.0551272 0.0520625 0.05094506 0.05209971 0.05476784 0.05773869
 0.06007534 0.06114383 0.06044628 0.05805672 0.05505214 0.05299452 0.05296969 0.0551536 0.0587726 0.06218325
 0.06362268 0.06250486 0.05980723 0.0570429 0.05526774 0.0550767 0.05675208 0.05997866 0.06382491 0.06727214
 0.06961918 0.07056615 0.07029834 0.06937053 0.06827956 0.06736435 0.06708674 0.067754 0.068772 0.06886877
 0.06747237 0.06547408 0.0643147 0.06449916 0.06519392 0.06524092 0.0643298 0.06282897 0.06065281 0.05721507
 0.05278793 0.04888469 0.04675066 0.04641002 0.04756028 0.05005218 0.05282429 0.05385065 0.05235977 0.05024249
 0.05017691 0.05277066 0.05625126 0.05862802 0.05953782 0.06009848 0.06147712 0.06369654 0.06549166 0.06526224
 0.06265558 0.0594515 0.05830197 0.06012839 0.06323753 0.06540699 0.06623064 0.06686668 0.06801406 0.06882934
 0.06780951 0.06458008 0.06084586 0.05933199 0.06140655 0.06570695 0.06912957 0.06912616 0.06541958 0.06005995
 0.05582669 0.05430613 0.05548059 0.0588013 0.06379452 0.06948173 0.07411812 0.07617019 0.07542708 0.07293041
 0.06978045 0.06611321 0.06165523 0.05740967 0.05588125 0.05871871 0.06461048 0.07037272 0.07378895 0.07472157
 0.07388606 0.07149239 0.06744379 0.06265247 0.05947713 0.05989504 0.063118 0.06603207 0.06645514 0.06513012
 0.06413057 0.06427912 0.06483415 0.06507553 0.06534086 0.06645122 0.06853052 0.07069232 0.07189372 0.07188077
 0.07123239 0.07068923 0.07048289 0.07016376 0.0692338 0.0681408 0.06823461 0.07028964 0.07343742 0.07605501
 0.07739425 0.07786102 0.07792923 0.07730016 0.07532953 0.07223727 0.06960481 0.06920554 0.0712935 0.07444078
 0.07701911 0.07837076 0.07867172 0.07835174 0.07779831 0.07722586 0.07673608 0.07658392 0.07711494 0.07826707
 0.07945739 0.08016421 0.08035487 0.08022133 0.07980488 0.07907759 0.07821738 0.07761006 0.07757026 0.07810684
 0.07897064 0.0798759 0.08060003 0.08094409 0.08080431 0.08032501 0.07981504 0.07946552 0.07927853 0.07926438
 0.07951598 0.08003211 0.08061878 0.08105034 0.08125237 0.08128403 0.08121435 0.08106895 0.08086565 0.08066735
 0.0805898 0.08072212 0.081017 0.08131821 0.08154239 0.08176295 0.08204579 0.08228493 0.08231147 0.08212177
 0.08189498 0.08179867 0.08185319 0.081975 0.08207113 0.08205906 0.08186013 0.08147013 0.08105001 0.08086155
 0.08105914 0.08158201 0.08225335 0.08290367 0.08339582 0.0836527 0.08371469 0.08369602 0.08365187 0.08354202
 0.08333553 0.08310612 0.0830112 0.08317786 0.08359008 0.08408891 0.08449896 0.08474082 0.08483413 0.08486144
 0.08493621 0.08511683 0.08532234 0.08540729 0.08534342 0.08526179 0.08529346 0.08541994 0.08550787 0.08546883
 0.08536366 0.08534075 0.08547849 0.08571398 0.08593322 0.08609883 0.0862653 0.08648045 0.08669183 0.08677085
 0.08665031 0.08642076 0.08624458 0.08618651 0.0861916 0.08622306 0.08633156 0.08655332 0.08680993 0.08697309
 0.08700709 0.08699761 0.08703563 0.08710663 0.08711408 0.08699559 0.08679224 0.08660952 0.08653139 0.08657011
 0.08667242 0.08675872 0.08676895 0.0866935 0.08657002 0.08644816 0.08635533 0.08630393 0.086326 0.08646682
 0.0867129 0.08694267 0.08699717 0.08682534 0.0865442 0.08633431 0.08627509 0.08628966 0.08624239 0.08607124
 0.08582184 0.08557905 0.08539201 0.08525885 0.08515456 0.08506286 0.08499959 0.08501281 0.08513407 0.08530889
 0.08540224 0.08531132 0.08506641 0.08479556 0.08460547 0.08451967 0.08450264 0.08450489 0.08450335 0.0845256
 0.08460909 0.08472074 0.08476368 0.08468957 0.08456153 0.0844875 0.08453346 0.08470282 0.08493605 0.0851172
 0.0851483 0.08504798 0.0849356 0.08490373 0.08494458 0.08500658 0.0850725 0.08515584 0.08525711 0.08536255
 0.08547845 0.08563888 0.08586909 0.08614738 0.08640799 0.08658651 0.0866751 0.08674012 0.08687721 0.08713569
 0.08748022 0.08782332 0.08809598 0.08829345 0.08845975 0.0886322 0.08881136 0.08899209 0.08920187 0.08947742
 0.08981097 0.09015211 0.09046354 0.09074862 0.09102547 0.09130158 0.09158076 0.09188045 0.09223244 0.09265584
 0.09311555 0.09351818 0.09378081 0.09391288 0.09401669 0.09420738 0.09453173 0.09493442 0.09528545 0.09547882
 0.09554081 0.09561515 0.09580846 0.09608176 0.09633425 0.09655969 0.0968558 0.09728177 0.09776269 0.09815843
 0.09840093 0.09854425 0.09869072 0.09888379 0.09907807 0.09921061 0.09928472 0.09936272 0.09948517 0.09964079
 0.09982879 0.1000996 0.1004892 0.100942 0.101348 0.1016426 0.1018392 0.1019808 0.1020966 0.1021921
 0.1022556 0.1022834 0.1023083 0.102375 0.1024768 0.1025558 0.1025821 0.1026003 0.1026749 0.1028272
 0.1030445 0.1033169 0.1036262 0.1039275 0.1041904 0.1044548 0.1047905 0.1051855 0.1055218 0.1056983
 0.1057422 0.1057524 0.1057744 0.1057927 0.1058253 0.1059447 0.1061921 0.1065275 0.1068838 0.1072328
 0.1075804 0.107923 0.1082277 0.1084463 0.1085474 0.1085463 0.108508 0.1085183 0.1086421 0.1088939
 0.1092299 0.1095743 0.1098627 0.1100622 0.1101547 0.1101363 0.1100555 0.1100211 0.1101178 0.1103105
 0.1104622 0.1104513 0.1102489 0.109886 0.109389 0.1087728 0.108082 0.1074063 0.106842 0.1064421
 0.1062167 0.10618 0.1063744 0.1068221 0.1074624 0.1081675 0.108821 0.1093484 0.1096724 0.109696
 0.1093727 0.1087688 0.1080261 0.1072741 0.1065865 0.1059785 0.1054131 0.1048462 0.1043135 0.1039706
 0.1040172 0.1045756 0.1056295 0.1070388 0.1085882 0.110054 0.1112867 0.1122643 0.1130633 0.1137735
 0.1144431 0.1150957 0.1157589 0.1164387 0.1170882 0.1176456 0.118106 0.118522 0.1189355 0.1193369
 0.1196908 0.1199744 0.120197 0.1203978 0.120609 0.1208042 0.120908 0.1208787 0.1207592 0.1206256
 0.120503 0.1203495 0.1201034 0.119737 0.1192911 0.1188898 0.1187166 0.1189398 0.1196201 0.1206726
 0.1219291 0.1232445 0.1245335 0.1257157 0.1266843 0.1273683 0.1278018 0.1280963 0.1283541 0.128624
 0.1289143 0.1292174 0.1295242 0.1298278 0.130124 0.1304161 0.1307196 0.1310465 0.1313781 0.1316711
 0.1319079 0.1321301 0.1324096 0.1327807 0.1332018 0.133592 0.1339119 0.1341978 0.1344987 0.1348009
 0.1350471 0.1352204 0.1353703 0.1355623 0.1358324 0.1361787 0.1365604 0.1369064 0.1371641 0.1373456
 0.1375106 0.1377033 0.1379248 0.1381602 0.1384062 0.138664 0.1389269 0.1391941 0.1394838 0.1398068
 0.1401287 0.1403846 0.1405464 0.1406573 0.140789 0.1409739 0.14119 0.1414022 0.1416053 0.1418281
 0.1421016 0.1424204 0.1427347 0.1429859 0.1431558 0.1432779 0.143404 0.143565 0.1437624 0.1439821
 0.1442053 0.1444154 0.1446079 0.1447959 0.1449977 0.145218 0.1454455 0.145666 0.1458745 0.1460741
 0.1462698 0.1464647 0.1466646 0.1468849 0.147145 0.1474457 0.1477534 0.1480174 0.1482081 0.1483371
 0.1484421 0.1485591 0.1487072 0.1488881 0.1490915 0.1493027 0.1495116 0.1497159 0.149919 0.1501244
 0.1503334 0.1505458 0.1507605 0.150976 0.1511927 0.1514157 0.1516494 0.1518871 0.1521108 0.1523065
 0.1524789 0.1526483 0.152834 0.1530385 0.1532458 0.1534377 0.1536127 0.1537877 0.1539792 0.154187
 0.154397 0.1545949 0.1547762 0.1549479 0.1551229 0.1553113 0.1555156 0.1557325 0.1559548 0.1561745
 0.1563855 0.1565859 0.1567782 0.1569675 0.1571582 0.1573502 0.1575409 0.1577326 0.1579312 0.1581374
 0.1583432 0.1585411 0.1587316 0.1589213 0.1591144 0.1593078 0.159496 0.1596813 0.1598736 0.1600785
 0.1602902 0.1604991 0.1607016 0.1609029 0.1611121 0.1613328 0.1615565 0.1617704 0.1619736 0.1621765
 0.1623871 0.1626024 0.1628151 0.1630235 0.1632346 0.1634584 0.1636959 0.1639341 0.1641561 0.1643529
 0.1645275 0.1646909 0.1648551 0.1650257 0.1652023 0.1653849 0.1655717 0.1657547 0.1659285 0.1661024
 0.1662881 0.1664823 0.1666759 0.1668722 0.1670818 0.1673034 0.1675228 0.1677279 0.1679206 0.1681135
 0.1683148 0.1685205 0.1687252 0.1689315 0.1691424 0.1693554 0.1695682 0.169781 0.1699902 0.1701932
 0.1703942 0.1705972 0.1707995 0.1710024 0.171212 0.1714267 0.1716381 0.1718453 0.1720545 0.1722678
 0.1724843 0.172703 0.1729209 0.1731359 0.1733503 0.1735639 0.1737735 0.1739827 0.1741979 0.1744168
 0.1746339 0.1748501 0.1750638 0.1752691 0.1754683 0.1756702 0.1758769 0.1760903 0.1763192 0.1765612
 0.1767976 0.1770161 0.1772157 0.177383 0.1774741 0.1773767 0.1768099 0.1752113 0.1717237 0.1653765
 0.1554881 0.1421061 0.1261369 0.1090151 0.0921768 0.07669599 0.06319664 0.05194934 0.04301167 0.03630897
 0.03168291 0.02898602 0.02818773 0.0294851 0.03342172 0.04056764 0.05029479 0.05968557 0.06466549 0.06322402
 0.0573378 0.05116637 0.04758939 0.04680689 0.0475802 0.04885358 0.05029516 0.05209858 0.05459494 0.05788471
 0.06182204 0.06641109 0.07199726 0.07883157 0.08654772 0.09431275 0.1015433 0.1083698 0.1153545 0.1228225
 0.1305222 0.137872 0.144424 0.1500903 0.1550569 0.1595772 0.1638269 0.167879 0.1717525 0.1754219
 0.1787506 0.1814636 0.1832748 0.1841023 0.1841709 0.1838897 0.1836142 0.1835109 0.1835993 0.1838569
 0.1842666 0.1848131 0.1854792 0.1862419 0.187066 0.1879133 0.1887566 0.1895766 0.1903532 0.1910721
 0.1917307 0.1923344 0.1928933 0.19342 0.1939196 0.1943868 0.1948158 0.1952081 0.1955693 0.1959089
 0.19624 0.1965674 0.1968794 0.1971597 0.1974046 0.1976229 0.1978282 0.1980348 0.1982535 0.1984857
 0.1987215 0.1989458 0.1991489 0.1993369 0.1995268 0.1997273 0.1999312 0.2001292 0.2003222 0.2005131
 0.2006996 0.2008824 0.2010681 0.2012602 0.2014559 0.2016535 0.2018545 0.2020569 0.2022565 0.2024533
 0.2026511 0.2028506 0.2030472 0.2032371 0.2034251 0.2036235 0.2038392 0.2040654 0.2042933 0.2045224
 0.204754 0.2049823 0.205203 0.2054169 0.2056179 0.2057902 0.2059288 0.2060572 0.2062135 0.206419
 0.2066582 0.2068934 0.2071027 0.2072975 0.2074986 0.2077069 0.2079058 0.208083 0.208246 0.2084229
 0.2086416 0.2088985 0.2091615 0.2094091 0.2096452 0.2098766 0.2101058 0.2103423 0.210586 0.210802
 0.210951 0.2110519 0.2111902 0.2114471 0.2118196 0.2122157 0.2125408 0.2127811 0.2129883 0.2132116
 0.2134687 0.2137352 0.213922 0.213933 0.2138167 0.2137957 0.2140654 0.2145981 0.2151984 0.2157032
 0.2160811 0.2163828 0.2166538 0.2168878 0.2170337 0.2170524 0.2169936 0.2170158 0.217279 0.2177813
 0.2183471 0.2188056 0.2191276 0.2193655 0.2195585 0.2197249 0.2198259 0.2197131 0.2192854 0.2187639
 0.2186339 0.2191784 0.2201612 0.2210792 0.2216586 0.2219968 0.222284 0.2225687 0.2228031 0.2228851
 0.2225597 0.2215684 0.2201551 0.2191997 0.2194975 0.2209653 0.2227819 0.2242026 0.2250289 0.22544
 0.2256782 0.2258826 0.2259839 0.2257097 0.2248894 0.2238622 0.2233961 0.2239781 0.225266 0.2264551
 0.2271003 0.2273545 0.2275426 0.2278002 0.2279819 0.227611 0.2261501 0.2237911 0.2218527 0.2218495
 0.2240086 0.2270011 0.2292625 0.2303377 0.2307522 0.2308561 0.2302986 0.2286524 0.2260649 0.2231871
 0.2209515 0.220438 0.2221663 0.2252105 0.2277227 0.228752 0.2290468 0.2298285 0.2313339 0.2328288
 0.2335564 0.2333232 0.2323706 0.230954 0.2292173 0.2275714 0.226936 0.2280918 0.2307292 0.2335481
 0.2354585 0.2364114 0.2368365 0.2363682 0.2335877 0.2277287 0.2208127 0.2170951 0.2193173 0.2258447
 0.2324201 0.2363515 0.2380006 0.2387892 0.239278 0.2390061 0.2367751 0.2313164 0.2233042 0.2166022
 0.2156455 0.2210532 0.2289267 0.2344874 0.2353161 0.2315906 0.2252378 0.2193771 0.2170485 0.2193682
 0.2250344 0.2316124 0.2369978 0.2400056 0.2403611 0.2385819 0.2359459 0.2341856 0.2342293 0.2348302
 0.233518 0.2297164 0.2256959 0.2232471 0.2209258 0.2167386 0.2125162 0.2127097 0.2185939 0.2261199
 0.2304575 0.2308948 0.2299738 0.2288828 0.2254424 0.2172453 0.2061987 0.1986435 0.19981 0.2083828
 0.2176696 0.2221563 0.2218943 0.220557 0.220544 0.22053 0.217327 0.2100368 0.2022049 0.1988584
 0.2011693 0.2054089 0.2073797 0.2057775 0.2007608 0.1926083 0.1841009 0.1814041 0.1888926 0.2038162
 0.2184328 0.2263745 0.2250061 0.2140871 0.1966796 0.1810014 0.1764363 0.1851428 0.1994305 0.2088207
 0.2083739 0.1996181 0.1860694 0.1707932 0.1578011 0.1525643 0.1587728 0.1745672 0.1924827 0.20315
 0.200511 0.1865577 0.1717625 0.1675567 0.1759242 0.1879988 0.193965 0.1919504 0.1867015 0.1834907
 0.1850687 0.1910869 0.198464 0.2043024 0.20821 0.2090724 0.2019684 0.1840918 0.162596 0.1498711
 0.1506844 0.1597838 0.1718047 0.1860633 0.2000443 0.2061261 0.2001741 0.1893572 0.1860152 0.1945612
 0.2077183 0.2154096 0.2147219 0.2104258 0.207644 0.2064166 0.2042229 0.2018515 0.2036336 0.2114487
 0.2214284 0.228276 0.2307858 0.2313574 0.2319293 0.2325061 0.2325444 0.2318512 0.2305034 0.228975
 0.2279865 0.2276928 0.2275407 0.2271021 0.2260455 0.2228735 0.2152483 0.2032743 0.1915728 0.1856121
 0.1859122 0.1884342 0.1905988 0.1927947 0.1927654 0.1840186 0.1643938 0.1431079 0.1340416 0.1423181
 0.1604882 0.1770323 0.1851875 0.183534 0.1725685 0.1549182 0.1380655 0.1319723 0.1409399 0.1594842
 0.1782015 0.1918595 0.1999165 0.202005 0.197001 0.1862646 0.1748804 0.1687248 0.1709158 0.1804768
 0.1926348 0.2000002 0.1962001 0.1822471 0.169312 0.1704346 0.1868221 0.205808 0.2150985 0.2152046
 0.2143467 0.2156749 0.2157627 0.2136487 0.2144011 0.2221991 0.2342109 0.243396 0.2446931 0.2370121
 0.2225609 0.207339 0.199575 0.2030907 0.2128783 0.2204784 0.2221286 0.2182794 0.2086196 0.1941263
 0.1822975 0.1826561 0.1957276 0.2117941 0.2219286 0.2261285 0.2292692 0.2327025 0.2326023 0.2257487
 0.2148977 0.2070838 0.2066792 0.2115907 0.2168422 0.2198142 0.2202972 0.2175592 0.2108012 0.2025205
 0.198519 0.202877 0.2137178 0.2249237 0.2315702 0.2330041 0.2314412 0.2290785 0.2266003 0.2233481
 0.2188006 0.2144764 0.2136147 0.2177134 0.2241359 0.228827 0.2309534 0.2331572 0.237416 0.2423268
 0.2448167 0.2434918 0.239954 0.2373996 0.2380577 0.2414227 0.2446282 0.2448878 0.2421437 0.2393724
 0.239848 0.244021 0.2494487 0.2535807 0.25584 0.2570944 0.2581593 0.2590791 0.2590842 0.2571643
 0.2534964 0.2502835 0.2501946 0.2537199 0.2587116 0.2626134 0.2645283 0.265069 0.26495 0.2642417
 0.2627832 0.2608619 0.2592393 0.258548 0.2588302 0.2596913 0.2607164 0.2616543 0.262383 0.2628803
 0.2631992 0.2633963 0.2635092 0.2635927 0.2636869 0.2637386 0.263658 0.2634919 0.2634439 0.2636523
 0.264016 0.2643039 0.2643653 0.2641464 0.2635766 0.2625909 0.2612633 0.2597842 0.2582539 0.2566143
 0.254895 0.253489 0.2530394 0.2539499 0.2560023 0.258488 0.2607007 0.2622949 0.26327 0.2637731
 0.2639741 0.2640262 0.2640274 0.2639921 0.2638839 0.2636799 0.2633967 0.2630651 0.2627036 0.2623253
 0.2619559 0.2616243 0.2613307 0.2610353 0.2606859 0.2602575 0.2597668 0.2592523 0.2587316 0.258176
 0.257529 0.2567544 0.2558655 0.2549162 0.2539752 0.2530994 0.2523019 0.2515418 0.2507607 0.2499266
 0.249025 0.2480255 0.2469116 0.245752 0.2446917 0.2438356 0.2431586 0.2425428 0.2418747 0.2410949
 0.240198 0.2392188 0.2382062 0.2371807 0.2361216 0.2349984 0.233801 0.2325322 0.23119 0.2297687
 0.228266 0.2266855 0.225043 0.2233668 0.2216658 0.2198876 0.217916 0.2156118 0.2128499 0.2095372
 0.2056386 0.2012101 0.1964069 0.1914436 0.1865342 0.181852 0.1775245 0.1736469 0.1702952 0.167535
 0.1654241 0.1640047 0.1632942 0.1632885 0.1639735 0.1653224 0.1672736 0.1697157 0.1724981 0.1754568
 0.1784311 0.1812732 0.1838787 0.1862315 0.1884047 0.1904815 0.1924707 0.1943156 0.1959661 0.1974113
 0.1986517 0.1996842 0.2005242 0.2012155 0.2018043 0.2023161 0.2027566 0.2031254 0.2034256 0.2036669
 0.2038659 0.2040467 0.2042343 0.2044418 0.2046684 0.2049145 0.2051914 0.2055147 0.2058966 0.2063435
 0.206846 0.2073779 0.2079203 0.2084811 0.2090779 0.2097207 0.2104271 0.2112414 0.2122114 0.2133494
 0.214624 0.2159791 0.2173506 0.2186685 0.2198604 0.2208625 0.2216338 0.2221594 0.2224462 0.2225218
 0.2224317 0.2222243 0.2219337 0.2215784 0.2211631 0.2206755 0.2200982 0.2194375 0.2187312 0.2180179
 0.2173087 0.2165978 0.2158858 0.2151859 0.2145133 0.2138771 0.2132762 0.2126971 0.2121196 0.2115298
 0.2109278 0.210324 0.2097283 0.2091447 0.2085705 0.20799 0.2073679 0.2066633 0.2058581 0.2049605
 0.2039771 0.2028966 0.2017085 0.2004229 0.1990581 0.1976184 0.1960968 0.1944946 0.1928273 0.1911034
 0.1893031 0.1873908 0.1853661 0.1832969 0.1812893 0.1794228 0.1777153 0.1761404 0.1746623 0.1732614
 0.1719336 0.1706715 0.169456 0.1682747 0.1671364 0.1660577 0.1650428 0.1640876 0.1631946 0.1623769
 0.1616478 0.1610094 0.1604514 0.1599636 0.1595453 0.1591986 0.1589297 0.1587605 0.1587154 0.1587745
 0.1588628 0.1589009 0.1588549 0.1587396 0.1585946 0.1584598 0.1583592 0.1582972 0.1582615 0.1582138
 0.1580846 0.1577895 0.1572481 0.1563916 0.1551882 0.153672 0.1519318 0.1500791 0.1482368 0.1465302
 0.1450548 0.1438618 0.1429637 0.1423217 0.1418415 0.1414351 0.1410922 0.1408763 0.1408574 0.1410364
 0.1413018 0.1414868 0.141522 0.1415187 0.1416691 0.1420854 0.1427414 0.1435152 0.1442697 0.1449224
 0.1454515 0.1458444 0.1460856 0.1461953 0.1462215 0.1461897 0.1460964 0.1459375 0.1457112 0.1454162
 0.1450557 0.1446226 0.1441006 0.1435017 0.142857 0.1421597 0.1413738 0.1404855 0.139477 0.1383055
 0.1370173 0.1358417 0.135083 0.1349287 0.1353651 0.1362096 0.137232 0.1382947 0.1393243 0.1401317
 0.1404622 0.1403896 0.1405201 0.141561 0.1436401 0.146159 0.1483322 0.1497653 0.15048 0.1505862
 0.1501337 0.1491717 0.1477218 0.1457351 0.1432167 0.1403106 0.1371919 0.1340143 0.1309762 0.1282648
 0.1259554 0.1240649 0.1226078 0.1216287 0.1212441 0.1210596 0.1191562 0.1131017 0.1037319 0.09679891
 0.09810366 0.1069469 0.1166452 0.1215882 0.1216812 0.1199524 0.1184589 0.117497 0.116965 0.1170156
 0.1177708 0.1190688 0.1205111 0.121703 0.1224919 0.1229211 0.1229423 0.1221827 0.11989 0.115192
 0.1077955 0.09859256 0.08935288 0.08168815 0.07632621 0.07314119 0.07151832 0.07071137 0.07019693 0.06991109
 0.07014957 0.07121011 0.07313924 0.07578899 0.07897562 0.08244917 0.08579636 0.08861019 0.09080044 0.09257291
 0.09407154 0.0951895 0.09575375 0.09575125 0.09532756 0.09466142 0.09388936 0.09308115 0.09220915 0.09116855
 0.08993322 0.08871084 0.08783031 0.08742818 0.0873446 0.08734817 0.08733749 0.08730541 0.08724867 0.08716599
 0.08707716 0.08703551 0.08713733 0.08745755 0.08794652 0.08844461 0.08881031 0.08900949 0.08909814 0.08910739
 0.08891634 0.08834518 0.08747208 0.08667479 0.0861519 0.0855846 0.08456118 0.08322233 0.08218787 0.08187623
 0.08212574 0.08246984 0.08257549 0.08239472 0.08210532 0.08202016 0.08238672 0.08308801 0.08363008 0.0836044
</values></Ydata></ScRf><Data_Parameters_AB><parameter name="DPF">1</parameter><parameter name="NPT">3497</parameter><parameter name="FXV">3996</parameter><parameter name="LXV">500</parameter><parameter name="CSF">1</parameter><parameter name="MXY">0.363535344600677</parameter><parameter name="MNY">-0.0301858708262444</parameter><parameter name="DAT">01/06/2022</parameter><parameter name="TIM">12:06:20.022 (GMT+2)</parameter><parameter name="DXU">WN</parameter></Data_Parameters_AB><AB__Qtest><MainReport name="Quality Test Report"><Header><Line><Legend>Test result ok/not ok [1/0]: </Legend><Value>0</Value></Line><Line><Legend>Method file: </Legend><Value>C:\Users\Public\Documents\Bruker\OPUS_8.2.28\QT\IRBT_v3_default.QT</Value></Line></Header><Matrix><Line><Legend></Legend><Legend>min</Legend><Legend>max</Legend><Legend>measured</Legend></Line><Line><Value>Absorption (X-Range 1):</Value><Value>0.400000</Value><Value>2.000000</Value><Value>0.359530</Value></Line><Line><Value>Noise (X-Range 4):</Value><Value></Value><Value>0.000300</Value><Value>0.000054</Value></Line><Line><Value>Signal/Noise (X-Range 2):</Value><Value>200.000000</Value><Value></Value><Value>186.569321</Value></Line><Line><Value>Signal/Noise (X-Range 3):</Value><Value>40.000000</Value><Value></Value><Value>63.390060</Value></Line><Line><Value>Water vapour (X-Range 5):</Value><Value></Value><Value>0.000300</Value><Value>0.000111</Value></Line><Line><Value>Signal/Water (X-Range 2):</Value><Value>100.000000</Value><Value></Value><Value>91.068109</Value></Line><Line><Value>Signal/Water (X-Range 3):</Value><Value>20.000000</Value><Value></Value><Value>30.941919</Value></Line><Line><Value>Fringes (X-Range 6):</Value><Value></Value><Value>0.000100</Value><Value>0.000074</Value></Line></Matrix></MainReport></AB__Qtest><Data_Parameters_ScSm><parameter name="DPF">1</parameter><parameter name="NPT">1814</parameter><parameter name="FXV">3996.33169228125</parameter><parameter name="LXV">499.541461535156</parameter><parameter name="CSF">1</parameter><parameter name="MXY">0.238084465265274</parameter><parameter name="MNY">0.0281692389398813</parameter><parameter name="DAT">01/06/2022</parameter><parameter name="TIM">12:06:20.022 (GMT+2)</parameter><parameter name="DXU">WN</parameter></Data_Parameters_ScSm><Data_Parameters_ScRf><parameter name="DPF">1</parameter><parameter name="NPT">1820</parameter><parameter name="FXV">4004.04661832813</parameter><parameter name="LXV">495.683998511719</parameter><parameter name="CSF">1</parameter><parameter name="MXY">0.265069007873535</parameter><parameter name="MNY">0.0281877294182777</parameter><parameter name="DAT">01/06/2022</parameter><parameter name="TIM">12:05:53.588 (GMT+2)</parameter><parameter name="DXU">WN</parameter></Data_Parameters_ScRf><Optic_Parameters_Rf><parameter name="APR">0</parameter><parameter name="APT">Open</parameter><parameter name="BMS">KBr</parameter><parameter name="DTC">RT-DLaTGS_IR-Biotyper [Microplate reader]</parameter><parameter name="HPF">0</parameter><parameter name="LPF">10.0</parameter><parameter name="LPV">4000</parameter><parameter name="PGR">0</parameter><parameter name="RCH">Module port</parameter><parameter name="RDX">0</parameter><parameter name="SRC">MIR</parameter><parameter name="VEL">10.0</parameter><parameter name="SON">Off</parameter></Optic_Parameters_Rf><Acquisition_Parameters_Rf><parameter name="ADT">1</parameter><parameter name="AQM">DD</parameter><parameter name="CFE">0</parameter><parameter name="COR">0</parameter><parameter name="DEL">0</parameter><parameter name="DLY">0</parameter><parameter name="HFW">8000</parameter><parameter name="LFW">0</parameter><parameter name="NSR">32</parameter><parameter name="PLF">AB</parameter><parameter name="RES">6</parameter><parameter name="RGN">-1</parameter><parameter name="STR">0</parameter><parameter name="TCL">MakeCompatibleScalar (0, {WSV=1.000000, ARV=0});</parameter><parameter name="TDL">37</parameter><parameter name="RPO">0</parameter></Acquisition_Parameters_Rf><FT_-_Parameters_Rf><parameter name="APF">B3</parameter><parameter name="HFQ">500</parameter><parameter name="LFQ">4000</parameter><parameter name="NLI">0</parameter><parameter name="PHR">24</parameter><parameter name="PHZ">ML</parameter><parameter name="SPZ">NO</parameter><parameter name="ZFF">1</parameter></FT_-_Parameters_Rf><Optic_Parameters_><parameter name="APR">0</parameter><parameter name="APT">Open</parameter><parameter name="BMS">KBr</parameter><parameter name="CHN">Module port</parameter><parameter name="DTC">RT-DLaTGS_IR-Biotyper [Microplate reader]</parameter><parameter name="HPF">0</parameter><parameter name="LPF">10.0</parameter><parameter name="LPV">4000</parameter><parameter name="PGN">0</parameter><parameter name="RDX">0</parameter><parameter name="SRC">MIR</parameter><parameter name="VEL">10.0</parameter><parameter name="SON">Off</parameter></Optic_Parameters_><FT_-_Parameters_><parameter name="APF">B3</parameter><parameter name="HFQ">500</parameter><parameter name="LFQ">4000</parameter><parameter name="NLI">0</parameter><parameter name="PHR">24</parameter><parameter name="PHZ">ML</parameter><parameter name="SPZ">NO</parameter><parameter name="ZFF">1</parameter></FT_-_Parameters_><Acquisition_Parameters_><parameter name="ADT">1</parameter><parameter name="AQM">DD</parameter><parameter name="CFE">0</parameter><parameter name="COR">0</parameter><parameter name="DEL">0</parameter><parameter name="DLY">0</parameter><parameter name="HFW">8000</parameter><parameter name="LFW">0</parameter><parameter name="NSS">32</parameter><parameter name="PLF">AB</parameter><parameter name="RES">6</parameter><parameter name="SOT">0</parameter><parameter name="TCL">MakeCompatibleScalar (0, {WSV=1.000000, ARV=0});</parameter><parameter name="TDL">37</parameter><parameter name="SPO">0</parameter><parameter name="SGN">-1</parameter></Acquisition_Parameters_><Instrument_Parameters_Rf><parameter name="HFL">15800.168544</parameter><parameter name="LFL">0</parameter><parameter name="LWN">15800.168544</parameter><parameter name="ABP">32197</parameter><parameter name="SSP">1</parameter><parameter name="ARG">2</parameter><parameter name="ASG">2</parameter><parameter name="ASS">32</parameter><parameter name="GFW">16</parameter><parameter name="GBW">16</parameter><parameter name="BFW">0</parameter><parameter name="BBW">0</parameter><parameter name="PKA">7313</parameter><parameter name="PKL">4990</parameter><parameter name="PRA">7479</parameter><parameter name="PRL">5001</parameter><parameter name="P2A">1</parameter><parameter name="P2L">1</parameter><parameter name="P2R">1</parameter><parameter name="P2K">1</parameter><parameter name="DAQ">0</parameter><parameter name="AG2">1</parameter><parameter name="SSM">1</parameter><parameter name="RSN">25983</parameter><parameter name="CRR">0</parameter><parameter name="SRT">1654085153.589</parameter><parameter name="DUR">19.6389923095703</parameter><parameter name="TSC">29</parameter><parameter name="MVD">0.246734887361526</parameter><parameter name="AN1">0.225804416516231</parameter><parameter name="AN2">0</parameter><parameter name="VSN">2.485 Apr  4 2017</parameter><parameter name="SRN">0085</parameter><parameter name="CAM">0</parameter><parameter name="INS">IR-Biotyper</parameter><parameter name="FOC">69</parameter><parameter name="RDY">1</parameter><parameter name="ARS">32</parameter></Instrument_Parameters_Rf><Sample_Parameters_><parameter name="BLD"></parameter><parameter name="CNM">Admin</parameter><parameter name="CPY"></parameter><parameter name="DPM"></parameter><parameter name="EXP">IRBT_v3_32Scans.XPM</parameter><parameter name="LCT"></parameter><parameter name="SFM">Microplate, HTS-XT</parameter><parameter name="SNM">220601-1028(v.3)_MPP28F (D_2)_B10_8c7d5f9d-19b5-407f-a042-0b5306704809.0</parameter><parameter name="XPP">C:\Users\Public\Documents\Bruker\OPUS_8.2.28\XPM</parameter><parameter name="IST">OK</parameter><parameter name="CPG">1252</parameter><parameter name="UID">7bb86ca5-4b71-47d4-9559-8ecad41a5854</parameter></Sample_Parameters_><Instrument_Parameters_><parameter name="HFL">15800.168544</parameter><parameter name="LFL">0</parameter><parameter name="LWN">15800.168544</parameter><parameter name="ABP">32197</parameter><parameter name="SSP">1</parameter><parameter name="ASG">4</parameter><parameter name="ARG">2</parameter><parameter name="ASS">32</parameter><parameter name="GFW">16</parameter><parameter name="GBW">16</parameter><parameter name="BFW">0</parameter><parameter name="BBW">0</parameter><parameter name="PKA">6102</parameter><parameter name="PKL">4988</parameter><parameter name="PRA">6384</parameter><parameter name="PRL">4993</parameter><parameter name="P2A">1</parameter><parameter name="P2L">1</parameter><parameter name="P2R">1</parameter><parameter name="P2K">1</parameter><parameter name="DAQ">0</parameter><parameter name="AG2">1</parameter><parameter name="SSM">1</parameter><parameter name="RSN">13617</parameter><parameter name="CRR">0</parameter><parameter name="SRT">1654085180.022</parameter><parameter name="DUR">19.6389923095703</parameter><parameter name="TSC">29</parameter><parameter name="MVD">0.228715106844902</parameter><parameter name="AN1">0.225807074296821</parameter><parameter name="AN2">0</parameter><parameter name="VSN">2.485 Apr  4 2017</parameter><parameter name="SRN">0085</parameter><parameter name="CAM">0</parameter><parameter name="INS">IR-Biotyper</parameter><parameter name="FOC">69</parameter><parameter name="RDY">1</parameter></Instrument_Parameters_><History/></OPUSDataFile>
