<?xml version="1.0" encoding="UTF-8" ?>
<OPUSDataFile><AB><Ydata ylabel="Absorbance Units"><values byteorder="INTEL" format="FLOAT32" numvalues="3497"> -0.08191478 -0.08188226 -0.08187193 -0.08188456 -0.08190969 -0.08194677 -0.0819739 -0.08199067 -0.08198513 -0.08195964
 -0.08192106 -0.08187316 -0.08183314 -0.08180182 -0.08179054 -0.08179609 -0.08181851 -0.08185434 -0.08189926 -0.0819525
 -0.08201274 -0.08207785 -0.0821479 -0.08221567 -0.08227884 -0.08233114 -0.08236944 -0.08239713 -0.08241336 -0.08242916
 -0.0824456 -0.08246912 -0.08250012 -0.08253302 -0.08256713 -0.08259152 -0.08260661 -0.0826087 -0.08260006 -0.08258717
 -0.08257075 -0.08255646 -0.08254213 -0.08252603 -0.08250833 -0.08248644 -0.08246753 -0.08245604 -0.08245815 -0.0824811
 -0.0825173 -0.08256812 -0.08261518 -0.0826539 -0.08267365 -0.08267051 -0.08265171 -0.08261691 -0.08258205 -0.08254799
 -0.08252718 -0.08251967 -0.08252945 -0.08255521 -0.08259183 -0.08263711 -0.08268029 -0.08272062 -0.0827499 -0.08277107
 -0.08278427 -0.08279514 -0.08281099 -0.08283322 -0.08286809 -0.08290588 -0.08294488 -0.08297029 -0.08297464 -0.08295593
 -0.08290908 -0.08285291 -0.08278836 -0.08274046 -0.08271173 -0.08271912 -0.08276372 -0.0828495 -0.08297516 -0.08312659
 -0.08329817 -0.08344972 -0.08357467 -0.08362247 -0.08360224 -0.08350411 -0.0833555 -0.08319802 -0.08305008 -0.08295346
 -0.08290247 -0.08291141 -0.08295316 -0.08301963 -0.08307941 -0.08311607 -0.08312377 -0.08309329 -0.08305215 -0.08300251
 -0.08297373 -0.08297029 -0.08299248 -0.08304064 -0.08309226 -0.08314696 -0.08319414 -0.08323655 -0.08328714 -0.08334685
 -0.08342852 -0.0835254 -0.08362891 -0.08372929 -0.0838035 -0.08385371 -0.08387009 -0.08386726 -0.08385584 -0.08383976
 -0.08382659 -0.08380715 -0.083777 -0.0837405 -0.08369439 -0.08366314 -0.08365066 -0.08367298 -0.0837349 -0.08380939
 -0.08389555 -0.08391273 -0.08386023 -0.08370731 -0.08346988 -0.08323935 -0.08302183 -0.08289182 -0.08283722 -0.08286637
 -0.08296383 -0.08311078 -0.08328681 -0.0834635 -0.08361888 -0.08372367 -0.08377339 -0.0837509 -0.08368386 -0.08357616
 -0.08346228 -0.08335387 -0.08326079 -0.0831871 -0.08313002 -0.08308902 -0.08307043 -0.08307454 -0.08311006 -0.08317643
 -0.08326733 -0.0833793 -0.08348735 -0.08358756 -0.08365026 -0.08367712 -0.08365412 -0.0835925 -0.08350303 -0.08340086
 -0.0833092 -0.08323467 -0.08319307 -0.08317681 -0.08318764 -0.08321146 -0.0832433 -0.08327335 -0.08329775 -0.08331347
 -0.0833201 -0.08331169 -0.0832881 -0.0832372 -0.08315812 -0.08305264 -0.08292227 -0.08279295 -0.08266602 -0.08256462
 -0.0824854 -0.08242772 -0.08238791 -0.08235503 -0.08233069 -0.08231251 -0.08230338 -0.08230805 -0.08232179 -0.08234457
 -0.08236466 -0.08237478 -0.08236917 -0.08234202 -0.08229943 -0.08224052 -0.0821785 -0.0821149 -0.08206339 -0.08202579
 -0.082009 -0.08201373 -0.08203354 -0.08206748 -0.08209854 -0.08212608 -0.08213654 -0.08213227 -0.08211505 -0.0820877
 -0.08205883 -0.08202866 -0.08200136 -0.08197641 -0.0819539 -0.08193585 -0.08192205 -0.08192034 -0.08193345 -0.08197322
 -0.08204664 -0.08215401 -0.08230204 -0.08246037 -0.08262795 -0.08275754 -0.08284283 -0.08286618 -0.08282579 -0.08272979
 -0.08257908 -0.08238688 -0.08215737 -0.08192466 -0.08169419 -0.08150722 -0.08136261 -0.08128071 -0.08125179 -0.08127195
 -0.08132165 -0.08137495 -0.08141915 -0.08142908 -0.08141821 -0.08138631 -0.08135063 -0.08132237 -0.08129374 -0.08126891
 -0.08121695 -0.08113179 -0.08099953 -0.08081455 -0.08061215 -0.08039384 -0.08021011 -0.08006208 -0.07997023 -0.07993125
 -0.07993425 -0.07997223 -0.08001378 -0.08004965 -0.08003625 -0.07997724 -0.07985417 -0.07968729 -0.07949645 -0.07929153
 -0.07909013 -0.07888839 -0.07868742 -0.07848753 -0.07828727 -0.07809471 -0.07791193 -0.07774374 -0.07759224 -0.07745401
 -0.07733016 -0.07720368 -0.07707404 -0.07690384 -0.07669181 -0.07641037 -0.0760669 -0.07570126 -0.07532312 -0.0749984
 -0.07471946 -0.07450067 -0.07432821 -0.07418448 -0.07405732 -0.07392861 -0.07377844 -0.07358471 -0.07333086 -0.07299331
 -0.07259271 -0.07212946 -0.07163363 -0.07111989 -0.07057323 -0.06999288 -0.06936529 -0.06868535 -0.06798653 -0.06727055
 -0.06656993 -0.06588491 -0.06521518 -0.06455968 -0.06391 -0.06326748 -0.06263327 -0.06200952 -0.06140265 -0.06081366
 -0.06025083 -0.05970465 -0.05917593 -0.0586274 -0.05803076 -0.05734533 -0.05651987 -0.05560122 -0.05458312 -0.05356709
 -0.05259019 -0.05166829 -0.05081614 -0.04998988 -0.04918584 -0.04837349 -0.04755005 -0.04671453 -0.04586784 -0.04503231
 -0.04420811 -0.04341297 -0.04263476 -0.04183638 -0.04099658 -0.04002326 -0.03894113 -0.03773436 -0.03648251 -0.03529834
 -0.03418994 -0.03322431 -0.03232276 -0.03145729 -0.03056088 -0.02958783 -0.02854686 -0.02742251 -0.02627994 -0.0251314
 -0.02400784 -0.02291881 -0.02182928 -0.02073795 -0.01959705 -0.01840658 -0.01717571 -0.01591244 -0.0146861 -0.01349705
 -0.01238884 -0.01134473 -0.0103412 -0.009362911 -0.008368095 -0.007354478 -0.006301322 -0.005213332 -0.0040844 -0.002930559
 -0.00175656 -0.0005870456 0.0005611253 0.001694797 0.002804303 0.003942939 0.005121169 0.006366439 0.007689986 0.009030594
 0.01038539 0.01168288 0.01292229 0.01410853 0.01524692 0.01638257 0.01751595 0.01867524 0.01985225 0.02104071
 0.0222283 0.02338517 0.02451323 0.02559324 0.0266589 0.02772862 0.02884718 0.03005712 0.03135196 0.03275247
 0.03418848 0.03564378 0.03706646 0.03844006 0.03976212 0.04102935 0.0422557 0.0434415 0.0446103 0.04576351
 0.04692938 0.04810727 0.04930528 0.05052022 0.05174057 0.05296813 0.05420073 0.05544484 0.05671403 0.0580071
 0.05933163 0.06067422 0.06202633 0.06337379 0.06470349 0.06601343 0.06729762 0.06856563 0.06982006 0.07106373
 0.0722995 0.073515 0.07470828 0.07587744 0.07702127 0.07816774 0.07931819 0.08049925 0.08170876 0.0829402
 0.08419028 0.08543954 0.08668973 0.08793651 0.0891813 0.090426 0.09166818 0.09290505 0.09413542 0.09535757
 0.09656977 0.09777126 0.09895799 0.1001273 0.1012795 0.1024137 0.1035326 0.1046369 0.1057258 0.1067984
 0.1078631 0.1089202 0.1099907 0.1110752 0.1121762 0.1132909 0.1143954 0.1154896 0.1165595 0.1176106
 0.1186529 0.1196872 0.1207203 0.1217497 0.1227723 0.1237911 0.1248082 0.1258238 0.126842 0.1278503
 0.1288437 0.1298134 0.1307524 0.1316724 0.1325729 0.1334752 0.1343821 0.1353044 0.1362439 0.137188
 0.1381356 0.1390535 0.1399411 0.1407773 0.1415699 0.1423421 0.1431026 0.1438924 0.1447054 0.1455515
 0.146416 0.1472806 0.1481405 0.1489831 0.1498118 0.1506263 0.1514265 0.1522126 0.1529838 0.1537398
 0.1544798 0.155204 0.1559101 0.1565973 0.1572722 0.1579351 0.1586025 0.1592749 0.1599547 0.16064
 0.1613138 0.1619764 0.1626192 0.1632457 0.1638635 0.1644731 0.1650796 0.1656823 0.1662816 0.1668784
 0.1674757 0.1680686 0.1686567 0.1692294 0.1697807 0.1703084 0.1708094 0.1712894 0.1717493 0.1721924
 0.1726184 0.1730365 0.1734469 0.1738692 0.1743043 0.17476 0.1752345 0.1757142 0.176198 0.1766736
 0.1771422 0.1776028 0.1780535 0.1784901 0.1789103 0.1793068 0.1796857 0.1800488 0.1804069 0.1807699
 0.1811372 0.1815152 0.1818834 0.1822387 0.1825551 0.1828238 0.1830463 0.1832182 0.1833795 0.1835331
 0.1837122 0.1839172 0.1841256 0.1843338 0.1844953 0.1846149 0.1846897 0.1847332 0.1847862 0.1848539
 0.1849691 0.1851228 0.1853181 0.1855393 0.1857734 0.1860048 0.1862161 0.1864085 0.1865708 0.1867363
 0.1869118 0.1871313 0.1874105 0.1877249 0.1880793 0.1883933 0.1886606 0.1888212 0.1888732 0.1888317
 0.1887024 0.1885486 0.1883727 0.1882207 0.1880884 0.1879842 0.1879099 0.1878707 0.1878761 0.187948
 0.188075 0.1882653 0.1884695 0.188658 0.1887901 0.1888267 0.1887968 0.188691 0.1885891 0.1885078
 0.1884952 0.1885661 0.1886923 0.188875 0.189039 0.1891806 0.1892357 0.1892065 0.189086 0.1888876
 0.1886716 0.1884545 0.1883231 0.188278 0.1883704 0.1885721 0.1888721 0.1892212 0.1895678 0.1898698
 0.190075 0.1901877 0.1901845 0.1901276 0.1900261 0.1899562 0.1899373 0.1900068 0.1901744 0.1904386
 0.1908003 0.1912515 0.1917915 0.1924043 0.1930847 0.1937764 0.1944665 0.1950589 0.1955462 0.1958464
 0.1959805 0.1959405 0.1957814 0.1955753 0.1953796 0.1952886 0.195306 0.1954813 0.1957404 0.1960718
 0.196369 0.1965932 0.1966812 0.1966034 0.1963822 0.1960098 0.1955736 0.1950791 0.1946123 0.1941771
 0.1938021 0.1934841 0.1931992 0.1929452 0.1926953 0.1924557 0.1922327 0.192033 0.1918812 0.1917623
 0.1916772 0.1915754 0.1914117 0.1911283 0.1906607 0.1900096 0.1891395 0.1881396 0.1870213 0.1859046
 0.18482 0.1838344 0.1829659 0.1822071 0.181561 0.1809788 0.1804577 0.1799337 0.1794046 0.1788219
 0.1781923 0.1775231 0.1768282 0.1761616 0.1755199 0.1749302 0.1743624 0.1737816 0.173167 0.1724721
 0.171723 0.1709141 0.1701055 0.1693241 0.1686175 0.1680128 0.1675113 0.1671266 0.1668014 0.1665356
 0.1662296 0.165875 0.1653946 0.1647846 0.1640545 0.1632117 0.1623399 0.1614459 0.160611 0.1598314
 0.1591379 0.1585201 0.1579718 0.1574801 0.1570268 0.1565914 0.1561483 0.1556758 0.1551464 0.1545599
 0.1539011 0.1532048 0.1524754 0.1517595 0.1510706 0.1504264 0.1498353 0.1492728 0.1487384 0.1481965
 0.1476455 0.147076 0.1464896 0.145903 0.1453164 0.1447424 0.1441768 0.1436127 0.1430476 0.1424712
 0.1418876 0.141299 0.1407087 0.1401238 0.1395375 0.1389479 0.1383465 0.1377259 0.137092 0.1364437
 0.1357944 0.1351487 0.1345039 0.1338615 0.1332051 0.1325327 0.1318446 0.131141 0.1304464 0.1297619
 0.1291065 0.1284773 0.1278673 0.1272725 0.1266743 0.1260725 0.1254566 0.12483 0.1241924 0.1235484
 0.1229016 0.1222595 0.121626 0.121017 0.1204386 0.1199126 0.1194507 0.1190548 0.1187361 0.1184414
 0.1181706 0.1178282 0.1174051 0.1168425 0.1161372 0.1153285 0.114424 0.1135285 0.1126478 0.1118711
 0.1111908 0.1106337 0.1101764 0.1097843 0.1094246 0.1090289 0.1085814 0.1080273 0.1073998 0.106697
 0.1059818 0.1052913 0.1046488 0.1040805 0.1035466 0.1030412 0.1025363 0.1020191 0.1015364 0.1010892
 0.1007518 0.100528 0.1004223 0.1004272 0.1004529 0.1004874 0.1004139 0.1002345 0.09988673 0.09939638
 0.09878626 0.09809472 0.09739562 0.09670688 0.09608489 0.09550827 0.09498035 0.09447329 0.09396511 0.09346926
 0.09298125 0.09253666 0.09214947 0.0918085 0.09151953 0.09122285 0.09091203 0.09056221 0.09017174 0.08979217
 0.08942685 0.08913676 0.08891547 0.0887582 0.08865111 0.08854046 0.0884228 0.08826001 0.08806365 0.08783557
 0.087587 0.08733595 0.08707518 0.08681149 0.08651445 0.08617213 0.08575311 0.08523689 0.08463416 0.08393324
 0.08320747 0.08246243 0.08178809 0.08119631 0.08071025 0.08033196 0.07998807 0.0796726 0.07928386 0.07882566
 0.07826362 0.07761801 0.07694229 0.07625463 0.07562996 0.0750623 0.07458095 0.07415851 0.07377652 0.07340813
 0.07302426 0.07261607 0.07216725 0.0716914 0.07118581 0.07068164 0.07018533 0.0697237 0.06930584 0.06891795
 0.06856262 0.06818183 0.06777239 0.06729073 0.06673971 0.06614937 0.06552885 0.06495405 0.06442105 0.06396261
 0.06355443 0.06315354 0.06274261 0.0622651 0.06173801 0.06115316 0.0605472 0.05994851 0.0593764 0.05885264
 0.05837097 0.05793346 0.0575336 0.05716794 0.05684452 0.05656414 0.05633458 0.05615846 0.05601745 0.05591087
 0.0557874 0.05564398 0.05542418 0.05513062 0.05474642 0.05428565 0.05378785 0.05327136 0.05280058 0.05238523
 0.05207257 0.05185861 0.05175955 0.05176051 0.05185749 0.05202936 0.05226519 0.0525448 0.05285875 0.05319331
 0.05354355 0.0539007 0.05426202 0.05462652 0.05499209 0.05538143 0.05579548 0.0562837 0.0568482 0.05753107
 0.05832762 0.05923211 0.06023244 0.0612806 0.06236788 0.06344759 0.06452031 0.06556667 0.06658874 0.06758299
 0.06854732 0.06947723 0.07037704 0.07124364 0.07209738 0.07294469 0.07380312 0.07468364 0.07556757 0.07645866
 0.07730055 0.07808866 0.07877117 0.07934446 0.07979728 0.08013087 0.08036502 0.08050082 0.08055421 0.08052503
 0.08041652 0.08023785 0.08000608 0.07974792 0.079513 0.07933113 0.07926182 0.07930771 0.07949867 0.07980188
 0.08021 0.0806848 0.08120767 0.08176492 0.08234879 0.08295939 0.08359762 0.08425063 0.08491848 0.08557479
 0.08621801 0.08682503 0.08739492 0.08791093 0.08837227 0.08876462 0.08908889 0.08933939 0.08952083 0.08964283
 0.08970781 0.08973093 0.08969434 0.08959668 0.08937925 0.08900876 0.08839023 0.08746296 0.08615803 0.08441655
 0.08228377 0.0797352 0.07695317 0.07395143 0.07096417 0.06801695 0.06527591 0.0627538 0.06049499 0.05849712
 0.05672017 0.05515813 0.05375304 0.05250117 0.05136001 0.05032351 0.04935794 0.04845191 0.04757012 0.046706
 0.04583288 0.04496379 0.04409496 0.04325831 0.04246931 0.04175713 0.0411393 0.04062138 0.04021132 0.03989131
 0.03966053 0.03949628 0.03939533 0.03935092 0.03936226 0.03943792 0.03957703 0.03976932 0.04000608 0.04022494
 0.04041239 0.04047794 0.04042238 0.04019406 0.0398194 0.03931636 0.03872262 0.03809093 0.03744882 0.03683767
 0.03626949 0.0357631 0.03531885 0.03494184 0.03462577 0.0343692 0.03417063 0.03402875 0.03395091 0.03394061
 0.03397415 0.03405226 0.03405836 0.03398188 0.03362439 0.03298023 0.0318987 0.03041198 0.02855104 0.02638782
 0.02412092 0.02181262 0.01967665 0.01771071 0.01601172 0.01451415 0.01319805 0.01199464 0.01085157 0.009749115
 0.008661624 0.007610456 0.006596039 0.005641127 0.004750932 0.003932734 0.003188636 0.002514099 0.001909253 0.00135763
 0.0008577221 0.0003813063 -7.331579E-05 -0.000533006 -0.0009959626 -0.001470989 -0.001951509 -0.002425472 -0.00288566 -0.003311439
 -0.003704304 -0.004053257 -0.004375561 -0.004678852 -0.004988793 -0.005324635 -0.005696024 -0.006118026 -0.006564666 -0.00703703
 -0.007485167 -0.007899791 -0.008248532 -0.008523288 -0.008743847 -0.008910075 -0.0090793 -0.009253595 -0.009471205 -0.009727844
 -0.01000967 -0.01031124 -0.01059892 -0.01087886 -0.01114847 -0.01142049 -0.01172101 -0.01204831 -0.01241654 -0.01280372
 -0.01319709 -0.01357373 -0.01391483 -0.01421185 -0.01445515 -0.01464967 -0.01479185 -0.01490298 -0.01498313 -0.01507132
 -0.0151717 -0.01531627 -0.0155082 -0.01573999 -0.01600997 -0.01628073 -0.01655134 -0.01679619 -0.01701938 -0.01722472
 -0.01741619 -0.01760766 -0.01779806 -0.01799218 -0.01818688 -0.01838027 -0.01856901 -0.01875073 -0.01891919 -0.01907088
 -0.01919831 -0.01929571 -0.01936616 -0.01940523 -0.01943807 -0.01946613 -0.01952606 -0.01962311 -0.019774 -0.01998118
 -0.02022128 -0.02049223 -0.02074927 -0.02099188 -0.02119375 -0.02136022 -0.02149951 -0.02161801 -0.02173913 -0.02186224
 -0.02199948 -0.02214146 -0.02228135 -0.02240998 -0.02251347 -0.02259715 -0.0226556 -0.0227122 -0.02277398 -0.02286457
 -0.02299462 -0.02316549 -0.02338191 -0.02362248 -0.02388599 -0.02414766 -0.02440557 -0.02464654 -0.02487027 -0.02507474
 -0.02526069 -0.02543231 -0.02559095 -0.02574413 -0.02589356 -0.02604806 -0.02620805 -0.02637938 -0.02655934 -0.02674763
 -0.02693915 -0.02712921 -0.02731412 -0.0274894 -0.02765632 -0.02781388 -0.02796573 -0.028113 -0.02825706 -0.02839865
 -0.02853624 -0.02866968 -0.02879794 -0.02892085 -0.02904068 -0.02915753 -0.02927365 -0.02938835 -0.02949766 -0.02959993
 -0.02968455 -0.02975279 -0.02980041 -0.02983524 -0.02986919 -0.02991173 -0.02998234 -0.03008093 -0.03021699 -0.03037904
 -0.03056343 -0.03075772 -0.0309551 -0.03115032 -0.03134044 -0.03152383 -0.0317 -0.03186667 -0.03202357 -0.03216833
 -0.0323007 -0.03242058 -0.03252807 -0.0326262 -0.03271563 -0.03280295 -0.03288888 -0.03298036 -0.0330769 -0.03318101
 -0.03329104 -0.03340491 -0.03352143 -0.03363821 -0.03375456 -0.03386963 -0.03398098 -0.03408733 -0.0341851 -0.03427193
 -0.03434759 -0.03441033 -0.03446679 -0.03451715 -0.03457214 -0.0346332 -0.03470706 -0.03479456 -0.03489375 -0.03500428
 -0.03511654 -0.03522974 -0.0353328 -0.03542604 -0.03550401 -0.03556965 -0.03562769 -0.03568302 -0.03574786 -0.03582448
 -0.03592272 -0.03603796 -0.03617096 -0.03631173 -0.03645461 -0.03659044 -0.03671326 -0.03681999 -0.03690724 -0.03698058
 -0.03703925 -0.03709669 -0.03715421 -0.03722454 -0.03730908 -0.03740818 -0.03752155 -0.03763739 -0.03775506 -0.0378636
 -0.03796398 -0.03805451 -0.03813723 -0.0382172 -0.0382957 -0.03837801 -0.03846364 -0.03855466 -0.03864868 -0.03874414
 -0.03883922 -0.03893154 -0.03902285 -0.03911303 -0.03920509 -0.03930079 -0.03939778 -0.03949675 -0.03958961 -0.03967525
 -0.03974924 -0.03981088 -0.03986422 -0.03990956 -0.03995459 -0.03999955 -0.04004993 -0.04010551 -0.04016852 -0.04023801
 -0.04031279 -0.04039105 -0.04046838 -0.04054422 -0.04061491 -0.04068358 -0.04075171 -0.04082277 -0.04090081 -0.04098335
 -0.0410717 -0.0411575 -0.04123837 -0.0413087 -0.04136617 -0.04141257 -0.04144742 -0.04147657 -0.04150037 -0.04152456
 -0.04154946 -0.04158011 -0.04161656 -0.04166167 -0.04171441 -0.04177189 -0.04183215 -0.04188744 -0.0419374 -0.0419767
 -0.04200831 -0.04203374 -0.04205695 -0.04208293 -0.0421125 -0.04214823 -0.04218803 -0.04223143 -0.04227714 -0.04232441
 -0.04237376 -0.04242534 -0.04247867 -0.04253403 -0.04258813 -0.04264082 -0.04268793 -0.04272929 -0.04276271 -0.04278845
 -0.04280796 -0.042822 -0.04283507 -0.0428478 -0.04286464 -0.0428853 -0.04291126 -0.04294219 -0.042978 -0.04301905
 -0.0430657 -0.0431181 -0.04317686 -0.04324057 -0.04330895 -0.04337994 -0.04345284 -0.04352621 -0.04359975 -0.04367187
 -0.04374237 -0.04380975 -0.04387385 -0.04393403 -0.04399026 -0.04404201 -0.04408923 -0.04413093 -0.04416749 -0.04419994
 -0.04422943 -0.04426021 -0.04429287 -0.04433106 -0.04437382 -0.04442144 -0.04447251 -0.04452568 -0.04458009 -0.04463501
 -0.04468917 -0.04474212 -0.04479184 -0.04483764 -0.04487803 -0.04491242 -0.04494101 -0.04496351 -0.04498258 -0.04499831
 -0.0450152 -0.04503349 -0.04505637 -0.04508361 -0.04511423 -0.04514768 -0.04518059 -0.04521276 -0.04524165 -0.04526745
 -0.04528895 -0.04530725 -0.0453227 -0.04533829 -0.04535703 -0.04538145 -0.04541535 -0.04545612 -0.04550473 -0.04555355
 -0.04560053 -0.04563908 -0.04566672 -0.04568396 -0.04568987 -0.04569167 -0.04568972 -0.04569303 -0.04570198 -0.04571956
 -0.04574502 -0.04577176 -0.04579877 -0.04581652 -0.04582665 -0.04582838 -0.04582604 -0.04582888 -0.04583911 -0.04586587
 -0.04590404 -0.04595323 -0.04600387 -0.04604854 -0.04608263 -0.04610018 -0.04610684 -0.04610208 -0.04609647 -0.0460923
 -0.04609626 -0.04610998 -0.0461339 -0.04616847 -0.04620873 -0.04625437 -0.04629601 -0.0463332 -0.04635736 -0.04636947
 -0.04636974 -0.04636059 -0.04635039 -0.04633997 -0.04633608 -0.04633639 -0.04634046 -0.04634561 -0.04634831 -0.04634853
 -0.0463448 -0.04633874 -0.04633053 -0.04632251 -0.04631531 -0.04631137 -0.04631146 -0.04631625 -0.04632632 -0.04633855
 -0.04635287 -0.04636416 -0.04637218 -0.04637455 -0.04637174 -0.04636747 -0.04636295 -0.04636642 -0.04637873 -0.04640705
 -0.04645136 -0.04651476 -0.04659778 -0.0467015 -0.04682939 -0.04698429 -0.04717265 -0.04739941 -0.04767086 -0.04799123
 -0.04836433 -0.04879252 -0.0492765 -0.04981745 -0.05041198 -0.05106114 -0.05175102 -0.05248153 -0.05322532 -0.05398077
 -0.05471011 -0.05541033 -0.05603874 -0.05658858 -0.05700438 -0.05727448 -0.05732899 -0.05716547 -0.05672795 -0.0560623
 -0.05519584 -0.054222 -0.05325096 -0.05234489 -0.05159011 -0.05099167 -0.05057563 -0.05032557 -0.05024423 -0.05030329
 -0.05050469 -0.05078218 -0.05113257 -0.05145421 -0.05173693 -0.05192445 -0.0520139 -0.05202094 -0.05194832 -0.05183049
 -0.05167122 -0.05150806 -0.05134399 -0.05121213 -0.05110567 -0.0510287 -0.05096591 -0.05089509 -0.0508059 -0.05067738
 -0.05050937 -0.05029364 -0.05003808 -0.04974167 -0.04942259 -0.04908453 -0.04875121 -0.04842873 -0.04813257 -0.04786707
 -0.04763069 -0.04742432 -0.04723454 -0.04706067 -0.04689128 -0.04672678 -0.04656896 -0.04641911 -0.04628607 -0.04616892
 -0.04606984 -0.04598585 -0.04591091 -0.04584354 -0.04577849 -0.04571609 -0.04565519 -0.04559509 -0.04553517 -0.0454741
 -0.04541028 -0.0453459 -0.04528088 -0.04521932 -0.04516244 -0.04511143 -0.045067 -0.04502661 -0.04499012 -0.04495462
 -0.04491995 -0.04488456 -0.04484857 -0.04481266 -0.04477751 -0.04474742 -0.04472303 -0.04470953 -0.04470566 -0.044712
 -0.0447248 -0.04473859 -0.04474999 -0.04475238 -0.04474635 -0.04472928 -0.04470588 -0.04467775 -0.04464912 -0.04462249
 -0.04459735 -0.04457441 -0.04455024 -0.04452432 -0.04449509 -0.04446239 -0.04442517 -0.04438339 -0.04433445 -0.04427846
 -0.04421568 -0.04414741 -0.04408158 -0.04401929 -0.04396971 -0.04393072 -0.04390253 -0.0438814 -0.04386055 -0.04383984
 -0.04381555 -0.0437915 -0.04376996 -0.04375211 -0.04374051 -0.04373028 -0.04372075 -0.04370563 -0.04368274 -0.04365112
 -0.04360967 -0.04356348 -0.04351271 -0.04346464 -0.04341967 -0.0433824 -0.04335271 -0.04333017 -0.04331394 -0.04329884
 -0.04328403 -0.04326349 -0.04323758 -0.04320354 -0.04316358 -0.04311974 -0.0430748 -0.04303297 -0.04299523 -0.04296421
 -0.04293834 -0.0429178 -0.04289995 -0.04288393 -0.04286766 -0.04285039 -0.04283157 -0.04281074 -0.04278987 -0.04276895
 -0.04275196 -0.04273913 -0.04273291 -0.04273302 -0.04273651 -0.04274258 -0.04274469 -0.04274292 -0.04273356 -0.04271817
 -0.04269847 -0.04267617 -0.04265514 -0.0426357 -0.0426199 -0.04260684 -0.04259643 -0.04258798 -0.04258101 -0.0425754
 -0.04257108 -0.04256768 -0.04256545 -0.04256221 -0.04255784 -0.04254891 -0.04253493 -0.04251537 -0.04249014 -0.04246374
 -0.04243646 -0.04241351 -0.04239458 -0.04238027 -0.04236995 -0.04236144 -0.04235473 -0.04234881 -0.04234362 -0.04233894
 -0.04233386 -0.04232711 -0.04231843 -0.04230697 -0.04229352 -0.04227855 -0.04226159 -0.04224276 -0.04222076 -0.04219469
 -0.04216715 -0.04213782 -0.04211375 -0.04209566 -0.04208806 -0.0420913 -0.04210125 -0.04211738 -0.04213072 -0.04214123
 -0.04214367 -0.0421394 -0.04213079 -0.0421189 -0.04210818 -0.04209732 -0.04208624 -0.04207313 -0.04205465 -0.04203315
 -0.04200825 -0.04198608 -0.04197032 -0.04196368 -0.04196953 -0.04198211 -0.04200144 -0.0420181 -0.0420303 -0.04203352
 -0.04202669 -0.04201285 -0.04199209 -0.04196999 -0.04194668 -0.04192495 -0.04190476 -0.04188701 -0.04187228 -0.04186339
 -0.04186059 -0.04186675 -0.04187965 -0.04189721 -0.04191624 -0.04193149 -0.04194301 -0.04194843 -0.0419508 -0.0419515
 -0.04195167 -0.04195248 -0.04195238 -0.04195103 -0.04194813 -0.04194344 -0.04193804 -0.04193204 -0.04192581 -0.04191941
 -0.04191399 -0.0419097 -0.04190912 -0.04191206 -0.04191884 -0.04192845 -0.04193699 -0.04194415 -0.04194662 -0.04194601
 -0.04194345 -0.04194074 -0.04194107 -0.04194354 -0.04194899 -0.0419546 -0.04195849 -0.04196054 -0.04195948 -0.04195923
 -0.04196063 -0.04196648 -0.04197791 -0.04199256 -0.04201039 -0.04202835 -0.04204619 -0.04206572 -0.04208707 -0.0421128
 -0.04214234 -0.04217299 -0.04220407 -0.04223103 -0.04225487 -0.04227573 -0.04229518 -0.04231652 -0.04233932 -0.04236473
 -0.04239084 -0.04241636 -0.04244001 -0.04246032 -0.04247797 -0.04249245 -0.04250652 -0.0425205 -0.04253815 -0.04256045
 -0.042588 -0.0426214 -0.04265546 -0.04268995 -0.04271796 -0.04273952 -0.04275402 -0.04276251 -0.042772 -0.04278316
 -0.04280302 -0.04282996 -0.04286402 -0.04290213 -0.04293853 -0.04297208 -0.04299815 -0.04301957 -0.04303668 -0.04305367
 -0.04307335 -0.04309724 -0.04312729 -0.04316094 -0.0431982 -0.04323499 -0.04327047 -0.04330269 -0.04333113 -0.04335723
 -0.04338105 -0.04340473 -0.04342821 -0.04345042 -0.0434709 -0.04348578 -0.0434951 -0.04349652 -0.04349128 -0.04348103
 -0.0434678 -0.04345587 -0.04344697 -0.04344497 -0.04345066 -0.04346645 -0.04349098 -0.04352494 -0.04356402 -0.0436073
 -0.04364888 -0.04368695 -0.04371789 -0.04374022 -0.04375613 -0.04376546 -0.04377349 -0.0437806 -0.04378797 -0.04379545
 -0.04379952 -0.04380011 -0.0437949 -0.04378438 -0.04376959 -0.04375043 -0.04372717 -0.04369964 -0.04366659 -0.04363085
 -0.04359429 -0.04356277 -0.04354217 -0.04353573 -0.04354878 -0.04357593 -0.04361796 -0.04366264 -0.04370693 -0.04374141
 -0.04376305 -0.04377257 -0.04376928 -0.04375977 -0.04374445 -0.04372673 -0.04370666 -0.04368439 -0.04366027 -0.04363693
 -0.04361487 -0.04359821 -0.04358592 -0.04357754 -0.04357151 -0.04356386 -0.04355612 -0.04354776 -0.04354301 -0.04354593
 -0.04355763 -0.04358188 -0.0436114 -0.0436454 -0.04367237 -0.04368829 -0.04368922 -0.04367246 -0.04364629 -0.04361096
 -0.04357755 -0.04354692 -0.04352209 -0.04350295 -0.04348607 -0.0434716 -0.04345902 -0.0434491 -0.04344535 -0.04344738
 -0.04345649 -0.04347082 -0.04348791 -0.04350515 -0.04351875 -0.04352539 -0.04352056 -0.04350324 -0.04346969 -0.0434268
 -0.043375 -0.0433263 -0.04328446 -0.04325605 -0.04324408 -0.04324364 -0.04325523 -0.04326618 -0.04327569 -0.04327332
 -0.04325901 -0.04323329 -0.04319734 -0.04316051 -0.04312323 -0.04309273 -0.04306754 -0.04304739 -0.04303078 -0.04301447
 -0.04299827 -0.04298072 -0.04296174 -0.04294072 -0.04291783 -0.04289296 -0.04286649 -0.04283895 -0.04280888 -0.04277605
 -0.04273875 -0.04269591 -0.04265144 -0.04260522 -0.04256536 -0.04253246 -0.04251045 -0.04249933 -0.04249715 -0.04250364
 -0.04251618 -0.04253421 -0.04255467 -0.04257569 -0.04259086 -0.04259804 -0.04258958 -0.04256623 -0.04252472 -0.04246986
 -0.04240422 -0.04233364 -0.04226261 -0.04219434 -0.04213158 -0.0420742 -0.04202259 -0.04197662 -0.041936 -0.04190319
 -0.04187866 -0.04186214 -0.0418538 -0.04184802 -0.04184458 -0.04184017 -0.04183495 -0.04182971 -0.0418232 -0.04181071
 -0.04179028 -0.04175225 -0.04169954 -0.04163245 -0.04155623 -0.04147915 -0.04140126 -0.04132518 -0.0412509 -0.04117763
 -0.04111075 -0.04105255 -0.04100623 -0.04097485 -0.04095133 -0.04093559 -0.04091664 -0.04089304 -0.04085833 -0.04081183
 -0.04075263 -0.04068098 -0.04060363 -0.0405218 -0.04044876 -0.04038452 -0.0403372 -0.04030375 -0.04028057 -0.04026289
 -0.04024008 -0.04020835 -0.0401573 -0.04008807 -0.03999547 -0.03989007 -0.03977614 -0.03966513 -0.0395654 -0.03947379
 -0.03939251 -0.03930961 -0.03922193 -0.03912874 -0.03902865 -0.03893273 -0.03884189 -0.03875905 -0.03868385 -0.03860431
 -0.03851921 -0.03841263 -0.03828517 -0.03812946 -0.03795042 -0.03775825 -0.03755717 -0.03736263 -0.03717004 -0.03698052
 -0.0367863 -0.03657782 -0.03635854 -0.036125 -0.03589156 -0.03566474 -0.03545047 -0.03525429 -0.03506618 -0.0348866
 -0.03469697 -0.0344955 -0.03426347 -0.03399868 -0.03370612 -0.03338708 -0.03308054 -0.03278717 -0.03253172 -0.03230773
 -0.03209827 -0.03189775 -0.031679 -0.03144553 -0.03119064 -0.03092148 -0.03064599 -0.03036684 -0.03008973 -0.02981437
 -0.02954526 -0.02927052 -0.02899197 -0.02867533 -0.02830973 -0.02787512 -0.02735821 -0.02679915 -0.02620014 -0.02560741
 -0.02502616 -0.02444628 -0.02386696 -0.02326203 -0.02263251 -0.02197937 -0.02130097 -0.02059488 -0.01984827 -0.01901994
 -0.01810433 -0.01705888 -0.01591559 -0.01469797 -0.01344302 -0.01220498 -0.01097291 -0.009758862 -0.00853576 -0.007289136
 -0.006020924 -0.004727568 -0.003421725 -0.002115028 -0.0007562811 0.0006491619 0.002250692 0.004061354 0.006152361 0.008519717
 0.01093879 0.01339683 0.0156696 0.01779064 0.01980451 0.02174419 0.02373829 0.02578158 0.02792431 0.03015132
 0.03244516 0.03484372 0.03735104 0.04008371 0.0431199 0.04654281 0.05046054 0.0547036 0.05928245 0.06385044
 0.06832704 0.07254791 0.07646763 0.08013576 0.08354871 0.08683701 0.09001028 0.09329209 0.0967045 0.1005742
 0.1048645 0.1096307 0.1147034 0.1195543 0.1241569 0.1281443 0.1317163 0.1350152 0.1381784 0.14142
 0.1447278 0.1481617 0.1516677 0.1552256 0.1588324 0.1624956 0.1661546 0.1698075 0.173345 0.1767421
 0.1800307 0.18321 0.1863556 0.189467 0.19242 0.1952015 0.197618 0.1996947 0.2014459 0.2029218
 0.2043006 0.2055744 0.2068347 0.2079975 0.2089533 0.209716 0.2102321 0.210616 0.2109438 0.2112496
 0.2115867 0.2118873 0.2121411 0.2122909 0.2123162 0.2122266 0.2120176 0.2117328 0.2113754 0.2109779
 0.210541 0.2100469 0.2094923 0.2088361 0.2080786 0.2071987 0.2061985 0.2050698 0.2038231 0.2024681
 0.2010366 0.1995744 0.1981182 0.1967223 0.1954051 0.1941914 0.1931021 0.1921478 0.1913605 0.1907579
 0.1903347 0.1900989 0.1900019 0.1900372 0.1901778 0.19042 0.1907716 0.1912328 0.1918066 0.1924903
 0.1932618 0.1941163 0.1950184 0.1959644 0.1969229 0.1978955 0.1988679 0.1998487 0.2008438 0.2018617
 0.2029137 0.2040038 0.2051379 0.2063188 0.207549 0.2088298 0.2101621 0.2115457 0.2129818 0.2144646
 0.2159965 0.2175457 0.2191105 0.2206509 0.2221659 0.2236874 0.225224 0.2268883 0.228669 0.2305841
 0.2325799 0.2344821 0.2362778 0.2378404 0.2392166 0.2404391 0.2415004 0.2424217 0.2431379 0.2436006
 0.2437941 0.243697 0.2433144 0.2426593 0.2416596 0.2402949 0.2385463 0.2363809 0.234052 0.2315802
 0.2291168 0.2266666 0.224099 0.2214081 0.2184844 0.2153398 0.2119836 0.2084272 0.2047277 0.2008533
 0.1967826 0.1924327 0.1876245 0.1824337 0.1767599 0.1710429 0.1656047 0.1606265 0.1563751 0.1525232
 0.1490134 0.1455928 0.1421687 0.1387538 0.1353306 0.1320012 0.1287768 0.1256612 0.1226542 0.1196831
 0.1167476 0.1138168 0.1109013 0.1080434 0.1052492 0.1025673 0.09998276 0.09748962 0.09506353 0.09266391
 0.09027731 0.08787879 0.08544946 0.08298402 0.08041552 0.0777115 0.07481543 0.07164767 0.06843349 0.06517734
 0.06226487 0.05978884 0.05768623 0.05597241 0.05434031 0.05277541 0.0511151 0.04936796 0.04757874 0.04576395
 0.04404478 0.0424074 0.04086908 0.03940882 0.03797434 0.03658878 0.03525589 0.03402588 0.03296359 0.0320728
 0.03138669 0.03086322 0.03048764 0.03023493 0.03008808 0.03005829 0.03013894 0.03037741 0.03077288 0.03142146
 0.0323325 0.03357131 0.03513994 0.03687348 0.03875207 0.04048042 0.04206676 0.04340261 0.0445182 0.04546288
 0.04624689 0.04691511 0.0474714 0.0479282 0.04832289 0.04868901 0.04908957 0.04959792 0.05019717 0.05092695
 0.05164543 0.05230407 0.05283691 0.05320493 0.05346879 0.05363056 0.05375683 0.05385523 0.05394758 0.05403517
 0.0541032 0.05415108 0.05416519 0.05415012 0.05412126 0.05409057 0.05410388 0.05417655 0.05436616 0.05468043
 0.05515493 0.0557959 0.0566146 0.05764109 0.05889728 0.06041764 0.06223593 0.06433083 0.06671201 0.0693104
 0.07210381 0.07508675 0.07824255 0.0816857 0.08542614 0.08954815 0.09405579 0.09876147 0.1036428 0.1083563
 0.112908 0.1171553 0.121127 0.1248632 0.1283485 0.1315821 0.1345024 0.1370126 0.1390637 0.1405581
 0.1414936 0.1418325 0.141603 0.1408052 0.1394826 0.1376446 0.1353471 0.1325933 0.1294848 0.1260231
 0.1223972 0.1186222 0.1148744 0.1111639 0.1075157 0.1039245 0.1003218 0.09671336 0.09309323 0.08948559
 0.08597776 0.08257551 0.07934432 0.07625663 0.07329825 0.0704402 0.06764187 0.06489362 0.06217062 0.05948665
 0.0568349 0.05425808 0.05176604 0.04940793 0.04720149 0.0451537 0.04327271 0.04151973 0.03989179 0.03835891
 0.03691926 0.0355945 0.0343877 0.03334823 0.03247359 0.03177767 0.03124752 0.03084598 0.03055959 0.0303393
 0.03017603 0.03003483 0.02990857 0.02977715 0.02963432 0.02947017 0.02927786 0.02905271 0.02878542 0.02847249
 0.02810428 0.02767782 0.02718712 0.02663004 0.02600888 0.02532278 0.02458657 0.023801 0.02298565 0.02214139
 0.0212828 0.02041221 0.01954877 0.01869907 0.0178966 0.01714745 0.01648513 0.01590623 0.01542279 0.01502177
 0.01469452 0.01442561 0.01420129 0.01400787 0.01383502 0.01367302 0.0135164 0.01335911 0.01320005 0.01302888
 0.01284519 0.01263095 0.01238451 0.01209111 0.01174979 0.01135712 0.01091317 0.01041845 0.009873213 0.009277816
 0.008634827 0.007952303 0.007235857 0.006502651 0.005757459 0.005015982 0.004280057 0.003557652 0.002849394 0.002158088
 0.001484233 0.0008288273 0.0001918345 -0.0004268244 -0.001026065 -0.001605846 -0.002164148 -0.002700556 -0.003214267 -0.003704973
 -0.004174676 -0.004623447 -0.005056895 -0.00547546 -0.005887136 -0.006291414 -0.006690374 -0.007080713 -0.007452087 -0.007800016
 -0.008107797 -0.008374413 -0.00858924 -0.008756951 -0.008877152 -0.008959606 -0.009010729 -0.009041844 -0.009061095 -0.00907447
 -0.009087422 -0.009096101 -0.009101035 -0.00909531 -0.009077035 -0.009047601 -0.009006227 -0.008964382 -0.008922658 -0.008894564
 -0.008880395 -0.008887107 -0.008913366 -0.008954739 -0.009008701 -0.009063199 -0.009117246 -0.009161328 -0.009198265 -0.009227654
 -0.009254871 -0.009285261 -0.009325366 -0.009381251 -0.009460298 -0.009567681 -0.009709734 -0.00989065 -0.01011097 -0.01037256
 -0.01066965 -0.01100223 -0.01136078 -0.0117445 -0.01214428 -0.0125595 -0.01298415 -0.01341802 -0.0138577 -0.01430287
 -0.01474974 -0.01519811 -0.01564477 -0.01609078 -0.01653685 -0.01698487 -0.01743864 -0.01789883 -0.0183682 -0.01884543
 -0.0193309 -0.01982143 -0.02031601 -0.0208099 -0.02130164 -0.02178556 -0.02226025 -0.02272047 -0.02316539 -0.02358998
 -0.02399362 -0.02437287 -0.02472743 -0.02505786 -0.02536435 -0.02565015 -0.02591518 -0.02616047 -0.02638559 -0.0265898
 -0.02677196 -0.02692978 -0.02706001 -0.02715606 -0.02721537 -0.02723048 -0.02720567 -0.02714116 -0.02704388 -0.02692075
 -0.0267655 -0.02658086 -0.02634517 -0.02605367 -0.02568834 -0.02524384 -0.02472039 -0.02411624 -0.02344788 -0.02271601
 -0.02194611 -0.02113969 -0.0203243 -0.01950016 -0.01868362 -0.01787126 -0.01705921 -0.01624249 -0.01540543 -0.01454749
 -0.01365846 -0.01274541 -0.01181148 -0.01086713 -0.009922068 -0.008983677 -0.008058678 -0.007151366 -0.006263511 -0.005403202
 -0.004572036 -0.003780302 -0.003031098 -0.002323574 -0.001659273 -0.001020854 -0.0004075306 0.0002050381 0.0008182416 0.001456035
 0.002120269 0.002835038 0.003602214 0.004442466 0.005355849 0.006353593 0.007433338 0.008597525 0.009839656 0.01115595
 0.01253133 0.01395516 0.0154055 0.01686787 0.01832411 0.01976365 0.02117713 0.02256063 0.02390713 0.02521593
 0.02647515 0.02768371 0.02882941 0.02991113 0.03093182 0.03189278 0.03281926 0.03371298 0.0346004 0.03547756
 0.03634323 0.03719104 0.03800013 0.0387752 0.03951159 0.04022497 0.04093439 0.04164777 0.04238144 0.04312842
 0.04388919 0.04465638 0.04542549 0.04619882 0.04697561 0.04776124 0.04855701 0.04936343 0.05018117 0.0510045
 0.05183312 0.05266069 0.05348712 0.05431171 0.05513452 0.05595664 0.05677614 0.05758652 0.05838405 0.05915648
 0.05989905 0.06060043 0.06124948 0.06183113 0.0623268 0.06271588 0.06298426 0.06311564 0.06311112 0.06296495
 0.06269109 0.06228957 0.06178543 0.06118108 0.06050921 0.05977399 0.05899557 0.05817603 0.05730891 0.05639371
 0.05541787 0.05438326 0.0532972 0.0521642 0.05100698 0.04982844 0.04864797 0.04746585 0.04629134 0.04512411
 0.04396621 0.04282065 0.04168885 0.04057935 0.03949852 0.03844924 0.03743879 0.03644813 0.03547635 0.03449263
 0.03349011 0.03245545 0.03138477 0.03028898 0.02916834 0.02803984 0.02690411 0.02577174 0.02464235 0.02351822
 0.02239827 0.0212784 0.02015953 0.01904063 0.01792661 0.01682659 0.0157433 0.01468547 0.01364953 0.01263432
 0.01163951 0.01066243 0.009711078 0.008789377 0.007898278 0.007042337 0.006202802 0.005378606 0.004543471 0.003693778
 0.002816107 0.001908853 0.000978739 2.653033E-05 -0.000930414 -0.001891664 -0.002845681 -0.003793742 -0.004736142 -0.005672299
 -0.006602086 -0.007521152 -0.008420843 -0.009298838 -0.01014779 -0.01096923 -0.0117636 -0.01252746 -0.01326067 -0.01395386
 -0.01460152 -0.01520346 -0.0157554 -0.01627453 -0.01676119 -0.01724317 -0.01772251 -0.01823212 -0.01877421 -0.01938058
 -0.02005234 -0.02080536 -0.02163792 -0.02254405 -0.02352065 -0.02455205 -0.02563464 -0.02675251 -0.02789865 -0.02905429
 -0.03020943 -0.03134289 -0.03244949 -0.0335149 -0.03454508 -0.03553791 -0.036506 -0.03745585 -0.03838981 -0.03931354
 -0.04020813 -0.04107228 -0.04188146 -0.04263138 -0.04331795 -0.04394007 -0.04451216 -0.04503472 -0.04551595 -0.04595531
 -0.04635072 -0.04670341 -0.04701708 -0.04729482 -0.04754778 -0.04777675 -0.04798854 -0.04818267 -0.04836055 -0.04852374
 -0.04867425 -0.04881309 -0.04894225 -0.04905929 -0.04916427 -0.04925251 -0.04932319 -0.04937033 -0.04939256 -0.04938624
 -0.04934978 -0.04929105 -0.04921009 -0.04912516 -0.04903715 -0.04896125 -0.0488977 -0.04885479 -0.04883312 -0.04884
 -0.04887578 -0.04894627 -0.04904895 -0.04918272 -0.04934234 -0.04952198 -0.04971286 -0.04990766 -0.05009115 -0.05025271
 -0.0503782 -0.05045673 -0.05048953 -0.05047277 -0.05042027 -0.05033485 -0.05022251 -0.0500857 -0.0499133 -0.04970485
 -0.04944626 -0.04913733 -0.04877995 -0.04837638 -0.04794643 -0.04749265 -0.0470377 -0.04658105 -0.04613301 -0.04569137
 -0.04525556 -0.04482647 -0.04440417 -0.04399227 -0.04359512 -0.04321226 -0.04284687 -0.04249004 -0.04214062 -0.04178353
 -0.04141412 -0.04102146 -0.0406001 -0.04015968 -0.0396981 -0.03925075 -0.03881979 -0.03844101 -0.0381153 -0.03784372
 -0.03762234 -0.03741707 -0.0372248 -0.0370113 -0.03678045 -0.03652498 -0.03625198 -0.03597349 -0.03569075 -0.03541228
 -0.03513216 -0.03484758 -0.03455397 -0.0342461 -0.03392622 -0.03359392 -0.03325235 -0.03290294 -0.03254504 -0.03217793
 -0.03180568 -0.03142735 -0.03105969 -0.03070362 -0.0303785 -0.03008492 -0.02982642 -0.0296014 -0.02939662 -0.02921119
 -0.02903296 -0.02886447 -0.02870749 -0.0285636 -0.02843945 -0.02832871 -0.02822713 -0.02812359 -0.02800483 -0.02786643
 -0.02769988 -0.02750993 -0.02729624 -0.02706524 -0.02681818 -0.02656249 -0.02629848 -0.02604024 -0.02578949 -0.0255582
 -0.02534805 -0.02515304 -0.02497252 -0.02478551 -0.02459113 -0.02437218 -0.02412998 -0.0238615 -0.0235692 -0.0232593
 -0.02293242 -0.02259317 -0.02224037 -0.02187278 -0.02149376 -0.02110397 -0.02071322 -0.02032992 -0.01995494 -0.01959509
 -0.01923138 -0.01885951 -0.01846335 -0.01803498 -0.01758903 -0.01712422 -0.01667516 -0.0162448 -0.01585146 -0.01549537
 -0.0151606 -0.01484383 -0.01450665 -0.01414784 -0.01373821 -0.01328517 -0.01279442 -0.0122777 -0.01176421 -0.01125575
 -0.01076974 -0.01029706 -0.009833688 -0.009375429 -0.008915901 -0.008461145 -0.008011797 -0.007575382 -0.007153302 -0.006755896
 -0.006384708 -0.006052573 -0.00576275 -0.005511648 -0.005300292 -0.005102268 -0.004916276 -0.004718958 -0.004510998 -0.004290339
 -0.00405864 -0.003823224 -0.003584258 -0.003346203 -0.003108009 -0.002870683 -0.002630396 -0.002383017 -0.002122689 -0.001840932
 -0.001537491 -0.001206702 -0.0008599306 -0.0004978266 -0.0001425155 0.0002006178 0.0005072983 0.0007696407 0.000982973 0.001142325
 0.001277677 0.001390193 0.001521253 0.001672653 0.001861127 0.002085566 0.002340505 0.00262543 0.002935696 0.003270891
 0.00362804 0.004005293 0.004396169 0.004802286 0.005222343 0.005660869 0.006123342 0.006608783 0.007119993 0.00764912
 0.008195093 0.0087442 0.009293785 0.00982466 0.01033123 0.01080654 0.01124615 0.01167228 0.01208585 0.01251578
 0.01296328 0.01343441 0.01392813 0.01443596 0.01495683 0.01548235 0.01600948 0.01652496 0.01702444 0.01749187
 0.01792542 0.01831727 0.01866213 0.0189539 0.01918215 0.01933435 0.01941564 0.01941871 0.01937607 0.01929397
 0.01921006 0.01913441 0.01908637 0.01907118 0.01908877 0.01914036 0.01920941 0.01929512 0.01938247 0.01947376
 0.01958807 0.01972986 0.0199366 0.02020212 0.02052924 0.02090277 0.02129025 0.02168287 0.0220539 0.02239886
 0.02270297 0.02296617 0.02317574 0.0233621 0.0235277 0.0237336 0.02401009 0.02435386 0.02478378 0.02519798
 0.02557956 0.02589684 0.0261421 0.02636583 0.02657033 0.02679512 0.02703959 0.02731164 0.02760642 0.0279056
 0.02819917 0.02844455 0.02863544 0.0287317 0.02874646 0.02867889 0.02855217 0.02839303 0.02820964 0.02801716
 0.02781427 0.02760097 0.02738681 0.02717238 0.02697673 0.02680304 0.02667175 0.0265871 0.02655669 0.02658403
 0.02663199 0.02669826 0.02670161 0.02663877 0.02644383 0.02612244 0.02566802 0.02509377 0.02443611 0.02371256
 0.02297573 0.02224627 0.02157857 0.02098445 0.02049972 0.02011847 0.01985062 0.01967694 0.01959683 0.01956978
 0.01958503 0.0195986 0.01959021 0.0195818 0.01956597 0.01963461 0.01979676 0.02009593 0.02053406 0.02104779
 0.02163205 0.02220709 0.02277423 0.02330077 0.02379012 0.02423266 0.02463894 0.02502159 0.02540499 0.02583449
 0.02632165 0.02690577 0.02755927 0.02828187 0.02902191 0.02975439 0.0304392 0.03105288 0.03159282 0.03204789
 0.03246042 0.03283339 0.03321582 0.0336145 0.03402817 0.03445688 0.03486731 0.03526009 0.03563478 0.03599337
 0.03635203 0.03670147 0.0370168 0.03729154 0.03749043 0.0376328 0.03773189 0.0378103 0.03790354 0.03800758
 0.03813009 0.03826546 0.03840593 0.03857393 0.03877458 0.03903053 0.03935391 0.03972489 0.04014817 0.04055582
 0.04094329 0.04123896 0.04143891 0.04153866 0.04154382 0.04152617 0.04148853 0.04148886 0.04151354 0.04154428
 0.04157067 0.04155431 0.04150509 0.04142297 0.04131592 0.04119838 0.04105771 0.0408919 0.04067997 0.04041163
 0.04006837 0.03963935 0.03912304 0.03851159 0.03783965 0.03711044 0.03636054 0.03559693 0.03479351 0.03394911
 0.03300172 0.03195293 0.03080336 0.02956619 0.02831806 0.02707114 0.02590901 0.02483437 0.02389741 0.02308846
 0.02241983 0.02186499 0.02140287 0.021001 0.02062635 0.02026363 0.01989084 0.01952337 0.01915573 0.01883156
 0.01855937 0.0183776 0.01829969 0.01829948 0.01837997 0.01844906 0.01850167</values></Ydata></AB><ScSm><Ydata ylabel="Single channel"><values byteorder="INTEL" format="FLOAT32" numvalues="1814"> 0.07364318 0.07364735 0.0737298 0.07391233 0.07415839 0.07439242 0.07455026 0.07462074 0.07463005 0.07459415
 0.07452299 0.07447071 0.07452594 0.07472277 0.07498614 0.07518302 0.07522784 0.07515708 0.07510802 0.07518587
 0.07532311 0.07530096 0.07495472 0.07436153 0.07379079 0.07345719 0.07338697 0.07357369 0.07411076 0.07493624
 0.07554437 0.07534528 0.07440551 0.07348639 0.07320099 0.07342568 0.0736514 0.07357375 0.07319028 0.07268367
 0.07247071 0.07309196 0.07468234 0.07652948 0.07732581 0.07599334 0.07245516 0.06788354 0.06426701 0.06334335
 0.06537626 0.06880373 0.07141067 0.0720961 0.07140139 0.07039188 0.06950647 0.06869771 0.06817798 0.06845622
 0.06963757 0.0709545 0.07116781 0.06962778 0.06704478 0.06498232 0.0644325 0.06519656 0.06671925 0.06869336
 0.07021525 0.06930214 0.06483808 0.05904178 0.05648235 0.0597408 0.06666071 0.07245947 0.07398381 0.07148131
 0.06722054 0.06360553 0.06226479 0.06361043 0.06676491 0.07029222 0.07307084 0.07434414 0.07352248 0.07069393
 0.06713258 0.06468415 0.06463114 0.06718835 0.07145613 0.07549811 0.07721914 0.07591306 0.07273434 0.06947522
 0.0673816 0.06715582 0.06913687 0.0729516 0.0774859 0.08152689 0.08425888 0.08535472 0.08504915 0.08398664
 0.08272572 0.08164488 0.08129005 0.08204312 0.08322383 0.08334085 0.08171477 0.07938386 0.07803458 0.07825581
 0.07906705 0.07911471 0.0780464 0.07629509 0.07373823 0.06966415 0.06439923 0.05975342 0.05721186 0.05679807
 0.05814468 0.06107783 0.06435616 0.06559005 0.06385501 0.06136957 0.0612979 0.06437158 0.06850716 0.07134806
 0.07244407 0.07308963 0.07465337 0.07718073 0.07921463 0.07889657 0.07581399 0.07204089 0.07067205 0.07278411
 0.07639681 0.07890265 0.07981461 0.0804878 0.08175556 0.08264516 0.0813957 0.07755137 0.07308851 0.07119358
 0.0734867 0.07839999 0.08231851 0.08226255 0.07789153 0.07157044 0.06652358 0.06460737 0.06580883 0.0694686
 0.07500784 0.08129551 0.08634744 0.08843502 0.08734959 0.08430345 0.08055271 0.07624677 0.07106782 0.06611871
 0.06416979 0.06704056 0.07327011 0.07933193 0.08278609 0.08350185 0.08228981 0.07940323 0.07475071 0.06930624
 0.06557755 0.06567296 0.0687706 0.07156875 0.07173473 0.07003316 0.06865148 0.06846899 0.06871744 0.06863737
 0.06855895 0.06932005 0.07106165 0.072897 0.07376945 0.07341781 0.07242343 0.07152481 0.07095373 0.07028098
 0.06902695 0.06760988 0.06731112 0.06886985 0.07146125 0.07354285 0.07440606 0.07443938 0.07410633 0.07316048
 0.07102408 0.0678789 0.06512995 0.06436828 0.06582646 0.06822579 0.07011506 0.07092108 0.07080898 0.0701569
 0.06930371 0.06843879 0.06764561 0.06712942 0.06717503 0.067734 0.06832926 0.06853297 0.06831433 0.06783001
 0.06712686 0.0661945 0.0651693 0.06434414 0.0639621 0.0640281 0.06434302 0.06468617 0.06489336 0.06481526
 0.06437198 0.06367593 0.06296533 0.06238805 0.06194928 0.06165255 0.06155171 0.0616356 0.06176696 0.06179018
 0.06165394 0.06140091 0.06107812 0.06069832 0.06027589 0.05986817 0.0595645 0.05941875 0.05938321 0.05934328
 0.05924981 0.05917097 0.0591593 0.05912576 0.05893271 0.05857689 0.0581963 0.05791451 0.05774404 0.05762665
 0.05750141 0.05731624 0.05701865 0.05659673 0.05614605 0.05584309 0.05580521 0.05599867 0.05629863 0.05658432
 0.0567622 0.05678207 0.05667631 0.05652803 0.05637434 0.05618417 0.05593656 0.05568075 0.05551491 0.055516
 0.05567244 0.05588205 0.05603381 0.05608454 0.05605502 0.05599571 0.05596732 0.05599827 0.05604094 0.05601689
 0.0559171 0.05581723 0.05578872 0.05582422 0.05585318 0.05581895 0.05574156 0.05569857 0.05573847 0.05583296
 0.0559241 0.05599002 0.05604721 0.0561085 0.05615359 0.05614127 0.05605863 0.05595374 0.05589415 0.05589483
 0.05591825 0.05594256 0.05599026 0.05608258 0.05619616 0.05628105 0.05631169 0.05630891 0.05630746 0.05630975
 0.05628759 0.05622769 0.05615358 0.05609738 0.05606807 0.05605286 0.0560358 0.05600932 0.0559741 0.05593118
 0.05587556 0.05579891 0.05569655 0.05557434 0.05545653 0.05538135 0.05536911 0.05539046 0.055382 0.05530296
 0.05517172 0.05504284 0.05495192 0.0548881 0.05482048 0.05474187 0.05467353 0.05463195 0.05461004 0.05459385
 0.05458056 0.05457482 0.0545844 0.05462816 0.05473156 0.05489743 0.05508734 0.05524854 0.05536097 0.05544833
 0.05554501 0.05566437 0.05579925 0.05594121 0.05609424 0.0562718 0.05647571 0.05667925 0.05684653 0.05697369
 0.05709527 0.05724614 0.05743489 0.05765302 0.05788321 0.05809513 0.05826209 0.05839487 0.05853754 0.05871898
 0.0589239 0.05912084 0.05930302 0.05949021 0.05970133 0.05994055 0.06020655 0.06050183 0.06082712 0.06116965
 0.06149956 0.0617838 0.06201527 0.06223199 0.06249557 0.06283924 0.06323852 0.06363605 0.06399207 0.06431022
 0.06461994 0.06494132 0.06527266 0.06561154 0.06597349 0.06637485 0.06680505 0.06723393 0.06764492 0.06804586
 0.06844918 0.06885625 0.06926273 0.06966867 0.0700807 0.07050721 0.07094769 0.0713854 0.07179771 0.07217774
 0.07254343 0.07292391 0.07333665 0.0737693 0.07417964 0.07452656 0.07481496 0.07510139 0.07543753 0.07581364
 0.07617617 0.07649842 0.07680969 0.07714915 0.07751529 0.07787757 0.07822298 0.078569 0.07893321 0.0793049
 0.07964975 0.07993759 0.08016792 0.08037166 0.08058715 0.08083726 0.08113313 0.08148432 0.08188391 0.08229113
 0.0826534 0.08294716 0.08318371 0.0833867 0.08358293 0.08380142 0.08405653 0.08433662 0.08462019 0.08489087
 0.08513325 0.08534255 0.08554875 0.08580114 0.08611428 0.08645774 0.08681107 0.08719444 0.08762367 0.0880668
 0.08848099 0.08887653 0.08930368 0.08977344 0.09022722 0.09059992 0.09088419 0.09111462 0.09132168 0.09153432
 0.09180185 0.09216734 0.09262021 0.09310425 0.0935717 0.09400984 0.09442084 0.09479904 0.09513259 0.09541451
 0.09564751 0.09584267 0.09601729 0.09619416 0.09639545 0.09662631 0.09686184 0.0970591 0.09718551 0.09722709
 0.0971718 0.0970082 0.09675513 0.09647277 0.09621462 0.09596707 0.09565476 0.09520768 0.09460972 0.09388502
 0.09306152 0.09216231 0.0912234 0.0903069 0.08949149 0.08884836 0.08842562 0.08825561 0.0883642 0.08874987
 0.08934698 0.09002654 0.09064445 0.09108227 0.09124997 0.09108807 0.09059735 0.08985683 0.08899132 0.08811694
 0.08730988 0.08659831 0.08596735 0.08539395 0.08490682 0.08461334 0.08465843 0.08516128 0.08618685 0.08773918
 0.08973654 0.09199059 0.09425122 0.09631228 0.09808901 0.09960198 0.1009101 0.1020734 0.1031493 0.1041785
 0.1051606 0.1060672 0.1068804 0.1076041 0.1082408 0.1087794 0.1092074 0.10952 0.1097238 0.109845
 0.1099277 0.110012 0.110119 0.1102589 0.110438 0.1106433 0.1108286 0.1109265 0.1108807 0.1106707
 0.1103279 0.1099548 0.109749 0.1099867 0.1109154 0.1125963 0.1148318 0.1172641 0.1195631 0.121543
 0.1231554 0.1244333 0.1254519 0.1262993 0.1270474 0.127735 0.1283778 0.1289848 0.1295661 0.1301304
 0.1306807 0.1312183 0.1317499 0.1322852 0.132825 0.1333575 0.1338733 0.1343786 0.1348875 0.1354034
 0.1359157 0.1364124 0.136895 0.1373771 0.1378654 0.1383459 0.1387971 0.1392153 0.13962 0.1400345
 0.1404688 0.1409179 0.141365 0.1417877 0.1421721 0.1425241 0.1428632 0.1432061 0.1435589 0.1439208
 0.1442888 0.1446573 0.1450193 0.1453748 0.1457331 0.1461004 0.1464646 0.1468022 0.1471048 0.1473914
 0.1476897 0.1480088 0.1483349 0.1486503 0.1489549 0.1492686 0.149614 0.1499928 0.1503796 0.1507418
 0.151066 0.151366 0.1516669 0.1519833 0.1523137 0.1526494 0.1529845 0.1533174 0.153649 0.153984
 0.1543282 0.1546806 0.1550305 0.1553654 0.1556818 0.1559877 0.156293 0.1566033 0.1569227 0.1572583
 0.1576133 0.157976 0.1583229 0.1586362 0.1589159 0.1591763 0.1594356 0.1597078 0.1599976 0.1602977
 0.160596 0.1608864 0.1611719 0.1614579 0.1617465 0.1620376 0.1623333 0.1626374 0.16295 0.163263
 0.1635647 0.1638535 0.1641414 0.1644408 0.1647489 0.1650501 0.1653323 0.1655984 0.1658615 0.1661318
 0.1664091 0.1666881 0.1669684 0.1672537 0.1675434 0.1678301 0.1681086 0.1683821 0.1686579 0.1689396
 0.1692244 0.1695074 0.1697854 0.17006 0.1703351 0.1706135 0.1708962 0.171182 0.1714694 0.1717579
 0.1720461 0.1723308 0.1726102 0.1728879 0.1731677 0.1734468 0.1737179 0.1739775 0.1742309 0.1744893
 0.1747618 0.1750455 0.1753263 0.1755916 0.1758392 0.1760744 0.1763047 0.1765406 0.1767921 0.1770615
 0.1773416 0.1776231 0.1778998 0.178171 0.1784403 0.1787089 0.1789729 0.1792316 0.1794908 0.1797563
 0.180027 0.1802977 0.1805632 0.1808203 0.1810697 0.1813146 0.1815547 0.1817903 0.1820261 0.1822664
 0.1825084 0.1827498 0.1829947 0.1832459 0.1834995 0.1837507 0.1839976 0.1842405 0.1844845 0.1847364
 0.1849979 0.1852653 0.185536 0.1858066 0.1860707 0.1863268 0.1865801 0.1868344 0.1870895 0.1873476
 0.1876092 0.1878694 0.1881261 0.1883827 0.1886391 0.1888916 0.1891421 0.1893961 0.1896548 0.1899173
 0.1901794 0.190432 0.1906711 0.1909066 0.1911483 0.1913925 0.1916336 0.1918761 0.1921261 0.1923854
 0.1926512 0.1929147 0.1931671 0.1934111 0.1936563 0.1939045 0.1941555 0.1944139 0.1946757 0.1949278
 0.1951694 0.1954113 0.1956532 0.1958872 0.1961154 0.1963442 0.1965747 0.1968099 0.1970492 0.1972682
 0.1974106 0.1973507 0.1967846 0.1951116 0.1914173 0.1846532 0.174054 0.1596226 0.1423 0.1236289
 0.1051832 0.08815976 0.07326566 0.06081289 0.05087285 0.04337539 0.03816931 0.03512296 0.03423011 0.03572433
 0.04020704 0.04828944 0.05923323 0.06975099 0.07529079 0.07363294 0.06701443 0.06009133 0.0560728 0.05517511
 0.05601621 0.05742274 0.05903053 0.06106082 0.06387943 0.06758016 0.07197642 0.07705911 0.08321385 0.09072895
 0.09920998 0.1077467 0.1156979 0.1231934 0.1308272 0.1389425 0.1472712 0.1551986 0.1622544 0.1683508
 0.1736855 0.1785203 0.1830338 0.1873072 0.1913791 0.1952428 0.1987611 0.2016331 0.2035391 0.2043836
 0.2044131 0.2040793 0.2037715 0.2036622 0.2037604 0.2040353 0.2044673 0.2050378 0.2057253 0.2065096
 0.2073618 0.2082427 0.2091165 0.2099603 0.2107646 0.2115266 0.2122406 0.2128957 0.2134888 0.2140312
 0.214534 0.214997 0.2154182 0.215804 0.216164 0.2165066 0.2168375 0.2171553 0.2174505 0.2177156
 0.2179528 0.218171 0.2183806 0.2185908 0.2188054 0.2190222 0.21924 0.2194615 0.2196881 0.2199192
 0.2201528 0.2203812 0.2205919 0.2207817 0.2209623 0.2211466 0.2213385 0.2215379 0.2217448 0.2219553
 0.2221638 0.222369 0.2225725 0.2227735 0.2229709 0.2231662 0.2233612 0.2235585 0.2237598 0.2239643
 0.2241725 0.2243919 0.2246276 0.2248678 0.2250944 0.2253063 0.2255181 0.225741 0.2259755 0.2262161
 0.2264488 0.2266535 0.2268211 0.2269676 0.2271255 0.2273207 0.2275524 0.2277965 0.2280314 0.2282552
 0.228476 0.2286947 0.2289038 0.2290947 0.2292718 0.2294656 0.2297143 0.2300154 0.2303229 0.2306025
 0.2308612 0.2311136 0.231361 0.2316071 0.2318543 0.2320785 0.2322484 0.232379 0.2325432 0.2328166
 0.2332062 0.2336345 0.2340065 0.2342934 0.234538 0.2347988 0.2351084 0.2354418 0.23569 0.2357396
 0.2356451 0.2356519 0.2359689 0.2365628 0.2372252 0.2377857 0.23821 0.2385481 0.2388472 0.2391063
 0.2392806 0.2393346 0.2393176 0.2393874 0.2397049 0.2402697 0.2409041 0.2414327 0.2418205 0.242114
 0.2423491 0.2425491 0.2426855 0.2426127 0.2422228 0.2417354 0.2416484 0.2422571 0.2433204 0.2443154
 0.244953 0.2453276 0.2456326 0.2459236 0.2461682 0.2462768 0.2459798 0.2449847 0.2435313 0.2425503
 0.2428917 0.2444676 0.2464006 0.2479038 0.2487802 0.2492272 0.2494918 0.2497081 0.2498031 0.2495023
 0.2486387 0.2475742 0.2471137 0.247762 0.2491504 0.2504258 0.2511191 0.251398 0.2516117 0.2519004
 0.2520982 0.2516957 0.2501351 0.2476336 0.2455902 0.2456005 0.2478969 0.2510675 0.2534526 0.2545692
 0.2549787 0.2550664 0.2544765 0.2527562 0.2500398 0.2469913 0.2445948 0.2440158 0.2458304 0.2490626
 0.2517386 0.2528363 0.25315 0.2539811 0.255582 0.257172 0.2579482 0.2577005 0.2566729 0.2551281
 0.2532233 0.2514128 0.2506947 0.2519061 0.2547049 0.2576931 0.2597111 0.2607151 0.2611637 0.2606642
 0.2577026 0.2514603 0.2440904 0.2401314 0.2424999 0.2494368 0.256398 0.2605274 0.262225 0.2630132
 0.2635011 0.2632059 0.2608329 0.2549919 0.2463785 0.2391286 0.2380187 0.243747 0.2521462 0.2580744
 0.2589241 0.2548977 0.248074 0.2417895 0.2392828 0.2417257 0.247707 0.2546351 0.2602995 0.2634577
 0.263807 0.2618803 0.2590247 0.2570765 0.2570317 0.2575793 0.2560889 0.2519358 0.2475441 0.2448329
 0.2422543 0.237661 0.2329896 0.2329835 0.2390198 0.2468166 0.2512448 0.2515301 0.2503564 0.2489832
 0.2451026 0.2361734 0.2242277 0.2159664 0.2169018 0.2256564 0.2351925 0.2396888 0.2391736 0.2375044
 0.2372042 0.2368846 0.2332301 0.2253213 0.2168279 0.212936 0.214849 0.2186941 0.2201056 0.2177452
 0.2118286 0.2026719 0.1931064 0.1894016 0.1959722 0.2099537 0.2234574 0.2301067 0.2274171 0.2153319
 0.196927 0.1801321 0.1739251 0.1803615 0.1921137 0.1992236 0.1970464 0.1871188 0.1728367 0.1570441
 0.143257 0.136144 0.1387221 0.1492494 0.1614241 0.1676385 0.1631795 0.1497545 0.1355732 0.1294659
 0.1330241 0.1396201 0.1418796 0.1383702 0.1325919 0.1283102 0.1272977 0.129217 0.1320515 0.1339146
 0.1345566 0.1334564 0.1277889 0.1158661 0.1019794 0.09366506 0.0938423 0.09923008 0.1063993 0.1148585
 0.1231756 0.1268605 0.1234117 0.1170693 0.115255 0.1207103 0.1291218 0.1343989 0.1347232 0.1329322
 0.1320773 0.1320924 0.1313547 0.1303411 0.1317802 0.1368789 0.1432084 0.1474064 0.1486898 0.1485859
 0.1483635 0.1480833 0.1474512 0.146365 0.1448608 0.1432105 0.1418422 0.1408429 0.1398773 0.1386942
 0.1371106 0.1342829 0.1288963 0.1210223 0.1133035 0.1089125 0.1082431 0.1090298 0.1097531 0.1106217
 0.1104383 0.1055901 0.09482643 0.08331393 0.07892528 0.08463997 0.09630056 0.1073439 0.113789 0.1145939
 0.109756 0.1006591 0.09197842 0.09024993 0.09847878 0.1132043 0.1282375 0.1400335 0.1480505 0.1517493
 0.1501051 0.1440045 0.137192 0.1341659 0.1374844 0.1465971 0.1579061 0.165557 0.1642903 0.1547479
 0.1460264 0.1489734 0.1646497 0.1824054 0.1918332 0.1933978 0.1941535 0.196765 0.1981951 0.1975922
 0.1994251 0.2073711 0.218861 0.2275521 0.2288496 0.2217116 0.208079 0.1933363 0.1849356 0.1864913
 0.1937904 0.1994635 0.2001786 0.1962857 0.1874526 0.1744217 0.1636392 0.1634267 0.1743508 0.1880237
 0.1966551 0.2001781 0.2027962 0.2057032 0.2056071 0.1996893 0.1902493 0.1832813 0.1824876 0.1859653
 0.1893082 0.1902058 0.1885656 0.1839671 0.1758791 0.1663273 0.1599116 0.1598696 0.1648209 0.1701652
 0.1723146 0.1710277 0.1682177 0.16565 0.1638464 0.1622884 0.1604948 0.1594042 0.1612287 0.1669702
 0.1746055 0.1810587 0.1856866 0.1904726 0.1968569 0.2036496 0.2083628 0.2098512 0.2094108 0.2096939
 0.2125688 0.2175745 0.2222153 0.2240671 0.2230721 0.2218156 0.2231605 0.2275164 0.2327603 0.2366884
 0.2388632 0.2401335 0.2412822 0.2423823 0.2427675 0.2415491 0.2388917 0.2367661 0.2375593 0.2417
 0.2472246 0.2517545 0.254375 0.2555616 0.2559483 0.2556342 0.2545249 0.2529375 0.251615 0.2511653
 0.2516496 0.252735 0.2540666 0.2554241 0.256698 0.2578666 0.2589584 0.2599834 0.2609344 0.2618376
 0.262721 0.2635314 0.2641811 0.2647088 0.2653013 0.2660897 0.2669808 0.2677575 0.2682818 0.268504
 0.2683416 0.2677001 0.2666214 0.2652794 0.2637857 0.2621187 0.26035 0.2588973 0.2584089 0.2592902
 0.2613346 0.263848 0.2661244 0.2677965 0.268836 0.2693798 0.2696105 0.2697049 0.2697883 0.2699022
 0.2700256 0.2701317 0.2702212 0.2703095 0.2704046 0.2705142 0.2706629 0.2708765 0.2711461 0.2714217
 0.271643 0.2717769 0.2718343 0.2718554 0.2718673 0.2718423 0.2717062 0.2713924 0.270891 0.2702536
 0.2695623 0.268888 0.268254 0.2676207 0.2669134 0.2660745 0.2650723 0.2638689 0.2624297 0.2607979
 0.2591116 0.2574944 0.255953 0.2544093 0.2527961 0.2510844 0.2492571 0.247309 0.2452653 0.2431692
 0.2410518 0.2389267 0.2368029 0.2346877 0.2325779 0.2304565 0.228299 0.2260819 0.2237865 0.2213931
 0.2188614 0.2161114 0.2130296 0.2095107 0.2054933 0.2009619 0.1959415 0.1905188 0.1848652 0.1792113
 0.1737744 0.1686952 0.1640383 0.1598471 0.1561875 0.153131 0.150715 0.1489417 0.1478067 0.1473057
 0.1474221 0.1481214 0.1493453 0.1509983 0.1529478 0.1550405 0.1571198 0.1590495 0.1607586 0.1622755
 0.1637032 0.1651449 0.1666422 0.1681793 0.1697308 0.1712836 0.1728129 0.1742743 0.1756476 0.1769656
 0.1782773 0.1795982 0.1809111 0.1821922 0.1834231 0.1845915 0.1856925 0.1867313 0.1877305 0.1887358
 0.1897964 0.1909349 0.1921439 0.1934087 0.194724 0.1960934 0.1975193 0.1989905 0.2004856 0.2019915
 0.2035051 0.2050185 0.2065305 0.2080843 0.2097696 0.2116683 0.2137991 0.216105 0.2184756 0.2207876
 0.2229366 0.2248481 0.2264779 0.2278157 0.2288767 0.2296813 0.2302484 0.2306097 0.2308164 0.2309353
 0.2310457 0.2312206 0.2314924 0.2318448 0.2322415 0.2326522 0.2330519 0.2334197 0.2337462 0.2340371
 0.2343016 0.2345333 0.234704 0.2347836 0.2347673 0.2346687 0.2344932 0.2342377 0.2339096 0.2335234
 0.2330826 0.2325782 0.2319947 0.2313086 0.2304958 0.2295443 0.2284495 0.2272039 0.2258084 0.2242864
 0.2226771 0.2210217 0.2193513 0.217676 0.2159809 0.2142357 0.2123934 0.2103932 0.2082048 0.2058819
 0.2035441 0.2012922 0.1991556 0.1971097 0.1951242 0.1931895 0.1913176 0.1895226 0.1878082 0.1861724
 0.1846142 0.1831268 0.1816975 0.1803219 0.1790137 0.1778029 0.1767257 0.1758002 0.1750048 0.1742951
 0.1736451 0.1730591 0.1725556 0.1721569 0.171875 0.1716831 0.1715081 0.1712722 0.1709424 0.1705425
 0.1701317 0.1697673 0.1694756 0.1692538 0.1690871 0.1689385 0.1687247 0.1683261 0.1676283 0.1665586
 0.1651053 0.1633231 0.161315 0.1592058 0.1571271 0.1551992 0.1535047 0.1520833 0.1509409 0.1500385
 0.149291 0.1486214 0.1480245 0.1475654 0.1473122 0.147255 0.1472703 0.1471948 0.1469765 0.1467357
 0.1466506 0.1468077 0.1471716 0.1476409 0.1481028 0.1484709 0.1487039 0.1487943 0.1487567 0.1486263
 0.1484398 0.1482098 0.1479321 0.1476015 0.1472098 0.1467521 0.1462379 0.1456669 0.1450112 0.1442494
 0.1433908 0.1424484 0.1414272 0.1403375 0.1391697 0.1378894 0.1365362 0.1353021 0.1344464 0.1341369
 0.1343668 0.1349685 0.1357239 0.1365021 0.1372369 0.1377544 0.1378186 0.1375063 0.1373946 0.1381395
 0.1398407 0.1419313 0.1436865 0.1447349 0.145086 0.144862 0.144161 0.1430652 0.141598 0.139705
 0.1373764 0.1347144 0.1318363 0.1288519 0.1259477 0.1233323 0.121102 0.1192545 0.1177665 0.1166785
 0.116132 0.1157851 0.1138506 0.1080383 0.09907959 0.09231395 0.09321843 0.1012585 0.110237 0.1148374
 0.1148708 0.1131415 0.111617 0.1106266 0.1100916 0.1101426 0.1108843 0.1121689 0.1136126 0.1148078
 0.1155711 0.1159238 0.1158313 0.1149968 0.1127974 0.1084714 0.1017304 0.09334588 0.08490595 0.0778725
 0.07291509 0.0699392 0.06840628 0.06764404 0.06716402 0.06688079 0.06704301 0.06793611 0.06963839 0.07202767
 0.0749193 0.07806823 0.08108069 0.08354917 0.08535561 0.08669485 0.08775593 0.08851613 0.08885672 0.08873492
 0.08821595 0.08743522 0.0865472 0.08564827 0.08472151 0.08367757 0.0824948 0.08133802 0.08047634 0.08003441
 0.079887 0.07982984 0.07976069 0.07966799 0.07956052 0.07945436 0.07936554 0.07932015 0.07939684 0.07968052
 0.08013099 0.08058012 0.08089134 0.08106673 0.08119737 0.08132925 0.08135602 0.08110948 0.08064434 0.08028966
 0.08022099 0.08013125 0.07960388 0.07872361 0.0780397 0.07795061 0.07834226 0.07881564 0.07907049 0.07904457
 0.07887321 0.0788282 0.07915609 0.07979702</values></Ydata></ScSm><ScRf><Ydata ylabel="Single channel"><values byteorder="INTEL" format="FLOAT32" numvalues="1820"> 0.06066835 0.06083209 0.06093521 0.06097714 0.06098207 0.06099356 0.06105863 0.06120069 0.06140003 0.06159978
 0.06174276 0.06181032 0.06181819 0.06178021 0.06170782 0.06164748 0.06167425 0.06182068 0.06202856 0.06218666
 0.06221884 0.06215201 0.06210242 0.06216234 0.06227744 0.06226333 0.06198097 0.0614951 0.06102869 0.06075437
 0.06068889 0.06083004 0.06126482 0.06194848 0.06246028 0.06230451 0.06152958 0.06076333 0.06051587 0.0606906
 0.06087066 0.06080332 0.06048132 0.06005304 0.05986802 0.06038181 0.06170867 0.06325169 0.06391664 0.06280266
 0.05984658 0.05602953 0.05301447 0.05225277 0.05396095 0.05682844 0.05900105 0.05956124 0.05897059 0.05812953
 0.05740628 0.05674938 0.05632042 0.05653904 0.05750116 0.0585771 0.05873795 0.05744335 0.05528747 0.0535723
 0.0531175 0.05375061 0.05500975 0.05664536 0.05791098 0.05715947 0.05346359 0.04866825 0.04656905 0.04930318
 0.05506669 0.05987693 0.06111672 0.05900643 0.05544817 0.05244732 0.0513505 0.05248551 0.05511381 0.05804393
 0.0603487 0.06139882 0.06070317 0.05834021 0.05537664 0.05334834 0.05331597 0.0554494 0.05899335 0.06233884
 0.06375553 0.06266855 0.06003851 0.05734732 0.05562587 0.05545888 0.05712668 0.06031219 0.06408471 0.06744033
 0.06970876 0.07061943 0.0703637 0.06947793 0.06843349 0.06754883 0.06727281 0.06791425 0.06890237 0.0689981
 0.06764261 0.06570533 0.06458888 0.06477897 0.06545912 0.06550612 0.06462739 0.06317961 0.06105608 0.05766136
 0.05326845 0.04939106 0.04727393 0.04694033 0.04808422 0.05055944 0.05332715 0.0543871 0.05295951 0.05088964
 0.05081911 0.05336718 0.05680418 0.0591673 0.06008492 0.06064551 0.06199313 0.06415166 0.06588525 0.0656344
 0.063062 0.05991405 0.05878704 0.06058399 0.0636472 0.06579372 0.06661347 0.06723433 0.06834769 0.06913739
 0.0681304 0.06495184 0.06127197 0.05977134 0.06179833 0.06601524 0.06937279 0.06936683 0.06572162 0.06044718
 0.05627482 0.05476862 0.05591657 0.05918071 0.06409226 0.0696845 0.07424058 0.07625797 0.0755377 0.07310653
 0.07003877 0.06645782 0.06209196 0.05793114 0.05643871 0.05923001 0.0650112 0.07065634 0.07399799 0.07491139
 0.07410102 0.07176392 0.06779479 0.06308971 0.05997338 0.06039084 0.06356192 0.06642364 0.06683752 0.06554069
 0.06456956 0.06472532 0.06527624 0.06551925 0.06579016 0.06689154 0.06893641 0.07105112 0.07221747 0.07219505
 0.07155687 0.07102782 0.07082853 0.07051434 0.06960119 0.06853395 0.06863175 0.07064111 0.07370471 0.07623957
 0.07752456 0.07796408 0.07802565 0.07742064 0.07551841 0.07252472 0.06997254 0.06958859 0.07162307 0.0746848
 0.0771853 0.078486 0.07876596 0.07844977 0.07791367 0.07736124 0.07688706 0.07673651 0.07724505 0.0783563
 0.07951041 0.08020183 0.08039168 0.08025947 0.07984867 0.07914209 0.0783167 0.07774023 0.07770721 0.07822028
 0.07904097 0.07990246 0.0805987 0.08093819 0.08081267 0.08035313 0.07985637 0.07951231 0.07933021 0.0793229
 0.0795754 0.0800779 0.08063976 0.08104938 0.08124398 0.08128183 0.08122181 0.0810819 0.08088115 0.08068652
 0.08061126 0.08073696 0.08101533 0.08129869 0.08151119 0.08172468 0.08200018 0.08223271 0.08225808 0.08207333
 0.08185296 0.08175968 0.08181238 0.08192986 0.08202527 0.08202331 0.08184665 0.08148143 0.08107437 0.08088186
 0.08106567 0.08157493 0.08223522 0.08287461 0.0833562 0.08360612 0.08366641 0.08364925 0.08360574 0.0834931
 0.08328269 0.08305424 0.08296728 0.08314268 0.08355567 0.08404557 0.08444381 0.08468054 0.08478153 0.08482753
 0.08492192 0.08511026 0.08530544 0.08536758 0.08528174 0.0851896 0.08522214 0.0853534 0.08544573 0.08541352
 0.08531928 0.08530609 0.08544674 0.08568029 0.08589792 0.08606184 0.08622172 0.08642476 0.08662535 0.08670421
 0.0865986 0.0863931 0.08623673 0.08618563 0.0861898 0.08622272 0.08633535 0.08655372 0.08679312 0.08693019
 0.08693843 0.08690909 0.08693554 0.08700517 0.0870221 0.08692116 0.08673725 0.08656886 0.08649651 0.08653452
 0.0866343 0.08671914 0.08672939 0.08665529 0.08653463 0.08641633 0.08632654 0.08627668 0.08629842 0.08643688
 0.08667986 0.0869091 0.08696738 0.08679934 0.08651565 0.08629814 0.08623574 0.08625737 0.08622213 0.08605888
 0.08581008 0.08556193 0.08536404 0.08521539 0.08509585 0.08499558 0.0849326 0.08495116 0.08507679 0.08525157
 0.08534089 0.08524467 0.08499715 0.08473144 0.08455734 0.08449484 0.08449948 0.08451365 0.08451128 0.08452085
 0.08458313 0.08467112 0.08469549 0.08461352 0.0844899 0.08442941 0.08449093 0.08466971 0.08490156 0.08507174
 0.08508686 0.08496977 0.08484401 0.08480882 0.08486294 0.08495283 0.08504719 0.08514282 0.08523551 0.08532243
 0.08542602 0.0855866 0.08582164 0.08609836 0.0863506 0.08652532 0.08662394 0.08670774 0.08685675 0.08710934
 0.0874336 0.08775475 0.08801307 0.08820544 0.08837551 0.08856072 0.08875769 0.08895218 0.0891654 0.08943611
 0.08976275 0.0900989 0.09040798 0.09069268 0.0909708 0.09125015 0.09153505 0.09184276 0.09220391 0.09263419
 0.09309295 0.09348474 0.09373396 0.09386113 0.093971 0.09417057 0.09449856 0.09489918 0.09524746 0.09544233
 0.0955106 0.09558982 0.09577914 0.09604031 0.09628211 0.09650451 0.0968006 0.09722177 0.0976928 0.09807977
 0.09831902 0.0984643 0.09861635 0.09881726 0.09901856 0.09915437 0.09923055 0.09931563 0.0994513 0.09961993
 0.09981494 0.1000872 0.1004745 0.1009198 0.1013115 0.1015884 0.1017696 0.1019021 0.1020161 0.1021151
 0.1021807 0.1022025 0.1022158 0.1022781 0.1023924 0.1024936 0.1025356 0.1025534 0.1026165 0.1027572
 0.1029723 0.1032552 0.1035822 0.1038944 0.1041496 0.104389 0.1046975 0.105078 0.1054141 0.1055951
 0.1056401 0.1056543 0.1056953 0.1057497 0.1058207 0.1059611 0.1062041 0.1065182 0.1068502 0.1071809
 0.1075191 0.1078653 0.1081894 0.1084381 0.1085656 0.1085739 0.1085262 0.1085165 0.1086199 0.1088565
 0.1091846 0.1095291 0.1098274 0.1100458 0.1101601 0.1101558 0.1100747 0.110029 0.1101154 0.1103096
 0.1104765 0.1104863 0.1102969 0.1099291 0.1094095 0.108768 0.1080675 0.1074006 0.1068469 0.106444
 0.1062064 0.1061642 0.1063662 0.1068251 0.1074684 0.1081664 0.1088097 0.1093297 0.1096477 0.1096634
 0.1093308 0.1087213 0.1079801 0.1072347 0.1065545 0.1059539 0.1054004 0.1048546 0.1043496 0.1040282
 0.1040785 0.1046238 0.1056596 0.1070551 0.1085942 0.1100495 0.1112731 0.1122472 0.1130499 0.1137689
 0.1144486 0.1151082 0.1157716 0.1164462 0.11709 0.1176433 0.1180959 0.1184946 0.1188848 0.1192692
 0.1196201 0.1199107 0.1201407 0.1203447 0.1205552 0.1207481 0.1208524 0.1208319 0.1207293 0.1206115
 0.1204959 0.1203437 0.1201024 0.1197454 0.1193046 0.1188954 0.1187031 0.1189078 0.1195809 0.1206392
 0.121907 0.123229 0.1245137 0.1256825 0.1266364 0.1273111 0.1277413 0.1280346 0.1282917 0.1285636
 0.1288628 0.129181 0.1294982 0.129795 0.1300672 0.1303331 0.1306251 0.130961 0.1313169 0.1316392
 0.131897 0.1321224 0.1323866 0.1327323 0.133131 0.1335111 0.1338344 0.1341296 0.1344379 0.134744
 0.1349936 0.1351729 0.1353334 0.1355397 0.1358221 0.1361739 0.1365544 0.1368969 0.1371513 0.1373304
 0.1374935 0.1376843 0.1379036 0.1381341 0.1383678 0.1386034 0.1388418 0.1390941 0.1393816 0.1397086
 0.1400342 0.1402922 0.1404538 0.1405631 0.1406966 0.1408919 0.141124 0.141347 0.1415485 0.141762
 0.1420304 0.1423535 0.1426754 0.1429302 0.1430986 0.1432171 0.1433392 0.1434954 0.1436868 0.1439001
 0.1441195 0.1443315 0.1445304 0.1447233 0.1449258 0.1451458 0.1453735 0.1455927 0.145798 0.1459983
 0.1462041 0.1464181 0.1466422 0.1468888 0.147173 0.147486 0.1477843 0.1480207 0.1481842 0.148303
 0.1484149 0.1485441 0.1486984 0.1488745 0.1490642 0.1492618 0.1494661 0.1496737 0.1498777 0.1500754
 0.1502722 0.1504757 0.150689 0.1509094 0.1511324 0.1513579 0.1515887 0.1518227 0.152048 0.1522524
 0.152437 0.1526182 0.1528139 0.1530246 0.153231 0.1534148 0.1535794 0.1537461 0.1539319 0.1541378
 0.1543527 0.1545624 0.1547571 0.154939 0.1551202 0.1553094 0.1555055 0.1557023 0.1558957 0.1560863
 0.1562788 0.1564762 0.1566758 0.1568725 0.1570679 0.1572692 0.1574809 0.1577015 0.1579247 0.1581407
 0.1583402 0.1585225 0.1586996 0.1588859 0.1590849 0.1592867 0.1594804 0.1596664 0.1598521 0.1600411
 0.1602328 0.1604289 0.1606317 0.1608399 0.161052 0.1612708 0.1614972 0.161726 0.1619507 0.1621675
 0.1623753 0.1625754 0.1627731 0.1629742 0.163182 0.1633974 0.1636187 0.1638404 0.1640569 0.1642646
 0.164461 0.1646461 0.1648236 0.1649966 0.165165 0.1653298 0.1654976 0.1656733 0.1658556 0.1660412
 0.1662291 0.1664208 0.1666186 0.1668224 0.1670281 0.1672327 0.1674371 0.1676406 0.1678402 0.1680381
 0.1682417 0.1684542 0.1686719 0.1688906 0.1691063 0.1693163 0.1695233 0.1697344 0.1699507 0.1701665
 0.170376 0.170577 0.1707733 0.1709758 0.1711922 0.1714149 0.1716305 0.1718354 0.1720346 0.1722344
 0.1724423 0.1726611 0.1728804 0.1730883 0.1732888 0.1734947 0.1737109 0.1739338 0.1741558 0.1743674
 0.1745667 0.1747649 0.1749718 0.1751873 0.1754096 0.1756349 0.1758533 0.1760599 0.1762637 0.1764731
 0.1766866 0.1769029 0.1771172 0.1773062 0.1774235 0.1773636 0.1768563 0.1753556 0.1720272 0.1659191
 0.1563428 0.1433055 0.1276567 0.1107863 0.09411524 0.07872805 0.06526745 0.05401734 0.04504238 0.03827668
 0.03357849 0.03082221 0.02999875 0.03132202 0.03534331 0.04262337 0.05250223 0.06201476 0.06704717 0.06558397
 0.05963302 0.05339274 0.04976261 0.04894577 0.04970543 0.05098724 0.05245254 0.05428404 0.056807 0.06011954
 0.06407245 0.06866776 0.07425243 0.08107901 0.08878253 0.09653416 0.1037534 0.1105613 0.1174984 0.1248702
 0.1324263 0.1396095 0.1460021 0.1515307 0.1563744 0.1607704 0.164882 0.1687795 0.1724911 0.176008
 0.1792091 0.1818268 0.1835747 0.184365 0.1844123 0.1841167 0.1838304 0.1837217 0.1838116 0.1840757
 0.1844887 0.1850249 0.1856647 0.1863944 0.1871912 0.1880216 0.1888569 0.1896752 0.1904547 0.1911789
 0.1918445 0.1924543 0.1930112 0.1935188 0.1939831 0.1944115 0.1948138 0.1951987 0.1955675 0.1959159
 0.1962418 0.1965448 0.1968253 0.1970866 0.1973346 0.1975711 0.1977959 0.1980117 0.1982234 0.198434
 0.1986469 0.1988658 0.199089 0.1993094 0.1995218 0.1997243 0.1999163 0.2001004 0.2002831 0.2004681
 0.2006549 0.2008442 0.2010375 0.201232 0.2014234 0.2016142 0.2018116 0.2020158 0.2022187 0.2024132
 0.2026003 0.2027858 0.2029733 0.2031632 0.2033591 0.2035692 0.2037972 0.204033 0.2042625 0.2044801
 0.2046876 0.2048875 0.2050871 0.205296 0.2055097 0.2057053 0.2058673 0.2060114 0.2061731 0.2063721
 0.2065939 0.2068086 0.2070051 0.2071987 0.2074056 0.2076224 0.2078333 0.2080254 0.2082002 0.2083803
 0.2085964 0.2088527 0.2091194 0.2093695 0.2096039 0.2098326 0.2100588 0.2102867 0.2105167 0.210726
 0.2108841 0.2110004 0.2111412 0.2113824 0.2117358 0.2121272 0.2124636 0.2127188 0.2129379 0.2131753
 0.213454 0.2137456 0.2139543 0.213982 0.2138758 0.2138546 0.2141132 0.2146285 0.2152104 0.2156976
 0.2160578 0.2163407 0.2165933 0.2168143 0.2169579 0.2169845 0.2169375 0.2169687 0.2172353 0.2177376
 0.2183015 0.2187562 0.2190719 0.219304 0.2194938 0.2196584 0.2197612 0.219665 0.2192761 0.2188011
 0.2186947 0.2192221 0.2201614 0.2210418 0.2216085 0.2219507 0.2222386 0.222512 0.2227314 0.2228103
 0.2225062 0.2215641 0.2202143 0.2193062 0.2196053 0.2210229 0.2227636 0.2241218 0.2249235 0.2253456
 0.2256111 0.2258413 0.2259616 0.2257039 0.2249045 0.2238994 0.2234417 0.2240083 0.2252666 0.2264346
 0.2270815 0.2273575 0.2275732 0.2278479 0.2280337 0.2276774 0.2262724 0.2240028 0.2221286 0.2221068
 0.2241713 0.2270562 0.2292477 0.2302883 0.230679 0.2307736 0.2302503 0.2286933 0.2262229 0.2234477
 0.2212696 0.220756 0.2224342 0.2254094 0.22787 0.2288743 0.2291481 0.2298926 0.2313557 0.2328299
 0.2335707 0.2333739 0.2324617 0.2310793 0.2293727 0.2277548 0.22713 0.2282562 0.2308271 0.2335794
 0.2354553 0.2363992 0.2368185 0.2363601 0.2336574 0.2279767 0.2212855 0.2177131 0.2199079 0.2262669
 0.2326539 0.236465 0.2380588 0.2388159 0.2392843 0.2390259 0.2368751 0.2315759 0.2237601 0.2171939
 0.2162318 0.2215071 0.2292189 0.2346865 0.2355332 0.2319267 0.2257479 0.2200457 0.2177891 0.2200585
 0.2255739 0.2319652 0.2371941 0.2401115 0.2404509 0.2387247 0.2361851 0.2345114 0.234588 0.2351894
 0.2339139 0.2302111 0.2262971 0.2239084 0.2216261 0.2175072 0.2133495 0.2135076 0.2192319 0.2265776
 0.2308393 0.2313205 0.2304801 0.2294428 0.2260621 0.2180036 0.207167 0.1997689 0.2009129 0.2092936
 0.218362 0.2227383 0.2224856 0.2211916 0.2211845 0.2211578 0.2180084 0.2108886 0.2032851 0.200099
 0.2024295 0.2065858 0.208458 0.2067977 0.2017821 0.1936938 0.1852815 0.1826209 0.1899986 0.2046738
 0.2190189 0.2267952 0.2254387 0.2147146 0.1976245 0.1822444 0.1777918 0.1863714 0.2004197 0.2096579
 0.2092438 0.2006474 0.1872764 0.1721481 0.1592737 0.154091 0.1602208 0.1757938 0.1934524 0.2039826
 0.2014104 0.1876808 0.1731207 0.1690139 0.1773004 0.1892015 0.1950339 0.1929932 0.1877998 0.1846423
 0.1861861 0.1920599 0.1992479 0.2049384 0.2087702 0.2096339 0.2026451 0.1850085 0.1637846 0.151236
 0.1520962 0.1611515 0.173039 0.1870654 0.2008113 0.2068228 0.2010099 0.1903796 0.1870647 0.195438
 0.2083689 0.2159511 0.2153128 0.2111315 0.2084179 0.2071871 0.2049678 0.202576 0.204307 0.2120109
 0.2218585 0.2286133 0.2310738 0.2316006 0.2321154 0.2326396 0.2326443 0.2319352 0.2305809 0.2290398
 0.2280159 0.2276668 0.2274613 0.2269886 0.2259273 0.2228048 0.2153167 0.2035573 0.1920714 0.1862486
 0.1866103 0.1891778 0.1913946 0.1936173 0.1936002 0.1849427 0.1655387 0.1445158 0.1355962 0.1438401
 0.1618727 0.178291 0.1864048 0.1848222 0.1740406 0.1566351 0.1399717 0.1339058 0.1427451 0.1611138
 0.179697 0.1932658 0.2012658 0.2033668 0.1984838 0.1879449 0.1767509 0.1707112 0.1729144 0.1823791
 0.1943727 0.2016185 0.1978604 0.1840908 0.1712874 0.172306 0.1883901 0.2070905 0.2162594 0.2163492
 0.2154644 0.2167638 0.2169042 0.2149002 0.2156672 0.2232864 0.2350114 0.2439818 0.2452481 0.2377209
 0.2235379 0.2085653 0.2008694 0.2042126 0.2137162 0.2211163 0.2227322 0.2189816 0.2095188 0.1952841
 0.1836563 0.1840088 0.1968516 0.2126197 0.2225423 0.2266311 0.2296825 0.2330249 0.2329069 0.2261759
 0.2155383 0.2078918 0.2075137 0.2123335 0.2174655 0.2203611 0.2208396 0.218181 0.2115786 0.2034682
 0.1995446 0.203813 0.2144253 0.2253795 0.2318624 0.2332538 0.2317292 0.229433 0.2270363 0.2239011
 0.2195055 0.2153023 0.2144425 0.2184117 0.2246716 0.2292772 0.2314002 0.2335939 0.2377728 0.2425711
 0.245008 0.2437378 0.2403203 0.2378561 0.2385048 0.2417767 0.2448947 0.2451593 0.2425182 0.2398597
 0.2403536 0.2444267 0.2497033 0.2537096 0.2558903 0.2570949 0.2581229 0.2590234 0.2590564 0.2572528
 0.2537842 0.2507594 0.2507271 0.2541477 0.2589582 0.2627091 0.2645453 0.2650617 0.2649488 0.2642739
 0.2628807 0.2610451 0.2594991 0.2588484 0.259129 0.2599559 0.260929 0.2618108 0.2624888 0.2629447
 0.2632312 0.2634052 0.2635032 0.2635766 0.2636639 0.2637161 0.2636476 0.2635003 0.2634656 0.2636748
 0.2640299 0.2643039 0.2643449 0.2641044 0.26353 0.2625719 0.261296 0.2598642 0.2583524 0.2567001
 0.2549548 0.2535297 0.2530736 0.2539817 0.2560291 0.2585077 0.2607113 0.2622906 0.2632458 0.2637321
 0.2639251 0.2639764 0.2639809 0.2639517 0.2638469 0.2636354 0.2633302 0.2629678 0.2625768 0.2621789
 0.2618063 0.2614923 0.2612343 0.2609808 0.2606636 0.2602444 0.2597361 0.2591867 0.2586355 0.2580712
 0.2574369 0.2566817 0.2558045 0.2548533 0.2538991 0.2530063 0.2521989 0.2514473 0.2506995 0.2499173
 0.2490634 0.2480813 0.2469478 0.2457494 0.244656 0.2437854 0.2431107 0.2425049 0.2418476 0.2410794
 0.2401938 0.2392187 0.2381953 0.2371471 0.236068 0.2349432 0.2337659 0.2325248 0.231196 0.2297642
 0.2282381 0.2266415 0.2250025 0.2233469 0.2216711 0.2199104 0.2179423 0.2156283 0.2128465 0.2095071
 0.2055759 0.2011104 0.1962723 0.1912878 0.1863774 0.1817092 0.1774012 0.1735449 0.1702145 0.1674675
 0.1653551 0.1639265 0.1632125 0.1632115 0.1639003 0.1652486 0.1672051 0.1696707 0.1724941 0.1754971
 0.1785021 0.1813532 0.1839547 0.186312 0.1885119 0.1906268 0.1926421 0.1944886 0.1961221 0.1975442
 0.1987667 0.199793 0.2006344 0.2013209 0.2018907 0.2023755 0.2027967 0.203164 0.2034764 0.203728
 0.2039245 0.204094 0.2042724 0.2044777 0.2047075 0.2049575 0.2052335 0.205547 0.2059094 0.2063277
 0.2067976 0.2073084 0.2078573 0.2084476 0.2090734 0.2097253 0.2104177 0.211199 0.2121278 0.2132375
 0.2145185 0.2159204 0.2173609 0.2187372 0.2199484 0.2209273 0.221654 0.2221385 0.2224008 0.222472
 0.2223947 0.2222051 0.2219223 0.2215575 0.2211238 0.2206326 0.2200865 0.2194817 0.2188166 0.2181
 0.2173566 0.2166198 0.2159142 0.2152409 0.2145819 0.2139224 0.2132688 0.2126382 0.2120363 0.2114528
 0.2108782 0.210311 0.2097484 0.2091818 0.2086004 0.2079919 0.2073364 0.206609 0.205792 0.2048836
 0.2038909 0.2028132 0.2016376 0.2003546 0.1989735 0.1975161 0.1959985 0.1944219 0.19278 0.1910644
 0.1892617 0.1873565 0.1853549 0.1833073 0.1812979 0.1794051 0.1776679 0.1760824 0.1746157 0.1732284
 0.1718973 0.1706204 0.1694014 0.1682371 0.1671187 0.1660391 0.165001 0.1640252 0.163142 0.162367
 0.1616875 0.1610749 0.1605104 0.1599996 0.1595637 0.159214 0.1589492 0.1587786 0.158722 0.158765
 0.1588395 0.1588689 0.158822 0.1587147 0.1585801 0.1584474 0.1583368 0.1582629 0.158227 0.1581919
 0.1580731 0.1577713 0.1572064 0.1563252 0.1551121 0.1536073 0.1518952 0.1500739 0.148253 0.1465538
 0.1450796 0.1438886 0.1429894 0.1423374 0.141847 0.1414455 0.1411219 0.1409219 0.1409061 0.1410885
 0.1413731 0.1415891 0.1416471 0.1416411 0.1417622 0.1421395 0.1427719 0.1435506 0.1443264 0.1449931
 0.1455181 0.1459028 0.1461545 0.1462958 0.146348 0.1463069 0.146172 0.1459684 0.145715 0.14541
 0.1450536 0.1446401 0.1441421 0.1435468 0.1428775 0.1421512 0.1413576 0.1404758 0.1394633 0.1382785
 0.136994 0.1358485 0.1351216 0.134978 0.1354069 0.1362376 0.1372437 0.1382945 0.1393316 0.1401794
 0.1405857 0.1406062 0.1408045 0.141845 0.1438589 0.1463005 0.1484328 0.1498601 0.1505748 0.1506793
 0.1502476 0.1493483 0.1479886 0.1460902 0.1436478 0.1408137 0.1377633 0.134638 0.1316328 0.128947
 0.1266677 0.124813 0.1233936 0.1224483 0.1220864 0.1219148 0.1200295 0.114003 0.1046333 0.09761567
 0.09875628 0.1074505 0.1171082 0.1221098 0.1222775 0.1205916 0.1191213 0.1181725 0.1176247 0.1176264
 0.1183286 0.1195948 0.1210194 0.1221793 0.1229022 0.1232349 0.1231491 0.1222907 0.1199171 0.1151635
 0.1077458 0.09855776 0.08935566 0.08172559 0.07637528 0.07318373 0.07155977 0.07076657 0.07026233 0.06996724
 0.07019164 0.07126156 0.07323177 0.07593458 0.07915767 0.08263786 0.08597286 0.08877192 0.09094062 0.09266756
 0.09410032 0.09516599 0.09572303 0.09575285 0.09536194 0.09469603 0.0938984 0.09307262 0.09220882 0.09118834
 0.08996454 0.08873728 0.08783558 0.0874029 0.08730017 0.08732162 0.08737449 0.08743361 0.08746019 0.08742121
 0.08733177 0.08727042 0.08736201 0.08768451 0.0881656 0.08862185 0.08891331 0.08903293 0.0890598 0.08902513
 0.08880893 0.08825371 0.08744824 0.08673434 0.08626068 0.0856998 0.08466759 0.0833239 0.08228685 0.08197278
 0.08222693 0.08258824 0.08271903 0.08256206 0.08229126 0.0822187 0.08258587 0.08327405 0.08380562 0.08378632
</values></Ydata></ScRf><Data_Parameters_AB><parameter name="DPF">1</parameter><parameter name="NPT">3497</parameter><parameter name="FXV">3996</parameter><parameter name="LXV">500</parameter><parameter name="CSF">1</parameter><parameter name="MXY">0.243794083595276</parameter><parameter name="MNY">-0.08391273021698</parameter><parameter name="DAT">02/06/2022</parameter><parameter name="TIM">12:27:18.197 (GMT+2)</parameter><parameter name="DXU">WN</parameter></Data_Parameters_AB><AB__Qtest><MainReport name="Quality Test Report"><Header><Line><Legend>Test result ok/not ok [1/0]: </Legend><Value>0</Value></Line><Line><Legend>Method file: </Legend><Value>C:\Users\Public\Documents\Bruker\OPUS_8.2.28\QT\IRBT_v3_default.QT</Value></Line></Header><Matrix><Line><Legend></Legend><Legend>min</Legend><Legend>max</Legend><Legend>measured</Legend></Line><Line><Value>Absorption (X-Range 1):</Value><Value>0.400000</Value><Value>2.000000</Value><Value>0.256116</Value></Line><Line><Value>Noise (X-Range 4):</Value><Value></Value><Value>0.000300</Value><Value>0.000041</Value></Line><Line><Value>Signal/Noise (X-Range 2):</Value><Value>200.000000</Value><Value></Value><Value>144.430873</Value></Line><Line><Value>Signal/Noise (X-Range 3):</Value><Value>40.000000</Value><Value></Value><Value>63.711865</Value></Line><Line><Value>Water vapour (X-Range 5):</Value><Value></Value><Value>0.000300</Value><Value>0.000051</Value></Line><Line><Value>Signal/Water (X-Range 2):</Value><Value>100.000000</Value><Value></Value><Value>115.856479</Value></Line><Line><Value>Signal/Water (X-Range 3):</Value><Value>20.000000</Value><Value></Value><Value>51.107026</Value></Line><Line><Value>Fringes (X-Range 6):</Value><Value></Value><Value>0.000100</Value><Value>0.000070</Value></Line></Matrix></MainReport></AB__Qtest><Data_Parameters_ScSm><parameter name="DPF">1</parameter><parameter name="NPT">1814</parameter><parameter name="FXV">3996.33169228125</parameter><parameter name="LXV">499.541461535156</parameter><parameter name="CSF">1</parameter><parameter name="MXY">0.271867275238037</parameter><parameter name="MNY">0.0342301093041897</parameter><parameter name="DAT">02/06/2022</parameter><parameter name="TIM">12:27:18.197 (GMT+2)</parameter><parameter name="DXU">WN</parameter></Data_Parameters_ScSm><Data_Parameters_ScRf><parameter name="DPF">1</parameter><parameter name="NPT">1820</parameter><parameter name="FXV">4004.04661832813</parameter><parameter name="LXV">495.683998511719</parameter><parameter name="CSF">1</parameter><parameter name="MXY">0.265061676502228</parameter><parameter name="MNY">0.0299987457692623</parameter><parameter name="DAT">02/06/2022</parameter><parameter name="TIM">12:26:50.964 (GMT+2)</parameter><parameter name="DXU">WN</parameter></Data_Parameters_ScRf><Optic_Parameters_Rf><parameter name="APR">0</parameter><parameter name="APT">Open</parameter><parameter name="BMS">KBr</parameter><parameter name="DTC">RT-DLaTGS_IR-Biotyper [Microplate reader]</parameter><parameter name="HPF">0</parameter><parameter name="LPF">10.0</parameter><parameter name="LPV">4000</parameter><parameter name="PGR">0</parameter><parameter name="RCH">Module port</parameter><parameter name="RDX">0</parameter><parameter name="SRC">MIR</parameter><parameter name="VEL">10.0</parameter><parameter name="SON">Off</parameter></Optic_Parameters_Rf><Acquisition_Parameters_Rf><parameter name="ADT">1</parameter><parameter name="AQM">DD</parameter><parameter name="CFE">0</parameter><parameter name="COR">0</parameter><parameter name="DEL">0</parameter><parameter name="DLY">0</parameter><parameter name="HFW">8000</parameter><parameter name="LFW">0</parameter><parameter name="NSR">32</parameter><parameter name="PLF">AB</parameter><parameter name="RES">6</parameter><parameter name="RGN">-1</parameter><parameter name="STR">0</parameter><parameter name="TCL">MakeCompatibleScalar (0, {WSV=1.000000, ARV=0});</parameter><parameter name="TDL">37</parameter><parameter name="RPO">0</parameter></Acquisition_Parameters_Rf><FT_-_Parameters_Rf><parameter name="APF">B3</parameter><parameter name="HFQ">500</parameter><parameter name="LFQ">4000</parameter><parameter name="NLI">0</parameter><parameter name="PHR">24</parameter><parameter name="PHZ">ML</parameter><parameter name="SPZ">NO</parameter><parameter name="ZFF">1</parameter></FT_-_Parameters_Rf><Optic_Parameters_><parameter name="APR">0</parameter><parameter name="APT">Open</parameter><parameter name="BMS">KBr</parameter><parameter name="CHN">Module port</parameter><parameter name="DTC">RT-DLaTGS_IR-Biotyper [Microplate reader]</parameter><parameter name="HPF">0</parameter><parameter name="LPF">10.0</parameter><parameter name="LPV">4000</parameter><parameter name="PGN">0</parameter><parameter name="RDX">0</parameter><parameter name="SRC">MIR</parameter><parameter name="VEL">10.0</parameter><parameter name="SON">Off</parameter></Optic_Parameters_><FT_-_Parameters_><parameter name="APF">B3</parameter><parameter name="HFQ">500</parameter><parameter name="LFQ">4000</parameter><parameter name="NLI">0</parameter><parameter name="PHR">24</parameter><parameter name="PHZ">ML</parameter><parameter name="SPZ">NO</parameter><parameter name="ZFF">1</parameter></FT_-_Parameters_><Acquisition_Parameters_><parameter name="ADT">1</parameter><parameter name="AQM">DD</parameter><parameter name="CFE">0</parameter><parameter name="COR">0</parameter><parameter name="DEL">0</parameter><parameter name="DLY">0</parameter><parameter name="HFW">8000</parameter><parameter name="LFW">0</parameter><parameter name="NSS">32</parameter><parameter name="PLF">AB</parameter><parameter name="RES">6</parameter><parameter name="SOT">0</parameter><parameter name="TCL">MakeCompatibleScalar (0, {WSV=1.000000, ARV=0});</parameter><parameter name="TDL">37</parameter><parameter name="SPO">0</parameter><parameter name="SGN">-1</parameter></Acquisition_Parameters_><Instrument_Parameters_Rf><parameter name="HFL">15800.168544</parameter><parameter name="LFL">0</parameter><parameter name="LWN">15800.168544</parameter><parameter name="ABP">32197</parameter><parameter name="SSP">1</parameter><parameter name="ARG">2</parameter><parameter name="ASG">2</parameter><parameter name="ASS">32</parameter><parameter name="GFW">16</parameter><parameter name="GBW">16</parameter><parameter name="BFW">0</parameter><parameter name="BBW">0</parameter><parameter name="PKA">7265</parameter><parameter name="PKL">4996</parameter><parameter name="PRA">7452</parameter><parameter name="PRL">5001</parameter><parameter name="P2A">1</parameter><parameter name="P2L">1</parameter><parameter name="P2R">1</parameter><parameter name="P2K">1</parameter><parameter name="DAQ">0</parameter><parameter name="AG2">1</parameter><parameter name="SSM">1</parameter><parameter name="RSN">26181</parameter><parameter name="CRR">0</parameter><parameter name="SRT">1654172810.965</parameter><parameter name="DUR">19.6379852294922</parameter><parameter name="TSC">28.9</parameter><parameter name="MVD">0.29748472571373</parameter><parameter name="AN1">0.225827048755534</parameter><parameter name="AN2">0</parameter><parameter name="VSN">2.485 Apr  4 2017</parameter><parameter name="SRN">0085</parameter><parameter name="CAM">0</parameter><parameter name="INS">IR-Biotyper</parameter><parameter name="FOC">69</parameter><parameter name="RDY">1</parameter><parameter name="ARS">32</parameter></Instrument_Parameters_Rf><Sample_Parameters_><parameter name="BLD"></parameter><parameter name="CNM">Admin</parameter><parameter name="CPY"></parameter><parameter name="DPM"></parameter><parameter name="EXP">IRBT_v3_32Scans.XPM</parameter><parameter name="LCT"></parameter><parameter name="SFM">Microplate, HTS-XT</parameter><parameter name="SNM">220602-1054_MSA23M (D_1)_D11_f7fffcbe-ddbe-4046-a8a8-6229174a2313.0</parameter><parameter name="XPP">C:\Users\Public\Documents\Bruker\OPUS_8.2.28\XPM</parameter><parameter name="IST">OK</parameter><parameter name="CPG">1252</parameter><parameter name="UID">a734e5bf-04a2-46fd-be98-3161f6c2c79f</parameter></Sample_Parameters_><Instrument_Parameters_><parameter name="HFL">15800.168544</parameter><parameter name="LFL">0</parameter><parameter name="LWN">15800.168544</parameter><parameter name="ABP">32197</parameter><parameter name="SSP">1</parameter><parameter name="ASG">2</parameter><parameter name="ARG">2</parameter><parameter name="ASS">32</parameter><parameter name="GFW">16</parameter><parameter name="GBW">16</parameter><parameter name="BFW">0</parameter><parameter name="BBW">0</parameter><parameter name="PKA">7199</parameter><parameter name="PKL">4988</parameter><parameter name="PRA">7492</parameter><parameter name="PRL">4993</parameter><parameter name="P2A">1</parameter><parameter name="P2L">1</parameter><parameter name="P2R">1</parameter><parameter name="P2K">1</parameter><parameter name="DAQ">0</parameter><parameter name="AG2">1</parameter><parameter name="SSM">1</parameter><parameter name="RSN">13716</parameter><parameter name="CRR">0</parameter><parameter name="SRT">1654172838.197</parameter><parameter name="DUR">19.6389923095703</parameter><parameter name="TSC">28.9</parameter><parameter name="MVD">0.212301075458527</parameter><parameter name="AN1">0.225823527316509</parameter><parameter name="AN2">0</parameter><parameter name="VSN">2.485 Apr  4 2017</parameter><parameter name="SRN">0085</parameter><parameter name="CAM">0</parameter><parameter name="INS">IR-Biotyper</parameter><parameter name="FOC">69</parameter><parameter name="RDY">1</parameter></Instrument_Parameters_><History/></OPUSDataFile>
