<?xml version="1.0" encoding="UTF-8" ?>
<OPUSDataFile><AB><Ydata ylabel="Absorbance Units"><values byteorder="INTEL" format="FLOAT32" numvalues="3497"> -0.08779859 -0.08778386 -0.08777224 -0.08776303 -0.08776797 -0.08778764 -0.08781417 -0.08784661 -0.08786988 -0.08788484
 -0.08788826 -0.08788291 -0.08787738 -0.08787236 -0.08787443 -0.08788115 -0.08789175 -0.08790327 -0.08791173 -0.08791628
 -0.08791383 -0.0879085 -0.08790027 -0.08789802 -0.08790553 -0.08792606 -0.08796327 -0.08800554 -0.08805273 -0.08808634
 -0.0881043 -0.08809835 -0.08806795 -0.08802081 -0.08795812 -0.08789676 -0.08783817 -0.08779985 -0.08778124 -0.08779115
 -0.08782502 -0.08787695 -0.08794203 -0.08800832 -0.0880769 -0.08814377 -0.08821302 -0.08828909 -0.08836645 -0.08844621
 -0.08851255 -0.08855949 -0.08857824 -0.08856282 -0.0885246 -0.08846264 -0.08840191 -0.08834447 -0.0883119 -0.08830554
 -0.08833097 -0.088387 -0.0884594 -0.0885454 -0.0886204 -0.08868432 -0.08872265 -0.08873958 -0.08873749 -0.08872118
 -0.08869969 -0.0886756 -0.08865582 -0.08863958 -0.08862936 -0.08862086 -0.08861253 -0.08860063 -0.08858261 -0.08856016
 -0.08853234 -0.088506 -0.08848155 -0.08846802 -0.08846594 -0.08848668 -0.08853091 -0.08860705 -0.08871423 -0.08884422
 -0.08899216 -0.08912461 -0.08923697 -0.08929037 -0.08929336 -0.08924313 -0.08915898 -0.08907334 -0.08899505 -0.08895072
 -0.08893075 -0.08893955 -0.08895545 -0.08896754 -0.08896174 -0.08892549 -0.08887406 -0.08880559 -0.08875318 -0.08872321
 -0.08872899 -0.08877441 -0.08883941 -0.08892313 -0.08899634 -0.08905892 -0.08910326 -0.0891322 -0.08915992 -0.08918807
 -0.08923182 -0.08928736 -0.08935525 -0.08942591 -0.08948301 -0.08952139 -0.08952515 -0.08950342 -0.08945678 -0.08939885
 -0.08933782 -0.08928044 -0.08923001 -0.08919416 -0.08917333 -0.08918408 -0.08922892 -0.08932266 -0.08946939 -0.08964982
 -0.08986369 -0.09001549 -0.09010141 -0.09003724 -0.08984017 -0.08958061 -0.08927438 -0.08902237 -0.08881724 -0.08869115
 -0.08863165 -0.08863336 -0.08868292 -0.08876479 -0.08886324 -0.08896223 -0.08904652 -0.08910232 -0.08912568 -0.08910914
 -0.08906582 -0.08899636 -0.08891875 -0.08883592 -0.08876061 -0.08869436 -0.08864625 -0.08861692 -0.08861057 -0.08862671
 -0.08865827 -0.08870324 -0.0887448 -0.08878214 -0.08880217 -0.08880817 -0.08880182 -0.0887862 -0.08876843 -0.08874727
 -0.08872315 -0.0886972 -0.08866856 -0.0886446 -0.08862863 -0.08862822 -0.08864837 -0.08868755 -0.08874831 -0.0888171
 -0.08889282 -0.08895941 -0.08901495 -0.08905096 -0.08906686 -0.08905547 -0.08901646 -0.08894233 -0.08883441 -0.08869606
 -0.08853213 -0.0883619 -0.08819169 -0.0880474 -0.08793147 -0.0878619 -0.08783262 -0.08784654 -0.08788799 -0.08794645
 -0.08800558 -0.08805168 -0.08808121 -0.08808754 -0.08808068 -0.08806176 -0.08804055 -0.08801935 -0.08800067 -0.08798508
 -0.08797297 -0.08796439 -0.08796164 -0.08796466 -0.08797345 -0.08798713 -0.0880001 -0.08801135 -0.08801322 -0.08800685
 -0.08799007 -0.08796724 -0.08794457 -0.08792663 -0.0879221 -0.08793157 -0.08795901 -0.08800155 -0.08805766 -0.08812843
 -0.08821351 -0.08831615 -0.08843958 -0.08857311 -0.08871817 -0.0888459 -0.08895408 -0.08901405 -0.08902393 -0.08896115
 -0.08882578 -0.0886147 -0.08833513 -0.0880338 -0.08772066 -0.08746119 -0.08725693 -0.08714794 -0.08712384 -0.08719271
 -0.08732176 -0.0874778 -0.08762408 -0.08771019 -0.08774192 -0.08770301 -0.0876266 -0.08752257 -0.08741409 -0.08731091
 -0.08721707 -0.08713586 -0.08705908 -0.08698621 -0.08691023 -0.08683053 -0.08674926 -0.08666703 -0.08659477 -0.08653325
 -0.0864952 -0.08647695 -0.0864741 -0.08647516 -0.08644535 -0.0863827 -0.08626047 -0.08610117 -0.08592279 -0.08574247
 -0.08558621 -0.08544627 -0.08532788 -0.0852121 -0.08509123 -0.08495719 -0.08480384 -0.08464115 -0.08446965 -0.08430061
 -0.08413653 -0.08397151 -0.08380575 -0.0836133 -0.08339346 -0.08313039 -0.08282966 -0.0825247 -0.08222087 -0.08196208
 -0.08174009 -0.08155543 -0.08139845 -0.08125043 -0.08110945 -0.08096648 -0.08081934 -0.08066559 -0.08049618 -0.0803057
 -0.08008595 -0.07983243 -0.07954049 -0.07920907 -0.07882966 -0.07839935 -0.07792082 -0.07739237 -0.07683696 -0.07625593
 -0.0756686 -0.07507563 -0.07448651 -0.07390255 -0.07333807 -0.0727945 -0.07228749 -0.07181309 -0.07136995 -0.07095098
 -0.07054254 -0.07013974 -0.06973486 -0.0693134 -0.06886527 -0.06836335 -0.06778163 -0.0671287 -0.06639181 -0.06562664
 -0.06484843 -0.06408561 -0.06334899 -0.0626299 -0.06192888 -0.06123336 -0.06054239 -0.05985126 -0.0591604 -0.05847995
 -0.0578114 -0.05717439 -0.05656342 -0.05597245 -0.05538142 -0.05472943 -0.05400972 -0.05316589 -0.05224184 -0.05127009
 -0.05029168 -0.04936326 -0.04847934 -0.04765598 -0.04686873 -0.04611233 -0.04536242 -0.04461082 -0.04384357 -0.0430548
 -0.04225178 -0.0414345 -0.04061316 -0.03978909 -0.03894674 -0.03808485 -0.0371752 -0.03621984 -0.03522006 -0.03418286
 -0.03313901 -0.03209284 -0.031072 -0.03007706 -0.02912398 -0.02820591 -0.02732451 -0.02646117 -0.02559937 -0.02472693
 -0.02382663 -0.02291135 -0.02198306 -0.02105138 -0.02012452 -0.01918123 -0.01821847 -0.01722032 -0.01618071 -0.01513291
 -0.01407837 -0.0130598 -0.01207771 -0.01113089 -0.01021575 -0.00930329 -0.008391864 -0.007457569 -0.0065047 -0.005530942
 -0.004545675 -0.003566962 -0.002597755 -0.001654328 -0.0007216829 0.0002055413 0.001148612 0.002126434 0.003137559 0.004190895
 0.005260197 0.006339302 0.007410353 0.008467767 0.00950954 0.01053437 0.01154646 0.01254577 0.01354374 0.01454093
 0.01554811 0.01656451 0.01758846 0.01861909 0.019651 0.02068558 0.02172483 0.02276823 0.02381622 0.02486648
 0.02591437 0.02696337 0.02801458 0.02907263 0.03014345 0.03122018 0.03230366 0.03337795 0.03443921 0.03547305
 0.03647549 0.03744115 0.03836719 0.03926827 0.0401444 0.04103211 0.04193304 0.04287691 0.04386134 0.04488053
 0.04592925 0.04698054 0.04803273 0.04906693 0.05008471 0.05107996 0.05205567 0.053013 0.05395554 0.05488786
 0.05580949 0.05672137 0.05762267 0.05851012 0.05939627 0.0602831 0.06118613 0.06211161 0.06305024 0.06400329
 0.0649441 0.06587041 0.06677377 0.06765447 0.06852768 0.06939447 0.07027052 0.07115472 0.07205136 0.07295658
 0.07386249 0.07476357 0.07564387 0.07650371 0.07733411 0.07814521 0.07894327 0.07973691 0.08053502 0.08133693
 0.08214409 0.08295621 0.08377349 0.08459593 0.0854253 0.08624975 0.08706845 0.08786751 0.08864534 0.08940554
 0.09014851 0.09088634 0.09161867 0.09234741 0.09307137 0.09378549 0.09449033 0.09518445 0.0958702 0.09655079
 0.09723016 0.09791601 0.09860803 0.09931239 0.1000158 0.1007127 0.1013876 0.1020284 0.1026417 0.1032239
 0.1037973 0.104367 0.1049415 0.1055237 0.1061053 0.1066859 0.10726 0.1078276 0.1083914 0.1089523
 0.1095175 0.110089 0.1106794 0.111288 0.1119217 0.1125717 0.1132243 0.1138692 0.1144838 0.1150683
 0.1156128 0.1161276 0.1166161 0.1170891 0.1175527 0.1180113 0.1184687 0.1189194 0.1193632 0.1197915
 0.120202 0.1205997 0.1209841 0.1213769 0.1217791 0.1222086 0.1226648 0.1231498 0.1236615 0.1241922
 0.1247367 0.1252778 0.1258072 0.1262975 0.1267495 0.1271467 0.12751 0.1278515 0.1281947 0.1285646
 0.1289555 0.1293778 0.1297946 0.1301964 0.130557 0.1308637 0.131139 0.131381 0.131641 0.131924
 0.1322442 0.1326011 0.1329449 0.1332725 0.1335293 0.1337227 0.1338571 0.1339467 0.1340389 0.1341383
 0.13428 0.1344554 0.1346685 0.134906 0.1351565 0.1354104 0.1356544 0.1358953 0.1361272 0.1363813
 0.1366655 0.1370064 0.1374178 0.137872 0.1383731 0.13884 0.1392668 0.1395857 0.1397947 0.1399009
 0.1399109 0.1398913 0.139846 0.1398302 0.1398378 0.1398757 0.1399425 0.140034 0.1401633 0.1403513
 0.1405968 0.1409185 0.1412725 0.1416389 0.1419676 0.1422199 0.1424072 0.1425139 0.142611 0.1427103
 0.142867 0.1430953 0.1433816 0.1437287 0.1440716 0.1444072 0.14467 0.1448611 0.1449597 0.1449773
 0.1449557 0.1449122 0.1449242 0.1449976 0.1451895 0.1454792 0.1458689 0.1463147 0.1467754 0.1472127
 0.1475808 0.1478831 0.1481 0.1482804 0.1484326 0.1486105 0.1488285 0.1491116 0.1494655 0.1499006
 0.150418 0.1510334 0.1517475 0.1525553 0.1534501 0.1543655 0.1552863 0.1560976 0.156793 0.1572818
 0.1575895 0.1577127 0.1577112 0.1576672 0.1576384 0.157725 0.1579253 0.1582884 0.1587308 0.1592363
 0.1596923 0.1600553 0.1602679 0.1602998 0.1601879 0.1599267 0.1596097 0.159244 0.1589028 0.1585893
 0.1583148 0.1580767 0.1578515 0.15764 0.157433 0.1572356 0.1570623 0.1569112 0.1567919 0.1566844
 0.1565704 0.1564119 0.1561659 0.1557969 0.1552595 0.1545589 0.153672 0.1526663 0.1515497 0.1504201
 0.1492999 0.1482567 0.1473067 0.146458 0.145715 0.1450389 0.1444272 0.1438138 0.143196 0.142518
 0.1417882 0.1410165 0.1402228 0.1394821 0.1387956 0.1382162 0.137702 0.1372177 0.1367132 0.1361103
 0.1354171 0.1345968 0.1337318 0.1328448 0.1320319 0.1313366 0.1307883 0.1304142 0.130143 0.1299767
 0.1297805 0.1295432 0.1291616 0.128631 0.1279577 0.1271502 0.1263044 0.1254283 0.1246174 0.1238663
 0.1232097 0.1226333 0.1221243 0.1216677 0.1212367 0.1208186 0.1203895 0.1199443 0.1194694 0.1189727
 0.1184523 0.1179257 0.1173978 0.1168832 0.1163873 0.1159113 0.1154577 0.1150101 0.1145678 0.1141058
 0.1136228 0.1131053 0.1125548 0.111981 0.1113876 0.1108 0.1102202 0.1096704 0.109147 0.108655
 0.108184 0.1077208 0.1072543 0.1067654 0.1062545 0.1057121 0.1051536 0.1045829 0.104017 0.1034648
 0.102927 0.1024078 0.10189 0.1013722 0.1008371 0.1002822 0.09970952 0.0991192 0.09853063 0.09794448
 0.09737545 0.09682133 0.09627731 0.09574071 0.09519845 0.09465277 0.09410127 0.09354966 0.093007 0.09247422
 0.0919572 0.09145099 0.09095155 0.09046216 0.08997844 0.08952324 0.08910303 0.0887376 0.08844011 0.0881795
 0.08796003 0.08769552 0.08737877 0.08694045 0.08637688 0.0857084 0.08494248 0.08417561 0.08341518 0.08275588
 0.08219141 0.08175664 0.08142722 0.08117095 0.08095256 0.08070103 0.08039715 0.07998163 0.07948396 0.07889682
 0.07828583 0.07768576 0.07713117 0.07665119 0.07621707 0.07582776 0.07545187 0.07507809 0.07473893 0.07443398
 0.07423051 0.07413208 0.07415227 0.07428431 0.0744489 0.07463252 0.0747136 0.07469142 0.07448993 0.07413676
 0.07365109 0.07307631 0.07249363 0.07192212 0.07142331 0.07097231 0.07057083 0.07018977 0.06980541 0.06943354
 0.06907044 0.06875222 0.06849308 0.06828219 0.06812507 0.06796532 0.06779697 0.06759539 0.06735898 0.06713054
 0.06691306 0.06675921 0.06666422 0.06662832 0.06664079 0.06666241 0.06668992 0.06669468 0.06668239 0.06665161
 0.06660293 0.06654146 0.06645135 0.06632604 0.06613982 0.06587607 0.0655231 0.06506562 0.0645327 0.06392031
 0.06329972 0.06267881 0.06213097 0.06166648 0.06129919 0.06103052 0.06079216 0.06057838 0.06029256 0.05993738
 0.05947338 0.05892054 0.05832693 0.05771451 0.05716389 0.05667406 0.05628652 0.05597249 0.05571866 0.05548945
 0.05525104 0.05498635 0.05467183 0.05432246 0.05393313 0.0535436 0.05316239 0.05282052 0.05252923 0.05226754
 0.05203795 0.05177059 0.05146155 0.05106361 0.05058017 0.05004825 0.0494777 0.0489524 0.04846797 0.04805923
 0.04770204 0.04735404 0.04700015 0.04658776 0.04613593 0.04564095 0.04513878 0.04465898 0.04421891 0.04383961
 0.04351339 0.04324263 0.04301543 0.04282891 0.04267712 0.04255963 0.04246678 0.04239887 0.04233204 0.04226504
 0.04216126 0.04201919 0.04180788 0.04153096 0.04119109 0.0408009 0.04040575 0.04002054 0.03970568 0.03946474
 0.03933451 0.0393023 0.03937022 0.03951773 0.03972979 0.03998948 0.04028282 0.0406034 0.04094462 0.0413097
 0.04169751 0.04211559 0.04256437 0.04305345 0.0435828 0.04417212 0.04482239 0.04556814 0.04641083 0.04738027
 0.04847229 0.049679 0.05098787 0.05234892 0.05375074 0.05513783 0.05651182 0.05784784 0.05915902 0.06045068
 0.06173566 0.06302597 0.06433017 0.06565484 0.06700953 0.06839947 0.06982983 0.07130715 0.07281088 0.07434396
 0.07584984 0.07732525 0.07870077 0.07997208 0.08109064 0.08205552 0.08284756 0.08346754 0.08390885 0.08417513
 0.08426925 0.08421023 0.08403536 0.08378854 0.08355453 0.0833838 0.08337279 0.08354045 0.08394287 0.08455224
 0.08537369 0.08635885 0.08749191 0.08873248 0.09006896 0.09146818 0.09292431 0.09440646 0.09591036 0.09742187
 0.0989397 0.1004707 0.102015 0.1035793 0.1051621 0.1067559 0.1083602 0.1099688 0.1115842 0.113215
 0.1148518 0.1165013 0.1181004 0.1196133 0.1208747 0.1217757 0.1220682 0.121585 0.1201594 0.1176404
 0.1141596 0.1096616 0.1046074 0.09903739 0.0935091 0.0880865 0.08313514 0.07868394 0.07479945 0.07147431
 0.06858079 0.06610497 0.06389318 0.06194194 0.06015847 0.05854253 0.05705059 0.05567491 0.05438395 0.05316827
 0.05200081 0.05088675 0.04981695 0.0488132 0.04788496 0.04705064 0.04632241 0.0456985 0.04518262 0.04476034
 0.04442957 0.04418075 0.04401213 0.04392475 0.04391855 0.04399734 0.04416008 0.04439261 0.04468769 0.0449921
 0.04529278 0.0455081 0.04563335 0.04560775 0.04545103 0.0451622 0.04478296 0.04435914 0.0439366 0.04356733
 0.04328595 0.0431264 0.04310641 0.04323962 0.04353638 0.04399714 0.04465261 0.04550589 0.04660072 0.04795072
 0.04949687 0.05124192 0.05286255 0.05432934 0.05509241 0.05513432 0.05402986 0.05185857 0.04867153 0.04464282
 0.04024081 0.03561555 0.03126773 0.02721922 0.02371837 0.02067135 0.01808827 0.01585329 0.01389782 0.01215451
 0.01057851 0.009146206 0.007844182 0.006658096 0.005584574 0.004608428 0.003727811 0.002931283 0.002218108 0.001576092
 0.001004073 0.0004813717 5.571841E-06 -0.0004506104 -0.0008887342 -0.001331204 -0.001774879 -0.00222467 -0.002672567 -0.003105535
 -0.003519755 -0.003901323 -0.004260771 -0.004599441 -0.004936818 -0.005286535 -0.005655567 -0.006054928 -0.006465018 -0.006886153
 -0.007283024 -0.007648669 -0.007962615 -0.008219182 -0.00843633 -0.008614253 -0.008795716 -0.008982001 -0.009196257 -0.009434648
 -0.009678842 -0.009925788 -0.01014906 -0.0103574 -0.01055873 -0.01076716 -0.01101623 -0.011304 -0.01164802 -0.01202343
 -0.01241772 -0.01280014 -0.01314799 -0.01344453 -0.01367426 -0.01384413 -0.01394823 -0.01402021 -0.01406207 -0.0141219
 -0.01420598 -0.01434167 -0.01453211 -0.01476103 -0.01502663 -0.01528993 -0.0155503 -0.01578465 -0.01599582 -0.01618399
 -0.01635091 -0.01650129 -0.01663558 -0.01675516 -0.01686432 -0.0169684 -0.01707299 -0.01718717 -0.01730672 -0.01743475
 -0.01755543 -0.01766236 -0.01774628 -0.01779929 -0.01783764 -0.0178603 -0.01790077 -0.01796329 -0.0180672 -0.01821481
 -0.01839326 -0.01860122 -0.01880967 -0.01901821 -0.01920995 -0.01938753 -0.0195535 -0.01970986 -0.01986461 -0.02001564
 -0.0201639 -0.02030385 -0.02042832 -0.02053427 -0.02061409 -0.02067436 -0.02071373 -0.02074978 -0.02078807 -0.02084736
 -0.02093489 -0.02105803 -0.02122099 -0.02141555 -0.02164244 -0.02188152 -0.02213166 -0.02237 -0.02259576 -0.02279727
 -0.02297594 -0.02313754 -0.02328402 -0.02342748 -0.02356731 -0.02370797 -0.02384802 -0.02398572 -0.02412297 -0.02426129
 -0.02440318 -0.02455293 -0.02470719 -0.02486653 -0.0250227 -0.0251719 -0.0253101 -0.0254342 -0.02554868 -0.02565341
 -0.02575569 -0.02585659 -0.02595899 -0.02606325 -0.02616866 -0.02627514 -0.02638077 -0.02648489 -0.02658166 -0.0266696
 -0.026738 -0.02678805 -0.02681518 -0.02682711 -0.02683543 -0.0268492 -0.02688733 -0.02694907 -0.02704295 -0.02715757
 -0.02728846 -0.02742568 -0.02756283 -0.02769858 -0.02783099 -0.02796213 -0.02809232 -0.02822188 -0.02835089 -0.02847941
 -0.02860746 -0.02873477 -0.0288612 -0.02898293 -0.02909959 -0.02920608 -0.02930293 -0.02938912 -0.02946675 -0.02954103
 -0.02961416 -0.02969324 -0.02977838 -0.02987344 -0.02997546 -0.03008358 -0.03019337 -0.03030189 -0.03040574 -0.03050289
 -0.03059088 -0.0306684 -0.03073512 -0.03078996 -0.03083828 -0.03087988 -0.03092654 -0.03097909 -0.0310477 -0.03113253
 -0.03123224 -0.03134532 -0.03145856 -0.03157064 -0.03166744 -0.03175096 -0.03181819 -0.03187492 -0.03193118 -0.03199135
 -0.03206745 -0.03215605 -0.03225999 -0.03236951 -0.0324788 -0.03258204 -0.03267347 -0.03275769 -0.0328342 -0.03291105
 -0.03299052 -0.03307325 -0.03316027 -0.03324451 -0.0333255 -0.03339794 -0.03346178 -0.03351964 -0.03357232 -0.03362787
 -0.03368666 -0.03375502 -0.03383201 -0.03391859 -0.03401258 -0.03411059 -0.0342098 -0.03430462 -0.03439425 -0.03447466
 -0.03455009 -0.03462109 -0.03469491 -0.03477542 -0.03486561 -0.03496855 -0.03507849 -0.0351956 -0.03530983 -0.03542009
 -0.03551786 -0.03560235 -0.03566969 -0.03571989 -0.03575609 -0.03577942 -0.03580102 -0.0358221 -0.03585497 -0.03589848
 -0.03595654 -0.03602554 -0.03609997 -0.03617722 -0.03625078 -0.03632111 -0.03638616 -0.03644748 -0.03650576 -0.03656145
 -0.03661494 -0.03666634 -0.03671563 -0.03676348 -0.03680998 -0.03685576 -0.03690081 -0.03694656 -0.03699305 -0.03704381
 -0.03709899 -0.03716099 -0.03722925 -0.03729964 -0.037371 -0.03743513 -0.03749249 -0.03753942 -0.0375789 -0.03761544
 -0.03765104 -0.0376915 -0.03773471 -0.03778138 -0.03782719 -0.03786898 -0.03790533 -0.03793414 -0.03795771 -0.03797605
 -0.03799267 -0.03800829 -0.03802544 -0.03804442 -0.03806777 -0.03809575 -0.03813007 -0.03817073 -0.03821532 -0.03826326
 -0.03830802 -0.0383497 -0.03838452 -0.03841452 -0.03844365 -0.03847441 -0.03851464 -0.03856359 -0.03862468 -0.03869299
 -0.03876529 -0.03883636 -0.03890098 -0.0389585 -0.03900634 -0.03904891 -0.03908688 -0.03912471 -0.03916397 -0.03920427
 -0.03924602 -0.03928605 -0.03932405 -0.03935952 -0.0393925 -0.0394263 -0.03946108 -0.03949982 -0.03954231 -0.03958897
 -0.03963967 -0.03969412 -0.03975251 -0.03981531 -0.03988204 -0.03995254 -0.04002533 -0.04009935 -0.04017208 -0.04024193
 -0.04030564 -0.04036115 -0.04040705 -0.04044135 -0.04046876 -0.04048894 -0.04051212 -0.04053973 -0.04057822 -0.04062868
 -0.04068561 -0.04074863 -0.04080505 -0.04085486 -0.04089262 -0.04092046 -0.0409461 -0.04097145 -0.0410077 -0.04105274
 -0.04110859 -0.04116993 -0.04122968 -0.04128429 -0.04132671 -0.04135796 -0.0413759 -0.04138477 -0.04138578 -0.04138326
 -0.04137862 -0.04137572 -0.04137545 -0.04138124 -0.04139364 -0.04141492 -0.04144545 -0.04148395 -0.0415303 -0.04157899
 -0.04162964 -0.04167614 -0.04171879 -0.04175587 -0.04178808 -0.04181706 -0.04184254 -0.04186471 -0.04188319 -0.04189666
 -0.0419073 -0.04191639 -0.04192725 -0.04194349 -0.04196415 -0.04199098 -0.04201741 -0.04204165 -0.04205891 -0.04206684
 -0.04206883 -0.04206448 -0.04206216 -0.0420626 -0.04207071 -0.04208665 -0.04210796 -0.04213433 -0.04216145 -0.04218964
 -0.04221848 -0.04224823 -0.04228031 -0.04231301 -0.04234382 -0.04237007 -0.04238602 -0.04239183 -0.0423842 -0.04236835
 -0.04234602 -0.04232462 -0.04230831 -0.04230136 -0.04230681 -0.042323 -0.04235071 -0.04238415 -0.04242274 -0.0424612
 -0.04249902 -0.04253306 -0.04256316 -0.04258689 -0.04260419 -0.04261296 -0.04261408 -0.04261018 -0.04260416 -0.04260623
 -0.04262032 -0.04266001 -0.0427275 -0.04283268 -0.04297404 -0.04315384 -0.0433695 -0.04361835 -0.0439036 -0.04422385
 -0.04459111 -0.0450093 -0.04548648 -0.04602794 -0.04662146 -0.04726847 -0.04793729 -0.04862586 -0.04930225 -0.04996466
 -0.0505841 -0.0511575 -0.05164365 -0.0520361 -0.05227822 -0.05236653 -0.05225535 -0.05195504 -0.05145452 -0.0507949
 -0.05002303 -0.04920307 -0.04842144 -0.04771716 -0.04714848 -0.04672103 -0.04645278 -0.04633743 -0.0463817 -0.04655563
 -0.04686613 -0.04721612 -0.04759906 -0.04788309 -0.0480513 -0.04809252 -0.04800643 -0.04790087 -0.0477785 -0.04770535
 -0.04767253 -0.04766488 -0.04767355 -0.04765971 -0.04762329 -0.04754385 -0.04742811 -0.04727731 -0.04709842 -0.04689922
 -0.04668497 -0.04646107 -0.0462334 -0.04600553 -0.04578368 -0.04557074 -0.04537014 -0.04518295 -0.04501216 -0.04485828
 -0.04472423 -0.04461072 -0.04451343 -0.04443205 -0.04434929 -0.04426426 -0.04416004 -0.04403855 -0.04390058 -0.04375102
 -0.04360668 -0.04347104 -0.04336114 -0.04327551 -0.0432207 -0.04319017 -0.04318026 -0.04318252 -0.04318941 -0.04319588
 -0.04319667 -0.04319262 -0.04318259 -0.0431696 -0.04315428 -0.04313803 -0.04312108 -0.04310467 -0.04308873 -0.04307706
 -0.04306985 -0.04307143 -0.04308185 -0.04310291 -0.04313409 -0.04317359 -0.04322049 -0.04327084 -0.04332388 -0.04337598
 -0.04342667 -0.04347381 -0.04351666 -0.04355387 -0.04358413 -0.04360569 -0.04361892 -0.04362253 -0.04362119 -0.04361548
 -0.04361247 -0.04361407 -0.04362417 -0.04364417 -0.04367162 -0.0437067 -0.04374298 -0.04378011 -0.04381185 -0.04383797
 -0.04385403 -0.04386012 -0.04385395 -0.04383665 -0.04380998 -0.04377697 -0.04374519 -0.04371742 -0.04370237 -0.04369879
 -0.04370989 -0.04372986 -0.04375552 -0.04378161 -0.04380403 -0.0438217 -0.04383301 -0.04383953 -0.04384132 -0.04383988
 -0.04383534 -0.04382956 -0.04382261 -0.04381758 -0.04381464 -0.04381766 -0.04382672 -0.04384444 -0.04387025 -0.04390264
 -0.04394015 -0.04397676 -0.04401142 -0.04403822 -0.04405818 -0.04407016 -0.04407581 -0.0440769 -0.04407356 -0.04406638
 -0.04405528 -0.04403937 -0.04402245 -0.04400469 -0.04399355 -0.04399095 -0.04400175 -0.04402784 -0.04406523 -0.04411424
 -0.04416392 -0.04421369 -0.04425455 -0.04428653 -0.04430806 -0.04431978 -0.04432459 -0.04432319 -0.04431913 -0.04431371
 -0.04431152 -0.04431409 -0.0443267 -0.04434798 -0.04437961 -0.04441631 -0.04445495 -0.04449011 -0.04451748 -0.04453603
 -0.04454362 -0.04454404 -0.04453713 -0.04452992 -0.04452335 -0.04452374 -0.04453202 -0.04454917 -0.04457531 -0.04460568
 -0.04463997 -0.04467299 -0.04470493 -0.0447344 -0.04476165 -0.0447869 -0.04481009 -0.04483107 -0.04484995 -0.04486667
 -0.0448819 -0.04489632 -0.04491055 -0.04492547 -0.04494094 -0.04495731 -0.0449737 -0.04499006 -0.0450049 -0.04501769
 -0.04502826 -0.04503624 -0.04504377 -0.04505091 -0.04506107 -0.04507444 -0.04509398 -0.04511976 -0.04515372 -0.04519542
 -0.04524386 -0.04529728 -0.0453493 -0.04539738 -0.04543151 -0.04545183 -0.04545234 -0.04543905 -0.04541542 -0.04539018
 -0.04537196 -0.04536453 -0.04537367 -0.04539508 -0.04542911 -0.04546864 -0.04551177 -0.04555452 -0.04559577 -0.04563472
 -0.04567115 -0.04570559 -0.04573805 -0.04576835 -0.04579632 -0.04581939 -0.04583744 -0.0458478 -0.0458519 -0.04585306
 -0.04585405 -0.04586395 -0.04588319 -0.04591798 -0.04596388 -0.04601871 -0.04607667 -0.0461321 -0.04618208 -0.04622298
 -0.04625556 -0.04627874 -0.04629605 -0.04630763 -0.04631913 -0.04633133 -0.04634955 -0.04637457 -0.04640794 -0.04644985
 -0.04649744 -0.0465504 -0.04660344 -0.04665616 -0.04670322 -0.04674494 -0.04677922 -0.04680749 -0.04683207 -0.04685443
 -0.04687844 -0.04690407 -0.04693305 -0.04696425 -0.04699726 -0.04703121 -0.04706523 -0.04709986 -0.04713484 -0.04717189
 -0.04721138 -0.04725487 -0.04730299 -0.04735456 -0.04740979 -0.04746406 -0.04751713 -0.04756442 -0.047606 -0.04764239
 -0.04767441 -0.04770784 -0.04774302 -0.04778492 -0.04783189 -0.04788245 -0.04793437 -0.0479824 -0.04802714 -0.04806662
 -0.04810361 -0.04814017 -0.04817703 -0.04821563 -0.04825436 -0.04829234 -0.04833076 -0.04836921 -0.04841198 -0.04846001
 -0.04851433 -0.04857556 -0.04863881 -0.04870382 -0.04876518 -0.04882286 -0.04887585 -0.04892473 -0.048973 -0.04902118
 -0.04907366 -0.04912964 -0.04918974 -0.04925189 -0.04931243 -0.04937056 -0.04942331 -0.04947225 -0.04951797 -0.04956111
 -0.04960272 -0.04964101 -0.04967484 -0.04970573 -0.04973281 -0.04976337 -0.0497985 -0.04984409 -0.04990143 -0.04996743
 -0.05004207 -0.05011727 -0.05019275 -0.05026331 -0.05032912 -0.05038887 -0.05044277 -0.05049076 -0.05053311 -0.05057016
 -0.05060288 -0.05063277 -0.05066156 -0.05069171 -0.0507251 -0.05076423 -0.05080985 -0.05086382 -0.05092359 -0.05098948
 -0.05105536 -0.05111993 -0.05117728 -0.05122557 -0.05126522 -0.05129551 -0.05132448 -0.0513526 -0.05138792 -0.05143052
 -0.05148135 -0.05153958 -0.05159991 -0.05166144 -0.05171751 -0.05176826 -0.05181036 -0.05184514 -0.05187309 -0.05189641
 -0.05191812 -0.0519396 -0.0519634 -0.05198902 -0.05201719 -0.05204603 -0.05207509 -0.05210233 -0.05212692 -0.05214852
 -0.0521665 -0.05218415 -0.05220157 -0.05222395 -0.05225171 -0.05228657 -0.05232845 -0.05237552 -0.05242752 -0.05248204
 -0.05253876 -0.05259549 -0.05265137 -0.05270254 -0.05274953 -0.05279057 -0.05282892 -0.05286821 -0.05291035 -0.05295999
 -0.05301207 -0.05306616 -0.05311312 -0.05314839 -0.0531689 -0.05317141 -0.05316301 -0.05314384 -0.05312414 -0.05310515
 -0.05309331 -0.0530892 -0.05309415 -0.05310819 -0.05313144 -0.05316395 -0.05320664 -0.05325906 -0.05332046 -0.05338902
 -0.0534597 -0.05353053 -0.0535954 -0.05365382 -0.05370273 -0.05374229 -0.05377136 -0.05379109 -0.05380114 -0.05380511
 -0.05380409 -0.05380202 -0.05380047 -0.05380044 -0.05380251 -0.05380559 -0.05380961 -0.05381375 -0.05381792 -0.05382183
 -0.05382556 -0.05383129 -0.05383932 -0.05385344 -0.05387305 -0.05389804 -0.05392655 -0.05395289 -0.05397697 -0.05399523
 -0.05401038 -0.05402485 -0.05403979 -0.05405804 -0.05407691 -0.0540956 -0.05411178 -0.05412356 -0.05413264 -0.05413872
 -0.05414564 -0.05415402 -0.05416694 -0.05418509 -0.05420726 -0.05423351 -0.05425907 -0.05428389 -0.05430764 -0.05433114
 -0.05436151 -0.05439835 -0.05444527 -0.05449801 -0.05454697 -0.05458785 -0.05460589 -0.05460475 -0.05458119 -0.05454545
 -0.05450623 -0.05446919 -0.05444156 -0.05442124 -0.05440943 -0.05440171 -0.05439664 -0.05439327 -0.05439068 -0.05439249
 -0.05439912 -0.05441239 -0.05443257 -0.05445697 -0.05448546 -0.05451604 -0.05454862 -0.05458265 -0.05461634 -0.05464177
 -0.05465673 -0.05464866 -0.05462185 -0.05457715 -0.05452295 -0.05447204 -0.05442625 -0.05439263 -0.05436791 -0.05435155
 -0.05434221 -0.05433919 -0.05434176 -0.05435026 -0.05436097 -0.05437358 -0.05438321 -0.05438939 -0.05438739 -0.05437683
 -0.05435425 -0.05431973 -0.05427693 -0.05422671 -0.05417836 -0.05413152 -0.05408987 -0.05405154 -0.05401266 -0.05397282
 -0.05392915 -0.05388261 -0.05383367 -0.05378212 -0.05372731 -0.05367092 -0.05361272 -0.05355814 -0.05351012 -0.05346971
 -0.0534392 -0.05341125 -0.05338513 -0.05335277 -0.05331263 -0.05326434 -0.05320756 -0.05314858 -0.05308761 -0.05302868
 -0.05297052 -0.05290458 -0.05282839 -0.05272411 -0.05259486 -0.05243826 -0.05226326 -0.05208805 -0.05191397 -0.05175242
 -0.05159623 -0.05144164 -0.05128595 -0.05112458 -0.05096269 -0.05080231 -0.05064414 -0.05048991 -0.0503339 -0.05017555
 -0.05000891 -0.04983382 -0.04963941 -0.04942485 -0.04918144 -0.04890954 -0.04862658 -0.04833437 -0.04805794 -0.0477943
 -0.0475433 -0.04729991 -0.04704823 -0.04678826 -0.04651195 -0.0462225 -0.04592121 -0.04561029 -0.04529197 -0.04496865
 -0.04464474 -0.04431362 -0.04397861 -0.04361244 -0.04320762 -0.04274397 -0.04221089 -0.04163307 -0.04101146 -0.04037632
 -0.03973102 -0.03906675 -0.03838314 -0.03767011 -0.03693012 -0.03618323 -0.03542882 -0.03467928 -0.03392212 -0.03312667
 -0.03228302 -0.03134868 -0.03034137 -0.02926368 -0.02814538 -0.02702161 -0.02589445 -0.02477894 -0.02365948 -0.02253124
 -0.02138748 -0.02022474 -0.01904287 -0.01784693 -0.01660262 -0.01531325 -0.01387925 -0.0122922 -0.01049656 -0.008494858
 -0.006438531 -0.004337722 -0.002358819 -0.0004788183 0.001325301 0.003079484 0.004877288 0.006719713 0.008651479 0.0106692
 0.01277164 0.01499919 0.01736777 0.01998178 0.0229151 0.02623972 0.03005378 0.03419703 0.03867958 0.04316945
 0.04759138 0.05177543 0.05567687 0.05933239 0.0627375 0.06601328 0.0691684 0.07240397 0.07573858 0.07945261
 0.08351474 0.08797033 0.09267906 0.09720135 0.1015194 0.1053355 0.1088204 0.112102 0.1152965 0.1185891
 0.1219647 0.1254734 0.1290621 0.1327092 0.1364119 0.1401751 0.1439504 0.1477373 0.1514404 0.1550383
 0.158555 0.1619897 0.1654009 0.1687874 0.1720232 0.1750949 0.1778116 0.1801913 0.1822203 0.1839317
 0.1854325 0.1867123 0.1878044 0.1886799 0.1892864 0.1896766 0.1898716 0.1899556 0.1899984 0.1900342
 0.1901056 0.1901849 0.1902796 0.1903253 0.1903121 0.1901785 0.1899142 0.1894848 0.1888838 0.18815
 0.1872862 0.1863892 0.1854571 0.1845126 0.1835395 0.1824691 0.1812863 0.1799044 0.1783274 0.1765059
 0.1744911 0.1723252 0.1700826 0.1678614 0.1656833 0.1635977 0.1615873 0.1596426 0.1578002 0.1560573
 0.1545043 0.1531662 0.1520676 0.1512223 0.1505715 0.1501119 0.1497859 0.1495907 0.1495028 0.1495217
 0.1496354 0.1498411 0.1501182 0.1504641 0.1508594 0.1513062 0.1517995 0.1523417 0.1529355 0.1535781
 0.1542667 0.155001 0.1557772 0.1566059 0.1574896 0.1584415 0.1594666 0.1605724 0.1617621 0.1630366
 0.1643988 0.1658265 0.1673191 0.1688375 0.1703804 0.1719453 0.173536 0.1751968 0.1769182 0.1786837
 0.1804609 0.1821271 0.1836821 0.1850557 0.1862855 0.1874073 0.1884237 0.1893613 0.190183 0.1908683
 0.191398 0.1917608 0.1919358 0.1919254 0.1916586 0.1911113 0.1902837 0.1891514 0.1879274 0.1866317
 0.185354 0.1840968 0.1827242 0.1812313 0.1795194 0.1775995 0.1754805 0.1731718 0.1707248 0.1681048
 0.1652872 0.1621718 0.1585642 0.1544913 0.149793 0.1448872 0.1400412 0.1355032 0.1315576 0.1279357
 0.1246068 0.1213361 0.1180373 0.1147395 0.1114278 0.1082178 0.1051229 0.1021404 0.09926977 0.09642118
 0.0935943 0.09075188 0.08790687 0.08511172 0.0823728 0.07974661 0.07721307 0.07475748 0.0723553 0.06995875
 0.06756457 0.06515661 0.0627218 0.06026856 0.05770901 0.05501143 0.05207157 0.04878614 0.04538352 0.04184908
 0.03867536 0.03597116 0.03372542 0.03196394 0.03032883 0.02880314 0.02716565 0.02542555 0.02361383 0.0217539
 0.01999906 0.01833704 0.01680969 0.01538746 0.01401027 0.0126954 0.01143032 0.01027336 0.009289823 0.008497804
 0.007942516 0.007586712 0.007421947 0.007420996 0.007565989 0.007871773 0.00832941 0.009006846 0.009904148 0.01114992
 0.01275853 0.01478854 0.01724099 0.01984 0.02255681 0.0249545 0.0270441 0.02865611 0.02983636 0.03064615
 0.03112631 0.03139168 0.03147865 0.03148865 0.03145356 0.03144025 0.0314802 0.03162269 0.03186402 0.03223373
 0.0326463 0.03307995 0.03346377 0.03376927 0.0340045 0.03416467 0.03428179 0.03435879 0.03441131 0.03444019
 0.03443862 0.03440588 0.03433009 0.03421305 0.034056 0.03386684 0.0336679 0.03347735 0.03334366 0.03328912
 0.03337024 0.03359874 0.03400607 0.03460373 0.03540642 0.03643189 0.03769815 0.03919485 0.04092939 0.04285654
 0.04496268 0.04723943 0.04967462 0.05234547 0.05525839 0.05847452 0.0619968 0.06569098 0.06954049 0.0732931
 0.07695181 0.08040494 0.0836713 0.08676943 0.08968522 0.09240696 0.09488648 0.09704393 0.09883918 0.1001942
 0.1010994 0.1015205 0.1014684 0.1009361 0.09995102 0.09851478 0.09667508 0.09443131 0.09188402 0.08903508
 0.08606564 0.08299103 0.07996833 0.07700666 0.07411554 0.07128921 0.06844965 0.06560087 0.06272192 0.05983451
 0.05700862 0.05425081 0.05161976 0.04909012 0.04664907 0.04426722 0.04190399 0.03954927 0.03717694 0.03480383
 0.03242365 0.03008427 0.02779668 0.02561707 0.02356444 0.02165412 0.01989631 0.01825339 0.01672357 0.01526327
 0.01386997 0.01254949 0.01130584 0.01019541 0.00922008 0.008424116 0.007796353 0.00732327 0.006987593 0.006742807
 0.006576095 0.006446871 0.0063474 0.006254905 0.006162731 0.006060492 0.005938998 0.005791693 0.005609802 0.005388469
 0.005124214 0.004815341 0.004460571 0.004059754 0.003609738 0.003109832 0.002562712 0.001968456 0.001342031 0.0006847304
 1.651537E-05 -0.0006605599 -0.001325677 -0.001974543 -0.002581207 -0.00314148 -0.003630856 -0.004051731 -0.004395145 -0.004670424
 -0.004883937 -0.005045795 -0.005165197 -0.005251069 -0.005308771 -0.005350125 -0.005378642 -0.005410363 -0.005448529 -0.005510801
 -0.005599922 -0.005731318 -0.005906815 -0.006135722 -0.006418687 -0.00675738 -0.007151288 -0.007594259 -0.00808437 -0.008607429
 -0.009160653 -0.009725854 -0.01030262 -0.01088032 -0.01146129 -0.01204602 -0.01263286 -0.01322236 -0.01380577 -0.01437651
 -0.01492772 -0.01545201 -0.01595325 -0.0164304 -0.01689145 -0.01733911 -0.01777386 -0.01819706 -0.01860117 -0.01898565
 -0.01934395 -0.01967562 -0.01998267 -0.02026565 -0.02053353 -0.0207864 -0.0210302 -0.02126289 -0.02148039 -0.02167994
 -0.02185247 -0.02199706 -0.02210785 -0.0221856 -0.02222868 -0.02223876 -0.02221571 -0.022164 -0.02208468 -0.02198601
 -0.02187051 -0.02174726 -0.02161887 -0.02149186 -0.02136797 -0.02124853 -0.02113411 -0.02102124 -0.02090972 -0.0207979
 -0.02068617 -0.02058022 -0.02048083 -0.02039651 -0.02032631 -0.02027174 -0.02023022 -0.0201959 -0.02016744 -0.02013861
 -0.02011267 -0.02008927 -0.02007705 -0.02008116 -0.02011371 -0.02018247 -0.02029623 -0.02046104 -0.02067706 -0.02094669
 -0.02126191 -0.02162259 -0.02201628 -0.02244207 -0.02288662 -0.02334908 -0.02381943 -0.02429751 -0.02477982 -0.025267
 -0.02576134 -0.02626345 -0.02677712 -0.02730184 -0.02783896 -0.02838586 -0.02893938 -0.02949541 -0.03004771 -0.03059387
 -0.03112926 -0.0316548 -0.0321696 -0.03267564 -0.03317379 -0.03366425 -0.03414766 -0.03462172 -0.03508664 -0.03553701
 -0.03597244 -0.03638678 -0.03677956 -0.03715041 -0.03749965 -0.0378333 -0.03815125 -0.03845657 -0.03874679 -0.03901464
 -0.0392564 -0.03945877 -0.03962004 -0.03973014 -0.0397917 -0.03980303 -0.03976964 -0.03969627 -0.03958459 -0.03943921
 -0.0392516 -0.03902132 -0.03873347 -0.03838426 -0.03796254 -0.03746504 -0.03689096 -0.03623879 -0.03552189 -0.03474072
 -0.03392403 -0.03307368 -0.03222336 -0.03137308 -0.03054098 -0.02972294 -0.02891292 -0.02810627 -0.0272866 -0.02645511
 -0.02560423 -0.02474268 -0.02387715 -0.02301759 -0.02217546 -0.0213541 -0.02055903 -0.01978894 -0.01904322 -0.0183259
 -0.01763704 -0.01698465 -0.01637115 -0.01579482 -0.01525681 -0.01474215 -0.01425011 -0.01376101 -0.01327359 -0.01276617
 -0.01223669 -0.0116601 -0.01103499 -0.01034157 -0.009581158 -0.008747443 -0.007841513 -0.006863017 -0.00581113 -0.004682697
 -0.003483189 -0.002210842 -0.0008879678 0.0004783851 0.001852032 0.003219047 0.004546773 0.005822313 0.007034451 0.00817734
 0.00926102 0.01028565 0.01126366 0.01219596 0.01308644 0.01393544 0.01474849 0.01552644 0.01627966 0.01700641
 0.01770575 0.01837435 0.01899978 0.01958779 0.02013907 0.02067054 0.02120348 0.02175077 0.02233364 0.02294891
 0.02360345 0.02428119 0.02497818 0.02567796 0.02637359 0.02706381 0.02774512 0.02843481 0.02913434 0.02985807
 0.03060738 0.03137515 0.03216066 0.03294919 0.03374095 0.03453144 0.03532058 0.03610703 0.03688737 0.03765319
 0.03839817 0.03910907 0.03977588 0.04038259 0.04091695 0.04136207 0.04171354 0.04196209 0.04211436 0.04217096
 0.04213776 0.04201669 0.04181015 0.04151724 0.04115028 0.04070943 0.04021672 0.03967362 0.03909634 0.03848529
 0.0378461 0.03717857 0.03648381 0.03576199 0.03501344 0.03424073 0.03344911 0.03264518 0.03184328 0.03104879
 0.03027546 0.02952262 0.02879435 0.02808868 0.0274057 0.02674319 0.02610212 0.02547284 0.02485339 0.02423366
 0.02360954 0.02298854 0.02237028 0.0217708 0.02119156 0.02062993 0.02008487 0.01953299 0.01897274 0.01838154
 0.01775963 0.01709585 0.01639184 0.01564524 0.01486015 0.01404145 0.01319691 0.01233683 0.01147191 0.01061406
 0.009773762 0.008962148 0.008179815 0.007432624 0.00670602 0.005998018 0.005292039 0.004583665 0.003869443 0.003148099
 0.002422973 0.001694319 0.0009608543 0.00022243 -0.000524141 -0.001279147 -0.002045644 -0.002824783 -0.003623959 -0.004442473
 -0.005283921 -0.006142945 -0.007010599 -0.00788403 -0.008753322 -0.009625084 -0.01050162 -0.01138959 -0.01229643 -0.01321655
 -0.01415112 -0.0150874 -0.01602213 -0.01694555 -0.01785471 -0.01874752 -0.01962209 -0.02049136 -0.02135555 -0.02224275
 -0.02315418 -0.0241118 -0.02511365 -0.02615525 -0.02723139 -0.0283176 -0.02940916 -0.03048052 -0.03152934 -0.03253852
 -0.03351009 -0.0344382 -0.03533032 -0.03619044 -0.03702704 -0.03784721 -0.03865389 -0.03945099 -0.04023506 -0.04100673
 -0.04175842 -0.04248917 -0.043191 -0.04386269 -0.04450054 -0.04510413 -0.04567363 -0.04620899 -0.04670838 -0.04717163
 -0.04759603 -0.04798255 -0.04833375 -0.04865139 -0.04894166 -0.04920592 -0.04944865 -0.04967304 -0.04988381 -0.05008706
 -0.0502903 -0.05049657 -0.05071199 -0.0509302 -0.05115201 -0.05136309 -0.05156031 -0.05172891 -0.05186509 -0.05196212
 -0.05201775 -0.05203844 -0.05202412 -0.0519906 -0.05193876 -0.05188553 -0.05183167 -0.05179135 -0.05176456 -0.05175965
 -0.05177452 -0.05180766 -0.05185686 -0.05191603 -0.05198662 -0.05206864 -0.05216201 -0.05227019 -0.05238138 -0.05249184
 -0.05258267 -0.0526439 -0.05266669 -0.05264473 -0.05258294 -0.052481 -0.05234572 -0.05217795 -0.05198183 -0.05175761
 -0.05151099 -0.05124228 -0.05095797 -0.05065795 -0.05034425 -0.05001638 -0.04967276 -0.0493141 -0.04894065 -0.04855578
 -0.04816548 -0.04777434 -0.04739153 -0.04701872 -0.0466621 -0.0463173 -0.04598389 -0.04565581 -0.04532909 -0.04500465
 -0.04468004 -0.04436661 -0.04406536 -0.04379074 -0.04354536 -0.04333276 -0.04315399 -0.04299555 -0.04285661 -0.04271866
 -0.04258197 -0.04244088 -0.04229729 -0.04215797 -0.04202237 -0.0418938 -0.04176737 -0.04163539 -0.04149255 -0.04132732
 -0.04113951 -0.04092365 -0.04068472 -0.04042409 -0.04014703 -0.03985669 -0.0395544 -0.0392409 -0.03891762 -0.03858374
 -0.03824784 -0.0379102 -0.03758419 -0.0372709 -0.03697844 -0.03670703 -0.03645662 -0.03622678 -0.03601388 -0.03581735
 -0.0356328 -0.03545952 -0.03529328 -0.03513347 -0.03497717 -0.03482326 -0.03466947 -0.03451364 -0.03435325 -0.03418574
 -0.03400901 -0.03382046 -0.03361815 -0.0334016 -0.03316854 -0.03292757 -0.03267865 -0.03243799 -0.03220828 -0.03199552
 -0.03180126 -0.03160902 -0.03141776 -0.03120192 -0.03096122 -0.03068201 -0.030367 -0.03002051 -0.02964809 -0.02926744
 -0.02888513 -0.02852339 -0.02818477 -0.02788448 -0.027616 -0.02738168 -0.02716465 -0.02695725 -0.02673666 -0.02649011
 -0.02620481 -0.02587035 -0.02549962 -0.02509152 -0.02467135 -0.02424355 -0.02381385 -0.02338362 -0.02294144 -0.02248711
 -0.02202415 -0.02155467 -0.02110125 -0.02066396 -0.02025654 -0.01987417 -0.01951041 -0.01915798 -0.01879962 -0.01842833
 -0.01802409 -0.01759114 -0.01712016 -0.01663679 -0.01615407 -0.01569691 -0.01528662 -0.01491115 -0.01457566 -0.01424411
 -0.01390724 -0.0135549 -0.01318114 -0.01281458 -0.01245655 -0.01214015 -0.01186665 -0.01164424 -0.01147044 -0.01132536
 -0.01120424 -0.01107282 -0.01092873 -0.01074541 -0.01052614 -0.010264 -0.009965658 -0.00963625 -0.009285703 -0.008923166
 -0.008563987 -0.008221296 -0.00790539 -0.007627893 -0.007379268 -0.007161493 -0.006952565 -0.006747614 -0.006534111 -0.006308211
 -0.006076643 -0.005838989 -0.005615144 -0.005405967 -0.005223367 -0.005064709 -0.00490947 -0.004751492 -0.00454689 -0.004295784
 -0.003972692 -0.003587753 -0.003150345 -0.002668933 -0.002161799 -0.001628291 -0.001074856 -0.0004976545 0.0001064568 0.0007324598
 0.001385364 0.002034557 0.002677916 0.003259964 0.003766811 0.004169011 0.004454075 0.004666403 0.004806532 0.004952367
 0.005107498 0.005312143 0.005565046 0.005867481 0.006217396 0.006608018 0.007033783 0.007477316 0.007925635 0.008342907
 0.008719232 0.009021408 0.009254456 0.009407911 0.009499829 0.009537809 0.009542619 0.009527063 0.009500533 0.009470722
 0.009431637 0.009382019 0.009323079 0.009252294 0.009194331 0.009150911 0.009144083 0.009174692 0.009235664 0.009325936
 0.009430677 0.009551397 0.009688688 0.009844501 0.01002553 0.01023247 0.0104714 0.01073865 0.01103612 0.01134645
 0.01165305 0.01194041 0.01218391 0.01240479 0.01260094 0.01281715 0.01307894 0.01336421 0.01368244 0.01394741
 0.01414177 0.0142607 0.01429957 0.0143115 0.01429897 0.0142966 0.01430457 0.01433711 0.01439229 0.01446969
 0.01456341 0.01465411 0.01473707 0.0147907 0.01481801 0.01481488 0.01478366 0.01472594 0.01464154 0.01452736
 0.0143952 0.01424864 0.0141024 0.01396412 0.01383332 0.01370942 0.01360043 0.01350461 0.01345429 0.01345351
 0.01350461 0.01360723 0.01369632 0.01376708 0.01374226 0.01362373 0.01338007 0.0130199 0.01255009 0.01198878
 0.01137053 0.01073139 0.01014093 0.009625828 0.009252739 0.008994806 0.008861871 0.008795963 0.008768283 0.008747036
 0.008709705 0.008666515 0.008610621 0.008586288 0.008598278 0.008688108 0.008862757 0.009100959 0.009401594 0.009706119
 0.01001571 0.01032634 0.01064431 0.01100754 0.01141001 0.01185209 0.01232289 0.01279476 0.01326911 0.01373767
 0.01419981 0.01465368 0.01509315 0.01550579 0.01591304 0.01631548 0.01675828 0.01726114 0.01783612 0.0184963
 0.01920401 0.01995753 0.02070924 0.02145444 0.02216392 0.02283602 0.02346665 0.02405732 0.02462641 0.02517357
 0.02570923 0.02622535 0.02669961 0.02712551 0.02747462 0.02775135 0.02794986 0.02807695 0.02813675 0.02813791
 0.02808569 0.02799463 0.02787621 0.02772895 0.02755725 0.02734521 0.02708377 0.02679674 0.02648156 0.02620099
 0.02596231 0.02578331 0.0256651 0.02556209 0.02547319 0.0253704 0.02525913 0.02515906 0.02507075 0.02500924
 0.02496554 0.02492673 0.02488378 0.0248166 0.02472011 0.02457932 0.02439815 0.0241732 0.02391484 0.02363255
 0.02331434 0.02296306 0.02254418 0.02204577 0.02146774 0.02080273 0.02010246 0.01937084 0.01865064 0.01794435
 0.01725104 0.01656999 0.01589065 0.0152146 0.01454549 0.01388652 0.01324937 0.01263932 0.01207584 0.01155841
 0.01110094 0.01068362 0.01029167 0.009902761 0.009489884 0.009057248 0.008595452 0.00812936 0.007663226 0.007227285
 0.00682623 0.006499442 0.006254326 0.006113896 0.006084751 0.006119444 0.006215584</values></Ydata></AB><ScSm><Ydata ylabel="Single channel"><values byteorder="INTEL" format="FLOAT32" numvalues="1814"> 0.07457753 0.07458718 0.07466715 0.07484496 0.07508718 0.07531855 0.07547718 0.07555445 0.0755735 0.0755426
 0.07546654 0.0754016 0.07544391 0.07563405 0.0758969 0.07609384 0.07613489 0.07605705 0.07600127 0.07607675
 0.07621795 0.07620272 0.07585911 0.07526194 0.07468762 0.07435866 0.07430089 0.07450233 0.07505287 0.07588774
 0.07649698 0.07629091 0.07534441 0.07442673 0.07414851 0.07437618 0.07459423 0.07450026 0.07409866 0.07357949
 0.07336551 0.07399972 0.07561246 0.07747919 0.0782792 0.07692971 0.07336056 0.06875742 0.06512296 0.06420492
 0.06626643 0.06973065 0.07236161 0.07304738 0.07233512 0.07130431 0.07040513 0.06959366 0.06907906 0.06936495
 0.07055377 0.07187622 0.07208731 0.07053185 0.0679259 0.06584745 0.06529507 0.06606323 0.06759235 0.06957996
 0.07111685 0.07019456 0.06568268 0.05983208 0.05726891 0.06059226 0.0676002 0.07344708 0.07495619 0.07239749
 0.06807597 0.06442237 0.06307721 0.06444991 0.06764842 0.07122013 0.07403094 0.07531357 0.07447121 0.07159723
 0.06798597 0.06550746 0.06545981 0.06805792 0.07238333 0.07646818 0.07819468 0.07686163 0.0736477 0.07036515
 0.06826796 0.06806248 0.07008632 0.07395145 0.07852261 0.08257876 0.08531348 0.08641091 0.08610727 0.0850416
 0.08377143 0.0826847 0.08233951 0.08311543 0.08431134 0.08441743 0.08276061 0.08040428 0.07905269 0.07928994
 0.08011718 0.08016846 0.07909301 0.07732696 0.07473996 0.07061364 0.06528905 0.06060221 0.05804759 0.0576411
 0.05901262 0.06198667 0.06530038 0.06653588 0.06477275 0.0622684 0.06221605 0.06533588 0.06951122 0.07236773
 0.07346635 0.07412475 0.0757235 0.07829863 0.08036841 0.08005 0.07692835 0.07310725 0.07172179 0.07386113
 0.07752217 0.08007143 0.0810186 0.08172733 0.08302845 0.08393192 0.08266114 0.07876687 0.07425939 0.07236426
 0.07471263 0.07970798 0.08368637 0.08363248 0.07921062 0.072829 0.06775712 0.06586528 0.06713139 0.07089062
 0.07656068 0.0829889 0.08815478 0.09030443 0.08923182 0.08617207 0.08239844 0.07805416 0.07281558 0.06782355
 0.06591947 0.06895256 0.07540808 0.08167222 0.08525933 0.08604683 0.08486217 0.08195086 0.07721291 0.07166597
 0.06791125 0.06811053 0.07138164 0.07430751 0.07451381 0.07282741 0.07150605 0.07142571 0.07176818 0.07175186
 0.07173467 0.07258825 0.07444799 0.07638954 0.07732939 0.07701413 0.07605314 0.07520591 0.07469682 0.07406241
 0.07280269 0.07137636 0.0711437 0.07287551 0.07569101 0.07796478 0.07895584 0.07907161 0.0787889 0.0778373
 0.0756143 0.07233927 0.06952077 0.06883402 0.07049397 0.07312518 0.07519378 0.07610655 0.07604884 0.07542489
 0.07459021 0.07373805 0.07295692 0.07247695 0.07261015 0.07329637 0.07401074 0.0742941 0.07412691 0.07368612
 0.07301397 0.07208501 0.07104215 0.07020877 0.06985628 0.06999435 0.07040796 0.07085574 0.07115646 0.07114677
 0.07073928 0.0700523 0.06933879 0.06875849 0.06832517 0.06805487 0.06801032 0.06816891 0.06836647 0.0684308
 0.06831732 0.06808429 0.0677858 0.0674313 0.06702825 0.06662938 0.0663275 0.06618898 0.06617805 0.06617963
 0.06613213 0.06609069 0.06610337 0.06608506 0.06590427 0.06556091 0.06519315 0.06492621 0.06477667 0.06468704
 0.064588 0.064413 0.06410082 0.06364703 0.06316825 0.06285924 0.06283789 0.06305742 0.06338322 0.06369524
 0.06390187 0.06394783 0.06385824 0.06371512 0.06355867 0.06335776 0.06308901 0.06280682 0.06262334 0.0626242
 0.06279001 0.06300411 0.06315193 0.0631973 0.06316369 0.06309634 0.06305486 0.06307547 0.06311511 0.06308597
 0.06296463 0.06282534 0.06275441 0.06275973 0.06277139 0.06272263 0.06262746 0.06256714 0.06259552 0.0626826
 0.06276309 0.0628105 0.06284434 0.06288305 0.06290511 0.0628607 0.06273168 0.06257177 0.06245907 0.06241431
 0.06239996 0.06239255 0.06241196 0.06247375 0.06254776 0.06258219 0.06255852 0.06250833 0.06246939 0.062434
 0.06236074 0.06223556 0.06209516 0.0619843 0.06191215 0.0618574 0.06179775 0.06172466 0.06163845 0.06153808
 0.06141858 0.06127649 0.06111285 0.06093404 0.06076032 0.06062745 0.0605577 0.06052466 0.06046498 0.06033561
 0.06015291 0.0599709 0.05982633 0.05971057 0.05959417 0.05946873 0.05935426 0.05927093 0.05921959 0.05919025
 0.05917351 0.05916278 0.0591638 0.05920721 0.05933018 0.05953054 0.05975132 0.0599287 0.06005045 0.06015462
 0.06027881 0.06042815 0.06058934 0.06075781 0.06094517 0.06116383 0.0614016 0.06161713 0.06177789 0.06190257
 0.06204465 0.06223413 0.06245664 0.06268607 0.0629067 0.0631032 0.06326385 0.06340441 0.06356288 0.06375682
 0.06396461 0.06415884 0.06434232 0.06453691 0.06475061 0.06497461 0.06520791 0.06546748 0.06576976 0.06610857
 0.06645213 0.06676126 0.06702065 0.06725927 0.0675327 0.06787627 0.06827497 0.06867857 0.06904347 0.06936389
 0.06966683 0.06997766 0.07029843 0.07062753 0.07098474 0.07139209 0.0718365 0.07227753 0.0726911 0.07308519
 0.07347578 0.073869 0.07426692 0.07467468 0.07509853 0.07554066 0.075993 0.07643425 0.07684082 0.07720643
 0.0775502 0.07790525 0.07829595 0.07871304 0.0791087 0.07943454 0.07969835 0.07996663 0.0802924 0.08065437
 0.08099057 0.08128151 0.08156927 0.08189467 0.08224829 0.08259445 0.08291943 0.08323772 0.0835643 0.08389355
 0.08419916 0.08445112 0.08464234 0.08480115 0.08496994 0.08517589 0.08543111 0.08574494 0.0861104 0.08648524
 0.08681345 0.08706822 0.08726113 0.08742046 0.08757886 0.08776751 0.08799849 0.08825567 0.08851296 0.08874939
 0.08894697 0.08910374 0.08925894 0.08947243 0.08976223 0.09009007 0.09042288 0.09077526 0.0911683 0.09157872
 0.09196685 0.0923399 0.09274474 0.09319282 0.09362853 0.09398745 0.094258 0.09446898 0.09464929 0.09483144
 0.09507008 0.09541134 0.09584313 0.09630277 0.09673559 0.09712952 0.09749722 0.09784445 0.09816049 0.09842943
 0.09864381 0.09880845 0.09893797 0.09905739 0.0991991 0.09938093 0.09958141 0.09974919 0.09984045 0.09983437
 0.09971458 0.09946735 0.09911498 0.0987246 0.09835112 0.09797493 0.09751824 0.09691932 0.09617133 0.0952944
 0.0943004 0.09319983 0.09203036 0.09086437 0.08978834 0.08887734 0.08818784 0.08777104 0.08767819 0.08792878
 0.08846159 0.08912817 0.08974472 0.09014891 0.09021989 0.08988789 0.08916322 0.08814902 0.08699548 0.08582738
 0.08470742 0.08364369 0.08261198 0.08159 0.08060633 0.07976642 0.07922621 0.07915267 0.07971579 0.08107121
 0.08326669 0.08612426 0.08924701 0.09219936 0.09471542 0.09676027 0.09843911 0.09988333 0.1011939 0.1024214
 0.103563 0.1045912 0.1054957 0.1062897 0.1069837 0.1075699 0.1080329 0.1083613 0.1085572 0.1086484
 0.1086833 0.1087052 0.1087373 0.1087942 0.1088849 0.1089885 0.109037 0.1089387 0.1086195 0.1080429
 0.1072112 0.1061981 0.1052356 0.1047686 0.105321 0.1071749 0.1101266 0.1135816 0.1169111 0.1197368
 0.1219608 0.1236482 0.1249275 0.1259373 0.1267867 0.1275395 0.1282273 0.1288684 0.1294758 0.1300585
 0.1306224 0.1311702 0.1317068 0.1322397 0.1327702 0.1332872 0.1337801 0.134257 0.1347406 0.1352447
 0.1357578 0.1362533 0.1367182 0.1371663 0.1376168 0.1380664 0.1384954 0.1388983 0.1392917 0.1396951
 0.1401168 0.140556 0.1409999 0.1414225 0.1418011 0.1421376 0.142457 0.1427836 0.1431251 0.1434754
 0.1438253 0.1441683 0.1445025 0.1448333 0.1451718 0.145523 0.1458714 0.1461911 0.1464732 0.1467388
 0.1470188 0.1473263 0.1476492 0.1479653 0.1482656 0.148566 0.1488939 0.1492575 0.1496309 0.1499755
 0.1502753 0.1505474 0.1508213 0.151116 0.1514346 0.1517724 0.152119 0.1524581 0.1527768 0.1530779
 0.1533772 0.1536867 0.1540032 0.1543154 0.1546167 0.1549103 0.1552022 0.1554954 0.1557917 0.1560988
 0.1564271 0.1567748 0.1571192 0.1574312 0.1576981 0.1579311 0.1581533 0.1583837 0.1586331 0.1589058
 0.1592003 0.159507 0.159809 0.1600929 0.1603587 0.1606191 0.1608881 0.1611718 0.1614681 0.1617699
 0.1620712 0.1623697 0.1626639 0.1629493 0.1632231 0.1634918 0.1637658 0.1640462 0.164324 0.1645927
 0.164855 0.1651166 0.1653804 0.1656473 0.1659188 0.1661964 0.1664777 0.166757 0.1670283 0.1672911
 0.1675493 0.1678079 0.1680705 0.1683384 0.1686105 0.1688828 0.1691525 0.1694201 0.1696907 0.1699717
 0.170265 0.170561 0.1708445 0.1711107 0.1713695 0.1716338 0.1719064 0.1721785 0.1724384 0.1726838
 0.1729252 0.1731749 0.1734352 0.1736998 0.1739623 0.1742192 0.174472 0.1747275 0.1749914 0.1752609
 0.175529 0.1757935 0.1760564 0.176319 0.1765813 0.1768419 0.1770993 0.1773542 0.1776104 0.1778692
 0.1781295 0.1783935 0.1786636 0.1789341 0.1791956 0.1794447 0.179685 0.1799214 0.180156 0.1803872
 0.1806125 0.1808358 0.1810652 0.181302 0.1815416 0.1817852 0.1820397 0.1823071 0.1825823 0.1828581
 0.183129 0.1833951 0.1836607 0.1839236 0.1841735 0.1844095 0.1846466 0.1848989 0.1851667 0.1854409
 0.1857122 0.1859773 0.1862437 0.1865204 0.1868026 0.1870766 0.1873374 0.1875881 0.1878306 0.1880669
 0.1883031 0.1885442 0.1887927 0.1890508 0.1893132 0.1895696 0.189819 0.190068 0.1903151 0.190556
 0.190798 0.191049 0.1913038 0.1915541 0.1917999 0.1920431 0.1922867 0.1925376 0.1927965 0.1930548
 0.1933088 0.1935607 0.1938076 0.1940473 0.1942862 0.1945261 0.1947609 0.1949936 0.195229 0.1954477
 0.1955955 0.1955477 0.1950015 0.1933594 0.1897183 0.1830485 0.1725983 0.158363 0.1412552 0.1227866
 0.1045135 0.08763149 0.07285228 0.06049184 0.05062547 0.04318848 0.03803204 0.03501942 0.03413711 0.03561705
 0.04006343 0.0480898 0.05896572 0.0694271 0.07495277 0.07333395 0.06678237 0.05991074 0.05590362 0.05498876
 0.05581255 0.05721471 0.05881973 0.06083366 0.06362444 0.06730078 0.07168289 0.07675186 0.08287962 0.09035239
 0.098787 0.1072873 0.1152182 0.1227025 0.1303177 0.1383916 0.1466562 0.1545141 0.1615165 0.1675841
 0.1729076 0.1777358 0.1822389 0.1864972 0.1905528 0.1944029 0.1979146 0.2007929 0.2027235 0.2036108
 0.2036931 0.2034127 0.2031559 0.2030986 0.2032484 0.2035649 0.2040215 0.2046082 0.2053223 0.2061516
 0.2070571 0.2079868 0.2089024 0.2097842 0.2106198 0.2114034 0.2121356 0.2128143 0.2134355 0.2140022
 0.2145225 0.2150012 0.2154428 0.2158556 0.2162479 0.2166257 0.2169957 0.2173621 0.2177195 0.2180559
 0.2183607 0.2186295 0.2188683 0.2190937 0.219322 0.2195584 0.2198016 0.2200516 0.2203083 0.2205675
 0.2208241 0.2210728 0.2213075 0.2215273 0.2217422 0.221965 0.2221986 0.222437 0.2226728 0.2229035
 0.2231318 0.223365 0.2236068 0.2238528 0.2240947 0.224329 0.224558 0.2247869 0.2250184 0.2252492
 0.2254768 0.2257096 0.2259587 0.2262206 0.2264804 0.2267326 0.2269844 0.2272417 0.2275069 0.2277814
 0.2280563 0.2283077 0.2285161 0.2286914 0.2288724 0.2290974 0.229371 0.2296624 0.2299388 0.2301937
 0.2304395 0.2306831 0.2309186 0.2311348 0.2313315 0.2315395 0.2318041 0.2321336 0.2324833 0.2328077
 0.2331016 0.2333803 0.2336549 0.2339365 0.2342268 0.2344962 0.2347079 0.2348757 0.2350756 0.2353847
 0.2358056 0.2362544 0.2366385 0.2369406 0.2372131 0.2375109 0.2378576 0.2382261 0.2385139 0.2386094
 0.238557 0.238593 0.2389303 0.2395462 0.2402348 0.2408206 0.2412691 0.2416349 0.2419671 0.2422613
 0.2424697 0.2425588 0.2425829 0.2427039 0.2430804 0.2437016 0.2443785 0.2449348 0.245344 0.2456599
 0.2459216 0.2461537 0.2463233 0.2462747 0.2458974 0.2454267 0.2453804 0.246054 0.2471852 0.2482334
 0.2489114 0.2493275 0.2496826 0.2500252 0.2503111 0.2504481 0.2501735 0.2492011 0.2477719 0.2468158
 0.2471858 0.2487996 0.2507862 0.2523588 0.2533113 0.2538298 0.2541596 0.2544382 0.2545882 0.2543192
 0.2534565 0.2523794 0.2519238 0.2526105 0.2540591 0.2553954 0.2561437 0.2564777 0.2567487 0.2570921
 0.2573392 0.2569813 0.2554548 0.2529718 0.2509422 0.2509858 0.2533456 0.2565922 0.2590411 0.2602056
 0.2606614 0.2608035 0.2602691 0.2585924 0.255898 0.2528485 0.2504427 0.2498794 0.2517624 0.2551041
 0.2578851 0.259047 0.2593886 0.2602409 0.261876 0.2635136 0.2643428 0.2641476 0.2631672 0.2616599
 0.2597822 0.2579978 0.2573231 0.2586113 0.2615178 0.2646187 0.2667264 0.2677913 0.268285 0.2678118
 0.2648242 0.2584787 0.2509738 0.2469539 0.249412 0.2565571 0.2637407 0.2680316 0.2698278 0.2706793
 0.2712083 0.2709276 0.2685214 0.2625701 0.253782 0.246388 0.2452824 0.2511914 0.2598559 0.2660035
 0.2669427 0.2628622 0.2558923 0.2494679 0.2469238 0.2494685 0.2556539 0.2628102 0.2686514 0.271894
 0.2722413 0.2702662 0.2673666 0.2654194 0.2654264 0.2660312 0.2645411 0.2603255 0.2558682 0.2531244
 0.2504993 0.245803 0.2410451 0.2411034 0.2473789 0.2554555 0.2600572 0.2603962 0.2592385 0.2578691
 0.2538897 0.2446746 0.2323416 0.2238329 0.2248362 0.2338992 0.2437375 0.2483558 0.2478078 0.2460814
 0.245768 0.2454201 0.241613 0.2334127 0.2246257 0.2205991 0.2225383 0.226416 0.2277372 0.2251629
 0.2189573 0.2094754 0.1996531 0.1959458 0.2028629 0.217406 0.2314333 0.2383887 0.235712 0.2233315
 0.2044432 0.1872903 0.1811665 0.1881398 0.2005618 0.208114 0.2060111 0.1958414 0.1810853 0.1646784
 0.1503199 0.1429319 0.1456779 0.1567212 0.1694667 0.1759698 0.1713151 0.1573158 0.1425979 0.1363958
 0.1402961 0.1472783 0.1496183 0.1458731 0.139752 0.1352072 0.1340867 0.1360173 0.1388665 0.1406595
 0.1411485 0.139796 0.1336729 0.121088 0.1065972 0.09805784 0.09842813 0.1042198 0.1118599 0.1208434
 0.1296352 0.1335197 0.1299375 0.1234084 0.1217146 0.1276632 0.1366744 0.1423729 0.142924 0.1413805
 0.1409544 0.1415078 0.1412803 0.1408175 0.1430719 0.149291 0.156778 0.161879 0.1637798 0.1641589
 0.1643851 0.1645042 0.1641791 0.1632907 0.1618905 0.1603045 0.1590237 0.1581421 0.1572694 0.1561013
 0.1544105 0.1512436 0.1451507 0.1362756 0.1276503 0.1228392 0.1222216 0.1232033 0.1240731 0.1250422
 0.1247058 0.1189949 0.1065809 0.09332499 0.08800933 0.09386388 0.1061899 0.1177138 0.1241052 0.1243126
 0.1184354 0.1080627 0.09827487 0.09605402 0.1045378 0.1199808 0.1357893 0.1481991 0.1566165 0.1604547
 0.1586428 0.1521432 0.144918 0.1417036 0.1451841 0.154774 0.1666838 0.174744 0.1734163 0.1634023
 0.1543182 0.1575747 0.1742097 0.1929434 0.202844 0.2044778 0.2053003 0.2080791 0.2095836 0.2089261
 0.2108223 0.2191152 0.2310526 0.2399382 0.2409564 0.2330441 0.2182527 0.2022142 0.1927264 0.193641
 0.2007264 0.2064646 0.20741 0.2037725 0.1950052 0.1817899 0.1708518 0.1708677 0.1824061 0.1967312
 0.2057687 0.2094859 0.2122686 0.2153526 0.2153137 0.2092485 0.1995977 0.1926272 0.1921734 0.1962158
 0.2001471 0.2015649 0.200361 0.1960495 0.1880462 0.1785235 0.1724087 0.1731443 0.1791957 0.1855753
 0.1884013 0.18739 0.1845709 0.1818343 0.1797618 0.1778307 0.1755623 0.1740003 0.1755331 0.1812162
 0.1888548 0.1951531 0.1994492 0.2039031 0.2100904 0.2167677 0.2213001 0.2224821 0.2217005 0.2217604
 0.2246115 0.2297332 0.2344791 0.2363163 0.2352243 0.2339414 0.2354482 0.2401201 0.2456911 0.2498434
 0.2521256 0.2534293 0.2545764 0.2556508 0.2559586 0.2545638 0.2516322 0.2492303 0.2498625 0.253975
 0.2595089 0.2639899 0.2664916 0.2675332 0.2677759 0.2673063 0.2660087 0.2642041 0.2626704 0.2620569
 0.2624434 0.2634849 0.2648005 0.2661446 0.2673871 0.2684937 0.2694941 0.2704119 0.2712525 0.2720442
 0.2728098 0.2734917 0.2740071 0.2744059 0.2748806 0.2755529 0.2763126 0.2769381 0.2773015 0.2773647
 0.2770441 0.276238 0.2749878 0.2734743 0.2718116 0.2699705 0.2680182 0.2663906 0.2657687 0.2665718
 0.2685688 0.2710268 0.2732244 0.2748111 0.2757809 0.276274 0.2764598 0.2765048 0.2765373 0.2766104
 0.2767148 0.2768297 0.2769526 0.2770866 0.277227 0.2773792 0.2775776 0.27786 0.2782234 0.2786126
 0.2789511 0.279184 0.2793077 0.2793634 0.2793883 0.2793676 0.2792391 0.2789443 0.2784734 0.2778757
 0.2772367 0.27663 0.276062 0.2754596 0.2747291 0.2738256 0.2727446 0.271461 0.2699383 0.2682172
 0.2664362 0.2647178 0.2630693 0.2614228 0.2597248 0.257952 0.2560838 0.2541127 0.2520699 0.2500066
 0.2479533 0.2459091 0.2438647 0.2418205 0.2397793 0.2377309 0.2356511 0.2335137 0.2312965 0.2289763
 0.2265142 0.2238368 0.2208286 0.217359 0.2133328 0.2087239 0.2035845 0.1980454 0.1923028 0.1865767
 0.1810569 0.175873 0.1711042 0.1668175 0.1630943 0.1600135 0.157612 0.1558805 0.1547973 0.1543536
 0.1545458 0.1553522 0.1567094 0.1585051 0.1605947 0.1628243 0.1650389 0.167096 0.1689123 0.1705067
 0.1719804 0.1734391 0.1749236 0.1764116 0.1778727 0.1793004 0.1806869 0.1819978 0.1832015 0.1843087
 0.1853641 0.1864082 0.1874566 0.1884955 0.1894878 0.1903962 0.1912082 0.1919378 0.1926178 0.1932902
 0.1939862 0.1947087 0.1954518 0.1962379 0.197117 0.1981251 0.1992542 0.2004676 0.201737 0.203056
 0.2044151 0.2057885 0.2071691 0.2086062 0.2101793 0.2119356 0.2138658 0.215923 0.2180402 0.2201402
 0.2221453 0.2239853 0.2256126 0.22702 0.2282337 0.2292791 0.2301637 0.2308938 0.2314902 0.2319885
 0.2324369 0.2328838 0.2333497 0.2338153 0.2342406 0.2345901 0.234848 0.2350258 0.2351541 0.2352577
 0.2353413 0.2354003 0.2354317 0.2354337 0.2353996 0.2353146 0.2351605 0.2349301 0.2346349 0.2342924
 0.233912 0.2334918 0.2330103 0.2324236 0.2316922 0.2308064 0.2297696 0.228572 0.2272071 0.2257025
 0.2241119 0.2224781 0.2208098 0.2190896 0.2173 0.2154362 0.2134829 0.2113982 0.2091589 0.2068201
 0.2044973 0.2022827 0.2001963 0.1982071 0.1962786 0.1943979 0.1925772 0.1908306 0.1891574 0.1875525
 0.1860206 0.1845646 0.1831762 0.1818523 0.1806141 0.1794994 0.1785361 0.1777205 0.1770183 0.1763924
 0.175826 0.1753205 0.1748868 0.1745455 0.1743126 0.1741618 0.1740187 0.173807 0.1734973 0.1731171
 0.1727282 0.172389 0.1721223 0.1719176 0.1717518 0.171586 0.1713434 0.1709134 0.1701847 0.1690786
 0.1675761 0.1657311 0.1636526 0.1614751 0.1593406 0.1573761 0.1556625 0.1542297 0.1530758 0.1521683
 0.1514379 0.150814 0.1502796 0.1498815 0.1496809 0.1496728 0.1497332 0.149682 0.1494471 0.1491494
 0.1489991 0.149129 0.1495272 0.150074 0.1506133 0.1510281 0.1512769 0.1513706 0.1513366 0.1512056
 0.1509976 0.1507134 0.1503616 0.1499745 0.1495759 0.1491561 0.1486852 0.1481253 0.1474423 0.1466383
 0.1457518 0.1448091 0.1438091 0.1427424 0.1415763 0.1402671 0.138872 0.1376176 0.1367838 0.1365245
 0.1368006 0.137426 0.1381824 0.13894 0.1396233 0.1400509 0.1400019 0.1395977 0.1394747 0.1403263
 0.1422371 0.1445787 0.1465599 0.1477726 0.1482197 0.1480354 0.1473428 0.1462513 0.1447897 0.1428845
 0.140514 0.1377973 0.1348789 0.1318756 0.1289592 0.126323 0.1240665 0.1222072 0.1207364 0.1196869
 0.1191806 0.118857 0.1168967 0.1109698 0.1018312 0.0949502 0.09593994 0.1042574 0.113554 0.1183753
 0.1185145 0.116831 0.1153292 0.1143391 0.113784 0.1138142 0.1145514 0.1158377 0.1172661 0.118428
 0.1191667 0.1195216 0.1194391 0.1185783 0.1162776 0.1117577 0.1047445 0.09605194 0.08731617 0.08003124
 0.0748882 0.07180864 0.07024533 0.06948253 0.06898984 0.06868757 0.06886821 0.06984152 0.07165991 0.07415599
 0.07712475 0.0803294 0.08339208 0.08592415 0.08782917 0.08929992 0.09047466 0.09126315 0.09153313 0.09130278
 0.09070774 0.08989018 0.08895452 0.08795772 0.08689193 0.0857048 0.08441273 0.08321335 0.08239047 0.08204836
 0.08202544 0.08210495 0.08219279 0.08226512 0.08229214 0.08226617 0.08221716 0.08219871 0.08230375 0.08262056
 0.08311455 0.08362447 0.08400955 0.08425172 0.08441991 0.08455542 0.08456504 0.08429192 0.08378451 0.08335041
 0.08314477 0.08286199 0.08211847 0.08104631 0.08022678 0.08006398 0.08043195 0.08091018 0.08117688 0.08116464
 0.08102017 0.08101564 0.08137253 0.08200774</values></Ydata></ScSm><ScRf><Ydata ylabel="Single channel"><values byteorder="INTEL" format="FLOAT32" numvalues="1820"> 0.0606406 0.06079834 0.06089251 0.06092592 0.06092614 0.06093788 0.06100513 0.06114543 0.06133509 0.06151975
 0.06165012 0.06171458 0.06172877 0.06170046 0.06163654 0.0615845 0.06162071 0.06177295 0.06197733 0.06212613
 0.06215542 0.06209986 0.06207065 0.06214811 0.06226965 0.06224982 0.06195255 0.06144642 0.06095911 0.06066997
 0.06060267 0.06075651 0.06121074 0.06190793 0.06241959 0.06225299 0.0614665 0.06069583 0.06045138 0.06063076
 0.06081152 0.06074113 0.06041854 0.05999774 0.05982581 0.06034812 0.06167074 0.06319943 0.0638517 0.06273828
 0.05980004 0.05601243 0.05302472 0.0522732 0.05396881 0.05681077 0.05896267 0.05951827 0.05893643 0.05810687
 0.05739018 0.05673467 0.05630407 0.05651726 0.05746999 0.05853878 0.05870314 0.05742317 0.05528446 0.05358174
 0.05313441 0.05377184 0.05503103 0.0566608 0.05791566 0.05715112 0.053443 0.04863978 0.04653943 0.04927783
 0.05504797 0.05986679 0.0611194 0.05902531 0.05547964 0.05248041 0.05137453 0.05249811 0.05512062 0.0580516
 0.06035974 0.06141331 0.06072275 0.0583686 0.05541538 0.05339279 0.05335687 0.05547947 0.05901203 0.06234968
 0.06376033 0.06266624 0.06002944 0.05733533 0.05561345 0.05544251 0.05710075 0.06027728 0.0640479 0.06740697
 0.06967811 0.07058889 0.07033202 0.06944337 0.068394 0.06750593 0.06722973 0.06786944 0.06885062 0.06893977
 0.06758595 0.06565803 0.06455114 0.06474607 0.06542758 0.06547527 0.06459621 0.0631443 0.06101512 0.05762342
 0.05324882 0.04939565 0.04729234 0.04696002 0.04810536 0.05058936 0.05336628 0.05442856 0.0529988 0.05092604
 0.05084883 0.05338385 0.05680865 0.05917064 0.06009579 0.06065622 0.06198482 0.06411533 0.06583378 0.06559093
 0.0630395 0.05990861 0.05878679 0.06057909 0.06363262 0.06576867 0.06658138 0.06720112 0.06831799 0.06911362
 0.06811709 0.06495705 0.06129973 0.05981301 0.0618367 0.06603907 0.06938654 0.06938618 0.06575989 0.06050505
 0.05634181 0.05483327 0.05597249 0.05922183 0.06410876 0.06967008 0.07420139 0.07620785 0.07548569 0.07305389
 0.06998743 0.06641685 0.06207307 0.05793873 0.05646447 0.05925801 0.06502874 0.07066069 0.07399447 0.07490766
 0.07410291 0.07177341 0.06780939 0.06310409 0.05998353 0.0603983 0.06357414 0.0664476 0.06687215 0.06557824
 0.06460498 0.06475939 0.06530635 0.0655317 0.06576804 0.06683189 0.06885773 0.07098189 0.07217608 0.07218004
 0.07155578 0.07103138 0.07083499 0.07052381 0.06961174 0.06854245 0.06863426 0.07063279 0.07368287 0.07620768
 0.07749012 0.07793121 0.07799169 0.07738341 0.07548701 0.07251766 0.06999943 0.06963427 0.07165516 0.07467861
 0.07714121 0.0784255 0.07871439 0.07842136 0.07790875 0.07737314 0.07690859 0.07675951 0.07725948 0.07835563
 0.07949725 0.08018535 0.08038022 0.08025637 0.07985181 0.07914525 0.07831423 0.07773288 0.07770108 0.07821888
 0.07903936 0.07989021 0.08056825 0.08088976 0.08075139 0.08028293 0.07978044 0.07943912 0.07927185 0.07928304
 0.07954268 0.08003654 0.0805839 0.08098371 0.08117408 0.08120961 0.08114854 0.08100995 0.0808122 0.08062034
 0.0805473 0.08067504 0.08095426 0.08123627 0.08144709 0.08166154 0.08194043 0.08217539 0.08220156 0.08202054
 0.08181044 0.08173063 0.08179209 0.08190855 0.08199444 0.08198 0.08179362 0.08142389 0.08101557 0.08082075
 0.08099855 0.08149996 0.08215586 0.08279822 0.08328795 0.08354446 0.08360632 0.08359029 0.0835539 0.08345287
 0.08325025 0.08302076 0.08292708 0.08309549 0.08350302 0.08398896 0.08438535 0.08462124 0.08471854 0.08475673
 0.08484333 0.08502944 0.08523048 0.08530574 0.085236 0.08515564 0.08519128 0.0853209 0.08541438 0.08538704
 0.08529461 0.08527397 0.08539853 0.08561325 0.08581571 0.085972 0.08613288 0.08634564 0.08656345 0.08666097
 0.08656505 0.08635479 0.08618543 0.0861247 0.08612701 0.08616063 0.08627135 0.08648639 0.08672423 0.08686115
 0.08686972 0.08684404 0.08688003 0.08696108 0.0869848 0.0868857 0.08670318 0.08653532 0.08645599 0.08647645
 0.08655487 0.08662574 0.08663619 0.08657418 0.08646804 0.08635715 0.08626628 0.08621424 0.08623996 0.08638753
 0.08663749 0.08686681 0.08692139 0.08675312 0.08647601 0.08626796 0.08621124 0.08623075 0.08618541 0.08600668
 0.08574288 0.08548802 0.0852958 0.08516125 0.0850561 0.08496551 0.08490746 0.08492754 0.085052 0.08522421
 0.08531132 0.08521364 0.08496477 0.08469741 0.08452003 0.0844495 0.08444065 0.08444113 0.08443095 0.08443911
 0.08450363 0.08459768 0.08463248 0.0845604 0.08443928 0.08437407 0.0844298 0.08460482 0.08483311 0.08500011
 0.08501725 0.08490998 0.08479678 0.08476795 0.08481756 0.08489536 0.08497818 0.08507009 0.08516857 0.08526522
 0.08537257 0.08552538 0.08574699 0.08601784 0.08627893 0.08647019 0.08657978 0.08666442 0.08681171 0.08706802
 0.08739888 0.08772075 0.08797203 0.0881573 0.08832697 0.08851637 0.08871631 0.08891195 0.08912894 0.089408
 0.08974238 0.09007747 0.09037398 0.09064163 0.0909089 0.09118798 0.09147778 0.09178679 0.092142 0.09256412
 0.09302162 0.09342342 0.09368756 0.09382207 0.09392538 0.09411119 0.09443139 0.09483641 0.09519458 0.09539329
 0.09545636 0.09552958 0.09571953 0.09598542 0.09622903 0.09645034 0.09674979 0.09718442 0.09767748 0.09808689
 0.09833818 0.09847839 0.09861171 0.09879157 0.09897877 0.09910767 0.09917797 0.09925379 0.09937952 0.09954365
 0.09974016 0.1000124 0.1003924 0.1008292 0.101223 0.1015172 0.1017237 0.1018754 0.1019917 0.1020775
 0.1021294 0.1021512 0.1021748 0.1022403 0.1023404 0.1024171 0.1024368 0.1024401 0.1024965 0.1026375
 0.1028588 0.1031494 0.1034814 0.1037966 0.1040571 0.1043072 0.1046299 0.1050229 0.1053658 0.105548
 0.1055902 0.105596 0.1056224 0.1056602 0.1057216 0.105866 0.1061266 0.106465 0.1068207 0.1071701
 0.1075208 0.1078696 0.1081828 0.1084102 0.1085176 0.1085172 0.1084734 0.1084757 0.1085952 0.1088466
 0.109179 0.1095102 0.10978 0.109966 0.1100566 0.1100456 0.1099758 0.1099519 0.1100596 0.1102655
 0.1104302 0.1104258 0.1102186 0.1098401 0.1093218 0.1086887 0.107995 0.1073306 0.1067796 0.106383
 0.1061511 0.1061066 0.1062975 0.1067451 0.1073852 0.1080884 0.1087402 0.1092678 0.1095931 0.1096176
 0.1092969 0.1087024 0.1079762 0.1072396 0.1065565 0.1059425 0.1053724 0.1048118 0.1042928 0.103958
 0.1040002 0.104547 0.1055904 0.106992 0.1085335 0.1099922 0.1112254 0.112214 0.1130291 0.1137509
 0.1144224 0.1150682 0.1157194 0.1163885 0.1170358 0.1176008 0.1180706 0.1184881 0.1188929 0.1192815
 0.1196252 0.1199026 0.1201167 0.1203005 0.1204893 0.1206719 0.1207865 0.1207899 0.120707 0.1205942
 0.1204704 0.1203041 0.120049 0.1196808 0.1192318 0.1188184 0.1186278 0.1188376 0.119513 0.1205662
 0.1218241 0.1231377 0.1244196 0.1255915 0.1265528 0.1272386 0.1276824 0.1279866 0.1282449 0.1285061
 0.1287898 0.1291013 0.1294308 0.1297576 0.1300637 0.1303494 0.1306375 0.1309507 0.131279 0.1315815
 0.1318325 0.1320597 0.1323263 0.1326709 0.1330651 0.1334386 0.133755 0.1340476 0.1343609 0.1346763
 0.1349318 0.1351076 0.1352561 0.13545 0.1357312 0.136097 0.1364971 0.1368502 0.1371015 0.1372693
 0.1374201 0.1376034 0.1378268 0.1380784 0.1383454 0.1386112 0.1388606 0.1391011 0.1393645 0.1396703
 0.139987 0.140251 0.1404304 0.1405586 0.1406976 0.140879 0.1410879 0.1412944 0.1414911 0.1417054
 0.1419734 0.142296 0.1426233 0.1428906 0.1430697 0.1431852 0.143289 0.1434258 0.1436121 0.1438365
 0.1440746 0.1443059 0.1445194 0.1447141 0.1448993 0.1450898 0.1452945 0.1455102 0.1457264 0.1459374
 0.1461447 0.1463518 0.1465632 0.1467943 0.1470673 0.147383 0.1476992 0.1479593 0.148142 0.1482731
 0.1483916 0.1485206 0.1486686 0.1488388 0.14903 0.1492336 0.1494387 0.1496387 0.1498338 0.150028
 0.1502241 0.150423 0.1506266 0.1508366 0.1510543 0.1512823 0.1515199 0.1517564 0.1519746 0.1521681
 0.1523486 0.152534 0.1527334 0.1529423 0.1531461 0.1533328 0.153505 0.1536797 0.1538706 0.1540754
 0.1542813 0.1544811 0.1546775 0.1548765 0.1550782 0.1552771 0.1554683 0.1556529 0.1558361 0.156024
 0.156219 0.156416 0.1566077 0.1567943 0.1569842 0.1571817 0.1573848 0.157594 0.1578141 0.158042
 0.1582641 0.1584686 0.1586541 0.1588292 0.1590065 0.1591956 0.1593975 0.159606 0.1598143 0.1600181
 0.1602167 0.1604119 0.1606063 0.1608033 0.1610072 0.1612198 0.1614351 0.1616458 0.1618529 0.1620632
 0.1622795 0.1625001 0.1627232 0.1629459 0.1631638 0.1633766 0.1635898 0.163807 0.1640235 0.1642293
 0.164416 0.1645847 0.1647467 0.1649129 0.165085 0.1652611 0.1654417 0.1656277 0.1658188 0.1660166
 0.1662231 0.1664363 0.1666507 0.1668601 0.1670589 0.1672483 0.1674359 0.1676254 0.1678142 0.1680048
 0.1682046 0.1684124 0.1686189 0.1688228 0.1690324 0.1692511 0.1694739 0.1696938 0.1699058 0.1701119
 0.1703209 0.1705381 0.1707586 0.1709764 0.1711903 0.171399 0.1716015 0.1718015 0.172002 0.1722021
 0.172403 0.1726087 0.1728179 0.1730275 0.1732397 0.1734537 0.1736645 0.1738746 0.1740922 0.1743155
 0.1745354 0.1747512 0.1749664 0.1751791 0.1753866 0.1755899 0.175792 0.1760013 0.1762271 0.1764619
 0.1766852 0.1768899 0.177081 0.1772496 0.1773543 0.1772875 0.1767784 0.1752878 0.1719907 0.1659362
 0.1564232 0.1434422 0.1278344 0.1109904 0.0943318 0.07894206 0.06546804 0.05420464 0.04522632 0.03846999
 0.03379098 0.03105878 0.03025995 0.03160593 0.03564644 0.04294024 0.05282623 0.06233963 0.0673659 0.06588831
 0.05991916 0.05366853 0.05004347 0.04923943 0.05000211 0.0512674 0.05270494 0.05451685 0.05704376 0.06038452
 0.06437536 0.06899665 0.07457997 0.08138005 0.08904967 0.09677703 0.1039833 0.1107793 0.1176999 0.1250579
 0.1326122 0.1398032 0.1462002 0.1517201 0.1565422 0.1609086 0.164986 0.1688493 0.1725328 0.1760319
 0.1792239 0.1818356 0.1835758 0.1843552 0.1843929 0.1840964 0.1838223 0.1837339 0.1838417 0.1841132
 0.1845246 0.1850591 0.185702 0.1864348 0.1872253 0.1880358 0.1888418 0.1896327 0.1904004 0.191135
 0.1918218 0.1924429 0.1929913 0.1934815 0.193934 0.1943581 0.1947562 0.1951333 0.1954935 0.195837
 0.1961638 0.1964737 0.1967652 0.1970386 0.1972944 0.1975299 0.1977466 0.197958 0.1981785 0.198406
 0.1986253 0.1988272 0.199017 0.1992085 0.1994115 0.1996242 0.1998359 0.2000387 0.200232 0.2004175
 0.2005979 0.2007799 0.2009712 0.2011742 0.2013861 0.201601 0.2018112 0.2020104 0.2021988 0.2023815
 0.2025632 0.2027482 0.2029393 0.2031332 0.2033255 0.2035217 0.2037316 0.2039533 0.2041763 0.2043964
 0.2046162 0.2048355 0.2050513 0.2052618 0.2054622 0.2056441 0.2058088 0.2059735 0.2061592 0.2063743
 0.2066084 0.2068384 0.207048 0.20724 0.2074278 0.2076172 0.2078036 0.2079809 0.2081527 0.2083386
 0.2085619 0.2088201 0.2090821 0.2093244 0.2095534 0.2097839 0.2100195 0.2102599 0.2104967 0.2106999
 0.2108416 0.2109434 0.2110829 0.2113323 0.2116884 0.2120678 0.2123841 0.2126237 0.2128358 0.2130694
 0.213342 0.2136265 0.2138328 0.2138687 0.2137818 0.2137826 0.2140514 0.2145598 0.2151275 0.2156079
 0.2159728 0.216265 0.2165253 0.2167518 0.2169001 0.2169324 0.2168954 0.2169418 0.2172226 0.2177296
 0.2182873 0.2187308 0.2190365 0.2192609 0.219445 0.2196086 0.2197205 0.2196449 0.2192809 0.2188249
 0.2187276 0.2192565 0.2201915 0.2210602 0.2216097 0.2219369 0.2222193 0.2224953 0.2227183 0.2227987
 0.222499 0.2215695 0.2202375 0.2193419 0.2196403 0.2210453 0.2227685 0.2241089 0.224894 0.2253023
 0.2255576 0.2257796 0.2258911 0.2256278 0.2248341 0.2238503 0.2234225 0.2240133 0.2252795 0.2264361
 0.227058 0.2273024 0.2274859 0.2277335 0.2279035 0.2275466 0.2261541 0.2239054 0.2220583 0.2220666
 0.2241542 0.2270451 0.2292299 0.2302641 0.2306535 0.230747 0.2302227 0.2286721 0.2262184 0.223462
 0.2212925 0.2207704 0.2224263 0.2253799 0.227838 0.2288623 0.22916 0.2299088 0.2313492 0.2327875
 0.2335008 0.2333 0.2324085 0.2310606 0.2293876 0.2277932 0.2271795 0.2283057 0.2308649 0.2335926
 0.235434 0.2363471 0.2367567 0.2363137 0.2336403 0.2279906 0.2213283 0.2177769 0.219974 0.2263144
 0.2326769 0.2364736 0.2380633 0.2388162 0.2392751 0.2390063 0.2368541 0.2315716 0.2237881 0.2172514
 0.2162964 0.2215567 0.2292482 0.2347026 0.2355455 0.2319463 0.2257873 0.2201073 0.217858 0.2201143
 0.2256054 0.2319704 0.2371755 0.2400801 0.240429 0.2387328 0.2362243 0.2345618 0.2346272 0.2352095
 0.2339235 0.2302242 0.2263235 0.2239522 0.2216891 0.2175902 0.21345 0.2136183 0.2193427 0.2266795
 0.2309255 0.2313857 0.2305223 0.2294673 0.2260817 0.2180312 0.2072052 0.1998091 0.200944 0.209312
 0.2183739 0.2227548 0.2225175 0.2212465 0.2212657 0.2212674 0.2181513 0.211071 0.2035045 0.2003356
 0.2026538 0.2067781 0.2086174 0.2069338 0.2019041 0.1938109 0.1854044 0.1827543 0.1901324 0.2047841
 0.2190811 0.2268041 0.2254236 0.2147326 0.1977234 0.1824268 0.1780151 0.1865812 0.2005842 0.2097806
 0.2093551 0.2007817 0.1874501 0.1723548 0.1594984 0.1543199 0.1604373 0.1759774 0.1935939 0.2040987
 0.2015361 0.1878451 0.1733246 0.1692276 0.1774824 0.1893282 0.1951161 0.1930665 0.1878965 0.1847689
 0.186326 0.1921956 0.1993756 0.2050585 0.2088728 0.2097089 0.2027049 0.1850893 0.1639199 0.1514324
 0.1523343 0.1613988 0.1732609 0.1872365 0.2009292 0.2069128 0.2011052 0.1904911 0.1871718 0.1955137
 0.2084111 0.2159847 0.215365 0.2112109 0.208518 0.2072994 0.2050856 0.2026872 0.2043924 0.2120573
 0.2218741 0.2286237 0.2310998 0.2316415 0.2321547 0.2326619 0.2326465 0.2319261 0.2305719 0.2290344
 0.2280104 0.2276612 0.2274595 0.2269823 0.2258913 0.2227259 0.2152221 0.2034965 0.1920691 0.1862872
 0.1866617 0.1892373 0.1914757 0.1937294 0.193743 0.1851164 0.1657451 0.1447448 0.1358214 0.1440337
 0.1620269 0.1784229 0.1865418 0.1849857 0.1742415 0.1568753 0.1402393 0.1341753 0.1429942 0.1613431
 0.1799267 0.1935149 0.2015408 0.2036665 0.1988026 0.1882737 0.1770846 0.1710554 0.1732741 0.182743
 0.1947228 0.2019562 0.1982122 0.1844749 0.1716803 0.1726518 0.1886483 0.2072701 0.2163986 0.2164731
 0.215575 0.2168683 0.2170295 0.2150664 0.2158588 0.2234629 0.2351428 0.2440675 0.2453093 0.2377886
 0.2236422 0.2087195 0.2010596 0.2044087 0.2138931 0.2212634 0.2228526 0.219094 0.2096524 0.1954542
 0.1838434 0.1841737 0.1969753 0.2127197 0.2226474 0.2267479 0.2297888 0.2330948 0.2329386 0.2261958
 0.21558 0.2079743 0.2076347 0.2124733 0.2175938 0.2204486 0.2208768 0.2181882 0.2115928 0.2035155
 0.1996209 0.2038898 0.214475 0.2253974 0.231867 0.2332678 0.2317623 0.2294801 0.2270892 0.223963
 0.2195939 0.2154305 0.2145986 0.2185658 0.2248047 0.2293903 0.2314924 0.2336524 0.2377927 0.2425699
 0.2450087 0.2437509 0.2403486 0.2379014 0.2385586 0.241817 0.2449066 0.2451531 0.2425157 0.2398655
 0.24035 0.2443957 0.2496472 0.2536463 0.2558358 0.2570536 0.2580907 0.2589962 0.2590393 0.2572634
 0.2538404 0.2508569 0.2508335 0.2542245 0.2589881 0.2627 0.2645157 0.2650248 0.2649067 0.264222
 0.2628168 0.2609735 0.2594239 0.2587667 0.259037 0.2598566 0.2608258 0.2616974 0.2623571 0.2628053
 0.2631141 0.2633314 0.2634634 0.2635449 0.2636271 0.263681 0.2636239 0.2634864 0.2634506 0.2636475
 0.2639849 0.2642468 0.2642935 0.2640782 0.2635337 0.2625867 0.2612917 0.259823 0.258284 0.2566326
 0.2549097 0.2535053 0.2530518 0.2539458 0.2559752 0.2584452 0.2606559 0.2622548 0.2632333 0.2637399
 0.2639491 0.2640132 0.2640252 0.2639953 0.2638842 0.2636668 0.2633574 0.2629876 0.2625829 0.2621711
 0.2617921 0.2614764 0.2612125 0.2609473 0.2606212 0.2602032 0.2597052 0.2591674 0.2586204 0.2580492
 0.2574016 0.2566358 0.2557563 0.2548094 0.2538621 0.2529774 0.2521795 0.2514333 0.2506752 0.2498636
 0.2489769 0.2479823 0.2468627 0.2456879 0.244609 0.2437399 0.2430591 0.2424444 0.2417789 0.241006
 0.2401207 0.2391498 0.2381321 0.2370897 0.2360141 0.2348867 0.2336977 0.2324398 0.2311009 0.2296748
 0.2281669 0.2265907 0.2249675 0.2233217 0.2216501 0.2198889 0.2179199 0.2156087 0.2128354 0.2095071
 0.2055811 0.2011101 0.1962649 0.1912872 0.1863984 0.1817482 0.1774364 0.1735543 0.1701914 0.1674226
 0.1653054 0.1638819 0.1631753 0.1631874 0.1638974 0.1652614 0.1672124 0.1696576 0.1724666 0.1754698
 0.178482 0.1813411 0.1839497 0.186307 0.18849 0.1905702 0.1925461 0.1943674 0.1960028 0.1974527
 0.1987115 0.19976 0.2005986 0.2012665 0.2018231 0.2023152 0.2027622 0.2031633 0.2035106 0.2037947
 0.2040121 0.2041773 0.2043212 0.2044706 0.2046399 0.204842 0.2050954 0.2054187 0.2058248 0.2063114
 0.2068491 0.2073964 0.207938 0.2084969 0.2091014 0.2097591 0.2104724 0.2112667 0.21219 0.2132786
 0.2145255 0.2158796 0.2172672 0.218604 0.2197995 0.220782 0.2215273 0.2220492 0.2223641 0.2224798
 0.2224129 0.2221974 0.2218765 0.221491 0.2210642 0.2205926 0.2200582 0.2194542 0.2187928 0.2180941
 0.2173792 0.2166673 0.2159696 0.2152841 0.2146036 0.213928 0.2132686 0.2126388 0.2120398 0.2114587
 0.2108822 0.2103075 0.2097389 0.2091789 0.2086245 0.2080588 0.2074412 0.2067201 0.2058701 0.2049106
 0.2038734 0.2027632 0.2015635 0.2002718 0.1989064 0.1974815 0.1959921 0.1944273 0.1927827 0.1910545
 0.1892299 0.1872965 0.1852723 0.1832263 0.1812547 0.1794274 0.1777534 0.1761959 0.1747127 0.1732889
 0.1719365 0.1706657 0.1694632 0.1683074 0.1671931 0.1661288 0.1651179 0.1641586 0.1632549 0.1624215
 0.1616791 0.1610422 0.160504 0.1600378 0.1596206 0.1592517 0.1589555 0.1587703 0.158718 0.1587689
 0.1588458 0.1588752 0.1588273 0.158715 0.1585775 0.1584574 0.1583757 0.1583278 0.158299 0.15826
 0.1581449 0.1578566 0.1572978 0.1564014 0.1551541 0.1536058 0.1518453 0.1499762 0.1481229 0.1464235
 0.1449835 0.1438458 0.1430013 0.1423944 0.1419299 0.1415229 0.141163 0.1409219 0.1408955 0.1411027
 0.141416 0.1416362 0.1416855 0.1416881 0.1418389 0.1422395 0.1428658 0.1436154 0.1443662 0.1450338
 0.1455811 0.1459774 0.1462036 0.1462952 0.1463149 0.1462796 0.1461663 0.1459671 0.1456962 0.14537
 0.1450029 0.1445905 0.1441057 0.1435373 0.1428987 0.1421839 0.1413704 0.1404567 0.1394377 0.138287
 0.137054 0.1359416 0.1352161 0.1350564 0.1354747 0.1363152 0.1373486 0.1384219 0.1394519 0.1402603
 0.1406171 0.1406007 0.1407798 0.1418163 0.143844 0.146317 0.1484861 0.1499418 0.1506738 0.1507847
 0.1503405 0.1494021 0.1479903 0.1460588 0.1436235 0.1408264 0.1378126 0.1347041 0.1317025 0.1290268
 0.1267704 0.1249361 0.1235157 0.1225503 0.1221711 0.1220044 0.1201511 0.1141779 0.1048698 0.09789942
 0.09905283 0.1077283 0.1173575 0.1223368 0.1224856 0.1207733 0.1192678 0.1182884 0.1177335 0.117755
 0.1184806 0.1197463 0.1211442 0.1222706 0.1229676 0.1232862 0.123202 0.1223639 0.1200232 0.1153031
 0.1079077 0.09871896 0.08948945 0.08182326 0.07645728 0.07327908 0.07167552 0.07088508 0.0703679 0.07006766
 0.0703067 0.07139258 0.07335176 0.07601459 0.07919608 0.08265603 0.08598797 0.08878203 0.09093076 0.09262209
 0.09401441 0.09505422 0.09561833 0.09569518 0.09538399 0.0948067 0.09406854 0.09324244 0.09232529 0.09124181
 0.0899874 0.08877124 0.08790547 0.08751378 0.08743943 0.08745307 0.08744375 0.08740238 0.08734079 0.08726458
 0.08717641 0.08711481 0.08719121 0.08750768 0.08801465 0.08852181 0.08886604 0.08902761 0.08908853 0.08908458
 0.08889135 0.08834304 0.0875289 0.08680281 0.08632637 0.08577479 0.0847562 0.08342056 0.08238138 0.08205575
 0.08229029 0.08262491 0.082727 0.08254708 0.08226016 0.082172 0.08252293 0.08320249 0.08373741 0.08372684
</values></Ydata></ScRf><Data_Parameters_AB><parameter name="DPF">1</parameter><parameter name="NPT">3497</parameter><parameter name="FXV">3996</parameter><parameter name="LXV">500</parameter><parameter name="CSF">1</parameter><parameter name="MXY">0.191935792565346</parameter><parameter name="MNY">-0.0901014059782028</parameter><parameter name="DAT">02/06/2022</parameter><parameter name="TIM">12:05:14.638 (GMT+2)</parameter><parameter name="DXU">WN</parameter></Data_Parameters_AB><AB__Qtest><MainReport name="Quality Test Report"><Header><Line><Legend>Test result ok/not ok [1/0]: </Legend><Value>0</Value></Line><Line><Legend>Method file: </Legend><Value>C:\Users\Public\Documents\Bruker\OPUS_8.2.28\QT\IRBT_v3_default.QT</Value></Line></Header><Matrix><Line><Legend></Legend><Legend>min</Legend><Legend>max</Legend><Legend>measured</Legend></Line><Line><Value>Absorption (X-Range 1):</Value><Value>0.400000</Value><Value>2.000000</Value><Value>0.244982</Value></Line><Line><Value>Noise (X-Range 4):</Value><Value></Value><Value>0.000300</Value><Value>0.000046</Value></Line><Line><Value>Signal/Noise (X-Range 2):</Value><Value>200.000000</Value><Value></Value><Value>139.279538</Value></Line><Line><Value>Signal/Noise (X-Range 3):</Value><Value>40.000000</Value><Value></Value><Value>52.175012</Value></Line><Line><Value>Water vapour (X-Range 5):</Value><Value></Value><Value>0.000300</Value><Value>0.000051</Value></Line><Line><Value>Signal/Water (X-Range 2):</Value><Value>100.000000</Value><Value></Value><Value>125.396247</Value></Line><Line><Value>Signal/Water (X-Range 3):</Value><Value>20.000000</Value><Value></Value><Value>46.974241</Value></Line><Line><Value>Fringes (X-Range 6):</Value><Value></Value><Value>0.000100</Value><Value>0.000078</Value></Line></Matrix></MainReport></AB__Qtest><Data_Parameters_ScSm><parameter name="DPF">1</parameter><parameter name="NPT">1814</parameter><parameter name="FXV">3996.33169228125</parameter><parameter name="LXV">499.541461535156</parameter><parameter name="CSF">1</parameter><parameter name="MXY">0.279388308525085</parameter><parameter name="MNY">0.0341371074318886</parameter><parameter name="DAT">02/06/2022</parameter><parameter name="TIM">12:05:14.638 (GMT+2)</parameter><parameter name="DXU">WN</parameter></Data_Parameters_ScSm><Data_Parameters_ScRf><parameter name="DPF">1</parameter><parameter name="NPT">1820</parameter><parameter name="FXV">4004.04661832813</parameter><parameter name="LXV">495.683998511719</parameter><parameter name="CSF">1</parameter><parameter name="MXY">0.265024781227112</parameter><parameter name="MNY">0.0302599519491196</parameter><parameter name="DAT">02/06/2022</parameter><parameter name="TIM">12:04:48.566 (GMT+2)</parameter><parameter name="DXU">WN</parameter></Data_Parameters_ScRf><Optic_Parameters_Rf><parameter name="APR">0</parameter><parameter name="APT">Open</parameter><parameter name="BMS">KBr</parameter><parameter name="DTC">RT-DLaTGS_IR-Biotyper [Microplate reader]</parameter><parameter name="HPF">0</parameter><parameter name="LPF">10.0</parameter><parameter name="LPV">4000</parameter><parameter name="PGR">0</parameter><parameter name="RCH">Module port</parameter><parameter name="RDX">0</parameter><parameter name="SRC">MIR</parameter><parameter name="VEL">10.0</parameter><parameter name="SON">Off</parameter></Optic_Parameters_Rf><Acquisition_Parameters_Rf><parameter name="ADT">1</parameter><parameter name="AQM">DD</parameter><parameter name="CFE">0</parameter><parameter name="COR">0</parameter><parameter name="DEL">0</parameter><parameter name="DLY">0</parameter><parameter name="HFW">8000</parameter><parameter name="LFW">0</parameter><parameter name="NSR">32</parameter><parameter name="PLF">AB</parameter><parameter name="RES">6</parameter><parameter name="RGN">-1</parameter><parameter name="STR">0</parameter><parameter name="TCL">MakeCompatibleScalar (0, {WSV=1.000000, ARV=0});</parameter><parameter name="TDL">37</parameter><parameter name="RPO">0</parameter></Acquisition_Parameters_Rf><FT_-_Parameters_Rf><parameter name="APF">B3</parameter><parameter name="HFQ">500</parameter><parameter name="LFQ">4000</parameter><parameter name="NLI">0</parameter><parameter name="PHR">24</parameter><parameter name="PHZ">ML</parameter><parameter name="SPZ">NO</parameter><parameter name="ZFF">1</parameter></FT_-_Parameters_Rf><Optic_Parameters_><parameter name="APR">0</parameter><parameter name="APT">Open</parameter><parameter name="BMS">KBr</parameter><parameter name="CHN">Module port</parameter><parameter name="DTC">RT-DLaTGS_IR-Biotyper [Microplate reader]</parameter><parameter name="HPF">0</parameter><parameter name="LPF">10.0</parameter><parameter name="LPV">4000</parameter><parameter name="PGN">0</parameter><parameter name="RDX">0</parameter><parameter name="SRC">MIR</parameter><parameter name="VEL">10.0</parameter><parameter name="SON">Off</parameter></Optic_Parameters_><FT_-_Parameters_><parameter name="APF">B3</parameter><parameter name="HFQ">500</parameter><parameter name="LFQ">4000</parameter><parameter name="NLI">0</parameter><parameter name="PHR">24</parameter><parameter name="PHZ">ML</parameter><parameter name="SPZ">NO</parameter><parameter name="ZFF">1</parameter></FT_-_Parameters_><Acquisition_Parameters_><parameter name="ADT">1</parameter><parameter name="AQM">DD</parameter><parameter name="CFE">0</parameter><parameter name="COR">0</parameter><parameter name="DEL">0</parameter><parameter name="DLY">0</parameter><parameter name="HFW">8000</parameter><parameter name="LFW">0</parameter><parameter name="NSS">32</parameter><parameter name="PLF">AB</parameter><parameter name="RES">6</parameter><parameter name="SOT">0</parameter><parameter name="TCL">MakeCompatibleScalar (0, {WSV=1.000000, ARV=0});</parameter><parameter name="TDL">37</parameter><parameter name="SPO">0</parameter><parameter name="SGN">-1</parameter></Acquisition_Parameters_><Instrument_Parameters_Rf><parameter name="HFL">15800.168544</parameter><parameter name="LFL">0</parameter><parameter name="LWN">15800.168544</parameter><parameter name="ABP">32197</parameter><parameter name="SSP">1</parameter><parameter name="ARG">2</parameter><parameter name="ASG">2</parameter><parameter name="ASS">32</parameter><parameter name="GFW">16</parameter><parameter name="GBW">16</parameter><parameter name="BFW">0</parameter><parameter name="BBW">0</parameter><parameter name="PKA">7268</parameter><parameter name="PKL">4996</parameter><parameter name="PRA">7450</parameter><parameter name="PRL">5001</parameter><parameter name="P2A">1</parameter><parameter name="P2L">1</parameter><parameter name="P2R">1</parameter><parameter name="P2K">1</parameter><parameter name="DAQ">0</parameter><parameter name="AG2">1</parameter><parameter name="SSM">1</parameter><parameter name="RSN">26133</parameter><parameter name="CRR">0</parameter><parameter name="SRT">1654171488.567</parameter><parameter name="DUR">19.6369934082031</parameter><parameter name="TSC">28.8</parameter><parameter name="MVD">0.319381326436996</parameter><parameter name="AN1">0.225825045004425</parameter><parameter name="AN2">0</parameter><parameter name="VSN">2.485 Apr  4 2017</parameter><parameter name="SRN">0085</parameter><parameter name="CAM">0</parameter><parameter name="INS">IR-Biotyper</parameter><parameter name="FOC">69</parameter><parameter name="RDY">1</parameter><parameter name="ARS">32</parameter></Instrument_Parameters_Rf><Sample_Parameters_><parameter name="BLD"></parameter><parameter name="CNM">Admin</parameter><parameter name="CPY"></parameter><parameter name="DPM"></parameter><parameter name="EXP">IRBT_v3_32Scans.XPM</parameter><parameter name="LCT"></parameter><parameter name="SFM">Microplate, HTS-XT</parameter><parameter name="SNM">220602-1054_MSA23M (D_1)_D8_be03145a-80df-432d-890a-94ec9f3e9457.0</parameter><parameter name="XPP">C:\Users\Public\Documents\Bruker\OPUS_8.2.28\XPM</parameter><parameter name="IST">OK</parameter><parameter name="CPG">1252</parameter><parameter name="UID">79dfde49-ad60-4899-a7c2-4a7d4a6ca258</parameter></Sample_Parameters_><Instrument_Parameters_><parameter name="HFL">15800.168544</parameter><parameter name="LFL">0</parameter><parameter name="LWN">15800.168544</parameter><parameter name="ABP">32197</parameter><parameter name="SSP">1</parameter><parameter name="ASG">2</parameter><parameter name="ARG">2</parameter><parameter name="ASS">32</parameter><parameter name="GFW">16</parameter><parameter name="GBW">16</parameter><parameter name="BFW">0</parameter><parameter name="BBW">0</parameter><parameter name="PKA">7351</parameter><parameter name="PKL">4988</parameter><parameter name="PRA">7654</parameter><parameter name="PRL">4993</parameter><parameter name="P2A">1</parameter><parameter name="P2L">1</parameter><parameter name="P2R">1</parameter><parameter name="P2K">1</parameter><parameter name="DAQ">0</parameter><parameter name="AG2">1</parameter><parameter name="SSM">1</parameter><parameter name="RSN">13692</parameter><parameter name="CRR">0</parameter><parameter name="SRT">1654171514.639</parameter><parameter name="DUR">19.6379852294922</parameter><parameter name="TSC">28.8</parameter><parameter name="MVD">0.308056145906448</parameter><parameter name="AN1">0.225814367417257</parameter><parameter name="AN2">0</parameter><parameter name="VSN">2.485 Apr  4 2017</parameter><parameter name="SRN">0085</parameter><parameter name="CAM">0</parameter><parameter name="INS">IR-Biotyper</parameter><parameter name="FOC">69</parameter><parameter name="RDY">1</parameter></Instrument_Parameters_><History/></OPUSDataFile>
