<?xml version="1.0" encoding="UTF-8" ?>
<OPUSDataFile><AB><Ydata ylabel="Absorbance Units"><values byteorder="INTEL" format="FLOAT32" numvalues="3497"> -0.08242642 -0.08241276 -0.08240126 -0.08239261 -0.08237652 -0.08235246 -0.08231705 -0.08227105 -0.08222274 -0.08217403
 -0.08214058 -0.0821223 -0.08212826 -0.08215465 -0.08219705 -0.08225238 -0.08231289 -0.08237968 -0.08245218 -0.08252845
 -0.08261005 -0.08268452 -0.08274664 -0.08278424 -0.08278889 -0.08276721 -0.08271633 -0.08266015 -0.08260146 -0.08256166
 -0.08254363 -0.08255193 -0.08258691 -0.08263949 -0.08270884 -0.08278211 -0.08285879 -0.08292942 -0.08299407 -0.08304793
 -0.08309158 -0.08312343 -0.0831456 -0.08315966 -0.08317048 -0.08318354 -0.08320403 -0.08323902 -0.08328694 -0.08335201
 -0.08341958 -0.08348743 -0.08353475 -0.08355476 -0.08354125 -0.08348943 -0.0834203 -0.08333442 -0.08326367 -0.08320989
 -0.08318815 -0.08319743 -0.08322685 -0.08327433 -0.08332102 -0.08336807 -0.08340909 -0.08344768 -0.0834894 -0.08353654
 -0.08359592 -0.08366663 -0.08375202 -0.08384507 -0.08394496 -0.08403398 -0.08410421 -0.08413668 -0.08411901 -0.08405659
 -0.08394278 -0.08381706 -0.08368261 -0.08358567 -0.08353171 -0.08354279 -0.08362055 -0.08375531 -0.08394487 -0.08415784
 -0.08438998 -0.08460052 -0.08478586 -0.08490903 -0.08497439 -0.0849698 -0.08491128 -0.08481834 -0.0847078 -0.08460782
 -0.0845243 -0.08447389 -0.08444729 -0.08444575 -0.08445301 -0.08446159 -0.08446824 -0.08446863 -0.08447519 -0.08449027
 -0.08451647 -0.08455581 -0.08458658 -0.08460762 -0.08460186 -0.08457091 -0.0845348 -0.08449785 -0.08449919 -0.08453634
 -0.08462433 -0.08475074 -0.08489389 -0.08504172 -0.08516125 -0.08525502 -0.08531165 -0.08534105 -0.0853504 -0.08533759
 -0.08530249 -0.08524562 -0.0851603 -0.08507805 -0.08500192 -0.08497629 -0.08501141 -0.08511882 -0.08530529 -0.08551613
 -0.08574915 -0.08587555 -0.0858934 -0.08574283 -0.08544622 -0.08512231 -0.08478294 -0.08453897 -0.08437777 -0.08432347
 -0.08436059 -0.08447797 -0.08465295 -0.08486106 -0.08506694 -0.0852347 -0.08533999 -0.08535044 -0.08529063 -0.08515534
 -0.08500073 -0.08484151 -0.08470897 -0.08461269 -0.084552 -0.08452824 -0.08453273 -0.08456507 -0.08461429 -0.08467939
 -0.08474342 -0.08480559 -0.08485187 -0.08488335 -0.08489767 -0.08489449 -0.08487248 -0.08482952 -0.08475766 -0.08466586
 -0.08455765 -0.08445296 -0.08437047 -0.08431966 -0.08431485 -0.08434446 -0.08441004 -0.08448867 -0.08457511 -0.0846515
 -0.08471368 -0.08475439 -0.08477285 -0.08476025 -0.08471607 -0.08462854 -0.08449824 -0.08433169 -0.0841329 -0.08393132
 -0.08373056 -0.08356065 -0.08342144 -0.08332896 -0.08327837 -0.08327091 -0.08329543 -0.08334163 -0.08339331 -0.08343333
 -0.0834526 -0.08343752 -0.08339892 -0.08333531 -0.08326817 -0.08320366 -0.08315195 -0.08311711 -0.08309353 -0.08308131
 -0.0830721 -0.08306541 -0.08305755 -0.08304854 -0.08303834 -0.08302712 -0.08301621 -0.08300541 -0.08299437 -0.08298334
 -0.08297174 -0.08296245 -0.08295994 -0.08296733 -0.08299094 -0.0830303 -0.08308671 -0.08316041 -0.08325143 -0.08336161
 -0.08349569 -0.08363745 -0.08378887 -0.0839076 -0.08398544 -0.08400105 -0.08394843 -0.08385384 -0.08371882 -0.08354823
 -0.08334137 -0.08307832 -0.08276606 -0.08244201 -0.08211809 -0.08186668 -0.08168274 -0.08159547 -0.08158127 -0.08161477
 -0.08166847 -0.08169356 -0.08168822 -0.08162837 -0.08153944 -0.08143023 -0.0813189 -0.08121787 -0.08112381 -0.08104096
 -0.08094907 -0.08084553 -0.08071249 -0.08054616 -0.08035406 -0.08013605 -0.07991927 -0.07970508 -0.07951927 -0.07936133
 -0.07924334 -0.0791584 -0.07908885 -0.07902095 -0.07890522 -0.07874424 -0.07851224 -0.07823729 -0.07794756 -0.07765491
 -0.07738572 -0.07712192 -0.07686087 -0.07658372 -0.07627784 -0.07595068 -0.07559863 -0.07524743 -0.07490218 -0.07457466
 -0.07426952 -0.07396075 -0.07364773 -0.07327107 -0.07282948 -0.07229536 -0.0716801 -0.07105484 -0.07042863 -0.06988383
 -0.06940417 -0.06898838 -0.06861827 -0.0682601 -0.06790317 -0.06752606 -0.06710723 -0.06662355 -0.06605259 -0.06536666
 -0.06458376 -0.06370187 -0.06275148 -0.06174546 -0.0606767 -0.05954243 -0.05835781 -0.05711994 -0.05589305 -0.05468156
 -0.05351829 -0.05240252 -0.05131257 -0.05024622 -0.04917678 -0.04810576 -0.04702486 -0.04593785 -0.04484984 -0.04376536
 -0.04270212 -0.04164354 -0.04059241 -0.0394831 -0.03825967 -0.03687242 -0.03523818 -0.03347226 -0.03158557 -0.02974839
 -0.02803279 -0.02642919 -0.02495712 -0.0235165 -0.02209627 -0.02064309 -0.01915153 -0.01763155 -0.01608509 -0.01455723
 -0.01304719 -0.01158068 -0.01013517 -0.008635993 -0.007048739 -0.005213202 -0.00317954 -0.0009339272 0.001381122 0.003558201
 0.005583095 0.007335106 0.008952704 0.01048356 0.01204886 0.01372755 0.01551766 0.0174491 0.01942117 0.0214179
 0.02337507 0.02527634 0.02716258 0.02903412 0.03097955 0.03300057 0.03512097 0.03732891 0.03954114 0.041751
 0.04387958 0.04594336 0.04794795 0.04990934 0.05186229 0.05380988 0.05576892 0.05774211 0.05974188 0.06175444
 0.06378057 0.06578712 0.0677485 0.06969215 0.07160436 0.07359902 0.07570123 0.07795631 0.08038756 0.08284808
 0.08533048 0.08767314 0.08987442 0.09194711 0.09390384 0.0958515 0.09779282 0.09980039 0.1018582 0.1039628
 0.1060896 0.1081834 0.1102486 0.1122511 0.1142533 0.1162952 0.1184401 0.1207645 0.1232104 0.1257942
 0.1283632 0.1308664 0.133249 0.13548 0.1376239 0.1396837 0.1417256 0.1437547 0.1458061 0.1478809
 0.1499962 0.1521502 0.154336 0.1565513 0.1587808 0.161029 0.1633022 0.1656007 0.1679351 0.1702854
 0.1726317 0.1749505 0.1772075 0.1794082 0.1815387 0.183636 0.1857104 0.1877998 0.1899222 0.1920762
 0.1942698 0.1964585 0.1986373 0.2007789 0.2028797 0.2049664 0.2070405 0.2091302 0.2112326 0.2133345
 0.2154361 0.2175288 0.2196197 0.2217297 0.2238517 0.2259862 0.2281112 0.2301931 0.232229 0.2341977
 0.2361226 0.238011 0.2398867 0.2417628 0.2436493 0.2455537 0.2474709 0.2494029 0.2513334 0.25326
 0.2551762 0.257081 0.258981 0.2608762 0.2627575 0.264624 0.2664607 0.2682729 0.270079 0.2718831
 0.2737126 0.2755536 0.277391 0.2792125 0.2809876 0.2827301 0.2844418 0.2861382 0.287834 0.289524
 0.2912074 0.2928878 0.2945636 0.2962518 0.297959 0.2996748 0.3014004 0.3031077 0.3047941 0.3064536
 0.3080859 0.3096888 0.3112611 0.3127864 0.3142687 0.3157156 0.3171375 0.3185727 0.3200203 0.3215005
 0.3229991 0.3245046 0.3260067 0.3274911 0.3289531 0.330384 0.3317865 0.3331558 0.3345123 0.3358619
 0.3372174 0.338587 0.3399451 0.3412896 0.3425976 0.3438655 0.3451182 0.3463572 0.3476165 0.3488947
 0.3501908 0.3515027 0.3528198 0.3541423 0.3554681 0.3567904 0.358095 0.359375 0.3606113 0.3618103
 0.3629715 0.3641016 0.3652078 0.3662839 0.3673278 0.3683381 0.3693114 0.3702601 0.371185 0.3721021
 0.3730127 0.3739367 0.3748757 0.3758455 0.376846 0.3778613 0.3788887 0.3798944 0.3808804 0.3818389
 0.3827723 0.3836874 0.3845774 0.3854296 0.3862446 0.3870103 0.3877521 0.3884884 0.3892439 0.390047
 0.390888 0.391776 0.3926722 0.393569 0.3944263 0.3952328 0.3959751 0.3966468 0.3972749 0.3978609
 0.3984342 0.398995 0.3995203 0.4000071 0.4004115 0.4007423 0.4010148 0.4012477 0.401509 0.4018034
 0.4021777 0.4026175 0.4031244 0.4036773 0.4042581 0.4048446 0.405414 0.4059608 0.4064686 0.4069715
 0.4074746 0.4080171 0.4086163 0.4092463 0.4099126 0.4105274 0.4110845 0.4115153 0.4118178 0.4120017
 0.4120736 0.4121014 0.4120907 0.4121046 0.41214 0.4122181 0.4123394 0.4125109 0.4127458 0.4130719
 0.4134804 0.41399 0.4145346 0.4150809 0.4155585 0.4159106 0.416159 0.416283 0.416388 0.4164929
 0.4166759 0.4169565 0.4173207 0.4177717 0.4182352 0.4187075 0.4191144 0.4194563 0.4197047 0.4198717
 0.4199985 0.4201042 0.4202729 0.4205106 0.4208796 0.4213548 0.4219359 0.4225711 0.4232101 0.423808
 0.424309 0.4247228 0.4250265 0.4252907 0.4255297 0.4258138 0.4261646 0.4266002 0.4271271 0.4277405
 0.4284395 0.4292426 0.4301507 0.4311783 0.4323184 0.4335103 0.4347321 0.4358388 0.4368143 0.4375177
 0.4379775 0.4381658 0.4381676 0.4380882 0.4380145 0.4380889 0.4383137 0.4387592 0.4393182 0.4399711
 0.4405753 0.4410779 0.4413958 0.4414914 0.4413862 0.4410696 0.4406456 0.4401205 0.4396011 0.4390922
 0.4386274 0.4382022 0.4377824 0.4373662 0.4369228 0.436461 0.4359941 0.4355283 0.4350922 0.4346658
 0.4342442 0.4337732 0.4332007 0.4324695 0.4315137 0.4303345 0.4288979 0.4272892 0.4255188 0.423703
 0.4218687 0.420096 0.4184018 0.4168178 0.4153498 0.4139894 0.4127358 0.4115278 0.4103594 0.4091427
 0.4078825 0.4065515 0.4051742 0.4038184 0.4024974 0.4012865 0.4001538 0.3990918 0.3980458 0.3969479
 0.3957855 0.3945111 0.3931876 0.391822 0.3905127 0.3892972 0.3882266 0.3873321 0.3865598 0.3859163
 0.3852641 0.3845927 0.3837852 0.3828362 0.3817433 0.3805156 0.3792541 0.3779675 0.3767594 0.3756217
 0.3745854 0.37363 0.3727259 0.3718582 0.3709895 0.3701175 0.3692257 0.3683167 0.3673888 0.3664394
 0.3654666 0.3644689 0.3634414 0.362403 0.3613537 0.3603291 0.359336 0.3583854 0.3574814 0.3565807
 0.3556808 0.3547214 0.3537035 0.3526172 0.351473 0.3503237 0.3491766 0.3480892 0.3470507 0.3460693
 0.3451229 0.3441796 0.3432262 0.3422331 0.3412052 0.3401345 0.3390372 0.3379185 0.3367947 0.3356737
 0.3345609 0.3334618 0.3323621 0.331262 0.3301367 0.3289835 0.3277969 0.3265767 0.3253486 0.3241147
 0.3229059 0.3217208 0.3205674 0.3194412 0.3183311 0.3172348 0.3161413 0.3150524 0.3139654 0.3128843
 0.3118117 0.310753 0.3097117 0.3086957 0.3077082 0.3067621 0.3058636 0.3050172 0.304232 0.3034707
 0.3027357 0.3019405 0.3010779 0.3000765 0.2989328 0.2976695 0.2962951 0.2949211 0.2935563 0.2923128
 0.291182 0.290201 0.2893389 0.288549 0.2877923 0.2869824 0.2861075 0.2851075 0.2840283 0.2828755
 0.2817242 0.2806213 0.2795905 0.2786622 0.2777865 0.2769563 0.2761327 0.2753004 0.2745058 0.2737491
 0.2731153 0.2726088 0.2722436 0.2720115 0.2718147 0.2716376 0.2713363 0.2709111 0.2702764 0.2694658
 0.2685067 0.2674495 0.2663915 0.2653516 0.2643994 0.2635008 0.2626521 0.2618206 0.2609752 0.2601457
 0.2593307 0.2585821 0.2579217 0.2573292 0.2568118 0.2562863 0.2557435 0.2551515 0.2545083 0.2538803
 0.2532717 0.2527575 0.25233 0.2519845 0.2517051 0.2514316 0.2511592 0.2508444 0.2504954 0.2501073
 0.2496855 0.2492393 0.2487567 0.2482378 0.2476511 0.2469811 0.2462006 0.2452867 0.2442666 0.2431288
 0.2419777 0.2408228 0.2397834 0.2388759 0.2381244 0.2375313 0.236988 0.2364854 0.2358715 0.2351498
 0.2342547 0.2332137 0.2320867 0.230904 0.2297723 0.2286938 0.2277272 0.2268421 0.2260301 0.2252533
 0.2244774 0.2236835 0.2228474 0.2219817 0.2210801 0.220182 0.2192952 0.2184533 0.217668 0.2169178
 0.2162058 0.2154559 0.214664 0.2137813 0.2128118 0.2118027 0.2107642 0.2097892 0.2088698 0.2080324
 0.2072481 0.2064561 0.2056455 0.2047595 0.2038302 0.2028679 0.2019156 0.2010161 0.2001784 0.1994224
 0.1987327 0.1981039 0.1975408 0.197039 0.19663 0.1963195 0.1961215 0.196042 0.1960327 0.1960917
 0.1961118 0.1960874 0.1959129 0.1955934 0.1950995 0.1944542 0.1937215 0.1929296 0.1921792 0.1914835
 0.1909125 0.1904607 0.1901505 0.1899683 0.1899114 0.1899667 0.1901266 0.1903818 0.1907274 0.1911575
 0.1916703 0.1922591 0.1929219 0.193659 0.1944683 0.1953787 0.1963915 0.1975666 0.1989062 0.2004562
 0.2022091 0.2041461 0.2062498 0.2084457 0.2107214 0.2130058 0.2153024 0.2175831 0.2198615 0.222143
 0.2244378 0.2267572 0.2291036 0.2314829 0.2338892 0.236326 0.2387691 0.241221 0.2436216 0.2459681
 0.2481694 0.2502176 0.2520261 0.2535892 0.2548608 0.2558407 0.2565202 0.2569007 0.2569823 0.2567712
 0.2562781 0.2555365 0.2546151 0.2535923 0.2526197 0.2517897 0.2512776 0.2511196 0.2514204 0.2521266
 0.2532477 0.2546898 0.2564199 0.2583704 0.2605187 0.2628232 0.2652781 0.2678275 0.2704679 0.2731262
 0.2757979 0.278419 0.2809872 0.2834601 0.2858389 0.2881072 0.2902728 0.2923551 0.2943629 0.296338
 0.298258 0.3001351 0.3018589 0.3033534 0.3043737 0.3047391 0.3041249 0.3022908 0.2990672 0.2942611
 0.2881237 0.2806019 0.2723624 0.2634731 0.2546899 0.2461008 0.2381949 0.2310107 0.2246499 0.2191034
 0.2142138 0.2099606 0.2061332 0.2027223 0.1995835 0.196712 0.1940281 0.1915177 0.189122 0.1868267
 0.1845852 0.1824098 0.1802859 0.1782583 0.1763448 0.1745917 0.173024 0.1716573 0.1705035 0.16955
 0.1687972 0.1682266 0.1678361 0.1676171 0.1675692 0.1676866 0.1679668 0.1683685 0.1688769 0.1693742
 0.1698352 0.1700923 0.1701403 0.1698644 0.169313 0.1685015 0.1675235 0.1664916 0.1654988 0.1646609
 0.1640345 0.1636864 0.1636307 0.1638902 0.1644528 0.1653196 0.166478 0.1679289 0.1696493 0.1716497
 0.1737759 0.176026 0.1779365 0.1794683 0.1798922 0.1791874 0.1768031 0.1728525 0.167437 0.1608055
 0.1536406 0.1461619 0.1390978 0.132489 0.1267065 0.1216241 0.1172696 0.1134776 0.1101559 0.1072
 0.104546 0.1021442 0.09997308 0.09799092 0.09618954 0.09452817 0.09300165 0.09158237 0.09026833 0.08903796
 0.08788981 0.08679787 0.08576051 0.08475332 0.08377627 0.08281499 0.08187298 0.08095047 0.08005476 0.07919996
 0.07838903 0.0776369 0.0769271 0.07625585 0.07559145 0.07491181 0.07420389 0.07344875 0.07267884 0.07189418
 0.07114984 0.07045802 0.06984142 0.06930825 0.06882015 0.06837588 0.06791063 0.06742281 0.06688564 0.06630479
 0.06571062 0.06510704 0.06453079 0.06397168 0.06342256 0.06286922 0.062277 0.06165152 0.06097985 0.0602885
 0.05959519 0.05892397 0.05829596 0.05771883 0.05720228 0.0567409 0.05633826 0.05597223 0.05564298 0.05530813
 0.05496323 0.05457287 0.05413351 0.05365301 0.05313329 0.05261747 0.05210708 0.05163503 0.05119693 0.05079209
 0.05041495 0.05004925 0.04969414 0.04934047 0.04898944 0.0486392 0.04829037 0.04794141 0.04759778 0.04726019
 0.0469408 0.04664585 0.04637957 0.0461487 0.04593205 0.04572962 0.04550442 0.04525148 0.04495185 0.04460304
 0.04422355 0.04381514 0.04341549 0.04302504 0.04266586 0.04233341 0.04202054 0.04172177 0.04141692 0.04110701
 0.04078199 0.0404515 0.04012327 0.03980741 0.03951878 0.03925346 0.03901859 0.03878959 0.03856054 0.03830132
 0.0380001 0.03764828 0.03723858 0.03679489 0.03631772 0.03584273 0.03537267 0.03492514 0.03450022 0.03409252
 0.03370122 0.03331699 0.03294069 0.03257183 0.0322105 0.03185777 0.03151064 0.03116376 0.03081507 0.03045817
 0.03009677 0.02973113 0.02936772 0.02901103 0.02866407 0.02832967 0.02800701 0.0276965 0.02739662 0.02710762
 0.02682543 0.02655025 0.02627235 0.02599114 0.02569656 0.02538861 0.02507006 0.02474317 0.02442738 0.02412472
 0.02385632 0.02361829 0.02341299 0.02323009 0.02305123 0.02286783 0.02265898 0.02242603 0.02216111 0.02187346
 0.02156634 0.0212482 0.02092397 0.02059669 0.02026821 0.01993962 0.0196111 0.01928516 0.01896196 0.01864506
 0.01833477 0.01803284 0.01773921 0.01745161 0.01716953 0.0168875 0.01660555 0.01632016 0.01603302 0.01574678
 0.01546381 0.01519078 0.01492685 0.01467504 0.01442994 0.01418778 0.01394376 0.01369214 0.01343592 0.01317336
 0.01291467 0.01266289 0.01242383 0.01220085 0.01198569 0.01177877 0.01156217 0.01133455 0.01108443 0.01081179
 0.01052286 0.01021935 0.009918803 0.009621662 0.009340393 0.009071825 0.008813811 0.008561878 0.008305336 0.008043772
 0.007770709 0.00749139 0.007208013 0.006926537 0.006652349 0.006385975 0.006129912 0.005879465 0.005633683 0.005389051
 0.005144301 0.004900175 0.00465665 0.004414456 0.004173834 0.003930365 0.003683787 0.0034282 0.003163879 0.002890431
 0.002608973 0.002324434 0.002037646 0.001753485 0.00147241 0.001197362 0.0009291467 0.0006705738 0.0004206495 0.0001806514
 -5.4472E-05 -0.0002871792 -0.0005228723 -0.0007655093 -0.00101438 -0.001270942 -0.001529384 -0.001788794 -0.002044665 -0.002296005
 -0.002543024 -0.002785529 -0.003027216 -0.003268321 -0.003514142 -0.0037648 -0.004024162 -0.004291156 -0.004563535 -0.004838701
 -0.005107905 -0.005369036 -0.005612765 -0.005840699 -0.006049561 -0.00624617 -0.006434826 -0.006624404 -0.006822709 -0.007032938
 -0.007260375 -0.0074978 -0.007745131 -0.0079909 -0.008232325 -0.008464333 -0.008685259 -0.008898985 -0.009105524 -0.009311816
 -0.009518166 -0.00972926 -0.009944872 -0.01016528 -0.01038943 -0.01061271 -0.01083392 -0.01104647 -0.01125116 -0.01144569
 -0.0116332 -0.01181699 -0.01200013 -0.01218733 -0.01237866 -0.01257626 -0.01277713 -0.01298084 -0.01318338 -0.01338327
 -0.01357854 -0.01376823 -0.01395348 -0.01413421 -0.01431262 -0.01448889 -0.0146642 -0.01483866 -0.01501416 -0.01519108
 -0.01537387 -0.01556298 -0.01576331 -0.01597408 -0.01619606 -0.01642702 -0.01666309 -0.0169018 -0.01713776 -0.01737032
 -0.01759615 -0.01781777 -0.01803549 -0.01825298 -0.01847245 -0.01869453 -0.01892065 -0.01914695 -0.01937297 -0.01959503
 -0.01981226 -0.02002544 -0.0202345 -0.02044202 -0.02064808 -0.02085332 -0.0210577 -0.02126105 -0.02146371 -0.02166732
 -0.02187217 -0.02208032 -0.02229111 -0.02250435 -0.02271899 -0.02293347 -0.02314707 -0.02335856 -0.02356736 -0.0237728
 -0.02397423 -0.02417102 -0.02436336 -0.0245508 -0.0247355 -0.02491743 -0.02510066 -0.02528554 -0.02547654 -0.0256741
 -0.02587999 -0.02609423 -0.02631385 -0.02653836 -0.02676152 -0.02698307 -0.02719807 -0.02740746 -0.0276113 -0.02781132
 -0.02801159 -0.02821214 -0.02841588 -0.02861919 -0.02881989 -0.02901378 -0.02919587 -0.02936862 -0.02953024 -0.02969045
 -0.02985237 -0.03002141 -0.03020082 -0.03038362 -0.03056958 -0.03074975 -0.03092296 -0.0310909 -0.03125369 -0.03141775
 -0.03158281 -0.03174816 -0.03191314 -0.03207307 -0.03222936 -0.03238388 -0.03253879 -0.03270065 -0.0328681 -0.03304275
 -0.03322036 -0.03339702 -0.03356992 -0.03373541 -0.03389386 -0.03404376 -0.03418907 -0.03433001 -0.03447343 -0.03462092
 -0.03477701 -0.03494349 -0.03511459 -0.03529034 -0.0354584 -0.03561821 -0.03576424 -0.03589728 -0.03602401 -0.03614554
 -0.03627175 -0.03640193 -0.03653928 -0.03668169 -0.03682606 -0.03697093 -0.03711225 -0.03725082 -0.03738568 -0.03751878
 -0.03765178 -0.03778419 -0.03791717 -0.0380462 -0.03816994 -0.0382854 -0.03839058 -0.0384906 -0.03858519 -0.03868489
 -0.03879067 -0.0389083 -0.03903804 -0.03917722 -0.03932565 -0.03947977 -0.03964059 -0.03981138 -0.03999405 -0.04019661
 -0.04042008 -0.04067042 -0.04094828 -0.04125584 -0.04159715 -0.04197499 -0.04239958 -0.04287793 -0.0434211 -0.04403765
 -0.04472862 -0.045498 -0.04633576 -0.04723988 -0.04820529 -0.04923042 -0.05031964 -0.051475 -0.05267247 -0.05391003
 -0.05509096 -0.05620587 -0.05711644 -0.05781989 -0.05822707 -0.0583472 -0.0581635 -0.05768606 -0.05691189 -0.05589158
 -0.05467476 -0.05337702 -0.05213944 -0.05104151 -0.05019579 -0.04960128 -0.04928995 -0.04922838 -0.04941797 -0.04980375
 -0.0503883 -0.05104621 -0.05176974 -0.05237842 -0.05285187 -0.05312714 -0.0532013 -0.05317084 -0.0530412 -0.05290633
 -0.05276153 -0.05262863 -0.05250059 -0.05236418 -0.05221875 -0.0520556 -0.05187858 -0.05169087 -0.05149309 -0.05128871
 -0.05107255 -0.0508416 -0.05059258 -0.05032038 -0.05003388 -0.04973267 -0.04943507 -0.04914508 -0.04887624 -0.04863205
 -0.04841243 -0.04821814 -0.0480404 -0.04787877 -0.04772669 -0.04758436 -0.04745226 -0.04733109 -0.04722516 -0.04713476
 -0.0470636 -0.04701071 -0.04697634 -0.04695794 -0.04695213 -0.0469557 -0.04696373 -0.04697492 -0.04698643 -0.04699916
 -0.04701303 -0.04702833 -0.04704544 -0.04706309 -0.0470809 -0.04709867 -0.04711607 -0.047135 -0.04715552 -0.04718006
 -0.04720874 -0.04724281 -0.04728221 -0.04732694 -0.04737666 -0.04742952 -0.04748526 -0.04754181 -0.04759949 -0.04765791
 -0.04771778 -0.04778026 -0.0478453 -0.04791365 -0.04798394 -0.048056 -0.04812665 -0.04819487 -0.04825588 -0.04830778
 -0.04834728 -0.04837229 -0.04838673 -0.04838999 -0.04839308 -0.04839693 -0.04841045 -0.04843414 -0.04846694 -0.04850822
 -0.04854941 -0.04859026 -0.04862458 -0.04865357 -0.04867808 -0.04869943 -0.04872153 -0.04874401 -0.04876811 -0.04879288
 -0.04881736 -0.04884208 -0.04886717 -0.04889303 -0.04892084 -0.04894718 -0.04897159 -0.0489891 -0.04899778 -0.04899811
 -0.04898914 -0.04897804 -0.0489653 -0.04895775 -0.0489558 -0.04896061 -0.04897211 -0.04898936 -0.04901262 -0.04904314
 -0.04908101 -0.04912815 -0.0491826 -0.04924166 -0.04930115 -0.04935306 -0.04939476 -0.04941893 -0.04942871 -0.04942247
 -0.04940923 -0.0493927 -0.0493817 -0.04938088 -0.04939242 -0.0494187 -0.04945432 -0.04949925 -0.04954525 -0.04959146
 -0.04963306 -0.04966974 -0.04970245 -0.04973144 -0.0497605 -0.04978988 -0.04982301 -0.04985994 -0.04990304 -0.0499515
 -0.05000526 -0.05006196 -0.05011792 -0.05017084 -0.05021587 -0.05025444 -0.05028516 -0.05031291 -0.05034009 -0.05036961
 -0.05040381 -0.05044081 -0.05048076 -0.05052067 -0.05055981 -0.05059828 -0.05063592 -0.05067458 -0.05071438 -0.05075492
 -0.05079599 -0.05083451 -0.0508706 -0.05090303 -0.05093316 -0.05096529 -0.05100061 -0.05104504 -0.05109666 -0.05115584
 -0.05121798 -0.05127776 -0.05133248 -0.05137733 -0.0514144 -0.05144311 -0.05146729 -0.05148825 -0.05150852 -0.05152912
 -0.0515506 -0.05157338 -0.05159624 -0.05161922 -0.05163993 -0.05165821 -0.05167369 -0.05168653 -0.05169924 -0.05171204
 -0.05172753 -0.0517458 -0.05176835 -0.05179555 -0.0518292 -0.05186925 -0.05191708 -0.05197075 -0.05202887 -0.05208885
 -0.05214791 -0.05220531 -0.05225969 -0.05231167 -0.05236121 -0.05240861 -0.0524538 -0.05249778 -0.0525405 -0.05258446
 -0.05263 -0.0526778 -0.05272793 -0.05277719 -0.05282548 -0.05287058 -0.05291318 -0.0529565 -0.05300141 -0.05305348
 -0.0531116 -0.05317629 -0.05324507 -0.05331337 -0.05338103 -0.05344519 -0.05350889 -0.05357419 -0.05364176 -0.05371404
 -0.05378526 -0.05385404 -0.05391477 -0.05396442 -0.05400689 -0.05404152 -0.05407871 -0.05411974 -0.05416893 -0.05422672
 -0.05428697 -0.05434924 -0.05440569 -0.05445679 -0.05450168 -0.05454152 -0.05458072 -0.05461911 -0.05465886 -0.05469838
 -0.05473543 -0.05477007 -0.0548005 -0.05483014 -0.0548608 -0.05489641 -0.05494012 -0.05499256 -0.05505494 -0.05512593
 -0.05520535 -0.05529242 -0.05538721 -0.05548787 -0.0555945 -0.05570205 -0.05581024 -0.05591486 -0.05601595 -0.05611394
 -0.05620907 -0.05630318 -0.05639596 -0.05648694 -0.05657586 -0.05666162 -0.05674459 -0.05682508 -0.05690306 -0.05697877
 -0.05705157 -0.05712067 -0.0571867 -0.05724918 -0.05731098 -0.05737291 -0.05743773 -0.05750655 -0.05757973 -0.05765773
 -0.05773858 -0.0578222 -0.05790574 -0.05798901 -0.0580705 -0.05815028 -0.05822948 -0.05830825 -0.05838857 -0.05847009
 -0.05855255 -0.05863531 -0.0587165 -0.05879601 -0.05887272 -0.05894699 -0.05901891 -0.05908842 -0.05915579 -0.05921993
 -0.05928046 -0.05933591 -0.05938542 -0.05942896 -0.05946562 -0.05949975 -0.05953148 -0.05956791 -0.05960995 -0.0596609
 -0.05972113 -0.0597862 -0.05985572 -0.05992194 -0.05998479 -0.06003978 -0.0600876 -0.06012823 -0.06016283 -0.06019427
 -0.06022363 -0.06025444 -0.06028626 -0.06032032 -0.06035471 -0.06038801 -0.06041947 -0.06044768 -0.06047468 -0.06050104
 -0.06052812 -0.06055694 -0.06058545 -0.06061372 -0.06063805 -0.06065806 -0.06067094 -0.06067642 -0.06067551 -0.06066852
 -0.0606613 -0.06065445 -0.06065546 -0.06066375 -0.06068163 -0.060707 -0.06073563 -0.06076567 -0.06079159 -0.06081333
 -0.06082831 -0.06083803 -0.06084261 -0.06084442 -0.06084533 -0.06084529 -0.0608456 -0.0608419 -0.06083299 -0.06081689
 -0.06079189 -0.06076562 -0.06073842 -0.06072019 -0.06071175 -0.06071256 -0.06072212 -0.06073011 -0.0607359 -0.06072986
 -0.06071253 -0.06068056 -0.06063594 -0.06058145 -0.06052073 -0.06046151 -0.0604067 -0.06036409 -0.06033203 -0.06031301
 -0.06030073 -0.06029269 -0.06028218 -0.06026539 -0.0602403 -0.0602044 -0.06016371 -0.06011834 -0.06007764 -0.06004317
 -0.06001598 -0.05999646 -0.0599754 -0.05995252 -0.05992255 -0.05988668 -0.05985178 -0.05981871 -0.05979557 -0.05978023
 -0.05977143 -0.05976623 -0.05975872 -0.05974675 -0.05972551 -0.05969302 -0.05964506 -0.05958343 -0.05950633 -0.05942202
 -0.05933334 -0.05924698 -0.05916624 -0.05909043 -0.05902033 -0.05895193 -0.058885 -0.05881484 -0.0587412 -0.05865797
 -0.05856507 -0.05846116 -0.05834746 -0.05823256 -0.05811784 -0.05801419 -0.05792081 -0.05784175 -0.05777416 -0.05771534
 -0.057661 -0.05760514 -0.05754302 -0.05746766 -0.05737878 -0.05727275 -0.05715598 -0.05702988 -0.05690127 -0.05677255
 -0.05664689 -0.05652514 -0.0564096 -0.05630075 -0.05619863 -0.0561034 -0.05601032 -0.05591927 -0.05582812 -0.05573753
 -0.05565236 -0.05557229 -0.0554997 -0.05543152 -0.05536083 -0.05528439 -0.05519212 -0.05508436 -0.05495606 -0.05481267
 -0.0546564 -0.05449497 -0.05433442 -0.05417743 -0.05402848 -0.05388002 -0.05373127 -0.05357321 -0.0534025 -0.05322375
 -0.05303612 -0.05285478 -0.05268072 -0.0525246 -0.05238653 -0.0522664 -0.05216249 -0.05206277 -0.05196322 -0.05183922
 -0.05168967 -0.05149513 -0.05126546 -0.05100916 -0.05073821 -0.05047366 -0.0502179 -0.04998023 -0.04976056 -0.04956108
 -0.04938219 -0.04922715 -0.04908506 -0.04895605 -0.04881812 -0.04866689 -0.04848843 -0.04827958 -0.04804285 -0.04777795
 -0.04749522 -0.0471954 -0.04689376 -0.04659123 -0.04630341 -0.04602901 -0.04577145 -0.04552722 -0.04528817 -0.04505193
 -0.04481104 -0.04456226 -0.04429897 -0.04401711 -0.0437082 -0.04337795 -0.04302481 -0.04266408 -0.04230363 -0.04194731
 -0.0416003 -0.04125033 -0.04089557 -0.04052809 -0.04014578 -0.0397537 -0.03935208 -0.03894578 -0.03853459 -0.0381113
 -0.03767388 -0.03720181 -0.0366942 -0.03613247 -0.03552467 -0.03488269 -0.03421794 -0.03356265 -0.0329118 -0.03227522
 -0.03163584 -0.03097782 -0.03029909 -0.02958798 -0.02886644 -0.02814138 -0.02742963 -0.02674182 -0.02606631 -0.02540672
 -0.02472456 -0.02401761 -0.0232346 -0.02237058 -0.02141565 -0.02037152 -0.01930276 -0.01821134 -0.01714743 -0.01609813
 -0.01503192 -0.01393328 -0.01273722 -0.01144498 -0.01002371 -0.008492352 -0.006860778 -0.005152729 -0.003394188 -0.001600711
 0.000203695 0.002034921 0.003887226 0.005806076 0.007812717 0.009896698 0.01207434 0.01423083 0.01635308 0.01836095
 0.02024416 0.022041 0.02375339 0.02542678 0.02705829 0.02863423 0.03015994 0.03164357 0.0331134 0.03465993
 0.0362987 0.03812183 0.04008344 0.04216256 0.04430438 0.04643157 0.04856519 0.05068972 0.05285465 0.05508535
 0.05738855 0.05977302 0.06222669 0.06473399 0.06737655 0.07014835 0.07326625 0.07675052 0.0806747 0.08503094
 0.08944649 0.09390187 0.09804318 0.1019219 0.1056005 0.1091314 0.1127127 0.1163434 0.1201118 0.1240091
 0.1280317 0.132252 0.1367032 0.141556 0.1469432 0.1529457 0.1597133 0.1669431 0.1746267 0.1822464
 0.1896756 0.1966887 0.2032198 0.2093542 0.2150866 0.2206336 0.2260113 0.2316032 0.2374461 0.2440887
 0.2514704 0.2596841 0.2684516 0.2769082 0.2850041 0.2921175 0.2985904 0.3046587 0.3105868 0.3167651
 0.3231983 0.3300205 0.3371289 0.3444993 0.3520855 0.3598927 0.367773 0.3757116 0.3835011 0.3910903
 0.398561 0.4059139 0.4132929 0.4206949 0.4278037 0.4345868 0.4405684 0.4458045 0.4503037 0.4541749
 0.4578021 0.4611457 0.4643544 0.4672348 0.4694978 0.4712143 0.4722896 0.4730088 0.4735687 0.4740664
 0.4746303 0.4751493 0.4756128 0.4759272 0.4760557 0.4760351 0.4758595 0.4756242 0.4753391 0.4750236
 0.4746762 0.4741715 0.4735034 0.472562 0.471358 0.4698915 0.4681699 0.4662137 0.4640277 0.4616191
 0.4590244 0.4562845 0.4534704 0.450662 0.4479271 0.4453288 0.4429314 0.4407739 0.4389191 0.4374019
 0.4362245 0.4354003 0.4348739 0.4346369 0.4346724 0.4349766 0.4355807 0.4364859 0.4376999 0.4392188
 0.441004 0.443051 0.4453162 0.4477986 0.4504724 0.4533388 0.4563864 0.4596224 0.4630516 0.4666837
 0.470531 0.4745976 0.4788896 0.4834102 0.48816 0.4931497 0.4983816 0.5038689 0.5096207 0.5156116
 0.5218499 0.5282167 0.534705 0.541177 0.5476278 0.5540849 0.5605557 0.5671688 0.5738645 0.5804301
 0.5867409 0.5922288 0.5969501 0.6007077 0.6037099 0.6062253 0.6082896 0.6100773 0.6114541 0.6123477
 0.6127534 0.6126181 0.6120871 0.6112059 0.6100425 0.6086417 0.606898 0.6048073 0.6022367 0.5991706
 0.5955973 0.5915164 0.5869493 0.5819001 0.5764106 0.5704964 0.5642616 0.557717 0.5509833 0.5439895
 0.5367038 0.5288973 0.5201809 0.510482 0.4993604 0.4875207 0.4753098 0.4633486 0.4521911 0.4415299
 0.4313779 0.4214172 0.4115187 0.4018475 0.3923992 0.3834338 0.374986 0.3669998 0.3594712 0.3521607
 0.3450652 0.3380682 0.3311912 0.3244948 0.3179866 0.311737 0.3057083 0.2998547 0.2941335 0.2884504
 0.282806 0.2771729 0.2715392 0.2659275 0.2601938 0.25429 0.2480371 0.2412659 0.2343343 0.2272153
 0.2207011 0.2149638 0.2100097 0.2058823 0.202017 0.1983871 0.1946489 0.1908179 0.1869607 0.183112
 0.1795102 0.1761348 0.1730431 0.1701975 0.1675193 0.1650429 0.1627724 0.1607875 0.1591885 0.1579863
 0.157235 0.156875 0.1568873 0.1572342 0.1578894 0.1588742 0.1601729 0.1618983 0.1640472 0.1668609
 0.1703649 0.1746905 0.1798409 0.1853326 0.1911124 0.1963807 0.201158 0.2051407 0.2084059 0.211059
 0.2131389 0.2147675 0.2159934 0.2169091 0.2176459 0.2183589 0.2192037 0.2203887 0.2218464 0.2236605
 0.2254919 0.2272144 0.2287093 0.2298885 0.230937 0.2318676 0.2328542 0.2339191 0.2350888 0.236365
 0.2376653 0.2389878 0.2402771 0.2415509 0.2428716 0.2442747 0.2459182 0.2478178 0.2501058 0.2527315
 0.255672 0.2588831 0.2622758 0.2659246 0.269845 0.274144 0.2789046 0.2841002 0.2897613 0.2957465
 0.3020169 0.3085313 0.3152593 0.3223519 0.3298245 0.3377495 0.3461297 0.3545723 0.3630377 0.3709034
 0.3781816 0.3846237 0.3902794 0.3952171 0.3994085 0.4028426 0.4054256 0.4069928 0.4075071 0.4068404
 0.4050628 0.4021719 0.3982846 0.3934522 0.3877879 0.3813318 0.3741989 0.366398 0.3581421 0.3494363
 0.3406637 0.3318575 0.3233411 0.3151334 0.3072384 0.2996443 0.2921843 0.2848702 0.2776769 0.270652
 0.2639613 0.2576148 0.251737 0.2462677 0.2411713 0.236375 0.2317834 0.2273513 0.2230123 0.2187515
 0.2145384 0.210393 0.2063115 0.202334 0.1984719 0.1947395 0.1911438 0.1876644 0.1842992 0.1810462
 0.1779053 0.1749382 0.1721506 0.1696359 0.167393 0.1654662 0.1638408 0.1624895 0.1613965 0.1605125
 0.1598278 0.1593073 0.1589414 0.1587101 0.1585951 0.1585834 0.1586377 0.1587445 0.1588412 0.1589102
 0.1588755 0.158719 0.1583728 0.1578227 0.1570336 0.1559974 0.1547378 0.1532557 0.1516302 0.1498669
 0.1480553 0.1462009 0.1443781 0.142595 0.1409197 0.1393593 0.1379675 0.1367403 0.1356972 0.1348249
 0.1341157 0.1335574 0.1331392 0.1328497 0.1326838 0.1326212 0.1326585 0.1327607 0.1329234 0.1330963
 0.1332736 0.1333988 0.1334657 0.1334338 0.1333003 0.1330586 0.1327105 0.132279 0.1317683 0.1312142
 0.1306204 0.1300197 0.1294116 0.1288127 0.128217 0.1276217 0.1270202 0.126403 0.1257674 0.1251083
 0.1244244 0.1237135 0.1229752 0.122207 0.1214167 0.1206038 0.1197865 0.1189671 0.1181637 0.1173785
 0.1166209 0.1158916 0.1151927 0.1145245 0.1138898 0.1132899 0.1127347 0.1122275 0.111786 0.1114141
 0.1111301 0.110936 0.110844 0.1108524 0.1109663 0.1111761 0.1114798 0.1118558 0.112295 0.1127704
 0.1132704 0.1137757 0.1142792 0.1147718 0.1152514 0.1157122 0.1161534 0.1165718 0.116967 0.1173433
 0.1177012 0.118052 0.1183965 0.1187462 0.1190988 0.1194557 0.1198063 0.1201295 0.1204061 0.1205951
 0.1206821 0.1206294 0.1204445 0.1201147 0.1196706 0.119122 0.1185056 0.1178372 0.1171427 0.1164324
 0.115716 0.1149975 0.1142754 0.1135502 0.1128175 0.1120772 0.1113249 0.1105603 0.1097792 0.1089822
 0.1081698 0.1073443 0.1065155 0.1056846 0.104862 0.1040419 0.1032213 0.1023881 0.101526 0.1006282
 0.09967936 0.09869206 0.09766348 0.09662702 0.09559315 0.09459325 0.09364172 0.09273393 0.09187654 0.09102184
 0.0901665 0.08926111 0.08830189 0.08729173 0.08623416 0.0851889 0.08416105 0.08321605 0.08235069 0.08158842
 0.08092103 0.08033622 0.07983648 0.07941522 0.07909157 0.07888503 0.07881366 0.07890322 0.07914974 0.07956104
 0.08011879 0.08081482 0.0816476 0.08261061 0.08373046 0.08500972 0.08647685 0.08813673 0.08998915 0.09203481
 0.09424388 0.0966145 0.09911259 0.1017385 0.1044779 0.1073333 0.1103094 0.1134028 0.1166129 0.1199218
 0.123303 0.1267282 0.1301538 0.1335567 0.1369018 0.1401818 0.1433819 0.1465065 0.1495543 0.1525284
 0.1554304 0.1582581 0.1610109 0.1636904 0.1662956 0.1688407 0.171326 0.1737785 0.1762003 0.1786284
 0.1810687 0.1835754 0.1861599 0.1888953 0.1917929 0.1949216 0.1982798 0.2019012 0.2057667 0.2098699
 0.2141821 0.2186814 0.2233319 0.2281191 0.2329765 0.2378986 0.2427376 0.247483 0.2518747 0.255884
 0.2591981 0.2617787 0.2634201 0.2641029 0.2638681 0.2627295 0.2609479 0.2585496 0.255845 0.252845
 0.2497605 0.2465833 0.2433978 0.2401937 0.2369867 0.2337801 0.230579 0.2274019 0.2242623 0.2211863
 0.2181887 0.2153013 0.2125349 0.2099309 0.2074997 0.2052829 0.2032904 0.2015406 0.2000389 0.1987695
 0.1977323 0.1968886 0.1962356 0.1957256 0.1953545 0.1950725 0.1948755 0.1947208 0.1946055 0.1945017
 0.1944045 0.194296 0.1941626 0.1939846 0.1937391 0.1934018 0.1929523 0.1923689 0.1916503 0.1907854
 0.1897993 0.1886924 0.1875069 0.1862483 0.1849611 0.1836496 0.1823547 0.1810791 0.179861 0.1787021
 0.1776317 0.1766492 0.1757659 0.1749799 0.1742882 0.1736905 0.1731832 0.1727688 0.1724501 0.1722287
 0.1721103 0.1720876 0.1721622 0.1723087 0.1725192 0.1727492 0.1729837 0.1731713 0.173298 0.1733164
 0.1732184 0.1729572 0.1725274 0.1718883 0.1710361 0.1699646 0.1686763 0.1672227 0.1656125 0.1639335
 0.1621918 0.1604617 0.1587393 0.1570534 0.1553926 0.1537485 0.1521114 0.1504645 0.1488038 0.1471221
 0.1454113 0.14367 0.1418727 0.1400133 0.1380534 0.1359816 0.1337684 0.1314048 0.1288844 0.126204
 0.123379 0.1204095 0.1173313 0.1141473 0.1109146 0.1076388 0.1043901 0.1011742 0.09805318 0.09502771
 0.09213309 0.0893623 0.0867201 0.08419537 0.081775 0.07945225 0.07721432 0.07506517 0.07300173 0.0710353
 0.06916949 0.06741441 0.06577422 0.06425238 0.06285159 0.06156436 0.06039228 0.05930744 0.05830904 0.05734378
 0.05640828 0.05543735 0.05442889 0.05333475 0.05215903 0.05089068 0.04954125 0.04813429 0.04668556 0.04523431
 0.04379509 0.04240348 0.04106616 0.0398039 0.03861018 0.03748997 0.03642467 0.03540919 0.03442285 0.03345858
 0.03250379 0.03155398 0.03060886 0.02966668 0.02874087 0.02783179 0.02696422 0.02613952 0.02538262 0.02469355
 0.02408393 0.02355193 0.02309546 0.02271341 0.02240195 0.02215986 0.02198552 0.02187126 0.02180893 0.0217843
 0.02178051 0.02179099 0.02180257 0.0218282 0.02186799 0.02194306 0.02206105 0.02222902 0.02245119 0.02271901
 0.02303198 0.02338295 0.02377147 0.02419183 0.02464285 0.02509733 0.02554991 0.0259443 0.02627542 0.02648791
 0.02658602 0.02654987 0.02639423 0.02613638 0.0257939 0.02539645 0.02495913 0.02450446 0.02404678 0.02359891
 0.02317839 0.02279348 0.02246446 0.02219782 0.02201169 0.02191047 0.02190623 0.02200129 0.02220005 0.02250336
 0.02290502 0.02340418 0.02397897 0.02462674 0.0253155 0.02604307 0.02678256 0.02753357 0.02828166 0.02902617
 0.02975934 0.0304802 0.03118299 0.03187121 0.0325443 0.03321145 0.03387817 0.03455201 0.03523932 0.03593743
 0.0366492 0.03735945 0.03806734 0.03875042 0.03940618 0.04001538 0.04057631 0.04107858 0.04152174 0.04190033
 0.04221446 0.04246103 0.04264278 0.04276788 0.04284489 0.04290074 0.04294779 0.04302293 0.04313497 0.04331333
 0.04355601 0.04387489 0.04425447 0.04468992 0.04516212 0.04565961 0.04617736 0.04670925 0.04726619 0.04784978
 0.04846705 0.04912072 0.04979923 0.05050249 0.05120737 0.05191264 0.05259581 0.05325621 0.05387744 0.05446137
 0.05500599 0.05551784 0.05601418 0.05650285 0.05700858 0.05753377 0.05809264 0.05868338 0.05930876 0.05996805
 0.06066222 0.06138816 0.0621478 0.06292596 0.06372073 0.0645092 0.06528556 0.06603944 0.06676681 0.06748172
 0.0681845 0.06889752 0.06962141 0.070357 0.07110111 0.07182486 0.07252444 0.07316428 0.0737473 0.07426063
 0.07471606 0.07512987 0.07551589 0.07590181 0.07629237 0.07670564 0.07713052 0.07756707 0.07799726 0.07841003
 0.07880431 0.07917203 0.07954197 0.07991625 0.08033319 0.08079945 0.08132859 0.08192345 0.08256392 0.08324876
 0.08394668 0.08465697 0.0853603 0.08605808 0.08674614 0.08742751 0.08810802 0.08879262 0.0894951 0.09021677
 0.09096985 0.09174062 0.09252436 0.09329507 0.09403265 0.09472328 0.09535074 0.0959289 0.09645642 0.09695824
 0.09744045 0.09791385 0.09838186 0.09883863 0.09928424 0.09970827 0.1001103 0.1004833 0.1008281 0.101147
 0.101443 0.1017312 0.1020157 0.1023181 0.1026389 0.1029918 0.1033696 0.1037696 0.1041793 0.1045841
 0.1049787 0.1053503 0.105715 0.1060733 0.1064553 0.1068723 0.1073378 0.1078611 0.1084202 0.1090157
 0.1096068 0.11019 0.1107374 0.1112478 0.1117218 0.1121619 0.1125925 0.1130178 0.1134716 0.1139576
 0.114505 0.1151151 0.1158065 0.1165748 0.1174245 0.1183418 0.1193172 0.1203309 0.1213686 0.1224106
 0.1234485 0.1244541 0.1254222 0.1263061 0.1270951 0.1277547 0.1282731 0.1286782 0.1289682 0.1292267
 0.1294581 0.1297391 0.1300697 0.1304795 0.1309634 0.1315117 0.1321179 0.1327581 0.1334241 0.1340906
 0.1347435 0.1353544 0.1359037 0.1363599 0.1367134 0.1369419 0.1370625 0.1370722 0.1370087 0.1368816
 0.1367282 0.1365568 0.1363983 0.1362567 0.1361632 0.1361207 0.1361518 0.1362572 0.1364353 0.1366843
 0.1369846 0.1373343 0.1377134 0.1381216 0.1385469 0.1389914 0.1394542 0.1399354 0.1404373 0.1409527
 0.141472 0.1420006 0.1425259 0.1431015 0.1437425 0.1445226 0.1454944 0.1465866 0.1478153 0.1489706
 0.1500124 0.1509022 0.1516272 0.1522852 0.1528805 0.1534645 0.1540338 0.1545661 0.1550561 0.1554631
 0.155786 0.1560034 0.1561114 0.1560934 0.1559422 0.1556364 0.1551817 0.1545681 0.1538272 0.1529701
 0.1520517 0.1510962 0.1501621 0.1492729 0.1484703 0.1477674 0.1471871 0.1467333 0.1464268 0.1462683
 0.1462947 0.146508 0.1469605 0.1476548 0.1486401 0.1499168 0.1515156 0.153432 0.1556735 0.1582221
 0.1610613 0.1641239 0.1673523 0.1705428 0.1735326 0.1759349 0.177437 0.1777131 0.1764312 0.1737724
 0.1696109 0.164691 0.1591103 0.1537112 0.1486417 0.1443594 0.1409369 0.138333 0.1365466 0.1352843
 0.134531 0.1340268 0.1337687 0.1336096 0.1335495 0.1335102 0.1334939 0.133466 0.1334331 0.1333923
 0.1333451 0.1332939 0.1332343 0.1331595 0.1330812 0.1329949 0.132944 0.1329403 0.1330243 0.1332149
 0.1334925 0.1338636 0.1342507 0.1346474 0.1349986 0.1353016 0.1355806 0.135839 0.1361293 0.1364444
 0.1367768 0.1371084 0.1373711 0.1375594 0.1376199 0.1375726 0.1374221 0.1371982 0.1369367 0.1366545
 0.1363779 0.136105 0.1358424 0.1355812 0.1353184 0.1350525 0.1347801 0.1345158 0.1342593 0.1340375
 0.1338532 0.1337206 0.1336404 0.1335782 0.1335281 0.1334067 0.133211 0.1328734 0.1324126 0.1318499
 0.1312211 0.1306232 0.13007 0.1296393 0.1292932 0.1290293 0.1287809 0.1284948 0.1281315 0.1276489
 0.1270601 0.126358 0.1255719 0.1247109 0.1237763 0.1227708 0.1216791 0.1204987 0.1192391 0.1179007
 0.1165152 0.1150833 0.113619 0.1121218 0.11059 0.1090328 0.1074768 0.105943 0.1044943 0.1031415
 0.1019364 0.1008616 0.09992319 0.09908407 0.09832033 0.09759576 0.09688296 0.09616923 0.09543758 0.0947146
 0.09400005 0.09333805 0.09273896 0.09220613 0.09174513 0.09128401 0.09081895</values></Ydata></AB><ScSm><Ydata ylabel="Single channel"><values byteorder="INTEL" format="FLOAT32" numvalues="1814"> 0.0735507 0.07357561 0.07366199 0.07382411 0.07403345 0.07423432 0.07438224 0.07447076 0.0745144 0.074516
 0.07448 0.0744549 0.07451844 0.07470036 0.07493831 0.07512045 0.07517295 0.07512666 0.07510377 0.07519995
 0.07535379 0.07536368 0.07507689 0.07456282 0.074067 0.07378462 0.07373871 0.07392205 0.07441737 0.07516752
 0.07571777 0.07554222 0.07470806 0.07390255 0.07367161 0.0738965 0.07411616 0.07405549 0.07370969 0.07324538
 0.07305029 0.07362498 0.07509126 0.07679259 0.07753079 0.07631616 0.07306927 0.06886029 0.06552921 0.06469934
 0.06662264 0.06983966 0.07227699 0.07290458 0.07223064 0.07126033 0.07042505 0.06970035 0.069277 0.0695928
 0.07071744 0.07194817 0.07216071 0.07075001 0.06835036 0.06641257 0.06589118 0.06662345 0.06807917 0.06994648
 0.0713601 0.07044025 0.06613192 0.06056439 0.05811428 0.06124396 0.06787562 0.07344216 0.07496016 0.07267269
 0.06869856 0.06527556 0.06395435 0.06517531 0.06814435 0.0715005 0.074164 0.07540514 0.07465728 0.07199833
 0.06863253 0.06630227 0.06621134 0.06856232 0.07252601 0.07630275 0.07792905 0.07673362 0.07379127 0.07077613
 0.0688518 0.06867816 0.07057004 0.07415639 0.07837124 0.08209243 0.0846045 0.08563611 0.0853958 0.08444941
 0.08329594 0.08229125 0.08195546 0.0826475 0.08373223 0.08382773 0.08231545 0.08016703 0.07894251 0.07917869
 0.07996317 0.08004541 0.07909905 0.07750282 0.07509865 0.07120287 0.06615359 0.0616935 0.05922893 0.0587744
 0.05999839 0.06276532 0.0659034 0.06711827 0.06549375 0.06310606 0.06295118 0.06574892 0.06957486 0.07223737
 0.07330767 0.07397059 0.07548285 0.07787995 0.0798028 0.07951671 0.07663348 0.07308007 0.0717344 0.07360476
 0.07686841 0.07911962 0.07990777 0.08048031 0.08160591 0.08239231 0.08121424 0.077633 0.07345025 0.07161131
 0.07364621 0.07813829 0.08174748 0.08169214 0.07762355 0.07170714 0.06692804 0.06502364 0.06598785 0.06918689
 0.07406286 0.07958674 0.08397432 0.08567296 0.08450316 0.08157013 0.07802011 0.07400035 0.06922054 0.06463813
 0.06269716 0.06501135 0.07028382 0.07538006 0.07814011 0.07847088 0.07711872 0.07432511 0.07000506 0.06498378
 0.0614242 0.0611732 0.06356511 0.0657758 0.06577875 0.06419313 0.06286461 0.0625286 0.06251977 0.06218373
 0.06179496 0.06207099 0.06316122 0.06435719 0.06479435 0.06425229 0.06319386 0.06220574 0.06147608 0.0606785
 0.05943637 0.05805994 0.05754116 0.05846908 0.06021708 0.06158702 0.06201682 0.0617921 0.06127003 0.06028633
 0.05842739 0.05582702 0.05351596 0.05266992 0.05346581 0.05496025 0.05608301 0.05641722 0.05608913 0.05537443
 0.05451557 0.05364581 0.0528231 0.05219585 0.0519715 0.0521193 0.05230284 0.05221646 0.05183083 0.05125594
 0.05053808 0.04968136 0.04877584 0.04801273 0.04755165 0.04738762 0.04737908 0.04738608 0.04731809 0.04708422
 0.04662272 0.04599465 0.04535099 0.04479284 0.04433093 0.04396712 0.04372931 0.04360934 0.04352326 0.04336888
 0.04310897 0.04277743 0.04241508 0.04203037 0.0416257 0.04123104 0.04089466 0.04064497 0.04045938 0.04027896
 0.04007628 0.03989075 0.0397562 0.03961869 0.03938808 0.03905566 0.03870377 0.03840995 0.0381869 0.0380022
 0.0378147 0.03758863 0.03729768 0.03694204 0.03657555 0.03629371 0.03616107 0.03615826 0.03621639 0.03627292
 0.03627817 0.03619836 0.03604566 0.03586908 0.03569509 0.03550688 0.03528775 0.03505967 0.0348769 0.03478891
 0.03479609 0.03484146 0.03486007 0.03482664 0.03474891 0.03464779 0.03455603 0.03449672 0.03444832 0.03436573
 0.03424332 0.03412609 0.03405625 0.0340305 0.03400855 0.03395402 0.03387153 0.03380131 0.03377173 0.0337703
 0.03376886 0.03375769 0.03374458 0.03373449 0.03371748 0.0336731 0.03359401 0.03350523 0.03344306 0.03341436
 0.03339672 0.03337598 0.03336152 0.03336432 0.03337771 0.03338314 0.03336851 0.03333904 0.03330707 0.03327075
 0.03321409 0.03313189 0.0330415 0.03296364 0.03290234 0.03284764 0.03278961 0.03272591 0.03265901 0.03258852
 0.03250909 0.03241665 0.03231215 0.03219827 0.03208061 0.03197246 0.03188746 0.03182396 0.03176334 0.03168682
 0.03159188 0.0314924 0.03140322 0.03132589 0.03125326 0.03118705 0.0311406 0.0311222 0.03112592 0.03114226
 0.03116786 0.03120232 0.03124712 0.03131257 0.03141591 0.03156321 0.03173679 0.03190918 0.03206974 0.03223028
 0.03240316 0.03258385 0.03276034 0.03293294 0.03311664 0.03332363 0.03354526 0.0337535 0.03392664 0.03407389
 0.0342269 0.03440589 0.03460452 0.03480653 0.03500158 0.03518251 0.03534479 0.03549638 0.03565504 0.03582859
 0.03600723 0.0361806 0.03635283 0.03653468 0.03672956 0.03693556 0.0371556 0.03739571 0.03765462 0.0379218
 0.03818554 0.03843828 0.03867833 0.03891408 0.03916495 0.0394484 0.03976187 0.04008182 0.04038524 0.0406704
 0.04095308 0.04124513 0.04154562 0.04185429 0.04218204 0.04253766 0.04291078 0.04327989 0.04363518 0.04398398
 0.04433488 0.0446861 0.04503175 0.04537347 0.04572132 0.04608386 0.04645882 0.04683445 0.04719971 0.04755229
 0.04789769 0.04824463 0.04860073 0.04896537 0.04932272 0.0496506 0.04994551 0.05023343 0.05054372 0.05087431
 0.0511957 0.05148954 0.05176887 0.0520565 0.05235783 0.05266434 0.05297264 0.05328726 0.05360819 0.0539252
 0.05422354 0.05449104 0.05472467 0.05493648 0.05514942 0.05538302 0.05564563 0.05593781 0.05625179 0.05656607
 0.05685382 0.05710251 0.05731976 0.05752203 0.05772806 0.05795829 0.05822482 0.05851905 0.05881585 0.05908873
 0.05932365 0.05953301 0.05975895 0.06004323 0.06038506 0.06074537 0.06109904 0.0614625 0.06185906 0.06227856
 0.06269224 0.06309521 0.06350936 0.06394331 0.06437044 0.06475459 0.06508302 0.06536654 0.06562517 0.06588808
 0.06619158 0.06655519 0.06696118 0.06736991 0.06775075 0.0680909 0.06838401 0.06862611 0.06882364 0.06899673
 0.06916942 0.06935583 0.06955627 0.0697661 0.06998372 0.07020336 0.07040225 0.07054465 0.0706009 0.07055615
 0.07040247 0.07013585 0.06976908 0.06933567 0.06886484 0.06835184 0.06776207 0.06706607 0.06626251 0.0653674
 0.06439453 0.06335734 0.06228809 0.06124727 0.06031129 0.0595496 0.05901226 0.05873471 0.05874355 0.05904142
 0.05957578 0.06022408 0.06081848 0.06119592 0.06124407 0.06092518 0.06027577 0.05938462 0.05835894 0.05729562
 0.05626561 0.05530595 0.05441978 0.05359642 0.05284785 0.05223265 0.05185162 0.05183923 0.05236502 0.05360316
 0.05563063 0.05831325 0.06130693 0.06421188 0.06675871 0.06887862 0.07064122 0.07215799 0.07352442 0.07479884
 0.07600014 0.07712242 0.07815452 0.07908434 0.07989275 0.0805563 0.08105689 0.08138676 0.0815531 0.08158833
 0.08155325 0.08152381 0.08156973 0.08173114 0.0819935 0.08227766 0.08246513 0.08244579 0.0821539 0.08157723
 0.08075364 0.07978866 0.07891743 0.07855734 0.07921468 0.08119985 0.08435766 0.08809972 0.09174526 0.09485867
 0.0973276 0.09923467 0.1007206 0.101922 0.1029488 0.1038717 0.1047256 0.1055255 0.1062797 0.106996
 0.1076828 0.1083466 0.1089915 0.1096205 0.1102349 0.1108337 0.111416 0.1119855 0.1125508 0.1131199
 0.1136936 0.1142651 0.1148288 0.1153865 0.1159436 0.1164973 0.1170379 0.1175608 0.1180712 0.1185776
 0.1190857 0.1195965 0.1201031 0.1205928 0.121056 0.1214926 0.1219105 0.1223189 0.1227245 0.1231311
 0.1235404 0.1239517 0.1243618 0.1247682 0.1251721 0.1255755 0.125973 0.1263545 0.1267174 0.1270737
 0.1274376 0.1278114 0.1281859 0.1285527 0.1289153 0.1292875 0.1296823 0.1300986 0.1305209 0.1309331
 0.1313307 0.1317205 0.1321121 0.1325131 0.1329269 0.1333492 0.1337688 0.1341756 0.1345709 0.1349675
 0.135376 0.1357931 0.1362028 0.1365902 0.1369531 0.1373038 0.1376599 0.138033 0.1384237 0.1388268
 0.1392368 0.1396469 0.1400432 0.140411 0.1407496 0.1410748 0.1414054 0.1417506 0.1421104 0.1424808
 0.1428556 0.1432286 0.1435976 0.143966 0.1443377 0.1447129 0.1450892 0.1454652 0.1458411 0.1462166
 0.1465908 0.1469627 0.1473323 0.1476992 0.1480627 0.1484241 0.1487868 0.1491536 0.1495266 0.1499061
 0.1502892 0.1506688 0.15104 0.1514042 0.1517668 0.1521304 0.1524917 0.1528457 0.1531928 0.1535421
 0.1539032 0.1542782 0.1546635 0.155055 0.1554467 0.1558296 0.1561994 0.1565624 0.1569295 0.1573053
 0.1576864 0.1580668 0.1584434 0.1588171 0.1591908 0.1595663 0.1599431 0.1603193 0.1606898 0.1610499
 0.161401 0.1617512 0.1621089 0.1624766 0.1628497 0.1632201 0.1635837 0.1639445 0.1643092 0.1646786
 0.1650483 0.1654151 0.1657779 0.1661378 0.166498 0.1668614 0.1672278 0.1675958 0.1679642 0.1683298
 0.1686893 0.1690449 0.1694028 0.1697674 0.1701381 0.1705103 0.1708765 0.1712313 0.1715778 0.1719242
 0.1722763 0.1726352 0.1729971 0.1733567 0.1737132 0.1740713 0.174433 0.174796 0.1751611 0.1755324
 0.1759086 0.1762848 0.1766609 0.1770377 0.1774124 0.1777843 0.1781569 0.1785304 0.1789037 0.1792824
 0.1796716 0.1800667 0.1804588 0.180844 0.1812241 0.1816039 0.1819873 0.1823687 0.1827395 0.1831026
 0.1834683 0.1838362 0.184201 0.1845654 0.1849307 0.1852879 0.1856335 0.1859784 0.1863321 0.1866926
 0.1870548 0.1874151 0.1877714 0.1881288 0.1884941 0.1888636 0.1892286 0.1895882 0.1899429 0.1902902
 0.1906331 0.1909778 0.1913226 0.1916658 0.1920143 0.19237 0.1927208 0.1930576 0.1933786 0.1936741
 0.1939074 0.1939593 0.1935166 0.191968 0.1884033 0.181789 0.171369 0.1571397 0.1400267 0.1215631
 0.1033211 0.0864941 0.07178159 0.05949065 0.04969256 0.04231431 0.03719661 0.03420145 0.03332391 0.0348008
 0.03923112 0.04722599 0.05807018 0.06852562 0.07408081 0.07250616 0.06598319 0.05911566 0.05510201 0.05418435
 0.05501276 0.05642713 0.05805266 0.0600924 0.06290846 0.06660891 0.07102171 0.07613701 0.08232834 0.08987615
 0.09839143 0.1069761 0.1149943 0.12257 0.1302897 0.1384961 0.1469251 0.1549632 0.1621343 0.1683411
 0.173775 0.1787007 0.1833049 0.187674 0.1918485 0.1958237 0.1994597 0.2024446 0.2044481 0.205374
 0.2054723 0.2051959 0.2049368 0.2048767 0.2050344 0.2053818 0.2058948 0.2065484 0.2073171 0.2081776
 0.2091006 0.2100507 0.2109994 0.2119256 0.21281 0.2136396 0.2144111 0.215122 0.215771 0.2163645
 0.2169112 0.2174141 0.2178768 0.2183103 0.2187257 0.2191268 0.2195148 0.2198888 0.2202439 0.2205747
 0.2208794 0.2211582 0.2214155 0.2216644 0.2219195 0.2221843 0.2224529 0.2227194 0.2229806 0.2232373
 0.2234965 0.2237651 0.224041 0.2243155 0.2245812 0.2248344 0.2250768 0.2253169 0.2255631 0.2258161
 0.2260723 0.2263317 0.2265944 0.2268549 0.2271076 0.2273529 0.2275982 0.2278534 0.2281222 0.2283945
 0.2286583 0.228919 0.2291915 0.2294758 0.2297583 0.2300318 0.2302982 0.2305584 0.2308155 0.2310766
 0.2313382 0.2315839 0.2318059 0.2320212 0.2322599 0.2325396 0.2328491 0.2331551 0.2334336 0.2336922
 0.2339536 0.2342269 0.2345019 0.2347648 0.2350153 0.2352767 0.2355788 0.2359216 0.2362731 0.2366101
 0.2369366 0.2372575 0.2375702 0.237883 0.2382042 0.2385103 0.2387643 0.2389742 0.239209 0.2395432
 0.2399831 0.2404505 0.2408551 0.2411785 0.241473 0.2417982 0.2421819 0.2425997 0.2429521 0.2431297
 0.2431711 0.2432959 0.2436996 0.2443549 0.2450668 0.2456741 0.2461486 0.2465454 0.2469143 0.2472523
 0.2475113 0.247656 0.2477369 0.2479037 0.2483008 0.2489183 0.2495878 0.2501516 0.250586 0.2509408
 0.251249 0.2515249 0.2517307 0.2517259 0.2514161 0.2510188 0.2510055 0.251646 0.2527028 0.2536834
 0.2543249 0.2547243 0.2550658 0.2553974 0.2556809 0.2558271 0.2555878 0.2547004 0.2533958 0.2525384
 0.2529106 0.254418 0.2562395 0.257652 0.2584896 0.2589457 0.2592471 0.2595087 0.2596521 0.259413
 0.2586344 0.2576565 0.2572276 0.2578146 0.2590834 0.2602618 0.2609292 0.2612327 0.261468 0.2617417
 0.2619059 0.261515 0.2600658 0.2577479 0.2558464 0.2558483 0.2579824 0.2609391 0.2631692 0.2642154
 0.2645936 0.2646651 0.264114 0.262526 0.2600011 0.2571155 0.2547768 0.2541237 0.2557665 0.2588156
 0.2613784 0.2624342 0.2627016 0.2634131 0.2648245 0.2662189 0.2668609 0.2665712 0.2655823 0.2641249
 0.2623201 0.2605776 0.2598369 0.2608958 0.2634382 0.2661514 0.2679515 0.2688032 0.2691357 0.2685771
 0.2657105 0.2597789 0.2528144 0.2490698 0.2512488 0.2576658 0.2640588 0.2677808 0.2692248 0.2698104
 0.2701094 0.2696922 0.267352 0.261747 0.2534835 0.2464544 0.2452189 0.2504925 0.258334 0.263835
 0.2645134 0.2605945 0.2540659 0.2480499 0.2455489 0.2476346 0.2529825 0.2591878 0.2642091 0.266901
 0.2669979 0.2650151 0.2621891 0.2601671 0.2598352 0.2600097 0.2583166 0.2542063 0.2498932 0.2470882
 0.2443119 0.2395927 0.2347728 0.2342625 0.2393235 0.2460017 0.2495885 0.2493836 0.2478386 0.2460773
 0.241966 0.2331991 0.2216698 0.2134894 0.2136248 0.2207713 0.2285327 0.2316495 0.2301425 0.2274524
 0.2258102 0.2240167 0.2192761 0.2109395 0.202263 0.1976708 0.1980894 0.2001362 0.2001079 0.196956
 0.1909502 0.1823906 0.1736456 0.1699143 0.1747534 0.1856043 0.1958326 0.2002395 0.196948 0.186052
 0.1700906 0.1554106 0.1491242 0.1528094 0.1606694 0.1649371 0.1620602 0.153248 0.1410676 0.1276621
 0.1157309 0.108798 0.1090318 0.1150559 0.1222898 0.1253596 0.120992 0.1103725 0.09913941 0.09333679
 0.09409094 0.09698267 0.09708619 0.09344363 0.08835342 0.08419701 0.08197985 0.08145 0.08145246 0.08089855
 0.07964946 0.07756682 0.0733159 0.06604867 0.0580087 0.05318431 0.0531124 0.05594388 0.05968555 0.06399314
 0.06819484 0.07005462 0.06827092 0.06497416 0.06399453 0.06682608 0.0713191 0.07433006 0.07486776 0.07436161
 0.07437994 0.07485856 0.07489663 0.07471114 0.07575206 0.07867916 0.08218417 0.08442222 0.08493418 0.08453508
 0.08392519 0.08315727 0.08209131 0.08069053 0.0789842 0.07710935 0.07527593 0.07352641 0.07170159 0.06969127
 0.06744242 0.06464666 0.06081935 0.05606886 0.05158185 0.04876863 0.04784288 0.04780545 0.04788978 0.04809654
 0.04794195 0.04594942 0.04155795 0.03684836 0.03508742 0.03759261 0.04273563 0.04782459 0.05115884 0.05221593
 0.05089407 0.04772776 0.04483069 0.04532021 0.05078677 0.0597631 0.0693367 0.07766222 0.08419384 0.08835177
 0.08940788 0.08776927 0.08551393 0.08528613 0.0887346 0.09569946 0.104124 0.1104366 0.111263 0.1068598
 0.1029671 0.1066281 0.1186048 0.1319238 0.1396675 0.1421051 0.1439476 0.1469811 0.149108 0.1496743
 0.1516538 0.1575065 0.1654332 0.1710614 0.1712395 0.1652758 0.1545139 0.1426063 0.1346295 0.1332217
 0.1359133 0.1380783 0.1375811 0.1345727 0.1286647 0.1200735 0.1127302 0.1119659 0.1182903 0.1264391
 0.1313902 0.1329865 0.1338497 0.1348055 0.1339032 0.1294236 0.1227167 0.117379 0.1156494 0.1163758
 0.1168691 0.1157299 0.1129956 0.1086048 0.1023888 0.09548793 0.09037322 0.08878758 0.09007467 0.09192087
 0.09254068 0.09187374 0.09094004 0.09061949 0.09110613 0.09205411 0.09314096 0.09480129 0.09818344 0.1038001
 0.1104808 0.1164557 0.1213531 0.1263131 0.1321248 0.1380037 0.1424146 0.1446794 0.1456532 0.1470578
 0.1501336 0.1546306 0.1589588 0.1615188 0.1622012 0.1626159 0.1645919 0.1683833 0.1725821 0.1757149
 0.177474 0.1784194 0.1790993 0.1796349 0.179698 0.1788245 0.1772209 0.1762339 0.1774243 0.1810089
 0.1855948 0.189507 0.1920505 0.1934834 0.1942074 0.1942883 0.1936656 0.192558 0.1914882 0.1909144
 0.1909478 0.1914344 0.192176 0.1930197 0.193854 0.1946219 0.1953201 0.1959616 0.196567 0.1971825
 0.1978479 0.1985395 0.1991989 0.1998361 0.2005496 0.201398 0.2022938 0.203073 0.2036297 0.2039163
 0.2038548 0.2033542 0.2024217 0.2011673 0.1996791 0.1979825 0.1961939 0.1946751 0.1939249 0.194231
 0.1954151 0.1969402 0.1982702 0.1991356 0.1995444 0.1996615 0.1997031 0.1998541 0.2001942 0.2006789
 0.2012025 0.2016842 0.2021061 0.2024892 0.2028576 0.203235 0.2036563 0.2041504 0.2047038 0.2052637
 0.2057874 0.2062814 0.2067831 0.2073071 0.2078142 0.2082358 0.2085363 0.2087482 0.2089362 0.2091279
 0.2092935 0.2093877 0.2093861 0.2092677 0.2089788 0.208434 0.207552 0.20629 0.2046667 0.2027667
 0.2006969 0.198511 0.1961821 0.1936547 0.1909 0.1879116 0.184692 0.1812823 0.1777869 0.1743319
 0.1709974 0.1678016 0.1647304 0.1617658 0.1588951 0.1561072 0.153384 0.1506942 0.1479973 0.1452384
 0.1423314 0.1391642 0.1356399 0.1317157 0.1274018 0.1227461 0.1178556 0.1129497 0.10837 0.1044837
 0.1015162 0.09944898 0.09807785 0.09717628 0.09661867 0.0963897 0.09652372 0.09704852 0.09796558 0.09925511
 0.1008825 0.1027942 0.1049149 0.1071553 0.1094228 0.1116283 0.1136945 0.1155715 0.1172512 0.1187742
 0.1202174 0.1216568 0.1231323 0.1246493 0.1262018 0.1277718 0.1293103 0.1307483 0.1320339 0.1331516
 0.134109 0.1349171 0.1355815 0.1361019 0.1364746 0.1366988 0.1367893 0.136792 0.1367846 0.1368537
 0.1370751 0.1375171 0.1382366 0.1392484 0.1405016 0.1419009 0.1433539 0.1448099 0.1462691 0.1477618
 0.1493194 0.1509733 0.152781 0.1548292 0.1571977 0.1599257 0.1630034 0.1663693 0.1699008 0.1734275
 0.1767763 0.1798247 0.1825262 0.1848936 0.186956 0.1887294 0.1902186 0.1914279 0.192365 0.1930481
 0.1935275 0.193898 0.1942749 0.1947427 0.1953144 0.1959384 0.1965421 0.197071 0.1975007 0.1978344
 0.198101 0.1983449 0.1986042 0.1988876 0.1991615 0.1993606 0.1994244 0.1993353 0.1991176 0.1988024
 0.1984045 0.1979258 0.1973595 0.196682 0.1958576 0.1948604 0.1936872 0.1923523 0.1908799 0.1893061
 0.1876845 0.1860813 0.1845553 0.1831331 0.1817969 0.1804915 0.1791411 0.177673 0.1760487 0.1742871
 0.1724496 0.1705968 0.1687551 0.1669187 0.1650771 0.1632389 0.1614297 0.1596743 0.1579859 0.156375
 0.1548542 0.1534238 0.1520633 0.1507502 0.1494874 0.1483091 0.1472609 0.1463754 0.1456612 0.1451045
 0.1446732 0.1443196 0.1439962 0.1436836 0.1433937 0.1431351 0.1428796 0.1425708 0.1421636 0.1416586
 0.1411072 0.1405793 0.1401178 0.1397232 0.1393659 0.1389936 0.1385303 0.1378895 0.1369964 0.1358045
 0.1343103 0.1325597 0.1306323 0.1286233 0.1266398 0.1247904 0.1231588 0.1217958 0.1207236 0.1199174
 0.119293 0.1187556 0.118272 0.1178867 0.1176683 0.1176213 0.1176323 0.1175334 0.1172578 0.1169116
 0.1166691 0.1166297 0.1167787 0.1170286 0.1172718 0.117434 0.1174961 0.1174655 0.1173479 0.1171552
 0.1169068 0.1166142 0.1162852 0.1159318 0.1155567 0.1151527 0.1147178 0.1142422 0.1136971 0.1130651
 0.1123602 0.1115965 0.1107706 0.1098709 0.1088655 0.1077174 0.1064767 0.1053324 0.1045152 0.1041564
 0.1042284 0.1045707 0.104991 0.1053864 0.1057213 0.1058787 0.1056937 0.1052563 0.1050523 0.1056124
 0.106998 0.1087161 0.1101452 0.1109731 0.1112207 0.1109967 0.1103723 0.1094173 0.1081863 0.1066753
 0.1048842 0.1028724 0.1007092 0.09846658 0.09627321 0.09426604 0.09250402 0.09100249 0.08978102 0.0888871
 0.08841268 0.08807778 0.0865185 0.08199389 0.07505516 0.06975113 0.07023595 0.07611049 0.08269607 0.08598693
 0.08585455 0.08443089 0.08321251 0.08245394 0.08210529 0.08228177 0.08306613 0.08431861 0.08570644 0.08688785
 0.08770037 0.08813606 0.0881342 0.0874133 0.08543663 0.08160533 0.07575601 0.06857501 0.06136206 0.05531275
 0.05105933 0.04870794 0.04798993 0.04834757 0.04914647 0.05001014 0.05095697 0.0521953 0.05384634 0.05589401
 0.05827633 0.06086137 0.06336655 0.06548234 0.06711617 0.06839994 0.06944402 0.07019374 0.07054175 0.07048308
 0.0701247 0.06959645 0.06898384 0.06831756 0.0675832 0.06674486 0.0658223 0.06496477 0.06437539 0.06412414
 0.06409854 0.06415194 0.06421853 0.06428042 0.06432196 0.06434257 0.06436564 0.06444002 0.064642 0.06501812
 0.06550401 0.06595418 0.06626871 0.06646571 0.06663749 0.06683554 0.0669805 0.06694217 0.06675792 0.06665331
 0.06672706 0.06674126 0.0664065 0.06580451 0.06535067 0.06535562 0.06575304 0.06624468 0.06658651 0.06671619
 0.06673411 0.06684929 0.0672484 0.0678845</values></Ydata></ScSm><ScRf><Ydata ylabel="Single channel"><values byteorder="INTEL" format="FLOAT32" numvalues="1820"> 0.0605598 0.0606989 0.06078434 0.06082233 0.06083528 0.06085952 0.06093378 0.06107452 0.06125969 0.06143879
 0.06156698 0.0616347 0.06165698 0.06164076 0.06159063 0.06154835 0.06158625 0.06173723 0.06194775 0.06211319
 0.06216091 0.06211343 0.06207622 0.06213496 0.06224392 0.06223922 0.0619953 0.06156749 0.06115359 0.06090951
 0.06085384 0.06098853 0.06139372 0.06202695 0.0625034 0.06237271 0.06168243 0.06100568 0.06080248 0.06097741
 0.06114638 0.06107848 0.06076916 0.06036076 0.06018482 0.06066636 0.06190579 0.06334342 0.06396553 0.06294218
 0.0602158 0.05669049 0.05390301 0.0532011 0.05479211 0.05746423 0.05949402 0.06002133 0.05946609 0.0586652
 0.05797695 0.05737607 0.05701844 0.05727365 0.05820607 0.0592278 0.05939474 0.05820394 0.0561934 0.05457485
 0.0541361 0.05473777 0.05594441 0.05750012 0.05867849 0.0579102 0.05432469 0.0497043 0.04768961 0.05031718
 0.05584711 0.06047637 0.06172509 0.05980141 0.05647893 0.0536311 0.05254897 0.05358526 0.05606396 0.05884887
 0.06104724 0.06206048 0.06142814 0.05922431 0.05644707 0.05453014 0.05446398 0.05641875 0.05970877 0.06283732
 0.06417447 0.06317079 0.06072611 0.05822981 0.05664288 0.05651161 0.05810096 0.06110556 0.06463567 0.0677489
 0.06984228 0.07069036 0.0704765 0.06968579 0.06874116 0.06793132 0.06767246 0.06825406 0.06915388 0.06923501
 0.0679887 0.06621743 0.06520912 0.06540741 0.0660584 0.06612541 0.06533445 0.06399781 0.06198559 0.05873467
 0.05453524 0.05084346 0.04882392 0.0484782 0.04953314 0.05188695 0.05455841 0.05561382 0.0542773 0.0522879
 0.05215728 0.05449294 0.05769207 0.0599262 0.06083734 0.06141738 0.06271966 0.06477287 0.06643425 0.06624328
 0.0638677 0.06092523 0.05984212 0.06147268 0.06428163 0.06624262 0.06698188 0.06755534 0.06860688 0.06937318
 0.06847513 0.0655496 0.06213948 0.06074481 0.06264329 0.06661107 0.06980742 0.06987093 0.0665085 0.06158185
 0.05766217 0.05624627 0.05733957 0.0604246 0.06503718 0.07026304 0.07450657 0.07637647 0.07569291 0.07341867
 0.07056276 0.0672431 0.06320205 0.05935851 0.05800802 0.0606501 0.06606264 0.07131843 0.07440075 0.07521204
 0.07442304 0.07220986 0.06845379 0.06398832 0.06101404 0.0613855 0.06438327 0.06712431 0.06758912 0.0664635
 0.06565003 0.0658773 0.06642745 0.06662615 0.06680632 0.06776029 0.06962884 0.07160588 0.07272781 0.07274657
 0.07217573 0.07168283 0.07148003 0.07116854 0.0703141 0.06933871 0.06946088 0.07135484 0.07421249 0.07657167
 0.07777606 0.07820117 0.07827351 0.07773039 0.07600598 0.07329951 0.0710087 0.07069016 0.07255021 0.07531729
 0.07756434 0.07873517 0.07900245 0.0787437 0.07828656 0.07780895 0.0773989 0.07728019 0.07774927 0.07874691
 0.079771 0.08037828 0.08054295 0.0804278 0.08007007 0.07945164 0.07872684 0.07822125 0.07819636 0.07865399
 0.07938303 0.08014901 0.08076881 0.08106802 0.0809477 0.08052663 0.08007512 0.07977059 0.07962574 0.07964332
 0.07988167 0.08032575 0.08081707 0.0811788 0.08135331 0.08138566 0.08132863 0.08120327 0.0810286 0.08086233
 0.08080307 0.08092116 0.08116956 0.08141433 0.08159415 0.08178622 0.0820518 0.08228892 0.0823363 0.08218396
 0.08198931 0.08190138 0.08194084 0.08204055 0.08212725 0.08213291 0.08198303 0.08166088 0.08129874 0.08113085
 0.0813054 0.08177736 0.08239154 0.08299416 0.08345573 0.08369725 0.08375023 0.08372321 0.08367597 0.08357737
 0.08339956 0.08320798 0.08314158 0.08330925 0.08369309 0.08415268 0.08453405 0.08476464 0.08485848 0.0848918
 0.08497511 0.08516516 0.08538048 0.08547658 0.08542578 0.0853564 0.08539309 0.08551304 0.0855889 0.08554506
 0.08544539 0.0854254 0.08555263 0.08577122 0.08598136 0.08614664 0.08631021 0.08651561 0.08672231 0.08681689
 0.08673139 0.08653715 0.0863771 0.08631518 0.08631103 0.08633805 0.08644293 0.08665291 0.0868879 0.08702511
 0.08703479 0.08700638 0.0870346 0.08711012 0.08713987 0.0870575 0.08689113 0.0867308 0.08665329 0.08667643
 0.08675872 0.08682929 0.08683138 0.08675638 0.08664259 0.08653782 0.0864649 0.0864308 0.08646242 0.08660103
 0.08683385 0.08704634 0.08708699 0.08690519 0.08661446 0.08639726 0.08634093 0.08637123 0.08634346 0.08618298
 0.08593307 0.08568817 0.08550702 0.08538781 0.085299 0.08522023 0.08516632 0.08518189 0.08529337 0.08544755
 0.08551916 0.08541553 0.08517052 0.08490939 0.08473151 0.08465183 0.08463333 0.08463366 0.08463258 0.08464764
 0.08470887 0.08479609 0.08483383 0.08477625 0.08466873 0.08460462 0.0846502 0.08481426 0.08504023 0.08521643
 0.08525019 0.08515941 0.08505772 0.08503562 0.08508826 0.08516392 0.0852392 0.08532387 0.0854229 0.08552851
 0.08564556 0.08580106 0.08601728 0.08627835 0.08652836 0.08670975 0.08681431 0.08690071 0.08705293 0.08731015
 0.08763405 0.0879439 0.08818494 0.0883669 0.08854012 0.08873689 0.08894551 0.08914758 0.08936188 0.08962448
 0.0899349 0.09025326 0.09055042 0.09083319 0.09111822 0.09140632 0.09169261 0.09199002 0.09233189 0.0927408
 0.09318373 0.09357062 0.09382491 0.09396026 0.09407458 0.09427169 0.09458926 0.09497388 0.09530833 0.09550005
 0.09557664 0.09566856 0.09586897 0.09614056 0.09639508 0.09663098 0.09693711 0.09736519 0.09784466 0.09824151
 0.09848446 0.09862121 0.09875424 0.09893074 0.09910724 0.09922557 0.09929978 0.0993977 0.0995501 0.09972791
 0.09991965 0.1001765 0.1005419 0.1009701 0.1013602 0.1016514 0.1018538 0.1020028 0.1021196 0.1022047
 0.1022459 0.1022467 0.1022521 0.1023193 0.1024476 0.1025697 0.1026338 0.1026625 0.1027151 0.1028258
 0.1030028 0.1032511 0.1035565 0.1038676 0.1041408 0.1044036 0.1047242 0.1051012 0.1054283 0.1056076
 0.1056607 0.1056838 0.105725 0.10577 0.1058281 0.1059575 0.1061911 0.1064923 0.1068047 0.1071123
 0.1074332 0.1077746 0.1081044 0.1083594 0.1084852 0.1084839 0.1084254 0.108408 0.1085036 0.1087253
 0.1090292 0.1093438 0.1096108 0.1097988 0.109888 0.1098716 0.1097948 0.109761 0.1098528 0.1100382
 0.1101844 0.1101682 0.1099556 0.109578 0.1090704 0.1084582 0.1077883 0.1071402 0.1065936 0.1061951
 0.1059655 0.1059355 0.1061503 0.1066184 0.1072644 0.1079582 0.1085925 0.1091038 0.1094211 0.1094509
 0.1091492 0.1085813 0.1078794 0.107159 0.1064833 0.1058665 0.1052817 0.1047013 0.1041739 0.1038518
 0.1039172 0.1044757 0.1055091 0.1068869 0.1084037 0.1098414 0.1110548 0.1120238 0.1128234 0.1135379
 0.1142101 0.114859 0.115511 0.1161786 0.1168256 0.1173941 0.1178701 0.1182942 0.1187059 0.1191036
 0.1194576 0.1197427 0.1199619 0.1201542 0.1203595 0.1205601 0.120682 0.120676 0.1205749 0.1204486
 0.1203236 0.1201672 0.1199278 0.1195799 0.1191579 0.1187775 0.1186164 0.1188391 0.119507 0.1205438
 0.1217913 0.1231039 0.1243848 0.1255462 0.1264879 0.1271544 0.1275877 0.1278935 0.1281629 0.1284412
 0.1287421 0.1290608 0.1293802 0.1296841 0.1299686 0.1302455 0.1305393 0.1308676 0.1312115 0.1315206
 0.1317669 0.1319869 0.1322545 0.1326085 0.1330122 0.1333901 0.1337076 0.1339999 0.1343101 0.1346209
 0.1348786 0.1350712 0.1352462 0.1354594 0.1357382 0.1360811 0.1364549 0.1367966 0.1370545 0.1372365
 0.1373986 0.137587 0.1378073 0.1380436 0.1382862 0.1385314 0.1387759 0.139025 0.139298 0.139605
 0.1399168 0.1401788 0.1403652 0.1405089 0.1406679 0.1408689 0.1410915 0.1413016 0.1414936 0.1416993
 0.1419565 0.1422651 0.1425754 0.1428266 0.1429976 0.1431212 0.1432495 0.1434124 0.1436085 0.1438232
 0.1440432 0.1442574 0.144459 0.1446537 0.1448567 0.1450754 0.1452996 0.1455136 0.1457136 0.1459073
 0.146102 0.1462984 0.1465017 0.1467304 0.1470033 0.1473115 0.1476105 0.1478527 0.1480281 0.148165
 0.148298 0.1484434 0.1486036 0.1487779 0.1489643 0.1491581 0.1493544 0.14955 0.1497453 0.1499454
 0.1501568 0.1503801 0.1506062 0.1508242 0.1510349 0.1512511 0.1514819 0.1517176 0.1519357 0.1521235
 0.1522922 0.1524666 0.1526634 0.1528783 0.1530923 0.1532907 0.1534755 0.1536604 0.1538545 0.154055
 0.1542532 0.1544442 0.1546292 0.1548116 0.1549943 0.1551791 0.1553692 0.1555675 0.155773 0.1559808
 0.1561859 0.1563864 0.1565829 0.156779 0.1569786 0.1571821 0.1573865 0.1575884 0.1577835 0.1579694
 0.1581499 0.1583364 0.1585374 0.1587501 0.1589628 0.1591642 0.159353 0.1595398 0.1597363 0.1599429
 0.1601515 0.1603572 0.1605604 0.160762 0.1609646 0.161174 0.161391 0.1616098 0.1618243 0.1620342
 0.1622435 0.1624572 0.1626777 0.1629011 0.1631211 0.1633381 0.1635551 0.16377 0.1639759 0.1641683
 0.1643472 0.1645173 0.1646865 0.1648595 0.1650356 0.1652135 0.1653945 0.1655788 0.1657651 0.1659547
 0.1661486 0.1663444 0.1665404 0.1667379 0.1669365 0.1671346 0.1673348 0.16754 0.1677489 0.1679612
 0.1681769 0.1683902 0.1685939 0.1687905 0.1689893 0.1691945 0.1694043 0.1696142 0.1698195 0.1700216
 0.170231 0.1704528 0.1706771 0.1708917 0.1710964 0.1712992 0.1715072 0.1717215 0.1719355 0.1721416
 0.1723422 0.1725437 0.172745 0.1729436 0.1731445 0.1733528 0.1735679 0.1737888 0.1740107 0.1742229
 0.1744251 0.1746331 0.174855 0.1750788 0.1752934 0.1755006 0.1757046 0.1759105 0.1761256 0.1763478
 0.1765662 0.1767794 0.1769911 0.1771858 0.1773147 0.1772605 0.1767403 0.1752014 0.1718104 0.1656187
 0.1559402 0.142785 0.1270094 0.1100154 0.09324013 0.07778251 0.06428983 0.05303779 0.04407617 0.03732888
 0.03265371 0.02992744 0.0291356 0.03047936 0.03450147 0.0417664 0.05162519 0.06112149 0.06614304 0.06466835
 0.05869678 0.05242663 0.04876881 0.0479372 0.04869376 0.04997685 0.05144617 0.05328761 0.05582739 0.05916208
 0.06314039 0.06775974 0.07336001 0.08019219 0.08790106 0.09567276 0.1029326 0.1097931 0.1167823 0.1242054
 0.1318196 0.1390672 0.1455185 0.1510895 0.1559599 0.160372 0.1644935 0.1684014 0.1721335 0.1756864
 0.1789317 0.1815862 0.1833515 0.184142 0.1841851 0.1838906 0.1836099 0.183504 0.1835887 0.1838414
 0.1842469 0.1847921 0.1854607 0.1862269 0.1870479 0.1878782 0.1886936 0.189488 0.1902532 0.1909759
 0.1916465 0.192261 0.19282 0.1933286 0.1937936 0.1942237 0.1946309 0.1950256 0.1954066 0.1957665
 0.1961036 0.1964182 0.1967037 0.1969534 0.1971736 0.1973819 0.1975966 0.1978269 0.1980673 0.1983012
 0.1985164 0.1987151 0.1989082 0.1991046 0.1993095 0.1995227 0.1997366 0.1999397 0.200127 0.2003043
 0.2004831 0.2006707 0.200865 0.2010591 0.2012516 0.2014477 0.2016475 0.2018437 0.202032 0.2022177
 0.202408 0.2026038 0.2027987 0.2029858 0.2031685 0.2033626 0.2035801 0.2038138 0.2040458 0.2042681
 0.2044842 0.2046987 0.2049149 0.2051347 0.2053508 0.2055452 0.2057076 0.2058519 0.2060095 0.2062042
 0.2064296 0.2066559 0.2068614 0.2070509 0.2072404 0.2074368 0.207636 0.2078288 0.208009 0.2081882
 0.2083932 0.2086335 0.2088851 0.2091215 0.2093433 0.2095651 0.2097962 0.210039 0.2102832 0.2105002
 0.2106672 0.210804 0.2109725 0.211231 0.2115816 0.2119602 0.2122886 0.2125427 0.212758 0.2129831
 0.2132443 0.2135217 0.2137312 0.2137853 0.2137256 0.2137444 0.2140106 0.2145008 0.2150456 0.2155028
 0.2158479 0.2161308 0.2163943 0.21663 0.2167898 0.2168411 0.2168318 0.2168978 0.217168 0.2176318
 0.2181384 0.2185509 0.2188526 0.2190892 0.2192895 0.2194659 0.2195882 0.2195375 0.2192319 0.2188533
 0.2187997 0.2193 0.2201543 0.220947 0.2214572 0.2217692 0.2220368 0.2222945 0.2225073 0.2226025
 0.2223668 0.2215686 0.2204056 0.2196333 0.2199383 0.2212437 0.2228335 0.2240679 0.2247893 0.2251628
 0.2253953 0.2255992 0.2257117 0.2255005 0.2248231 0.2239741 0.2236118 0.2241465 0.2252749 0.2263079
 0.2268805 0.2271394 0.2273594 0.227639 0.2278409 0.2275582 0.2263345 0.2243331 0.222687 0.2227078
 0.224602 0.2272203 0.2291966 0.2301291 0.2304825 0.2305801 0.2301336 0.2287676 0.2265739 0.2240694
 0.2220579 0.2215419 0.223053 0.2258002 0.2281167 0.2291095 0.2294121 0.2301098 0.2314378 0.2327718
 0.2334512 0.2332971 0.2325054 0.2312872 0.229767 0.2283232 0.2277855 0.2288425 0.2312037 0.23371
 0.2354038 0.2362526 0.2366408 0.2362443 0.2338068 0.2286581 0.2226019 0.2194036 0.2214571 0.2272733
 0.2330771 0.2365188 0.2379541 0.2386536 0.2391147 0.2389278 0.2370007 0.2321426 0.2249151 0.2188178
 0.2179317 0.2228808 0.2301236 0.2352636 0.2360694 0.2327283 0.2270313 0.22181 0.2197798 0.2219064
 0.2269977 0.2328764 0.2376797 0.240366 0.2407068 0.23918 0.2369165 0.2354223 0.2354942 0.2360284
 0.2348544 0.2314848 0.2279444 0.2257877 0.2236597 0.2197666 0.2158265 0.2159277 0.2212369 0.2280703
 0.232052 0.2325497 0.2318441 0.2309343 0.2277684 0.2201669 0.2099527 0.2029857 0.2040473 0.2118907
 0.2203692 0.224462 0.224255 0.2231031 0.2231441 0.2231239 0.2201698 0.2135695 0.2066344 0.203894
 0.2062415 0.210124 0.211707 0.2098915 0.2048843 0.1969886 0.1888902 0.1864038 0.193521 0.2074911
 0.2210162 0.2282635 0.2269194 0.2167965 0.2007058 0.1862624 0.1821644 0.1903602 0.2036737 0.2124316
 0.2121069 0.2040295 0.1912868 0.1767089 0.1642483 0.1592203 0.1650714 0.1799587 0.1968712 0.2070425
 0.2047198 0.1916893 0.177818 0.1739213 0.1818257 0.1930901 0.1985026 0.1964714 0.1915801 0.1886997
 0.1902216 0.1957378 0.2024476 0.2077597 0.2113431 0.2120944 0.2053044 0.1883042 0.1679262 0.1560316
 0.1571877 0.1662323 0.177771 0.1910651 0.2039917 0.2096511 0.2041563 0.1940524 0.1908174 0.1986733
 0.2109414 0.2182334 0.2177587 0.2138764 0.2113021 0.2100563 0.207826 0.2054265 0.2069708 0.2142326
 0.2235703 0.2299867 0.2323061 0.232744 0.2331252 0.2334969 0.2333943 0.2326579 0.2313463 0.229853
 0.2287996 0.2283272 0.2279623 0.2273466 0.226193 0.2231356 0.2160296 0.20497 0.1942288 0.1888821
 0.1894167 0.1920529 0.1943375 0.1965629 0.1965379 0.1881475 0.1694472 0.1492644 0.1407729 0.1487656
 0.1660914 0.1817892 0.1894887 0.1879293 0.1776315 0.1610452 0.1451792 0.13947 0.148105 0.1659772
 0.1841093 0.1973943 0.2052785 0.2074998 0.2030355 0.1931022 0.1824683 0.1767657 0.179 0.1881648
 0.199646 0.2065182 0.2028978 0.1897256 0.1773786 0.1781033 0.1932112 0.2109499 0.2197034 0.2197801
 0.2188741 0.2201144 0.2204215 0.218765 0.2195871 0.2266397 0.2374231 0.245638 0.2467093 0.2395949
 0.2262509 0.2121445 0.2048296 0.2078458 0.2166361 0.2234676 0.2249054 0.2213361 0.2123842 0.1988837
 0.1877992 0.1880366 0.2001244 0.2150193 0.2243892 0.2282028 0.230976 0.2339876 0.2337489 0.2273318
 0.2173077 0.2101776 0.2099448 0.2145886 0.2194356 0.222087 0.2224438 0.2198837 0.2136441 0.2059972
 0.2022937 0.2062863 0.2162126 0.2264341 0.2324709 0.2337819 0.2324126 0.2303499 0.2282079 0.2253986
 0.2214358 0.2176355 0.2168816 0.2205551 0.2263482 0.2306336 0.2326267 0.2346678 0.2385402 0.2430146
 0.2453557 0.2443135 0.2412996 0.239136 0.2397846 0.2427973 0.2456549 0.2459168 0.2435453 0.2411616
 0.2416339 0.2453482 0.2501631 0.2538489 0.255898 0.2570634 0.2580621 0.2589515 0.2590845 0.2575948
 0.2546204 0.2520269 0.2520804 0.255193 0.2595289 0.2629049 0.264557 0.2650129 0.2648894 0.264255
 0.2629834 0.261329 0.2599396 0.2593461 0.2595805 0.2603049 0.2611572 0.2619112 0.2624648 0.2628232
 0.263058 0.2632234 0.2633355 0.2634264 0.2635304 0.2636067 0.2635744 0.263465 0.2634501 0.2636476
 0.2639645 0.2641942 0.2642091 0.2639752 0.2634377 0.2625273 0.2612834 0.2598513 0.2583131 0.256633
 0.2548807 0.2534702 0.2530278 0.2539219 0.2559195 0.2583304 0.2604754 0.2620215 0.2629696 0.2634661
 0.263674 0.2637337 0.2637375 0.2637044 0.2636011 0.2633994 0.2631088 0.2627586 0.2623716 0.261969
 0.2615873 0.2612663 0.2610107 0.260772 0.2604782 0.2600852 0.259602 0.2590708 0.2585273 0.25797
 0.2573559 0.2566293 0.2557688 0.2548164 0.2538615 0.2529852 0.2522048 0.2514703 0.2507163 0.249909
 0.2490263 0.2480236 0.2468779 0.2456743 0.2445856 0.2437284 0.2430638 0.242456 0.2417906 0.2410176
 0.2401302 0.2391493 0.2381144 0.2370549 0.2359711 0.2348465 0.2336674 0.2324212 0.2310935 0.2296779
 0.2281803 0.2266105 0.2249847 0.2233294 0.2216533 0.2199008 0.217945 0.215635 0.2128458 0.2094976
 0.2055682 0.2011196 0.1963107 0.1913623 0.1864869 0.1818392 0.1775212 0.1736201 0.1702278 0.1674302
 0.1652921 0.1638535 0.1631317 0.1631232 0.1638099 0.1651597 0.1671119 0.1695598 0.1723496 0.1753005
 0.1782328 0.1810006 0.1835274 0.1858288 0.1879841 0.1900558 0.1920307 0.1938499 0.1954808 0.1969284
 0.1981885 0.1992349 0.200064 0.200723 0.2012775 0.2017677 0.2022012 0.2025758 0.202895 0.2031665
 0.2033978 0.2035985 0.2037852 0.2039769 0.2041897 0.2044354 0.204724 0.2050628 0.2054604 0.2059241
 0.206447 0.2070036 0.2075723 0.2081562 0.2087732 0.2094397 0.2101745 0.2110084 0.2119743 0.2130898
 0.2143487 0.2157163 0.2171265 0.2184894 0.2197133 0.2207284 0.2214997 0.2220244 0.2223205 0.2224187
 0.2223579 0.2221756 0.2218966 0.221533 0.221093 0.2205869 0.2200271 0.2194223 0.2187731 0.2180787
 0.217352 0.2166212 0.2159099 0.2152216 0.21455 0.2138976 0.2132765 0.2126921 0.2121316 0.2115691
 0.2109842 0.2103786 0.2097745 0.2091962 0.2086493 0.2081071 0.2075144 0.2068177 0.2059979 0.2050678
 0.204041 0.2029192 0.2017133 0.2004462 0.1991235 0.1977195 0.196208 0.1945954 0.1929107 0.1911693
 0.1893547 0.1874385 0.1854229 0.1833672 0.1813669 0.179503 0.1778062 0.1762559 0.1748043 0.1734099
 0.172058 0.1707514 0.1694912 0.1682816 0.1671418 0.1660909 0.1651238 0.1642152 0.1633479 0.1625277
 0.1617788 0.1611238 0.1605663 0.1600906 0.159679 0.1593247 0.1590365 0.1588411 0.1587654 0.158796
 0.1588677 0.158904 0.1588659 0.1587627 0.158637 0.1585368 0.1584808 0.1584494 0.1584103 0.1583325
 0.1581679 0.1578395 0.1572643 0.1563861 0.155192 0.1537089 0.151994 0.1501407 0.1482898 0.1465944
 0.145154 0.1439951 0.143106 0.1424499 0.1419581 0.1415625 0.1412484 0.14106 0.1410533 0.1412287
 0.1414836 0.141663 0.1417042 0.1417124 0.1418629 0.1422554 0.1428702 0.1436112 0.1443669 0.1450572
 0.1456364 0.1460642 0.1463147 0.1464136 0.1464159 0.1463521 0.1462267 0.1460426 0.1457951 0.14548
 0.1451151 0.1447161 0.1442613 0.1437181 0.1430761 0.1423366 0.1415135 0.1406324 0.1396729 0.1385628
 0.1373185 0.1361516 0.1353634 0.1351562 0.1355382 0.1363409 0.1373388 0.1384001 0.1394543 0.1403081
 0.1407029 0.1407092 0.1409125 0.1419839 0.1440389 0.1465105 0.148654 0.1500849 0.1508152 0.1509513
 0.1505413 0.1496222 0.1482069 0.1462569 0.1437922 0.1409514 0.1378858 0.1347361 0.131714 0.1290274
 0.1267506 0.1248815 0.1234247 0.122434 0.1220373 0.1218504 0.1199719 0.1139737 0.1046481 0.09768569
 0.09889051 0.1076474 0.1173434 0.1223411 0.1224614 0.1206949 0.1191334 0.1181212 0.1175689 0.1176186
 0.1183841 0.119699 0.1211584 0.1223581 0.1231318 0.1235061 0.1234251 0.1225346 0.1201256 0.1153688
 0.1079797 0.09881566 0.08959951 0.08192691 0.07654461 0.07334493 0.07170518 0.07086241 0.07030088 0.06999107
 0.0702543 0.07137474 0.0733612 0.07604541 0.07925552 0.08276211 0.08615683 0.08901602 0.09121469 0.09292793
 0.09431563 0.09534302 0.09590366 0.09597956 0.09565566 0.09506457 0.09433912 0.09355686 0.09268607 0.09162124
 0.09035175 0.08909853 0.08818347 0.08773203 0.08759496 0.08756536 0.08755136 0.08753879 0.08752552 0.08751984
 0.08752732 0.08755445 0.0876606 0.08793353 0.0883671 0.08882335 0.08914606 0.089285 0.08930947 0.08928718
 0.08913341 0.08868049 0.0879726 0.08731638 0.08686107 0.08630589 0.08528405 0.08393558 0.0828447 0.08243573
 0.08261038 0.08295253 0.0831169 0.08300988 0.08277413 0.08269999 0.08302051 0.08363289 0.08408947 0.08401358
</values></Ydata></ScRf><Data_Parameters_AB><parameter name="DPF">1</parameter><parameter name="NPT">3497</parameter><parameter name="FXV">3996</parameter><parameter name="LXV">500</parameter><parameter name="CSF">1</parameter><parameter name="MXY">0.612753391265869</parameter><parameter name="MNY">-0.0858934000134468</parameter><parameter name="DAT">20/05/2022</parameter><parameter name="TIM">11:00:51.362 (GMT+2)</parameter><parameter name="DXU">WN</parameter></Data_Parameters_AB><AB__Qtest><MainReport name="Quality Test Report"><Header><Line><Legend>Test result ok/not ok [1/0]: </Legend><Value>0</Value></Line><Line><Legend>Method file: </Legend><Value>C:\Users\Public\Documents\Bruker\OPUS_8.2.28\QT\IRBT_v3_default.QT</Value></Line></Header><Matrix><Line><Legend></Legend><Legend>min</Legend><Legend>max</Legend><Legend>measured</Legend></Line><Line><Value>Absorption (X-Range 1):</Value><Value>0.400000</Value><Value>2.000000</Value><Value>0.536901</Value></Line><Line><Value>Noise (X-Range 4):</Value><Value></Value><Value>0.000300</Value><Value>0.000074</Value></Line><Line><Value>Signal/Noise (X-Range 2):</Value><Value>200.000000</Value><Value></Value><Value>143.031781</Value></Line><Line><Value>Signal/Noise (X-Range 3):</Value><Value>40.000000</Value><Value></Value><Value>107.742426</Value></Line><Line><Value>Water vapour (X-Range 5):</Value><Value></Value><Value>0.000300</Value><Value>0.000096</Value></Line><Line><Value>Signal/Water (X-Range 2):</Value><Value>100.000000</Value><Value></Value><Value>110.020004</Value></Line><Line><Value>Signal/Water (X-Range 3):</Value><Value>20.000000</Value><Value></Value><Value>82.875442</Value></Line><Line><Value>Fringes (X-Range 6):</Value><Value></Value><Value>0.000100</Value><Value>0.000059</Value></Line></Matrix></MainReport></AB__Qtest><Data_Parameters_ScSm><parameter name="DPF">1</parameter><parameter name="NPT">1814</parameter><parameter name="FXV">3996.33169228125</parameter><parameter name="LXV">499.541461535156</parameter><parameter name="CSF">1</parameter><parameter name="MXY">0.270109415054321</parameter><parameter name="MNY">0.0311222039163113</parameter><parameter name="DAT">20/05/2022</parameter><parameter name="TIM">11:00:51.362 (GMT+2)</parameter><parameter name="DXU">WN</parameter></Data_Parameters_ScSm><Data_Parameters_ScRf><parameter name="DPF">1</parameter><parameter name="NPT">1820</parameter><parameter name="FXV">4004.04661832813</parameter><parameter name="LXV">495.683998511719</parameter><parameter name="CSF">1</parameter><parameter name="MXY">0.265012860298157</parameter><parameter name="MNY">0.0291356034576893</parameter><parameter name="DAT">20/05/2022</parameter><parameter name="TIM">11:00:25.510 (GMT+2)</parameter><parameter name="DXU">WN</parameter></Data_Parameters_ScRf><Optic_Parameters_Rf><parameter name="APR">0</parameter><parameter name="APT">Open</parameter><parameter name="BMS">KBr</parameter><parameter name="DTC">RT-DLaTGS_IR-Biotyper [Microplate reader]</parameter><parameter name="HPF">0</parameter><parameter name="LPF">10.0</parameter><parameter name="LPV">4000</parameter><parameter name="PGR">0</parameter><parameter name="RCH">Module port</parameter><parameter name="RDX">0</parameter><parameter name="SRC">MIR</parameter><parameter name="VEL">10.0</parameter><parameter name="SON">Off</parameter></Optic_Parameters_Rf><Acquisition_Parameters_Rf><parameter name="ADT">1</parameter><parameter name="AQM">DD</parameter><parameter name="CFE">0</parameter><parameter name="COR">0</parameter><parameter name="DEL">0</parameter><parameter name="DLY">0</parameter><parameter name="HFW">8000</parameter><parameter name="LFW">0</parameter><parameter name="NSR">32</parameter><parameter name="PLF">AB</parameter><parameter name="RES">6</parameter><parameter name="RGN">-1</parameter><parameter name="STR">0</parameter><parameter name="TCL">MakeCompatibleScalar (0, {WSV=1.000000, ARV=0});</parameter><parameter name="TDL">37</parameter><parameter name="RPO">0</parameter></Acquisition_Parameters_Rf><FT_-_Parameters_Rf><parameter name="APF">B3</parameter><parameter name="HFQ">500</parameter><parameter name="LFQ">4000</parameter><parameter name="NLI">0</parameter><parameter name="PHR">24</parameter><parameter name="PHZ">ML</parameter><parameter name="SPZ">NO</parameter><parameter name="ZFF">1</parameter></FT_-_Parameters_Rf><Optic_Parameters_><parameter name="APR">0</parameter><parameter name="APT">Open</parameter><parameter name="BMS">KBr</parameter><parameter name="CHN">Module port</parameter><parameter name="DTC">RT-DLaTGS_IR-Biotyper [Microplate reader]</parameter><parameter name="HPF">0</parameter><parameter name="LPF">10.0</parameter><parameter name="LPV">4000</parameter><parameter name="PGN">0</parameter><parameter name="RDX">0</parameter><parameter name="SRC">MIR</parameter><parameter name="VEL">10.0</parameter><parameter name="SON">Off</parameter></Optic_Parameters_><FT_-_Parameters_><parameter name="APF">B3</parameter><parameter name="HFQ">500</parameter><parameter name="LFQ">4000</parameter><parameter name="NLI">0</parameter><parameter name="PHR">24</parameter><parameter name="PHZ">ML</parameter><parameter name="SPZ">NO</parameter><parameter name="ZFF">1</parameter></FT_-_Parameters_><Acquisition_Parameters_><parameter name="ADT">1</parameter><parameter name="AQM">DD</parameter><parameter name="CFE">0</parameter><parameter name="COR">0</parameter><parameter name="DEL">0</parameter><parameter name="DLY">0</parameter><parameter name="HFW">8000</parameter><parameter name="LFW">0</parameter><parameter name="NSS">32</parameter><parameter name="PLF">AB</parameter><parameter name="RES">6</parameter><parameter name="SOT">0</parameter><parameter name="TCL">MakeCompatibleScalar (0, {WSV=1.000000, ARV=0});</parameter><parameter name="TDL">37</parameter><parameter name="SPO">0</parameter><parameter name="SGN">-1</parameter></Acquisition_Parameters_><Instrument_Parameters_Rf><parameter name="HFL">15800.168544</parameter><parameter name="LFL">0</parameter><parameter name="LWN">15800.168544</parameter><parameter name="ABP">32197</parameter><parameter name="SSP">1</parameter><parameter name="ARG">2</parameter><parameter name="ASG">2</parameter><parameter name="ASS">32</parameter><parameter name="GFW">16</parameter><parameter name="GBW">16</parameter><parameter name="BFW">0</parameter><parameter name="BBW">0</parameter><parameter name="PKA">7377</parameter><parameter name="PKL">4990</parameter><parameter name="PRA">7524</parameter><parameter name="PRL">5001</parameter><parameter name="P2A">1</parameter><parameter name="P2L">1</parameter><parameter name="P2R">1</parameter><parameter name="P2K">1</parameter><parameter name="DAQ">0</parameter><parameter name="AG2">1</parameter><parameter name="SSM">1</parameter><parameter name="RSN">24507</parameter><parameter name="CRR">0</parameter><parameter name="SRT">1653044425.511</parameter><parameter name="DUR">19.6369934082031</parameter><parameter name="TSC">28.9</parameter><parameter name="MVD">0.348064720630646</parameter><parameter name="AN1">0.22579191264304</parameter><parameter name="AN2">0</parameter><parameter name="VSN">2.485 Apr  4 2017</parameter><parameter name="SRN">0085</parameter><parameter name="CAM">0</parameter><parameter name="INS">IR-Biotyper</parameter><parameter name="FOC">69</parameter><parameter name="RDY">1</parameter><parameter name="ARS">32</parameter></Instrument_Parameters_Rf><Sample_Parameters_><parameter name="BLD"></parameter><parameter name="CNM">Admin</parameter><parameter name="CPY"></parameter><parameter name="DPM"></parameter><parameter name="EXP">IRBT_v3_32Scans.XPM</parameter><parameter name="LCT"></parameter><parameter name="SFM">Microplate, HTS-XT</parameter><parameter name="SNM">220520-0930(v.3)_RGV45F (D_1)_B4_08712af5-6b7f-4622-9812-907c3836e5eb.0</parameter><parameter name="XPP">C:\Users\Public\Documents\Bruker\OPUS_8.2.28\XPM</parameter><parameter name="IST">OK</parameter><parameter name="CPG">1252</parameter><parameter name="UID">5cda3125-c6bf-4ff5-823d-b34c2d6c497e</parameter></Sample_Parameters_><Instrument_Parameters_><parameter name="HFL">15800.168544</parameter><parameter name="LFL">0</parameter><parameter name="LWN">15800.168544</parameter><parameter name="ABP">32197</parameter><parameter name="SSP">1</parameter><parameter name="ASG">2</parameter><parameter name="ARG">2</parameter><parameter name="ASS">32</parameter><parameter name="GFW">16</parameter><parameter name="GBW">16</parameter><parameter name="BFW">0</parameter><parameter name="BBW">0</parameter><parameter name="PKA">6286</parameter><parameter name="PKL">4988</parameter><parameter name="PRA">6555</parameter><parameter name="PRL">5002</parameter><parameter name="P2A">1</parameter><parameter name="P2L">1</parameter><parameter name="P2R">1</parameter><parameter name="P2K">1</parameter><parameter name="DAQ">0</parameter><parameter name="AG2">1</parameter><parameter name="SSM">1</parameter><parameter name="RSN">12878</parameter><parameter name="CRR">0</parameter><parameter name="SRT">1653044451.363</parameter><parameter name="DUR">19.6379852294922</parameter><parameter name="TSC">28.9</parameter><parameter name="MVD">0.254251062870026</parameter><parameter name="AN1">0.225771702667893</parameter><parameter name="AN2">0</parameter><parameter name="VSN">2.485 Apr  4 2017</parameter><parameter name="SRN">0085</parameter><parameter name="CAM">0</parameter><parameter name="INS">IR-Biotyper</parameter><parameter name="FOC">69</parameter><parameter name="RDY">1</parameter></Instrument_Parameters_><History/></OPUSDataFile>
