<?xml version="1.0" encoding="UTF-8" ?>
<OPUSDataFile><AB><Ydata ylabel="Absorbance Units"><values byteorder="INTEL" format="FLOAT32" numvalues="3497"> -0.04662634 -0.04668443 -0.0467235 -0.04674462 -0.04673065 -0.04668074 -0.04659677 -0.04648059 -0.04635498 -0.04622361
 -0.04612019 -0.04604512 -0.04602006 -0.04603801 -0.04609486 -0.04618057 -0.04627668 -0.04637844 -0.04647317 -0.04656065
 -0.04663788 -0.04670215 -0.04675161 -0.04678342 -0.04679438 -0.0467913 -0.04677356 -0.04675636 -0.04674188 -0.04674132
 -0.04675643 -0.04678692 -0.04683286 -0.04688412 -0.04693995 -0.04698759 -0.04702732 -0.0470532 -0.04706801 -0.04707796
 -0.04708646 -0.04710568 -0.0471346 -0.04717913 -0.04723104 -0.04728457 -0.04732925 -0.04735403 -0.04735637 -0.04733007
 -0.04728293 -0.04721516 -0.04713888 -0.04705597 -0.0469807 -0.04691454 -0.04687537 -0.04686521 -0.04689477 -0.04696478
 -0.04706151 -0.04718265 -0.0472929 -0.0473916 -0.04745439 -0.04748777 -0.04750152 -0.04750315 -0.04751698 -0.04754278
 -0.04759257 -0.04765945 -0.04774171 -0.0478286 -0.0479131 -0.04798128 -0.04802387 -0.04803246 -0.04799819 -0.04793427
 -0.04783827 -0.04774449 -0.0476567 -0.04760956 -0.04760715 -0.04766792 -0.04779316 -0.04797809 -0.04821994 -0.04848241
 -0.04875752 -0.04897754 -0.0491384 -0.04918065 -0.04912433 -0.0489816 -0.04878779 -0.04861103 -0.04846277 -0.04838983
 -0.04837001 -0.04840573 -0.04845953 -0.04851096 -0.04853754 -0.04852089 -0.04847528 -0.04839746 -0.04832156 -0.04825316
 -0.04821255 -0.04820373 -0.04821838 -0.04825633 -0.04829286 -0.04832774 -0.04835143 -0.0483678 -0.04839675 -0.04844078
 -0.04852369 -0.0486363 -0.04877203 -0.04891234 -0.04902066 -0.04909176 -0.04909991 -0.04906228 -0.04898421 -0.04888061
 -0.04876007 -0.04863508 -0.04850546 -0.04840869 -0.04835082 -0.04837763 -0.04850179 -0.04872258 -0.04904834 -0.04938032
 -0.04971408 -0.04985447 -0.04980113 -0.04950328 -0.04899662 -0.04849558 -0.04801023 -0.04769745 -0.04752982 -0.04751805
 -0.04763439 -0.04784267 -0.0481086 -0.04838549 -0.04862823 -0.04878201 -0.04883102 -0.04873519 -0.04855606 -0.04830007
 -0.04805278 -0.04784392 -0.04769103 -0.04760556 -0.04755725 -0.04754331 -0.04755163 -0.04758119 -0.04764067 -0.04772938
 -0.04783932 -0.04796633 -0.04807901 -0.0481744 -0.04822351 -0.04822862 -0.04817927 -0.04808265 -0.04794257 -0.04777538
 -0.04759902 -0.04743441 -0.04730612 -0.04722145 -0.0471945 -0.04721357 -0.0472801 -0.04737138 -0.0474842 -0.04759001
 -0.04768494 -0.04773952 -0.04775006 -0.04769925 -0.04758555 -0.04741988 -0.04720418 -0.04697157 -0.04672389 -0.04648934
 -0.04626755 -0.04607114 -0.04590075 -0.04576406 -0.04566235 -0.0456032 -0.04558182 -0.04559908 -0.04563943 -0.04569302
 -0.04573965 -0.04576466 -0.04575776 -0.0457084 -0.04562664 -0.04550901 -0.04538758 -0.04526557 -0.04517962 -0.04513527
 -0.04514042 -0.04519638 -0.04527131 -0.04536263 -0.04542273 -0.04545189 -0.04542589 -0.04535258 -0.04524862 -0.04512326
 -0.04500927 -0.04490943 -0.04484447 -0.04481079 -0.04481233 -0.04484432 -0.04490162 -0.04498887 -0.0451058 -0.04526249
 -0.04546933 -0.04570515 -0.04597608 -0.0462111 -0.04639957 -0.04648471 -0.04645558 -0.04632558 -0.04609485 -0.0457784
 -0.0453775 -0.04490578 -0.04437486 -0.04387278 -0.0434099 -0.04308291 -0.04287469 -0.04279759 -0.04281322 -0.04285995
 -0.04290823 -0.04288578 -0.04281303 -0.04267624 -0.04252146 -0.04237783 -0.04225526 -0.04217255 -0.04209473 -0.04202004
 -0.04189737 -0.04171353 -0.0414619 -0.04113511 -0.04079761 -0.04045273 -0.04016981 -0.0399496 -0.0398057 -0.03973127
 -0.03968956 -0.03966712 -0.03959037 -0.03945133 -0.03917798 -0.03880354 -0.03834726 -0.03785998 -0.03742654 -0.03703826
 -0.03672885 -0.03643963 -0.03614447 -0.03580219 -0.03537958 -0.03490057 -0.03435875 -0.03381411 -0.03327859 -0.03277982
 -0.03232723 -0.03187764 -0.03143028 -0.03087884 -0.0302202 -0.02938798 -0.02840104 -0.02736417 -0.02629893 -0.02536178
 -0.02453149 -0.02383382 -0.02323441 -0.02268391 -0.02215563 -0.02160438 -0.02099086 -0.02026762 -0.01940509 -0.01835752
 -0.01716811 -0.0158389 -0.0144301 -0.01296837 -0.01143916 -0.009840938 -0.008175865 -0.006437869 -0.004704452 -0.002980544
 -0.0013165 0.0002881146 0.001851261 0.003376292 0.004895183 0.006409179 0.00794106 0.009488376 0.01105953 0.01264356
 0.01421438 0.01579079 0.01735698 0.01901963 0.02086362 0.0229783 0.02550596 0.02825215 0.03120294 0.03405326
 0.03667725 0.03907903 0.04122081 0.04327845 0.04527013 0.0472999 0.04937771 0.05150162 0.05366928 0.05582239
 0.05796194 0.06005479 0.06213047 0.06428778 0.0665705 0.06918751 0.07206693 0.07521471 0.07844009 0.08145587
 0.08425786 0.08669125 0.0889634 0.09115577 0.09343605 0.09592398 0.09858419 0.1014545 0.1043516 0.1072416
 0.1100282 0.1126841 0.1152937 0.117859 0.120528 0.1233035 0.126221 0.1292624 0.132299 0.1353212
 0.1382098 0.1409919 0.1436806 0.1463055 0.1489305 0.1515656 0.1542491 0.156983 0.1597897 0.1626407
 0.1655337 0.1684123 0.1712362 0.1740348 0.1767872 0.1796377 0.1826196 0.1857776 0.1891403 0.1925052
 0.1958609 0.199019 0.2019794 0.2048014 0.2075012 0.2102394 0.2130117 0.2158933 0.2188519 0.2218399
 0.2248229 0.2276987 0.2304899 0.2331564 0.2358113 0.2385374 0.241441 0.2446538 0.2480821 0.2517547
 0.2554205 0.2589965 0.2623906 0.2655511 0.2685851 0.2714977 0.2743941 0.277283 0.280201 0.2831489
 0.2861274 0.2891338 0.2921461 0.2951638 0.2981686 0.3011725 0.3042001 0.307263 0.3104037 0.3136047
 0.3168684 0.3201517 0.3234153 0.3266286 0.3297526 0.3328028 0.3357676 0.3387026 0.3416222 0.3445652
 0.3475477 0.3505491 0.3535699 0.3565788 0.3595724 0.3625639 0.3655542 0.3685608 0.3715818 0.3746052
 0.3776326 0.3806664 0.3837075 0.3867688 0.3898284 0.3928496 0.3958133 0.3986644 0.401435 0.4041279
 0.406797 0.409485 0.4122006 0.4149658 0.4177446 0.4205335 0.4232888 0.4260003 0.4286463 0.4312181
 0.4337517 0.4362478 0.4387782 0.4413446 0.4439549 0.4466018 0.449222 0.451818 0.4543661 0.4568789
 0.4593886 0.461887 0.464375 0.4668368 0.4692425 0.4716058 0.473927 0.4762256 0.4785186 0.4808038
 0.4830818 0.4853591 0.4876367 0.4899254 0.4922321 0.4945314 0.4968207 0.4990821 0.5013126 0.5035388
 0.505761 0.5079715 0.5101637 0.5122711 0.5143001 0.5162401 0.5181153 0.5199991 0.5218934 0.523843
 0.5258244 0.5278201 0.5298212 0.5318123 0.5337924 0.5357616 0.5377015 0.5396032 0.5414582 0.5432587
 0.5450184 0.5467392 0.54843 0.5500904 0.5517443 0.5533923 0.5550877 0.556832 0.5586355 0.5604907
 0.5623321 0.5641544 0.5658961 0.5675624 0.5691375 0.5706264 0.5720251 0.5733544 0.5746323 0.5759021
 0.5772191 0.5785891 0.5800492 0.5815343 0.5830263 0.5844642 0.5858158 0.5870925 0.5882854 0.5894483
 0.5905861 0.5917469 0.5929359 0.5941628 0.5954267 0.5966737 0.5978994 0.599035 0.6000892 0.6010669
 0.6019834 0.6028936 0.6037923 0.6046965 0.6055931 0.606464 0.60732 0.6081622 0.6090087 0.609877
 0.6107617 0.6116689 0.612575 0.6134769 0.6143427 0.6151658 0.6159208 0.6166001 0.6172232 0.6177898
 0.6183455 0.6188913 0.6194189 0.6199237 0.620353 0.6207144 0.621012 0.6212671 0.6215513 0.621869
 0.6222703 0.6227349 0.6232571 0.6238123 0.6243747 0.6249247 0.6254383 0.6259153 0.6263419 0.6267547
 0.627162 0.6275942 0.6280681 0.6285423 0.6290183 0.6294125 0.6297169 0.6298984 0.6299567 0.629939
 0.6298514 0.6297723 0.6297017 0.629684 0.6297082 0.6297613 0.6298372 0.6299101 0.6299961 0.630109
 0.6302584 0.6304734 0.6307139 0.6309665 0.63118 0.631314 0.6313892 0.6313928 0.6314034 0.6314385
 0.6315373 0.6317139 0.6319283 0.6321808 0.6323916 0.6325567 0.6326072 0.6325458 0.6323659 0.6320856
 0.631788 0.6314943 0.6313206 0.6312633 0.6313801 0.6316363 0.6320127 0.6324605 0.6329258 0.6333689
 0.6337398 0.6340401 0.6342468 0.6344173 0.6345609 0.6347432 0.6349827 0.6353027 0.6357089 0.63621
 0.636806 0.6375276 0.6383761 0.6393554 0.6404559 0.6415862 0.6427256 0.6437168 0.6445527 0.6451157
 0.6454397 0.6455231 0.6454417 0.6453007 0.6451728 0.6451846 0.6453339 0.6456805 0.6461266 0.6466524
 0.647132 0.647517 0.6477409 0.6477715 0.6476326 0.6473173 0.6469083 0.6464118 0.6458992 0.6453735
 0.6448417 0.6443006 0.643716 0.6430905 0.642416 0.6417046 0.6409923 0.6402846 0.639618 0.6389723
 0.6383439 0.6376813 0.6369374 0.6360505 0.6349561 0.6336401 0.6320601 0.6302941 0.6283446 0.6263421
 0.6243149 0.6223565 0.620488 0.6187288 0.6170844 0.6155269 0.6140544 0.6126096 0.6111884 0.6097235
 0.6082189 0.6066542 0.6050479 0.6034514 0.6018753 0.6003779 0.5989337 0.5975351 0.5961406 0.5946951
 0.593197 0.5916114 0.5900033 0.5883856 0.5868497 0.5854349 0.5841733 0.5830948 0.5821152 0.5812365
 0.5802993 0.5792896 0.5780998 0.5767253 0.5751957 0.5735214 0.5718253 0.570115 0.5684988 0.5669691
 0.5655626 0.5642594 0.5630368 0.5618702 0.560712 0.5595477 0.5583388 0.5570976 0.5558165 0.5545238
 0.5532344 0.5519562 0.5507005 0.5494433 0.548182 0.5468924 0.5455689 0.5442119 0.5428205 0.5414077
 0.5399744 0.538525 0.5370593 0.5355741 0.5340706 0.5325529 0.5310246 0.5295002 0.5279814 0.5264809
 0.5249942 0.5235212 0.5220544 0.5205855 0.5191087 0.5176171 0.5161077 0.5145767 0.5130244 0.5114495
 0.5098576 0.5082492 0.5066336 0.5050122 0.5033937 0.5017788 0.5001774 0.49859 0.4970264 0.4954862
 0.4939689 0.4924715 0.4909786 0.4894861 0.4879722 0.4864363 0.4848643 0.4832639 0.4816372 0.4800023
 0.4783774 0.476781 0.4752334 0.4737425 0.4723179 0.4709608 0.4696751 0.4684543 0.4673051 0.4661799
 0.4650806 0.4639046 0.4626432 0.4612113 0.4596044 0.4578518 0.4559644 0.4540835 0.452221 0.4505238
 0.4489811 0.4476447 0.4464718 0.4453986 0.444369 0.4432611 0.4420565 0.440669 0.43916 0.4375342
 0.4358957 0.4343068 0.4328088 0.4314449 0.4301586 0.4289451 0.4277475 0.4265475 0.4253843 0.4242565
 0.4232541 0.422382 0.4216538 0.4210599 0.4204864 0.4199166 0.4191905 0.4183121 0.4171982 0.41589
 0.4144329 0.412884 0.4113594 0.4098803 0.4085281 0.4072622 0.406082 0.4049343 0.4037805 0.4026265
 0.4014582 0.4003233 0.3992369 0.398199 0.3972183 0.396233 0.3952364 0.3942035 0.3931326 0.3920916
 0.3910851 0.3901919 0.3894035 0.3887128 0.3881005 0.3874931 0.3868839 0.3862174 0.3855051 0.3847421
 0.3839382 0.3831089 0.3822416 0.3813392 0.3803644 0.3792993 0.3781124 0.3767777 0.375325 0.3737419
 0.3721411 0.3705329 0.3690464 0.3676989 0.3665198 0.3655117 0.3645638 0.3636665 0.3626617 0.3615528
 0.3602714 0.3588453 0.3573354 0.3557716 0.3542603 0.3528021 0.3514521 0.3501806 0.3489772 0.3478076
 0.3466398 0.3454568 0.3442369 0.3429897 0.3417084 0.3404299 0.3391605 0.3379376 0.336773 0.335651
 0.3345754 0.3334699 0.3323303 0.3311053 0.3297993 0.3284629 0.3271067 0.3258291 0.3246198 0.3235003
 0.3224381 0.3213597 0.3202555 0.3190631 0.3178217 0.3165488 0.315291 0.3140987 0.3129754 0.3119412
 0.310972 0.3100583 0.3092031 0.3083995 0.3076851 0.3070659 0.3065651 0.30619 0.3058981 0.3056879
 0.3054475 0.3051707 0.3047403 0.3041623 0.3034059 0.3024984 0.3015204 0.3005023 0.2995614 0.2987044
 0.2979984 0.2974283 0.2970013 0.2967043 0.2965263 0.2964674 0.2965253 0.2966998 0.2969944 0.2973919
 0.2978922 0.2984626 0.2990964 0.299779 0.3005039 0.3013199 0.3022287 0.3033357 0.3046445 0.3062326
 0.3080884 0.3101831 0.3124908 0.3148991 0.3173907 0.3198633 0.3223225 0.32473 0.3271023 0.3294451
 0.3317685 0.3340831 0.3363933 0.338704 0.3410178 0.3433405 0.3456571 0.3479733 0.3502313 0.3524299
 0.3544684 0.3563393 0.3579351 0.3592489 0.3602102 0.3608187 0.3610605 0.3609425 0.360496 0.3597362
 0.3587247 0.3574971 0.3561548 0.3547688 0.3534924 0.3524115 0.351692 0.3513722 0.3515551 0.3521903
 0.3532912 0.3547562 0.356554 0.3585945 0.3608529 0.3632535 0.3657854 0.368364 0.3709808 0.3735629
 0.3761052 0.3785757 0.3809736 0.3832859 0.3855098 0.3876196 0.3896137 0.3914709 0.3931952 0.3947941
 0.3962532 0.3975787 0.398679 0.3994948 0.3998058 0.3994544 0.398139 0.3956402 0.391794 0.3864181
 0.379745 0.3717204 0.3629865 0.3536049 0.3443297 0.3352465 0.3268649 0.3192246 0.3124425 0.306509
 0.3012561 0.2966611 0.2924913 0.2887385 0.2852502 0.2820275 0.279001 0.2761614 0.2734641 0.2708939
 0.2684106 0.2660182 0.2636991 0.2614854 0.2593865 0.2574431 0.2556732 0.2541035 0.2527465 0.2516066
 0.2506889 0.2499752 0.2494653 0.2491322 0.2489744 0.2489719 0.2491219 0.2493838 0.249742 0.2500786
 0.2503653 0.2504222 0.250243 0.2497017 0.2488513 0.2477096 0.2463761 0.2449723 0.2435941 0.2423613
 0.2413336 0.2405783 0.2401189 0.2399799 0.2401654 0.2406805 0.2415266 0.2427095 0.2442032 0.2460207
 0.2479782 0.2500722 0.2517956 0.2531079 0.2532601 0.2522368 0.2495148 0.2452151 0.2394855 0.2325729
 0.2251802 0.2175157 0.2102978 0.2035574 0.1976493 0.1924407 0.1879492 0.1840028 0.1805017 0.1773407
 0.1744507 0.1717961 0.169356 0.1671118 0.16506 0.1631716 0.1614445 0.1598411 0.1583589 0.1569569
 0.155633 0.154351 0.1531107 0.151893 0.1507003 0.1495319 0.1483925 0.1472935 0.1462392 0.1452448
 0.1443062 0.14343 0.1425945 0.141787 0.1409777 0.1401426 0.1392733 0.1383533 0.1374142 0.1364565
 0.1355313 0.1346493 0.1338373 0.1331029 0.1324209 0.131791 0.1311564 0.1305153 0.1298365 0.1291248
 0.1284015 0.1276706 0.1269646 0.1262732 0.1255872 0.1248914 0.1241482 0.1233646 0.122527 0.1216675
 0.1208079 0.1199778 0.1192039 0.1184932 0.1178572 0.1172846 0.1167778 0.1163089 0.1158767 0.1154354
 0.1149801 0.1144729 0.1139102 0.1132982 0.112639 0.1119786 0.1113193 0.1107014 0.110121 0.1095833
 0.109082 0.1086023 0.1081427 0.1076936 0.1072566 0.1068311 0.1064159 0.1060097 0.1056127 0.1052227
 0.1048481 0.1044921 0.1041605 0.1038601 0.1035717 0.1032964 0.1029927 0.1026555 0.1022598 0.1018026
 0.1013051 0.1007696 0.1002435 0.09972746 0.09925007 0.09880588 0.09838701 0.09798764 0.09758567 0.09718342
 0.0967726 0.09636355 0.09596696 0.09558927 0.09524401 0.09492095 0.09462194 0.09432202 0.09401189 0.09367075
 0.09328903 0.0928642 0.09239254 0.09188665 0.09134679 0.09079099 0.09022028 0.08965508 0.08909638 0.08856253
 0.08805274 0.08757073 0.08711244 0.08666222 0.08621699 0.08575796 0.08528971 0.08481011 0.0843297 0.08386208
 0.08341327 0.08299604 0.0826044 0.08224053 0.08189011 0.08154818 0.0812021 0.08084673 0.08047727 0.08009115
 0.07969232 0.07928041 0.07886482 0.07844616 0.07803163 0.07762153 0.07721972 0.0768271 0.07645189 0.07609629
 0.07577592 0.07548939 0.07524457 0.07503021 0.07483103 0.07463068 0.07439964 0.07413155 0.07380605 0.07343565
 0.07301901 0.07257977 0.07212708 0.0716804 0.07124831 0.07083658 0.070449 0.07007848 0.0697251 0.0693774
 0.06903446 0.0686911 0.06834731 0.0680058 0.06766661 0.06733159 0.06699946 0.06666517 0.06632797 0.06598198
 0.06563003 0.06527396 0.06491894 0.06457316 0.06423891 0.06392258 0.06362024 0.06333209 0.06305137 0.06277493
 0.06249925 0.06222213 0.06194455 0.06166655 0.06138805 0.06110945 0.06082647 0.06053883 0.06024276 0.05993826
 0.05962792 0.0593123 0.05899762 0.05868353 0.05837196 0.05806145 0.05774852 0.05743274 0.05711101 0.05678512
 0.05645591 0.05612593 0.05579787 0.05547349 0.0551547 0.05484237 0.05453733 0.05423987 0.05395054 0.05366791
 0.05339219 0.05311947 0.05284961 0.05257646 0.05229957 0.05201356 0.05171829 0.05141386 0.05110104 0.05078626
 0.05047034 0.05016088 0.04985723 0.04956209 0.04927292 0.04898629 0.04869933 0.04840633 0.04810658 0.04779639
 0.04747899 0.0471545 0.04682883 0.04650479 0.04618587 0.0458745 0.04556834 0.04526766 0.0449679 0.04466821
 0.04436848 0.04406844 0.04377325 0.04348315 0.04320262 0.04293132 0.04266821 0.04241228 0.04215817 0.04190537
 0.04164911 0.04139057 0.04112962 0.04086814 0.04060916 0.04035269 0.04010082 0.03984989 0.0395985 0.03934224
 0.03907793 0.03880623 0.03852519 0.03824355 0.03796208 0.03769203 0.0374354 0.03719565 0.03697366 0.03676026
 0.03655486 0.03634243 0.03612275 0.03588719 0.03563742 0.03537625 0.03510667 0.03483893 0.03457541 0.03432633
 0.03409142 0.03387585 0.03367483 0.03348688 0.03330369 0.03311942 0.03292789 0.03272355 0.03250855 0.03228105
 0.0320506 0.03181868 0.03159366 0.03137748 0.031169 0.03096861 0.0307672 0.03056436 0.03035281 0.03013306
 0.0299067 0.02967483 0.02944387 0.0292138 0.02898813 0.0287656 0.02854532 0.02832605 0.02810587 0.02788318
 0.027656 0.02742244 0.02718017 0.02692971 0.02666958 0.02640519 0.02613736 0.02587301 0.02561376 0.02536375
 0.02512385 0.02489519 0.024678 0.02447167 0.02427606 0.02408585 0.02390019 0.0237084 0.02351013 0.02329688
 0.02307117 0.02283559 0.0225942 0.02235732 0.02212583 0.02190671 0.02169552 0.02149079 0.02128701 0.02107933
 0.02086631 0.02064543 0.0204192 0.02018759 0.01995426 0.01971994 0.01948751 0.01925753 0.019031 0.01880809
 0.01858846 0.0183721 0.01815874 0.01794827 0.01773999 0.01753323 0.01732418 0.01711232 0.016893 0.01666854
 0.01644058 0.01621382 0.0159967 0.01578991 0.01559927 0.01541774 0.01524275 0.01506662 0.0148833 0.01469516
 0.0145002 0.01430884 0.01412334 0.01394938 0.0137891 0.01363592 0.01348978 0.01333909 0.01318333 0.01301709
 0.01284091 0.01265838 0.0124702 0.01228179 0.01209306 0.01190623 0.0117214 0.01153934 0.01136138 0.01118993
 0.01102553 0.01087058 0.01072207 0.01057929 0.01043737 0.01029358 0.01014552 0.009991069 0.009832744 0.00967022
 0.009508933 0.009349621 0.009196041 0.009048801 0.008906006 0.008767521 0.008627536 0.008485934 0.008339193 0.008187984
 0.008034021 0.00787792 0.007722838 0.007568326 0.007414946 0.007262069 0.007108673 0.00695524 0.006801558 0.006649191
 0.006499133 0.006352694 0.006210905 0.006073924 0.005942133 0.005814866 0.005692013 0.005573214 0.005458386 0.005347602
 0.00524095 0.005137049 0.005035795 0.004933309 0.004829176 0.00471806 0.004598937 0.004464417 0.004312143 0.004131448
 0.003918647 0.003660915 0.003354987 0.002990549 0.002565713 0.002074576 0.001517071 0.0008904099 0.0001984839 -0.0005590419
 -0.001372815 -0.002239753 -0.003153215 -0.004108949 -0.00511687 -0.006176904 -0.007307242 -0.008511255 -0.009773693 -0.01109308
 -0.01238583 -0.01364139 -0.0147181 -0.01560296 -0.01615052 -0.01635887 -0.01613577 -0.01550732 -0.01445982 -0.01308609
 -0.0114962 -0.009835781 -0.008305591 -0.00698336 -0.006001652 -0.005341119 -0.005032546 -0.005015852 -0.005287588 -0.005753846
 -0.006409317 -0.007091191 -0.007781242 -0.00830947 -0.008652962 -0.008805682 -0.00876743 -0.008661943 -0.008492786 -0.008339675
 -0.008195716 -0.008063773 -0.007936798 -0.007791327 -0.007628563 -0.007438549 -0.007227946 -0.007005238 -0.006768634 -0.006522429
 -0.006254472 -0.005954979 -0.005622444 -0.00524753 -0.004854989 -0.004448183 -0.004060901 -0.003702704 -0.003388773 -0.003124826
 -0.002900202 -0.002715425 -0.002545131 -0.002387992 -0.002223129 -0.002051014 -0.001870598 -0.001684401 -0.00150617 -0.001337002
 -0.001188141 -0.00105848 -0.0009509228 -0.0008642864 -0.000798217 -0.0007511575 -0.0007223684 -0.0007073182 -0.0007032981 -0.0007040602
 -0.0007055156 -0.0007046376 -0.0006988987 -0.0006898788 -0.0006772786 -0.0006640614 -0.0006505601 -0.0006393741 -0.0006306869 -0.0006275022
 -0.000629994 -0.0006417148 -0.0006626895 -0.0006943807 -0.0007363559 -0.0007872353 -0.000846017 -0.0009089716 -0.0009744288 -0.00103725
 -0.001095054 -0.001141547 -0.001176113 -0.00119431 -0.001200713 -0.001195964 -0.001188712 -0.001183808 -0.001186211 -0.001200054
 -0.00122149 -0.00125118 -0.001280517 -0.001308183 -0.001328822 -0.001341518 -0.001347474 -0.001346723 -0.001344911 -0.001342347
 -0.001344602 -0.001351437 -0.001364687 -0.001383181 -0.001403964 -0.001425764 -0.001443998 -0.00145846 -0.001466364 -0.001469206
 -0.001467256 -0.001462927 -0.001458271 -0.001454508 -0.001453276 -0.001453239 -0.001454366 -0.001454985 -0.001454372 -0.001453302
 -0.001451747 -0.001450894 -0.001450967 -0.001450908 -0.001450667 -0.00144932 -0.001447079 -0.001446571 -0.001448097 -0.001455153
 -0.001467073 -0.001483443 -0.001503255 -0.001523753 -0.001544771 -0.001564841 -0.001584035 -0.001602222 -0.001618463 -0.001631972
 -0.001642148 -0.001647993 -0.001651069 -0.001651428 -0.001651682 -0.001652499 -0.001655495 -0.001661126 -0.001669338 -0.00168011
 -0.001694103 -0.001711346 -0.001733855 -0.001761753 -0.001797431 -0.001840592 -0.001890954 -0.001947568 -0.002007023 -0.002068298
 -0.002127151 -0.002183405 -0.002234542 -0.002281763 -0.002325248 -0.002366803 -0.002408106 -0.00244969 -0.002492867 -0.002535449
 -0.002577046 -0.002615316 -0.002649152 -0.002679697 -0.002706666 -0.002733702 -0.002761186 -0.00279096 -0.002823155 -0.002857385
 -0.002893656 -0.002931999 -0.002972511 -0.003015931 -0.003062141 -0.003111127 -0.003162675 -0.003216181 -0.00327172 -0.003329342
 -0.003388621 -0.00344952 -0.00351034 -0.003570254 -0.003626249 -0.003676643 -0.003718844 -0.003751135 -0.003773797 -0.003785987
 -0.003791656 -0.003790943 -0.003789651 -0.003788202 -0.003792812 -0.003803849 -0.003827645 -0.00386428 -0.003916667 -0.003983566
 -0.004059096 -0.004141185 -0.004218468 -0.004291061 -0.004352587 -0.004406523 -0.004455667 -0.004503517 -0.004555934 -0.004612924
 -0.004677007 -0.004745413 -0.004817485 -0.004890204 -0.004961883 -0.005032428 -0.00510087 -0.005171123 -0.005243466 -0.005322789
 -0.005409937 -0.005504001 -0.005605032 -0.005705568 -0.005805281 -0.005897656 -0.005983409 -0.006063757 -0.006139954 -0.006217688
 -0.00629685 -0.006380565 -0.006466819 -0.006553433 -0.006639176 -0.006720682 -0.00680066 -0.006879467 -0.006961946 -0.007051548
 -0.007148991 -0.007256553 -0.007368458 -0.007483903 -0.007596988 -0.007706194 -0.00781109 -0.007911422 -0.008008352 -0.008101982
 -0.008189222 -0.008269809 -0.008338666 -0.008396302 -0.008442769 -0.008480343 -0.00851735 -0.008556393 -0.008608727 -0.008674202
 -0.008758876 -0.008858255 -0.008969805 -0.009088304 -0.009207617 -0.009327861 -0.009446394 -0.009568266 -0.009695161 -0.009829524
 -0.009973232 -0.0101223 -0.01027653 -0.01043096 -0.01058482 -0.01073771 -0.01088953 -0.0110418 -0.01119447 -0.01134662
 -0.01149792 -0.01164561 -0.01178974 -0.0119288 -0.01206347 -0.01219462 -0.01232304 -0.01245062 -0.01257748 -0.01270479
 -0.01283157 -0.01295739 -0.01308136 -0.01320227 -0.01332181 -0.01343975 -0.01356022 -0.01368445 -0.01381429 -0.01395101
 -0.01408977 -0.0142306 -0.01436422 -0.01449004 -0.01460291 -0.01470312 -0.01479491 -0.0148795 -0.01496742 -0.01505929
 -0.01516362 -0.01527907 -0.01540736 -0.01554484 -0.01568636 -0.01582801 -0.0159622 -0.01608896 -0.01620435 -0.0163141
 -0.01642002 -0.01652825 -0.01664272 -0.01676239 -0.01688872 -0.0170146 -0.01713902 -0.01725681 -0.01736704 -0.01746973
 -0.01756477 -0.01765454 -0.01773922 -0.01782198 -0.01790299 -0.01798515 -0.01806803 -0.01815163 -0.0182352 -0.01831647
 -0.01839583 -0.0184726 -0.01854821 -0.0186242 -0.01870151 -0.0187814 -0.01886443 -0.01895137 -0.01904209 -0.01913762
 -0.01923385 -0.0193308 -0.01942035 -0.0195009 -0.01956809 -0.01962059 -0.01966393 -0.01969829 -0.01973361 -0.01977023
 -0.01981432 -0.0198654 -0.01992314 -0.01998669 -0.02005249 -0.02012015 -0.02018672 -0.02025247 -0.02031668 -0.02037928
 -0.02044011 -0.0204985 -0.02055348 -0.02060578 -0.02065532 -0.02070353 -0.02075149 -0.0207978 -0.02084255 -0.02088295
 -0.02091809 -0.02094923 -0.02097622 -0.02100269 -0.02102894 -0.02105459 -0.02107947 -0.02110025 -0.02111696 -0.02112822
 -0.02113454 -0.02113708 -0.02113674 -0.02113598 -0.02113665 -0.0211434 -0.02115714 -0.02118195 -0.0212149 -0.02125558
 -0.0212989 -0.02134171 -0.0213805 -0.021413 -0.02143775 -0.02145378 -0.02146126 -0.02145954 -0.02145269 -0.02144072
 -0.02143105 -0.0214241 -0.0214279 -0.02144277 -0.02147463 -0.02152291 -0.021587 -0.02166447 -0.02174509 -0.02182649
 -0.02189623 -0.02195535 -0.02199976 -0.02203193 -0.02205417 -0.02206612 -0.02206784 -0.0220602 -0.02204206 -0.02202041
 -0.02199762 -0.0219798 -0.02197028 -0.02196647 -0.02196912 -0.02197046 -0.02196979 -0.02196025 -0.02194124 -0.02191122
 -0.02187046 -0.02182571 -0.02177782 -0.02173708 -0.02170298 -0.02167919 -0.02166393 -0.0216539 -0.02164845 -0.02164523
 -0.0216431 -0.02164083 -0.02163406 -0.02161833 -0.02159112 -0.02154792 -0.02149392 -0.02142928 -0.02136234 -0.02129563
 -0.02123402 -0.02117906 -0.02113186 -0.02109314 -0.02105879 -0.02102864 -0.02099682 -0.02096349 -0.02093355 -0.02090835
 -0.02090235 -0.02091379 -0.02094529 -0.02098905 -0.02102544 -0.02104702 -0.02102769 -0.02097191 -0.02087097 -0.02074248
 -0.02059844 -0.0204552 -0.0203285 -0.0202197 -0.0201358 -0.02006315 -0.01999965 -0.01993191 -0.01985556 -0.01977262
 -0.01968204 -0.01959518 -0.01951277 -0.01944309 -0.01938638 -0.01934608 -0.01932069 -0.01930211 -0.01928508 -0.01924121
 -0.01916882 -0.01904316 -0.01887843 -0.01868892 -0.01849039 -0.01831378 -0.01815609 -0.01802679 -0.01791538 -0.01781681
 -0.01772714 -0.01764439 -0.01756299 -0.01748275 -0.01739072 -0.0172841 -0.01715589 -0.01700396 -0.01683455 -0.01664783
 -0.01645229 -0.01624835 -0.01604335 -0.01583752 -0.01563682 -0.01544007 -0.01524504 -0.01505056 -0.01485114 -0.01464853
 -0.0144443 -0.01423822 -0.01403243 -0.01382101 -0.01359767 -0.01336308 -0.01311313 -0.01285931 -0.01260732 -0.01235865
 -0.01211799 -0.01186865 -0.011608 -0.01132408 -0.01101358 -0.01068566 -0.01034056 -0.009992419 -0.009641229 -0.009281275
 -0.008909378 -0.008495704 -0.008038846 -0.00751177 -0.006925538 -0.006296166 -0.005638384 -0.004993737 -0.004356747 -0.003740621
 -0.003126748 -0.002498425 -0.001854146 -0.001182396 -0.0005055706 0.0001686095 0.0008255322 0.001454629 0.002071288 0.0026724
 0.003300383 0.0039579 0.004700339 0.005533214 0.006464451 0.007491923 0.008538839 0.009602582 0.01062177 0.01161017
 0.01259737 0.01360004 0.01468569 0.01585335 0.0171376 0.01851928 0.01998882 0.02152263 0.02309411 0.02469061
 0.02628704 0.02791153 0.02955974 0.03130144 0.03316501 0.03515876 0.0373068 0.03948563 0.04168255 0.04380247
 0.04583331 0.04782216 0.04977136 0.05173817 0.05371733 0.05567866 0.05762486 0.05953913 0.06145727 0.06347843
 0.0656273 0.06802654 0.07061363 0.07336241 0.07618717 0.07897331 0.08173982 0.08445526 0.08718608 0.08996312
 0.09279981 0.09570754 0.09867911 0.101695 0.1048738 0.1082091 0.1119931 0.1162532 0.1210867 0.1264832
 0.1319529 0.1374705 0.1425728 0.1473286 0.1518252 0.1561332 0.1605207 0.1649839 0.1696408 0.1744687
 0.1794503 0.1846675 0.1901437 0.1961054 0.2027162 0.2101087 0.2184867 0.2274815 0.2370975 0.2466504
 0.2559792 0.264759 0.2729003 0.2804956 0.2875362 0.2942981 0.3008019 0.3075348 0.3145429 0.3225142
 0.3313756 0.3412566 0.3518157 0.3620019 0.3717516 0.3803002 0.3880666 0.3953402 0.4024413 0.4098485
 0.4175539 0.4257142 0.4341893 0.442937 0.4519085 0.4611069 0.4703757 0.4797034 0.4888374 0.4977182
 0.5064249 0.5149559 0.5234938 0.5320357 0.5402408 0.5480713 0.5549841 0.5610493 0.5663009 0.5708866
 0.5753338 0.5796028 0.5839443 0.5880604 0.5915417 0.5944105 0.5964462 0.5980232 0.599372 0.6006287
 0.6019657 0.6032171 0.6043585 0.6052763 0.6059147 0.6063835 0.6066797 0.6070057 0.6073822 0.6078549
 0.6084208 0.6088364 0.6090904 0.6089724 0.608505 0.6076998 0.6065698 0.6051648 0.6034772 0.6015025
 0.599265 0.5967748 0.5941203 0.5913761 0.5886629 0.5860707 0.5837285 0.5817137 0.5801244 0.5790225
 0.5783874 0.5782318 0.5784823 0.5791217 0.5801815 0.5816606 0.5836436 0.5861334 0.589119 0.5925911
 0.5964486 0.6006876 0.6052365 0.6100994 0.6152539 0.6207 0.6264223 0.6324323 0.6387352 0.6453552
 0.6523212 0.6596425 0.667336 0.6753982 0.6838295 0.6926332 0.7018155 0.7113565 0.7212705 0.7314362
 0.7418557 0.7522803 0.762689 0.7728943 0.7828916 0.7928563 0.8028169 0.8131966 0.823913 0.8348324
 0.8457069 0.855598 0.8645079 0.8719047 0.8780974 0.8833814 0.8878322 0.8916991 0.8947926 0.8970002
 0.898355 0.8988026 0.8985611 0.8977401 0.8962612 0.8941764 0.8910736 0.8868694 0.8815599 0.8751184
 0.8679602 0.8601021 0.8516531 0.8426101 0.8329619 0.8227316 0.812046 0.8009183 0.7895105 0.7777023
 0.7653891 0.7522616 0.7377065 0.7218121 0.7041048 0.6858116 0.6677142 0.6505454 0.6351249 0.6207363
 0.6073053 0.5942193 0.5812463 0.5685146 0.5559952 0.5440068 0.5325896 0.5216936 0.511315 0.5011716
 0.4912603 0.4814446 0.4717542 0.4622796 0.45304 0.4441612 0.4356077 0.4273705 0.4193933 0.411581
 0.4039133 0.3963452 0.3888341 0.3813867 0.3737973 0.3659863 0.357721 0.3487753 0.3396297 0.3302528
 0.3216763 0.3141257 0.3075991 0.3021524 0.2970446 0.2922409 0.2872803 0.2821823 0.2770154 0.2718252
 0.2669147 0.2622591 0.2579353 0.2538936 0.2500305 0.24639 0.2429754 0.2398904 0.2372666 0.235113
 0.2334971 0.2323373 0.2316029 0.2312567 0.2312644 0.2316769 0.2324809 0.233829 0.2357205 0.238454
 0.2420594 0.2467328 0.2524801 0.2587759 0.2655533 0.2718354 0.277636 0.2825201 0.2865774 0.2898892
 0.2925056 0.2945591 0.2961128 0.2972767 0.2982197 0.2991343 0.300232 0.3017811 0.3037237 0.3061821
 0.3087381 0.3112425 0.3135336 0.3154984 0.3173662 0.3191528 0.3210724 0.3231543 0.3254039 0.3278219
 0.3302674 0.332738 0.3351517 0.3375375 0.3400005 0.342598 0.3455841 0.3489848 0.3530145 0.3575922
 0.3626844 0.368213 0.3740334 0.380244 0.3868591 0.3940164 0.4018294 0.4102337 0.4192582 0.4287047
 0.4385048 0.4486733 0.4591678 0.4703304 0.4821943 0.49496 0.508637 0.5225981 0.5367708 0.5500418
 0.5624215 0.5733956 0.5830515 0.591468 0.598604 0.604441 0.6088182 0.6114523 0.612281 0.6110814
 0.6079887 0.6030043 0.5963556 0.5881424 0.5785893 0.5677776 0.555925 0.5430564 0.5295321 0.5153657
 0.5011758 0.4870176 0.4733927 0.4603306 0.4478163 0.4358306 0.4240985 0.4126385 0.4014057 0.3904717
 0.3800822 0.370251 0.3611585 0.3527203 0.3448869 0.337562 0.3306188 0.3239959 0.3176084 0.3114205
 0.3053887 0.2995113 0.2937739 0.2882032 0.2828065 0.277583 0.2725378 0.2676291 0.2628516 0.2581998
 0.2536732 0.249376 0.2453187 0.2416693 0.2384273 0.2356827 0.2334098 0.231566 0.2301236 0.2289946
 0.2281692 0.2275935 0.227265 0.2271689 0.2272811 0.2275954 0.2280374 0.2285856 0.2291143 0.2295864
 0.2298629 0.2299081 0.2296102 0.2289448 0.2278571 0.2263343 0.2244186 0.2221117 0.2195523 0.21675
 0.2138615 0.2108942 0.207967 0.205089 0.2023541 0.1997732 0.19742 0.1952955 0.1934359 0.1918312
 0.1904848 0.1893846 0.1885251 0.1878879 0.187468 0.1872294 0.1871654 0.1872187 0.1873806 0.1875753
 0.1877934 0.1879535 0.1880469 0.188017 0.1878598 0.1875692 0.1871482 0.1866366 0.1860404 0.1854161
 0.1847667 0.1841353 0.1835159 0.1829185 0.1823268 0.18172 0.1810806 0.1803802 0.1796102 0.1787529
 0.1778112 0.1767785 0.175672 0.1744918 0.1732714 0.1720167 0.1707643 0.1695214 0.1683076 0.167126
 0.1659802 0.1648705 0.1638013 0.1627733 0.1617984 0.1608785 0.1600309 0.1592597 0.1585884 0.1580221
 0.1575863 0.1572811 0.1571207 0.1570957 0.157203 0.1574273 0.157757 0.1581765 0.1586765 0.1592407
 0.1598648 0.1605236 0.161214 0.1618984 0.1625715 0.163198 0.1637725 0.1642859 0.1647372 0.1651505
 0.1655285 0.1659135 0.1663082 0.1667537 0.167246 0.1678007 0.1683949 0.1689906 0.1695439 0.1699657
 0.1702206 0.1702213 0.1699836 0.1694762 0.1687729 0.1678979 0.1669382 0.1659332 0.1649338 0.1639639
 0.1630296 0.1621367 0.1612718 0.160434 0.1596138 0.1588107 0.1580221 0.1572481 0.1564879 0.1557428
 0.1550201 0.1543244 0.1536786 0.1530811 0.1525486 0.1520555 0.1515746 0.1510587 0.1504385 0.1496905
 0.148755 0.1476828 0.1464697 0.1452225 0.1439826 0.1428173 0.1417665 0.140784 0.1398779 0.1389272
 0.1379189 0.1367768 0.1354938 0.1341185 0.1326588 0.131255 0.1299144 0.1287609 0.1277824 0.1270039
 0.1263971 0.1259005 0.1254995 0.1251308 0.124818 0.1245583 0.1243945 0.124365 0.1244871 0.1247867
 0.125249 0.1258707 0.1266506 0.1275804 0.1287011 0.1300158 0.1315769 0.1333913 0.1354781 0.1378393
 0.1404577 0.1433319 0.1464361 0.1497693 0.1533152 0.1570726 0.1610316 0.1651837 0.1695096 0.1739854
 0.178568 0.1832185 0.1878759 0.1925045 0.1970515 0.2015071 0.2058472 0.210089 0.214233 0.2182976
 0.2222901 0.2262103 0.2300601 0.2338312 0.237522 0.2411391 0.2446826 0.2481828 0.2516429 0.2551136
 0.2586028 0.2621844 0.2658728 0.2697625 0.2738688 0.2782808 0.2830017 0.2880814 0.2935064 0.2992818
 0.3053878 0.3118111 0.3185309 0.3255436 0.3327926 0.3402884 0.3478491 0.3554794 0.3627787 0.3697196
 0.3757169 0.3807129 0.3841883 0.3861012 0.3863216 0.3848672 0.3820795 0.3780164 0.373243 0.3678029
 0.3621725 0.3563584 0.3506199 0.3449405 0.3394086 0.3340034 0.3287315 0.3235817 0.3185401 0.3136218
 0.3088227 0.3041898 0.2997353 0.2955179 0.2915553 0.2878875 0.2845262 0.2814803 0.2787537 0.2763299
 0.2742086 0.2723541 0.2707638 0.2693912 0.2682333 0.2672475 0.2664304 0.2657485 0.2651915 0.2647206
 0.2643132 0.2639146 0.2634978 0.2630072 0.2624249 0.2617159 0.2608764 0.2598929 0.2587722 0.2575105
 0.2561283 0.2546252 0.2530436 0.2513863 0.2497155 0.2480366 0.2464142 0.2448529 0.243402 0.242063
 0.2408601 0.2397922 0.2388632 0.2380724 0.2374179 0.2369033 0.2365356 0.2363228 0.236283 0.2364202
 0.2367529 0.2372639 0.2379572 0.2387764 0.2397044 0.2406429 0.241561 0.242337 0.2429386 0.2432485
 0.2432411 0.2428354 0.2420146 0.2407797 0.2391268 0.2371736 0.2349305 0.2326019 0.2302003 0.2279174
 0.2257494 0.2237882 0.2220118 0.2204098 0.2189575 0.2176042 0.2163345 0.2151097 0.2139174 0.2127394
 0.2115513 0.2103421 0.2090636 0.2077033 0.2061872 0.204499 0.2025543 0.2003349 0.1977842 0.1948889
 0.1916606 0.1880971 0.1842871 0.1802376 0.1760826 0.1718317 0.1676181 0.1634478 0.1594187 0.1555286
 0.1518241 0.1482935 0.1449373 0.1417423 0.1386885 0.1357742 0.1329872 0.1303393 0.1278346 0.1254821
 0.12329 0.1212491 0.1193601 0.1176056 0.1159815 0.114481 0.1131037 0.1118381 0.1106851 0.1095861
 0.1085359 0.1074231 0.1062421 0.1048926 0.1033845 0.1016994 0.09986536 0.09794728 0.09597468 0.09403473
 0.09214152 0.09035213 0.08866103 0.0870861 0.08560727 0.0842196 0.08289759 0.08162995 0.08039681 0.07918942
 0.07800051 0.07682585 0.07567216 0.07453831 0.073445 0.07239318 0.071412 0.07050279 0.06968793 0.06896645
 0.06834101 0.06780882 0.06735875 0.06698951 0.06669217 0.06646603 0.06630753 0.06621125 0.06617001 0.06617533
 0.06621485 0.06628979 0.06639304 0.06654306 0.06674419 0.0670187 0.06737615 0.06781978 0.0683543 0.06896187
 0.06964149 0.07037324 0.07115574 0.07197379 0.07282571 0.07367794 0.07452326 0.07528946 0.07596529 0.07646033
 0.0767713 0.07683679 0.0766719 0.07627057 0.07566554 0.07489242 0.0739942 0.07301751 0.07200934 0.07100818
 0.07005895 0.06918807 0.06843007 0.06780075 0.06731688 0.06698571 0.06680527 0.06677722 0.06688784 0.06713656
 0.06750532 0.06799303 0.06857893 0.06926148 0.07001892 0.07084957 0.07173494 0.07267231 0.07364664 0.07465056
 0.07566494 0.07667792 0.07766478 0.07861958 0.07952348 0.08038957 0.08121627 0.08203184 0.08284836 0.08368595
 0.08455685 0.0854534 0.08637953 0.08730425 0.08822571 0.08910616 0.08994303 0.09070101 0.09137838 0.09194664
 0.09240641 0.09274813 0.09297827 0.09311798 0.09318055 0.09321296 0.09323131 0.09328907 0.09339745 0.09359601
 0.09388356 0.09427585 0.09475876 0.09532899 0.09597002 0.0966736 0.09742954 0.09823418 0.09907702 0.09995707
 0.1008567 0.1017739 0.1026934 0.103614 0.1045306 0.1054427 0.1063432 0.1072308 0.1080885 0.1089162
 0.1097025 0.1104538 0.1111813 0.1118956 0.1126229 0.1133709 0.1141619 0.1149971 0.115887 0.1168255
 0.117814 0.1188387 0.1198954 0.1209672 0.1220476 0.1231284 0.1242054 0.125286 0.1263705 0.1274679
 0.1285796 0.1296955 0.1308146 0.1319098 0.1329805 0.1340088 0.1349965 0.1359448 0.1368528 0.1377202
 0.1385403 0.1392986 0.1399924 0.140607 0.1411566 0.1416433 0.1421002 0.1425452 0.1430182 0.1435425
 0.14414 0.1448273 0.145589 0.1464284 0.1473062 0.1482172 0.149137 0.1500621 0.1510005 0.1519529
 0.1529381 0.153955 0.1550032 0.1560771 0.1571487 0.1582115 0.1592284 0.1602032 0.161121 0.1620003
 0.1628608 0.163719 0.1646044 0.1655082 0.1664384 0.1673667 0.1682813 0.1691629 0.1700011 0.1707952
 0.1715434 0.1722488 0.172912 0.1735333 0.1741126 0.1746547 0.1751598 0.1756403 0.1760976 0.1765493
 0.1769972 0.1774597 0.1779369 0.1784398 0.1789654 0.1795131 0.1800796 0.1806593 0.1812519 0.1818542
 0.1824696 0.1830986 0.1837479 0.1844217 0.1851215 0.1858524 0.1865966 0.1873539 0.1880929 0.1888084
 0.1894851 0.1901199 0.1907317 0.1913216 0.1919266 0.1925478 0.1932131 0.1939209 0.1946771 0.1954792
 0.1963194 0.1972008 0.1981234 0.1990983 0.2001442 0.2012631 0.2024727 0.2037427 0.2050661 0.206388
 0.2076828 0.2089044 0.2100317 0.2110432 0.2119291 0.2126895 0.21332 0.2138492 0.2142764 0.2146702
 0.2150343 0.2154572 0.2159409 0.216543 0.2172543 0.2180635 0.2189521 0.2198554 0.2207606 0.2216072
 0.2223963 0.2231051 0.2237349 0.2242836 0.2247378 0.2250888 0.2253222 0.2254219 0.2254065 0.2252682
 0.2250739 0.2248301 0.2246265 0.2244762 0.2244431 0.2245356 0.2247619 0.2251222 0.2255805 0.2261334
 0.226735 0.2273834 0.228044 0.2287209 0.229407 0.2301136 0.2308667 0.2316622 0.2325159 0.2333903
 0.2342471 0.2350741 0.2358205 0.2365897 0.2373945 0.2384176 0.2397593 0.241366 0.2432902 0.2451683
 0.2469367 0.2484957 0.2498185 0.2510988 0.2523454 0.2536948 0.2551381 0.2566278 0.258139 0.259515
 0.2607404 0.2616855 0.2623448 0.2626443 0.2625841 0.262123 0.2612932 0.2600955 0.258614 0.2568942
 0.255048 0.2531353 0.2512521 0.2494395 0.2477685 0.2462572 0.244974 0.243928 0.2431875 0.2427589
 0.2426912 0.2429874 0.2436808 0.2447746 0.2463141 0.2483072 0.2508211 0.2538608 0.2574887 0.261683
 0.2664619 0.2717114 0.277356 0.2830417 0.2884967 0.2930413 0.2961349 0.2971885 0.2956162 0.2917079
 0.2852398 0.2774646 0.2685501 0.2598824 0.2517066 0.2447627 0.2391675 0.2348748 0.2318836 0.2297365
 0.2284074 0.227461 0.226894 0.2264636 0.2261813 0.2259597 0.2258044 0.2256912 0.2256074 0.2255243
 0.2254266 0.22528 0.2250988 0.2248757 0.2246508 0.2244437 0.2242797 0.2241748 0.2241285 0.2241434
 0.2242161 0.2243474 0.2245281 0.2247595 0.2250058 0.2252651 0.2254947 0.2256952 0.2258595 0.2259936
 0.2261292 0.2262688 0.2264425 0.2266385 0.2268502 0.2270506 0.2271946 0.2272613 0.2272007 0.2270343
 0.2267502 0.2264113 0.2260474 0.2257012 0.2254048 0.2251307 0.2248844 0.2246 0.2242652 0.2238567
 0.2233674 0.2228459 0.2222944 0.2217733 0.2212816 0.2208211 0.2203855 0.2199342 0.2194724 0.2189926
 0.2185128 0.2180757 0.2176829 0.2173655 0.2170918 0.2168432 0.2165782 0.2162584 0.2158614 0.2153644
 0.2147628 0.2140515 0.2132263 0.2122871 0.2112223 0.2100302 0.2087017 0.207234 0.2056473 0.2039426
 0.2021765 0.2003519 0.1985192 0.1966767 0.1948373 0.1930042 0.1911889 0.1894092 0.1877116 0.186111
 0.1846574 0.1833404 0.1821709 0.1811248 0.1801877 0.1793395 0.1785701 0.1778513 0.177177 0.1765012
 0.175814 0.1750719 0.1742643 0.1733834 0.1724247 0.1714349 0.1704166</values></Ydata></AB><ScSm><Ydata ylabel="Single channel"><values byteorder="INTEL" format="FLOAT32" numvalues="1814"> 0.06772177 0.06775273 0.06783383 0.06797646 0.06815416 0.06831992 0.06844017 0.06851566 0.06856222 0.06857823
 0.06855871 0.06854198 0.06860102 0.06876805 0.06898738 0.06915522 0.06920418 0.06916417 0.0691465 0.06923611
 0.06937475 0.06937781 0.06910683 0.06862704 0.06816354 0.06789331 0.06783701 0.06799224 0.06844153 0.06913592
 0.06965646 0.06951506 0.06876621 0.06803491 0.06782103 0.06801924 0.06821202 0.06815188 0.06783643 0.06741546
 0.06723893 0.06776436 0.06910779 0.07067104 0.07135455 0.07024777 0.06727438 0.06340922 0.0603326 0.05953642
 0.06126978 0.06421314 0.06646585 0.06706513 0.06645928 0.06556735 0.06479165 0.064115 0.06371637 0.06400317
 0.06504092 0.06617802 0.06637649 0.0650834 0.0628846 0.06110745 0.06062046 0.06127327 0.06258564 0.06428152
 0.06557835 0.06475557 0.06083077 0.05572942 0.05345201 0.05627542 0.06232836 0.06743871 0.06885763 0.06678574
 0.06315395 0.06001252 0.05878583 0.05988494 0.06259182 0.06566343 0.06810822 0.06925614 0.06858698 0.06616399
 0.06307824 0.06092297 0.06081208 0.06294619 0.06657258 0.07003874 0.07153723 0.07044758 0.06775469 0.06499322
 0.06322615 0.06305476 0.0647701 0.06803885 0.07188785 0.07528753 0.07758097 0.07852156 0.07830317 0.07744301
 0.07639121 0.07546456 0.07513683 0.0757471 0.07673012 0.07682568 0.07545426 0.07348809 0.07235184 0.07254744
 0.07325017 0.07331635 0.0724428 0.07097614 0.06877808 0.06522524 0.06061718 0.05653645 0.0542694 0.05383526
 0.05493077 0.05743263 0.06028182 0.06139189 0.05991584 0.05773063 0.05756764 0.06009659 0.06357324 0.06599855
 0.06697227 0.06756356 0.0689158 0.07107311 0.07281193 0.07255264 0.0699246 0.06666382 0.06539122 0.06704781
 0.0699959 0.07203976 0.07274174 0.07321903 0.07417987 0.07483615 0.07372434 0.07043505 0.06657542 0.0648002
 0.06651186 0.07046091 0.07364441 0.07354159 0.06981689 0.06440572 0.05999622 0.05816399 0.05890669 0.06163771
 0.06583844 0.07059116 0.07432264 0.07566993 0.07448464 0.07174687 0.06847072 0.0647974 0.06047442 0.05631045
 0.05440283 0.05615816 0.06048229 0.06467878 0.06687495 0.06698191 0.06564541 0.06308797 0.05925043 0.05482678
 0.05162434 0.05119447 0.05299876 0.05468346 0.05453553 0.05304486 0.05174536 0.05126761 0.05107798 0.05063374
 0.05014328 0.05018293 0.05088063 0.05167218 0.05185964 0.05126043 0.05024267 0.049275 0.04851342 0.04771151
 0.0465746 0.04533242 0.04475052 0.04529377 0.04648049 0.04737328 0.04752672 0.04716541 0.04658485 0.0456812
 0.04414008 0.04203854 0.04013247 0.039311 0.03972584 0.04067704 0.04135665 0.04144781 0.04104775 0.04036808
 0.03959385 0.03882476 0.03809682 0.03750474 0.03718801 0.03712696 0.0370957 0.03689021 0.03648895 0.03595822
 0.03532319 0.03458827 0.03382042 0.03315438 0.03269891 0.0324475 0.03230585 0.03218799 0.03203523 0.03177476
 0.03135367 0.03081522 0.03027037 0.02979406 0.02939581 0.02907184 0.02882983 0.02865877 0.02850784 0.02831537
 0.02805782 0.0277584 0.02744522 0.02712183 0.02678714 0.02646115 0.02617638 0.02595189 0.02577414 0.02560265
 0.02541398 0.02523348 0.02508928 0.02494791 0.024746 0.02447709 0.02419848 0.02396022 0.02376729 0.02360044
 0.02343847 0.02326049 0.0230467 0.02279058 0.02251931 0.02229293 0.02216038 0.02211949 0.02213215 0.02215732
 0.02215396 0.02208757 0.02196136 0.02181485 0.0216756 0.02153538 0.02137953 0.02121785 0.02108428 0.02101386
 0.02101074 0.02103698 0.02104522 0.02101639 0.02095825 0.02088807 0.02082781 0.02079048 0.02076009 0.02070816
 0.02063353 0.02056464 0.0205242 0.02050746 0.0204911 0.02045506 0.02040254 0.02035867 0.02034212 0.02034522
 0.02034906 0.02034672 0.02034435 0.02034858 0.02035591 0.02035136 0.02032365 0.02028314 0.02025241 0.02023956
 0.02023577 0.02023691 0.02024988 0.02027746 0.02030936 0.02033 0.02033209 0.0203232 0.02031669 0.02031469
 0.02030731 0.02029005 0.0202706 0.02025628 0.02024548 0.02023312 0.02021607 0.02019315 0.02016487 0.02013201
 0.02009301 0.02004529 0.01998815 0.01992267 0.019854 0.01979429 0.01975481 0.01973192 0.01970789 0.01966823
 0.01961391 0.01955689 0.01950756 0.01946693 0.01942968 0.01939419 0.01936657 0.01935372 0.0193572 0.01937529
 0.01940595 0.01944597 0.01949359 0.0195542 0.0196376 0.01974576 0.01986724 0.01998731 0.02010168 0.0202174
 0.02034176 0.02047387 0.02060748 0.02073984 0.02087662 0.0210268 0.02119042 0.02135289 0.02149783 0.02162569
 0.02175263 0.02189055 0.02203676 0.02218467 0.02233356 0.02248324 0.02262942 0.02277092 0.02291367 0.02306157
 0.02321 0.02335482 0.02350146 0.02365719 0.02381947 0.02398119 0.02414555 0.02432686 0.02453472 0.02476226
 0.02499092 0.02520529 0.02540486 0.02560484 0.02582477 0.0260729 0.02633958 0.02660521 0.02685626 0.02709576
 0.02733801 0.02759238 0.0278552 0.0281201 0.0283903 0.0286737 0.02896959 0.02926855 0.02956542 0.02986422
 0.03016895 0.03047557 0.03077706 0.03107288 0.03136962 0.03167322 0.03198365 0.03229744 0.03261182 0.0329249
 0.03323406 0.03353789 0.03383984 0.03414512 0.03445171 0.03474915 0.03503177 0.03530926 0.03559557 0.03588876
 0.03617172 0.03643451 0.0366872 0.0369475 0.03722341 0.03751256 0.03781167 0.03811853 0.03842654 0.03872368
 0.03899921 0.03924998 0.03948134 0.0397051 0.03993556 0.04018392 0.04045416 0.04074283 0.0410397 0.04132894
 0.04159627 0.04183803 0.04206175 0.04228037 0.04250976 0.04276618 0.04305559 0.04336534 0.04367109 0.04395095
 0.04419588 0.04441884 0.04465602 0.04494334 0.0452832 0.04564532 0.046005 0.04636693 0.04674492 0.04713453
 0.04752051 0.04790227 0.0482939 0.04869828 0.049095 0.04945848 0.04977887 0.05006271 0.05032604 0.05059424
 0.05089562 0.051242 0.05161925 0.05200229 0.05237318 0.05272067 0.05303166 0.05329452 0.0535115 0.05370307
 0.05389492 0.05409833 0.05430553 0.05450641 0.0547033 0.0549002 0.05508181 0.05521484 0.05527166 0.05524397
 0.05513386 0.05494259 0.05467375 0.05433925 0.05395148 0.05350985 0.05300193 0.05241966 0.05176913 0.05106326
 0.05031108 0.04952051 0.04871196 0.04792716 0.04722409 0.04666264 0.04629257 0.04615002 0.04625441 0.04659567
 0.04711701 0.04771218 0.04824629 0.04859024 0.04865366 0.04840503 0.04787483 0.04714134 0.04630456 0.04545665
 0.04465833 0.04393008 0.04326352 0.04264942 0.0421063 0.04169063 0.04148684 0.04159887 0.04215327 0.04328021
 0.04503847 0.04732425 0.04986452 0.05233397 0.05450805 0.05632894 0.05785914 0.0591959 0.06041524 0.0615553
 0.06262316 0.06361319 0.06452228 0.06534785 0.06607576 0.06667987 0.06713696 0.06744158 0.06760955 0.0676747
 0.06768689 0.06771032 0.06781219 0.06803513 0.06836613 0.06872946 0.06901491 0.06912158 0.06898844 0.06860036
 0.06798378 0.06722616 0.06653775 0.06629451 0.06693956 0.06872609 0.07149872 0.07474442 0.07788976 0.08057833
 0.08272848 0.08442132 0.08577827 0.08690348 0.08787256 0.08873801 0.08953748 0.090296 0.09102464 0.09172397
 0.09239182 0.0930286 0.09363979 0.09423531 0.09482399 0.09540796 0.09598492 0.09655513 0.09712267 0.09769031
 0.09825559 0.09881323 0.0993617 0.09990621 0.1004524 0.1009975 0.1015318 0.1020496 0.1025557 0.1030589
 0.1035634 0.1040649 0.1045533 0.1050215 0.1054719 0.1059136 0.1063515 0.1067823 0.1072021 0.1076134
 0.1080201 0.1084212 0.108814 0.1092004 0.1095867 0.1099742 0.1103561 0.1107256 0.1110844 0.1114423
 0.1118088 0.1121858 0.1125666 0.1129405 0.1133021 0.1136603 0.1140333 0.1144323 0.1148491 0.1152645
 0.115668 0.1160669 0.116473 0.116887 0.1172996 0.117706 0.118111 0.1185188 0.1189259 0.1193252
 0.1197155 0.1201001 0.1204811 0.1208596 0.1212388 0.1216227 0.1220119 0.1224018 0.1227875 0.1231678
 0.1235444 0.1239172 0.1242831 0.124639 0.124987 0.1253342 0.1256859 0.126042 0.1264004 0.1267622
 0.1271294 0.1274999 0.1278678 0.1282299 0.1285897 0.1289521 0.1293171 0.1296795 0.1300355 0.130386
 0.1307357 0.1310904 0.1314517 0.1318153 0.1321755 0.1325318 0.1328882 0.1332473 0.1336084 0.1339692
 0.1343259 0.1346751 0.1350188 0.1353645 0.1357166 0.1360719 0.1364249 0.1367739 0.1371222 0.1374738
 0.1378299 0.1381869 0.1385412 0.1388943 0.139251 0.1396146 0.1399848 0.1403578 0.1407281 0.1410941
 0.1414589 0.1418252 0.1421919 0.1425568 0.1429191 0.1432773 0.1436302 0.1439787 0.144324 0.1446657
 0.145005 0.1453468 0.145697 0.1460572 0.1464215 0.1467777 0.1471159 0.1474394 0.1477621 0.148096
 0.1484433 0.1487985 0.1491522 0.149497 0.1498324 0.1501647 0.1505003 0.1508434 0.1511946 0.151549
 0.1519003 0.1522487 0.152599 0.1529502 0.1532934 0.1536212 0.1539347 0.1542437 0.1545618 0.1548973
 0.1552472 0.1556015 0.1559512 0.1562904 0.1566176 0.1569391 0.1572652 0.1576018 0.1579485 0.1582984
 0.1586421 0.1589759 0.1593079 0.15965 0.160006 0.1603721 0.1607413 0.1611062 0.1614655 0.1618235
 0.1621807 0.1625306 0.162873 0.1632178 0.1635707 0.1639258 0.1642761 0.1646188 0.1649541 0.1652852
 0.1656157 0.1659437 0.1662673 0.1665911 0.1669202 0.1672528 0.1675881 0.1679274 0.1682679 0.1686035
 0.1689313 0.1692496 0.1695591 0.1698688 0.1701883 0.1705146 0.170841 0.1711695 0.1715007 0.1718276
 0.172148 0.1724675 0.1727874 0.173106 0.1734252 0.1737446 0.1740598 0.1743716 0.1746777 0.174956
 0.1751602 0.1751863 0.1747688 0.1733697 0.1701653 0.1642126 0.154824 0.1419975 0.1265681 0.109915
 0.09345333 0.07826224 0.06497818 0.05388108 0.04503339 0.03836621 0.03373564 0.03101874 0.03021069 0.03152282
 0.03549528 0.04268369 0.05245031 0.06188085 0.06690572 0.06550381 0.05962848 0.0534253 0.04978447 0.04893506
 0.04966622 0.05093125 0.05238781 0.05421661 0.05674656 0.06007751 0.06404942 0.06864393 0.07419579 0.08096719
 0.08861781 0.09633887 0.10355 0.1103558 0.1172823 0.1246378 0.1321853 0.1393766 0.1457924 0.151353
 0.1562289 0.1606499 0.1647777 0.1686891 0.1724177 0.1759549 0.17918 0.1818297 0.1836201 0.1844589
 0.1845548 0.1843055 0.184064 0.1839934 0.1841066 0.1843797 0.1848025 0.1853634 0.1860386 0.1867968
 0.1876041 0.1884312 0.1892602 0.1900771 0.1908628 0.1916007 0.1922826 0.192905 0.1934668 0.1939742
 0.1944375 0.1948641 0.195263 0.1956452 0.1960145 0.196367 0.1967023 0.1970235 0.1973276 0.1976067
 0.1978588 0.1980908 0.1983136 0.1985374 0.1987657 0.1989932 0.1992148 0.1994342 0.1996579 0.1998892
 0.2001281 0.2003731 0.2006201 0.2008644 0.2011039 0.2013367 0.2015614 0.2017818 0.2020048 0.202233
 0.2024638 0.2026948 0.202925 0.203153 0.2033791 0.2036059 0.2038362 0.2040725 0.2043159 0.2045634
 0.2048116 0.2050633 0.2053193 0.2055711 0.20581 0.206042 0.2062777 0.2065196 0.2067675 0.2070234
 0.2072798 0.2075175 0.207728 0.207929 0.2081537 0.2084244 0.2087319 0.2090419 0.2093274 0.2095942
 0.2098658 0.2101507 0.2104347 0.2106986 0.2109418 0.2111939 0.2114923 0.211837 0.2121889 0.2125205
 0.2128419 0.2131699 0.213505 0.2138448 0.2141835 0.2144923 0.2147391 0.2149384 0.2151595 0.2154741
 0.2158913 0.2163451 0.2167542 0.2170962 0.2174143 0.2177632 0.2181674 0.2185988 0.2189658 0.2191779
 0.2192763 0.2194515 0.2198683 0.2205021 0.2211884 0.2217928 0.2222901 0.2227202 0.2231174 0.2234782
 0.2237668 0.2239553 0.2240819 0.2242704 0.2246498 0.2252242 0.2258569 0.2264126 0.2268645 0.2272463
 0.2275805 0.2278812 0.2281231 0.2281865 0.2279828 0.2276936 0.2277309 0.2283383 0.2293155 0.2302339
 0.230863 0.2312851 0.2316542 0.2320056 0.2323064 0.2324833 0.2323165 0.2315663 0.2304338 0.2296955
 0.2300617 0.2314603 0.2331596 0.2345037 0.2353286 0.2357995 0.236124 0.2364131 0.2365954 0.2364243
 0.2357558 0.2349095 0.2345789 0.2351891 0.2364197 0.2375487 0.2381884 0.2384859 0.2387311 0.2390326
 0.23925 0.2389598 0.2376867 0.2356011 0.2338877 0.2339204 0.2359157 0.2386719 0.2407653 0.2417794
 0.2421969 0.2423515 0.2419387 0.2405593 0.2383016 0.2357083 0.2336236 0.2330909 0.2346645 0.2375305
 0.2399562 0.2410008 0.2413131 0.2420202 0.2433664 0.2447078 0.2453734 0.2451888 0.2443569 0.2430876
 0.2414946 0.2399535 0.2393267 0.2403539 0.2427555 0.2453293 0.2470725 0.2479434 0.2483335 0.2479044
 0.2453535 0.2399741 0.2336239 0.2302192 0.2322686 0.2382405 0.2442172 0.2477525 0.2491928 0.2498299
 0.2501829 0.2498603 0.2477578 0.2426395 0.235061 0.2286197 0.2275424 0.2325064 0.2398656 0.2450631
 0.2457882 0.2422465 0.2362769 0.2307667 0.2285029 0.2304981 0.2355421 0.2414029 0.2461663 0.2487497
 0.248905 0.2471271 0.2445815 0.242802 0.2426032 0.2428692 0.2413762 0.2376065 0.233632 0.2310633
 0.2285253 0.2241686 0.2197054 0.2192617 0.2240316 0.2303235 0.2337236 0.2335659 0.2321496 0.2305394
 0.2267395 0.218578 0.2078146 0.2001719 0.2003177 0.2070523 0.2143967 0.2174182 0.2161265 0.2137448
 0.2123686 0.2108686 0.2066001 0.1989175 0.1908436 0.1865263 0.1868527 0.1886491 0.1884168 0.1851684
 0.1791995 0.1708341 0.162277 0.158344 0.1623409 0.1719088 0.1809043 0.1845218 0.18106 0.1706469
 0.1556099 0.1417039 0.1353783 0.1380847 0.1445993 0.1479004 0.1447774 0.1363467 0.1249597 0.1125391
 0.1014244 0.09464587 0.0940575 0.09846146 0.103939 0.105943 0.1017362 0.0923184 0.08238322 0.07695672
 0.07700127 0.07888991 0.07855344 0.07518293 0.07065982 0.06692462 0.06476469 0.06395908 0.06360213 0.06284149
 0.06155948 0.05966984 0.05618328 0.05044511 0.04412498 0.04024048 0.03997788 0.04194206 0.04459587 0.04765651
 0.05064004 0.05190531 0.05047651 0.04790059 0.0469923 0.04886689 0.05196924 0.05401257 0.05428279 0.05383116
 0.05380211 0.05413794 0.05415548 0.05397264 0.05461182 0.05654517 0.05882624 0.06011039 0.06005863 0.0592743
 0.05828821 0.05715554 0.05578754 0.05417249 0.05233923 0.05037854 0.04842988 0.04652739 0.04457898 0.04253728
 0.04041266 0.03807108 0.03525259 0.03199301 0.02891415 0.02679444 0.02579395 0.02539238 0.02514977 0.0250442
 0.02483319 0.02374859 0.02148212 0.01911693 0.01837961 0.01998765 0.02311052 0.02633302 0.02871844 0.02991476
 0.02978188 0.02857814 0.02756551 0.02867988 0.0329477 0.03948415 0.0464809 0.05278257 0.05800502 0.06167328
 0.06320511 0.06283034 0.06198895 0.06258145 0.065851 0.07174452 0.07877865 0.08426666 0.08559972 0.08293068
 0.08069324 0.0843908 0.09462354 0.105885 0.1127024 0.1153159 0.1174983 0.1206511 0.1230428 0.124143
 0.1264066 0.1318659 0.1390233 0.1442174 0.1447633 0.140009 0.1310252 0.1208599 0.1137986 0.1121285
 0.1138889 0.1152965 0.1145997 0.1119169 0.1068929 0.09964688 0.09337534 0.09246893 0.09735976 0.1037039
 0.1073452 0.1081467 0.1082864 0.1084954 0.1072351 0.1031099 0.09714396 0.09215008 0.08988827 0.08945319
 0.08873621 0.0866694 0.08336058 0.07886634 0.07309994 0.06684397 0.06180691 0.05922705 0.05873701 0.05885183
 0.05843049 0.05748468 0.05673426 0.05676543 0.05767731 0.0592073 0.0611038 0.06361677 0.06749338 0.07305732
 0.0794563 0.08541626 0.09067214 0.09604061 0.1020498 0.1080434 0.1127999 0.1157589 0.1175783 0.119655
 0.1230424 0.1275847 0.1320001 0.1349641 0.1363544 0.1374612 0.1397626 0.1434393 0.1472991 0.1501104
 0.1516278 0.152331 0.1526943 0.1528653 0.1526555 0.1517782 0.1504912 0.1499748 0.1515409 0.1553173
 0.1600402 0.1642073 0.1671663 0.1690949 0.1703062 0.1708331 0.1706086 0.1698241 0.1689567 0.1684433
 0.1684252 0.1688116 0.1694634 0.1702561 0.1710701 0.1718173 0.1724689 0.1730442 0.1735987 0.1742171
 0.174963 0.1758193 0.1767133 0.1776188 0.1785915 0.1796699 0.1807756 0.18176 0.1825176 0.18299
 0.1830919 0.1827335 0.1819277 0.1807938 0.179426 0.1778418 0.1761326 0.1746307 0.1738187 0.1739921
 0.1750016 0.1763438 0.1774956 0.1781723 0.1783675 0.1782727 0.1781739 0.1783178 0.178783 0.1794629
 0.1801781 0.1808061 0.1813219 0.1817533 0.1821314 0.1824823 0.182833 0.1831891 0.1835106 0.1837524
 0.1839495 0.1842307 0.1847063 0.1853409 0.1859649 0.1864295 0.186744 0.18705 0.1874637 0.1879517
 0.1883581 0.1885461 0.1885058 0.1883222 0.1880484 0.1876243 0.1869238 0.1858637 0.1844562 0.1827744
 0.1808803 0.1787795 0.1764258 0.1737656 0.1707731 0.1674535 0.1638387 0.1600047 0.1560827 0.1522223
 0.1485274 0.1450243 0.1416831 0.1384626 0.1353408 0.1323148 0.1293811 0.1265179 0.1236803 0.120795
 0.1177568 0.1144491 0.1107876 0.1067464 0.1023417 0.0976119 0.09264894 0.08767024 0.08305287 0.07924613
 0.07657769 0.07509162 0.07455853 0.07464411 0.07508435 0.07575138 0.07662486 0.07773814 0.07913098 0.08081304
 0.08275142 0.08488605 0.08715144 0.08948313 0.09181235 0.09406424 0.09616377 0.0980492 0.09969833 0.1011559
 0.1025231 0.1038973 0.1053193 0.1067845 0.1082848 0.1098101 0.1113174 0.1127311 0.1139855 0.1150563
 0.1159477 0.1166644 0.1171993 0.1175393 0.1176724 0.1175966 0.1173384 0.116976 0.1166405 0.1164846
 0.1166466 0.1172233 0.1182342 0.1195859 0.1210929 0.1225655 0.1238951 0.1250705 0.1261412 0.1271717
 0.1282156 0.1293229 0.130575 0.1321052 0.1340656 0.136557 0.1395749 0.1430061 0.146665 0.1503418
 0.1538453 0.1570421 0.1598805 0.1623745 0.1645532 0.1664247 0.1679842 0.1692404 0.1702184 0.1709491
 0.1714811 0.1719147 0.1723994 0.1730633 0.1739258 0.1748877 0.1758113 0.1766065 0.1772529 0.1777734
 0.1782077 0.1785971 0.1789727 0.179342 0.1796787 0.179929 0.1800428 0.1800046 0.1798307 0.1795421
 0.1791533 0.1786738 0.1780962 0.1773833 0.1764882 0.175391 0.1741057 0.1726541 0.1710498 0.1693187
 0.1675319 0.1658098 0.1642811 0.1630236 0.1620272 0.1611977 0.1603904 0.1594613 0.1583238 0.1569763
 0.1554796 0.1539027 0.1522855 0.1506343 0.148941 0.1472049 0.1454461 0.1437011 0.1420134 0.140424
 0.1389544 0.1375874 0.136276 0.1349812 0.1337042 0.1324857 0.1313844 0.1304546 0.129726 0.1291932
 0.1288165 0.1285293 0.1282629 0.1279814 0.1276882 0.1273865 0.1270455 0.1266187 0.1260875 0.1254779
 0.1248399 0.1242206 0.1236486 0.1231349 0.1226719 0.1222214 0.1217075 0.1210351 0.1201225 0.118926
 0.117454 0.1157619 0.1139218 0.1120036 0.1100926 0.1082973 0.1067117 0.1053798 0.1043019 0.1034522
 0.1027839 0.1022412 0.1017875 0.1014193 0.101151 0.100974 0.100821 0.1005916 0.100241 0.09983174
 0.0994806 0.09927309 0.09922878 0.09930401 0.09941007 0.0994598 0.09941208 0.09926989 0.09905504 0.09879592
 0.09851512 0.09821592 0.09789173 0.09754084 0.09716044 0.09674251 0.0962828 0.0957772 0.09521505 0.09459095
 0.09390808 0.09316258 0.09234972 0.09147835 0.09054822 0.08954242 0.08849286 0.08752774 0.08681017 0.08643955
 0.08640748 0.0866052 0.08688207 0.08713361 0.08730532 0.08730558 0.08703427 0.08659088 0.08636411 0.08676481
 0.08783737 0.08918671 0.09030217 0.09091306 0.09103172 0.0907647 0.0901913 0.08936784 0.08832113 0.08704231
 0.08554829 0.08390294 0.0821496 0.08031178 0.07847146 0.07674748 0.075213 0.0739 0.07282653 0.0720183
 0.07153648 0.07116078 0.06981475 0.0661048 0.06044572 0.05605246 0.05625395 0.06075338 0.06581479 0.06822136
 0.06786592 0.06647645 0.06529009 0.06454749 0.06423153 0.0644403 0.06522823 0.06645612 0.0678238 0.06902833
 0.06991614 0.07045519 0.07056639 0.06999847 0.06831101 0.0650309 0.06004923 0.05395059 0.04781507 0.04263727
 0.0389738 0.03699139 0.03655796 0.03723431 0.03840557 0.03960944 0.04074804 0.04196876 0.04341239 0.04512177
 0.04708234 0.04919554 0.05123118 0.05294791 0.05428395 0.0553428 0.05620191 0.05682384 0.05714274 0.0571534
 0.05691075 0.0564968 0.05599608 0.05546407 0.05489268 0.05422611 0.05346202 0.05273956 0.05225692 0.05207731
 0.05208241 0.05213074 0.05218253 0.05225757 0.05235694 0.05245674 0.05253938 0.05262752 0.05279201 0.05308738
 0.05347253 0.05383639 0.05410229 0.054283 0.05444707 0.05463104 0.05476608 0.05474479 0.05460889 0.05456508
 0.05470643 0.05482578 0.05466038 0.05425742 0.05395007 0.0539973 0.05435668 0.05479208 0.05510008 0.05522424
 0.0552567 0.05539267 0.0558003 0.05642715</values></Ydata></ScSm><ScRf><Ydata ylabel="Single channel"><values byteorder="INTEL" format="FLOAT32" numvalues="1820"> 0.06055763 0.06070346 0.0607937 0.06082861 0.06083109 0.06084393 0.06091215 0.06105356 0.06124324 0.0614269
 0.0615569 0.06162337 0.0616447 0.06163186 0.06158935 0.06155468 0.06159585 0.0617438 0.0619453 0.06209916
 0.06213869 0.06209058 0.06205987 0.06212916 0.06224868 0.06224887 0.06199872 0.06155493 0.06112576 0.06087926
 0.06083783 0.06099591 0.06142083 0.0620607 0.06252971 0.06238408 0.06168059 0.06099804 0.0607954 0.06097148
 0.06113841 0.06106834 0.06076279 0.06036485 0.06019861 0.06068035 0.06190895 0.06333145 0.06394272 0.06291623
 0.06019098 0.05666565 0.05387552 0.05317107 0.05476166 0.05743342 0.05946051 0.05998492 0.05943182 0.05864055
 0.05796618 0.05737673 0.05702205 0.05727006 0.05818988 0.05920216 0.0593686 0.05818518 0.05618488 0.05457592
 0.05414459 0.05474935 0.05595226 0.05749871 0.0586683 0.05789691 0.05431242 0.04969086 0.04766981 0.05029
 0.0558175 0.0604497 0.06170221 0.05978132 0.05646488 0.05363016 0.05256313 0.05360556 0.0560772 0.05885062
 0.06104551 0.06206597 0.06144296 0.05924037 0.0564532 0.05452017 0.05444026 0.05638982 0.05968382 0.06282189
 0.06416895 0.06317109 0.06072687 0.05822958 0.05664551 0.0565201 0.05811134 0.06110985 0.06463094 0.06774074
 0.0698396 0.07069802 0.0704922 0.06970209 0.06875133 0.06793499 0.06767493 0.0682589 0.06915687 0.06922732
 0.06796622 0.06618609 0.06518085 0.06539136 0.0660554 0.06612881 0.06533593 0.06399314 0.06197516 0.05871781
 0.05450685 0.05079966 0.04877055 0.04842964 0.04950139 0.05187424 0.05456007 0.05562407 0.0542908 0.05229955
 0.05216306 0.05448975 0.05767687 0.05989914 0.06080673 0.06139665 0.06271449 0.06477346 0.06642357 0.06621274
 0.06382333 0.0608808 0.05980876 0.0614535 0.0642727 0.06623755 0.06697591 0.06754687 0.06859735 0.06936654
 0.06847513 0.06555536 0.06214517 0.06074564 0.06264134 0.06661375 0.06981957 0.06988856 0.06652059 0.06157902
 0.05764403 0.05622015 0.05731284 0.06039971 0.06501326 0.07023935 0.07448282 0.07635111 0.0756631 0.07338334
 0.07052544 0.06721002 0.06317715 0.05934203 0.05799972 0.06065067 0.06607091 0.07133052 0.07441327 0.07522371
 0.07443272 0.07221569 0.06845437 0.06398168 0.060996 0.06135287 0.06434036 0.06708451 0.06756748 0.06646605
 0.06566869 0.06589549 0.06643219 0.06661607 0.06678881 0.06774223 0.06961033 0.07158102 0.07269026 0.07269478
 0.07211402 0.07161866 0.07142185 0.07112569 0.07029421 0.06934126 0.06947416 0.07136309 0.0742074 0.07655559
 0.0777548 0.07817667 0.07824415 0.07769507 0.07596526 0.07325502 0.07096423 0.07065225 0.07252505 0.07530668
 0.07756543 0.07874272 0.07900999 0.07874424 0.07827529 0.0777861 0.07736921 0.07724905 0.07771894 0.07871643
 0.07973896 0.08034541 0.08051133 0.08039886 0.08004415 0.07942832 0.07870409 0.07819538 0.07816481 0.07861786
 0.07934549 0.08011167 0.08073197 0.08103466 0.08092478 0.08051901 0.08007734 0.07976756 0.07960549 0.0796097
 0.07985183 0.08031295 0.08081727 0.08117606 0.08133654 0.08135693 0.08129486 0.08116549 0.08098331 0.0808112
 0.08075529 0.08088601 0.08115121 0.08141483 0.08161588 0.08182737 0.08210112 0.08232836 0.0823511 0.08217166
 0.0819607 0.08187269 0.08192266 0.082032 0.08211957 0.0821196 0.08196795 0.08165573 0.08131102 0.08115502
 0.08132739 0.08178668 0.08238652 0.08297858 0.08343612 0.083683 0.08374977 0.08373724 0.08369683 0.08359665
 0.08341505 0.08322346 0.0831617 0.08333443 0.08371846 0.08417148 0.08454278 0.08476496 0.08485496 0.08488835
 0.0849729 0.08516266 0.08537538 0.08546831 0.085416 0.08534744 0.085386 0.08550677 0.08558048 0.08553207
 0.0854294 0.08541251 0.08554823 0.08577329 0.0859799 0.08613156 0.0862803 0.0864788 0.08668607 0.08678015
 0.08668847 0.08648823 0.0863311 0.08628153 0.08629153 0.08632736 0.08643353 0.0866388 0.08686663 0.08699945
 0.08701175 0.08699296 0.08703339 0.08711723 0.08714589 0.0870522 0.08686994 0.0866975 0.08661589 0.0866411
 0.08672842 0.08680572 0.0868162 0.08675014 0.08664235 0.08653532 0.08644935 0.08639829 0.08642412 0.0865774
 0.08683715 0.08707092 0.08711867 0.08693612 0.08664364 0.08642104 0.0863514 0.08636622 0.08633105 0.0861733
 0.08592919 0.08568661 0.08550289 0.08537641 0.08527662 0.08518693 0.08512737 0.08514459 0.08526281 0.08542436
 0.08549914 0.08539134 0.08513656 0.0848671 0.08468951 0.08461951 0.08461245 0.08461627 0.08460886 0.08461641
 0.08467825 0.08477453 0.08482271 0.08477183 0.08466753 0.08460534 0.08465269 0.08481857 0.08504616 0.08522378
 0.08525878 0.08516684 0.08505692 0.08501971 0.08506107 0.08514156 0.08523552 0.085335 0.08543103 0.0855214
 0.08562815 0.08578648 0.08601078 0.08627383 0.08651847 0.08669493 0.08680113 0.08689388 0.0870506 0.08730666
 0.08762597 0.08793274 0.08817358 0.08835424 0.08852114 0.08870858 0.08891152 0.08911655 0.08934131 0.08961721
 0.08994004 0.09026735 0.09056555 0.09083714 0.09110146 0.09137107 0.09165249 0.09195933 0.09231599 0.09273528
 0.09317957 0.09355925 0.09380111 0.09392323 0.0940287 0.09422725 0.09456052 0.09497128 0.0953311 0.09553786
 0.09561925 0.09571245 0.09591425 0.09618449 0.09643131 0.09665474 0.09694897 0.09736868 0.09784117 0.09822987
 0.09846506 0.09859861 0.09873547 0.09892204 0.0991114 0.09923895 0.09931204 0.09939848 0.09953822 0.09971268
 0.09991176 0.1001789 0.1005489 0.1009729 0.1013508 0.1016253 0.1018126 0.1019571 0.1020866 0.1021982
 0.1022675 0.1022835 0.1022849 0.102333 0.1024351 0.1025315 0.1025766 0.1026008 0.1026699 0.1028145
 0.1030258 0.103291 0.1035916 0.1038863 0.1041437 0.1043957 0.1047082 0.1050764 0.105394 0.105566
 0.1056173 0.1056443 0.1056915 0.105739 0.1057937 0.1059162 0.1061462 0.1064547 0.1067878 0.1071235
 0.1074684 0.1078212 0.1081501 0.1083978 0.108515 0.1085045 0.1084363 0.10841 0.1084985 0.1087143
 0.1090125 0.1093241 0.1095939 0.109789 0.109882 0.1098605 0.1097737 0.109736 0.1098348 0.1100322
 0.1101869 0.1101751 0.1099674 0.1095976 0.1090979 0.1084918 0.1078257 0.1071773 0.1066253 0.10622
 0.1059879 0.1059576 0.1061667 0.1066232 0.1072612 0.1079579 0.1086027 0.1091247 0.1094513 0.1094895
 0.1091908 0.108614 0.1078916 0.107148 0.1064584 0.1058446 0.1052776 0.1047169 0.1041952 0.1038598
 0.1039029 0.1044456 0.1054779 0.1068692 0.1084082 0.1098657 0.1110833 0.1120374 0.1128135 0.1135127
 0.1141841 0.1148415 0.1155019 0.1161727 0.1168192 0.1173888 0.1178704 0.118301 0.1187139 0.1191055
 0.1194499 0.1197263 0.1199391 0.120126 0.1203251 0.1205186 0.1206359 0.1206333 0.1205463 0.120439
 0.1203263 0.1201671 0.1199133 0.1195516 0.1191243 0.1187429 0.1185772 0.1187919 0.1194566 0.1205003
 0.1217613 0.1230861 0.1243729 0.1255348 0.1264762 0.1271442 0.1275794 0.1278843 0.1281504 0.1284269
 0.1287305 0.1290545 0.129377 0.1296793 0.1299599 0.1302357 0.1305327 0.1308652 0.1312112 0.1315231
 0.1317762 0.1320025 0.1322673 0.1326081 0.1329976 0.1333698 0.1336904 0.1339895 0.1343066 0.1346205
 0.1348723 0.1350496 0.1352097 0.1354212 0.1357118 0.1360666 0.1364396 0.1367682 0.1370119 0.1371888
 0.1373558 0.1375531 0.1377805 0.1380228 0.1382728 0.1385276 0.1387814 0.1390368 0.1393129 0.1396201
 0.1399286 0.1401818 0.1403523 0.1404753 0.1406159 0.1408077 0.1410316 0.1412474 0.1414419 0.1416454
 0.1418989 0.1422062 0.1425214 0.1427878 0.1429849 0.1431349 0.1432744 0.1434288 0.143608 0.143809
 0.1440174 0.1442164 0.1444034 0.1445939 0.1448058 0.1450396 0.145278 0.1455022 0.1457074 0.1459022
 0.146098 0.1462985 0.1465038 0.1467241 0.1469799 0.1472764 0.1475804 0.1478386 0.1480237 0.1481548
 0.1482737 0.1484123 0.1485799 0.148771 0.1489743 0.1491808 0.149386 0.1495876 0.1497831 0.1499721
 0.1501592 0.150353 0.1505584 0.1507731 0.1509922 0.1512155 0.151445 0.1516755 0.1518953 0.1520994
 0.1522957 0.1524944 0.1526967 0.152895 0.1530815 0.1532549 0.1534235 0.1536004 0.1537931 0.1539988
 0.1542094 0.1544181 0.1546202 0.1548139 0.1550005 0.1551846 0.155372 0.1555667 0.1557676 0.1559689
 0.1561648 0.156355 0.1565434 0.1567345 0.1569299 0.157127 0.1573241 0.1575251 0.1577345 0.157949
 0.1581599 0.1583622 0.1585579 0.1587516 0.1589463 0.1591419 0.1593366 0.1595315 0.1597317 0.1599394
 0.1601492 0.1603533 0.1605474 0.1607337 0.1609197 0.1611153 0.161326 0.1615499 0.161779 0.1620031
 0.1622154 0.1624208 0.1626328 0.1628582 0.1630895 0.1633156 0.1635324 0.1637412 0.1639409 0.1641285
 0.1643031 0.164471 0.1646418 0.1648194 0.1650001 0.1651809 0.1653633 0.1655475 0.1657344 0.1659295
 0.1661359 0.1663453 0.1665465 0.1667382 0.166927 0.1671187 0.167316 0.1675191 0.1677268 0.1679376
 0.1681495 0.1683596 0.1685682 0.1687796 0.1689938 0.1692025 0.1693998 0.1695906 0.1697858 0.1699947
 0.1702171 0.1704395 0.1706464 0.170842 0.1710446 0.1712615 0.1714827 0.1716974 0.1719029 0.1721027
 0.1723034 0.1725102 0.1727222 0.1729379 0.1731573 0.1733739 0.1735789 0.1737761 0.1739778 0.1741889
 0.1744082 0.1746354 0.1748631 0.1750795 0.1752849 0.1754896 0.1756957 0.1758997 0.1761043 0.1763122
 0.1765222 0.1767358 0.1769502 0.1771421 0.1772648 0.1772109 0.1767064 0.1751995 0.1718476 0.1656863
 0.156014 0.1428363 0.1270204 0.1099882 0.09319367 0.07774066 0.06426863 0.05304 0.04409398 0.03734891
 0.03266068 0.0299103 0.02909476 0.03042669 0.034452 0.04173064 0.0516066 0.06111566 0.06614013 0.06466252
 0.05869349 0.05243552 0.04879028 0.04796145 0.04871124 0.049984 0.051443 0.05327616 0.05581252 0.05914914
 0.06313154 0.06775434 0.07335813 0.08019545 0.08790898 0.09567866 0.102926 0.1097691 0.1167478 0.1241712
 0.1317903 0.1390435 0.145505 0.1510917 0.1559745 0.1603896 0.1645103 0.1684203 0.1721525 0.1756943
 0.178921 0.1815644 0.1833356 0.1841402 0.1841895 0.183888 0.1835984 0.1834955 0.1835983 0.1838755
 0.184299 0.1848454 0.1854948 0.1862292 0.1870237 0.187848 0.188676 0.189485 0.1902539 0.1909712
 0.1916375 0.1922535 0.1928161 0.1933255 0.1937879 0.1942123 0.1946105 0.1949926 0.1953607 0.1957124
 0.1960482 0.196367 0.1966606 0.1969223 0.1971554 0.1973694 0.1975762 0.1977886 0.1980117 0.1982379
 0.1984575 0.1986707 0.1988838 0.1990986 0.199312 0.1995188 0.1997159 0.1999053 0.2000929 0.200281
 0.2004667 0.200649 0.2008324 0.2010231 0.2012228 0.2014279 0.2016317 0.2018295 0.2020217 0.2022108
 0.2023985 0.2025875 0.2027797 0.2029725 0.2031639 0.2033608 0.2035719 0.2037947 0.2040216 0.2042516
 0.2044854 0.2047142 0.2049272 0.2051223 0.2053034 0.2054716 0.2056283 0.2057831 0.2059555 0.2061628
 0.2064008 0.2066418 0.2068605 0.2070564 0.2072442 0.2074335 0.2076226 0.2078028 0.2079711 0.2081468
 0.2083619 0.2086217 0.2088933 0.2091451 0.2093755 0.2095971 0.2098197 0.2100524 0.2102916 0.2105077
 0.2106747 0.2108147 0.2109941 0.2112661 0.2116179 0.2119749 0.2122671 0.212489 0.2126872 0.2129064
 0.2131646 0.2134402 0.2136526 0.2137153 0.2136665 0.2136937 0.213962 0.2144493 0.2149932 0.2154589
 0.2158202 0.2161177 0.2163874 0.216623 0.2167818 0.2168329 0.2168215 0.2168835 0.2171525 0.2176239
 0.2181465 0.218574 0.2188797 0.2191102 0.2193053 0.2194851 0.2196139 0.2195618 0.2192433 0.2188457
 0.218775 0.2192657 0.2201205 0.2209221 0.2214443 0.2217669 0.2220419 0.2223037 0.2225161 0.2226052
 0.2223583 0.2215461 0.2203699 0.2195876 0.2198866 0.221188 0.2227749 0.2240091 0.2247351 0.2251178
 0.2253615 0.225574 0.2256882 0.2254712 0.2247847 0.2239306 0.2235722 0.2241193 0.2252646 0.226314
 0.2268987 0.227165 0.227391 0.2276776 0.2278845 0.2275971 0.2263553 0.2243273 0.2226551 0.2226564
 0.2245416 0.2271671 0.2291706 0.2301415 0.2305234 0.2306232 0.2301547 0.2287605 0.2265506 0.2240482
 0.22205 0.2215461 0.223061 0.2258065 0.2281209 0.2291121 0.2294115 0.2301036 0.2314238 0.2327473
 0.2334168 0.2332595 0.2324753 0.2312703 0.2297593 0.2283142 0.2277656 0.2288094 0.2311626 0.233669
 0.23537 0.2362321 0.2366379 0.2362546 0.2338151 0.2286484 0.2225721 0.2193685 0.221435 0.2272738
 0.2330995 0.2365588 0.2380028 0.2386932 0.2391249 0.2389023 0.2369519 0.2320859 0.2248565 0.2187589
 0.2178748 0.2228208 0.2300438 0.2351548 0.2359502 0.2326356 0.2269872 0.2218029 0.2197763 0.2218781
 0.2269375 0.2327961 0.2375981 0.2402994 0.2406648 0.2391637 0.2369195 0.2354345 0.2355046 0.2360258
 0.2348287 0.2314341 0.2278777 0.2257161 0.2235861 0.219688 0.2157454 0.2158558 0.221187 0.2280463
 0.2320451 0.2325439 0.2318265 0.2309029 0.2277303 0.2201282 0.2099143 0.2029472 0.2040108 0.2118603
 0.2203478 0.2244496 0.2242504 0.2231062 0.2231558 0.2231433 0.2201928 0.2135917 0.2066545 0.203912
 0.2062547 0.2101281 0.2117025 0.2098861 0.2048859 0.1969956 0.1888898 0.186381 0.1934695 0.2074148
 0.2209221 0.228156 0.2268024 0.2166798 0.2006056 0.1861928 0.1821238 0.1903259 0.2036183 0.2123458
 0.2120039 0.2039253 0.1911811 0.1765902 0.1641142 0.1590855 0.1649588 0.1798851 0.1968383 0.2070367
 0.2047205 0.1916814 0.1777991 0.1738954 0.1817929 0.1930449 0.1984417 0.1963977 0.1915006 0.1886218
 0.1901529 0.195684 0.2024081 0.2077276 0.2113101 0.2120535 0.20525 0.1882348 0.1678493 0.1559589
 0.1571248 0.1661774 0.177723 0.1910255 0.2039605 0.2096284 0.2041483 0.1940624 0.1908298 0.1986591
 0.2108879 0.2181609 0.2177014 0.2138515 0.2112993 0.2100535 0.2078082 0.2053913 0.2069197 0.2141652
 0.2234899 0.2299077 0.2322481 0.232716 0.2331198 0.2335002 0.2333964 0.2326563 0.231341 0.2298428
 0.2287833 0.2283073 0.227944 0.227332 0.2261798 0.2231215 0.2160132 0.2049457 0.1941889 0.1888263
 0.1893545 0.1919922 0.1942757 0.1964915 0.1964541 0.188057 0.1693565 0.1491746 0.1406847 0.1486903
 0.1660519 0.1818045 0.1895566 0.1880248 0.1777201 0.1610991 0.1451884 0.139444 0.1480646 0.1659435
 0.1840935 0.1973932 0.2052777 0.207488 0.2030163 0.1930895 0.1824678 0.1767679 0.1789914 0.1881412
 0.1996143 0.2064892 0.2028804 0.1897233 0.1773905 0.1781292 0.1932545 0.2110132 0.2197817 0.2198604
 0.218944 0.2201663 0.2204514 0.2187742 0.2195865 0.226644 0.2374359 0.2456489 0.2467099 0.2395895
 0.226246 0.2121369 0.204814 0.2078275 0.2166295 0.223483 0.2249414 0.2213798 0.2124175 0.1988969
 0.1878002 0.1880428 0.2001462 0.2150509 0.2244135 0.2282009 0.2309393 0.2339261 0.233687 0.2272888
 0.2172837 0.2101588 0.2099185 0.2145529 0.2193969 0.2220528 0.2224171 0.219862 0.2136229 0.2059762
 0.2022801 0.2062876 0.2162233 0.2264334 0.23244 0.233721 0.2323382 0.2302776 0.2281443 0.2253444
 0.2213881 0.2175885 0.2168309 0.2205019 0.2262965 0.230586 0.2325822 0.2346208 0.238483 0.2429456
 0.2452836 0.2442482 0.2412393 0.2390686 0.2397019 0.2427031 0.2455553 0.2458075 0.2434153 0.2410119
 0.2414883 0.2452366 0.2500944 0.2538102 0.2558805 0.2570759 0.2581118 0.2590208 0.2591382 0.2576088
 0.2545981 0.2519915 0.2520554 0.2551864 0.259532 0.2629034 0.2645417 0.2649846 0.2648582 0.2642378
 0.2629958 0.2613728 0.2599993 0.2593972 0.2596014 0.2602861 0.2611076 0.2618561 0.2624331 0.26283
 0.2630986 0.2632809 0.2633925 0.2634696 0.26355 0.2635975 0.263541 0.263423 0.2634149 0.2636225
 0.263942 0.2641692 0.2641818 0.2639428 0.2633927 0.262467 0.2612137 0.2597776 0.2582346 0.2565495
 0.2547991 0.2533978 0.2529631 0.2538559 0.2558455 0.2582503 0.2603962 0.2619505 0.2629155 0.2634387
 0.263675 0.2637483 0.2637411 0.2636822 0.2635583 0.2633502 0.26306 0.2627067 0.2623154 0.2619177
 0.2615528 0.2612489 0.2609987 0.2607546 0.2604551 0.2600622 0.2595839 0.2590628 0.2585348 0.2579882
 0.2573654 0.2566127 0.2557273 0.2547638 0.2538037 0.2529172 0.2521268 0.251395 0.2506545 0.2498537
 0.2489611 0.2479441 0.2467982 0.2456092 0.2445332 0.2436751 0.2430018 0.2423916 0.2417349 0.2409771
 0.2401053 0.2391383 0.2381153 0.2370653 0.2359879 0.2348688 0.2336957 0.2324526 0.2311166 0.2296782
 0.2281528 0.2265688 0.224952 0.2233185 0.2216539 0.2198889 0.2179058 0.2155749 0.2127842 0.2094508
 0.2055416 0.2011085 0.1963028 0.1913413 0.1864388 0.1817596 0.1774191 0.1735142 0.1701362 0.1673592
 0.1652353 0.1638027 0.1630853 0.1630848 0.1637786 0.1651244 0.1670571 0.1694804 0.1722602 0.1752265
 0.1781934 0.1809998 0.1835603 0.1858886 0.1880593 0.1901259 0.1920727 0.1938519 0.195446 0.1968669
 0.1981092 0.1991466 0.1999805 0.2006603 0.2012438 0.2017537 0.202183 0.2025311 0.2028187 0.2030717
 0.2033022 0.2035145 0.203717 0.2039205 0.2041316 0.2043603 0.2046269 0.2049554 0.205364 0.2058566
 0.2064097 0.2069814 0.2075484 0.2081251 0.2087349 0.2093853 0.2100923 0.210905 0.2118792 0.2130313
 0.2143288 0.2157139 0.2171218 0.2184807 0.2197096 0.2207293 0.2214887 0.2219858 0.2222591 0.2223576
 0.2223129 0.222135 0.2218327 0.2214348 0.2209811 0.2204908 0.2199529 0.2193536 0.218699 0.2180096
 0.2173077 0.2166123 0.2159319 0.2152596 0.2145839 0.2139065 0.2132449 0.2126179 0.2120304 0.2114703
 0.2109174 0.2103579 0.2097905 0.2092216 0.2086563 0.2080828 0.2074615 0.2067425 0.2059046 0.2049688
 0.2039604 0.2028738 0.2016867 0.200396 0.1990201 0.1975745 0.1960617 0.1944832 0.192845 0.1911426
 0.189349 0.1874338 0.1854085 0.1833475 0.1813536 0.179502 0.1778128 0.17626 0.1747973 0.1733868
 0.172019 0.170707 0.1694632 0.16829 0.1671855 0.1661465 0.1651659 0.1642349 0.1633497 0.1625182
 0.1617614 0.1610996 0.1605349 0.1600547 0.1596479 0.159309 0.1590413 0.1588658 0.1588079 0.1588541
 0.1589364 0.1589757 0.1589302 0.1588061 0.1586452 0.1584981 0.1583911 0.158317 0.1582554 0.1581787
 0.1580319 0.1577284 0.157175 0.1563039 0.1550985 0.1535991 0.151883 0.150048 0.148217 0.1465237
 0.1450669 0.1438905 0.1430002 0.1423623 0.1418949 0.1415092 0.1411768 0.1409514 0.1409213 0.1411161
 0.1414312 0.1416803 0.1417686 0.1417896 0.1419283 0.142305 0.1429146 0.1436517 0.1443772 0.1450014
 0.1455084 0.1459013 0.1461708 0.1463247 0.1463894 0.1463722 0.1462644 0.1460694 0.1457984 0.1454618
 0.1450759 0.1446468 0.1441554 0.1435842 0.1429333 0.1422004 0.1413875 0.1405103 0.1395466 0.138432
 0.1371966 0.1360601 0.1353185 0.1351611 0.1355864 0.1364219 0.1374396 0.1385037 0.1395423 0.140365
 0.14072 0.1406861 0.1408559 0.1419009 0.1439334 0.1463905 0.148541 0.1500063 0.150781 0.1509427
 0.1505301 0.1495973 0.1481764 0.1462279 0.1437574 0.1408987 0.1378141 0.1346538 0.1316271 0.1289367
 0.1266613 0.124803 0.123358 0.1223693 0.1219722 0.1217991 0.1199435 0.1139514 0.1046044 0.09761035
 0.09878762 0.1075127 0.1171672 0.1221373 0.1222747 0.1205686 0.1190773 0.1181123 0.1175731 0.117607
 0.1183406 0.1196229 0.1210584 0.1222432 0.123015 0.1234142 0.1233888 0.1225569 0.1201693 0.1153823
 0.107935 0.09872119 0.08948801 0.0818346 0.07649389 0.0733355 0.07171994 0.07088415 0.07032356 0.07001685
 0.0702847 0.07140645 0.07338665 0.07605576 0.0792466 0.0827385 0.08612578 0.08897595 0.09115489 0.09284045
 0.09420128 0.09520619 0.09575166 0.09582756 0.09551704 0.09492867 0.09417176 0.09333569 0.09243172 0.09138604
 0.09018019 0.08900157 0.08814307 0.08772025 0.08758967 0.0875576 0.08754411 0.0875351 0.08751284 0.08746891
 0.08741487 0.08738959 0.08748391 0.08778656 0.08826305 0.0887484 0.08908558 0.08924362 0.0893015 0.08930798
 0.08914553 0.0886329 0.08783671 0.08710823 0.08663338 0.08611614 0.08516017 0.08386356 0.08278497 0.08235249
 0.0824936 0.08282294 0.08301073 0.08294816 0.08273868 0.08264139 0.08289704 0.08345011 0.08390601 0.0839041
</values></Ydata></ScRf><Data_Parameters_AB><parameter name="DPF">1</parameter><parameter name="NPT">3497</parameter><parameter name="FXV">3996</parameter><parameter name="LXV">500</parameter><parameter name="CSF">1</parameter><parameter name="MXY">0.898802638053894</parameter><parameter name="MNY">-0.0498544685542583</parameter><parameter name="DAT">20/05/2022</parameter><parameter name="TIM">10:50:13.408 (GMT+2)</parameter><parameter name="DXU">WN</parameter></Data_Parameters_AB><AB__Qtest><MainReport name="Quality Test Report"><Header><Line><Legend>Test result ok/not ok [1/0]: </Legend><Value>0</Value></Line><Line><Legend>Method file: </Legend><Value>C:\Users\Public\Documents\Bruker\OPUS_8.2.28\QT\IRBT_v3_default.QT</Value></Line></Header><Matrix><Line><Legend></Legend><Legend>min</Legend><Legend>max</Legend><Legend>measured</Legend></Line><Line><Value>Absorption (X-Range 1):</Value><Value>0.400000</Value><Value>2.000000</Value><Value>0.648490</Value></Line><Line><Value>Noise (X-Range 4):</Value><Value></Value><Value>0.000300</Value><Value>0.000106</Value></Line><Line><Value>Signal/Noise (X-Range 2):</Value><Value>200.000000</Value><Value></Value><Value>113.546276</Value></Line><Line><Value>Signal/Noise (X-Range 3):</Value><Value>40.000000</Value><Value></Value><Value>122.061540</Value></Line><Line><Value>Water vapour (X-Range 5):</Value><Value></Value><Value>0.000300</Value><Value>0.000088</Value></Line><Line><Value>Signal/Water (X-Range 2):</Value><Value>100.000000</Value><Value></Value><Value>136.324142</Value></Line><Line><Value>Signal/Water (X-Range 3):</Value><Value>20.000000</Value><Value></Value><Value>146.547604</Value></Line><Line><Value>Fringes (X-Range 6):</Value><Value></Value><Value>0.000100</Value><Value>0.000079</Value></Line></Matrix></MainReport></AB__Qtest><Data_Parameters_ScSm><parameter name="DPF">1</parameter><parameter name="NPT">1814</parameter><parameter name="FXV">3996.33169228125</parameter><parameter name="LXV">499.541461535156</parameter><parameter name="CSF">1</parameter><parameter name="MXY">0.250182867050171</parameter><parameter name="MNY">0.0183796100318432</parameter><parameter name="DAT">20/05/2022</parameter><parameter name="TIM">10:50:13.408 (GMT+2)</parameter><parameter name="DXU">WN</parameter></Data_Parameters_ScSm><Data_Parameters_ScRf><parameter name="DPF">1</parameter><parameter name="NPT">1820</parameter><parameter name="FXV">4004.04661832813</parameter><parameter name="LXV">495.683998511719</parameter><parameter name="CSF">1</parameter><parameter name="MXY">0.264984607696533</parameter><parameter name="MNY">0.0290947649627924</parameter><parameter name="DAT">20/05/2022</parameter><parameter name="TIM">10:49:47.558 (GMT+2)</parameter><parameter name="DXU">WN</parameter></Data_Parameters_ScRf><Optic_Parameters_Rf><parameter name="APR">0</parameter><parameter name="APT">Open</parameter><parameter name="BMS">KBr</parameter><parameter name="DTC">RT-DLaTGS_IR-Biotyper [Microplate reader]</parameter><parameter name="HPF">0</parameter><parameter name="LPF">10.0</parameter><parameter name="LPV">4000</parameter><parameter name="PGR">0</parameter><parameter name="RCH">Module port</parameter><parameter name="RDX">0</parameter><parameter name="SRC">MIR</parameter><parameter name="VEL">10.0</parameter><parameter name="SON">Off</parameter></Optic_Parameters_Rf><Acquisition_Parameters_Rf><parameter name="ADT">1</parameter><parameter name="AQM">DD</parameter><parameter name="CFE">0</parameter><parameter name="COR">0</parameter><parameter name="DEL">0</parameter><parameter name="DLY">0</parameter><parameter name="HFW">8000</parameter><parameter name="LFW">0</parameter><parameter name="NSR">32</parameter><parameter name="PLF">AB</parameter><parameter name="RES">6</parameter><parameter name="RGN">-1</parameter><parameter name="STR">0</parameter><parameter name="TCL">MakeCompatibleScalar (0, {WSV=1.000000, ARV=0});</parameter><parameter name="TDL">37</parameter><parameter name="RPO">0</parameter></Acquisition_Parameters_Rf><FT_-_Parameters_Rf><parameter name="APF">B3</parameter><parameter name="HFQ">500</parameter><parameter name="LFQ">4000</parameter><parameter name="NLI">0</parameter><parameter name="PHR">24</parameter><parameter name="PHZ">ML</parameter><parameter name="SPZ">NO</parameter><parameter name="ZFF">1</parameter></FT_-_Parameters_Rf><Optic_Parameters_><parameter name="APR">0</parameter><parameter name="APT">Open</parameter><parameter name="BMS">KBr</parameter><parameter name="CHN">Module port</parameter><parameter name="DTC">RT-DLaTGS_IR-Biotyper [Microplate reader]</parameter><parameter name="HPF">0</parameter><parameter name="LPF">10.0</parameter><parameter name="LPV">4000</parameter><parameter name="PGN">0</parameter><parameter name="RDX">0</parameter><parameter name="SRC">MIR</parameter><parameter name="VEL">10.0</parameter><parameter name="SON">Off</parameter></Optic_Parameters_><FT_-_Parameters_><parameter name="APF">B3</parameter><parameter name="HFQ">500</parameter><parameter name="LFQ">4000</parameter><parameter name="NLI">0</parameter><parameter name="PHR">24</parameter><parameter name="PHZ">ML</parameter><parameter name="SPZ">NO</parameter><parameter name="ZFF">1</parameter></FT_-_Parameters_><Acquisition_Parameters_><parameter name="ADT">1</parameter><parameter name="AQM">DD</parameter><parameter name="CFE">0</parameter><parameter name="COR">0</parameter><parameter name="DEL">0</parameter><parameter name="DLY">0</parameter><parameter name="HFW">8000</parameter><parameter name="LFW">0</parameter><parameter name="NSS">32</parameter><parameter name="PLF">AB</parameter><parameter name="RES">6</parameter><parameter name="SOT">0</parameter><parameter name="TCL">MakeCompatibleScalar (0, {WSV=1.000000, ARV=0});</parameter><parameter name="TDL">37</parameter><parameter name="SPO">0</parameter><parameter name="SGN">-1</parameter></Acquisition_Parameters_><Instrument_Parameters_Rf><parameter name="HFL">15800.168544</parameter><parameter name="LFL">0</parameter><parameter name="LWN">15800.168544</parameter><parameter name="ABP">32197</parameter><parameter name="SSP">1</parameter><parameter name="ARG">2</parameter><parameter name="ASG">2</parameter><parameter name="ASS">32</parameter><parameter name="GFW">16</parameter><parameter name="GBW">16</parameter><parameter name="BFW">0</parameter><parameter name="BBW">0</parameter><parameter name="PKA">7374</parameter><parameter name="PKL">4990</parameter><parameter name="PRA">7518</parameter><parameter name="PRL">5001</parameter><parameter name="P2A">1</parameter><parameter name="P2L">1</parameter><parameter name="P2R">1</parameter><parameter name="P2K">1</parameter><parameter name="DAQ">0</parameter><parameter name="AG2">1</parameter><parameter name="SSM">1</parameter><parameter name="RSN">24483</parameter><parameter name="CRR">0</parameter><parameter name="SRT">1653043787.558</parameter><parameter name="DUR">19.6369934082031</parameter><parameter name="TSC">28.9</parameter><parameter name="MVD">0.334532201290131</parameter><parameter name="AN1">0.225806679868874</parameter><parameter name="AN2">0</parameter><parameter name="VSN">2.485 Apr  4 2017</parameter><parameter name="SRN">0085</parameter><parameter name="CAM">0</parameter><parameter name="INS">IR-Biotyper</parameter><parameter name="FOC">69</parameter><parameter name="RDY">1</parameter><parameter name="ARS">32</parameter></Instrument_Parameters_Rf><Sample_Parameters_><parameter name="BLD"></parameter><parameter name="CNM">Admin</parameter><parameter name="CPY"></parameter><parameter name="DPM"></parameter><parameter name="EXP">IRBT_v3_32Scans.XPM</parameter><parameter name="LCT"></parameter><parameter name="SFM">Microplate, HTS-XT</parameter><parameter name="SNM">220520-0930(v.3)_RGV45F (D_1)_B2_224a6a58-d1e9-435e-bb65-47819eddefc4.0</parameter><parameter name="XPP">C:\Users\Public\Documents\Bruker\OPUS_8.2.28\XPM</parameter><parameter name="IST">OK</parameter><parameter name="CPG">1252</parameter><parameter name="UID">a05fb2a3-2a53-4012-a532-09e6477ec6d2</parameter></Sample_Parameters_><Instrument_Parameters_><parameter name="HFL">15800.168544</parameter><parameter name="LFL">0</parameter><parameter name="LWN">15800.168544</parameter><parameter name="ABP">32197</parameter><parameter name="SSP">1</parameter><parameter name="ASG">4</parameter><parameter name="ARG">2</parameter><parameter name="ASS">32</parameter><parameter name="GFW">16</parameter><parameter name="GBW">16</parameter><parameter name="BFW">0</parameter><parameter name="BBW">0</parameter><parameter name="PKA">5463</parameter><parameter name="PKL">4988</parameter><parameter name="PRA">5727</parameter><parameter name="PRL">5002</parameter><parameter name="P2A">1</parameter><parameter name="P2L">1</parameter><parameter name="P2R">1</parameter><parameter name="P2K">1</parameter><parameter name="DAQ">0</parameter><parameter name="AG2">1</parameter><parameter name="SSM">1</parameter><parameter name="RSN">12866</parameter><parameter name="CRR">0</parameter><parameter name="SRT">1653043813.409</parameter><parameter name="DUR">19.6379852294922</parameter><parameter name="TSC">28.9</parameter><parameter name="MVD">0.558679819107056</parameter><parameter name="AN1">0.22576846964974</parameter><parameter name="AN2">0</parameter><parameter name="VSN">2.485 Apr  4 2017</parameter><parameter name="SRN">0085</parameter><parameter name="CAM">0</parameter><parameter name="INS">IR-Biotyper</parameter><parameter name="FOC">69</parameter><parameter name="RDY">1</parameter></Instrument_Parameters_><History/></OPUSDataFile>
