<?xml version="1.0" encoding="UTF-8" ?>
<OPUSDataFile><AB><Ydata ylabel="Absorbance Units"><values byteorder="INTEL" format="FLOAT32" numvalues="3497"> -0.09522193 -0.09520832 -0.09519947 -0.09519612 -0.09518684 -0.09517106 -0.09514757 -0.09511688 -0.09508532 -0.09505329
 -0.0950266 -0.09500501 -0.09499078 -0.09498346 -0.09498295 -0.09498917 -0.09500167 -0.09502123 -0.09504907 -0.09508426
 -0.09512825 -0.09517428 -0.09522066 -0.09525682 -0.09527779 -0.09528056 -0.09526152 -0.09523173 -0.0951917 -0.09515595
 -0.09512642 -0.09510519 -0.09509247 -0.09507748 -0.09506001 -0.09503344 -0.09499998 -0.09496917 -0.09494334 -0.09493718
 -0.09494849 -0.09498062 -0.09502764 -0.09508137 -0.09513762 -0.09518804 -0.09523212 -0.09526712 -0.09529267 -0.0953086
 -0.09531215 -0.09530225 -0.0952771 -0.09523483 -0.09518149 -0.09511629 -0.09505578 -0.09500101 -0.09497102 -0.09496693
 -0.09499416 -0.09505126 -0.09512065 -0.09519931 -0.09525896 -0.0953008 -0.09531249 -0.09530063 -0.09527507 -0.09524037
 -0.09520991 -0.09518129 -0.09515765 -0.09513357 -0.09510458 -0.09507091 -0.09502963 -0.09498902 -0.09495117 -0.09492353
 -0.09490915 -0.0949076 -0.09491922 -0.09494314 -0.09497897 -0.09503171 -0.09510162 -0.09519156 -0.09530056 -0.09541691
 -0.09553748 -0.09563687 -0.09571344 -0.09574595 -0.0957391 -0.0956924 -0.0956137 -0.09551542 -0.09540376 -0.09528946
 -0.09517953 -0.09508222 -0.09500369 -0.09495094 -0.09492098 -0.09491613 -0.09492427 -0.09494288 -0.09496291 -0.09498226
 -0.09499823 -0.09501054 -0.09501503 -0.09501144 -0.09499495 -0.09496616 -0.09493158 -0.09489343 -0.09486894 -0.09485897
 -0.09487716 -0.09491973 -0.09498613 -0.09506809 -0.09515199 -0.09523093 -0.09529034 -0.09533068 -0.09534709 -0.09534326
 -0.09531914 -0.09528069 -0.09522704 -0.09517596 -0.09512902 -0.09511401 -0.09513566 -0.09521408 -0.09535436 -0.09553725
 -0.09576256 -0.0959283 -0.09602989 -0.09597033 -0.09576729 -0.09548773 -0.09514974 -0.09486041 -0.0946153 -0.09445633
 -0.09437373 -0.09437257 -0.09443653 -0.09455363 -0.09469566 -0.09483767 -0.09495546 -0.09502394 -0.09504985 -0.0950258
 -0.09498084 -0.09492219 -0.09486441 -0.09481255 -0.09476139 -0.09471068 -0.09465814 -0.09460349 -0.09455985 -0.09452821
 -0.09452689 -0.0945548 -0.09461668 -0.09470573 -0.09480067 -0.09489166 -0.09494144 -0.09494969 -0.09489415 -0.0947917
 -0.09465037 -0.09449477 -0.09434709 -0.09422562 -0.09414801 -0.09411803 -0.09414433 -0.09421172 -0.09432138 -0.09444167
 -0.09456832 -0.09467286 -0.09475133 -0.09479301 -0.09479696 -0.09476326 -0.09469231 -0.09459002 -0.09445769 -0.09430631
 -0.09413732 -0.09396087 -0.09377972 -0.09360416 -0.09344025 -0.09330293 -0.09319658 -0.0931358 -0.0931115 -0.09312531
 -0.09315435 -0.09318584 -0.09320486 -0.0931991 -0.09317723 -0.09313724 -0.09309878 -0.09306549 -0.09304673 -0.09304449
 -0.09305631 -0.09308223 -0.09311569 -0.09315616 -0.0931944 -0.09322976 -0.09325244 -0.09326374 -0.09326231 -0.09325245
 -0.0932444 -0.0932415 -0.09325591 -0.09328438 -0.09332997 -0.09338227 -0.0934323 -0.0934768 -0.09350603 -0.0935398
 -0.09358129 -0.09365679 -0.09377877 -0.09393802 -0.09414102 -0.09433082 -0.09450252 -0.09460784 -0.09464309 -0.09459727
 -0.09447096 -0.09427141 -0.09400403 -0.09370676 -0.09338941 -0.09311141 -0.09287786 -0.09273505 -0.09267519 -0.09271449
 -0.09281921 -0.09295794 -0.09309337 -0.09317453 -0.09320893 -0.0931822 -0.09312493 -0.09304803 -0.0929655 -0.09288545
 -0.09280206 -0.09271593 -0.09261754 -0.09250501 -0.09238243 -0.09224968 -0.09212478 -0.09200887 -0.09192341 -0.09186874
 -0.09186053 -0.09189337 -0.0919595 -0.09204199 -0.09209087 -0.09209839 -0.09201684 -0.09187566 -0.09168997 -0.09149338
 -0.09132562 -0.09118883 -0.09110108 -0.09103612 -0.09098852 -0.09093284 -0.09085773 -0.09076606 -0.0906551 -0.09054158
 -0.09042788 -0.09031657 -0.09020822 -0.09009132 -0.0899659 -0.08983175 -0.08969162 -0.08956725 -0.0894579 -0.08937347
 -0.08930797 -0.08924862 -0.08919523 -0.0891403 -0.08908883 -0.08904626 -0.08901016 -0.08898474 -0.08895249 -0.08890459
 -0.08882694 -0.0887087 -0.08855574 -0.08836835 -0.0881489 -0.08789884 -0.08761171 -0.0872857 -0.08692986 -0.08654425
 -0.08615224 -0.08575513 -0.08537596 -0.08501607 -0.08469674 -0.08441767 -0.08419169 -0.08401214 -0.08386903 -0.08375327
 -0.08364183 -0.08353424 -0.0834212 -0.08330274 -0.08318177 -0.08303898 -0.08286442 -0.08264103 -0.08235139 -0.08202141
 -0.0816527 -0.08127879 -0.08090788 -0.0805485 -0.08020286 -0.07987021 -0.07955052 -0.07924771 -0.0789622 -0.07870293
 -0.07846987 -0.07826941 -0.07809663 -0.07793897 -0.07778156 -0.0775766 -0.07731591 -0.07695021 -0.07651079 -0.07601394
 -0.0754996 -0.07501419 -0.07456589 -0.07417589 -0.07383157 -0.07353515 -0.07326364 -0.07301225 -0.07275818 -0.07249565
 -0.07221658 -0.07191912 -0.07160266 -0.07126728 -0.07090397 -0.07051241 -0.07008485 -0.06962387 -0.06914513 -0.06865314
 -0.06817681 -0.06771602 -0.06728616 -0.06688283 -0.06650564 -0.0661487 -0.06580544 -0.0654681 -0.06512747 -0.0647788
 -0.06441439 -0.06404041 -0.06365753 -0.06327213 -0.06288886 -0.06249748 -0.0620975 -0.06167456 -0.06122468 -0.06076226
 -0.06028738 -0.05983565 -0.05940812 -0.05902046 -0.05867001 -0.05834386 -0.05803779 -0.05772663 -0.05740865 -0.0570644
 -0.05669865 -0.0563098 -0.05590703 -0.05550266 -0.05510061 -0.05471224 -0.05432711 -0.05394436 -0.05354625 -0.05312151
 -0.05267316 -0.05219518 -0.05171685 -0.05124275 -0.05079526 -0.05037946 -0.04998944 -0.04962568 -0.04926457 -0.04890513
 -0.04853016 -0.04814022 -0.04773256 -0.0473078 -0.04686649 -0.04640981 -0.04593913 -0.04546058 -0.04498582 -0.04452155
 -0.04408386 -0.04366928 -0.04328195 -0.04291189 -0.04255288 -0.04220172 -0.04185503 -0.0415142 -0.04118043 -0.04084793
 -0.04051676 -0.04017577 -0.03982328 -0.03945472 -0.03906931 -0.03867364 -0.03826826 -0.03786609 -0.03746762 -0.03708331
 -0.03671172 -0.03635247 -0.03600288 -0.03565503 -0.0353075 -0.03495384 -0.03459377 -0.03422394 -0.0338456 -0.03345694
 -0.03306498 -0.03267205 -0.03228923 -0.03192303 -0.0315758 -0.03125183 -0.0309394 -0.03063751 -0.03033292 -0.03002363
 -0.02970359 -0.02937216 -0.02902731 -0.02866907 -0.02830029 -0.02792197 -0.02754419 -0.02716757 -0.02680117 -0.02644314
 -0.02609278 -0.0257483 -0.02540483 -0.02506398 -0.02472518 -0.02439233 -0.02406924 -0.02375766 -0.02346131 -0.02317549
 -0.02290038 -0.02262627 -0.02234981 -0.02206648 -0.02177339 -0.02147819 -0.02118144 -0.02089032 -0.02060588 -0.02032015
 -0.02003258 -0.0197295 -0.01941199 -0.01908254 -0.01874536 -0.01842144 -0.01811332 -0.01784131 -0.01760086 -0.01739497
 -0.01721206 -0.01703821 -0.01686245 -0.01666731 -0.01645339 -0.01621318 -0.01595967 -0.01569631 -0.01543551 -0.01518295
 -0.0149402 -0.01470961 -0.0144835 -0.01426147 -0.01403474 -0.01380249 -0.01356169 -0.01331238 -0.0130592 -0.01280253
 -0.01254776 -0.01229423 -0.01204135 -0.01178903 -0.01153589 -0.01128413 -0.01103805 -0.01079813 -0.01056807 -0.01034411
 -0.01012304 -0.009904726 -0.009685493 -0.009475295 -0.009277074 -0.009101144 -0.008953395 -0.008829624 -0.00873204 -0.008642558
 -0.008559707 -0.008464548 -0.008355374 -0.008222594 -0.008065917 -0.007885915 -0.007683069 -0.007461588 -0.007222131 -0.006968802
 -0.006704338 -0.006437482 -0.006174142 -0.00593053 -0.005710455 -0.005528694 -0.00537885 -0.005262916 -0.005165134 -0.005075979
 -0.004982779 -0.004875168 -0.004755475 -0.004620586 -0.004483037 -0.004345192 -0.004214447 -0.00409261 -0.003978188 -0.003870987
 -0.003774137 -0.003687971 -0.003623545 -0.003580336 -0.003559371 -0.003556774 -0.003554052 -0.003548297 -0.003519523 -0.003470649
 -0.00339718 -0.003305267 -0.003201216 -0.003091361 -0.002983526 -0.002883838 -0.002800632 -0.002730546 -0.002678688 -0.002622233
 -0.002556283 -0.002457401 -0.002315481 -0.002143323 -0.001937489 -0.001747443 -0.001576726 -0.001465344 -0.001414506 -0.001418521
 -0.001473768 -0.001542812 -0.001623743 -0.001686954 -0.001734936 -0.00176103 -0.001765839 -0.001748456 -0.001706115 -0.001631422
 -0.001531152 -0.00140396 -0.0012733 -0.001154099 -0.001065525 -0.001025984 -0.001022487 -0.001059605 -0.001100142 -0.001136491
 -0.001144776 -0.001118046 -0.001067774 -0.0009931739 -0.0009285551 -0.0008756602 -0.0008662571 -0.0008997245 -0.0009846726 -0.001114696
 -0.001264788 -0.001424553 -0.001547384 -0.001629746 -0.001636628 -0.001582635 -0.001469305 -0.00132462 -0.001177386 -0.001047504
 -0.0009616364 -0.0009148911 -0.0009148354 -0.0009403765 -0.0009863941 -0.001036664 -0.001086653 -0.001128417 -0.001161431 -0.001171313
 -0.001157441 -0.001096751 -0.0009882564 -0.0008217637 -0.0006002541 -0.0003477715 -7.210817E-05 0.0001744787 0.0003868117 0.0005172613
 0.0005742256 0.0005467314 0.0004596693 0.0003424522 0.0002216513 0.0001391141 9.815973E-05 0.0001216218 0.000178752 0.0002656243
 0.0003367205 0.0003753878 0.0003559503 0.0002655026 0.0001183463 -8.822061E-05 -0.0003129275 -0.0005526922 -0.0007745539 -0.0009770556
 -0.001155342 -0.001310121 -0.001448051 -0.001567791 -0.001665694 -0.001739607 -0.001778766 -0.00178642 -0.001761129 -0.001714914
 -0.001661806 -0.001620495 -0.001614035 -0.001659167 -0.001777785 -0.001968191 -0.002241109 -0.002567493 -0.002944325 -0.003328831
 -0.003711809 -0.00406036 -0.004367806 -0.00462115 -0.004817765 -0.004966863 -0.005069171 -0.005157928 -0.005235566 -0.005341975
 -0.005474543 -0.005643148 -0.005837748 -0.00602942 -0.006213891 -0.006362504 -0.006489069 -0.006600014 -0.00671414 -0.006857993
 -0.007029824 -0.007243172 -0.00746998 -0.007702621 -0.007908707 -0.008073377 -0.008187402 -0.008241159 -0.008261972 -0.008248883
 -0.00825556 -0.008286469 -0.008382996 -0.008546982 -0.008769795 -0.009047312 -0.009329962 -0.009615504 -0.009863938 -0.01008154
 -0.01026758 -0.01042972 -0.01058625 -0.01073697 -0.01089011 -0.01104173 -0.01118936 -0.01133371 -0.01147371 -0.01161308
 -0.01175398 -0.01189676 -0.01204252 -0.01218847 -0.01233343 -0.01247946 -0.0126257 -0.01278267 -0.01295102 -0.01314275
 -0.01335844 -0.01359768 -0.01385912 -0.01412689 -0.01439971 -0.01466143 -0.01491401 -0.01515548 -0.01538836 -0.01561877
 -0.01584441 -0.01606483 -0.01627629 -0.01647232 -0.01665765 -0.01683094 -0.01700629 -0.01719057 -0.01739322 -0.01762155
 -0.01786835 -0.01813508 -0.01840379 -0.01867188 -0.01892777 -0.01916956 -0.01940092 -0.01962205 -0.01984459 -0.02006873
 -0.02030074 -0.02053919 -0.02077972 -0.02102019 -0.02125075 -0.02147081 -0.02167301 -0.02186084 -0.02203515 -0.02220304
 -0.02237292 -0.0225485 -0.02273872 -0.02293286 -0.02313154 -0.02331086 -0.02346181 -0.02357129 -0.02362933 -0.02366043
 -0.02366287 -0.02369103 -0.02374971 -0.02387899 -0.02408106 -0.02434658 -0.02467164 -0.02500631 -0.02534615 -0.02563886
 -0.02588684 -0.02606692 -0.02619211 -0.0262774 -0.02634194 -0.02642386 -0.02653177 -0.02669577 -0.02689826 -0.02713997
 -0.02738917 -0.02762667 -0.02784268 -0.02802442 -0.02819376 -0.02835414 -0.02852106 -0.02870114 -0.02887224 -0.02903416
 -0.0291485 -0.02921323 -0.02921864 -0.02916784 -0.02909612 -0.02900983 -0.02896458 -0.02896153 -0.02903813 -0.02918272
 -0.02939045 -0.02964112 -0.02989881 -0.03015382 -0.03037674 -0.0305801 -0.03076276 -0.03094171 -0.03112994 -0.03132175
 -0.03152104 -0.0317065 -0.03187172 -0.03201292 -0.03212622 -0.03223151 -0.03233058 -0.03243528 -0.03254635 -0.0326492
 -0.03274287 -0.03280966 -0.03285189 -0.03287384 -0.03287959 -0.03288684 -0.03289544 -0.03291413 -0.0329403 -0.03297196
 -0.03301138 -0.03305797 -0.0331213 -0.03320717 -0.03332707 -0.03348982 -0.0336976 -0.0339575 -0.0342495 -0.03457483
 -0.03489029 -0.03519028 -0.0354356 -0.03561992 -0.03574676 -0.03581594 -0.03587762 -0.03593465 -0.0360391 -0.03618769
 -0.03638954 -0.03663428 -0.03688975 -0.03714833 -0.03737391 -0.03756933 -0.03772136 -0.03784031 -0.0379318 -0.03800749
 -0.03807722 -0.03815219 -0.03824123 -0.03834959 -0.03848422 -0.038633 -0.03879689 -0.03895003 -0.03908708 -0.0391998
 -0.03928453 -0.03937199 -0.0394637 -0.03959692 -0.0397706 -0.03997861 -0.04021493 -0.04043671 -0.04064498 -0.04081692
 -0.04096563 -0.04111248 -0.0412654 -0.04145243 -0.04166145 -0.04189201 -0.04212395 -0.04233909 -0.04253063 -0.04268786
 -0.04281754 -0.04292009 -0.04300082 -0.04306203 -0.04310177 -0.04311992 -0.04311525 -0.04308688 -0.04304394 -0.04298682
 -0.0429391 -0.04290246 -0.04290641 -0.04295078 -0.04305172 -0.04320336 -0.04339524 -0.04361649 -0.04383678 -0.04404584
 -0.0442123 -0.04433285 -0.04438892 -0.04438892 -0.04433039 -0.04423217 -0.04410265 -0.04396 -0.04381371 -0.04367074
 -0.04353537 -0.04340575 -0.04328242 -0.04316178 -0.04304417 -0.04291888 -0.04278545 -0.04261802 -0.04241528 -0.0421514
 -0.04182942 -0.04145296 -0.0410313 -0.04060111 -0.04016876 -0.03977124 -0.03940283 -0.03907223 -0.03876725 -0.03847581
 -0.03819217 -0.03790654 -0.03762052 -0.03733332 -0.03704377 -0.03675148 -0.03645429 -0.03614896 -0.03584846 -0.03555168
 -0.03529013 -0.03506668 -0.03490778 -0.03481545 -0.03478504 -0.0348145 -0.03487041 -0.03495053 -0.03502283 -0.03508959
 -0.03514289 -0.03518509 -0.03522115 -0.03524461 -0.03524854 -0.035222 -0.03514605 -0.0350235 -0.03484533 -0.03463295
 -0.03439504 -0.03415097 -0.03391261 -0.03368013 -0.03345658 -0.03323438 -0.03301147 -0.03279114 -0.03257274 -0.03236902
 -0.03218067 -0.03202194 -0.03189401 -0.03181633 -0.03179128 -0.03184518 -0.03197838 -0.03220928 -0.03253026 -0.03293466
 -0.03340748 -0.03392083 -0.03446122 -0.03500014 -0.03553448 -0.03605028 -0.03655513 -0.03704806 -0.03754188 -0.03804082
 -0.03855615 -0.03909267 -0.03965178 -0.04023678 -0.04083018 -0.04143188 -0.04201029 -0.04256345 -0.04306867 -0.04352615
 -0.04393803 -0.04430643 -0.04464713 -0.04496047 -0.04525584 -0.04553258 -0.04579249 -0.04603804 -0.04627391 -0.04650339
 -0.04673377 -0.04696257 -0.04719164 -0.0474132 -0.04762305 -0.04781655 -0.04799031 -0.04814491 -0.04828019 -0.04839551
 -0.04849148 -0.04856203 -0.04860697 -0.04861706 -0.04859168 -0.04852511 -0.04841805 -0.04828047 -0.04811687 -0.04796185
 -0.04782166 -0.04774133 -0.04771999 -0.0477817 -0.04791407 -0.04810777 -0.04834747 -0.0486104 -0.04888714 -0.04916312
 -0.04943088 -0.04968402 -0.04991207 -0.05010877 -0.0502707 -0.05039244 -0.05049087 -0.05056557 -0.05064834 -0.05074199
 -0.05087619 -0.05105307 -0.05128886 -0.05158369 -0.05193962 -0.05235472 -0.05281851 -0.05332606 -0.05385419 -0.05439481
 -0.05491526 -0.05541024 -0.05585201 -0.05624817 -0.05659315 -0.05690712 -0.05720583 -0.05750312 -0.05781573 -0.05813477
 -0.05846293 -0.05878035 -0.05908084 -0.05935744 -0.05960633 -0.0598366 -0.06004873 -0.06025146 -0.0604455 -0.06063168
 -0.06081002 -0.06098029 -0.06114307 -0.06130266 -0.06145943 -0.06161822 -0.06177681 -0.06193273 -0.06208159 -0.06221356
 -0.06232769 -0.06241604 -0.06248739 -0.06254424 -0.06260198 -0.06267125 -0.0627593 -0.06287526 -0.0630058 -0.06315191
 -0.06328654 -0.06340462 -0.06348937 -0.06353645 -0.06355764 -0.06355301 -0.06355137 -0.06355363 -0.06357562 -0.06361536
 -0.06366498 -0.06372341 -0.06378046 -0.06384007 -0.06390788 -0.06398706 -0.06408865 -0.06420688 -0.0643409 -0.06447909
 -0.06461078 -0.06472843 -0.06482333 -0.06489622 -0.06494403 -0.0649745 -0.06498764 -0.06499746 -0.06500584 -0.06502754
 -0.065065 -0.0651223 -0.06520022 -0.06528717 -0.06538235 -0.06546951 -0.06554873 -0.06561281 -0.06566332 -0.06570316
 -0.06573347 -0.06575886 -0.06577955 -0.06579772 -0.06581429 -0.065831 -0.06584939 -0.06587207 -0.06589781 -0.06592759
 -0.06595664 -0.06598296 -0.06600393 -0.0660169 -0.0660285 -0.06603844 -0.0660601 -0.06609525 -0.06615109 -0.06622867
 -0.06631741 -0.06641624 -0.06650227 -0.0665752 -0.0666207 -0.06664246 -0.06664807 -0.0666423 -0.06664355 -0.0666512
 -0.06667452 -0.06670628 -0.06674103 -0.06677227 -0.06679042 -0.06679789 -0.06679109 -0.06678192 -0.06677361 -0.066779
 -0.06680349 -0.0668495 -0.06691989 -0.06700426 -0.06710235 -0.06719934 -0.06729416 -0.06737723 -0.06744835 -0.06750559
 -0.06754953 -0.0675832 -0.06760758 -0.06762828 -0.0676464 -0.06766798 -0.06769343 -0.0677268 -0.06776676 -0.06781401
 -0.06786495 -0.06791718 -0.06796608 -0.06800754 -0.06804069 -0.06806268 -0.06808022 -0.0680939 -0.06811323 -0.06814054
 -0.06817953 -0.06823158 -0.06829163 -0.06835958 -0.06842684 -0.06849296 -0.06854991 -0.06859757 -0.06863093 -0.06865062
 -0.06865605 -0.0686491 -0.06863416 -0.06861391 -0.06859523 -0.06858053 -0.06857628 -0.06858238 -0.06860203 -0.06863108
 -0.06866825 -0.06870871 -0.0687494 -0.06879006 -0.06882948 -0.06887109 -0.06891576 -0.06896333 -0.06901417 -0.06906461
 -0.06911433 -0.06916305 -0.06921088 -0.06926176 -0.06931546 -0.0693723 -0.06943111 -0.06948674 -0.06953856 -0.06958168
 -0.06961708 -0.069644 -0.06966455 -0.06968077 -0.06969567 -0.06971242 -0.06973413 -0.06976463 -0.0698024 -0.06984954
 -0.06989644 -0.06994107 -0.06997409 -0.06999181 -0.06999847 -0.06999285 -0.0699928 -0.06999962 -0.07002596 -0.07007181
 -0.07012899 -0.0701956 -0.070251 -0.07029564 -0.07031908 -0.07032644 -0.07032683 -0.07032531 -0.07033765 -0.0703624
 -0.07040609 -0.07046043 -0.07052072 -0.07057776 -0.07062333 -0.07065497 -0.07066786 -0.07066914 -0.07065881 -0.07064886
 -0.07064185 -0.07064512 -0.0706607 -0.07068495 -0.07071801 -0.07074976 -0.07077982 -0.07080201 -0.07081703 -0.07082834
 -0.07083727 -0.07085242 -0.07087334 -0.0709042 -0.07094142 -0.07098046 -0.07101682 -0.07104155 -0.07105439 -0.07104999
 -0.07103539 -0.07101261 -0.07099098 -0.07097576 -0.07097047 -0.07097825 -0.07099523 -0.07102133 -0.07105193 -0.07108634
 -0.07112246 -0.07116016 -0.07119638 -0.07123087 -0.0712575 -0.07127618 -0.07128292 -0.07127892 -0.0712674 -0.07125033
 -0.07123536 -0.07122324 -0.07121954 -0.07122298 -0.07123432 -0.07125139 -0.07127255 -0.07129571 -0.07131917 -0.07134103
 -0.07135985 -0.07137533 -0.07138655 -0.07139618 -0.07140443 -0.07141468 -0.07142767 -0.0714432 -0.07146148 -0.07147769
 -0.07149156 -0.07149816 -0.07149769 -0.07148981 -0.07147537 -0.07145826 -0.07143909 -0.07142178 -0.07140645 -0.07139504
 -0.07138799 -0.07138661 -0.07139156 -0.0714045 -0.07142418 -0.07145137 -0.071481 -0.0715116 -0.07153699 -0.07155455
 -0.07156239 -0.07155897 -0.07154813 -0.07152995 -0.07150967 -0.07148775 -0.07146703 -0.07144768 -0.07143155 -0.07141886
 -0.0714125 -0.07141245 -0.07142089 -0.07143635 -0.07145571 -0.07147696 -0.07149357 -0.07150663 -0.07151359 -0.07151982
 -0.0715297 -0.07154742 -0.07157876 -0.07162016 -0.07167274 -0.07172758 -0.07178231 -0.07182969 -0.0718677 -0.07189294
 -0.07190455 -0.07190207 -0.07188515 -0.07185883 -0.07182349 -0.07179014 -0.07175926 -0.07174048 -0.07173268 -0.07173593
 -0.07174788 -0.07176104 -0.07177455 -0.07178244 -0.07178642 -0.07178596 -0.07178427 -0.07178456 -0.07178851 -0.07179895
 -0.07181396 -0.07183417 -0.07185439 -0.07187319 -0.07188642 -0.07189243 -0.07189196 -0.07188439 -0.07187583 -0.07186666
 -0.07186306 -0.07186525 -0.07187369 -0.0718877 -0.0719007 -0.0719122 -0.07191548 -0.07191212 -0.07190288 -0.07189076
 -0.07188287 -0.07188023 -0.07188845 -0.07190432 -0.07192758 -0.07195228 -0.07197435 -0.07198907 -0.07199244 -0.07198495
 -0.07196493 -0.07193834 -0.07190565 -0.07187464 -0.07184658 -0.07182548 -0.07181197 -0.07180446 -0.07180286 -0.07180344
 -0.07180614 -0.07180883 -0.0718118 -0.07181554 -0.07182012 -0.07182623 -0.07183331 -0.07184067 -0.07184745 -0.07185204
 -0.07185408 -0.07185256 -0.07184754 -0.07183868 -0.07182635 -0.07181035 -0.07179216 -0.07177195 -0.07175205 -0.07173305
 -0.0717162 -0.07170177 -0.07169028 -0.0716817 -0.07167839 -0.07168047 -0.0716909 -0.07170933 -0.07173352 -0.0717623
 -0.07178847 -0.07181137 -0.07182468 -0.07182928 -0.07182361 -0.0718095 -0.07178866 -0.0717636 -0.07173745 -0.07171212
 -0.07169079 -0.07167134 -0.07165449 -0.07163424 -0.07160825 -0.07157459 -0.07153109 -0.07148556 -0.07143838 -0.07140005
 -0.07137185 -0.07135484 -0.071349 -0.07134604 -0.07134569 -0.07134175 -0.07133548 -0.07133024 -0.07132766 -0.07133511
 -0.0713526 -0.0713836 -0.07142768 -0.07148451 -0.07155709 -0.07164704 -0.07176115 -0.07190517 -0.07208239 -0.0722986
 -0.07254406 -0.07281904 -0.07310422 -0.07339397 -0.0736826 -0.07396547 -0.07426734 -0.0745891 -0.07496685 -0.07540213
 -0.07589251 -0.07643221 -0.07695867 -0.07746156 -0.07785317 -0.07812789 -0.07821878 -0.07813137 -0.07783411 -0.07736363
 -0.07674941 -0.07605834 -0.07537376 -0.07473676 -0.07420806 -0.07378814 -0.07349299 -0.07331229 -0.07324661 -0.07328363
 -0.07342645 -0.07363294 -0.0739039 -0.07415151 -0.07436796 -0.0744912 -0.07451822 -0.07446901 -0.07434765 -0.07420704
 -0.07404943 -0.07391534 -0.07380146 -0.0737206 -0.07366286 -0.07361282 -0.07356175 -0.07348711 -0.07339095 -0.07326575
 -0.07311945 -0.07295603 -0.07278001 -0.07259426 -0.07240267 -0.07220566 -0.07201245 -0.07182457 -0.0716523 -0.07149803
 -0.07136324 -0.07124887 -0.07114522 -0.07105177 -0.07095625 -0.07085894 -0.07075931 -0.07065921 -0.07056955 -0.07049
 -0.07042678 -0.07037482 -0.07032593 -0.07027519 -0.0702098 -0.07013162 -0.07003615 -0.06993148 -0.06982177 -0.0697148
 -0.06961572 -0.0695286 -0.06945634 -0.06939901 -0.06935809 -0.06932739 -0.06930683 -0.06928613 -0.06926424 -0.06923568
 -0.06920015 -0.06916106 -0.06911877 -0.06907903 -0.06904153 -0.06900728 -0.06897583 -0.06894595 -0.06891786 -0.0688918
 -0.06886729 -0.06884432 -0.06882059 -0.06879336 -0.06876152 -0.06872234 -0.06867903 -0.06863201 -0.0685859 -0.06854301
 -0.06850343 -0.06846819 -0.06843328 -0.06839819 -0.06836021 -0.0683189 -0.06827524 -0.06822927 -0.06818295 -0.06813636
 -0.0680913 -0.06804808 -0.0680096 -0.06797616 -0.06795082 -0.06793267 -0.06792168 -0.06791544 -0.06791034 -0.06790382
 -0.06789145 -0.06787253 -0.06784461 -0.06780956 -0.0677672 -0.06772127 -0.06767298 -0.06762545 -0.06757989 -0.06753668
 -0.06749622 -0.06745701 -0.06741891 -0.06738126 -0.06734402 -0.06730814 -0.06727372 -0.06724195 -0.06721272 -0.06718602
 -0.06716149 -0.06713796 -0.06711483 -0.06709003 -0.06706338 -0.06703322 -0.06700075 -0.06696625 -0.06693218 -0.06690076
 -0.06687275 -0.06685018 -0.06682926 -0.06680961 -0.06678574 -0.06675556 -0.06671918 -0.06667546 -0.06663224 -0.06659003
 -0.06655724 -0.06653442 -0.06652168 -0.06651845 -0.06651685 -0.06651618 -0.06650793 -0.06649238 -0.06646545 -0.06642904
 -0.06638494 -0.06633636 -0.06628916 -0.06624612 -0.0662134 -0.06619024 -0.06617928 -0.06617495 -0.06617571 -0.06617438
 -0.06616759 -0.06615264 -0.06612745 -0.06609568 -0.06605743 -0.06601736 -0.06597619 -0.06593335 -0.06588887 -0.06583995
 -0.06578688 -0.06573296 -0.06567935 -0.06563553 -0.06560121 -0.0655812 -0.0655726 -0.06557064 -0.06557347 -0.06557501
 -0.06557712 -0.06557999 -0.06558438 -0.06559267 -0.06559937 -0.06560291 -0.06559603 -0.06557427 -0.06553942 -0.06548925
 -0.06543661 -0.06538281 -0.06534076 -0.06531239 -0.0652991 -0.06530112 -0.06530812 -0.06531945 -0.06532332 -0.06531997
 -0.0653047 -0.06527869 -0.06524354 -0.06520035 -0.06515218 -0.06510054 -0.06504876 -0.06499925 -0.06495632 -0.0649206
 -0.06489518 -0.06487591 -0.064862 -0.06484752 -0.06482936 -0.06480693 -0.0647786 -0.06474996 -0.06472163 -0.06469812
 -0.06468029 -0.06466641 -0.0646565 -0.06464418 -0.06462924 -0.06460705 -0.06457821 -0.06454381 -0.0645052 -0.06446804
 -0.06443278 -0.06440388 -0.06437968 -0.06435969 -0.06434128 -0.06432072 -0.06429752 -0.06426926 -0.0642389 -0.06420698
 -0.06417754 -0.06415255 -0.06413321 -0.0641209 -0.06411199 -0.06410649 -0.06409819 -0.06408633 -0.06406808 -0.06404317
 -0.06401544 -0.06398532 -0.06396005 -0.06393979 -0.0639296 -0.06392868 -0.06393731 -0.0639533 -0.0639721 -0.06399033
 -0.06400008 -0.06399951 -0.06398205 -0.06395114 -0.06390607 -0.06385481 -0.06380136 -0.06375249 -0.06371228 -0.06368181
 -0.06366274 -0.06365156 -0.06364829 -0.06364761 -0.06364908 -0.06364751 -0.06364252 -0.06363214 -0.06361651 -0.06359813
 -0.06357736 -0.06355792 -0.06353962 -0.06352381 -0.06350992 -0.0634971 -0.0634849 -0.06347229 -0.06345868 -0.06344316
 -0.0634248 -0.06340221 -0.06337587 -0.0633448 -0.06331278 -0.06328056 -0.06325313 -0.0632323 -0.06321938 -0.06321549
 -0.06321619 -0.06322134 -0.06322433 -0.06322473 -0.06321828 -0.06320499 -0.06318467 -0.06315782 -0.06312744 -0.06309421
 -0.06306244 -0.06303234 -0.06300684 -0.06298538 -0.06296858 -0.06295504 -0.06294355 -0.06293221 -0.06291924 -0.0629027
 -0.06288048 -0.06285351 -0.06282086 -0.06278722 -0.06275354 -0.06272405 -0.06270017 -0.06268038 -0.06266489 -0.06264932
 -0.06263336 -0.06261665 -0.06259938 -0.06258545 -0.06257477 -0.06256897 -0.06256688 -0.06256486 -0.06256177 -0.06255256
 -0.06253739 -0.06251412 -0.06248371 -0.06244659 -0.06240342 -0.06235481 -0.06230145 -0.0622432 -0.06218307 -0.06212144
 -0.06206376 -0.06201153 -0.0619687 -0.06193674 -0.06191402 -0.06190096 -0.06189092 -0.06188355 -0.06187146 -0.06185444
 -0.06182847 -0.06179409 -0.06175281 -0.06170601 -0.06166003 -0.0616157 -0.06157897 -0.06154863 -0.06152564 -0.06150751
 -0.06149131 -0.06147584 -0.06145874 -0.06144052 -0.0614211 -0.06140012 -0.06137813 -0.06135167 -0.06132022 -0.06127956
 -0.06122845 -0.06116712 -0.06109502 -0.06101794 -0.06093616 -0.06085655 -0.06077943 -0.06070999 -0.06064849 -0.06059947
 -0.06056254 -0.06053941 -0.06052749 -0.06052123 -0.0605173 -0.06050607 -0.06048837 -0.06046012 -0.06042675 -0.06039216
 -0.06035889 -0.0603312 -0.06030398 -0.06027665 -0.06024267 -0.06019932 -0.06014669 -0.06008363 -0.0600161 -0.0599444
 -0.05987582 -0.05981085 -0.05975516 -0.05970887 -0.05967426 -0.05965087 -0.0596366 -0.05963059 -0.05962851 -0.05962911
 -0.05962714 -0.05962104 -0.05960525 -0.05957974 -0.05954104 -0.05949319 -0.05943747 -0.05938069 -0.05932765 -0.05928159
 -0.05924633 -0.05921732 -0.059195 -0.05917029 -0.05914164 -0.05910231 -0.05905095 -0.05898779 -0.05891258 -0.05883255
 -0.05874823 -0.05867027 -0.05859901 -0.05854274 -0.05850007 -0.05847066 -0.05845099 -0.05843135 -0.05840925 -0.05837434
 -0.05832897 -0.0582711 -0.05820616 -0.05813871 -0.05807149 -0.05800799 -0.05794749 -0.05788993 -0.05783679 -0.05778804
 -0.05774728 -0.05771591 -0.05769156 -0.05767493 -0.05765484 -0.05763061 -0.05759193 -0.05753875 -0.05747265 -0.05739497
 -0.05731702 -0.05723941 -0.05717134 -0.05711118 -0.0570598 -0.05701398 -0.05696824 -0.05691982 -0.05686198 -0.05679594
 -0.05671915 -0.05663761 -0.0565539 -0.05647388 -0.0564014 -0.05633662 -0.05628136 -0.05622949 -0.05618036 -0.0561277
 -0.05607031 -0.05600829 -0.05594139 -0.05587627 -0.05581333 -0.05576096 -0.05571895 -0.05569034 -0.05567267 -0.05565749
 -0.05564133 -0.05560877 -0.05556122 -0.05549272 -0.05540966 -0.05531854 -0.05522304 -0.05512927 -0.05503742 -0.05494885
 -0.05486469 -0.05478531 -0.05471322 -0.05464973 -0.05459394 -0.05454681 -0.05450106 -0.0544563 -0.05440276 -0.0543396
 -0.05426277 -0.05417242 -0.05407401 -0.05396839 -0.05386486 -0.05376355 -0.05367014 -0.05358363 -0.05350429 -0.05343072
 -0.05336079 -0.05329235 -0.05322186 -0.05314725 -0.05306446 -0.05297549 -0.05287915 -0.05278221 -0.05268758 -0.05259903
 -0.05251948 -0.05244445 -0.05237409 -0.05230075 -0.05222316 -0.05213954 -0.05204944 -0.05195913 -0.05186884 -0.05178264
 -0.05169907 -0.05160811 -0.05150745 -0.05137899 -0.05122644 -0.05104899 -0.05085609 -0.05066758 -0.05048553 -0.05032369
 -0.0501733 -0.05003122 -0.04988911 -0.04973827 -0.0495824 -0.04941917 -0.04926048 -0.04910998 -0.04897348 -0.04885447
 -0.04874455 -0.04864453 -0.04853216 -0.04840578 -0.04824984 -0.0480645 -0.0478659 -0.04765616 -0.0474618 -0.04728089
 -0.04711914 -0.04697198 -0.04682871 -0.04668709 -0.0465369 -0.04637968 -0.04621275 -0.04603956 -0.04586256 -0.04568407
 -0.04550779 -0.04532962 -0.0451509 -0.04495858 -0.04474873 -0.04451323 -0.04424743 -0.04396306 -0.04366068 -0.04335365
 -0.04304345 -0.04272716 -0.04240471 -0.04207338 -0.04173425 -0.04139692 -0.04106076 -0.04073003 -0.04039876 -0.04005154
 -0.03968351 -0.03927385 -0.03883068 -0.03835439 -0.03785936 -0.03736161 -0.03686436 -0.03637495 -0.03589135 -0.03541279
 -0.03494345 -0.03448387 -0.03404045 -0.03361682 -0.03320362 -0.03280337 -0.03237534 -0.03191698 -0.03138557 -0.03078072
 -0.03012797 -0.02943208 -0.02875018 -0.02807792 -0.02742419 -0.02678181 -0.02613232 -0.02547555 -0.02480287 -0.02411506
 -0.02341439 -0.02268771 -0.02193072 -0.02110862 -0.02019874 -0.01917093 -0.01799161 -0.01670358 -0.01529916 -0.01388646
 -0.01248873 -0.01116606 -0.009933848 -0.008779871 -0.007705654 -0.006670337 -0.005671154 -0.004646346 -0.003590404 -0.002419218
 -0.001142253 0.0002538714 0.001726928 0.003144266 0.004501137 0.005709476 0.006819956 0.00787187 0.008896049 0.009945374
 0.01100875 0.01209569 0.0131869 0.01427158 0.01535327 0.01643316 0.01750477 0.01856968 0.0196042 0.02060311
 0.02157273 0.02251285 0.02343934 0.02435189 0.02521793 0.02603423 0.02675299 0.02738016 0.02791778 0.02837829
 0.02880327 0.02919508 0.02958325 0.02995285 0.030291 0.03059608 0.03085598 0.03109042 0.03131158 0.03152614
 0.03174515 0.03195072 0.032141 0.03229396 0.03240415 0.03246033 0.03245949 0.03240222 0.03228726 0.0321382
 0.03195654 0.03178003 0.03160802 0.03144922 0.03129958 0.03114229 0.03097717 0.03079273 0.03059584 0.03039364
 0.03019647 0.03002456 0.02987815 0.02976737 0.02968185 0.02961541 0.02956708 0.0295309 0.02952375 0.02954972
 0.02962223 0.0297471 0.02991772 0.03013433 0.03038671 0.03067369 0.03099558 0.03135247 0.03175204 0.0321945
 0.03268568 0.03322364 0.03380261 0.03441833 0.03505374 0.03570761 0.03636716 0.03703785 0.03772198 0.03842542
 0.03915646 0.03991402 0.04070099 0.04151152 0.04234395 0.04319222 0.04405427 0.04492512 0.04580382 0.04668484
 0.04756831 0.0484416 0.04930393 0.05014019 0.05094994 0.05174034 0.05251395 0.05330352 0.05410559 0.0549247
 0.05574452 0.05651167 0.05722193 0.05783651 0.05836819 0.05882324 0.05920263 0.05951172 0.05974349 0.05989322
 0.05996065 0.0599515 0.0598385 0.05962674 0.05923212 0.05863041 0.05779833 0.05670751 0.05555714 0.05436324
 0.05324915 0.05221904 0.05117657 0.05011692 0.04895456 0.04769737 0.04634353 0.04490124 0.04340348 0.04183562
 0.04019109 0.0384307 0.03647104 0.03434781 0.03201588 0.02967692 0.02748072 0.0255034 0.02386399 0.02240904
 0.02110902 0.01985325 0.01859989 0.01735838 0.01612214 0.01493317 0.0137968 0.01270187 0.01164759 0.0105865
 0.009518615 0.00842526 0.007314299 0.006218162 0.005143487 0.00413248 0.003178754 0.002289937 0.001455062 0.0006597692
 -0.0001009857 -0.0008354154 -0.001553264 -0.002256639 -0.002977693 -0.003730251 -0.004547684 -0.005463046 -0.006406061 -0.007380357
 -0.008240818 -0.008954532 -0.009532277 -0.009967363 -0.01036503 -0.01073022 -0.01112001 -0.01153167 -0.01195243 -0.01237727
 -0.01276979 -0.01313432 -0.01346734 -0.01377301 -0.01406418 -0.01432925 -0.01455778 -0.01473438 -0.01483348 -0.0148621
 -0.01481436 -0.01470926 -0.01455662 -0.01436296 -0.01413463 -0.01386461 -0.0135545 -0.01318617 -0.01275984 -0.01223874
 -0.01161938 -0.01087541 -0.01000598 -0.009073017 -0.008083881 -0.007148416 -0.006263234 -0.005465875 -0.004746706 -0.004090612
 -0.003497088 -0.002959605 -0.00247584 -0.002045835 -0.001649276 -0.001267985 -0.0008751415 -0.0004377267 3.438715E-05 0.0005535123
 0.001071768 0.00156918 0.002039873 0.002473811 0.002903921 0.003334868 0.003782609 0.004250471 0.00472334 0.0052005
 0.00565978 0.006101818 0.006526574 0.006938321 0.007359967 0.007796712 0.008279326 0.00880792 0.009400988 0.01004837
 0.01074144 0.01147364 0.01223026 0.01302147 0.01385121 0.01472514 0.01565341 0.0166144 0.01760613 0.0185955
 0.01957205 0.02052751 0.02145622 0.02238142 0.02330494 0.02424371 0.02519852 0.02613172 0.02703842 0.02784593
 0.02855335 0.02911881 0.02954505 0.02982175 0.02994616 0.02990747 0.02970108 0.02931191 0.02874601 0.0279993
 0.02709382 0.02604118 0.02487047 0.0235997 0.02224694 0.02082286 0.01933353 0.01777702 0.01618448 0.01455378
 0.01296319 0.01141968 0.009982766 0.00865593 0.007422731 0.006279962 0.005179533 0.00412346 0.003097706 0.00211064
 0.001186883 0.0003266279 -0.0004536963 -0.001166877 -0.001825872 -0.002442445 -0.003036237 -0.003609219 -0.004169395 -0.004714879
 -0.005245541 -0.005763741 -0.006269625 -0.006767971 -0.007259962 -0.007748579 -0.008234162 -0.008720982 -0.009209642 -0.009701595
 -0.01019697 -0.01068061 -0.01115068 -0.01157803 -0.01196291 -0.01229033 -0.01256527 -0.01279818 -0.01299192 -0.01315995
 -0.01329901 -0.01340999 -0.01348859 -0.01352891 -0.0135322 -0.0134946 -0.01342775 -0.01333311 -0.0132336 -0.0131357
 -0.01306453 -0.01302802 -0.01303812 -0.01309974 -0.0132037 -0.0133505 -0.01351868 -0.01370707 -0.0139003 -0.01409842
 -0.01429979 -0.01450444 -0.01471256 -0.01492184 -0.015124 -0.01531675 -0.01548965 -0.01564384 -0.01577643 -0.01588944
 -0.01598508 -0.01606191 -0.0161195 -0.01615652 -0.01617086 -0.01616663 -0.01614442 -0.01610952 -0.01606383 -0.01600781
 -0.01594149 -0.01586645 -0.0157821 -0.01569973 -0.0156199 -0.01555927 -0.01551835 -0.01550815 -0.01552754 -0.01557609
 -0.01565072 -0.01574043 -0.0158421 -0.01594169 -0.01604041 -0.01613239 -0.01622424 -0.01632144 -0.01642893 -0.01655489
 -0.01669363 -0.01684649 -0.01699959 -0.01714811 -0.01728215 -0.0173969 -0.01749504 -0.01757532 -0.0176487 -0.01771606
 -0.0177866 -0.01786096 -0.01794127 -0.01802716 -0.01811395 -0.01820047 -0.01827745 -0.01834354 -0.01838834 -0.01841227
 -0.01841045 -0.0183855 -0.01833963 -0.01827519 -0.01819639 -0.0181028 -0.01799542 -0.0178735 -0.01773562 -0.01758597
 -0.01742404 -0.01726091 -0.01709843 -0.01694919 -0.016816 -0.01670342 -0.016613 -0.0165363 -0.01647299 -0.01640667
 -0.01633639 -0.01624539 -0.01613316 -0.01598676 -0.01580867 -0.01559758 -0.0153642 -0.01513079 -0.01491453 -0.01475587
 -0.0146622 -0.0146642 -0.01474412 -0.01490304 -0.01510619 -0.01533506 -0.01556367 -0.01577634 -0.01596653 -0.0161296
 -0.01626536 -0.01637385 -0.01645026 -0.01649406 -0.01650218 -0.01647434 -0.01641521 -0.01632485 -0.01620563 -0.0160557
 -0.01586354 -0.01562785 -0.0153333 -0.01498896 -0.01460314 -0.01420086 -0.01382559 -0.01350462 -0.0132929 -0.01318984
 -0.01322462 -0.01335114 -0.0135587 -0.01378314 -0.01399388 -0.01416467 -0.0142751 -0.01435857 -0.01441482 -0.01449552
 -0.01460782 -0.01476577 -0.01497122 -0.01518816 -0.01541364 -0.01559385 -0.01572918 -0.01579222 -0.0157932 -0.01575402
 -0.0156904 -0.01565586 -0.01565318 -0.01571842 -0.01582935 -0.01597601 -0.01613058 -0.01626111 -0.01636795 -0.01643682
 -0.01649495 -0.01655202 -0.01661922 -0.01670755 -0.01678772 -0.01685833 -0.01688061 -0.01684852 -0.01675807 -0.01660822
 -0.01642751 -0.01621708 -0.01599915 -0.01577166 -0.01553069 -0.01527426 -0.01499115 -0.01468423 -0.01435484 -0.01400741
 -0.01365102 -0.01328672 -0.01291905 -0.01254898 -0.01217709 -0.01180958 -0.01144877 -0.01110427 -0.01078045 -0.01048309
 -0.0102154 -0.009975757 -0.009765056 -0.009576179 -0.00940844 -0.009256719 -0.009120581 -0.009000942 -0.008897695 -0.008810024
 -0.008736311 -0.008665219 -0.008594394 -0.008508008 -0.008405791 -0.008279137 -0.008128599 -0.007952062 -0.007747987 -0.007513229
 -0.007247923 -0.006948858 -0.006624118 -0.006275156 -0.005916947 -0.005555073 -0.005202647 -0.004865013 -0.004545808 -0.004247416
 -0.003963959 -0.003695198 -0.003434631 -0.003181793 -0.002934334 -0.002691925 -0.002449338 -0.002205162 -0.001946269 -0.001672292
 -0.001373228 -0.001052912 -0.0007153673 -0.0003665652 -1.907403E-05 0.0003231443 0.000649623 0.0009601519 0.00125002 0.001523578
 0.001781638 0.002029571 0.002270576 0.002504328 0.002731245 0.00295054 0.003160386 0.003372658 0.00358754 0.003825343
 0.004087502 0.00438443 0.004716081 0.005080127 0.00547561 0.005895758 0.006338099 0.006790507 0.007247804 0.007689962
 0.008113755 0.008502766 0.00885979 0.009181988 0.009472122 0.009734654 0.009961647 0.01015306 0.01028979 0.01036398
 0.01036259 0.01027613 0.01012053 0.009892917 0.009637508 0.009358032 0.009096952 0.008857544 0.00865948 0.008503465
 0.008399139 0.008347643 0.008363349 0.008445649 0.008602031 0.008826207 0.009105997 0.009433816 0.009788748 0.01017003
 0.01056643 0.01098496 0.01142831 0.01190164 0.01241452 0.01294912 0.01351043 0.01404108 0.01453335 0.01490779
 0.0151482 0.01520388 0.01506281 0.01474213 0.01424053 0.01363634 0.01293458 0.01223147 0.01152939 0.010893
 0.01031668 0.009812348 0.009371325 0.008974997 0.008620703 0.008294036 0.007997549 0.007729923 0.007490513 0.007279684
 0.007092348 0.006925944 0.006775283 0.006638068 0.006509277 0.006387817 0.006266861 0.006145921 0.006014289 0.005871517
 0.005700796 0.005501018 0.005256815 0.004968002 0.004634643 0.004258192 0.003850823 0.003412145 0.002947377 0.002454017
 0.001926667 0.00136609 0.0007702074 0.0001431186 -0.0005108132 -0.001187915 -0.001884723 -0.002594623 -0.003315254 -0.004032456
 -0.004740431 -0.005426605 -0.006084451 -0.006715965 -0.007318994 -0.007907295 -0.00848245 -0.009053099 -0.009620458 -0.01017429
 -0.01071353 -0.01121398 -0.0116751 -0.01208027 -0.01243284 -0.0127384 -0.01300094 -0.01323572 -0.01344192 -0.01362521
 -0.01378346 -0.01391406 -0.01402166 -0.0141079 -0.01418223 -0.01425134 -0.01432048 -0.01439438 -0.01447167 -0.0145531
 -0.01463576 -0.01471909 -0.01480197 -0.01488436 -0.01496453 -0.01504255 -0.01511079 -0.01516876 -0.01520589 -0.01522284
 -0.0152192 -0.01519804 -0.01517337 -0.01514637 -0.01512939 -0.01511781 -0.01510865 -0.01509717 -0.01507417 -0.01504155
 -0.01499692 -0.01494568 -0.01489114 -0.01483523 -0.01478025 -0.01472415 -0.01466736 -0.01460497 -0.01453624 -0.01445657
 -0.01436484 -0.01426283 -0.01415033 -0.0140367 -0.01392247 -0.01381776 -0.01372281 -0.01364418 -0.01358164 -0.01353857
 -0.01351273 -0.01350038 -0.01349728 -0.01349229 -0.01348545 -0.01346989 -0.01345361 -0.01344186 -0.01344053 -0.01345842
 -0.01348609 -0.01352465 -0.01355276 -0.01356393 -0.0135448 -0.01348894 -0.01340709 -0.01329796 -0.01319027 -0.01308616
 -0.01300398 -0.0129437 -0.0128914 -0.01284421 -0.01276999 -0.01266952 -0.01252735 -0.01235073 -0.01215255 -0.01193941
 -0.01173169 -0.01152938 -0.01134097 -0.01116457 -0.01099974 -0.01084975 -0.01071574 -0.01060333 -0.01051704 -0.01045329
 -0.01041488 -0.01038341 -0.0103575 -0.01031188 -0.01024315 -0.01013419 -0.00998285 -0.009792404 -0.00956365 -0.009321394
 -0.009068341 -0.008839043 -0.008634209 -0.008477595 -0.008363684 -0.008290591 -0.008248135 -0.008215038 -0.008184488 -0.008135957
 -0.008073108 -0.007990599 -0.007898357 -0.00780313 -0.007705993 -0.007612125 -0.007508175 -0.007391174 -0.00725027 -0.007080283
 -0.006890984 -0.006681735 -0.006473742 -0.00626879 -0.006076737 -0.005897803 -0.005728471 -0.005568592 -0.005415452 -0.005269601
 -0.00513302 -0.005004789 -0.00488385 -0.004767519 -0.004650015 -0.004528989 -0.004398427 -0.004258016 -0.00410415 -0.00394097
 -0.003768391 -0.003596179 -0.003428155 -0.003273562 -0.003137268 -0.003018742 -0.002920557 -0.002829122 -0.002744131 -0.002644317
 -0.002528087 -0.002377944 -0.002193377 -0.001974209 -0.001722699 -0.001458809 -0.001186061 -0.0009325593 -0.0006986362 -0.0005019239
 -0.0003362389 -0.0001992668 -8.0282E-05 3.744765E-05 0.0001597767 0.0003009182 0.0004552403 0.0006245123 0.0007981527 0.000971123
 0.001138521 0.001297707 0.001446856 0.00158537 0.001710845 0.001822069 0.001925025 0.002019535 0.002122969 0.002236125
 0.002371897 0.0025293 0.002704419 0.002894893 0.003087042 0.003279787 0.003462095 0.003635617 0.003797856 0.003952399
 0.004104297 0.004253409 0.00440332 0.004547132 0.004680645 0.004800598 0.00490112 0.004994366 0.005081194 0.005180142
 0.005296349 0.005435606 0.005601075 0.005779233 0.005969988 0.006147068 0.00630915 0.006432605 0.006518689 0.006568594
 0.006588071 0.006606617 0.00662803 0.006682195 0.006763224 0.00687573 0.007006289 0.00713802 0.007259068 0.0073487
 0.007408901 0.007428575 0.00743401 0.007431553 0.007454761 0.007520003 0.007627999 0.007787014 0.007959133 0.008140872
 0.008297672 0.008425603 0.008518694 0.008576741 0.008606646 0.008609579 0.008597659 0.008574727 0.008566611 0.008576401
 0.00862969 0.008721811 0.008856758 0.009025161 0.009214818 0.009419255 0.009627124 0.009836104 0.01004072 0.0102423
 0.01044032 0.01063583 0.01083026 0.01101844 0.01119927 0.0113698 0.01152796 0.01168635 0.01184567 0.01201976
 0.01220907 0.0124077 0.01261468 0.01281693 0.01301565 0.01321067 0.01340305 0.01359792 0.01379137 0.01397865
 0.01415311 0.01430291 0.01442348 0.01450395 0.01454801 0.01455033 0.01453119 0.0144959 0.01447212 0.01447275
 0.01450268 0.01456933 0.01464668 0.01473241 0.01480248 0.01485352 0.01489082 0.01491482 0.01495078 0.01499946
 0.01507938 0.01518732 0.0153172 0.0154633 0.01560196 0.01573446 0.0158496 0.01595716 0.01606847 0.01618715
 0.01632175 0.01647155 0.01663276 0.01682485 0.01705449 0.01734432 0.01771813 0.01811826 0.01854367 0.01889828
 0.01915926 0.01934291 0.01944613 0.01953537 0.01961375 0.0197158 0.01984091 0.01999543 0.02017546 0.02036709
 0.02056099 0.02071984 0.02083594 0.02087028 0.02083039 0.02070748 0.02052036 0.02028453 0.02001772 0.0197344
 0.01945603 0.01919456 0.01897177 0.0188004 0.01867928 0.01861411 0.01857808 0.01856908 0.01855846 0.01854338
 0.01850705 0.01844861 0.01836641 0.01826189 0.01815098 0.0180351 0.01793175 0.01783778 0.01775119 0.01766973
 0.01758498 0.01750239 0.0174306 0.01736322 0.01730392 0.01722357 0.01709646 0.01692124 0.01667832 0.01642064
 0.01616046 0.01594555 0.01579357 0.01570576 0.01568691 0.01571387 0.01578544 0.01587664 0.01598614 0.01610071
 0.01622126 0.01635608 0.01650468 0.01667127 0.01684893 0.01701475 0.01716679 0.01728582 0.0173823 0.01746568
 0.01754074 0.01761985 0.01769354 0.01775711 0.01780769 0.0178385 0.0178649 0.01788944 0.01793023 0.01799328
 0.0180828 0.01820331 0.01833092 0.01846582 0.01855657 0.0186005 0.01856668 0.01845887 0.01831275 0.01813615
 0.01799383 0.01788428 0.01783721 0.01784514 0.01790657 0.01801278 0.01815602 0.0183114 0.01845336 0.01855006
 0.01856266 0.01849627 0.01833381 0.01812327 0.01787369 0.01763994 0.01743587 0.01730093 0.01724665 0.01726801
 0.01737011 0.01747314 0.01757291 0.01757771 0.01749086 0.01732537 0.01709752 0.01691337 0.01677279 0.01673985
 0.01678566 0.01687486 0.01698316 0.0170494 0.01708048 0.01705572 0.01700282 0.01693536 0.01687811 0.01684939
 0.01685611 0.01690636 0.0169935 0.01711891 0.01726865 0.01744508 0.0176044 0.01774583 0.0177876 0.01772521
 0.01751472 0.01716242 0.01673685 0.01625188 0.01582811 0.0154632 0.01521826 0.01507061 0.01499982 0.01498088
 0.01496364 0.01493534 0.01486044 0.01474172 0.01456661 0.0143529 0.01410296 0.01384518 0.0135869 0.0133624
 0.01318041 0.01306849 0.01303607 0.01306903 0.01317023 0.01327199 0.0133706</values></Ydata></AB><ScSm><Ydata ylabel="Single channel"><values byteorder="INTEL" format="FLOAT32" numvalues="1814"> 0.07597109 0.07596572 0.07603517 0.07620323 0.07643609 0.0766606 0.07681497 0.07688916 0.07690643 0.07687522
 0.07679828 0.0767294 0.07676502 0.07694826 0.07720607 0.07739986 0.07743752 0.07735538 0.07729899 0.07738216
 0.07753225 0.07750802 0.07712528 0.0764696 0.07584284 0.0754839 0.07541636 0.07562245 0.0761957 0.07707077
 0.07771288 0.07749841 0.07649989 0.07552369 0.07521523 0.07543895 0.07565621 0.07555081 0.07512627 0.07457834
 0.07434951 0.07501421 0.07671286 0.07868069 0.07952445 0.07810728 0.07436096 0.0695325 0.06571957 0.06474896
 0.06689093 0.07049156 0.07321596 0.0739159 0.07317729 0.07212481 0.07120604 0.0703527 0.06978238 0.07004037
 0.07125238 0.07261866 0.07283442 0.07121542 0.06851178 0.06636366 0.0657976 0.06659065 0.06816375 0.07021049
 0.07179616 0.07085104 0.06621288 0.06019948 0.05756807 0.06099099 0.06820413 0.07421673 0.07574771 0.07307334
 0.06858486 0.06480609 0.06342965 0.06486499 0.0681811 0.07187489 0.07477356 0.07608479 0.07519822 0.07221997
 0.0684932 0.06594869 0.06592031 0.06861912 0.07308799 0.07729571 0.07906438 0.07767519 0.07434176 0.07093233
 0.06874617 0.06851871 0.07060093 0.07459554 0.07933517 0.08355352 0.08639792 0.0875253 0.08718323 0.08604996
 0.08471441 0.08357847 0.08321701 0.08402334 0.08526964 0.08538325 0.08365771 0.08119674 0.07977879 0.0800186
 0.08087759 0.0809272 0.0797945 0.0779393 0.0752508 0.07100274 0.06553888 0.06073455 0.05812266 0.05772037
 0.05913961 0.06218529 0.06555174 0.06676341 0.06489685 0.06229356 0.06224222 0.06547081 0.06978109 0.07271741
 0.07383444 0.07450846 0.07617516 0.07886721 0.08103979 0.08073605 0.07752512 0.07358718 0.07216828 0.0743923
 0.07818254 0.08081809 0.08180388 0.08255906 0.08393758 0.08490068 0.08360088 0.07957961 0.07493695 0.07302785
 0.07553588 0.08078322 0.08495145 0.08491173 0.08033049 0.07372641 0.06850521 0.06660862 0.06800921 0.07201689
 0.07802799 0.08483699 0.09032848 0.0926671 0.09163663 0.0885262 0.08466034 0.08017747 0.07473699 0.06955808
 0.06766033 0.07100889 0.07800356 0.08481437 0.08879499 0.08979802 0.08868948 0.08572406 0.08079223 0.07498571
 0.0711036 0.07147758 0.07516143 0.07847153 0.07884213 0.07716362 0.0758829 0.07595999 0.07651264 0.07668832
 0.07687646 0.07803468 0.08031236 0.08268396 0.08393829 0.08378021 0.08288602 0.08211939 0.0817471 0.08124469
 0.08003578 0.0786365 0.07859699 0.08080258 0.08425739 0.08710802 0.0885015 0.08889595 0.08882585 0.08795704
 0.08557352 0.08193535 0.07882685 0.07823299 0.08042222 0.08378395 0.08650278 0.08785821 0.08805114 0.08755179
 0.08677958 0.08596639 0.08523005 0.08487137 0.08529145 0.0864228 0.08760665 0.08825493 0.08833183 0.08805484
 0.08747166 0.08654673 0.08546732 0.08465263 0.08445123 0.08487953 0.08566867 0.08650523 0.08714394 0.08737083
 0.08708225 0.08644024 0.08577046 0.08526467 0.08492308 0.08476752 0.08490387 0.08532625 0.08582385 0.08616152
 0.08626587 0.08619478 0.08600892 0.08573025 0.08538711 0.0850581 0.08486489 0.08489171 0.08508511 0.08528399
 0.08539967 0.08550308 0.08566506 0.08578973 0.08571601 0.08544025 0.08513372 0.08495614 0.08492796 0.08497173
 0.08499742 0.08491746 0.08464111 0.08415176 0.08361097 0.08330033 0.08339603 0.08383895 0.08443791 0.0850144
 0.08543228 0.08561495 0.08560243 0.0855143 0.08541164 0.08525063 0.08499113 0.08470446 0.08455364 0.08466794
 0.08502265 0.08544862 0.08577405 0.08593801 0.08597571 0.0859655 0.08600066 0.08612333 0.08625585 0.08627078
 0.08615416 0.08603786 0.0860493 0.08617059 0.08626504 0.08622896 0.0861062 0.0860426 0.08612935 0.08631995
 0.0865086 0.08665004 0.08677751 0.08692559 0.08705829 0.08708494 0.0869626 0.08676885 0.08663082 0.08659011
 0.08659397 0.08661422 0.08669854 0.08687934 0.0870923 0.08723173 0.08726607 0.0872615 0.0872888 0.08733438
 0.0873239 0.08722029 0.08706971 0.08695103 0.08690553 0.08692086 0.08695872 0.08698248 0.0869689 0.08691238
 0.08682519 0.08672797 0.08663546 0.0865595 0.08653036 0.08659162 0.08674411 0.0869012 0.08693608 0.08679581
 0.08655959 0.08636869 0.08629516 0.08628579 0.08623487 0.08609562 0.08590882 0.08574009 0.08561912 0.08553774
 0.08547577 0.08541896 0.08537545 0.08538634 0.08549395 0.08567505 0.08582564 0.08584599 0.08573791 0.08559539
 0.08550808 0.08549705 0.08553132 0.08557584 0.08562676 0.0857145 0.0858575 0.0860091 0.0860876 0.0860726
 0.08603519 0.08606178 0.0861861 0.08639409 0.0866385 0.08683836 0.08692358 0.08690812 0.08688407 0.08692653
 0.08703256 0.08716032 0.08729046 0.08742889 0.08757745 0.08773287 0.08790971 0.08814138 0.08844972 0.08881473
 0.08917443 0.08946207 0.08966188 0.08983575 0.09008023 0.09044281 0.09088055 0.09130199 0.09164609 0.09192356
 0.09218839 0.09247402 0.0927683 0.09305762 0.0933727 0.09375848 0.09420788 0.09466143 0.09507319 0.09544858
 0.09581758 0.09619792 0.09659135 0.09700008 0.09743664 0.09791145 0.09840365 0.09885435 0.09921113 0.09948225
 0.09973577 0.1000476 0.1004503 0.100908 0.1013264 0.1016211 0.1018074 0.1019999 0.1022925 0.1026589
 0.1030077 0.1033147 0.1036489 0.1040662 0.1045267 0.1049402 0.1052666 0.1055467 0.1058421 0.1061646
 0.1064649 0.1066897 0.106844 0.1069862 0.107164 0.1073831 0.1076488 0.1079979 0.1084484 0.1089418
 0.1093789 0.109706 0.1099384 0.1101197 0.1102892 0.1104708 0.110662 0.1108421 0.1110073 0.1111728
 0.1113334 0.1114615 0.111561 0.1116854 0.1118803 0.112141 0.112448 0.1128039 0.1132032 0.1136003
 0.1139566 0.1143047 0.1147136 0.1151796 0.1156016 0.1158873 0.1160476 0.1161563 0.1162597 0.1163748
 0.1165436 0.1168224 0.1172133 0.117653 0.1180784 0.1184736 0.1188507 0.1192097 0.1195282 0.1197778
 0.1199453 0.1200448 0.1201169 0.1202164 0.1203927 0.1206609 0.1209816 0.1212835 0.1215125 0.1216512
 0.1216893 0.1216159 0.1214627 0.1213209 0.1212679 0.1212758 0.1212256 0.1210115 0.1206075 0.1200393
 0.11933 0.1184977 0.117592 0.1167071 0.1159512 0.115402 0.1150948 0.1150502 0.1152926 0.115818
 0.1165468 0.1173359 0.1180454 0.118573 0.1188297 0.118732 0.1182575 0.1174906 0.1165825 0.115672
 0.1148442 0.1141278 0.1135051 0.1129562 0.1125337 0.1123884 0.1126965 0.1135586 0.114952 0.1167389
 0.1187003 0.1205992 0.122268 0.1236637 0.1248433 0.1258871 0.1268475 0.1277578 0.1286528 0.129547
 0.1304046 0.1311673 0.131818 0.132392 0.1329264 0.1334202 0.1338454 0.1341758 0.1344103 0.1345817
 0.1347335 0.1348757 0.1349807 0.1350323 0.1350563 0.1350856 0.1351076 0.1350627 0.134885 0.1345496
 0.1341126 0.1337321 0.1336396 0.1340502 0.13505 0.136543 0.1383094 0.1401266 0.1418452 0.1433727
 0.1446393 0.1456123 0.1463273 0.1468734 0.1473424 0.1477955 0.1482594 0.1487326 0.1491982 0.1496426
 0.1500673 0.150487 0.1509203 0.1513743 0.1518287 0.1522461 0.1526101 0.1529517 0.1533252 0.1537583
 0.1542268 0.1546796 0.1550912 0.1554841 0.1558895 0.1562944 0.1566525 0.156947 0.1572169 0.1575173
 0.1578772 0.1582925 0.1587313 0.1591401 0.159476 0.1597434 0.1599883 0.1602534 0.1605475 0.1608578
 0.161172 0.161484 0.161791 0.1620998 0.1624298 0.1627918 0.16316 0.1634826 0.1637331 0.163939
 0.1641524 0.1643997 0.1646684 0.1649335 0.1651905 0.1654651 0.1657896 0.166164 0.166542 0.1668653
 0.1671121 0.1673111 0.1675096 0.1677367 0.1679931 0.168267 0.1685481 0.1688286 0.1691026 0.1693704
 0.1696376 0.1699077 0.1701781 0.1704474 0.1707188 0.1709964 0.1712794 0.1715614 0.1718395 0.1721255
 0.1724402 0.1727849 0.1731249 0.1734163 0.1736456 0.1738341 0.1740125 0.1742037 0.1744214 0.1746661
 0.1749246 0.1751845 0.1754456 0.175713 0.1759862 0.1762597 0.1765305 0.1768007 0.1770754 0.1773581
 0.1776472 0.1779369 0.1782213 0.1784964 0.17876 0.1790117 0.1792528 0.1794884 0.1797287 0.1799832
 0.180249 0.1805112 0.1807601 0.181001 0.1812427 0.1814865 0.1817288 0.1819682 0.1822059 0.1824431
 0.1826825 0.1829273 0.1831793 0.1834375 0.1836978 0.1839547 0.1842033 0.1844416 0.1846707 0.1848958
 0.1851248 0.1853629 0.1856095 0.1858627 0.1861202 0.1863772 0.1866269 0.1868667 0.1871004 0.1873345
 0.1875733 0.1878165 0.1880596 0.1883006 0.1885418 0.1887851 0.1890286 0.18927 0.1895098 0.1897501
 0.1899937 0.1902426 0.1904955 0.1907501 0.1910072 0.1912672 0.191525 0.1917754 0.1920204 0.192265
 0.1925123 0.1927648 0.1930253 0.1932922 0.193557 0.1938073 0.1940345 0.1942446 0.1944564 0.1946834
 0.1949217 0.195159 0.195387 0.1956024 0.1958078 0.1960151 0.196238 0.1964789 0.1967294 0.1969778
 0.1972153 0.1974436 0.1976763 0.1979227 0.1981763 0.1984277 0.1986778 0.1989291 0.1991799 0.199429
 0.1996762 0.1999192 0.2001593 0.2004036 0.200655 0.2009107 0.2011693 0.2014271 0.2016756 0.2019137
 0.2021508 0.2023928 0.2026361 0.2028778 0.2031189 0.2033601 0.2036051 0.2038559 0.2041063 0.2043498
 0.2045892 0.2048273 0.2050607 0.205293 0.2055357 0.2057923 0.2060574 0.2063262 0.2065891 0.2068351
 0.2070697 0.2073102 0.2075595 0.2078067 0.2080469 0.2082788 0.2085007 0.2087184 0.208937 0.2091376
 0.2092634 0.2091743 0.2085285 0.2066589 0.2025642 0.1951162 0.1835195 0.1678275 0.1491012 0.1290237
 0.1092787 0.09112283 0.07528384 0.06207827 0.05157626 0.04369386 0.03824767 0.03506844 0.03412858 0.03566769
 0.04032309 0.04875197 0.06020091 0.07123215 0.07705911 0.0753312 0.06838644 0.06112 0.05691121 0.05598589
 0.05688249 0.05836046 0.06003697 0.06215035 0.06509362 0.06897393 0.07360131 0.0789701 0.08549081 0.09347203
 0.1024958 0.1115871 0.1200519 0.128028 0.1361669 0.1448585 0.1538242 0.1623892 0.1700213 0.1766088
 0.1823676 0.187596 0.1924992 0.1971664 0.2016304 0.2058719 0.2097311 0.2128758 0.2149608 0.2158896
 0.2159334 0.2155784 0.2152403 0.2151072 0.2151957 0.2154766 0.2159287 0.2165333 0.21727 0.2181143
 0.2190291 0.2199719 0.2209108 0.2218263 0.2227055 0.2235396 0.2243206 0.2250368 0.2256798 0.226252
 0.2267613 0.2272177 0.2276381 0.2280421 0.2284385 0.2288248 0.229197 0.2295503 0.2298757 0.2301663
 0.2304243 0.230658 0.2308787 0.2310985 0.2313229 0.231546 0.2317598 0.2319667 0.2321769 0.2323967
 0.2326229 0.2328471 0.2330627 0.2332688 0.2334688 0.2336664 0.2338642 0.2340644 0.2342655 0.2344613
 0.2346486 0.2348326 0.23502 0.2352118 0.2354072 0.2356083 0.2358173 0.2360319 0.2362475 0.2364606
 0.2366752 0.2369018 0.2371441 0.2373877 0.2376163 0.2378308 0.238044 0.2382615 0.2384826 0.2387061
 0.2389207 0.2391034 0.2392437 0.2393673 0.2395219 0.2397364 0.239995 0.2402529 0.2404813 0.2406903
 0.2409038 0.2411258 0.2413375 0.2415201 0.2416786 0.241851 0.24208 0.2423636 0.2426543 0.242918
 0.2431634 0.243408 0.2436534 0.2438995 0.244141 0.2443482 0.2444924 0.2446017 0.2447646 0.2450598
 0.2454754 0.2459058 0.2462459 0.2464858 0.2466952 0.2469406 0.247244 0.2475703 0.2478047 0.2478258
 0.2476846 0.2476398 0.247922 0.2485032 0.2491612 0.2497115 0.2501202 0.2504417 0.2507216 0.2509542
 0.2510913 0.2510963 0.2510229 0.2510429 0.2513325 0.2518886 0.2525131 0.2530156 0.2533664 0.2536249
 0.2538322 0.2540078 0.254106 0.2539551 0.2534389 0.2528168 0.2526526 0.2532702 0.2543892 0.2554247
 0.2560641 0.2564237 0.256717 0.2569912 0.2571951 0.2572286 0.2568099 0.2556378 0.2539858 0.2528658
 0.2531896 0.2548489 0.2568903 0.2584663 0.2593676 0.2598107 0.2600676 0.2602832 0.2603653 0.2599987
 0.2589984 0.2577717 0.2572087 0.2578588 0.2593117 0.2606365 0.2613304 0.2615802 0.2617631 0.2620302
 0.2622062 0.2617401 0.2600192 0.2572687 0.2550008 0.2549493 0.2573753 0.2607544 0.2632874 0.2644506
 0.2648563 0.2649229 0.2642547 0.2623524 0.2593676 0.256036 0.2534282 0.2527897 0.2547215 0.2581614
 0.2609872 0.2621052 0.2623745 0.2632005 0.2648609 0.2665178 0.2673057 0.2669991 0.2658622 0.2641775
 0.2621136 0.2601563 0.2593653 0.2606278 0.2635854 0.266757 0.2689002 0.26995 0.2703853 0.2697908
 0.2665613 0.2598341 0.2519135 0.2476393 0.2501179 0.2574733 0.2648616 0.2692354 0.2710171 0.2718213
 0.2722831 0.2718848 0.2692759 0.2630253 0.2538982 0.2462617 0.2451239 0.2511818 0.2600279 0.2662522
 0.2671087 0.2628002 0.2555228 0.2488189 0.2461231 0.2486779 0.254993 0.2623171 0.2682906 0.27159
 0.2719042 0.269811 0.2667498 0.2646732 0.2646247 0.2651971 0.2636065 0.259205 0.2545536 0.2516738
 0.2489451 0.2441256 0.2392627 0.2393396 0.2457828 0.2540636 0.2587783 0.2591188 0.257914 0.2564963
 0.2524556 0.243132 0.230662 0.2220959 0.2232333 0.2325999 0.2427565 0.2475745 0.2471071 0.245434
 0.2452215 0.2450036 0.2412568 0.2329919 0.2241161 0.2201641 0.2224255 0.2267927 0.2286429 0.2265498
 0.2207083 0.211432 0.2017528 0.1983958 0.2061227 0.2219142 0.2373273 0.2454552 0.2434922 0.2312466
 0.212058 0.1947425 0.1893134 0.1980388 0.2126852 0.2220793 0.2209879 0.2110836 0.1961399 0.1794026
 0.1650442 0.158704 0.1641312 0.1793418 0.1966543 0.2065488 0.2029623 0.1879793 0.1721421 0.1668747
 0.174148 0.1851504 0.1901441 0.1872814 0.1812685 0.1772755 0.1779175 0.1828076 0.1889999 0.1937447
 0.1966826 0.1968294 0.1896426 0.1725098 0.1520891 0.139927 0.1404597 0.1487639 0.1597981 0.1728988
 0.1857467 0.1913131 0.1857968 0.1758492 0.1728888 0.1809767 0.1933428 0.2006371 0.2001649 0.196351
 0.1939254 0.1928969 0.1909148 0.1887172 0.1903304 0.1974912 0.2065887 0.2126908 0.2146791 0.2147874
 0.2148164 0.2147809 0.2142034 0.2129261 0.2110186 0.2089082 0.2072593 0.2062277 0.2053212 0.2041533
 0.2024267 0.1988304 0.1913414 0.1800896 0.1691455 0.163307 0.1630452 0.1648324 0.1664009 0.1680905
 0.1679552 0.1603545 0.1434231 0.125218 0.1178474 0.1257681 0.1424789 0.1579208 0.1661278 0.1657103
 0.1569095 0.1419627 0.1276926 0.1233315 0.1329333 0.151461 0.1701955 0.1842496 0.1930256 0.1960221
 0.1920695 0.1824673 0.1721544 0.1668826 0.1697698 0.1799379 0.1927114 0.2007224 0.1975456 0.184163
 0.171827 0.1737019 0.1909752 0.2107798 0.2206548 0.2211621 0.2206794 0.222385 0.2227544 0.2208184
 0.2217926 0.2299548 0.2423525 0.2517023 0.2527773 0.2444727 0.2290945 0.2128163 0.2040572 0.2067414
 0.2158357 0.2228124 0.2238905 0.219541 0.2094531 0.1945725 0.1823575 0.1822959 0.1948938 0.2104459
 0.2200597 0.2237508 0.2263876 0.2293357 0.2288287 0.221687 0.2105921 0.2024073 0.2013779 0.2054314
 0.2097057 0.2116781 0.2112202 0.2077196 0.2004575 0.1917967 0.1872064 0.1905426 0.2000834 0.2101469
 0.2161816 0.2176378 0.2166312 0.2152107 0.2139492 0.2121194 0.2091346 0.2064016 0.207022 0.2124217
 0.220007 0.2258081 0.2290183 0.2322354 0.2373867 0.2430621 0.2462177 0.245491 0.2425077 0.2404965
 0.2417255 0.2456992 0.2495085 0.2503087 0.2480318 0.2457036 0.2466474 0.251297 0.2571336 0.2615419
 0.2639422 0.2652397 0.2662824 0.2671352 0.2670533 0.2650583 0.2613658 0.2582273 0.2583532 0.2622283
 0.2676392 0.2719425 0.2741815 0.274952 0.2749716 0.2743082 0.2728016 0.2707687 0.2690235 0.2682361
 0.2684568 0.2692878 0.2703132 0.2712767 0.2720518 0.2726219 0.273042 0.2733525 0.2735739 0.2737679
 0.2739956 0.2742054 0.2742831 0.2742542 0.2743258 0.2746533 0.2751409 0.2755489 0.2757156 0.2755753
 0.2750355 0.2740088 0.272568 0.2709217 0.2691886 0.2673184 0.2653547 0.2637235 0.2631073 0.2639255
 0.2659394 0.2683974 0.2705452 0.2719968 0.2727481 0.2730156 0.2730885 0.2731989 0.2734159 0.2736509
 0.2737777 0.2737389 0.2735469 0.2732279 0.2728006 0.2722946 0.2717471 0.2711646 0.2705133 0.2697796
 0.269033 0.2683976 0.2679456 0.2676247 0.2673017 0.2668736 0.2663291 0.2657101 0.2650388 0.2642952
 0.2634548 0.2625417 0.2616394 0.2608346 0.2601352 0.2594485 0.2586511 0.2576807 0.2565739 0.2554366
 0.2543743 0.2534256 0.2525505 0.2516749 0.2507309 0.2496618 0.2484359 0.2470728 0.2456309 0.2441567
 0.2426623 0.2411472 0.2396137 0.2380565 0.2364593 0.2348122 0.2331225 0.2314064 0.2296742 0.2279205
 0.2261109 0.2241631 0.2219504 0.2193368 0.2162156 0.2125226 0.2082483 0.2034669 0.1983457 0.1931041
 0.1879497 0.1830389 0.1784766 0.1743451 0.1707314 0.1677215 0.1653741 0.163716 0.1627631 0.1625296
 0.1630151 0.1641868 0.1659623 0.1682065 0.1707539 0.1734381 0.1760964 0.1785761 0.180786 0.1827495
 0.184578 0.1863691 0.1881341 0.1898272 0.191421 0.1929237 0.194324 0.1955663 0.1965992 0.197418
 0.1980384 0.1984634 0.1987005 0.1987846 0.1987589 0.1986445 0.1984405 0.1981564 0.1978506 0.1976448
 0.1976826 0.198054 0.1987446 0.1996472 0.2006244 0.2015799 0.2024859 0.2033507 0.2041801 0.2049769
 0.205754 0.2065359 0.2073631 0.2082932 0.2093773 0.2106357 0.2120658 0.2136534 0.2153553 0.2170892
 0.2187619 0.2203015 0.2216662 0.2228373 0.2238118 0.224594 0.225197 0.2256475 0.2259761 0.2262008
 0.2263227 0.2263272 0.2261907 0.2259043 0.225492 0.2249883 0.2244104 0.2237733 0.2231155 0.2224809
 0.2218849 0.2213143 0.2207529 0.2201951 0.2196394 0.2190766 0.218493 0.2178892 0.2172864 0.2167
 0.2161152 0.2154934 0.2147916 0.2139752 0.2130341 0.2119889 0.2108634 0.2096543 0.2083438 0.2069305
 0.2054358 0.203884 0.2022863 0.2006384 0.1989315 0.1971583 0.1953041 0.1933437 0.1912754 0.1891536
 0.187068 0.1850938 0.1832647 0.1815705 0.1799658 0.1784053 0.1768832 0.1754233 0.1740355 0.1727076
 0.1714364 0.1702382 0.1691268 0.1680965 0.1671301 0.1662178 0.1653664 0.16459 0.163897 0.1632927
 0.1627838 0.1623693 0.1620409 0.1618049 0.1616797 0.1616521 0.1616513 0.1615899 0.1614266 0.1611837
 0.160917 0.1606736 0.1604682 0.1602938 0.1601354 0.1599604 0.1597046 0.1592862 0.1586291 0.1576731
 0.156389 0.1548 0.15298 0.1510327 0.1490784 0.1472404 0.1456196 0.1442812 0.1432528 0.1425041
 0.141941 0.14146 0.141027 0.140697 0.1405579 0.1406348 0.1408247 0.1409523 0.1409309 0.1408561
 0.1409129 0.1412175 0.1417556 0.1424223 0.1430905 0.1436689 0.1441166 0.1444157 0.1445641 0.1445933
 0.1445454 0.1444258 0.1442173 0.1439282 0.1435936 0.1432392 0.1428647 0.1424418 0.1419312 0.1413235
 0.1406438 0.1398993 0.1390576 0.138085 0.1369635 0.1356992 0.1343861 0.1332422 0.1325165 0.1323487
 0.1327091 0.1334304 0.1343149 0.1352537 0.1361817 0.1369049 0.1371621 0.1370187 0.1370614 0.1379661
 0.1398457 0.1421324 0.1440965 0.1453649 0.1459394 0.1459198 0.1453756 0.1443751 0.1429439 0.1410308
 0.1386222 0.1358228 0.1327804 0.129655 0.1266667 0.1240158 0.1217714 0.1199244 0.1184684 0.1174564
 0.1170219 0.1167851 0.1148855 0.1089739 0.09984065 0.09300654 0.0940771 0.1024361 0.1116835 0.1163998
 0.116454 0.11474 0.1132433 0.112271 0.1117423 0.111811 0.1126016 0.1139596 0.1154724 0.1167087
 0.1174943 0.1178857 0.1178704 0.1171226 0.1149351 0.1104556 0.1033787 0.0945629 0.08572429 0.07841058
 0.07331312 0.07031775 0.06883769 0.06813649 0.06768452 0.06741121 0.0676151 0.06861222 0.07046887 0.07303455
 0.07610947 0.07944215 0.0826289 0.08526409 0.08726031 0.08884473 0.09019193 0.09121665 0.09174837 0.09175432
 0.09135537 0.09072807 0.09001948 0.08928839 0.08848217 0.0874925 0.0863072 0.08513555 0.08429506 0.08391607
 0.0838436 0.08386186 0.08388524 0.08390154 0.08388869 0.08384583 0.08380793 0.08382018 0.08395152 0.08426952
 0.0847373 0.08519921 0.08551227 0.08565503 0.08570258 0.08569264 0.08549871 0.08493552 0.08408874 0.08335752
 0.08295265 0.082537 0.08166416 0.08044954 0.07950029 0.07923399 0.07950988 0.07989535 0.08007255 0.07997383
 0.07973591 0.07963721 0.07993004 0.08054917</values></Ydata></ScSm><ScRf><Ydata ylabel="Single channel"><values byteorder="INTEL" format="FLOAT32" numvalues="1820"> 0.06074414 0.06089559 0.06098703 0.06101918 0.0610128 0.06101203 0.06106919 0.06120851 0.06140355 0.0615925
 0.06172271 0.06178488 0.06179773 0.06176814 0.0616977 0.06163007 0.06164699 0.06178979 0.06200247 0.0621686
 0.06220677 0.06214476 0.06210443 0.06217996 0.06230778 0.06228656 0.06196754 0.06142564 0.06090937 0.06061276
 0.06055541 0.06072472 0.06119702 0.06191711 0.062447 0.06227562 0.06145889 0.06065451 0.06039472 0.06057565
 0.06075855 0.06068183 0.0603472 0.0599153 0.05974232 0.06028572 0.06165404 0.06323184 0.06389926 0.062741
 0.0597036 0.05579776 0.05271924 0.05193961 0.05367383 0.05658966 0.05880611 0.05939187 0.05881008 0.05796464
 0.05722161 0.05653122 0.05607016 0.05627852 0.05725925 0.05836654 0.05854312 0.05723275 0.0550413 0.05329629
 0.05282997 0.05346489 0.054735 0.05639157 0.05767494 0.05690774 0.05314929 0.04827756 0.04614791 0.04893027
 0.05479454 0.05969272 0.06095373 0.05879214 0.05514891 0.05207986 0.05096165 0.05212161 0.05480023 0.05778243
 0.06012637 0.06119501 0.06049002 0.05808806 0.05507053 0.05300331 0.05297518 0.0551643 0.05879587 0.06221854
 0.0636593 0.06253032 0.05981761 0.05704374 0.05526746 0.05508371 0.0567747 0.06002089 0.06388113 0.06733137
 0.06967544 0.07062209 0.07035924 0.06943826 0.06835236 0.06743888 0.06715871 0.06781852 0.06882487 0.06890896
 0.06750475 0.06550884 0.06436096 0.06455648 0.0652508 0.06528427 0.06435643 0.06284684 0.06067058 0.05723234
 0.05279776 0.04888488 0.04674934 0.04641912 0.04758586 0.05009305 0.05287738 0.05391311 0.05242636 0.05030589
 0.05023357 0.052825 0.05631222 0.05870215 0.05962534 0.06019336 0.06157067 0.06378333 0.06557342 0.06534424
 0.06273884 0.05953185 0.0583785 0.0602088 0.06333045 0.06551023 0.0663327 0.06696013 0.06810202 0.06891711
 0.06789613 0.06466185 0.06092326 0.05940739 0.06147812 0.06576963 0.06918027 0.06916419 0.06544396 0.06007124
 0.05583172 0.05431702 0.05550713 0.05884503 0.06384948 0.06953907 0.07416979 0.07621179 0.07546012 0.07296109
 0.0698138 0.06614913 0.06169227 0.05745056 0.055931 0.05877765 0.06467313 0.07043502 0.07385361 0.07479364
 0.07396394 0.07156581 0.06750228 0.06269531 0.05951359 0.05993558 0.06316667 0.06608608 0.06650822 0.06517603
 0.06416643 0.06430758 0.06486169 0.06510808 0.06538124 0.06650058 0.06858988 0.07076101 0.07196607 0.07194711
 0.07128674 0.07073541 0.07052991 0.07021596 0.06928974 0.06820082 0.06830271 0.07036585 0.07351351 0.07612096
 0.07744585 0.07790066 0.07796333 0.07733709 0.07537626 0.0722957 0.06967305 0.06928091 0.07137051 0.0745085
 0.07706787 0.07840322 0.07870183 0.0783907 0.07784487 0.07727055 0.07677072 0.07660688 0.07713167 0.07828655
 0.07948451 0.08019543 0.08038439 0.08025118 0.07984532 0.07913613 0.07828917 0.07767998 0.07762398 0.07813986
 0.07898824 0.0798863 0.08061005 0.08096013 0.08083227 0.08036479 0.07985611 0.07949226 0.0792833 0.0792549
 0.07950841 0.08003753 0.08063888 0.08108574 0.08130895 0.08136541 0.08131111 0.08116214 0.08094229 0.08072893
 0.08064519 0.08077568 0.08106601 0.08135864 0.08157374 0.08178705 0.08206368 0.08229674 0.08231756 0.08212268
 0.0818915 0.08179465 0.08185668 0.08199432 0.08211023 0.08211696 0.08193102 0.08154167 0.08110707 0.08089755
 0.08108181 0.08160388 0.08227896 0.08292992 0.0834215 0.08368149 0.08374944 0.08373417 0.0836864 0.08356485
 0.08334245 0.08310251 0.083012 0.08319806 0.08363415 0.0841507 0.08457032 0.08481829 0.08491752 0.08494784
 0.0850168 0.08518023 0.08536246 0.0854288 0.08535919 0.08528418 0.08532774 0.08546524 0.08556169 0.08552819
 0.08542262 0.08539169 0.08551855 0.08574747 0.08596467 0.08612581 0.08628136 0.08648478 0.08669327 0.08678243
 0.08668104 0.08647031 0.08630352 0.08624338 0.08624285 0.08627556 0.08639356 0.08662347 0.08687714 0.08702705
 0.08704726 0.08703137 0.08706952 0.08714177 0.08715004 0.08703496 0.08683836 0.08666037 0.08657885 0.08660596
 0.08669415 0.08677165 0.08678516 0.08672565 0.08662084 0.08650558 0.08640236 0.086334 0.08634657 0.08648952
 0.08674471 0.08698592 0.08705152 0.08688618 0.08660356 0.08638834 0.08632903 0.08635065 0.08630823 0.0861305
 0.08586566 0.08560796 0.08541058 0.08526972 0.08516162 0.08507514 0.08502525 0.08505056 0.08517558 0.08534931
 0.08544327 0.08535342 0.08510341 0.08482107 0.08462198 0.0845376 0.08453073 0.08454341 0.0845452 0.08456156
 0.08463271 0.08473143 0.08476651 0.08469262 0.08457352 0.08451584 0.08458124 0.08476675 0.08500841 0.08518936
 0.08521184 0.08509582 0.08496599 0.08492281 0.08496228 0.08502921 0.08509858 0.08517826 0.08527008 0.08536772
 0.08548446 0.08565441 0.0858973 0.08618621 0.08645261 0.08663231 0.08672152 0.08679155 0.08693674 0.08719854
 0.08753676 0.08786821 0.08813123 0.08832324 0.08848608 0.08865549 0.08883289 0.08901437 0.08922733 0.0895066
 0.08984099 0.09017738 0.09047999 0.09075937 0.09104126 0.09133264 0.09162806 0.09193748 0.09229416 0.09272149
 0.09318291 0.0935813 0.09383577 0.09396115 0.09406091 0.09424752 0.09456728 0.09496763 0.09532069 0.09552032
 0.09559126 0.09567417 0.09587237 0.0961464 0.09639744 0.0966186 0.09690367 0.09731185 0.0977767 0.09816785
 0.0984188 0.09857779 0.09874119 0.09894831 0.09914851 0.09927435 0.09933198 0.09939349 0.09950828 0.09966701
 0.09986539 0.1001482 0.1005453 0.100998 0.1013995 0.1016921 0.1018912 0.1020345 0.1021461 0.1022333
 0.1022883 0.1023092 0.1023305 0.1024006 0.1025133 0.1026021 0.1026284 0.1026364 0.1026985 0.1028436
 0.1030642 0.1033521 0.1036849 0.1040044 0.1042666 0.1045108 0.1048227 0.1052071 0.1055468 0.1057279
 0.1057668 0.1057672 0.1057881 0.1058218 0.1058814 0.1060255 0.1062833 0.1066122 0.1069518 0.1072828
 0.1076172 0.1079556 0.1082696 0.1085119 0.1086442 0.1086668 0.1086298 0.1086171 0.1087087 0.1089373
 0.1092637 0.1096015 0.1098793 0.1100702 0.110165 0.1101572 0.1100858 0.1100567 0.1101619 0.1103697
 0.110535 0.1105254 0.110311 0.1099315 0.1094206 0.1087966 0.1081059 0.107437 0.1068781 0.1064736
 0.1062339 0.1061828 0.1063718 0.1068247 0.1074752 0.1081896 0.1088502 0.109385 0.1097159 0.1097426
 0.109419 0.1088174 0.108083 0.1073416 0.1066612 0.1060557 0.1054908 0.1049257 0.1043962 0.1040538
 0.1040941 0.1046407 0.1056845 0.1070924 0.1086482 0.1101211 0.1113555 0.112329 0.1131243 0.113837
 0.1145143 0.1151725 0.1158341 0.1165095 0.1171599 0.117725 0.1181904 0.1185977 0.1189876 0.1193603
 0.119692 0.1199657 0.1201896 0.1203979 0.1206174 0.1208199 0.1209335 0.1209217 0.1208247 0.1207058
 0.1205795 0.120409 0.1201511 0.1197897 0.1193588 0.1189668 0.1187894 0.119 0.1196715 0.1207278
 0.1219989 0.1233259 0.1246085 0.1257668 0.1267103 0.1273843 0.1278255 0.1281348 0.1284033 0.1286768
 0.1289694 0.1292783 0.1295884 0.1298835 0.1301604 0.1304369 0.1307419 0.1310889 0.1314492 0.1317659
 0.1320106 0.1322228 0.1324802 0.1328271 0.1332319 0.1336206 0.1339542 0.1342601 0.1345748 0.1348792
 0.1351213 0.1352933 0.1354504 0.135657 0.135941 0.1362907 0.1366613 0.1369891 0.1372317 0.1374053
 0.1375675 0.1377628 0.1379954 0.1382484 0.1385078 0.1387651 0.1390141 0.1392612 0.1395294 0.1398323
 0.1401405 0.140394 0.1405615 0.1406788 0.1408162 0.1410116 0.1412433 0.1414671 0.1416697 0.1418843
 0.1421541 0.14248 0.1428065 0.1430648 0.1432308 0.1433401 0.1434509 0.1435999 0.1437901 0.1440075
 0.1442359 0.1444603 0.1446708 0.1448682 0.145064 0.1452702 0.145488 0.1457082 0.145921 0.1461244
 0.1463229 0.1465216 0.1467277 0.1469574 0.1472284 0.1475347 0.1478358 0.1480839 0.1482638 0.1483994
 0.1485249 0.1486616 0.1488176 0.148993 0.1491806 0.1493702 0.1495573 0.1497466 0.1499444 0.1501522
 0.1503674 0.1505873 0.1508086 0.151027 0.1512418 0.1514606 0.1516918 0.1519279 0.1521461 0.1523306
 0.1524929 0.1526622 0.1528586 0.1530755 0.153288 0.1534772 0.1536486 0.1538258 0.1540249 0.1542387
 0.1544477 0.1546402 0.1548204 0.1550019 0.1551941 0.1553952 0.1555957 0.1557907 0.1559858 0.1561912
 0.1564087 0.1566266 0.1568294 0.1570137 0.1571897 0.1573678 0.1575513 0.1577426 0.1579477 0.1581671
 0.1583898 0.1586024 0.1588003 0.1589887 0.1591758 0.1593659 0.1595597 0.1597563 0.1599547 0.1601517
 0.1603458 0.1605411 0.1607444 0.1609575 0.1611773 0.1613999 0.1616207 0.1618353 0.1620418 0.1622421
 0.16244 0.1626416 0.1628526 0.1630729 0.1632982 0.1635262 0.1637564 0.1639836 0.1641984 0.1643957
 0.1645779 0.1647514 0.1649212 0.1650878 0.1652509 0.1654135 0.1655807 0.165756 0.1659421 0.1661425
 0.1663536 0.166565 0.1667703 0.1669711 0.1671684 0.1673627 0.1675585 0.1677583 0.1679582 0.1681585
 0.1683667 0.168585 0.1688036 0.1690131 0.1692131 0.1694105 0.1696153 0.1698307 0.1700472 0.1702545
 0.1704554 0.1706593 0.17087 0.171088 0.1713132 0.1715386 0.171755 0.1719617 0.1721643 0.1723665
 0.1725708 0.1727782 0.172985 0.1731889 0.1733943 0.173604 0.1738147 0.1740271 0.1742471 0.1744755
 0.1747064 0.1749325 0.1751419 0.1753291 0.1755098 0.175708 0.1759278 0.1761556 0.1763794 0.1765921
 0.1767945 0.1770011 0.1772206 0.1774262 0.1775546 0.1774847 0.1769378 0.1753558 0.1718835 0.1655528
 0.1556861 0.1423327 0.1263942 0.1092978 0.09247875 0.07701927 0.06355008 0.0523358 0.04341839 0.03671202
 0.0320609 0.02933092 0.02850712 0.02979726 0.0337472 0.040921 0.05067997 0.06009565 0.06508566 0.0636372
 0.05773158 0.05153802 0.04794586 0.04715977 0.04793815 0.04921673 0.05065703 0.05245538 0.05495191 0.05825005
 0.06219542 0.06678224 0.07235684 0.07918064 0.08689574 0.09466702 0.1019004 0.1087165 0.1156777 0.1231157
 0.130783 0.1380991 0.1446218 0.1502736 0.1552427 0.1597705 0.1640156 0.168043 0.1718777 0.1755102
 0.1788185 0.1815279 0.1833395 0.1841625 0.1842262 0.1839467 0.1836787 0.1835841 0.1836836 0.1839568
 0.184381 0.1849317 0.1855901 0.1863409 0.1871568 0.1880005 0.1888417 0.1896608 0.1904415 0.191172
 0.1918467 0.1924642 0.1930275 0.1935434 0.1940166 0.1944486 0.1948473 0.1952282 0.1956007 0.1959637
 0.1963124 0.1966409 0.1969416 0.197211 0.1974548 0.1976827 0.1979021 0.1981169 0.1983286 0.1985385
 0.1987495 0.1989649 0.199181 0.1993898 0.1995883 0.1997821 0.1999797 0.2001864 0.2003998 0.2006094
 0.2008042 0.2009833 0.201156 0.2013324 0.2015168 0.201709 0.201907 0.202112 0.2023268 0.2025472
 0.2027593 0.2029547 0.2031391 0.2033207 0.2035019 0.2036899 0.2038983 0.2041309 0.2043726 0.2046034
 0.2048115 0.2049983 0.2051799 0.2053747 0.205581 0.2057754 0.2059422 0.2060949 0.206264 0.2064696
 0.2067054 0.2069453 0.2071679 0.207373 0.2075733 0.2077747 0.2079712 0.2081543 0.2083255 0.2085071
 0.2087285 0.2089906 0.2092616 0.2095162 0.2097567 0.2099895 0.2102123 0.2104307 0.2106509 0.2108524
 0.211004 0.2111174 0.2112607 0.2115026 0.2118441 0.2122119 0.2125283 0.2127806 0.2130103 0.2132575
 0.2135362 0.2138212 0.2140231 0.2140465 0.2139387 0.2139192 0.2141804 0.2146963 0.2152766 0.2157648
 0.2161342 0.2164352 0.2167074 0.2169379 0.2170747 0.2170826 0.2170151 0.2170328 0.2172955 0.2178012
 0.2183725 0.2188367 0.2191623 0.2194004 0.2195908 0.2197568 0.2198652 0.2197666 0.2193516 0.2188359
 0.2187093 0.2192595 0.2202447 0.2211519 0.2217086 0.2220228 0.2222898 0.2225544 0.2227708 0.22285
 0.2225455 0.221589 0.2202058 0.2192647 0.2195587 0.2210061 0.2227935 0.2241934 0.2250203 0.2254493
 0.2257048 0.2259121 0.2259992 0.2256986 0.2248503 0.2238086 0.2233533 0.2239702 0.225304 0.2265362
 0.2272165 0.2274963 0.227695 0.2279427 0.2281008 0.2277105 0.2262445 0.2238852 0.2219387 0.2219229
 0.22408 0.2270857 0.2293634 0.2304421 0.2308433 0.2309269 0.2303527 0.2286948 0.2260977 0.2232148
 0.220984 0.2204824 0.2222171 0.2252515 0.2277407 0.2287478 0.2290362 0.2298329 0.2313676 0.2328886
 0.2336241 0.2333797 0.2324081 0.2309775 0.2292358 0.2275922 0.226963 0.2281247 0.2307613 0.2335695
 0.2354652 0.2364119 0.2368481 0.2364061 0.2336562 0.2278223 0.2209243 0.2172216 0.2194563 0.2259893
 0.2325591 0.2364731 0.2380959 0.2388557 0.2393229 0.2390427 0.236814 0.2313611 0.223353 0.2166512
 0.2156911 0.2210975 0.2289791 0.2345571 0.2354024 0.2316846 0.2253306 0.2194652 0.2171325 0.2194488
 0.2251106 0.2316831 0.2370657 0.2400751 0.2404335 0.2386557 0.236024 0.2342757 0.2343333 0.2349368
 0.2336093 0.2297816 0.2257368 0.2232714 0.2209388 0.2167434 0.2125203 0.2127269 0.2186357 0.2261873
 0.230544 0.2309928 0.2300749 0.2289743 0.2255142 0.2172996 0.2062496 0.1987044 0.1998834 0.2084606
 0.2177399 0.2222106 0.2219314 0.22058 0.2205558 0.2205338 0.2173321 0.2100577 0.20225 0.1989204
 0.2012328 0.2054671 0.2074402 0.2058494 0.2008413 0.1926837 0.1841584 0.1814404 0.1889148 0.203838
 0.2184677 0.2264274 0.2250713 0.2141538 0.1967396 0.1810499 0.1764711 0.1851672 0.1994569 0.208865
 0.2084437 0.1997055 0.1861569 0.1708674 0.1578609 0.1526167 0.1588211 0.1746058 0.1925052 0.2031622
 0.2005322 0.1866065 0.1718429 0.1676594 0.1760378 0.1881163 0.1940808 0.1920572 0.1867921 0.1835586
 0.1851068 0.1910902 0.198439 0.2042727 0.2082084 0.2091205 0.2020612 0.1841999 0.1626862 0.1499275
 0.1507125 0.1597985 0.1718178 0.1860808 0.2000678 0.2061542 0.2002038 0.1893899 0.1860566 0.1946124
 0.2077697 0.2154514 0.2147603 0.2104822 0.207736 0.2065437 0.2043677 0.2019917 0.2037533 0.211544
 0.221505 0.2283401 0.2308405 0.2314075 0.2319836 0.2325703 0.2326132 0.2319115 0.2305439 0.2289931
 0.2279907 0.2277013 0.2275721 0.2271622 0.2261238 0.2229557 0.2153327 0.2033722 0.191693 0.1857491
 0.1860508 0.1885611 0.1907052 0.1928747 0.1928191 0.1840566 0.1644302 0.1431474 0.1340777 0.1423456
 0.1605127 0.1770672 0.1852443 0.183617 0.172675 0.1550401 0.1381915 0.132092 0.1410488 0.1595844
 0.178297 0.1919504 0.2000006 0.2020834 0.1970769 0.1863373 0.1749447 0.1687779 0.1709593 0.1805118
 0.1926609 0.2000237 0.1962379 0.1823157 0.1694102 0.1705433 0.1869229 0.2058984 0.2151859 0.2152896
 0.2144181 0.2157201 0.2157771 0.2136408 0.2143927 0.2222184 0.2342735 0.2434916 0.2447923 0.2370901
 0.222613 0.2073739 0.1995976 0.2030971 0.21287 0.2204717 0.2221421 0.2183144 0.2086633 0.1941715
 0.182347 0.1827056 0.1957572 0.2117871 0.2218901 0.2260796 0.2292257 0.2326686 0.2325835 0.2257604
 0.2149532 0.2071754 0.2067774 0.2116654 0.2168846 0.2198396 0.2203305 0.217616 0.2108773 0.202598
 0.1985838 0.2029321 0.2137743 0.2249819 0.2316164 0.2330266 0.2314462 0.2290876 0.2266323 0.2234015
 0.2188525 0.2145001 0.2136051 0.2176933 0.2241391 0.2288715 0.2310308 0.2332438 0.2374891 0.2423717
 0.2448272 0.2434731 0.2399233 0.237378 0.2380576 0.2414433 0.2446578 0.2449102 0.2421519 0.2393814
 0.2398853 0.2440961 0.2495376 0.253647 0.2558694 0.2571022 0.2581702 0.2591076 0.259131 0.2572247
 0.2535663 0.2503597 0.2502754 0.2538068 0.2588093 0.2627272 0.2646609 0.2652151 0.265091 0.2643501
 0.2628411 0.2608734 0.2592215 0.2585176 0.2588076 0.2597041 0.2607822 0.2617593 0.2624896 0.2629599
 0.2632508 0.2634344 0.2635403 0.2636075 0.2636729 0.2636957 0.2636018 0.2634437 0.2634185 0.2636523
 0.2640328 0.2643247 0.2643841 0.2641701 0.2636179 0.2626534 0.2613378 0.2598589 0.2583268 0.256694
 0.2549916 0.2536028 0.2531562 0.2540455 0.2560592 0.2585089 0.2607055 0.2623038 0.2632927 0.2638108
 0.2640237 0.2640817 0.264082 0.2640408 0.2639219 0.2637007 0.2633949 0.2630401 0.2626606 0.262276
 0.2619194 0.261622 0.2613763 0.2611263 0.2608023 0.260368 0.2598429 0.2592859 0.258745 0.2582086
 0.257608 0.256875 0.2559988 0.2550338 0.2540663 0.2531686 0.2523599 0.2515985 0.2508213 0.249991
 0.2490894 0.2480832 0.2469516 0.2457644 0.2446772 0.2438052 0.2431207 0.2424991 0.2418326 0.2410731
 0.2402096 0.2392537 0.2382391 0.2371976 0.2361336 0.2350293 0.2338624 0.2326125 0.2312654 0.2298249
 0.2283088 0.2267334 0.2251129 0.2234655 0.221788 0.2200166 0.2180312 0.2157035 0.2129274 0.2096183
 0.2057298 0.2013038 0.1964957 0.1915316 0.186629 0.1819493 0.1776076 0.1737057 0.1703429 0.1675963
 0.1655036 0.164076 0.1633259 0.1632758 0.1639374 0.1652809 0.1672252 0.1696517 0.1724233 0.1753903
 0.1783877 0.1812511 0.1838652 0.1862172 0.1883899 0.1904763 0.1924911 0.1943707 0.1960472 0.1974972
 0.1987293 0.1997578 0.2006033 0.2012989 0.2018808 0.2023767 0.2028035 0.20317 0.2034783 0.2037297
 0.2039337 0.2041133 0.2042968 0.2045017 0.2047278 0.2049708 0.2052373 0.2055451 0.2059147 0.2063572
 0.2068631 0.2074066 0.2079672 0.2085445 0.209149 0.2097943 0.2105085 0.2113383 0.2123215 0.2134578
 0.2147132 0.2160453 0.2174086 0.2187388 0.2199489 0.220957 0.2217197 0.2222326 0.2225089 0.2225744
 0.2224784 0.2222792 0.222009 0.2216623 0.2212256 0.2207035 0.2201163 0.2194837 0.2188163 0.2181184
 0.2173955 0.2166644 0.2159501 0.2152699 0.2146218 0.2139923 0.2133707 0.2127541 0.2121451 0.211548
 0.2109663 0.2103992 0.2098411 0.2092872 0.2087322 0.2081576 0.2075236 0.2067854 0.2059266 0.2049695
 0.2039454 0.2028594 0.2016909 0.200423 0.1990595 0.1976131 0.196091 0.1944991 0.1928496 0.1911443
 0.1893526 0.187434 0.1854003 0.1833411 0.1813675 0.1795378 0.1778432 0.1762485 0.1747306 0.17329
 0.1719393 0.1706778 0.1694813 0.1683241 0.1672025 0.1661265 0.1651001 0.1641218 0.1632011 0.1623644
 0.1616418 0.1610427 0.1605413 0.1600967 0.1596861 0.1593168 0.1590169 0.1588248 0.1587634 0.1588041
 0.1588719 0.1588987 0.1588599 0.1587666 0.1586469 0.1585333 0.1584441 0.1583753 0.1583104 0.1582202
 0.1580511 0.1577322 0.157192 0.1563644 0.1552036 0.1537166 0.1519755 0.1501004 0.1482373 0.1465289
 0.1450742 0.1439125 0.1430377 0.1424011 0.1419178 0.1415122 0.1411714 0.1409481 0.1409158 0.1410908
 0.1413668 0.1415646 0.1416044 0.1416014 0.1417559 0.1421801 0.1428437 0.1436278 0.1444027 0.1450832
 0.1456305 0.1460158 0.1462297 0.1463182 0.1463483 0.1463347 0.1462443 0.1460543 0.1457731 0.1454308
 0.1450649 0.1446822 0.1442428 0.1437058 0.1430629 0.1423143 0.1414622 0.1405203 0.1394773 0.1382973
 0.1370352 0.135905 0.1351691 0.1349867 0.1353585 0.1361426 0.1371399 0.1382199 0.1392972 0.1401635
 0.1405498 0.1405231 0.1406785 0.1417074 0.1437412 0.1462138 0.1483691 0.1498076 0.1505287 0.150638
 0.1501959 0.1492509 0.1478128 0.1458304 0.1433201 0.1404311 0.1373263 0.1341424 0.1310803 0.128353
 0.126058 0.1242027 0.1227716 0.1217954 0.1214043 0.1212206 0.119324 0.1132714 0.1038932 0.09694437
 0.09823695 0.1070856 0.1168105 0.1217889 0.1219127 0.1202114 0.1187442 0.1177915 0.1172305 0.1172199
 0.117917 0.1191901 0.1206394 0.1218454 0.1226322 0.123034 0.1230078 0.1221957 0.1198599 0.1151304
 0.107708 0.09848659 0.08924817 0.08160871 0.07628003 0.07311578 0.0714983 0.07069272 0.0701805 0.06989238
 0.0701253 0.07119329 0.07315901 0.075872 0.07912748 0.08264941 0.08600482 0.08877866 0.09088808 0.09256233
 0.09397823 0.09505849 0.09564172 0.09569837 0.09533535 0.09469752 0.09391734 0.09308591 0.09219834 0.09116372
 0.08996451 0.08880259 0.0879731 0.08756974 0.08742481 0.08734959 0.08730133 0.08730078 0.08732285 0.08731149
 0.08724189 0.08717361 0.08725342 0.08759242 0.08811817 0.08861682 0.08892699 0.08905034 0.08909331 0.08910682
 0.08895613 0.08843657 0.08760323 0.08681522 0.08626611 0.0856568 0.08461036 0.0832866 0.08228995 0.08200592
 0.08225627 0.08258479 0.08267528 0.08248267 0.08217681 0.08206594 0.08240178 0.08307643 0.08360268 0.08357021
</values></Ydata></ScRf><Data_Parameters_AB><parameter name="DPF">1</parameter><parameter name="NPT">3497</parameter><parameter name="FXV">3996</parameter><parameter name="LXV">500</parameter><parameter name="CSF">1</parameter><parameter name="MXY">0.0599606484174728</parameter><parameter name="MNY">-0.0960298925638199</parameter><parameter name="DAT">01/06/2022</parameter><parameter name="TIM">11:31:00.710 (GMT+2)</parameter><parameter name="DXU">WN</parameter></Data_Parameters_AB><AB__Qtest><MainReport name="Quality Test Report"><Header><Line><Legend>Test result ok/not ok [1/0]: </Legend><Value>0</Value></Line><Line><Legend>Method file: </Legend><Value>C:\Users\Public\Documents\Bruker\OPUS_8.2.28\QT\IRBT_v3_default.QT</Value></Line></Header><Matrix><Line><Legend></Legend><Legend>min</Legend><Legend>max</Legend><Legend>measured</Legend></Line><Line><Value>Absorption (X-Range 1):</Value><Value>0.400000</Value><Value>2.000000</Value><Value>0.100465</Value></Line><Line><Value>Noise (X-Range 4):</Value><Value></Value><Value>0.000300</Value><Value>0.000064</Value></Line><Line><Value>Signal/Noise (X-Range 2):</Value><Value>200.000000</Value><Value></Value><Value>23.900829</Value></Line><Line><Value>Signal/Noise (X-Range 3):</Value><Value>40.000000</Value><Value></Value><Value>19.010031</Value></Line><Line><Value>Water vapour (X-Range 5):</Value><Value></Value><Value>0.000300</Value><Value>0.000061</Value></Line><Line><Value>Signal/Water (X-Range 2):</Value><Value>100.000000</Value><Value></Value><Value>24.994954</Value></Line><Line><Value>Signal/Water (X-Range 3):</Value><Value>20.000000</Value><Value></Value><Value>19.880267</Value></Line><Line><Value>Fringes (X-Range 6):</Value><Value></Value><Value>0.000100</Value><Value>0.000064</Value></Line></Matrix></MainReport></AB__Qtest><Data_Parameters_ScSm><parameter name="DPF">1</parameter><parameter name="NPT">1814</parameter><parameter name="FXV">3996.33169228125</parameter><parameter name="LXV">499.541461535156</parameter><parameter name="CSF">1</parameter><parameter name="MXY">0.27571564912796</parameter><parameter name="MNY">0.0341285765171051</parameter><parameter name="DAT">01/06/2022</parameter><parameter name="TIM">11:31:00.710 (GMT+2)</parameter><parameter name="DXU">WN</parameter></Data_Parameters_ScSm><Data_Parameters_ScRf><parameter name="DPF">1</parameter><parameter name="NPT">1820</parameter><parameter name="FXV">4004.04661832813</parameter><parameter name="LXV">495.683998511719</parameter><parameter name="CSF">1</parameter><parameter name="MXY">0.26521509885788</parameter><parameter name="MNY">0.0285071227699518</parameter><parameter name="DAT">01/06/2022</parameter><parameter name="TIM">11:30:33.625 (GMT+2)</parameter><parameter name="DXU">WN</parameter></Data_Parameters_ScRf><Optic_Parameters_Rf><parameter name="APR">0</parameter><parameter name="APT">Open</parameter><parameter name="BMS">KBr</parameter><parameter name="DTC">RT-DLaTGS_IR-Biotyper [Microplate reader]</parameter><parameter name="HPF">0</parameter><parameter name="LPF">10.0</parameter><parameter name="LPV">4000</parameter><parameter name="PGR">0</parameter><parameter name="RCH">Module port</parameter><parameter name="RDX">0</parameter><parameter name="SRC">MIR</parameter><parameter name="VEL">10.0</parameter><parameter name="SON">Off</parameter></Optic_Parameters_Rf><Acquisition_Parameters_Rf><parameter name="ADT">1</parameter><parameter name="AQM">DD</parameter><parameter name="CFE">0</parameter><parameter name="COR">0</parameter><parameter name="DEL">0</parameter><parameter name="DLY">0</parameter><parameter name="HFW">8000</parameter><parameter name="LFW">0</parameter><parameter name="NSR">32</parameter><parameter name="PLF">AB</parameter><parameter name="RES">6</parameter><parameter name="RGN">-1</parameter><parameter name="STR">0</parameter><parameter name="TCL">MakeCompatibleScalar (0, {WSV=1.000000, ARV=0});</parameter><parameter name="TDL">37</parameter><parameter name="RPO">0</parameter></Acquisition_Parameters_Rf><FT_-_Parameters_Rf><parameter name="APF">B3</parameter><parameter name="HFQ">500</parameter><parameter name="LFQ">4000</parameter><parameter name="NLI">0</parameter><parameter name="PHR">24</parameter><parameter name="PHZ">ML</parameter><parameter name="SPZ">NO</parameter><parameter name="ZFF">1</parameter></FT_-_Parameters_Rf><Optic_Parameters_><parameter name="APR">0</parameter><parameter name="APT">Open</parameter><parameter name="BMS">KBr</parameter><parameter name="CHN">Module port</parameter><parameter name="DTC">RT-DLaTGS_IR-Biotyper [Microplate reader]</parameter><parameter name="HPF">0</parameter><parameter name="LPF">10.0</parameter><parameter name="LPV">4000</parameter><parameter name="PGN">0</parameter><parameter name="RDX">0</parameter><parameter name="SRC">MIR</parameter><parameter name="VEL">10.0</parameter><parameter name="SON">Off</parameter></Optic_Parameters_><FT_-_Parameters_><parameter name="APF">B3</parameter><parameter name="HFQ">500</parameter><parameter name="LFQ">4000</parameter><parameter name="NLI">0</parameter><parameter name="PHR">24</parameter><parameter name="PHZ">ML</parameter><parameter name="SPZ">NO</parameter><parameter name="ZFF">1</parameter></FT_-_Parameters_><Acquisition_Parameters_><parameter name="ADT">1</parameter><parameter name="AQM">DD</parameter><parameter name="CFE">0</parameter><parameter name="COR">0</parameter><parameter name="DEL">0</parameter><parameter name="DLY">0</parameter><parameter name="HFW">8000</parameter><parameter name="LFW">0</parameter><parameter name="NSS">32</parameter><parameter name="PLF">AB</parameter><parameter name="RES">6</parameter><parameter name="SOT">0</parameter><parameter name="TCL">MakeCompatibleScalar (0, {WSV=1.000000, ARV=0});</parameter><parameter name="TDL">37</parameter><parameter name="SPO">0</parameter><parameter name="SGN">-1</parameter></Acquisition_Parameters_><Instrument_Parameters_Rf><parameter name="HFL">15800.168544</parameter><parameter name="LFL">0</parameter><parameter name="LWN">15800.168544</parameter><parameter name="ABP">32197</parameter><parameter name="SSP">1</parameter><parameter name="ARG">2</parameter><parameter name="ASG">2</parameter><parameter name="ASS">32</parameter><parameter name="GFW">16</parameter><parameter name="GBW">16</parameter><parameter name="BFW">0</parameter><parameter name="BBW">0</parameter><parameter name="PKA">7306</parameter><parameter name="PKL">4990</parameter><parameter name="PRA">7479</parameter><parameter name="PRL">5001</parameter><parameter name="P2A">1</parameter><parameter name="P2L">1</parameter><parameter name="P2R">1</parameter><parameter name="P2K">1</parameter><parameter name="DAQ">0</parameter><parameter name="AG2">1</parameter><parameter name="SSM">1</parameter><parameter name="RSN">25905</parameter><parameter name="CRR">0</parameter><parameter name="SRT">1654083033.625</parameter><parameter name="DUR">19.6389923095703</parameter><parameter name="TSC">29</parameter><parameter name="MVD">0.736623466014862</parameter><parameter name="AN1">0.225808720676167</parameter><parameter name="AN2">0</parameter><parameter name="VSN">2.485 Apr  4 2017</parameter><parameter name="SRN">0085</parameter><parameter name="CAM">0</parameter><parameter name="INS">IR-Biotyper</parameter><parameter name="FOC">69</parameter><parameter name="RDY">1</parameter><parameter name="ARS">32</parameter></Instrument_Parameters_Rf><Sample_Parameters_><parameter name="BLD"></parameter><parameter name="CNM">Admin</parameter><parameter name="CPY"></parameter><parameter name="DPM"></parameter><parameter name="EXP">IRBT_v3_32Scans.XPM</parameter><parameter name="LCT"></parameter><parameter name="SFM">Microplate, HTS-XT</parameter><parameter name="SNM">220601-1028(v.3)_RTF49M (D_7)_C5_f9e34d18-5e6a-429a-8205-75c7fcdcfb39.0</parameter><parameter name="XPP">C:\Users\Public\Documents\Bruker\OPUS_8.2.28\XPM</parameter><parameter name="IST">OK</parameter><parameter name="CPG">1252</parameter><parameter name="UID">2015848f-7f7d-42ea-a0b0-cbd5523b3751</parameter></Sample_Parameters_><Instrument_Parameters_><parameter name="HFL">15800.168544</parameter><parameter name="LFL">0</parameter><parameter name="LWN">15800.168544</parameter><parameter name="ABP">32197</parameter><parameter name="SSP">1</parameter><parameter name="ASG">2</parameter><parameter name="ARG">2</parameter><parameter name="ASS">32</parameter><parameter name="GFW">16</parameter><parameter name="GBW">16</parameter><parameter name="BFW">0</parameter><parameter name="BBW">0</parameter><parameter name="PKA">7957</parameter><parameter name="PKL">4988</parameter><parameter name="PRA">8265</parameter><parameter name="PRL">4993</parameter><parameter name="P2A">1</parameter><parameter name="P2L">1</parameter><parameter name="P2R">1</parameter><parameter name="P2K">1</parameter><parameter name="DAQ">0</parameter><parameter name="AG2">1</parameter><parameter name="SSM">1</parameter><parameter name="RSN">13578</parameter><parameter name="CRR">0</parameter><parameter name="SRT">1654083060.71</parameter><parameter name="DUR">19.6389923095703</parameter><parameter name="TSC">29</parameter><parameter name="MVD">0.213702633976936</parameter><parameter name="AN1">0.225775775972289</parameter><parameter name="AN2">0</parameter><parameter name="VSN">2.485 Apr  4 2017</parameter><parameter name="SRN">0085</parameter><parameter name="CAM">0</parameter><parameter name="INS">IR-Biotyper</parameter><parameter name="FOC">69</parameter><parameter name="RDY">1</parameter></Instrument_Parameters_><History/></OPUSDataFile>
