<?xml version="1.0" encoding="UTF-8" ?>
<OPUSDataFile><AB><Ydata ylabel="Absorbance Units"><values byteorder="INTEL" format="FLOAT32" numvalues="3497"> -0.02833587 -0.02837833 -0.02842604 -0.02848017 -0.02852398 -0.02855659 -0.02855794 -0.02852849 -0.02846693 -0.02837756
 -0.02828393 -0.02819052 -0.02812683 -0.02809104 -0.02809562 -0.02813151 -0.02819039 -0.02826314 -0.02833625 -0.02840501
 -0.02846141 -0.02850444 -0.02853098 -0.02854363 -0.02854167 -0.02853187 -0.02851513 -0.02849969 -0.02848674 -0.02848322
 -0.0284899 -0.02851103 -0.02854685 -0.02859685 -0.02866048 -0.0287304 -0.02880587 -0.02887828 -0.02894836 -0.02901389
 -0.02907639 -0.02913893 -0.02920103 -0.02926413 -0.02932486 -0.02938037 -0.02942681 -0.02945991 -0.02947875 -0.02948146
 -0.0294691 -0.02944211 -0.02939936 -0.02934052 -0.02926495 -0.02917102 -0.02906993 -0.02896148 -0.02887051 -0.02879838
 -0.02876809 -0.02877935 -0.02883473 -0.02893058 -0.02904694 -0.02917986 -0.02930431 -0.02941971 -0.02951131 -0.02958265
 -0.02963152 -0.02966544 -0.02969185 -0.029717 -0.02975037 -0.02978772 -0.02983141 -0.02986869 -0.02989436 -0.02990426
 -0.0298941 -0.02987587 -0.0298499 -0.02983315 -0.02982718 -0.02984495 -0.02988725 -0.0299632 -0.03007259 -0.03021664
 -0.03039122 -0.03057496 -0.03075803 -0.03089129 -0.03097279 -0.03096578 -0.03089203 -0.030768 -0.03062167 -0.03049464
 -0.03039518 -0.03034957 -0.03033691 -0.03035711 -0.03037525 -0.03037461 -0.03034865 -0.03028611 -0.03022477 -0.03016804
 -0.03015486 -0.03019187 -0.03027074 -0.03039154 -0.03050762 -0.03061784 -0.03069533 -0.03074522 -0.03078625 -0.03082371
 -0.03089023 -0.03098004 -0.03109974 -0.03123115 -0.03134598 -0.03143306 -0.03146176 -0.03144808 -0.03139191 -0.03131808
 -0.03124148 -0.03117346 -0.03112032 -0.03109222 -0.03108971 -0.03113629 -0.03123546 -0.03140891 -0.03166299 -0.03196516
 -0.03231484 -0.03256183 -0.03270052 -0.03260521 -0.0323035 -0.03191372 -0.03145994 -0.03110104 -0.03082627 -0.03068867
 -0.03066836 -0.03076103 -0.03093538 -0.03116099 -0.0313911 -0.03157804 -0.03169246 -0.03169312 -0.03161429 -0.03145108
 -0.03127408 -0.03110325 -0.0309712 -0.03089006 -0.0308462 -0.03083993 -0.03085178 -0.03088051 -0.03092071 -0.03097219
 -0.03103257 -0.03110026 -0.03116403 -0.0312216 -0.03125775 -0.0312727 -0.03125853 -0.03121851 -0.03115323 -0.0310696
 -0.03097381 -0.0308778 -0.03079212 -0.03072869 -0.03069747 -0.03070335 -0.03075216 -0.03083786 -0.03096274 -0.03110628
 -0.03126774 -0.03141481 -0.03154504 -0.03162332 -0.0316473 -0.03159733 -0.03147458 -0.03129482 -0.03106336 -0.03082245
 -0.03057672 -0.03036665 -0.0301928 -0.03007866 -0.03001826 -0.03001515 -0.03005453 -0.03012286 -0.03020038 -0.0302658
 -0.0303083 -0.03031285 -0.0302871 -0.03022799 -0.03015499 -0.03007087 -0.02999889 -0.02994267 -0.02992362 -0.02994516
 -0.03001188 -0.03012466 -0.03025823 -0.03041005 -0.03053417 -0.03062975 -0.03066534 -0.03064885 -0.03059314 -0.03050865
 -0.03042983 -0.03035882 -0.0303156 -0.03029709 -0.03030627 -0.03034292 -0.03040583 -0.03050142 -0.03063257 -0.03080586
 -0.03102943 -0.03128602 -0.03158029 -0.03185595 -0.03210505 -0.03227861 -0.03236751 -0.03238085 -0.03231873 -0.0321862
 -0.03198267 -0.03168917 -0.03131438 -0.03090586 -0.03048112 -0.03013938 -0.0298813 -0.02976668 -0.02976858 -0.02987586
 -0.03003887 -0.03018722 -0.03030156 -0.03032776 -0.03030862 -0.03025362 -0.03020169 -0.0301777 -0.03017404 -0.03019911
 -0.03021041 -0.03020171 -0.03014072 -0.03001997 -0.02985924 -0.02965871 -0.02947003 -0.02929514 -0.02916998 -0.02909216
 -0.02906585 -0.02908131 -0.02910529 -0.02912269 -0.02907048 -0.0289564 -0.02875565 -0.02850697 -0.02825255 -0.02801063
 -0.02781942 -0.02765823 -0.02752925 -0.0273984 -0.02724981 -0.02707169 -0.02685311 -0.02661552 -0.02636001 -0.02611262
 -0.02587786 -0.02565593 -0.02544773 -0.02522255 -0.02497909 -0.02469042 -0.0243616 -0.02401656 -0.02366151 -0.02333765
 -0.02304009 -0.02277596 -0.02254039 -0.02232808 -0.02213527 -0.02196112 -0.02178487 -0.02159366 -0.02135451 -0.02103858
 -0.02064666 -0.02016724 -0.01962952 -0.01904438 -0.01840597 -0.0177153 -0.0169608 -0.01613795 -0.01527843 -0.01438371
 -0.01349183 -0.01260409 -0.01174012 -0.0109018 -0.01011289 -0.009374462 -0.008708456 -0.008104597 -0.007549564 -0.00702648
 -0.006497762 -0.005953929 -0.0053721 -0.004735683 -0.004026226 -0.003221066 -0.00228657 -0.001265373 -0.0001555549 0.000956031
 0.002036599 0.003075631 0.004060735 0.005033348 0.005997655 0.006976334 0.007971857 0.008972653 0.009977181 0.01095175
 0.01189613 0.01278595 0.01363528 0.01448189 0.01535714 0.01637752 0.01753465 0.01889282 0.02036355 0.02185073
 0.02330887 0.02464425 0.02590466 0.02708957 0.02825683 0.02943633 0.03064136 0.03188715 0.0331456 0.03441398
 0.03566742 0.03689992 0.03812578 0.03934455 0.04060729 0.04191583 0.04330469 0.04476728 0.04626869 0.04780024
 0.0493028 0.05078062 0.05221483 0.05361393 0.05498537 0.05633472 0.05766929 0.05900099 0.06034345 0.0617029
 0.06309158 0.0644947 0.06590521 0.0673264 0.06874938 0.07022388 0.07176062 0.07337958 0.07509294 0.07681422
 0.07853899 0.08017153 0.0817109 0.08316475 0.08454113 0.08590738 0.08726656 0.08867023 0.09010969 0.09159052
 0.09309544 0.09459161 0.09607423 0.09751344 0.09894003 0.1003646 0.101836 0.1033962 0.1050447 0.1068059
 0.1086072 0.1104339 0.1122241 0.1139596 0.1156322 0.117237 0.1187911 0.120295 0.1217792 0.1232454
 0.1247272 0.1262247 0.1277548 0.1293164 0.1309137 0.1325463 0.1342174 0.1359204 0.1376472 0.1393836
 0.1411062 0.1428091 0.1444758 0.1461138 0.1477229 0.1493099 0.1508786 0.1524302 0.1539665 0.1554838
 0.156982 0.1584554 0.1599015 0.1613336 0.1627514 0.1641945 0.1656642 0.1671832 0.1687474 0.1703306
 0.1719291 0.1735091 0.1750761 0.1766299 0.1781752 0.1797238 0.1812712 0.1828168 0.1843537 0.1858751
 0.1873767 0.1888521 0.1903059 0.1917347 0.193161 0.1945911 0.1960411 0.1975198 0.1990039 0.2004929
 0.2019541 0.2033842 0.2047923 0.2061794 0.2075742 0.208975 0.2103797 0.211784 0.2131653 0.2145249
 0.2158538 0.2171582 0.2184445 0.2197212 0.2210025 0.2222939 0.2236098 0.2249388 0.2262805 0.2276141
 0.2289267 0.2302208 0.2314911 0.2327599 0.2340328 0.2353131 0.2366033 0.2378897 0.2391714 0.2404468
 0.2417158 0.2429796 0.2442368 0.2454744 0.2466935 0.2478891 0.2490674 0.2502443 0.2514226 0.2526174
 0.2538244 0.2550455 0.2562717 0.2574975 0.2587077 0.2598904 0.2610375 0.2621372 0.2632077 0.2642499
 0.2652912 0.2663392 0.2673981 0.2684704 0.2695479 0.27063 0.271717 0.272809 0.2739006 0.2749908
 0.2760656 0.2771274 0.2781801 0.2792263 0.2802795 0.281333 0.2823792 0.2834126 0.284418 0.2854057
 0.2863805 0.2873518 0.288332 0.2893096 0.2902844 0.2912393 0.2921677 0.2930651 0.2939284 0.2947634
 0.2955691 0.2963614 0.297141 0.297928 0.298723 0.2995287 0.3003438 0.3011574 0.3019718 0.3027922
 0.3036214 0.3044736 0.3053419 0.3062198 0.3070978 0.3079566 0.3087984 0.3096176 0.310421 0.3112133
 0.3119939 0.3127646 0.3135201 0.3142599 0.3149766 0.3156687 0.3163293 0.3169559 0.3175581 0.3181362
 0.3187118 0.3192854 0.3198532 0.3204122 0.320929 0.3214043 0.3218214 0.3221911 0.3225366 0.3228699
 0.3232286 0.3236153 0.3240529 0.3245296 0.3250449 0.325578 0.3261111 0.3266415 0.3271559 0.3276877
 0.3282446 0.3288549 0.3295348 0.3302453 0.3309896 0.3316754 0.3322954 0.3327886 0.3331536 0.3334119
 0.33357 0.3336989 0.3338007 0.3339242 0.3340624 0.3342159 0.3343855 0.3345676 0.3347804 0.3350523
 0.3353854 0.3358061 0.3362674 0.3367499 0.3371996 0.3375756 0.3378885 0.3381237 0.3383456 0.3385664
 0.3388272 0.3391392 0.3394874 0.3398732 0.3402497 0.3406146 0.3409146 0.3411492 0.3412864 0.3413365
 0.3413276 0.3412823 0.3412857 0.3413518 0.3415602 0.3418893 0.3423537 0.3428948 0.3434632 0.3439998
 0.3444408 0.3447797 0.3449853 0.3451146 0.3451749 0.3452342 0.3453093 0.3454373 0.3456248 0.3458959
 0.3462525 0.3467242 0.347312 0.3480177 0.3488345 0.3496972 0.3505896 0.3513955 0.3521033 0.352607
 0.3529231 0.3530206 0.3529582 0.3527995 0.3526167 0.3525149 0.3525131 0.3526761 0.3529347 0.3532854
 0.3536156 0.3538877 0.3540249 0.3539956 0.353808 0.3534516 0.3530129 0.3524966 0.3520034 0.3515381
 0.3511444 0.3508196 0.3505477 0.3503261 0.3501319 0.3499678 0.3498329 0.3497263 0.3496518 0.3495921
 0.3495322 0.3494332 0.3492546 0.3489533 0.3484788 0.3478314 0.3469811 0.3460067 0.3449167 0.3438259
 0.3427629 0.3417944 0.340939 0.3401878 0.3395438 0.3389556 0.3384206 0.3378761 0.3373207 0.3367115
 0.3360572 0.3353775 0.3346888 0.334061 0.3334886 0.3330053 0.3325686 0.3321306 0.3316507 0.331057
 0.3303646 0.3295475 0.3286785 0.3277802 0.3269341 0.3261756 0.3255401 0.3250521 0.3246646 0.3243831
 0.3240868 0.3237674 0.3233105 0.3227109 0.3219562 0.3210556 0.3201056 0.319118 0.3182097 0.317376
 0.3166676 0.3160614 0.3155338 0.3150589 0.3145859 0.3141024 0.3135728 0.3130047 0.3123896 0.3117473
 0.3110845 0.3104191 0.3097592 0.3091121 0.3084824 0.3078647 0.3072601 0.3066517 0.3060383 0.3054014
 0.3047397 0.3040487 0.3033294 0.302593 0.3018414 0.3010901 0.3003409 0.2996076 0.2988913 0.2982029
 0.2975381 0.2968982 0.2962689 0.2956375 0.2949871 0.2942994 0.2935711 0.2927918 0.2919781 0.2911305
 0.2902769 0.2894235 0.2885915 0.2877865 0.2870074 0.2862558 0.2855071 0.28476 0.2839884 0.2831931
 0.2823722 0.2815296 0.2806864 0.2798444 0.2790216 0.2782143 0.2774235 0.2766454 0.2758743 0.2751099
 0.2743495 0.2735932 0.2728378 0.2720914 0.2713515 0.2706472 0.2699874 0.2693979 0.268896 0.2684409
 0.2680386 0.2675745 0.267039 0.266338 0.2654662 0.2644472 0.263291 0.2621253 0.2609614 0.2599337
 0.2590353 0.2583234 0.2577624 0.2573085 0.2569081 0.2564545 0.2559221 0.2552247 0.2544121 0.2534803
 0.2525244 0.2515996 0.2507427 0.2499935 0.2492951 0.248641 0.2479797 0.2472928 0.2466282 0.2459853
 0.2454604 0.2450587 0.2447994 0.2446741 0.2445847 0.2445166 0.244332 0.2440325 0.2435418 0.2428898
 0.2421008 0.2412186 0.240327 0.2394455 0.2386369 0.2378763 0.2371659 0.236476 0.2357817 0.2351026
 0.2344353 0.2338224 0.2332815 0.2327968 0.2323751 0.2319417 0.2314887 0.2309843 0.2304264 0.2298775
 0.229342 0.2288984 0.2285398 0.228269 0.2280693 0.2278815 0.2276979 0.2274683 0.2272003 0.2268839
 0.2265285 0.226145 0.2257267 0.2252784 0.2247711 0.2241918 0.2235162 0.2227229 0.2218424 0.220866
 0.21989 0.2189256 0.2180647 0.2173215 0.2166937 0.2161819 0.2156867 0.2152021 0.2146229 0.2139544
 0.2131713 0.2122927 0.2113727 0.210428 0.2095279 0.2086723 0.2078951 0.207181 0.2065279 0.2059134
 0.2053211 0.2047302 0.2041231 0.2034965 0.2028398 0.20218 0.2015197 0.2008927 0.2003097 0.1997561
 0.1992357 0.198676 0.1980732 0.1973731 0.1965791 0.1957286 0.1948321 0.1939797 0.1931663 0.1924273
 0.191736 0.191043 0.1903347 0.1895561 0.1887342 0.1878744 0.1870165 0.1861996 0.1854308 0.1847287
 0.1840739 0.1834595 0.182886 0.1823475 0.1818728 0.181467 0.1811418 0.1809026 0.180704 0.1805439
 0.1803325 0.1800656 0.1796665 0.1791417 0.178487 0.1777249 0.1769323 0.1761346 0.1754341 0.1748373
 0.1744059 0.1741222 0.1739925 0.1739893 0.1740934 0.174281 0.1745349 0.1748388 0.1751836 0.1755582
 0.1759581 0.1763785 0.1768156 0.1772837 0.1777809 0.1783569 0.1790143 0.1798263 0.180795 0.181964
 0.1833241 0.1848428 0.1865011 0.1882107 0.1899595 0.19167 0.1933484 0.1949681 0.1965461 0.1980929
 0.1996197 0.2011409 0.2026566 0.2041708 0.2056804 0.2071852 0.2086816 0.2101721 0.2116357 0.2130743
 0.2144366 0.2157193 0.2168626 0.2178628 0.2186951 0.219361 0.2198818 0.2202612 0.2205324 0.2206977
 0.2207775 0.2207836 0.220746 0.2206975 0.2207034 0.2207979 0.2210547 0.221469 0.2220722 0.2228153
 0.2236817 0.2246253 0.2256208 0.2266589 0.2277328 0.2288407 0.2299861 0.2311339 0.2322837 0.2333763
 0.2344084 0.235326 0.2361266 0.2367652 0.2372407 0.2375206 0.2376128 0.2375233 0.2372748 0.2369245
 0.2364961 0.2360639 0.2356183 0.2351973 0.2347223 0.2341671 0.2333827 0.2322885 0.2307444 0.2286584
 0.2260358 0.2228256 0.2192451 0.2153013 0.2113266 0.2073545 0.2036455 0.2002192 0.1971488 0.1944302
 0.1919881 0.1898128 0.1878027 0.1859585 0.1842296 0.1826189 0.181113 0.1797017 0.1783644 0.1770851
 0.1758325 0.1746096 0.1734014 0.1722373 0.1711277 0.1701044 0.1691847 0.1683771 0.16769 0.167108
 0.1666305 0.166239 0.1659301 0.1657074 0.1655707 0.1655491 0.1656429 0.1658638 0.1662001 0.1665851
 0.1669925 0.1672827 0.1674396 0.167341 0.1670088 0.1664149 0.1656156 0.1646628 0.1636189 0.1625512
 0.1615068 0.160532 0.159648 0.1588765 0.1582118 0.1576566 0.1572017 0.1568428 0.1565977 0.1564694
 0.1564629 0.1565814 0.1566991 0.1567999 0.1565847 0.1560337 0.1548452 0.1530531 0.1506044 0.1476065
 0.1443006 0.1408003 0.1374302 0.1342216 0.1313608 0.1287858 0.126512 0.1244549 0.1225646 0.1207996
 0.1191282 0.1175474 0.1160514 0.1146404 0.1133142 0.1120692 0.1109053 0.1098189 0.10881 0.1078618
 0.1069725 0.1061072 0.105265 0.1044197 0.1035761 0.1027391 0.1019162 0.1011319 0.1003874 0.09969979
 0.09905839 0.09846055 0.09788504 0.09731419 0.09672774 0.09610535 0.09544808 0.09474465 0.09402984 0.09330662
 0.09262548 0.09199755 0.09144658 0.09098022 0.09056804 0.09020934 0.08984442 0.08947149 0.08905896 0.08861124
 0.08814706 0.08766992 0.08720809 0.08675332 0.08629854 0.08583323 0.08532944 0.08479563 0.08422553 0.08364621
 0.0830789 0.08254491 0.08206554 0.08164295 0.08128495 0.08098093 0.08073261 0.08051493 0.08032737 0.08012518
 0.07990374 0.07962427 0.079283 0.07888632 0.07843626 0.07797884 0.07751592 0.07708433 0.07667992 0.07630448
 0.07595398 0.0756168 0.07529517 0.07498824 0.0746979 0.07442831 0.07417439 0.07393291 0.07370025 0.07347079
 0.07325199 0.07304587 0.07285769 0.07269347 0.07253448 0.07238091 0.07219824 0.07198137 0.07171792 0.07140572
 0.07107276 0.070721 0.07039102 0.07008195 0.06980713 0.06956044 0.06932263 0.06908897 0.06883412 0.06856266
 0.06826819 0.0679651 0.06766874 0.06739254 0.06715816 0.06695901 0.06680432 0.06666012 0.06651738 0.06633766
 0.06610484 0.06581224 0.06545138 0.06505439 0.0646225 0.06419796 0.06378398 0.06340335 0.06305635 0.06274123
 0.06245613 0.06218627 0.06192964 0.06166951 0.06140559 0.06112739 0.06083838 0.06053917 0.06023607 0.05993783
 0.05964831 0.05937557 0.05911624 0.0588721 0.05863379 0.05839808 0.0581567 0.05790553 0.05764515 0.05737371
 0.05710167 0.05682977 0.05656923 0.05632112 0.0560857 0.05586274 0.05564446 0.05543129 0.05522282 0.05502092
 0.05483549 0.0546641 0.05450813 0.05435718 0.05419202 0.05400432 0.05377117 0.05350019 0.05318686 0.05285096
 0.05250403 0.05215901 0.05182647 0.0515035 0.05119183 0.05088463 0.05058008 0.05027847 0.04997922 0.04968781
 0.04940464 0.04913225 0.04887052 0.04861525 0.04836581 0.04811498 0.04786282 0.04760523 0.04734364 0.04708
 0.04681557 0.04655423 0.04629531 0.04603979 0.04578593 0.04553206 0.04527821 0.04502286 0.04477017 0.04452079
 0.0442812 0.04405393 0.04384086 0.04364428 0.04345476 0.04327223 0.04308084 0.04287928 0.04266004 0.04242317
 0.04217499 0.04191638 0.0416576 0.04139845 0.04114345 0.04089165 0.04064275 0.04039566 0.04014853 0.03989976
 0.03964623 0.03938737 0.03912021 0.03884893 0.038574 0.03830357 0.03804152 0.03779265 0.0375606 0.03734061
 0.03713359 0.03692688 0.03671905 0.03650001 0.03626853 0.03602742 0.03577715 0.03553222 0.0352933 0.03507331
 0.03487039 0.03468347 0.03450857 0.03433324 0.03415534 0.03396325 0.03376044 0.03354556 0.03332616 0.03310952
 0.03289945 0.03270267 0.03251331 0.03233143 0.03214735 0.03195723 0.03175914 0.03155094 0.03133985 0.03112641
 0.03091769 0.03071433 0.03051989 0.03033456 0.03016125 0.02999981 0.02985098 0.02971334 0.02958092 0.02945178
 0.02931665 0.02917536 0.02902277 0.02886044 0.02868824 0.02850819 0.02832184 0.02813177 0.0279397 0.02774877
 0.02756083 0.02737771 0.0272007 0.02702895 0.02686282 0.02669961 0.02653938 0.02637683 0.02621158 0.02603871
 0.02585818 0.02567359 0.02548639 0.02531165 0.02515025 0.02501623 0.02490574 0.02481636 0.02473981 0.02465798
 0.0245655 0.02444481 0.02430068 0.02412892 0.02394315 0.02375068 0.0235635 0.02339045 0.02323208 0.023092
 0.02296051 0.02283657 0.02271018 0.02257949 0.0224418 0.02229643 0.02214896 0.0219997 0.02185624 0.02171829
 0.02158668 0.02145941 0.0213273 0.0211884 0.0210308 0.02085663 0.02066309 0.02045667 0.02024515 0.02003433
 0.01983363 0.01964347 0.01946808 0.01930247 0.01914586 0.01899216 0.01883892 0.01868396 0.01852581 0.01836749
 0.01820913 0.0180542 0.01790323 0.0177535 0.01760486 0.01745147 0.01729369 0.01713212 0.01696811 0.0168093
 0.0166555 0.01651133 0.01637323 0.01623637 0.01609677 0.01594552 0.01578352 0.01560656 0.01542228 0.01523382
 0.01505008 0.01487707 0.01471589 0.01457009 0.01442953 0.01429329 0.01414927 0.01399493 0.01382964 0.01365265
 0.01347485 0.01329678 0.01312761 0.01296695 0.01281413 0.01266822 0.01252394 0.01238157 0.01223936 0.01209795
 0.01195847 0.01181982 0.0116813 0.01154081 0.01139537 0.01124561 0.01108988 0.01093334 0.01077724 0.01062853
 0.01049001 0.01036481 0.01025509 0.01015608 0.01006815 0.009980537 0.009892446 0.009795178 0.009688373 0.009571237
 0.009444142 0.009310559 0.009170736 0.009027396 0.008881065 0.008734312 0.008588692 0.008449085 0.008315725 0.00819212
 0.008074854 0.00796219 0.00784974 0.007733302 0.007612152 0.007484139 0.007352491 0.00721734 0.007083599 0.006952201
 0.006827572 0.006710815 0.00660163 0.006500434 0.006399812 0.006299395 0.006192008 0.006078199 0.005960978 0.005841805
 0.005730639 0.005626776 0.005534146 0.005449059 0.005365519 0.005280393 0.005185464 0.005081876 0.004966495 0.00484517
 0.004720347 0.004599167 0.004486252 0.004383956 0.004295412 0.004214609 0.00414142 0.004066749 0.003988901 0.003905054
 0.003814469 0.003722439 0.003629206 0.003539518 0.003452872 0.00336594 0.003277044 0.003175775 0.003060581 0.002921104
 0.002756469 0.002560265 0.002331008 0.002064728 0.001757636 0.001405212 0.001002056 0.0005425754 2.464272E-05 -0.0005558142
 -0.001192908 -0.001886977 -0.002626115 -0.003407375 -0.004224585 -0.005075795 -0.005964393 -0.006891089 -0.00785093 -0.008843246
 -0.009826229 -0.01079376 -0.01166733 -0.01243686 -0.01301147 -0.0133778 -0.01344192 -0.0132014 -0.01257961 -0.01164656
 -0.01044839 -0.009124906 -0.007847026 -0.006694117 -0.005789536 -0.005122497 -0.004720062 -0.004551493 -0.004613287 -0.004875813
 -0.005343154 -0.005930191 -0.00663804 -0.007291512 -0.007874918 -0.008265301 -0.008456745 -0.008493723 -0.008384012 -0.008232196
 -0.008039728 -0.007868854 -0.007712692 -0.0075816 -0.007467594 -0.007357154 -0.007247436 -0.007128156 -0.006998872 -0.00685757
 -0.006697496 -0.006514077 -0.006299085 -0.00604366 -0.005756914 -0.005435881 -0.005108526 -0.004779881 -0.004475127 -0.004199772
 -0.003960297 -0.003758509 -0.003585375 -0.003440435 -0.00330797 -0.003187318 -0.003065529 -0.002943456 -0.002818233 -0.002692871
 -0.002575797 -0.002469878 -0.002386761 -0.002325136 -0.002289925 -0.002273687 -0.00227146 -0.002273333 -0.002269867 -0.002256453
 -0.002226288 -0.002185693 -0.002133648 -0.002084057 -0.00203965 -0.002012192 -0.002004494 -0.00201837 -0.002054783 -0.002105606
 -0.002170421 -0.002237214 -0.002305497 -0.002365761 -0.002418423 -0.002460442 -0.00249346 -0.002521224 -0.002545616 -0.00257314
 -0.002603917 -0.002641791 -0.002683974 -0.002729404 -0.002773947 -0.002813838 -0.002847393 -0.00287162 -0.002890473 -0.002903855
 -0.002919051 -0.002938013 -0.002964403 -0.002999853 -0.003039609 -0.00308366 -0.003123626 -0.003159055 -0.003186541 -0.003206423
 -0.003222221 -0.003234391 -0.003247639 -0.00326139 -0.003276434 -0.003291276 -0.003302824 -0.003310025 -0.003309155 -0.003301682
 -0.003286569 -0.003269241 -0.003252766 -0.003243687 -0.003247006 -0.003263669 -0.0032966 -0.003338483 -0.003388782 -0.00343771
 -0.003483361 -0.003521807 -0.00355224 -0.003576658 -0.003595138 -0.003608488 -0.003616454 -0.003615458 -0.003605644 -0.003584963
 -0.003555916 -0.003525739 -0.003497896 -0.003485268 -0.00348687 -0.003508791 -0.003543441 -0.003584966 -0.003626147 -0.003657707
 -0.003681657 -0.003695162 -0.003706832 -0.003719719 -0.003737642 -0.003763183 -0.003791637 -0.003822669 -0.003851821 -0.003878241
 -0.003904894 -0.003931898 -0.003964789 -0.004003371 -0.004046415 -0.004092827 -0.004134845 -0.004172652 -0.004201911 -0.004225434
 -0.004247719 -0.00427124 -0.004303151 -0.0043416 -0.004388175 -0.004437789 -0.004486857 -0.004532035 -0.004570031 -0.00460129
 -0.0046249 -0.004643379 -0.004656892 -0.004668934 -0.004679818 -0.00469407 -0.004712186 -0.004737077 -0.004768952 -0.004805993
 -0.004847904 -0.004889989 -0.004932196 -0.004971749 -0.005009123 -0.005044684 -0.005078639 -0.005111968 -0.005143918 -0.005173565
 -0.005200556 -0.005223293 -0.005244256 -0.00526414 -0.005287472 -0.005317276 -0.005355075 -0.005403326 -0.005456872 -0.005515392
 -0.005571739 -0.005624176 -0.005672114 -0.005714953 -0.005758315 -0.005802514 -0.005849848 -0.005899891 -0.005946494 -0.005989227
 -0.006021646 -0.006045207 -0.006061668 -0.006073102 -0.006085993 -0.006100167 -0.006118361 -0.006139469 -0.00616254 -0.006188843
 -0.006218929 -0.006254385 -0.006297244 -0.006344572 -0.006396481 -0.006447072 -0.00649451 -0.006536816 -0.006572895 -0.006605933
 -0.006636101 -0.006666516 -0.006697386 -0.006729284 -0.006762222 -0.006796277 -0.006831618 -0.006869439 -0.006909859 -0.006954167
 -0.007001935 -0.007052998 -0.007106312 -0.007160004 -0.007213411 -0.007264756 -0.007314579 -0.007362803 -0.007409807 -0.007456088
 -0.007500695 -0.007543202 -0.007583626 -0.007621472 -0.007659277 -0.007697474 -0.007737405 -0.007779506 -0.007820909 -0.007861447
 -0.007900094 -0.007937257 -0.007979578 -0.008027511 -0.008088263 -0.008159996 -0.008240163 -0.008325408 -0.008405481 -0.008479713
 -0.008541262 -0.008593613 -0.008638024 -0.008678347 -0.008718668 -0.008759762 -0.008803539 -0.008848467 -0.008894115 -0.008940292
 -0.008986398 -0.009035004 -0.009086185 -0.00914402 -0.009209041 -0.009283016 -0.009366157 -0.00945446 -0.009547438 -0.009636507
 -0.009721371 -0.009795217 -0.009859389 -0.009914993 -0.009964456 -0.0100147 -0.0100667 -0.01012613 -0.01019075 -0.01026065
 -0.01033182 -0.0104009 -0.01046528 -0.01052167 -0.01057222 -0.0106161 -0.01065939 -0.0107034 -0.01075316 -0.0108102
 -0.01087384 -0.01094447 -0.01101734 -0.0110922 -0.01116542 -0.01123691 -0.01130538 -0.01137092 -0.01143325 -0.01149269
 -0.01154995 -0.01160611 -0.01166421 -0.0117253 -0.01179296 -0.01186663 -0.0119477 -0.01203355 -0.01212295 -0.01221216
 -0.01229885 -0.01237999 -0.01245322 -0.01251964 -0.01257826 -0.01263509 -0.01269093 -0.01275102 -0.0128165 -0.01288467
 -0.01295552 -0.0130209 -0.0130806 -0.01313077 -0.01317214 -0.01320807 -0.01323939 -0.01327134 -0.01330405 -0.01334061
 -0.01338046 -0.01342432 -0.01347076 -0.01351852 -0.01356584 -0.01361041 -0.01365239 -0.0136906 -0.01372786 -0.01376523
 -0.013804 -0.01384518 -0.01388688 -0.01392885 -0.01396986 -0.01400957 -0.01404917 -0.01408874 -0.01412876 -0.01416916
 -0.0142082 -0.0142457 -0.01427974 -0.01431011 -0.01433502 -0.01435428 -0.01436589 -0.01437116 -0.01437054 -0.01436789
 -0.01436798 -0.01437446 -0.01439298 -0.01442262 -0.01446593 -0.01451579 -0.01457084 -0.01462182 -0.0146657 -0.01469789
 -0.0147162 -0.01472502 -0.01472422 -0.01472217 -0.01471944 -0.01472095 -0.01472677 -0.01473734 -0.01475258 -0.01477218
 -0.01479624 -0.01482505 -0.01485872 -0.01489775 -0.01494186 -0.01499114 -0.01504434 -0.01510056 -0.01515679 -0.01521052
 -0.01525832 -0.01529739 -0.01532602 -0.01534233 -0.01534794 -0.01534209 -0.01533068 -0.01531408 -0.01530075 -0.01529179
 -0.0152921 -0.01530218 -0.01532046 -0.01534683 -0.01537884 -0.01541667 -0.01546078 -0.01551093 -0.01556647 -0.01562661
 -0.01568864 -0.01575282 -0.01581884 -0.01588595 -0.01595468 -0.01601948 -0.01607583 -0.01611906 -0.01614293 -0.01615302
 -0.01614915 -0.0161408 -0.01613171 -0.01612237 -0.01611424 -0.01610091 -0.01608165 -0.01605343 -0.01601584 -0.01597352
 -0.0159269 -0.01588441 -0.01584635 -0.01581929 -0.01580249 -0.01579657 -0.01580015 -0.01580944 -0.01582452 -0.01584392
 -0.01586798 -0.0158977 -0.01592993 -0.01596326 -0.01599165 -0.01601062 -0.01601763 -0.01600934 -0.01599013 -0.01595953
 -0.01592679 -0.01589343 -0.015867 -0.01584908 -0.01583853 -0.01583556 -0.01583185 -0.01582732 -0.01582113 -0.01581484
 -0.01582094 -0.01583986 -0.01588223 -0.01594284 -0.01601459 -0.01608824 -0.01614206 -0.01617259 -0.01616276 -0.01612333
 -0.01605584 -0.01597734 -0.01589954 -0.01583105 -0.01578012 -0.01574257 -0.01571968 -0.01570234 -0.01568878 -0.01567415
 -0.01565741 -0.01563869 -0.01561781 -0.01559888 -0.01558233 -0.01557766 -0.01558458 -0.01560724 -0.01564092 -0.01566771
 -0.01568217 -0.01565592 -0.01559596 -0.0154996 -0.01538209 -0.01526423 -0.01515199 -0.01505873 -0.01498382 -0.01493007
 -0.01489761 -0.01488847 -0.01489673 -0.01492363 -0.01495136 -0.0149776 -0.01498362 -0.01496616 -0.01492062 -0.01484603
 -0.01475308 -0.01464262 -0.01453307 -0.01442496 -0.01433158 -0.01425098 -0.01418183 -0.01412161 -0.01406166 -0.01400276
 -0.01394312 -0.01388218 -0.01382067 -0.01375151 -0.01366785 -0.01356639 -0.01343943 -0.01329919 -0.01314774 -0.01300067
 -0.01286456 -0.01274136 -0.01263412 -0.01253131 -0.01243237 -0.0123231 -0.01220225 -0.01206522 -0.011912 -0.0117467
 -0.01156847 -0.01137255 -0.01115634 -0.01090276 -0.01061569 -0.01029465 -0.009951065 -0.009609283 -0.009271375 -0.008953252
 -0.00864469 -0.008340973 -0.008035588 -0.007720296 -0.007401241 -0.007078229 -0.006760739 -0.006452036 -0.006156303 -0.005876415
 -0.005605011 -0.005343963 -0.005061598 -0.004755893 -0.004395844 -0.00398162 -0.003538727 -0.00307151 -0.00263112 -0.002214312
 -0.001834054 -0.001482127 -0.001140979 -0.0008058657 -0.0004595416 -9.955487E-05 0.0002853165 0.0006933376 0.001129317 0.001582653
 0.002045417 0.002518394 0.002991932 0.003502229 0.004056768 0.004690918 0.005419886 0.006218542 0.007086994 0.007986945
 0.008914144 0.009880543 0.01088654 0.01194345 0.01304735 0.01416438 0.01529594 0.01642261 0.01756566 0.01877888
 0.02007752 0.02153406 0.02310973 0.02478866 0.02651243 0.02820696 0.02987398 0.03148652 0.03307923 0.0346652
 0.03625513 0.03785675 0.03946346 0.04106699 0.04271183 0.04439253 0.0462487 0.04829209 0.0506001 0.05316931
 0.0557915 0.05845359 0.0609345 0.06326696 0.06549195 0.06764536 0.06986086 0.07214035 0.07455011 0.07708222
 0.07973664 0.08255374 0.08554468 0.08883104 0.09249097 0.09662995 0.101366 0.1065464 0.1121979 0.1179373
 0.1236844 0.1292134 0.1344702 0.1394705 0.1442065 0.1488107 0.1532937 0.1579199 0.1627168 0.1680863
 0.1739829 0.1804731 0.1873448 0.1939326 0.2002072 0.2057126 0.2107058 0.2153763 0.2198989 0.2245506
 0.2293075 0.2342466 0.2392749 0.2443588 0.2494652 0.2545913 0.2596501 0.2646317 0.2694131 0.2739618
 0.2783447 0.2825621 0.2867408 0.2908815 0.2948583 0.2986552 0.302046 0.3050635 0.3077364 0.3101341
 0.3125086 0.3148485 0.3172909 0.3196952 0.3218813 0.3238423 0.325466 0.3269031 0.3282492 0.3295266
 0.3307967 0.3319437 0.3329406 0.3337114 0.3342307 0.3344857 0.3344731 0.3341704 0.3335735 0.3327071
 0.331575 0.3303268 0.3289676 0.3276089 0.3262356 0.3248252 0.3233716 0.3218329 0.3202402 0.3186273
 0.3170532 0.3156222 0.3143605 0.3133416 0.3125412 0.3119604 0.3115878 0.3114142 0.3114488 0.3117008
 0.3121393 0.3127632 0.3135239 0.31441 0.315433 0.3165908 0.3179348 0.3194669 0.3212122 0.3231678
 0.3253173 0.3276555 0.3301505 0.3327958 0.3355556 0.3384258 0.3413777 0.3444199 0.3475507 0.3507855
 0.3541409 0.3576221 0.3612399 0.3649872 0.3688645 0.3728609 0.3769729 0.3811929 0.3855208 0.3899405
 0.3944554 0.3990052 0.403587 0.4081203 0.4126024 0.4170433 0.4214494 0.4259121 0.4304019 0.4348338
 0.4391332 0.4429872 0.4464164 0.4492887 0.4517151 0.4538255 0.4556456 0.4572679 0.4586344 0.4597211
 0.4605176 0.4610165 0.461202 0.4610974 0.4605435 0.459506 0.4578768 0.4555945 0.4529893 0.450085
 0.4471234 0.4441124 0.4408762 0.4374086 0.4335746 0.4294001 0.4249539 0.4202567 0.4154431 0.4104425
 0.4052205 0.3995693 0.3931139 0.3858458 0.3774076 0.368513 0.3595814 0.3510867 0.3435319 0.3364883
 0.3299135 0.3234411 0.3169295 0.3104767 0.3040664 0.2979173 0.2920565 0.2864585 0.281121 0.2758589
 0.2706705 0.2654687 0.2602761 0.2551701 0.2501688 0.2453805 0.2407871 0.2364052 0.2322033 0.2281379
 0.2241938 0.2203497 0.2165652 0.2128399 0.2090248 0.2050612 0.2007807 0.1960265 0.1911149 0.1860223
 0.1814411 0.1775253 0.1742455 0.1716362 0.1691955 0.1668995 0.1644514 0.1618649 0.1591967 0.1564795
 0.1539334 0.151542 0.149368 0.147375 0.1454917 0.1437472 0.1421405 0.1407471 0.1396613 0.1388927
 0.1384932 0.1384027 0.1386014 0.1390513 0.139728 0.1406439 0.1417877 0.1432313 0.1449716 0.1471711
 0.1498458 0.1531 0.1569366 0.1610392 0.1653742 0.1694237 0.1732115 0.1766022 0.1796513 0.1824917
 0.1851186 0.1875853 0.1898724 0.1919382 0.1938668 0.1957034 0.1976106 0.1997643 0.2021275 0.2047959
 0.2074362 0.2099291 0.2121479 0.2140051 0.2156716 0.2171585 0.2186278 0.2200991 0.2216178 0.2231868
 0.2247625 0.2263427 0.2278807 0.2293868 0.2308865 0.2324065 0.2340526 0.2358402 0.2378721 0.2401095
 0.2425398 0.2451165 0.2477659 0.2505161 0.2533618 0.256344 0.2595003 0.2627873 0.26621 0.2696732
 0.2731501 0.2766062 0.2800258 0.2834549 0.2868988 0.2903621 0.2938446 0.2971777 0.3003466 0.303118
 0.3054973 0.3073983 0.3088377 0.309836 0.3103839 0.3104742 0.3100841 0.3091658 0.3077271 0.3057455
 0.3032721 0.3003328 0.2969867 0.2932749 0.2892191 0.2848388 0.2801248 0.2750627 0.2697293 0.2641115
 0.2584594 0.2527922 0.2473411 0.2421191 0.2371257 0.2323526 0.2276819 0.2231211 0.2186491 0.2142926
 0.2101449 0.2062032 0.2025208 0.1990516 0.1957478 0.1925632 0.1894245 0.1863154 0.1831937 0.1800789
 0.1769618 0.1738954 0.1708935 0.1680088 0.1652626 0.1626526 0.1601883 0.1578065 0.1555028 0.1532192
 0.1509525 0.1487274 0.1465512 0.144528 0.1426607 0.1410263 0.1396079 0.1383877 0.1373463 0.1364269
 0.1356264 0.1349137 0.1342942 0.1337649 0.133324 0.1329737 0.1326967 0.1324896 0.1323195 0.132178
 0.1320238 0.1318474 0.1316118 0.1313093 0.1309216 0.1304444 0.1298887 0.1292549 0.1285745 0.1278491
 0.1271038 0.126339 0.1255665 0.12479 0.1240268 0.1232848 0.122592 0.1219528 0.121389 0.1208967
 0.120481 0.1201346 0.1198538 0.1196327 0.1194675 0.1193523 0.1192848 0.119258 0.1192705 0.1193131
 0.119385 0.119473 0.1195759 0.11968 0.1197844 0.1198827 0.1199751 0.1200631 0.1201468 0.1202277
 0.1203034 0.1203675 0.1204131 0.1204222 0.120384 0.1202728 0.1200798 0.1197834 0.1193842 0.1188729
 0.1182617 0.1175517 0.116765 0.1159063 0.1150063 0.114071 0.1131347 0.112203 0.1113035 0.1104399
 0.1096253 0.1088609 0.1081469 0.1074826 0.1068599 0.1062779 0.1057272 0.1052084 0.1047174 0.1042562
 0.1038269 0.1034328 0.1030786 0.1027698 0.1025141 0.1023159 0.1021834 0.1021106 0.1020995 0.1021319
 0.1022022 0.1022947 0.1024034 0.1025253 0.1026592 0.1028039 0.1029599 0.1031145 0.103267 0.103399
 0.1035102 0.1035917 0.1036449 0.1036748 0.1036827 0.1036775 0.1036567 0.1036202 0.1035619 0.103471
 0.1033441 0.1031707 0.1029559 0.1026989 0.1024082 0.1020893 0.1017444 0.1013766 0.1009815 0.1005577
 0.100105 0.09962166 0.09911897 0.09859738 0.09807207 0.09754406 0.09701801 0.09649326 0.09595977 0.09541617
 0.09484833 0.09425651 0.09363386 0.09298243 0.09230328 0.09159968 0.09087644 0.09013935 0.08939581 0.08865407
 0.08792328 0.08720859 0.08651716 0.08584435 0.08519171 0.08454694 0.0839069 0.08326399 0.08261506 0.08196639
 0.08131784 0.08068093 0.08005644 0.07944556 0.078848 0.07825724 0.07767461 0.07710461 0.07655132 0.07603341
 0.07555285 0.07512501 0.07474753 0.07442278 0.07414937 0.0739249 0.07375333 0.07363575 0.07357998 0.07358925
 0.07367452 0.07383907 0.07409741 0.07445312 0.07492018 0.07550208 0.07620382 0.07702748 0.07796144 0.07900542
 0.08012944 0.08133153 0.08257563 0.08386177 0.08517073 0.08650713 0.08787826 0.08928955 0.09075978 0.09228884
 0.09388734 0.09554734 0.09726653 0.09902825 0.1008221 0.102622 0.1044143 0.1061662 0.1078648 0.1094773
 0.1109936 0.1123901 0.1136597 0.1147995 0.1158064 0.1167039 0.1174932 0.1182149 0.1188716 0.1195055
 0.1201194 0.1207527 0.12141 0.1221307 0.1229204 0.1238139 0.1248127 0.1259373 0.1271819 0.1285496
 0.1300279 0.1316096 0.1332779 0.1350236 0.1368266 0.1386792 0.1405588 0.1424592 0.1443595 0.1462546
 0.148136 0.1500014 0.1518579 0.1537059 0.1555565 0.1574098 0.1592673 0.1611276 0.1629819 0.1648284
 0.1666555 0.168461 0.1702351 0.1719749 0.1736713 0.175321 0.1769153 0.1784555 0.1799371 0.1813708
 0.1827595 0.1841193 0.1854562 0.186786 0.1881111 0.189457 0.1908243 0.1922595 0.1937666 0.1953932
 0.1971431 0.1990313 0.2010569 0.2031989 0.2054534 0.2077843 0.210184 0.212607 0.2150355 0.2174053
 0.2196878 0.2218053 0.2237298 0.2253937 0.226785 0.2278653 0.2286501 0.2291298 0.2293496 0.2293167
 0.2291024 0.2287194 0.228259 0.2277356 0.2272388 0.2267813 0.2264132 0.2261398 0.2259553 0.2258583
 0.2258145 0.225823 0.2258603 0.2259295 0.2260295 0.226166 0.2263524 0.2265942 0.2269096 0.2272979
 0.2277702 0.2283116 0.2289182 0.2295602 0.2302237 0.2308695 0.2314827 0.2320191 0.2324657 0.2327826
 0.2329602 0.2329771 0.2328284 0.2325157 0.2320381 0.2314147 0.230647 0.229764 0.2287669 0.2276805
 0.2265028 0.2252386 0.2238848 0.2224335 0.2208876 0.2192476 0.2175194 0.2157135 0.2138256 0.2118598
 0.2097967 0.2076284 0.2053314 0.2028938 0.2003022 0.1975486 0.1946367 0.1915644 0.1883486 0.1849906
 0.1815095 0.1779066 0.1742005 0.1703929 0.1665128 0.1625644 0.1585921 0.154602 0.1506425 0.1467192
 0.1428718 0.1391027 0.135436 0.131868 0.1284049 0.1250394 0.1217658 0.1185818 0.1154834 0.1124732
 0.1095537 0.1067185 0.1039696 0.1012841 0.09865893 0.09607118 0.09351658 0.09099344 0.08850066 0.08605997
 0.0836729 0.08137 0.07915302 0.077049 0.07505918 0.07320361 0.07148211 0.06990663 0.06847139 0.0671742
 0.06600118 0.06493512 0.06395976 0.06305475 0.06220873 0.06140954 0.06064934 0.05992313 0.05922244 0.05854379
 0.05788276 0.05723767 0.05660861 0.05599594 0.05539443 0.05480387 0.05421439 0.05362592 0.0530403 0.05245949
 0.05190071 0.05136547 0.05087003 0.0504134 0.05000105 0.04963144 0.04930468 0.04901811 0.04876944 0.04855302
 0.0483629 0.04819503 0.04804391 0.04791206 0.047799 0.0477088 0.04764411 0.04759996 0.04757728 0.04756194
 0.04755241 0.04753753 0.04751607 0.04748926 0.0474573 0.04742679 0.04739657 0.04736081 0.04731553 0.04723903
 0.04712961 0.04696868 0.04676253 0.04651231 0.04623044 0.04593352 0.04563256 0.04534401 0.04507273 0.04482663
 0.04460659 0.04441275 0.04425311 0.0441269 0.04405594 0.04404378 0.04411043 0.04426062 0.04448861 0.04479513
 0.04515249 0.04555936 0.04599172 0.04644909 0.04691851 0.04739806 0.04787278 0.04833901 0.04877726 0.04918787
 0.04956024 0.04990159 0.0502154 0.05051374 0.05080809 0.05111041 0.05143309 0.05177822 0.05215317 0.05254269
 0.05294596 0.05333931 0.05371772 0.05406624 0.05438185 0.05466142 0.05490441 0.05511174 0.05528354 0.05542337
 0.05553222 0.05561967 0.05568745 0.05574839 0.05580408 0.0558651 0.05593387 0.05601941 0.05612535 0.05626072
 0.05642676 0.05662946 0.05686362 0.05712951 0.05741581 0.05771855 0.05802574 0.05833277 0.05863304 0.05892396
 0.05920549 0.05947719 0.0597409 0.05999679 0.0602444 0.06048379 0.06071677 0.0609444 0.06117727 0.06141657
 0.06167483 0.06194981 0.06224216 0.0625472 0.06285536 0.06316453 0.06346793 0.06376453 0.06405205 0.06432668
 0.06458362 0.06482626 0.06505021 0.06527831 0.06551409 0.06578743 0.06610644 0.06648185 0.06691792 0.06740167
 0.06793296 0.06848935 0.06906962 0.06965059 0.07023162 0.07079615 0.07134613 0.07188175 0.0724063 0.07293131
 0.07345534 0.07398261 0.07450626 0.0750182 0.07551333 0.07598224 0.07642706 0.07684422 0.07724432 0.07762998
 0.07801469 0.07840424 0.07880215 0.07921183 0.07962271 0.08003359 0.08043794 0.08083449 0.08123376 0.08163629
 0.0820549 0.08248902 0.08293802 0.08340087 0.08387155 0.08435091 0.08483902 0.08533566 0.08584207 0.08635338
 0.08686414 0.08736741 0.08785366 0.08832072 0.08876222 0.08918525 0.08959052 0.08998838 0.09038367 0.09077646
 0.09116918 0.09155026 0.09191853 0.09226451 0.09258702 0.092887 0.09316459 0.093426 0.09367188 0.09391104
 0.09414384 0.09437773 0.09461081 0.09484115 0.0950668 0.09528084 0.09548721 0.09568845 0.09588891 0.09609656
 0.09630562 0.09651468 0.09671788 0.09690752 0.09709857 0.09729118 0.09751254 0.09777033 0.09807206 0.09842288
 0.09879683 0.09919341 0.09956739 0.0999166 0.1002081 0.1004441 0.1006335 0.1007835 0.1009363 0.1010949
 0.1012914 0.1015226 0.1017947 0.1021109 0.1024767 0.1029009 0.1033987 0.1039618 0.1045963 0.1052682
 0.1059658 0.1066535 0.1073145 0.1079404 0.1085221 0.109086 0.1096332 0.1101965 0.1107801 0.1113821
 0.1120022 0.1126081 0.1131997 0.1137614 0.1142977 0.1148252 0.1153452 0.1158722 0.1164004 0.1169239
 0.1174376 0.1179331 0.1184035 0.1188433 0.119233 0.119558 0.1198023 0.1199476 0.1200125 0.1199922
 0.1199361 0.1198525 0.1197858 0.1197446 0.119744 0.1197871 0.1198618 0.1199676 0.1200898 0.1202299
 0.1203983 0.1205988 0.1208586 0.1211761 0.1215616 0.1220072 0.1225029 0.1230358 0.1235868 0.1241328
 0.1246409 0.1251016 0.125479 0.1258372 0.1261743 0.1266402 0.1272995 0.1281851 0.1293556 0.1305636
 0.1317798 0.132832 0.1336952 0.1344044 0.1349607 0.1354247 0.1357969 0.1361005 0.1363322 0.1364889
 0.1365651 0.1365396 0.1364126 0.1361689 0.1358243 0.1353956 0.1348985 0.1343604 0.1337766 0.1331505
 0.1324819 0.1317613 0.1310287 0.1302876 0.1296052 0.1289964 0.1285114 0.1281633 0.1279509 0.1278784
 0.1278882 0.1279772 0.1280643 0.1281469 0.1281672 0.1281274 0.1280061 0.1278092 0.127539 0.1272128
 0.1268638 0.1265212 0.1262498 0.1260526 0.1259703 0.1259557 0.1259865 0.1260249 0.1260368 0.126038
 0.1260253 0.1260229 0.126038 0.1260746 0.1261348 0.1262175 0.126324 0.1264337 0.1265452 0.1266235
 0.1266717 0.1267116 0.1267554 0.1268875 0.1271053 0.127454 0.1279025 0.128406 0.1289326 0.1294091
 0.1298301 0.1301565 0.1304094 0.1305887 0.1307253 0.130837 0.130937 0.1310382 0.1311244 0.1311951
 0.131231 0.1312274 0.1311864 0.131107 0.1310015 0.1308708 0.1307328 0.1305899 0.1304781 0.1303987
 0.1303819 0.1304168 0.1304851 0.130568 0.1306111 0.1306098 0.130527 0.1303823 0.1301786 0.1299488
 0.1297185 0.1295088 0.1293438 0.1292068 0.1291036 0.1289872 0.1288478 0.1286509 0.1283877 0.1280563
 0.127655 0.1271974 0.1266844 0.1261413 0.1255701 0.125003 0.1244359 0.1238662 0.1232817 0.1226352
 0.1219268 0.1211287 0.1202602 0.1193434 0.118385 0.1174055 0.1163921 0.1153351 0.1142459 0.1131189
 0.1119991 0.1109035 0.1098532 0.1088625 0.1079022 0.1069697 0.1060402 0.1051086 0.1041978 0.1033088
 0.1024654 0.1016632 0.1008532 0.1000233 0.09907032 0.09800059 0.09676702 0.0954149 0.09402099 0.09263636
 0.09138813 0.0902744 0.08935172 0.08857358 0.08792297 0.08735861 0.08685552 0.08638405 0.08593004 0.08546896
 0.08498912 0.0844957 0.08398495 0.08348837 0.08300919 0.08256069 0.08214375</values></Ydata></AB><ScSm><Ydata ylabel="Single channel"><values byteorder="INTEL" format="FLOAT32" numvalues="1814"> 0.06511264 0.06512448 0.06519981 0.06535794 0.06556644 0.06575988 0.06588797 0.06594831 0.0659636 0.0659388
 0.06587493 0.06582056 0.06585972 0.06602596 0.06625183 0.06641813 0.06645143 0.06638902 0.06635562 0.06644264
 0.06658371 0.06657578 0.06626634 0.06572582 0.06520298 0.06489694 0.06483333 0.0650067 0.0654997 0.06624879
 0.06678814 0.06658716 0.0657226 0.06489746 0.0646628 0.06488827 0.06509749 0.06501491 0.06465077 0.06418366
 0.06399678 0.06457731 0.06603876 0.0677239 0.06844187 0.06722338 0.0640149 0.05988689 0.05663261 0.05581004
 0.05764885 0.0607384 0.06308442 0.06369975 0.06307559 0.06216906 0.0613689 0.06062969 0.06014874 0.06039365
 0.06146202 0.06265633 0.06285319 0.06146821 0.05914748 0.05729977 0.0568099 0.05749087 0.05884542 0.06060863
 0.06197978 0.06118291 0.05721305 0.05205064 0.04978082 0.05270973 0.0589046 0.06408283 0.06542175 0.06314796
 0.05930281 0.05604744 0.05484176 0.05605287 0.05889356 0.06207438 0.0645819 0.06572796 0.06498045 0.06242381
 0.05921198 0.05701222 0.05698043 0.0593029 0.06315719 0.06679383 0.06833321 0.06715094 0.06429087 0.06136344
 0.05948667 0.05929095 0.06107876 0.06451117 0.06858616 0.07221844 0.07468057 0.07567754 0.07541139 0.07445208
 0.07330182 0.07231176 0.07198615 0.0726741 0.07375748 0.07388017 0.07241823 0.07030573 0.06907272 0.06926177
 0.06999166 0.07003619 0.06907181 0.06749061 0.06519121 0.06153861 0.05682122 0.05265745 0.05038088 0.0500148
 0.05122062 0.0538255 0.05671259 0.05776035 0.05617028 0.05394622 0.05391504 0.05670804 0.06043558 0.06298015
 0.06395293 0.06453562 0.06596547 0.0682759 0.07014192 0.069878 0.06710611 0.06369637 0.06244628 0.0643369
 0.06758971 0.06985405 0.07068667 0.07130281 0.0724454 0.07323078 0.07207435 0.06857978 0.06454422 0.06284301
 0.0649243 0.06935767 0.07287668 0.07280283 0.0688435 0.06313699 0.05858412 0.0568503 0.05792122 0.06120197
 0.0661671 0.0717916 0.07628756 0.07811083 0.07709597 0.07434566 0.07097534 0.06709415 0.06241013 0.05792979
 0.05615429 0.05871249 0.06428061 0.06968863 0.0727503 0.0733528 0.07222642 0.06960393 0.06541215 0.06052565
 0.05717412 0.0572187 0.05991402 0.06232686 0.06240205 0.0608337 0.0595629 0.0593615 0.05954626 0.05944522
 0.05934199 0.05996138 0.06141989 0.06294223 0.06361178 0.06321184 0.06226111 0.06140818 0.06084993 0.06020153
 0.05903565 0.05771547 0.05736658 0.05864618 0.06084172 0.06260471 0.06330815 0.06328176 0.06292311 0.06201529
 0.06006072 0.05722987 0.05475444 0.054015 0.05520234 0.05719946 0.05875109 0.05936784 0.05919632 0.05856153
 0.05774863 0.05691166 0.05612332 0.05557793 0.05553935 0.05596405 0.05642318 0.05653751 0.05628721 0.05581827
 0.05517091 0.05432459 0.05338584 0.05260716 0.05220782 0.05220038 0.05241252 0.05264747 0.05276071 0.0526299
 0.05219647 0.05155788 0.05090519 0.05035119 0.04990231 0.04957592 0.0494272 0.04944385 0.04950354 0.04947325
 0.04931044 0.04904931 0.04872686 0.04835492 0.04794912 0.04755576 0.04724148 0.0470487 0.0469482 0.04685458
 0.04671957 0.04658272 0.04648462 0.04636798 0.04613506 0.04578255 0.04541354 0.04512519 0.04493244 0.04478928
 0.0446374 0.0444246 0.04410949 0.04369225 0.04325641 0.04294202 0.04283686 0.04290898 0.04305986 0.04320075
 0.0432638 0.04320743 0.04305039 0.04285564 0.04265582 0.04243028 0.04216326 0.04189318 0.04169834 0.04163951
 0.04170346 0.04180318 0.04184879 0.04180925 0.04170377 0.04157259 0.04146552 0.04140912 0.04136744 0.0412772
 0.04113083 0.04098793 0.04090117 0.04086027 0.04081188 0.04072 0.04060581 0.04052632 0.04051097 0.0405321
 0.04054343 0.04052773 0.04049795 0.04046761 0.04042804 0.04035286 0.04023248 0.04010073 0.0400062 0.03995951
 0.03993393 0.03991373 0.03991149 0.03993585 0.03996691 0.03997253 0.03994156 0.03989482 0.03985828 0.03982769
 0.03977364 0.03968435 0.03958583 0.03951204 0.03946978 0.0394395 0.03939975 0.03934412 0.03927922 0.03921199
 0.03914257 0.0390683 0.03898745 0.03889976 0.03881278 0.03874502 0.03870825 0.03868614 0.03864471 0.03856726
 0.03847045 0.0383838 0.03831908 0.03826272 0.03819785 0.03812891 0.03807712 0.03805355 0.03804828 0.03804589
 0.03803903 0.03802744 0.03801938 0.03803724 0.03810526 0.03822179 0.03835184 0.03845636 0.03852616 0.0385823
 0.03864803 0.03872879 0.03881811 0.03891346 0.03902188 0.0391508 0.03929298 0.03942368 0.03952229 0.0395984
 0.03968554 0.03980714 0.03995929 0.04012481 0.04028739 0.04043116 0.04054781 0.04065129 0.04076909 0.04091036
 0.04105656 0.04119042 0.04132002 0.04146424 0.04162636 0.04179586 0.04197048 0.04216328 0.04238698 0.04263687
 0.0428891 0.04311559 0.0433079 0.04349014 0.04370194 0.04396374 0.0442603 0.04455747 0.04483159 0.04508485
 0.04533549 0.04559366 0.04585195 0.04610625 0.0463765 0.04668855 0.04703789 0.04739039 0.04772057 0.04803287
 0.0483439 0.04866057 0.04898109 0.049305 0.04963481 0.04997209 0.05031464 0.05065587 0.05098829 0.05130911
 0.05162202 0.05193435 0.05225334 0.05257993 0.05290081 0.0531943 0.05345572 0.05371206 0.05399574 0.05430465
 0.05460519 0.05487737 0.05513871 0.05541587 0.05570991 0.05600404 0.0562938 0.05659198 0.05690632 0.05722381
 0.05751792 0.05776722 0.05797111 0.05815239 0.05834233 0.05856197 0.05881939 0.05911608 0.0594411 0.05976369
 0.06005011 0.06028994 0.06049574 0.06068436 0.06087326 0.06108515 0.06133395 0.06160801 0.06188034 0.06213056
 0.06235147 0.0625506 0.06275663 0.06300591 0.06330831 0.0636393 0.06397614 0.06432375 0.06469198 0.06506658
 0.0654261 0.06577846 0.06615422 0.06655999 0.06695975 0.06731084 0.06760187 0.06784828 0.06807235 0.06830462
 0.06858556 0.06893956 0.06935057 0.06977747 0.07018869 0.07057226 0.07092287 0.07123488 0.07150818 0.07175268
 0.07198291 0.07220711 0.07242209 0.07262224 0.07281177 0.07299788 0.07317056 0.07330091 0.07336421 0.07335343
 0.07326603 0.07309337 0.07283655 0.07251995 0.0721699 0.07178243 0.07132683 0.07077992 0.0701436 0.0694297
 0.06864503 0.06780048 0.06692766 0.06608033 0.06532092 0.06470509 0.06427374 0.06405456 0.06406286 0.06428817
 0.0646731 0.06511346 0.06549063 0.06570815 0.06570476 0.0654531 0.06496538 0.06429955 0.06354488 0.06279229
 0.06211067 0.06153643 0.06107434 0.06071592 0.06047183 0.06038915 0.06053561 0.06097463 0.06175932 0.0629293
 0.06447764 0.06630487 0.06822239 0.07003002 0.07160814 0.07294586 0.07409897 0.0751362 0.07611047 0.07704505
 0.0779302 0.07874306 0.07947636 0.08013947 0.08073521 0.08125011 0.08166754 0.0819781 0.08217883 0.08227602
 0.08229294 0.08227299 0.08227465 0.08235693 0.08255191 0.08283836 0.08314377 0.08337887 0.08347839 0.08342277
 0.0832379 0.08299398 0.08282544 0.08295085 0.08362329 0.08498918 0.08696108 0.08924055 0.09148387 0.09345993
 0.09508957 0.09639571 0.09744686 0.0983233 0.09909506 0.09980905 0.1004904 0.1011513 0.101796 0.102422
 0.1030214 0.1035912 0.1041408 0.1046866 0.1052339 0.105771 0.1062856 0.1067817 0.1072755 0.1077763
 0.1082779 0.1087696 0.1092507 0.1097319 0.1102196 0.110703 0.1111627 0.1115902 0.1119946 0.1123939
 0.1128055 0.1132361 0.1136734 0.1140921 0.1144752 0.114829 0.1151737 0.1155251 0.1158867 0.1162547
 0.1166232 0.1169861 0.1173394 0.1176843 0.1180268 0.1183715 0.1187143 0.1190428 0.1193494 0.1196411
 0.1199348 0.1202428 0.1205641 0.120889 0.1212118 0.1215366 0.1218712 0.1222187 0.122574 0.1229275
 0.1232712 0.1236033 0.1239289 0.124254 0.1245808 0.1249099 0.1252434 0.1255807 0.1259177 0.1262518
 0.1265857 0.1269223 0.12726 0.127597 0.1279328 0.1282651 0.1285893 0.1289062 0.1292264 0.129563
 0.1299211 0.1302924 0.1306603 0.1310096 0.1313341 0.131638 0.1319331 0.1322335 0.1325496 0.1328822
 0.1332238 0.133566 0.1339053 0.1342417 0.1345753 0.1349061 0.1352369 0.1355716 0.1359108 0.1362519
 0.1365922 0.1369317 0.1372699 0.1376041 0.1379308 0.1382496 0.1385647 0.1388852 0.1392201 0.139569
 0.1399203 0.1402627 0.1405961 0.1409261 0.1412533 0.141572 0.1418803 0.1421858 0.1424983 0.1428204
 0.1431441 0.1434585 0.1437617 0.144063 0.1443731 0.1446937 0.1450179 0.1453378 0.145652 0.1459644
 0.146277 0.1465857 0.1468863 0.1471799 0.1474695 0.1477567 0.1480443 0.1483376 0.1486381 0.1489423
 0.1492456 0.1495458 0.1498426 0.1501369 0.1504298 0.1507205 0.1510114 0.1513103 0.1516184 0.1519232
 0.1522133 0.1524942 0.1527812 0.1530825 0.1533951 0.1537098 0.1540163 0.1543097 0.1545959 0.1548851
 0.155183 0.1554878 0.1557926 0.1560924 0.1563912 0.1566982 0.1570139 0.157328 0.1576315 0.1579233
 0.1582073 0.1584894 0.1587728 0.1590551 0.1593353 0.1596217 0.159923 0.1602347 0.1605457 0.1608517
 0.1611558 0.1614637 0.161779 0.1620979 0.1624107 0.1627142 0.1630181 0.1633331 0.1636595 0.1639891
 0.1643115 0.1646208 0.1649232 0.1652295 0.1655402 0.1658483 0.1661527 0.166456 0.1667574 0.1670562
 0.1673545 0.1676514 0.1679455 0.1682409 0.1685417 0.1688477 0.1691601 0.1694788 0.169793 0.1700896
 0.1703717 0.170653 0.1709428 0.1712438 0.1715497 0.1718462 0.1721283 0.1724115 0.1727094 0.1730144
 0.1733119 0.173598 0.1738773 0.1741592 0.1744522 0.1747502 0.1750375 0.1753112 0.1755792 0.1758323
 0.1760249 0.1760359 0.1755761 0.1740893 0.1707436 0.164596 0.1549726 0.141905 0.1262708 0.1094734
 0.09292258 0.07767852 0.06436296 0.05324946 0.04439716 0.03773452 0.03311494 0.03041363 0.02962386 0.03095038
 0.03492013 0.04207805 0.05178897 0.061153 0.06612028 0.06469283 0.0588432 0.0527151 0.04917032 0.04840099
 0.04917363 0.05044089 0.05187477 0.05367243 0.05617157 0.05947423 0.06342512 0.06801561 0.07358591 0.08039113
 0.08807428 0.09581231 0.1030255 0.1098366 0.1167938 0.124215 0.1318553 0.13915 0.1456681 0.1513265
 0.1562967 0.1608082 0.1650221 0.1690188 0.1728414 0.1764879 0.1798301 0.1825826 0.1844395 0.1853026
 0.1853927 0.1851261 0.1848713 0.1848031 0.1849369 0.1852356 0.1856713 0.1862335 0.1869174 0.1877044
 0.1885512 0.1894119 0.1902635 0.1910987 0.1919038 0.1926597 0.1933537 0.1939828 0.1945522 0.1950749
 0.195564 0.1960244 0.1964564 0.1968621 0.1972449 0.1976078 0.1979536 0.1982819 0.1985892 0.1988752
 0.1991435 0.1993937 0.1996252 0.1998473 0.2000772 0.2003219 0.2005716 0.2008117 0.2010386 0.2012618
 0.2014926 0.2017309 0.201966 0.2021924 0.2024159 0.202643 0.2028725 0.2031018 0.2033326 0.203566
 0.2038005 0.2040348 0.2042678 0.2044944 0.2047099 0.2049173 0.2051266 0.2053478 0.2055807 0.2058133
 0.2060361 0.2062588 0.2065002 0.2067631 0.2070323 0.207296 0.2075559 0.2078152 0.2080721 0.2083201
 0.2085469 0.2087407 0.208905 0.2090657 0.2092577 0.209502 0.2097883 0.2100801 0.2103461 0.2105845
 0.2108132 0.211043 0.2112707 0.2114878 0.2116962 0.2119208 0.2121924 0.2125071 0.2128249 0.2131185
 0.2133964 0.2136724 0.2139486 0.2142314 0.2145213 0.2147858 0.2149863 0.2151416 0.2153352 0.2156437
 0.2160625 0.2165059 0.2168868 0.2171904 0.217463 0.2177517 0.2180771 0.2184164 0.2186792 0.2187685
 0.2187325 0.2187904 0.2191299 0.2197203 0.2203726 0.2209344 0.2213761 0.2217405 0.2220658 0.2223472
 0.222542 0.2226173 0.2226233 0.2227152 0.2230507 0.2236283 0.224273 0.2248134 0.2252201 0.2255459
 0.2258289 0.2260851 0.2262723 0.2262379 0.225878 0.2254179 0.2253529 0.225969 0.2270209 0.2279964
 0.2286264 0.2290185 0.2293626 0.2296948 0.2299605 0.2300653 0.2297629 0.2287921 0.2273928 0.226458
 0.2268033 0.2283441 0.2302345 0.2317126 0.2325871 0.2330496 0.2333375 0.2335767 0.2336921 0.2334137
 0.2325789 0.2315431 0.2310945 0.2317279 0.233087 0.2343437 0.2350414 0.2353404 0.2355779 0.2358904
 0.2361211 0.2357771 0.2343081 0.2319107 0.2299387 0.2299518 0.2321876 0.2352771 0.2376073 0.2387111
 0.2391369 0.2392568 0.2387179 0.2370772 0.2344753 0.2315755 0.2293342 0.2288544 0.2306627 0.2338087
 0.2363974 0.2374515 0.2377406 0.2385249 0.240054 0.2415781 0.2423245 0.2420944 0.2411263 0.239674
 0.2378838 0.2361844 0.2355279 0.2367191 0.239435 0.2423355 0.2443017 0.2452823 0.2457136 0.2452241
 0.2423678 0.2363593 0.2292657 0.2254543 0.2277395 0.2344314 0.2411522 0.2451507 0.2468146 0.2476063
 0.2480965 0.2478068 0.2455009 0.2398722 0.2316102 0.2246757 0.2236252 0.229116 0.2371619 0.242844
 0.2436596 0.2397926 0.233234 0.2271903 0.2247751 0.2271173 0.2328663 0.2395331 0.2449846 0.2480111
 0.2483141 0.2464163 0.2436304 0.2417265 0.2416481 0.2421234 0.2406318 0.2365894 0.2323257 0.2296687
 0.2271261 0.2226506 0.2181091 0.2180364 0.2237327 0.2310934 0.2352146 0.2353564 0.234087 0.2326271
 0.2288015 0.2202052 0.2087715 0.2008563 0.2016738 0.2098963 0.2188391 0.2229884 0.2223833 0.2206841
 0.2202698 0.2198092 0.2161591 0.2084562 0.2001745 0.196218 0.1977334 0.2010738 0.2021193 0.1996161
 0.1938013 0.1849937 0.1758083 0.1720386 0.1777786 0.1903966 0.2026053 0.2085004 0.2057775 0.1944044
 0.1772577 0.1616539 0.1558198 0.1615985 0.1722383 0.1786004 0.1764361 0.1671765 0.1539587 0.1393837
 0.1266043 0.1197702 0.1215217 0.1302349 0.1402676 0.1449309 0.1402027 0.1277032 0.114612 0.1085287
 0.1107823 0.1156863 0.1169473 0.1133406 0.1078357 0.1036199 0.102175 0.1032075 0.1050439 0.1061125
 0.1061801 0.1048476 0.09991572 0.09008078 0.07873588 0.07179478 0.07151872 0.07531641 0.08050688 0.08671589
 0.09285067 0.09548026 0.09274369 0.08796054 0.08682062 0.09134211 0.09811537 0.102406 0.1027949 0.1014487
 0.1007046 0.100522 0.09968194 0.098579 0.09932294 0.1028392 0.1072562 0.1099896 0.110437 0.1097605
 0.108915 0.1079374 0.1066151 0.1048956 0.1028216 0.1005948 0.09852983 0.09670124 0.09488252 0.09290204
 0.09064212 0.08757219 0.08289878 0.07675765 0.07091393 0.06741117 0.06647418 0.06661269 0.06679849 0.06711418
 0.06680852 0.0636615 0.05693118 0.04981899 0.04714158 0.05069089 0.05793051 0.06489035 0.06913881 0.06996161
 0.06726038 0.06188326 0.05686808 0.05648099 0.0626984 0.07330799 0.08433066 0.09344508 0.1001491 0.103855
 0.1037309 0.1003809 0.09645357 0.0951675 0.09842199 0.1059113 0.1150526 0.1214726 0.1211644 0.1146109
 0.1087815 0.1119536 0.1248344 0.1391582 0.1469569 0.1486977 0.1498532 0.1523794 0.1538146 0.153522
 0.1550898 0.1614106 0.1703601 0.1768359 0.1772018 0.1707173 0.1590133 0.1463517 0.1385159 0.1383025
 0.142522 0.145575 0.144938 0.1409601 0.133539 0.1232272 0.1145662 0.1134423 0.1202562 0.1290607
 0.1343291 0.1359803 0.1369324 0.138027 0.1370446 0.1321087 0.124791 0.1191175 0.1175758 0.118932
 0.1203043 0.1202108 0.1186465 0.1153941 0.1101474 0.1042325 0.1006179 0.1013857 0.1056454 0.1104155
 0.1133227 0.1141191 0.1139583 0.1139234 0.1142818 0.114599 0.114526 0.1148238 0.1172113 0.1224607
 0.1290378 0.1346116 0.1386974 0.1428041 0.1480286 0.1534706 0.1572528 0.1585391 0.1583724 0.1588348
 0.1613902 0.1656766 0.169735 0.1716737 0.1714709 0.1711662 0.1729775 0.1771664 0.1820025 0.185702
 0.1878812 0.1891811 0.1902104 0.1910378 0.1911605 0.1899108 0.1874808 0.1855192 0.1859832 0.1892068
 0.1935757 0.1971653 0.1992576 0.2002443 0.2006155 0.2004146 0.1995321 0.1982038 0.1970254 0.196491
 0.1966469 0.1972159 0.1979058 0.1985321 0.1989987 0.1992991 0.1995034 0.1996939 0.1999399 0.2003194
 0.2008821 0.2015775 0.2022974 0.2030163 0.2038235 0.2047724 0.2057562 0.2065898 0.2071659 0.2074601
 0.2074296 0.2070217 0.2062777 0.2053209 0.2042132 0.2029215 0.2015058 0.2003057 0.1998362 0.2004206
 0.2019102 0.2037753 0.2054697 0.2067101 0.2074866 0.2079261 0.2081854 0.2083974 0.2086326 0.208893
 0.2091487 0.2093818 0.2095931 0.2097842 0.2099563 0.2101296 0.2103503 0.2106597 0.211057 0.2114979
 0.2119215 0.2122787 0.2125503 0.2127556 0.2129311 0.2130877 0.2131885 0.2131787 0.21304 0.2128135
 0.2125673 0.212342 0.2121234 0.2118578 0.2114912 0.2109911 0.2103289 0.2094547 0.2083263 0.2069734
 0.2054989 0.2039919 0.2024611 0.200867 0.1991807 0.1973867 0.1954622 0.1933905 0.1911825 0.1888737
 0.1865149 0.1841691 0.1819006 0.1797538 0.1777452 0.1758667 0.1740895 0.1723699 0.1706614 0.1689175
 0.1670768 0.1650475 0.1627172 0.1599867 0.1567982 0.1531395 0.1490431 0.1445986 0.1399542 0.1352823
 0.1307308 0.1264037 0.1223764 0.1187169 0.1154904 0.1127491 0.1105223 0.1088183 0.1076292 0.1069382
 0.1067245 0.1069545 0.1075537 0.1083938 0.1093252 0.1102235 0.1109992 0.1115889 0.1119821 0.11226
 0.1125758 0.113068 0.1137838 0.1146814 0.1156867 0.1167265 0.1177176 0.1185695 0.1192301 0.1197151
 0.1200736 0.1203368 0.1205093 0.1205883 0.120572 0.1204624 0.1202714 0.1200312 0.1198015 0.1196628
 0.119688 0.1199118 0.1203311 0.1209282 0.1216855 0.1225879 0.1236234 0.1247833 0.1260602 0.1274542
 0.1289801 0.1306689 0.1325664 0.1347274 0.1371967 0.1399872 0.1430784 0.1464226 0.1499473 0.1535546
 0.1571307 0.1605604 0.1637521 0.1666637 0.1693007 0.1716844 0.1738365 0.1757913 0.1776002 0.1793084
 0.1809283 0.1824328 0.18377 0.1848894 0.1857634 0.1863911 0.1867964 0.1870285 0.1871481 0.1872016
 0.187211 0.1871873 0.1871428 0.1870936 0.1870566 0.1870373 0.187017 0.1869631 0.1868526 0.1866787
 0.1864362 0.1861123 0.1856855 0.1851331 0.1844494 0.1836555 0.1827796 0.1818304 0.1807992 0.1796808
 0.1784832 0.1772289 0.1759519 0.1746812 0.1734152 0.1721116 0.1707047 0.1691445 0.1674356 0.1656377
 0.1638228 0.162036 0.1602965 0.1586115 0.1569792 0.1553983 0.1538808 0.1524435 0.1510869 0.1497984
 0.1485662 0.1473823 0.1462438 0.1451633 0.1441676 0.1432801 0.1425121 0.1418634 0.1413206 0.1408599
 0.1404583 0.1401012 0.1397853 0.1395232 0.1393308 0.1391966 0.1390753 0.1389214 0.1387178 0.1384736
 0.1382131 0.1379654 0.1377454 0.1375424 0.1373313 0.1370841 0.1367611 0.1363051 0.1356525 0.1347523
 0.1335761 0.1321224 0.1304238 0.1285616 0.1266698 0.1248968 0.1233481 0.1220636 0.1210355 0.1202208
 0.1195503 0.1189641 0.1184522 0.1180563 0.1178242 0.1177491 0.1177375 0.1176631 0.1174806 0.1172753
 0.1171871 0.1172987 0.1175927 0.1179771 0.1183448 0.1186339 0.1188318 0.1189297 0.1189107 0.1187861
 0.1185971 0.1183696 0.1181016 0.1177908 0.1174452 0.1170739 0.1166804 0.116253 0.1157649 0.1152007
 0.1145681 0.113873 0.1131108 0.112277 0.1113488 0.110292 0.1091507 0.1081085 0.107402 0.1071726
 0.1073974 0.1079185 0.1085432 0.1091565 0.1097026 0.1100519 0.1100327 0.1097188 0.1095719 0.1101093
 0.1114084 0.1130245 0.1143902 0.1152095 0.1154737 0.1152605 0.1146371 0.1136678 0.1123783 0.1107457
 0.1087927 0.106619 0.1043098 0.1019266 0.09959668 0.097482 0.09566944 0.09416834 0.09295806 0.09205428
 0.09155467 0.09119088 0.08956406 0.08487464 0.07769716 0.07222995 0.07277182 0.07889299 0.08573894 0.08918487
 0.08913668 0.08780748 0.08670753 0.08605468 0.08577076 0.08596319 0.08672389 0.08793931 0.0892998 0.09046257
 0.09125096 0.0916566 0.09164947 0.09100685 0.08924234 0.08575188 0.08031402 0.07355622 0.0667504 0.06107014
 0.0570733 0.05470493 0.05351815 0.05293142 0.05253495 0.05229197 0.05244812 0.05324323 0.05470625 0.05668885
 0.05901061 0.06148178 0.06383139 0.06578991 0.06729671 0.06850041 0.06951444 0.07028188 0.07069673 0.07074568
 0.07050618 0.07008419 0.06957273 0.06901576 0.06838159 0.06759935 0.06667717 0.06579152 0.06518538 0.06494031
 0.06491854 0.06495053 0.06498469 0.06503823 0.06511641 0.06521435 0.06532965 0.06547839 0.06573371 0.06618564
 0.06681807 0.06748897 0.06806167 0.06850848 0.06887984 0.06918981 0.06932968 0.06916125 0.06875938 0.068427
 0.06831434 0.06816536 0.0676638 0.06693099 0.06644737 0.06651811 0.06699501 0.06749921 0.067762 0.06775177
 0.06763224 0.06767688 0.0680985 0.06880891</values></Ydata></ScSm><ScRf><Ydata ylabel="Single channel"><values byteorder="INTEL" format="FLOAT32" numvalues="1820"> 0.06073956 0.06089784 0.06098572 0.06101105 0.06100179 0.06100123 0.06105789 0.06119793 0.06140053 0.06160437
 0.06174949 0.06181799 0.0618256 0.061784 0.06170465 0.0616398 0.06167052 0.06182723 0.06204312 0.06220187
 0.06223079 0.06216252 0.06211424 0.06217531 0.06228783 0.06226287 0.06195633 0.0614341 0.06093156 0.06063826
 0.06057952 0.06075 0.06122763 0.06195363 0.06248684 0.06231777 0.06150634 0.06071042 0.0604566 0.06063577
 0.06081005 0.06072206 0.06037511 0.05992956 0.0597441 0.0602804 0.06164764 0.06322718 0.06389818 0.06274839
 0.05972515 0.05583215 0.05275599 0.05196775 0.05369185 0.05660384 0.0588199 0.05940193 0.05881486 0.05797161
 0.05724071 0.05656303 0.05610465 0.05630473 0.05727348 0.05837203 0.05854499 0.05723374 0.05504181 0.05329885
 0.05284147 0.05349009 0.05476822 0.05642065 0.05769458 0.05692462 0.05317151 0.04830395 0.04617055 0.04894402
 0.05480083 0.05969672 0.06096071 0.05880536 0.05516842 0.0521038 0.05098918 0.0521534 0.05483545 0.05781674
 0.06015423 0.0612142 0.06050454 0.0581071 0.05510322 0.05305126 0.05302896 0.055209 0.05882234 0.06223045
 0.06366969 0.06255163 0.05985355 0.0570886 0.05531269 0.05512571 0.05681714 0.06006873 0.06393172 0.06737222
 0.06969361 0.0706172 0.07034585 0.06943379 0.068363 0.06745836 0.06717842 0.06783506 0.06883848 0.0689197
 0.06751259 0.06551516 0.06436761 0.06456534 0.06526701 0.0653169 0.06441088 0.06291483 0.06073178 0.05726988
 0.05281244 0.04889178 0.04676076 0.04643382 0.04759569 0.05009599 0.05288032 0.05392395 0.05244842 0.05034028
 0.05028171 0.0528851 0.05637483 0.05875318 0.05965549 0.06020424 0.0615714 0.06378236 0.06557526 0.06535278
 0.06275915 0.05956583 0.05842101 0.06025111 0.06336731 0.06554194 0.0663614 0.06698674 0.06812724 0.06894293
 0.06792468 0.0646925 0.06095217 0.05943041 0.06149426 0.0657822 0.06919517 0.0691867 0.06547481 0.06010406
 0.05585521 0.0543218 0.05549216 0.05881824 0.06382264 0.06952167 0.07416628 0.07622229 0.07548195 0.07299027
 0.06984699 0.06618529 0.0617316 0.05749156 0.05596925 0.05880775 0.0646916 0.07044204 0.07385372 0.07479476
 0.07397397 0.07158819 0.0675345 0.06273199 0.05955169 0.05997675 0.06321442 0.06614137 0.06656858 0.06523871
 0.06423075 0.06437393 0.06492907 0.06517318 0.06543982 0.06655008 0.06863104 0.07079692 0.07199974 0.07197995
 0.07131821 0.07076417 0.07055637 0.07024433 0.06932516 0.06824344 0.06834624 0.07040289 0.07354124 0.07614165
 0.07746521 0.07792641 0.07800144 0.07738583 0.07542495 0.07233257 0.06969541 0.06929737 0.07139367 0.07454504
 0.07711382 0.07844703 0.07873341 0.07840895 0.07785675 0.07728356 0.07678798 0.07662918 0.07716059 0.07832371
 0.07952958 0.08024596 0.08043593 0.0802967 0.07987694 0.07915074 0.078293 0.07768615 0.07764386 0.07817602
 0.07903528 0.07993722 0.08065936 0.08100164 0.08085968 0.08037873 0.07986879 0.07951978 0.07933152 0.07931496
 0.0795673 0.08009052 0.08068831 0.08112913 0.08133484 0.08136549 0.08129374 0.08114826 0.08094706 0.08075027
 0.08067064 0.08079749 0.08108757 0.0813876 0.08161182 0.08182815 0.08210022 0.08232574 0.08234191 0.08215019
 0.08193225 0.08185394 0.0819285 0.08206405 0.08216557 0.08215623 0.08196282 0.08157863 0.08115709 0.08095782
 0.0811422 0.08165811 0.08232947 0.08298066 0.08347008 0.08372228 0.08378153 0.08376185 0.08371275 0.08358832
 0.08336017 0.08311464 0.08302077 0.08320357 0.08363339 0.08414204 0.08455734 0.08480747 0.08491335 0.08495192
 0.08503006 0.08520361 0.0853956 0.08546931 0.08540294 0.08532604 0.08536238 0.08548798 0.08556944 0.08552196
 0.08541025 0.08538549 0.08552727 0.08577129 0.08599831 0.08616403 0.08631949 0.08651657 0.08671172 0.08678369
 0.08666778 0.08645159 0.08629024 0.08624128 0.08624911 0.0862824 0.08639447 0.08661658 0.086865 0.0870145
 0.0870377 0.08702523 0.08706714 0.08714668 0.08716647 0.08706258 0.08687252 0.08669828 0.08662425 0.08666669
 0.08677472 0.08686607 0.08687709 0.0867983 0.08666895 0.08653852 0.0864364 0.08638228 0.08641315 0.08656842
 0.08682379 0.08705416 0.08710522 0.08692999 0.08664482 0.08642837 0.08635998 0.086364 0.08630691 0.08612858
 0.08587532 0.08563152 0.08544543 0.08531393 0.0852108 0.08511997 0.08505833 0.08507366 0.08519536 0.08536639
 0.08544999 0.0853447 0.08508859 0.08482012 0.08464706 0.08458 0.08456971 0.08456709 0.08456006 0.08458248
 0.08466808 0.08477858 0.08481722 0.084739 0.08460973 0.08453818 0.08458878 0.08476129 0.0849928 0.08516645
 0.08518527 0.08507109 0.08495044 0.08492447 0.08498696 0.08507691 0.08516349 0.08525297 0.08534855 0.08544397
 0.0855513 0.08570502 0.08592784 0.08619782 0.08645321 0.08663403 0.08673196 0.08680779 0.08695164 0.08721126
 0.08755283 0.08789043 0.08815497 0.08834216 0.08849936 0.08866894 0.08885431 0.08904812 0.08927177 0.08955626
 0.08989142 0.09022737 0.09052904 0.09080526 0.09108232 0.09137069 0.09166605 0.09197469 0.09232718 0.09275009
 0.09321098 0.09361095 0.09386362 0.09398188 0.09407271 0.09425432 0.09457792 0.09499149 0.09536056 0.09556889
 0.09563726 0.0957121 0.09590319 0.09617024 0.09641122 0.09662387 0.09691161 0.09733452 0.09781438 0.09820919
 0.09845285 0.09860241 0.09876047 0.09896593 0.0991652 0.09929088 0.09935367 0.0994298 0.09956416 0.09973496
 0.09992993 0.1001992 0.1005843 0.1010319 0.101432 0.1017222 0.101916 0.102052 0.1021549 0.1022317
 0.1022767 0.1022922 0.1023158 0.1023944 0.1025176 0.1026175 0.102655 0.1026724 0.1027377 0.102876
 0.1030806 0.1033496 0.1036686 0.103985 0.1042551 0.1045139 0.1048402 0.1052342 0.1055793 0.1057648
 0.1058069 0.1058068 0.1058237 0.1058537 0.1059104 0.1060513 0.1063067 0.1066361 0.1069778 0.1073128
 0.1076576 0.1080147 0.1083448 0.1085836 0.108687 0.1086707 0.1086113 0.1086058 0.1087217 0.1089678
 0.1092937 0.1096205 0.1098873 0.1100685 0.110154 0.1101435 0.1100834 0.1100748 0.1101924 0.1103935
 0.1105412 0.1105196 0.1103048 0.1099297 0.1094229 0.108805 0.1081232 0.1074597 0.1068979 0.1064863
 0.106245 0.1062028 0.1064065 0.1068707 0.1075241 0.1082351 0.1088892 0.109414 0.1097317 0.1097463
 0.1094169 0.1088165 0.1080862 0.107347 0.1066648 0.1060555 0.1054906 0.1049329 0.1044174 0.1040894
 0.1041382 0.1046856 0.1057258 0.1071281 0.1086761 0.1101406 0.1113718 0.1123514 0.1131567 0.1138714
 0.114536 0.1151723 0.1158168 0.1164893 0.1171476 0.1177208 0.1181913 0.1186083 0.1190207 0.1194269
 0.1197923 0.1200871 0.120311 0.1205001 0.1206928 0.1208742 0.1209778 0.1209632 0.1208654 0.1207466
 0.1206234 0.1204599 0.1202081 0.1198441 0.1193982 0.1189853 0.1187943 0.1190058 0.1196841 0.1207379
 0.1219915 0.1232973 0.1245709 0.1257372 0.126699 0.1273919 0.1278439 0.1281506 0.1284051 0.1286669
 0.128965 0.1292967 0.1296319 0.1299412 0.1302233 0.1305036 0.1308118 0.1311558 0.1315039 0.1318026
 0.1320294 0.1322277 0.1324777 0.1328214 0.1332218 0.1336029 0.1339307 0.1342385 0.1345618 0.1348749
 0.1351216 0.135295 0.1354523 0.1356591 0.1359493 0.136321 0.1367297 0.1370924 0.1373443 0.1374991
 0.1376315 0.1378007 0.1380128 0.1382502 0.1385055 0.1387753 0.1390478 0.139317 0.139598 0.1399037
 0.1402084 0.1404575 0.1406265 0.1407542 0.1409055 0.1411085 0.1413374 0.141551 0.1417401 0.1419393
 0.142192 0.142502 0.1428178 0.1430724 0.1432406 0.143355 0.1434715 0.1436253 0.1438175 0.1440307
 0.1442464 0.1444516 0.1446454 0.14484 0.1450513 0.1452808 0.1455137 0.145735 0.1459429 0.146147
 0.1463553 0.1465698 0.1467944 0.1470445 0.1473363 0.1476571 0.1479566 0.1481855 0.148339 0.1484537
 0.1485689 0.1487018 0.1488561 0.1490323 0.1492281 0.1494369 0.1496497 0.1498577 0.1500563 0.1502488
 0.1504436 0.1506455 0.1508523 0.1510601 0.151272 0.1514973 0.1517393 0.1519836 0.152207 0.1523995
 0.152573 0.1527504 0.152947 0.1531617 0.1533781 0.1535785 0.1537597 0.1539338 0.1541146 0.154305
 0.1544983 0.1546865 0.1548673 0.1550466 0.1552337 0.1554324 0.1556375 0.1558409 0.1560386 0.1562342
 0.1564356 0.1566458 0.1568571 0.1570595 0.1572503 0.1574338 0.1576149 0.1578001 0.1579964 0.1582056
 0.1584218 0.1586373 0.1588469 0.1590473 0.159238 0.1594226 0.1596068 0.1597955 0.1599894 0.1601839
 0.1603747 0.1605639 0.1607586 0.1609654 0.1611894 0.1614288 0.1616692 0.1618921 0.1620941 0.1622894
 0.1624914 0.162701 0.1629122 0.1631214 0.1633302 0.1635434 0.1637633 0.1639846 0.164198 0.1643968
 0.1645807 0.1647552 0.1649296 0.1651091 0.1652916 0.1654733 0.1656529 0.1658314 0.1660118 0.1661999
 0.1663973 0.166601 0.1668097 0.1670236 0.1672366 0.1674392 0.1676317 0.167823 0.1680206 0.1682262
 0.1684367 0.1686456 0.1688509 0.1690583 0.1692691 0.1694768 0.1696803 0.1698885 0.170103 0.170314
 0.1705149 0.1707078 0.1709004 0.171104 0.1713273 0.1715634 0.1717958 0.1720164 0.1722278 0.1724344
 0.1726418 0.1728551 0.1730711 0.1732811 0.1734819 0.173677 0.1738722 0.1740743 0.1742847 0.1744961
 0.1747033 0.1749119 0.1751263 0.1753436 0.1755629 0.1757844 0.1760012 0.1762084 0.1764121 0.1766167
 0.1768212 0.1770295 0.1772417 0.1774351 0.1775584 0.1774966 0.1769643 0.175396 0.1719392 0.1656328
 0.1557987 0.1424787 0.1265694 0.1094969 0.09269544 0.07724619 0.06378119 0.05256793 0.04364882 0.03693662
 0.03227702 0.02954191 0.02872259 0.03002876 0.03400344 0.04120541 0.05099062 0.0604265 0.06542861 0.0639837
 0.05807332 0.05186793 0.04826084 0.04746346 0.04823922 0.04952195 0.05096558 0.05275969 0.05524333 0.05852384
 0.06245325 0.06703184 0.07260726 0.07943535 0.0871517 0.09492239 0.1021599 0.1089853 0.115952 0.1233868
 0.1310487 0.1383657 0.1448918 0.1505364 0.1554806 0.1599739 0.1641905 0.168205 0.1720399 0.1756731
 0.1789711 0.1816599 0.1834528 0.1842674 0.1843283 0.1840423 0.1837648 0.1836641 0.1837602 0.1840265
 0.184441 0.1849878 0.1856501 0.1864023 0.1872078 0.1880332 0.1888611 0.189679 0.1904666 0.1912042
 0.1918856 0.1925138 0.1930929 0.1936232 0.1941018 0.1945284 0.1949144 0.1952786 0.195632 0.1959758
 0.1963118 0.1966448 0.1969729 0.1972813 0.1975504 0.197773 0.197966 0.1981613 0.1983779 0.1986078
 0.1988325 0.1990437 0.1992448 0.1994414 0.1996364 0.1998324 0.2000311 0.2002328 0.2004335 0.2006267
 0.2008109 0.2009955 0.201192 0.2014031 0.201623 0.2018443 0.2020577 0.2022535 0.2024299 0.2025972
 0.2027701 0.2029577 0.2031586 0.203363 0.2035635 0.2037643 0.2039731 0.2041879 0.2044014 0.2046148
 0.2048317 0.205047 0.2052558 0.2054614 0.2056618 0.2058409 0.2059903 0.2061306 0.2062973 0.2065085
 0.2067499 0.2069902 0.2072098 0.2074116 0.2076086 0.2078064 0.2080002 0.2081813 0.2083494 0.2085272
 0.2087457 0.2090056 0.2092712 0.2095155 0.2097461 0.2099783 0.2102143 0.2104561 0.2107019 0.2109238
 0.2110849 0.2111926 0.2113177 0.211542 0.211881 0.2122629 0.2125964 0.2128557 0.2130809 0.2133204
 0.2135948 0.2138772 0.2140719 0.2140808 0.2139587 0.2139347 0.2142037 0.2147317 0.2153201 0.2158091
 0.2161727 0.216464 0.2167293 0.2169617 0.2171077 0.2171253 0.2170635 0.2170815 0.2173395 0.2178386
 0.2184083 0.2188796 0.219217 0.2194647 0.2196586 0.2198205 0.2199198 0.2198168 0.21941 0.2189078
 0.2187811 0.2193115 0.2202742 0.2211787 0.2217577 0.2221058 0.2224012 0.2226785 0.2228889 0.2229475
 0.222617 0.2216391 0.2202433 0.2192972 0.2195928 0.2210457 0.222836 0.2242292 0.2250445 0.2254712
 0.2257423 0.2259756 0.226084 0.2257912 0.224938 0.223883 0.2234086 0.2240038 0.2253176 0.2265342
 0.2272029 0.2274772 0.2276833 0.2279525 0.2281325 0.2277479 0.2262724 0.2239063 0.2219678 0.2219674
 0.2241323 0.2271301 0.2293873 0.2304426 0.2308274 0.230905 0.2303349 0.2286921 0.2261185 0.2232559
 0.2210295 0.2205175 0.2222415 0.2252776 0.2277812 0.2288065 0.2291058 0.2298993 0.2314195 0.232928
 0.2336672 0.2334443 0.2324973 0.2310742 0.2293166 0.2276468 0.2269994 0.2281591 0.2308082 0.2336369
 0.2355507 0.2365005 0.2369211 0.2364544 0.2336825 0.2278332 0.2209241 0.2172128 0.2194393 0.2259603
 0.232515 0.2364195 0.2380474 0.2388261 0.2393169 0.2390588 0.2368505 0.2314142 0.2234135 0.2167085
 0.2157421 0.2211466 0.2290297 0.2346056 0.2354411 0.2317086 0.2253451 0.2194852 0.2171719 0.2195065
 0.2251698 0.2317262 0.2370874 0.2400833 0.24044 0.2386664 0.2360366 0.2342874 0.2343488 0.234966
 0.2336563 0.2298407 0.2258005 0.2233392 0.2210159 0.2168316 0.2126104 0.2128025 0.218688 0.2262235
 0.2305781 0.231029 0.2301065 0.2289977 0.2255374 0.2173331 0.2062928 0.1987465 0.1999178 0.2084933
 0.2177821 0.2222662 0.2219955 0.2206465 0.2206211 0.2205944 0.2173816 0.2100882 0.2022582 0.1989127
 0.2012229 0.2054689 0.2074617 0.2058916 0.2008978 0.1927422 0.1842101 0.1814886 0.1889689 0.2038988
 0.2185251 0.2264745 0.225114 0.2142035 0.1968034 0.1811301 0.1765665 0.1852693 0.1995487 0.2089303
 0.2084814 0.1997316 0.1861924 0.1709222 0.1579269 0.1526721 0.1588446 0.1745892 0.1924564 0.2030961
 0.2004624 0.1865432 0.1717929 0.167623 0.1760079 0.1880848 0.1940465 0.1920283 0.1867829 0.1835841
 0.1851743 0.1911917 0.1985538 0.2043782 0.2082883 0.2091671 0.2020774 0.1842014 0.1626949 0.1499554
 0.1507553 0.1598453 0.1718641 0.1861311 0.2001285 0.2062248 0.2002718 0.1894347 0.1860665 0.1945993
 0.2077602 0.2154588 0.2147696 0.2104663 0.2076829 0.2064651 0.2042881 0.2019335 0.2037275 0.2115461
 0.2215188 0.2283507 0.230844 0.2314082 0.2319867 0.2325817 0.2326432 0.2319687 0.2306236 0.2290769
 0.2280616 0.2277564 0.2276193 0.227209 0.226169 0.2229877 0.2153339 0.203332 0.1916239 0.1856834
 0.1860174 0.1885659 0.1907366 0.1929197 0.1928694 0.1841052 0.1644738 0.1431899 0.134124 0.1423925
 0.160552 0.1770976 0.1852764 0.1836638 0.1727372 0.1551007 0.1382291 0.1321018 0.1410479 0.1595924
 0.1783164 0.19197 0.2000141 0.2020962 0.197098 0.1863737 0.175003 0.1688626 0.1710664 0.180626
 0.192763 0.2001007 0.1962868 0.1823432 0.1694328 0.1705838 0.1869968 0.2060004 0.2152902 0.2153687
 0.2144633 0.215745 0.2158045 0.2136822 0.2144405 0.222257 0.2342974 0.2435104 0.2448197 0.2371311
 0.2226617 0.2074202 0.1996357 0.203129 0.212902 0.2205093 0.222186 0.2183588 0.208697 0.1941846
 0.1823409 0.1826936 0.1957541 0.2117996 0.2219201 0.2261307 0.2292996 0.2327546 0.2326569 0.2257982
 0.2149534 0.2071604 0.2067742 0.2116809 0.2169009 0.219835 0.220305 0.2175937 0.2108828 0.2026339
 0.1986313 0.2029697 0.2137919 0.2249815 0.2316045 0.2330107 0.2314347 0.2290901 0.2266579 0.2234526
 0.218919 0.2145629 0.2136472 0.2177106 0.2241443 0.2288908 0.2310904 0.2333518 0.2376294 0.2425152
 0.2449468 0.2435488 0.2399463 0.2373578 0.2380192 0.241409 0.2446362 0.2449053 0.2421704 0.2394246
 0.2399431 0.2441582 0.2496058 0.2537267 0.2559529 0.2571686 0.2582016 0.2591009 0.2590983 0.2571856
 0.2535386 0.2503504 0.250277 0.2538038 0.2587889 0.262683 0.2645912 0.2651252 0.2650003 0.2642872
 0.2628253 0.2609046 0.2592886 0.2586062 0.258895 0.2597609 0.2607891 0.2617223 0.2624357 0.2629209
 0.2632491 0.2634752 0.2636152 0.2637082 0.263799 0.2638471 0.2637692 0.263612 0.2635761 0.2637958
 0.2641651 0.2644486 0.2644937 0.2642514 0.2636621 0.2626688 0.2613436 0.2598692 0.2583447 0.2567154
 0.2550106 0.2536171 0.2531745 0.2540889 0.2561473 0.2586413 0.2608586 0.2624486 0.2634153 0.2639138
 0.2641122 0.264153 0.2641323 0.2640766 0.263959 0.263749 0.2634469 0.263079 0.262679 0.2622823
 0.2619247 0.2616266 0.2613722 0.261111 0.2607857 0.2603647 0.2598611 0.2593223 0.2587872 0.2582413
 0.2576206 0.2568704 0.2559927 0.2550412 0.2540871 0.2531925 0.2523817 0.2516239 0.2508596 0.2500469
 0.2491617 0.2481671 0.2470415 0.2458533 0.2447537 0.243857 0.2431472 0.2425135 0.2418469 0.2410896
 0.2402291 0.2392809 0.2382721 0.2372222 0.2361365 0.2350143 0.2338493 0.2326213 0.2313017 0.2298768
 0.2283588 0.2267738 0.2251463 0.2234954 0.2218195 0.2200644 0.2181115 0.2158127 0.2130391 0.209707
 0.2057903 0.2013444 0.1965218 0.1915419 0.1866243 0.1819386 0.1776022 0.1737103 0.1703538 0.1676088
 0.165521 0.1641066 0.1633694 0.1633171 0.1639602 0.1652881 0.1672378 0.1696883 0.1724853 0.175466
 0.1784641 0.1813204 0.1839287 0.186287 0.1884814 0.1905908 0.1926071 0.1944567 0.1960867 0.1975023
 0.1987282 0.1997729 0.2006432 0.2013645 0.2019669 0.202466 0.2028711 0.2032055 0.2035018 0.2037764
 0.204017 0.2042043 0.2043465 0.2044854 0.2046642 0.2048978 0.2051786 0.2055054 0.205894 0.2063554
 0.2068727 0.2074143 0.2079678 0.2085482 0.2091702 0.2098326 0.2105428 0.2113393 0.2122751 0.2133781
 0.2146288 0.2159717 0.2173389 0.2186655 0.2198859 0.2209306 0.2217407 0.2222896 0.2225878 0.2226703
 0.2225827 0.2223681 0.2220567 0.2216661 0.2212108 0.2207002 0.220133 0.2195061 0.2188307 0.21813
 0.2174203 0.2167087 0.2160036 0.2153141 0.2146389 0.2139697 0.2133093 0.2126742 0.2120739 0.2114989
 0.2109324 0.210368 0.2098088 0.2092567 0.2087042 0.2081275 0.2074845 0.2067353 0.205875 0.2049343
 0.2039365 0.2028672 0.2016973 0.200422 0.1990588 0.1976202 0.1961076 0.1945258 0.1928851 0.1911808
 0.1893817 0.1874542 0.1854098 0.1833282 0.1813219 0.1794697 0.177783 0.1762279 0.1747654 0.1733717
 0.1720355 0.1707462 0.1694927 0.1682751 0.1671118 0.1660243 0.1650194 0.1640911 0.1632349 0.1624545
 0.1617574 0.1611454 0.1606096 0.1601375 0.1597219 0.1593628 0.1590726 0.1588814 0.1588156 0.1588558
 0.1589317 0.1589709 0.1589419 0.1588532 0.1587344 0.1586189 0.1585274 0.158462 0.1584093 0.1583355
 0.1581792 0.1578618 0.1573027 0.1564333 0.1552234 0.1537024 0.151949 0.1500725 0.1482118 0.1465115
 0.1450673 0.1439094 0.1430321 0.1424006 0.1419371 0.1415569 0.1412347 0.1410193 0.1409833 0.1411388
 0.1413816 0.1415495 0.14158 0.1415867 0.1417522 0.1421773 0.142836 0.1436177 0.1443917 0.1450706
 0.1456209 0.1460222 0.1462604 0.1463634 0.1463837 0.1463397 0.146217 0.1460131 0.1457456 0.1454361
 0.1450975 0.1447119 0.1442383 0.1436633 0.1430067 0.1422696 0.141437 0.1405199 0.1395232 0.1384144
 0.1372189 0.136117 0.1353732 0.1351801 0.1355595 0.1363509 0.1373226 0.1383424 0.1393615 0.1402092
 0.1406173 0.1406224 0.1407965 0.1418345 0.1438808 0.1463672 0.1485253 0.1499493 0.1506423 0.150717
 0.1502467 0.1492955 0.147875 0.1459162 0.1434186 0.140536 0.1374452 0.1342844 0.13124 0.1285124
 0.1262011 0.1243299 0.1228981 0.1219342 0.1215521 0.1213646 0.119457 0.1133884 0.1039761 0.09696911
 0.0982017 0.1070202 0.1167508 0.12175 0.1218918 0.1202039 0.1187476 0.117803 0.1172545 0.1172741
 0.1180179 0.1193304 0.1207876 0.1219685 0.1227145 0.1230789 0.1230277 0.1222055 0.1198762 0.115171
 0.1077818 0.09857776 0.08931991 0.08163545 0.07627618 0.07312214 0.07153849 0.07075135 0.07022759 0.06992227
 0.07016338 0.07126081 0.07323641 0.0759075 0.07908687 0.08255169 0.08590379 0.08871508 0.09086408 0.0925556
 0.09397067 0.09504886 0.09563641 0.09569912 0.09534159 0.09471747 0.09396864 0.09318244 0.09233525 0.09131022
 0.09007049 0.08882765 0.08792439 0.08750749 0.08741771 0.08741859 0.08740494 0.08737107 0.08731972 0.08725391
 0.08718908 0.08716764 0.08728097 0.08761176 0.08811849 0.08863233 0.08898997 0.08914934 0.08918625 0.08915803
 0.08894788 0.0883644 0.08748978 0.08672482 0.08627039 0.08576322 0.08473748 0.08333166 0.08222142 0.08188139
 0.08215747 0.08255047 0.08269083 0.08251073 0.08218892 0.08205859 0.08239572 0.08310121 0.08367863 0.08369945
</values></Ydata></ScRf><Data_Parameters_AB><parameter name="DPF">1</parameter><parameter name="NPT">3497</parameter><parameter name="FXV">3996</parameter><parameter name="LXV">500</parameter><parameter name="CSF">1</parameter><parameter name="MXY">0.461201965808868</parameter><parameter name="MNY">-0.0327005200088024</parameter><parameter name="DAT">01/06/2022</parameter><parameter name="TIM">11:11:28.832 (GMT+2)</parameter><parameter name="DXU">WN</parameter></Data_Parameters_AB><AB__Qtest><MainReport name="Quality Test Report"><Header><Line><Legend>Test result ok/not ok [1/0]: </Legend><Value>0</Value></Line><Line><Legend>Method file: </Legend><Value>C:\Users\Public\Documents\Bruker\OPUS_8.2.28\QT\IRBT_v3_default.QT</Value></Line></Header><Matrix><Line><Legend></Legend><Legend>min</Legend><Legend>max</Legend><Legend>measured</Legend></Line><Line><Value>Absorption (X-Range 1):</Value><Value>0.400000</Value><Value>2.000000</Value><Value>0.357550</Value></Line><Line><Value>Noise (X-Range 4):</Value><Value></Value><Value>0.000300</Value><Value>0.000049</Value></Line><Line><Value>Signal/Noise (X-Range 2):</Value><Value>200.000000</Value><Value></Value><Value>157.430876</Value></Line><Line><Value>Signal/Noise (X-Range 3):</Value><Value>40.000000</Value><Value></Value><Value>128.621029</Value></Line><Line><Value>Water vapour (X-Range 5):</Value><Value></Value><Value>0.000300</Value><Value>0.000095</Value></Line><Line><Value>Signal/Water (X-Range 2):</Value><Value>100.000000</Value><Value></Value><Value>80.838356</Value></Line><Line><Value>Signal/Water (X-Range 3):</Value><Value>20.000000</Value><Value></Value><Value>66.044939</Value></Line><Line><Value>Fringes (X-Range 6):</Value><Value></Value><Value>0.000100</Value><Value>0.000091</Value></Line></Matrix></MainReport></AB__Qtest><Data_Parameters_ScSm><parameter name="DPF">1</parameter><parameter name="NPT">1814</parameter><parameter name="FXV">3996.33169228125</parameter><parameter name="LXV">499.541461535156</parameter><parameter name="CSF">1</parameter><parameter name="MXY">0.248314142227173</parameter><parameter name="MNY">0.0296238586306572</parameter><parameter name="DAT">01/06/2022</parameter><parameter name="TIM">11:11:28.832 (GMT+2)</parameter><parameter name="DXU">WN</parameter></Data_Parameters_ScSm><Data_Parameters_ScRf><parameter name="DPF">1</parameter><parameter name="NPT">1820</parameter><parameter name="FXV">4004.04661832813</parameter><parameter name="LXV">495.683998511719</parameter><parameter name="CSF">1</parameter><parameter name="MXY">0.265125215053558</parameter><parameter name="MNY">0.0287225879728794</parameter><parameter name="DAT">01/06/2022</parameter><parameter name="TIM">11:11:03.588 (GMT+2)</parameter><parameter name="DXU">WN</parameter></Data_Parameters_ScRf><Optic_Parameters_Rf><parameter name="APR">0</parameter><parameter name="APT">Open</parameter><parameter name="BMS">KBr</parameter><parameter name="DTC">RT-DLaTGS_IR-Biotyper [Microplate reader]</parameter><parameter name="HPF">0</parameter><parameter name="LPF">10.0</parameter><parameter name="LPV">4000</parameter><parameter name="PGR">0</parameter><parameter name="RCH">Module port</parameter><parameter name="RDX">0</parameter><parameter name="SRC">MIR</parameter><parameter name="VEL">10.0</parameter><parameter name="SON">Off</parameter></Optic_Parameters_Rf><Acquisition_Parameters_Rf><parameter name="ADT">1</parameter><parameter name="AQM">DD</parameter><parameter name="CFE">0</parameter><parameter name="COR">0</parameter><parameter name="DEL">0</parameter><parameter name="DLY">0</parameter><parameter name="HFW">8000</parameter><parameter name="LFW">0</parameter><parameter name="NSR">32</parameter><parameter name="PLF">AB</parameter><parameter name="RES">6</parameter><parameter name="RGN">-1</parameter><parameter name="STR">0</parameter><parameter name="TCL">MakeCompatibleScalar (0, {WSV=1.000000, ARV=0});</parameter><parameter name="TDL">37</parameter><parameter name="RPO">0</parameter></Acquisition_Parameters_Rf><FT_-_Parameters_Rf><parameter name="APF">B3</parameter><parameter name="HFQ">500</parameter><parameter name="LFQ">4000</parameter><parameter name="NLI">0</parameter><parameter name="PHR">24</parameter><parameter name="PHZ">ML</parameter><parameter name="SPZ">NO</parameter><parameter name="ZFF">1</parameter></FT_-_Parameters_Rf><Optic_Parameters_><parameter name="APR">0</parameter><parameter name="APT">Open</parameter><parameter name="BMS">KBr</parameter><parameter name="CHN">Module port</parameter><parameter name="DTC">RT-DLaTGS_IR-Biotyper [Microplate reader]</parameter><parameter name="HPF">0</parameter><parameter name="LPF">10.0</parameter><parameter name="LPV">4000</parameter><parameter name="PGN">0</parameter><parameter name="RDX">0</parameter><parameter name="SRC">MIR</parameter><parameter name="VEL">10.0</parameter><parameter name="SON">Off</parameter></Optic_Parameters_><FT_-_Parameters_><parameter name="APF">B3</parameter><parameter name="HFQ">500</parameter><parameter name="LFQ">4000</parameter><parameter name="NLI">0</parameter><parameter name="PHR">24</parameter><parameter name="PHZ">ML</parameter><parameter name="SPZ">NO</parameter><parameter name="ZFF">1</parameter></FT_-_Parameters_><Acquisition_Parameters_><parameter name="ADT">1</parameter><parameter name="AQM">DD</parameter><parameter name="CFE">0</parameter><parameter name="COR">0</parameter><parameter name="DEL">0</parameter><parameter name="DLY">0</parameter><parameter name="HFW">8000</parameter><parameter name="LFW">0</parameter><parameter name="NSS">32</parameter><parameter name="PLF">AB</parameter><parameter name="RES">6</parameter><parameter name="SOT">0</parameter><parameter name="TCL">MakeCompatibleScalar (0, {WSV=1.000000, ARV=0});</parameter><parameter name="TDL">37</parameter><parameter name="SPO">0</parameter><parameter name="SGN">-1</parameter></Acquisition_Parameters_><Instrument_Parameters_Rf><parameter name="HFL">15800.168544</parameter><parameter name="LFL">0</parameter><parameter name="LWN">15800.168544</parameter><parameter name="ABP">32197</parameter><parameter name="SSP">1</parameter><parameter name="ARG">2</parameter><parameter name="ASG">2</parameter><parameter name="ASS">32</parameter><parameter name="GFW">16</parameter><parameter name="GBW">16</parameter><parameter name="BFW">0</parameter><parameter name="BBW">0</parameter><parameter name="PKA">7305</parameter><parameter name="PKL">4990</parameter><parameter name="PRA">7482</parameter><parameter name="PRL">5001</parameter><parameter name="P2A">1</parameter><parameter name="P2L">1</parameter><parameter name="P2R">1</parameter><parameter name="P2K">1</parameter><parameter name="DAQ">0</parameter><parameter name="AG2">1</parameter><parameter name="SSM">1</parameter><parameter name="RSN">25861</parameter><parameter name="CRR">0</parameter><parameter name="SRT">1654081863.588</parameter><parameter name="DUR">19.6389923095703</parameter><parameter name="TSC">29</parameter><parameter name="MVD">0.306792348623276</parameter><parameter name="AN1">0.225823175267475</parameter><parameter name="AN2">0</parameter><parameter name="VSN">2.485 Apr  4 2017</parameter><parameter name="SRN">0085</parameter><parameter name="CAM">0</parameter><parameter name="INS">IR-Biotyper</parameter><parameter name="FOC">69</parameter><parameter name="RDY">1</parameter><parameter name="ARS">32</parameter></Instrument_Parameters_Rf><Sample_Parameters_><parameter name="BLD"></parameter><parameter name="CNM">Admin</parameter><parameter name="CPY"></parameter><parameter name="DPM"></parameter><parameter name="EXP">IRBT_v3_32Scans.XPM</parameter><parameter name="LCT"></parameter><parameter name="SFM">Microplate, HTS-XT</parameter><parameter name="SNM">220601-1028(v.3)_RTF49M (D_8)_E2_a36b34fc-6f3b-4fed-af69-2f3e45e55732.0</parameter><parameter name="XPP">C:\Users\Public\Documents\Bruker\OPUS_8.2.28\XPM</parameter><parameter name="IST">OK</parameter><parameter name="CPG">1252</parameter><parameter name="UID">e1cd0e4c-d92f-4dfe-bcdc-733ec720ec6a</parameter></Sample_Parameters_><Instrument_Parameters_><parameter name="HFL">15800.168544</parameter><parameter name="LFL">0</parameter><parameter name="LWN">15800.168544</parameter><parameter name="ABP">32197</parameter><parameter name="SSP">1</parameter><parameter name="ASG">4</parameter><parameter name="ARG">2</parameter><parameter name="ASS">32</parameter><parameter name="GFW">16</parameter><parameter name="GBW">16</parameter><parameter name="BFW">0</parameter><parameter name="BBW">0</parameter><parameter name="PKA">6011</parameter><parameter name="PKL">4988</parameter><parameter name="PRA">6285</parameter><parameter name="PRL">4993</parameter><parameter name="P2A">1</parameter><parameter name="P2L">1</parameter><parameter name="P2R">1</parameter><parameter name="P2K">1</parameter><parameter name="DAQ">0</parameter><parameter name="AG2">1</parameter><parameter name="SSM">1</parameter><parameter name="RSN">13556</parameter><parameter name="CRR">0</parameter><parameter name="SRT">1654081888.833</parameter><parameter name="DUR">19.6389923095703</parameter><parameter name="TSC">29</parameter><parameter name="MVD">1.23029637336731</parameter><parameter name="AN1">0.225830864061961</parameter><parameter name="AN2">0</parameter><parameter name="VSN">2.485 Apr  4 2017</parameter><parameter name="SRN">0085</parameter><parameter name="CAM">0</parameter><parameter name="INS">IR-Biotyper</parameter><parameter name="FOC">69</parameter><parameter name="RDY">1</parameter></Instrument_Parameters_><History/></OPUSDataFile>
