<?xml version="1.0" encoding="UTF-8" ?>
<OPUSDataFile><AB><Ydata ylabel="Absorbance Units"><values byteorder="INTEL" format="FLOAT32" numvalues="3497"> -0.01678091 -0.01682126 -0.01683825 -0.01683153 -0.01680604 -0.01676203 -0.01670651 -0.01664003 -0.01657061 -0.01649977
 -0.01644022 -0.01639333 -0.01637152 -0.01637295 -0.01640126 -0.01644977 -0.01651023 -0.01657513 -0.01663228 -0.01667939
 -0.01670928 -0.01672726 -0.01673346 -0.01673579 -0.01673749 -0.01674201 -0.01675115 -0.01676404 -0.01678059 -0.01680142
 -0.01682649 -0.01685758 -0.01689477 -0.01693453 -0.01697616 -0.01700946 -0.01703434 -0.01704399 -0.01704095 -0.01703019
 -0.01701481 -0.01700567 -0.01700147 -0.01700585 -0.01701421 -0.01702147 -0.01702807 -0.01703098 -0.01703721 -0.01705075
 -0.01707269 -0.01710697 -0.01714107 -0.01717293 -0.01719122 -0.0171922 -0.01718251 -0.01716179 -0.01714561 -0.01713485
 -0.017137 -0.01715188 -0.01717819 -0.01721555 -0.01726157 -0.01731551 -0.01737389 -0.0174354 -0.01749443 -0.01755223
 -0.01760746 -0.01766402 -0.0177277 -0.01779547 -0.01787059 -0.01793726 -0.01798869 -0.0180103 -0.01799094 -0.01794169
 -0.01785874 -0.01777824 -0.01770416 -0.01767228 -0.01768708 -0.01776399 -0.0179042 -0.0180984 -0.01834379 -0.0186027
 -0.01886773 -0.0190742 -0.01921811 -0.01924217 -0.01916556 -0.0189992 -0.01877791 -0.01856766 -0.01838176 -0.01826705
 -0.01820692 -0.01820773 -0.01823754 -0.01828139 -0.01831429 -0.01831995 -0.01830168 -0.01825386 -0.01820257 -0.01815074
 -0.01812185 -0.01811947 -0.0181454 -0.01820001 -0.01826567 -0.01834174 -0.01841511 -0.01848744 -0.0185639 -0.01864422
 -0.01873302 -0.01882248 -0.01889526 -0.01894641 -0.01895315 -0.01893286 -0.0188951 -0.01886064 -0.01885768 -0.01887015
 -0.01889957 -0.0189194 -0.01891041 -0.01889841 -0.01888016 -0.01891447 -0.0190149 -0.01919091 -0.01945202 -0.01970359
 -0.01994129 -0.01999269 -0.01985952 -0.01953055 -0.01903753 -0.01859105 -0.01819196 -0.01795795 -0.01786171 -0.01789449
 -0.01803301 -0.01824003 -0.01848545 -0.01872472 -0.01892299 -0.01903192 -0.01905135 -0.0189541 -0.01880212 -0.01860893
 -0.01843937 -0.01831861 -0.01825204 -0.01824699 -0.01827809 -0.0183429 -0.01843073 -0.01854078 -0.01867333 -0.01882728
 -0.01898736 -0.01914928 -0.01927747 -0.01936908 -0.01939196 -0.01935161 -0.01924218 -0.01907835 -0.01887879 -0.01866503
 -0.01846842 -0.01830753 -0.01821093 -0.01817757 -0.01821927 -0.01831299 -0.01845564 -0.01861571 -0.01878526 -0.01893961
 -0.01907344 -0.01917242 -0.0192347 -0.01924912 -0.01921485 -0.01913013 -0.01899614 -0.01883088 -0.01863708 -0.01844088
 -0.01824478 -0.01807144 -0.01792359 -0.01782058 -0.01776079 -0.01775347 -0.01778691 -0.01785318 -0.01793525 -0.01801652
 -0.01808561 -0.0181304 -0.0181499 -0.01813905 -0.01810778 -0.01805424 -0.0180055 -0.01796437 -0.01796235 -0.0180046
 -0.01809321 -0.01822914 -0.01837528 -0.01852878 -0.01863738 -0.01870149 -0.01869409 -0.01862591 -0.01852278 -0.0183977
 -0.01830001 -0.01822848 -0.01820649 -0.01822012 -0.0182598 -0.01831936 -0.01838444 -0.01847239 -0.01858802 -0.01875033
 -0.01897605 -0.01924117 -0.01955192 -0.01983569 -0.02008115 -0.02023392 -0.02028345 -0.0202417 -0.02010869 -0.01990105
 -0.01962025 -0.01928585 -0.0189074 -0.01856215 -0.01825684 -0.01806603 -0.01797517 -0.01799038 -0.01808099 -0.01819625
 -0.01831247 -0.0183701 -0.01838907 -0.01836081 -0.01832491 -0.01830874 -0.01831466 -0.01835665 -0.0184012 -0.01844473
 -0.01844579 -0.01839416 -0.01827886 -0.01809364 -0.01788208 -0.01764592 -0.01745437 -0.01730984 -0.01725834 -0.01729501
 -0.01741428 -0.01759895 -0.01778019 -0.01793859 -0.01797594 -0.01791397 -0.01773624 -0.01749619 -0.01726374 -0.01704765
 -0.01688856 -0.01675177 -0.01662682 -0.01648903 -0.0163184 -0.01613424 -0.01593403 -0.01575757 -0.01561398 -0.0155143
 -0.01546429 -0.01542709 -0.01540144 -0.01531855 -0.01517657 -0.01493768 -0.01461273 -0.01426215 -0.01389765 -0.01360482
 -0.01337427 -0.01322441 -0.01314224 -0.01311316 -0.01312669 -0.01317008 -0.01321816 -0.01324978 -0.0132317 -0.01313316
 -0.01295382 -0.01268232 -0.01234256 -0.01194247 -0.0114805 -0.01095586 -0.01037634 -0.009739312 -0.009092 -0.008437273
 -0.007813444 -0.007221372 -0.006671453 -0.006164158 -0.005709083 -0.005305944 -0.004962101 -0.004669961 -0.004414426 -0.004185342
 -0.003958248 -0.003724047 -0.00346894 -0.003165019 -0.002787035 -0.002303118 -0.001666556 -0.0009358499 -0.000109275 0.0006985676
 0.001444538 0.002113395 0.002688438 0.003223841 0.003724277 0.004227961 0.004738478 0.00525349 0.005771662 0.006261153
 0.006722183 0.007134026 0.00751249 0.007906028 0.008344215 0.00894836 0.009697381 0.01063513 0.01166081 0.01264968
 0.01356328 0.01430048 0.01493005 0.01545933 0.01597199 0.01651146 0.0171033 0.01777398 0.01847297 0.01919661
 0.01989044 0.02054305 0.02117047 0.0217716 0.02241692 0.02310855 0.02388456 0.02473625 0.02561319 0.02650618
 0.02734423 0.02813594 0.02886694 0.02955331 0.03021883 0.03087403 0.03154242 0.0322287 0.03294944 0.03369134
 0.0344563 0.0352126 0.03594142 0.03664575 0.03731126 0.03800593 0.03874109 0.03956488 0.04049373 0.04145189
 0.04243679 0.04333043 0.04413077 0.04482284 0.04541634 0.04598134 0.04652419 0.04711268 0.04773856 0.04841775
 0.04913006 0.04984261 0.05054593 0.05120481 0.05184421 0.05246722 0.05312026 0.05384067 0.05463215 0.05552045
 0.05643504 0.05736202 0.05824006 0.0590491 0.05979419 0.06047088 0.0611179 0.06173731 0.06237005 0.06301773
 0.06370618 0.06443352 0.06519691 0.06599252 0.06680094 0.06762268 0.06844964 0.06928296 0.07012524 0.07096598
 0.07179422 0.07259569 0.07334908 0.07405982 0.07472064 0.07535513 0.07597243 0.07658674 0.07720704 0.07782497
 0.07844077 0.07904267 0.07962719 0.08020768 0.08078409 0.08139119 0.08203018 0.08271968 0.08345585 0.08421601
 0.08499404 0.08574869 0.086481 0.08717012 0.08782585 0.08845694 0.08907288 0.0896921 0.09031415 0.09094747
 0.09158166 0.09221183 0.0928321 0.09343553 0.09403268 0.09462389 0.09522544 0.09584147 0.09647692 0.09713347
 0.09780721 0.09849816 0.09919877 0.09990831 0.1006107 0.1013048 0.1019737 0.1026189 0.1032383 0.1038336
 0.1044101 0.1049661 0.1054995 0.1060122 0.1065033 0.1069831 0.1074613 0.1079454 0.1084446 0.1089571
 0.1094839 0.1100235 0.110576 0.1111383 0.1117117 0.1122793 0.1128393 0.1133785 0.1138948 0.1144048
 0.1149097 0.1154395 0.1159929 0.1165745 0.1171784 0.1177798 0.1183741 0.1189337 0.1194613 0.119947
 0.120402 0.1208369 0.121263 0.1216977 0.122139 0.122593 0.1230467 0.1234945 0.1239315 0.1243537
 0.1247665 0.1251706 0.1255672 0.1259564 0.1263379 0.1267112 0.1270862 0.1274634 0.1278546 0.1282599
 0.1286836 0.1291263 0.1295942 0.1300873 0.1306123 0.1311605 0.1317201 0.1322761 0.1328006 0.133289
 0.133724 0.1341161 0.1344671 0.1347873 0.1350828 0.1353554 0.1356051 0.1358398 0.1360583 0.1362854
 0.1365237 0.1367983 0.1371119 0.1374625 0.1378493 0.1382454 0.1386503 0.1390466 0.1394379 0.1398334
 0.140233 0.1406447 0.1410576 0.1414525 0.1418204 0.1421337 0.1424074 0.1426402 0.1428667 0.1431125
 0.1433923 0.1437287 0.1440871 0.1444654 0.1448141 0.1451172 0.1453746 0.1455793 0.1457845 0.1459944
 0.1462391 0.1465188 0.1467915 0.1470535 0.1472462 0.1473763 0.1474434 0.1474625 0.1474804 0.1475031
 0.1475673 0.1476671 0.1478099 0.1479871 0.1481934 0.148421 0.1486619 0.148915 0.149174 0.1494554
 0.149762 0.1501123 0.1505161 0.1509498 0.1514169 0.1518457 0.1522307 0.1525141 0.1526941 0.1527875
 0.1528007 0.1528051 0.1528018 0.1528363 0.1528982 0.1529749 0.1530641 0.1531479 0.1532456 0.1533797
 0.1535594 0.153815 0.1541089 0.1544306 0.1547275 0.1549628 0.1551413 0.1552453 0.1553452 0.1554524
 0.1556252 0.1558791 0.1561924 0.1565676 0.1569184 0.1572405 0.1574572 0.157571 0.1575752 0.1574837
 0.15736 0.1572184 0.1571391 0.1571226 0.1572138 0.1573952 0.1576659 0.157993 0.1583473 0.1586905
 0.1589857 0.1592167 0.1593582 0.1594407 0.1594617 0.1594807 0.1595092 0.1595917 0.1597371 0.1599614
 0.1602669 0.160661 0.161144 0.1617147 0.1623681 0.1630588 0.1637711 0.1644013 0.1649365 0.1652708
 0.1654246 0.1653744 0.1651856 0.1649381 0.1647007 0.1645849 0.1645924 0.1647793 0.1650585 0.1654131
 0.1657315 0.1659698 0.1660744 0.1660168 0.1658296 0.1655079 0.1651366 0.1647217 0.1643395 0.1639933
 0.1637099 0.1634872 0.1633132 0.1631869 0.1630963 0.1630436 0.1630322 0.1630593 0.1631267 0.1632152
 0.1633051 0.1633578 0.16333 0.1631833 0.16287 0.1623946 0.1617327 0.1609549 0.1600707 0.1591738
 0.1582883 0.1574647 0.1567162 0.1560418 0.1554434 0.1549054 0.1544268 0.1539845 0.1535759 0.1531634
 0.1527478 0.1523095 0.1518589 0.1514217 0.1510017 0.1506282 0.1502779 0.1499315 0.1495577 0.1491085
 0.1485888 0.1479746 0.1473204 0.1466395 0.1460026 0.1454381 0.1449836 0.1446614 0.1444366 0.1443157
 0.1441938 0.1440638 0.1438228 0.143466 0.1429803 0.1423737 0.1417285 0.1410539 0.140445 0.1398966
 0.139445 0.1390734 0.1387632 0.1384985 0.1382471 0.1379994 0.1377331 0.1374447 0.1371234 0.1367741
 0.136394 0.1359977 0.135588 0.1351824 0.1347857 0.134406 0.1340465 0.1336988 0.133363 0.1330231
 0.1326784 0.1323202 0.1319491 0.1315686 0.1311804 0.1307954 0.1304153 0.130053 0.1297069 0.129383
 0.1290725 0.1287665 0.1284526 0.1281129 0.1277437 0.1273327 0.1268929 0.1264252 0.1259507 0.1254769
 0.1250183 0.1245808 0.1241645 0.1237713 0.1233903 0.1230211 0.1226484 0.1222714 0.1218759 0.1214618
 0.1210216 0.1205571 0.1200734 0.1195744 0.1190759 0.118581 0.1181056 0.1176475 0.1172118 0.1167921
 0.1163827 0.1159811 0.1155799 0.1151903 0.1148124 0.1144699 0.1141725 0.11393 0.1137534 0.1136049
 0.113486 0.1133189 0.1130965 0.1127644 0.1123196 0.1117852 0.1111678 0.1105525 0.1099459 0.1094309
 0.1090011 0.1086843 0.1084558 0.1082783 0.1081186 0.1079048 0.1076264 0.1072321 0.106761 0.1062173
 0.1056658 0.1051459 0.1046825 0.1043026 0.103968 0.1036754 0.1033864 0.1030888 0.1028055 0.1025351
 0.102335 0.1022082 0.1021705 0.1022169 0.10229 0.1023798 0.102396 0.1023384 0.1021515 0.1018564
 0.1014689 0.1010219 0.1005786 0.100151 0.0997856 0.09945627 0.09915915 0.09886585 0.0985515 0.09823328
 0.09790686 0.09761322 0.09736709 0.09716413 0.09701072 0.09685662 0.09669644 0.09651116 0.09629951 0.09610562
 0.09593181 0.09582269 0.0957725 0.09577072 0.09580783 0.09584282 0.0958746 0.09587906 0.09586219 0.09582412
 0.09576767 0.09569918 0.09561032 0.09550171 0.0953493 0.09514261 0.09485657 0.09447341 0.094007 0.09344716
 0.09286755 0.09227447 0.09175413 0.09131816 0.09098545 0.09075779 0.09056813 0.09041127 0.09019877 0.08993322
 0.08958116 0.0891578 0.08869842 0.08821826 0.0877739 0.08736502 0.08702046 0.08672303 0.08646633 0.0862288
 0.08599075 0.08574075 0.08546454 0.08516865 0.08484894 0.08452831 0.08421126 0.08391738 0.0836539 0.08340593
 0.08317516 0.08291168 0.08261266 0.08224731 0.08181871 0.08136377 0.08088988 0.08046646 0.08008596 0.07976393
 0.07947531 0.07916436 0.07882076 0.0783917 0.07790635 0.07737263 0.0768334 0.07632954 0.07587459 0.07549121
 0.07516474 0.07489341 0.07466926 0.07448808 0.07435654 0.07427655 0.07424341 0.07425906 0.07428949 0.07433304
 0.0743356 0.07429466 0.07416181 0.07394011 0.07361904 0.07321307 0.07276583 0.07229768 0.07188112 0.07152475
 0.07128058 0.07113439 0.07109364 0.07113132 0.07122802 0.07136483 0.07152401 0.0717042 0.07190002 0.07211837
 0.07236102 0.07262809 0.07292022 0.07323308 0.07356506 0.07392834 0.07432326 0.07479107 0.07533409 0.07599668
 0.07677516 0.07767261 0.07867513 0.07973424 0.08083553 0.08191732 0.08297797 0.08398377 0.08494762 0.08586937
 0.08676808 0.08765742 0.08855633 0.08947828 0.09043687 0.09144294 0.09249165 0.09358949 0.0946992 0.09581981
 0.09689111 0.09790733 0.09881961 0.09962444 0.1003111 0.1008811 0.1013552 0.1017353 0.1020427 0.1022764
 0.1024408 0.1025404 0.1025813 0.102585 0.1025857 0.1026142 0.1027236 0.1029248 0.1032516 0.1036812
 0.1042118 0.1048152 0.1054761 0.106194 0.1069638 0.1078002 0.1087075 0.1096777 0.1107129 0.1117749
 0.1128616 0.1139222 0.1149534 0.1158995 0.1167555 0.1174617 0.1180158 0.1183731 0.1185412 0.1185133
 0.118304 0.1179369 0.1174182 0.1167696 0.1159772 0.1150405 0.1139334 0.1126388 0.1111465 0.1094393
 0.1075543 0.105486 0.1033292 0.1010914 0.09889679 0.09675839 0.09477176 0.0929442 0.0912978 0.08983022
 0.08850091 0.08730546 0.08619434 0.0851677 0.08420172 0.08329535 0.08243708 0.08161824 0.08081821 0.08003137
 0.07923776 0.07845078 0.07767096 0.07692381 0.07622533 0.07558818 0.07502396 0.0745249 0.07409132 0.07371379
 0.07338879 0.0731239 0.07291809 0.07279595 0.07275885 0.07283228 0.07301561 0.07330287 0.07368473 0.07409795
 0.07452639 0.07487085 0.0751256 0.07521857 0.07516958 0.07497396 0.07467039 0.07430135 0.07390508 0.07352655
 0.0731934 0.07293316 0.07276164 0.07269302 0.07272637 0.07286857 0.07309262 0.07340033 0.07373299 0.07408876
 0.07437647 0.07459126 0.07461502 0.07444134 0.0739522 0.0731488 0.07197227 0.07044701 0.0686262 0.06656031
 0.06440175 0.06219998 0.06011874 0.05816755 0.05643348 0.05487864 0.05350387 0.05225946 0.05111378 0.05004297
 0.04902737 0.0480692 0.04716531 0.04632175 0.04553985 0.04481925 0.04416057 0.0435577 0.0430105 0.04250513
 0.04204045 0.04159547 0.04116905 0.04074235 0.04031642 0.03988397 0.03945013 0.03902319 0.03861089 0.03823221
 0.03788885 0.03759512 0.03733653 0.03710922 0.03688832 0.03665633 0.03640272 0.03611364 0.03580905 0.03548858
 0.03518632 0.0349095 0.03467396 0.03448446 0.03432444 0.03419349 0.03406011 0.03392337 0.03376734 0.03359409
 0.0334121 0.03322238 0.03303574 0.03284677 0.03264681 0.0324299 0.03217787 0.03189642 0.03158182 0.03125147
 0.03091812 0.03059856 0.03030666 0.03005132 0.02984048 0.02967339 0.02955457 0.02946511 0.02940556 0.02933808
 0.02925854 0.02913776 0.02897278 0.02877217 0.0285375 0.02830372 0.02807184 0.02786661 0.02768489 0.02752687
 0.02738866 0.02725961 0.02713821 0.02701635 0.02689504 0.02677125 0.02664946 0.02653151 0.02642472 0.02633491
 0.02626375 0.02621611 0.02617994 0.0261553 0.02611943 0.02606839 0.0259841 0.02586278 0.02570638 0.02551416
 0.02531088 0.02509806 0.02490608 0.02473468 0.02459736 0.02448962 0.02440002 0.02432344 0.02423843 0.02414621
 0.02403642 0.02391912 0.02380263 0.02369699 0.02361755 0.02355901 0.02352737 0.02349847 0.02346498 0.02340302
 0.02330175 0.02316006 0.02297334 0.02276249 0.02252875 0.02229559 0.02206486 0.02184859 0.02164709 0.02146257
 0.02129471 0.02114236 0.02100503 0.02088035 0.02076724 0.02066183 0.0205626 0.02046491 0.02036771 0.02026763
 0.02016459 0.02005742 0.01994623 0.01983081 0.01971111 0.01958687 0.01945898 0.01932728 0.01919433 0.01906046
 0.01892813 0.01879763 0.01867083 0.01854788 0.01843017 0.0183178 0.01821256 0.01811471 0.01802723 0.01795021
 0.0178868 0.01783469 0.01779065 0.01774859 0.01769535 0.01762636 0.01752784 0.01740448 0.0172535 0.01708731
 0.01691331 0.01673904 0.016571 0.01640656 0.01624641 0.01608646 0.01592541 0.01576449 0.01560344 0.01544595
 0.01529229 0.01514457 0.01500289 0.01486896 0.01474266 0.01462412 0.01451233 0.01440276 0.01429471 0.01418271
 0.01406931 0.01395618 0.01384762 0.01375164 0.01366647 0.01359574 0.01352904 0.01346098 0.01338304 0.01328808
 0.01318031 0.01305829 0.01293301 0.01280706 0.0126838 0.01256471 0.0124432 0.01231888 0.01218718 0.01204821
 0.0119075 0.01176617 0.01163609 0.01151749 0.01141865 0.01133683 0.01126937 0.01121136 0.0111518 0.01108782
 0.01100998 0.01092019 0.01081613 0.01070268 0.01058187 0.01045891 0.01033625 0.01021853 0.01010826 0.01000515
 0.009910823 0.009815834 0.00971946 0.009611329 0.009490178 0.009359971 0.009221261 0.009090738 0.008968566 0.008864256
 0.008775035 0.008692988 0.008615635 0.008530377 0.008439319 0.008339878 0.00823689 0.008136608 0.008040704 0.007954171
 0.007873598 0.007798749 0.007724648 0.007648831 0.007568748 0.007482935 0.00739119 0.007293204 0.007189267 0.007079117
 0.00696547 0.006848347 0.006733942 0.006622555 0.006519665 0.006424852 0.006336844 0.006254528 0.006171545 0.006088138
 0.006001114 0.005912728 0.005825914 0.005742775 0.005668045 0.005601219 0.005544472 0.005493729 0.005447776 0.005400465
 0.005348676 0.005288559 0.005217292 0.005137954 0.005050086 0.004960773 0.00487123 0.004782994 0.004696491 0.00460684
 0.004513917 0.004416897 0.004316673 0.004221588 0.004131911 0.004054348 0.003986305 0.003923562 0.003863384 0.003797123
 0.003726163 0.00364816 0.003566956 0.003485793 0.00340656 0.003331754 0.003261252 0.003195302 0.003134693 0.003079714
 0.003031009 0.002989447 0.002951005 0.002915724 0.002875902 0.002830823 0.00277723 0.002715163 0.002651244 0.002586077
 0.002528942 0.002478448 0.002433588 0.002390741 0.00233756 0.002273337 0.002188682 0.002089676 0.001980097 0.001868055
 0.00176432 0.001669744 0.001590237 0.00151733 0.001449019 0.001376558 0.001295496 0.001206633 0.001108251 0.001009479
 0.0009113252 0.0008206961 0.0007385393 0.0006625511 0.0005925348 0.0005211186 0.0004482757 0.0003706746 0.0002892124 0.0002066613
 0.0001236541 4.397811E-05 -3.318199E-05 -0.0001072819 -0.0001803849 -0.0002553895 -0.0003333894 -0.0004176505 -0.0005049938 -0.0005953044
 -0.0006820434 -0.0007617913 -0.0008313793 -0.0008877039 -0.0009361597 -0.000976679 -0.001018162 -0.001061917 -0.001112966 -0.001171935
 -0.001239562 -0.001315871 -0.001400156 -0.001491979 -0.001587338 -0.001684852 -0.00177546 -0.001858122 -0.001923809 -0.001974679
 -0.002009415 -0.002034319 -0.002057617 -0.002085273 -0.002127782 -0.002183837 -0.002257707 -0.002339956 -0.002427607 -0.002511691
 -0.002587572 -0.002655293 -0.002713419 -0.002767371 -0.002817785 -0.002867981 -0.002918324 -0.002969917 -0.003022863 -0.003080175
 -0.003141902 -0.003210277 -0.003284226 -0.003359796 -0.00343511 -0.003501602 -0.003559412 -0.003603607 -0.003637906 -0.003665028
 -0.003690069 -0.003719642 -0.003755834 -0.003803162 -0.003858541 -0.003922527 -0.003988592 -0.004054934 -0.004115915 -0.004169583
 -0.004215089 -0.004251599 -0.004283293 -0.004310354 -0.004337796 -0.004365864 -0.004397209 -0.004431883 -0.004471302 -0.00451557
 -0.004566537 -0.004623275 -0.00468447 -0.004747602 -0.004806361 -0.00485954 -0.004901338 -0.004935235 -0.004961882 -0.004987041
 -0.005015373 -0.0050495 -0.005092748 -0.005142607 -0.005199654 -0.005258132 -0.005317221 -0.005370653 -0.005417274 -0.005454211
 -0.005480779 -0.005501302 -0.005516067 -0.005535644 -0.005560683 -0.005601948 -0.005659386 -0.005738562 -0.005838567 -0.005959126
 -0.006100024 -0.006259664 -0.006440743 -0.006645401 -0.006879508 -0.007149516 -0.007461058 -0.007820207 -0.008229915 -0.008692364
 -0.009211794 -0.009789203 -0.01043166 -0.0111428 -0.01191694 -0.01275806 -0.01362439 -0.01451477 -0.01536028 -0.0161574
 -0.01685905 -0.01746642 -0.01798156 -0.01840181 -0.01872373 -0.01892252 -0.01891452 -0.018678 -0.01809451 -0.01723209
 -0.01611398 -0.01488845 -0.01372994 -0.01271605 -0.01197337 -0.01147742 -0.01125336 -0.01124448 -0.01144229 -0.01177921
 -0.01224787 -0.01274818 -0.01326924 -0.01370139 -0.01403144 -0.01422914 -0.01429295 -0.01426931 -0.01416138 -0.0140192
 -0.01384356 -0.01366563 -0.01348237 -0.01330094 -0.01311634 -0.01291812 -0.01271005 -0.01249135 -0.01227228 -0.01206642
 -0.01187206 -0.01169538 -0.01152194 -0.01134455 -0.01115831 -0.01095691 -0.01075322 -0.01054867 -0.01035622 -0.01017929
 -0.01001517 -0.009864424 -0.00971526 -0.009567111 -0.009415994 -0.009262925 -0.009119164 -0.008985732 -0.008875413 -0.008785603
 -0.008714918 -0.008658746 -0.008605335 -0.008553265 -0.008494229 -0.008431093 -0.008363389 -0.008295426 -0.00823007 -0.008171062
 -0.008121365 -0.008081889 -0.008054757 -0.008034493 -0.008020813 -0.008005564 -0.0079868 -0.007964625 -0.007938338 -0.007917531
 -0.007902687 -0.007901082 -0.007912302 -0.007933339 -0.007963168 -0.007994371 -0.008026678 -0.00805533 -0.008080461 -0.008099877
 -0.00811427 -0.008123059 -0.008128917 -0.00813426 -0.008142062 -0.008156363 -0.008175358 -0.008200419 -0.008224698 -0.008246006
 -0.008259711 -0.008263479 -0.008259755 -0.008248294 -0.008234022 -0.008217532 -0.00819968 -0.008180533 -0.008159479 -0.008136813
 -0.008116102 -0.008097897 -0.008087814 -0.008085003 -0.008089954 -0.008100485 -0.008111588 -0.008122191 -0.008127871 -0.0081298
 -0.008127443 -0.008122571 -0.0081166 -0.00811001 -0.008103546 -0.008096801 -0.008089587 -0.008082409 -0.008074946 -0.00807004
 -0.008068076 -0.008071336 -0.008080318 -0.008092823 -0.008108752 -0.008122472 -0.008133872 -0.008140001 -0.008141344 -0.008139366
 -0.008134397 -0.008128406 -0.008121302 -0.008113546 -0.008105672 -0.008098539 -0.00809316 -0.008091146 -0.008092707 -0.008098685
 -0.008108467 -0.008122224 -0.008138372 -0.008156843 -0.008174351 -0.008190181 -0.008201427 -0.00820704 -0.008209079 -0.008207279
 -0.008208887 -0.008214298 -0.008228832 -0.008252256 -0.008282603 -0.00831904 -0.008355302 -0.008391391 -0.008423573 -0.008453323
 -0.008482329 -0.008511799 -0.008545316 -0.008581082 -0.008619618 -0.008655476 -0.008684956 -0.008702817 -0.008704224 -0.008690224
 -0.008658289 -0.008618497 -0.008571775 -0.008531892 -0.008501356 -0.008488025 -0.008493437 -0.008514794 -0.008552044 -0.008596184
 -0.008646789 -0.008696083 -0.008744167 -0.008787475 -0.008826851 -0.008863311 -0.008897915 -0.008934128 -0.008971491 -0.009011678
 -0.009051458 -0.009087977 -0.009118001 -0.009136917 -0.009146668 -0.009145692 -0.009141422 -0.009136036 -0.009135957 -0.00914393
 -0.009159566 -0.00918388 -0.009210437 -0.009238844 -0.009262212 -0.009280102 -0.009290206 -0.009292793 -0.009291286 -0.009286459
 -0.009284883 -0.009286959 -0.009298175 -0.009317301 -0.00934484 -0.009377642 -0.009410765 -0.009441571 -0.009464251 -0.009479958
 -0.009486604 -0.009489522 -0.009490534 -0.009495711 -0.009508215 -0.009529733 -0.009562546 -0.00959994 -0.009641984 -0.00967653
 -0.00970195 -0.009714735 -0.009714451 -0.009715104 -0.009717626 -0.009739838 -0.009779954 -0.009836466 -0.009904637 -0.009964854
 -0.01001623 -0.01004458 -0.01005662 -0.01005657 -0.01005265 -0.01005747 -0.01007235 -0.01010433 -0.01014662 -0.01019845
 -0.01024977 -0.01029632 -0.01033263 -0.01035538 -0.01036813 -0.01037017 -0.0103713 -0.01037237 -0.01038168 -0.01039981
 -0.01042819 -0.01046655 -0.01051071 -0.01055999 -0.01060787 -0.01065377 -0.01069181 -0.01072221 -0.01074195 -0.01075301
 -0.01075658 -0.01075663 -0.010758 -0.01076455 -0.01078165 -0.01080932 -0.01085023 -0.01089894 -0.01095449 -0.01101033
 -0.01106437 -0.01111369 -0.01115733 -0.01119506 -0.01122676 -0.01125261 -0.01127262 -0.0112889 -0.0113018 -0.01131698
 -0.01133474 -0.01136049 -0.01139336 -0.0114333 -0.01147861 -0.01152476 -0.01157124 -0.01161481 -0.01165646 -0.01169637
 -0.01173472 -0.01177241 -0.01180718 -0.01183768 -0.01186348 -0.01188275 -0.01190152 -0.01192044 -0.0119476 -0.01198525
 -0.01203325 -0.01209266 -0.01215197 -0.01221059 -0.01225534 -0.01228611 -0.01229962 -0.01229763 -0.01228991 -0.01227877
 -0.01227887 -0.01229019 -0.01232124 -0.01236822 -0.01242905 -0.01249828 -0.0125683 -0.01263589 -0.01269521 -0.0127469
 -0.01278897 -0.01282562 -0.01285755 -0.01289022 -0.0129256 -0.01296521 -0.01301041 -0.01305573 -0.01310094 -0.01313878
 -0.01316869 -0.01318954 -0.01320157 -0.01320934 -0.01321318 -0.01321758 -0.01322267 -0.01323112 -0.01324334 -0.01326196
 -0.01328674 -0.01331902 -0.01335678 -0.01339806 -0.01344115 -0.01348301 -0.01352568 -0.01356915 -0.01361661 -0.01367065
 -0.01372777 -0.01378911 -0.01384292 -0.01388718 -0.01391404 -0.01392143 -0.01391635 -0.01389895 -0.01388392 -0.01387167
 -0.01387021 -0.01387878 -0.01389603 -0.01392093 -0.01394889 -0.01397901 -0.01400661 -0.01403137 -0.0140498 -0.01406402
 -0.01407451 -0.01408544 -0.01410107 -0.01412241 -0.01415297 -0.01418623 -0.01422144 -0.01424879 -0.01426466 -0.01426663
 -0.01425225 -0.01423142 -0.01420445 -0.0141852 -0.01417473 -0.01417771 -0.01419381 -0.01421574 -0.01424262 -0.01426429
 -0.01428146 -0.01429095 -0.01429539 -0.01429987 -0.01430711 -0.01432506 -0.01435334 -0.01439621 -0.01444783 -0.01450589
 -0.0145614 -0.01460794 -0.01464131 -0.01465686 -0.01465932 -0.01464854 -0.01463178 -0.01461051 -0.01458834 -0.0145658
 -0.01454518 -0.01452661 -0.01451408 -0.01450779 -0.01451159 -0.01452522 -0.01454881 -0.01458129 -0.01461834 -0.014659
 -0.01469826 -0.01473634 -0.01477145 -0.01480383 -0.01483401 -0.01485945 -0.01487845 -0.01488775 -0.0148838 -0.01486876
 -0.01484147 -0.01480935 -0.01477414 -0.01474165 -0.01471342 -0.01469154 -0.01467648 -0.01466868 -0.01466823 -0.01467427
 -0.01468667 -0.01470284 -0.01472237 -0.01474133 -0.014759 -0.01476999 -0.01477437 -0.01476855 -0.01475553 -0.01473862
 -0.01472211 -0.01471394 -0.0147136 -0.01472486 -0.01474135 -0.01476054 -0.01477632 -0.01478503 -0.01478508 -0.01477494
 -0.01475616 -0.01472832 -0.01469584 -0.01465884 -0.01462433 -0.01459278 -0.0145705 -0.01455775 -0.0145582 -0.01457186
 -0.01460103 -0.01464481 -0.01470195 -0.01476869 -0.01483512 -0.0148957 -0.01493423 -0.01495058 -0.01493527 -0.01489795
 -0.01484294 -0.01478185 -0.01472375 -0.01467342 -0.01463607 -0.01460875 -0.01459227 -0.01458015 -0.01457121 -0.01456141
 -0.01454974 -0.01453819 -0.0145267 -0.01452219 -0.01452501 -0.01454253 -0.01457392 -0.01461734 -0.01466902 -0.01471153
 -0.01474192 -0.01474009 -0.01471243 -0.01466024 -0.01459401 -0.01452957 -0.01446972 -0.01442287 -0.01438799 -0.01436617
 -0.01435819 -0.01436594 -0.01438441 -0.01441514 -0.01444057 -0.01445816 -0.01445107 -0.01441567 -0.01435487 -0.01426813
 -0.01417499 -0.0140764 -0.01398987 -0.01391489 -0.01385563 -0.01380986 -0.01376983 -0.01373407 -0.01369387 -0.01365046
 -0.01360263 -0.01355062 -0.0134952 -0.01343363 -0.01336225 -0.01328368 -0.01319614 -0.01311087 -0.01303311 -0.01296745
 -0.01291867 -0.0128762 -0.01283923 -0.01279596 -0.01274409 -0.01268407 -0.01261561 -0.01254472 -0.01247139 -0.01239269
 -0.01230738 -0.01220282 -0.01207947 -0.01193034 -0.01176166 -0.01158747 -0.01141354 -0.01126077 -0.01112373 -0.01100575
 -0.01089477 -0.01077885 -0.01065513 -0.01051475 -0.01037056 -0.01022539 -0.01009245 -0.009978455 -0.00988054 -0.009802024
 -0.009720953 -0.009636903 -0.009513144 -0.009346561 -0.009119141 -0.008831617 -0.008520082 -0.008187946 -0.007882314 -0.00759935
 -0.007347321 -0.007118185 -0.006893339 -0.006666452 -0.006416356 -0.006140101 -0.005823215 -0.005470275 -0.005078171 -0.004659361
 -0.004223578 -0.003770602 -0.00330919 -0.002809803 -0.002265282 -0.001652686 -0.0009592213 -0.000218791 0.0005677259 0.001353035
 0.002132477 0.002902577 0.003663158 0.00441748 0.005163087 0.005876595 0.006559273 0.007199582 0.007811284 0.008429146
 0.009064283 0.009763813 0.01050965 0.01130052 0.01210624 0.01289042 0.0136551 0.01438624 0.01510743 0.01582708
 0.01655841 0.01730816 0.0180771 0.01886143 0.01969096 0.02056244 0.02156723 0.02271326 0.02404679 0.02556507
 0.02711705 0.02869406 0.03014336 0.03148882 0.03276465 0.03399646 0.03528185 0.03662283 0.03806759 0.0396149
 0.04126769 0.0430685 0.04503726 0.04727817 0.04987093 0.05286974 0.05637427 0.06017678 0.06427307 0.06829768
 0.07216036 0.07571077 0.07890312 0.0818096 0.08442869 0.08689988 0.0892324 0.09162527 0.09409576 0.09690922
 0.1000371 0.1035263 0.1072479 0.1107998 0.1141662 0.1170763 0.1196865 0.1221147 0.1244671 0.1269128
 0.1294389 0.1320939 0.134822 0.1376047 0.140416 0.1432541 0.1460545 0.1488094 0.1514336 0.1539063
 0.1562567 0.1584844 0.1606479 0.1627469 0.164693 0.1664774 0.1679684 0.1691856 0.1701502 0.1709005
 0.1715756 0.1721742 0.172777 0.1733234 0.1737425 0.1740369 0.1741625 0.1741986 0.1741963 0.1741786
 0.1741832 0.1741563 0.1740884 0.1739355 0.1736819 0.1733333 0.1728864 0.1723708 0.1717883 0.1711663
 0.1705056 0.1698011 0.1690499 0.1682194 0.1673083 0.1662927 0.1651754 0.1639495 0.1626258 0.1612184
 0.1597491 0.1582563 0.1567521 0.1552695 0.1537913 0.1523153 0.1508266 0.1493053 0.147791 0.1462843
 0.1448571 0.1435308 0.1423156 0.1412202 0.1401989 0.1392479 0.1383475 0.1374972 0.1367245 0.1360311
 0.1354475 0.1349709 0.1346036 0.1343417 0.1341747 0.1341006 0.1341108 0.1342019 0.1343651 0.1345982
 0.1348944 0.1352568 0.1356855 0.1361838 0.136754 0.1373965 0.1381113 0.1389017 0.1397697 0.1407113
 0.1417295 0.1427903 0.1438918 0.1449923 0.1460907 0.1472011 0.148329 0.1495449 0.1508413 0.1522275
 0.1536715 0.155065 0.1564075 0.1576333 0.1587838 0.1599052 0.1609948 0.1620848 0.1631088 0.1640229
 0.1648002 0.1653981 0.1658808 0.1662494 0.1666109 0.1669944 0.1674442 0.1679883 0.1684833 0.1689208
 0.1691625 0.1692027 0.169057 0.1687284 0.1682539 0.1676313 0.1668663 0.1659565 0.1648994 0.1636885
 0.1623147 0.1607555 0.1589599 0.156949 0.1546834 0.1523213 0.1499722 0.1477198 0.1456697 0.1437072
 0.1418146 0.1399006 0.1379288 0.1359239 0.1338813 0.1318607 0.129869 0.1279067 0.1259736 0.1240331
 0.1220863 0.1201311 0.1181755 0.1162639 0.1143982 0.1126145 0.1108951 0.1092222 0.1075705 0.1058918
 0.104176 0.1023958 0.1005464 0.09862718 0.09659797 0.09444077 0.09211715 0.08956786 0.08697346 0.08433748
 0.08197281 0.07995377 0.07823716 0.07683568 0.07551281 0.07425744 0.07294739 0.07158897 0.07021452 0.06883533
 0.06753466 0.06630342 0.06515242 0.06407326 0.06304119 0.06208134 0.06121781 0.06048359 0.05993324 0.05955426
 0.05936029 0.05931506 0.05940019 0.05960386 0.05991402 0.06034522 0.06089228 0.0616041 0.06247839 0.06362882
 0.06506617 0.06687216 0.06904938 0.07139622 0.07388918 0.07617515 0.07826684 0.08005099 0.0815653 0.08288396
 0.08401601 0.08501565 0.08588361 0.08662646 0.08729375 0.08792491 0.08860887 0.08944662 0.09041557 0.09157266
 0.09271483 0.09377231 0.09465189 0.09529717 0.09580064 0.09616584 0.09649421 0.09679756 0.09710675 0.09742363
 0.09771783 0.09798736 0.0981975 0.0983518 0.09844998 0.09850165 0.09853759 0.09856854 0.09863548 0.09874015
 0.09890436 0.09912273 0.09939396 0.09972391 0.1001143 0.1005775 0.1011242 0.1017472 0.1024503 0.1032059
 0.1040075 0.104839 0.105695 0.1065847 0.1075094 0.1084649 0.1094509 0.1104021 0.1113133 0.112096
 0.1127515 0.1132418 0.1135722 0.113743 0.1137532 0.1136002 0.1132828 0.1127935 0.1121438 0.1113397
 0.1104032 0.1093535 0.1082029 0.1069654 0.1056346 0.1042093 0.1026908 0.1010701 0.09940094 0.09768325
 0.09601524 0.09440678 0.09291646 0.09154783 0.09028471 0.0891246 0.08803078 0.08700338 0.08602567 0.08509824
 0.08421632 0.08337538 0.08256443 0.08177465 0.08098848 0.08019616 0.07938069 0.07853477 0.0776448 0.07671652
 0.07574368 0.0747546 0.07375525 0.0727794 0.07183922 0.0709391 0.07008474 0.06924789 0.06842652 0.06759658
 0.06675663 0.06592158 0.06509437 0.06431916 0.06359646 0.06295337 0.06238458 0.06188474 0.0614509 0.06107282
 0.06075158 0.06048568 0.06027342 0.06011363 0.06000096 0.05993176 0.05989937 0.05990169 0.05992555 0.05996809
 0.06000973 0.0600446 0.06006303 0.0600606 0.06004917 0.06002895 0.06001785 0.06001693 0.06002441 0.06003926
 0.06004488 0.06004277 0.06003157 0.06001825 0.06002704 0.06006407 0.06015821 0.06030613 0.0605182 0.06078094
 0.06108562 0.06141336 0.06174991 0.06207167 0.06236501 0.06260513 0.06277926 0.06287613 0.06288761 0.06282622
 0.06269076 0.0625082 0.06228062 0.06203307 0.06176711 0.06149796 0.06122585 0.06095654 0.06069002 0.06042868
 0.06017376 0.05993108 0.05970191 0.05949317 0.05930309 0.05913228 0.05897756 0.05883484 0.05870398 0.05858317
 0.05847421 0.05837774 0.05829471 0.05822508 0.05817186 0.05813531 0.0581205 0.05812918 0.05815816 0.05820827
 0.05826324 0.05832218 0.05836964 0.05840597 0.05843326 0.05845388 0.05848408 0.05852485 0.05858908 0.05867471
 0.05878265 0.05891192 0.05905971 0.05923004 0.05942623 0.05965248 0.05991514 0.06021043 0.06053953 0.06089276
 0.06126636 0.06165535 0.06205742 0.06247246 0.06290095 0.06333712 0.06378113 0.06421898 0.06464985 0.06506079
 0.06545139 0.0658145 0.06614998 0.06645329 0.06672437 0.06696029 0.06716168 0.06732874 0.06746171 0.06756218
 0.06762701 0.06765434 0.06763781 0.06757142 0.06745152 0.06727291 0.06704001 0.06675193 0.06641903 0.06604315
 0.06563491 0.065196 0.06473596 0.0642558 0.06376386 0.06326076 0.06275002 0.06223156 0.06170388 0.06116708
 0.06062105 0.06006633 0.0595057 0.05893797 0.05836208 0.05777543 0.05717182 0.0565531 0.05591631 0.05527204
 0.05462608 0.05399288 0.05338259 0.05280245 0.05225962 0.05174769 0.0512676 0.05080611 0.05036074 0.04992497
 0.04949733 0.04908129 0.04867696 0.04828834 0.04791532 0.04755602 0.04721049 0.0468775 0.04655861 0.04625891
 0.04598051 0.04573113 0.04551236 0.04532994 0.04518574 0.04508376 0.04502657 0.04501702 0.04505848 0.04515252
 0.04530526 0.045518 0.04580121 0.04615765 0.04659574 0.04711886 0.0477212 0.04840431 0.04914071 0.04992905
 0.05073032 0.051543 0.05233898 0.05311989 0.05388224 0.05463031 0.05537821 0.05613036 0.05690508 0.05770475
 0.05854367 0.05941729 0.06032946 0.06126401 0.06221169 0.0631502 0.06406529 0.06493885 0.06576144 0.06651945
 0.06720857 0.06781554 0.0683367 0.06876867 0.0691089 0.06937741 0.06957484 0.06974222 0.06988207 0.07003978
 0.07021664 0.07044417 0.07072057 0.07105576 0.0714471 0.0718918 0.07239083 0.07294433 0.07355464 0.07422662
 0.07495612 0.07574365 0.07657755 0.07745273 0.07835535 0.07928057 0.08021217 0.08114663 0.08206449 0.08296198
 0.0838254 0.08465239 0.08544045 0.08618917 0.08690187 0.08757893 0.08822668 0.08884629 0.08944882 0.09003538
 0.09061643 0.09119203 0.0917675 0.09234253 0.0929206 0.0934968 0.09407002 0.09462511 0.09514983 0.09562956
 0.09604836 0.09641256 0.09671649 0.09698732 0.09722951 0.09747264 0.0977223 0.09799985 0.09830806 0.09866223
 0.09906349 0.09952525 0.1000482 0.1006438 0.1013111 0.1020513 0.1028584 0.1037123 0.1046012 0.1054874
 0.1063556 0.1071641 0.1078952 0.1085112 0.1089982 0.1093285 0.1095055 0.1095189 0.1093929 0.1091318
 0.1087665 0.1083038 0.1077766 0.1071883 0.1065864 0.1059743 0.1054108 0.1049001 0.1044857 0.1041681
 0.1039545 0.10384 0.1037954 0.1038137 0.1038496 0.1038998 0.1039311 0.1039465 0.1039366 0.1039051
 0.1038537 0.1037842 0.1036975 0.1035984 0.1034901 0.1033759 0.1032609 0.1031353 0.1029989 0.1028359
 0.1026423 0.1024161 0.1021558 0.1018701 0.1015595 0.1012292 0.1008793 0.1005129 0.1001296 0.09972977
 0.09930962 0.09885414 0.09835692 0.09779152 0.09715728 0.09643935 0.09564324 0.09477051 0.09382492 0.09280985
 0.09172937 0.09058391 0.08938712 0.08814185 0.08687006 0.08557754 0.08428375 0.08299384 0.08171527 0.0804503
 0.07919333 0.07794414 0.07669724 0.07545292 0.07422052 0.07300095 0.07180718 0.07063659 0.0694851 0.06834875
 0.0672128 0.06607924 0.06494419 0.06381261 0.06269021 0.06157822 0.06047898 0.05939518 0.05832759 0.05728354
 0.05626805 0.0552786 0.05431869 0.05336841 0.05242526 0.05146946 0.05049727 0.04950757 0.04849954 0.04748813
 0.04647433 0.04547701 0.04449733 0.04355227 0.04264308 0.0417843 0.04097651 0.04023036 0.03954212 0.03891207
 0.03833008 0.03778341 0.03726278 0.03675389 0.03625603 0.03576538 0.03528097 0.03480401 0.03432358 0.03383637
 0.0333363 0.03281939 0.03229836 0.03177416 0.0312587 0.03075333 0.03025207 0.02975489 0.02926078 0.02877253
 0.02831367 0.02788567 0.02751106 0.02718205 0.02688981 0.02662264 0.02635191 0.02607534 0.02577484 0.02546128
 0.02513615 0.02481641 0.02451246 0.02423859 0.02400406 0.02381432 0.02367452 0.02357771 0.02352543 0.02349772
 0.02349315 0.02348814 0.02348054 0.02346323 0.02343657 0.02341705 0.02340571 0.02342 0.02345686 0.02351167
 0.02358059 0.02364816 0.0237173 0.02378622 0.02385919 0.02394513 0.02403537 0.02412887 0.02420537 0.02425049
 0.02425426 0.02420387 0.02411603 0.02398923 0.02385771 0.02372721 0.02362643 0.02356042 0.02353912 0.02356408
 0.02362934 0.02373428 0.02386314 0.02401442 0.02416813 0.02432439 0.02447144 0.02461396 0.02475867 0.02491163
 0.02508945 0.02529167 0.02552682 0.02578602 0.02606538 0.02635269 0.0266399 0.02691556 0.02717219 0.0274052
 0.02760972 0.02779434 0.02795886 0.02811812 0.02827466 0.02843174 0.02859019 0.02874093 0.02888374 0.0290166
 0.02914093 0.02926884 0.02940089 0.02954736 0.02970483 0.02986886 0.03003533 0.03019247 0.03034162 0.03047827
 0.03060902 0.03073899 0.0308721 0.03101406 0.031161 0.03131331 0.03146431 0.03161182 0.03175237 0.03188464
 0.03200833 0.03212272 0.03223275 0.03233827 0.03245445 0.03258216 0.03273914 0.03292457 0.03313964 0.03338045
 0.03362838 0.03388207 0.03412535 0.03436456 0.03460434 0.03485188 0.03512242 0.03541092 0.03572121 0.03603712
 0.03634829 0.03664564 0.03691983 0.0371778 0.03742002 0.03765235 0.03787766 0.038089 0.0382854 0.03846451
 0.03862531 0.03878464 0.03894325 0.0391158 0.03930064 0.03948779 0.03967538 0.03984642 0.04000618 0.04016
 0.04031776 0.04050383 0.04072068 0.0409856 0.04128754 0.04162411 0.04197818 0.04233736 0.04269069 0.04302937
 0.04335112 0.04365373 0.04393586 0.04419702 0.04443542 0.04465012 0.04484593 0.04502274 0.04519286 0.04535706
 0.04553148 0.04571715 0.04593094 0.04617196 0.046447 0.04674982 0.04706486 0.04738687 0.04769386 0.04799312
 0.04828412 0.0485792 0.04889473 0.04922546 0.04957735 0.04992784 0.05026744 0.05058156 0.0508611 0.05111062
 0.05132857 0.05152678 0.05170682 0.0518758 0.05203475 0.05218092 0.05231407 0.05242534 0.05251523 0.05258459
 0.05263597 0.05268328 0.05272716 0.05277669 0.05283143 0.05289188 0.05296513 0.05306128 0.05318714 0.05335892
 0.05356184 0.05379471 0.05403025 0.05425115 0.05445599 0.05463555 0.05481835 0.0550099 0.05522659 0.05547482
 0.05573193 0.05599757 0.05623233 0.05643465 0.05659176 0.05670716 0.05681078 0.05690768 0.05704028 0.05720801
 0.05743057 0.05770632 0.05804025 0.05843331 0.05889441 0.05940843 0.05997204 0.0605448 0.06109719 0.06160237
 0.06203146 0.06240675 0.06272554 0.06302859 0.06332666 0.06363235 0.06394985 0.06427342 0.06460226 0.06494438
 0.06530031 0.06568607 0.06610112 0.06654656 0.06701899 0.0675019 0.06799178 0.0684687 0.06893154 0.06936884
 0.06977945 0.07015906 0.07050072 0.07079716 0.07103887 0.07121573 0.07132627 0.071365 0.0713415 0.07125422
 0.07112726 0.07096031 0.0708028 0.07065955 0.07058497 0.07058574 0.07066825 0.07083239 0.07103471 0.07127349
 0.07151593 0.07176277 0.07200462 0.0722359 0.07243158 0.07259044 0.07268952 0.07275134 0.07279817 0.07285396
 0.0729555 0.07310583 0.07331344 0.07359347 0.07395261 0.07441312 0.07500611 0.07563816 0.07630732 0.0768537
 0.07724038 0.07748403 0.07757821 0.0776347 0.07765871 0.07771154 0.07779066 0.07788981 0.07800179 0.07808417
 0.07813554 0.07812411 0.07806379 0.07796659 0.07785304 0.07776543 0.07770004 0.07767595 0.07766247 0.07763896
 0.07759696 0.07751825 0.07743607 0.07735783 0.07730969 0.07730333 0.07732702 0.07738256 0.07744201 0.07750355
 0.07753906 0.07754698 0.07750393 0.07741114 0.07727268 0.07709471 0.07691405 0.07673314 0.0765835 0.07645486
 0.07634138 0.0762291 0.0760891 0.07592662 0.07572929 0.0755271 0.07533894 0.07518463 0.07508941 0.07502164
 0.07498008 0.07491702 0.07481366 0.07468461 0.07452555 0.07438921 0.07428293 0.07419201 0.07411572 0.07399931
 0.0738472 0.07369275 0.07354909 0.07351446 0.07358109 0.07378059 0.07408464 0.0744448 0.07483989 0.07521538
 0.07556228 0.07584761 0.07607914 0.07624497 0.07638036 0.07650006 0.07663056 0.07679211 0.07696149 0.07713816
 0.07729246 0.0774155 0.07752562 0.07762276 0.07773897 0.07787585 0.07803384 0.0782119 0.0783985 0.07859161
 0.07877792 0.07894936 0.07906999 0.07913652 0.07911665 0.07902927 0.0788879 0.07871526 0.07854583 0.07837969
 0.07822955 0.07808475 0.077941 0.07779733 0.07764972 0.07751098 0.07738001 0.07728701 0.07723697 0.07724907
 0.07732947 0.0774277 0.07754114 0.07757549 0.07753097 0.07738011 0.07713675 0.07686812 0.07658287 0.07635114
 0.07616172 0.07602581 0.0759239 0.07583095 0.0757298 0.07559148 0.07540778 0.075159 0.07485788 0.07450161
 0.07411883 0.0737183 0.07332339 0.0729413 0.0725851 0.07225815 0.07196498 0.07170728 0.07147279 0.07126091
 0.07104765 0.07083143 0.0705879 0.07031372 0.06997625 0.06957388 0.06907631 0.06850035 0.06786353 0.0671983
 0.06656893 0.065985 0.06548943 0.06505791 0.06468571 0.06434996 0.06403464 0.06373581 0.06344698 0.0631757
 0.06292113 0.06269907 0.06251306 0.06236615 0.0622617 0.06215534 0.0620447</values></Ydata></AB><ScSm><Ydata ylabel="Single channel"><values byteorder="INTEL" format="FLOAT32" numvalues="1814"> 0.06340615 0.06341472 0.06347456 0.06361064 0.06380094 0.063987 0.06411713 0.06418154 0.06419732 0.0641699
 0.06410297 0.06404555 0.0640815 0.06424671 0.06447634 0.06464946 0.06468719 0.06462245 0.06457952 0.06465134
 0.06477346 0.06474702 0.06442672 0.06388746 0.06337415 0.06307746 0.06301718 0.06318605 0.06366852 0.06441109
 0.06496298 0.06479522 0.06396232 0.06314149 0.06288284 0.06307929 0.06327671 0.0632048 0.06286593 0.06242428
 0.062245 0.06280173 0.06421287 0.06584953 0.06655841 0.06539147 0.06228288 0.05826119 0.05506934 0.05423471
 0.05599879 0.0590014 0.0612993 0.06191619 0.06131702 0.06043464 0.05965582 0.05893737 0.05846515 0.05869332
 0.05972488 0.06088816 0.06108701 0.05974244 0.05747624 0.05566391 0.05517881 0.05584498 0.05717184 0.0588943
 0.06023805 0.0594806 0.05562975 0.05058727 0.04832765 0.05113037 0.05715064 0.06221971 0.06355946 0.0613649
 0.05761994 0.05443805 0.05325108 0.05442429 0.05719361 0.06029952 0.06275144 0.06388145 0.06317279 0.0606999
 0.05757465 0.0554171 0.05536023 0.0575975 0.06133991 0.06489044 0.0664123 0.06528029 0.0624988 0.05963834
 0.05779544 0.05758865 0.05931777 0.06266044 0.06664249 0.07019801 0.07260717 0.0735776 0.07330966 0.07236929
 0.07125548 0.07030779 0.07000409 0.07067657 0.07172869 0.07184799 0.07042685 0.06836958 0.06716467 0.06734632
 0.06806295 0.06811734 0.06718393 0.06564306 0.06340718 0.05986257 0.05527823 0.05121937 0.0489883 0.04861519
 0.04977364 0.05230331 0.05512723 0.05617281 0.05463745 0.05245726 0.05239868 0.0551036 0.05874436 0.06124783
 0.06221495 0.06278499 0.06416658 0.06640615 0.06822839 0.06799708 0.06533143 0.0620316 0.06081562 0.06265416
 0.06583189 0.06805915 0.06889306 0.06951287 0.07064991 0.07145236 0.07037193 0.06700297 0.06308139 0.06141901
 0.06345687 0.06782304 0.0713283 0.07133365 0.0675272 0.0619899 0.0575685 0.05590721 0.05700142 0.06027579
 0.06522374 0.07084459 0.07537893 0.07729397 0.07640307 0.07377426 0.07050983 0.06673075 0.06215134 0.05776521
 0.05606819 0.05871328 0.06440753 0.06998067 0.07321499 0.07396926 0.0729692 0.07045177 0.06633733 0.06149782
 0.05819503 0.05834633 0.06122745 0.06385833 0.06411693 0.06268252 0.0615378 0.0614905 0.06184674 0.06190721
 0.06196285 0.06277937 0.06449395 0.06629776 0.06721544 0.06699995 0.06618792 0.0654697 0.06506474 0.06456722
 0.06351645 0.06229858 0.06213021 0.06373583 0.06635873 0.06853373 0.06956135 0.06978601 0.0696376 0.06887388
 0.06693809 0.06401312 0.0614714 0.06086931 0.0624457 0.0649628 0.06699844 0.06797485 0.06803796 0.0675519
 0.06684962 0.0661203 0.06545307 0.06506809 0.06527264 0.06602979 0.06684582 0.06726443 0.06724608 0.06695496
 0.06643428 0.06565873 0.06476222 0.06405417 0.06380065 0.0640249 0.06453181 0.06508347 0.06548872 0.06558281
 0.06528808 0.06472708 0.06414554 0.06369016 0.06336114 0.06316805 0.0631834 0.0634056 0.06368606 0.06385425
 0.06385705 0.06374079 0.06355113 0.06329733 0.06299079 0.0626841 0.06246593 0.06240299 0.06246701 0.06254801
 0.06257632 0.0625917 0.0626405 0.06265777 0.06253427 0.06227099 0.06198942 0.06179984 0.06171545 0.06168361
 0.06164267 0.0615311 0.06128559 0.06089473 0.06047074 0.06020988 0.0602334 0.0604938 0.0608513 0.0611838
 0.06140739 0.06147817 0.06142588 0.06133034 0.06122864 0.06108368 0.06086057 0.06060586 0.06043867 0.0604609
 0.06066253 0.060922 0.06111269 0.06119065 0.0611809 0.06113368 0.06110825 0.06113661 0.06117779 0.06115562
 0.06105676 0.06095288 0.06091768 0.06094842 0.06097355 0.06093105 0.0608413 0.06079127 0.06083657 0.06094159
 0.06103178 0.06107683 0.06110094 0.06112947 0.06114607 0.06110413 0.06098405 0.06083165 0.06071704 0.06066202
 0.06063943 0.06063677 0.06067584 0.0607623 0.06085284 0.06089221 0.0608684 0.06081686 0.06077228 0.06072857
 0.06065587 0.06054863 0.06043855 0.0603603 0.06032034 0.06030014 0.06027551 0.06023122 0.06016622 0.0600884
 0.06000341 0.05990893 0.05979956 0.0596783 0.05956679 0.05949818 0.05948716 0.05950493 0.05949452 0.05941809
 0.05928931 0.05915784 0.05906058 0.05898933 0.05891017 0.05880966 0.05870876 0.05863309 0.05858679 0.05855787
 0.0585321 0.05849858 0.05846105 0.05845137 0.05851175 0.05864743 0.05880681 0.05892468 0.0589827 0.05901731
 0.05907382 0.05916587 0.05927619 0.05938473 0.05949371 0.05962586 0.05979067 0.05995671 0.06007937 0.06015776
 0.06024066 0.0603715 0.06055138 0.06075634 0.06095953 0.06113146 0.06125209 0.06133759 0.06143167 0.06155837
 0.06170069 0.06183401 0.06196149 0.06210368 0.06226825 0.06244779 0.06264231 0.0628674 0.06313507 0.06343169
 0.06371824 0.06395496 0.06413483 0.06429753 0.0645038 0.06478757 0.06512968 0.0654767 0.06578583 0.06605564
 0.06631589 0.06658697 0.06685993 0.06712511 0.06740554 0.06773716 0.06812073 0.06851783 0.06889485 0.06925036
 0.06959926 0.06994918 0.07029855 0.07064775 0.07100611 0.07138503 0.07177942 0.07216059 0.07249852 0.07279133
 0.07306755 0.07336394 0.07370318 0.07407644 0.07443769 0.07473513 0.07496815 0.07519803 0.07547989 0.07579762
 0.07609268 0.0763472 0.07660542 0.07690929 0.07724389 0.07756267 0.07784629 0.07811627 0.07839812 0.07868734
 0.07895228 0.0791644 0.07932633 0.07947174 0.07963593 0.07983244 0.0800648 0.08034502 0.08067594 0.08102187
 0.08132546 0.08155756 0.08173232 0.08187945 0.08202395 0.08218694 0.08237974 0.08259491 0.08281465 0.08302124
 0.08319561 0.08332942 0.08345205 0.08361952 0.08385812 0.08414184 0.08444028 0.08476068 0.08511755 0.08548816
 0.08583695 0.08617281 0.0865399 0.08694477 0.08732848 0.08762817 0.08783908 0.08799864 0.08814172 0.0883005
 0.08852167 0.08884048 0.08923972 0.08966077 0.09005472 0.09040794 0.09072588 0.09101154 0.09126188 0.09147497
 0.09165578 0.09181499 0.09196416 0.09211732 0.09229478 0.09251023 0.09274763 0.09296155 0.09310788 0.09316444
 0.09312168 0.09297685 0.09275347 0.09250564 0.09227393 0.09203785 0.09173036 0.09129834 0.09073509 0.09005769
 0.08927603 0.08839527 0.08744225 0.0864819 0.08560494 0.08489503 0.0844046 0.0841604 0.08417796 0.08444998
 0.08491667 0.08546492 0.08596699 0.08631433 0.08642167 0.0862294 0.08572692 0.0849684 0.08405236 0.08308361
 0.08214734 0.08129568 0.08054572 0.07990714 0.07943091 0.07922713 0.07942358 0.0801045 0.08127872 0.08287542
 0.0847479 0.08669733 0.08853328 0.09014311 0.09151524 0.09270038 0.09375671 0.09472942 0.09565746 0.09656568
 0.09744355 0.09825292 0.09896836 0.0995997 0.1001707 0.1006875 0.1011318 0.1014737 0.101692 0.101792
 0.1018063 0.1017772 0.1017415 0.1017309 0.1017678 0.1018434 0.1019059 0.101877 0.1016872 0.1013098
 0.1007948 0.1002938 0.100045 0.1003004 0.1012167 0.1027725 0.1047732 0.1069418 0.1090267 0.110858
 0.1123535 0.113513 0.1144036 0.1151232 0.1157542 0.1163429 0.1169069 0.1174493 0.1179676 0.1184608
 0.1189324 0.1193898 0.1198429 0.1202985 0.1207513 0.1211839 0.1215839 0.1219617 0.1223475 0.1227641
 0.1232042 0.1236377 0.1240447 0.1244358 0.1248302 0.1252224 0.1255889 0.1259234 0.1262485 0.1265897
 0.1269538 0.1273329 0.127713 0.1280751 0.1284027 0.1286961 0.1289739 0.1292578 0.1295578 0.1298724
 0.1301942 0.1305132 0.1308202 0.1311159 0.1314158 0.1317332 0.1320579 0.1323591 0.1326184 0.1328495
 0.1330823 0.1333326 0.1335934 0.1338529 0.1341123 0.1343875 0.1346938 0.135027 0.1353603 0.1356638
 0.1359282 0.1361708 0.1364179 0.1366844 0.1369684 0.1372589 0.1375448 0.1378182 0.1380781 0.1383325
 0.1385934 0.1388666 0.139147 0.1394246 0.1396948 0.1399609 0.1402277 0.1404961 0.1407677 0.1410523
 0.1413617 0.1416917 0.1420182 0.1423159 0.1425775 0.1428145 0.1430439 0.1432784 0.1435234 0.143778
 0.1440405 0.144311 0.1445896 0.1448727 0.1451549 0.1454313 0.1456991 0.1459582 0.1462151 0.1464796
 0.146758 0.1470502 0.1473514 0.1476531 0.147945 0.1482205 0.148483 0.1487414 0.1490002 0.1492555
 0.1495013 0.1497392 0.1499812 0.1502388 0.1505107 0.1507834 0.1510467 0.1513043 0.1515669 0.1518377
 0.1521081 0.1523699 0.1526256 0.1528828 0.1531428 0.1533988 0.153646 0.1538862 0.1541261 0.1543745
 0.1546377 0.1549131 0.1551893 0.1554562 0.1557133 0.155967 0.1562234 0.1564819 0.1567359 0.1569795
 0.1572141 0.1574469 0.1576837 0.1579259 0.1581711 0.1584159 0.158662 0.1589166 0.1591818 0.1594504
 0.1597178 0.1599883 0.1602635 0.1605352 0.160796 0.161049 0.1613002 0.1615516 0.1618037 0.1620587
 0.1623195 0.1625862 0.1628529 0.1631099 0.1633533 0.1635883 0.1638211 0.1640539 0.1642875 0.1645246
 0.1647683 0.1650214 0.1652817 0.1655402 0.1657888 0.166031 0.1662758 0.1665247 0.1667743 0.1670229
 0.1672709 0.16752 0.1677739 0.1680336 0.1682937 0.1685506 0.1688047 0.1690551 0.1693026 0.1695563
 0.1698256 0.1701071 0.1703887 0.1706608 0.1709179 0.1711613 0.1714021 0.1716503 0.1719062 0.1721664
 0.1724301 0.1726937 0.1729518 0.1732045 0.1734558 0.173708 0.1739623 0.1742165 0.1744624 0.1746973
 0.1749324 0.175178 0.1754323 0.1756905 0.1759503 0.1762054 0.1764526 0.1767002 0.1769548 0.1772125
 0.1774705 0.1777291 0.1779826 0.1782267 0.178469 0.1787156 0.1789629 0.1792092 0.1794508 0.1796653
 0.1798057 0.1797623 0.1792524 0.1777032 0.1742463 0.1679051 0.157996 0.1445666 0.1285252 0.1113097
 0.09436189 0.07876825 0.06516558 0.05382605 0.0447977 0.03800057 0.03328555 0.03052366 0.02970094 0.03102215
 0.03502874 0.04228336 0.05214611 0.06167199 0.06674036 0.06530423 0.05934951 0.05308681 0.04944507 0.04863939
 0.0494173 0.05070341 0.05215707 0.053978 0.05650922 0.05985326 0.06385313 0.06850375 0.07415624 0.08107534
 0.08890004 0.09678826 0.1041388 0.1110661 0.1181281 0.1256624 0.1334347 0.1408682 0.1475027 0.1532372
 0.1582571 0.1628242 0.1671188 0.1712114 0.1751189 0.1788215 0.1821927 0.1849587 0.186819 0.1876742
 0.1877476 0.1874641 0.1871949 0.1871074 0.1872137 0.187489 0.1879178 0.1884834 0.1891629 0.1899298
 0.1907512 0.1915936 0.1924366 0.1932681 0.1940698 0.1948201 0.1955069 0.1961318 0.1967047 0.1972368
 0.1977314 0.1981859 0.1986026 0.1989916 0.1993629 0.1997219 0.2000712 0.2004075 0.2007209 0.2010027
 0.2012545 0.2014854 0.2017079 0.2019334 0.2021664 0.2024002 0.2026244 0.2028354 0.2030406 0.2032519
 0.2034758 0.2037082 0.2039409 0.2041718 0.2044047 0.2046382 0.2048635 0.2050747 0.2052742 0.205469
 0.2056676 0.2058774 0.2060991 0.2063262 0.2065516 0.2067727 0.2069894 0.2072027 0.2074149 0.2076277
 0.2078423 0.2080632 0.208294 0.2085305 0.2087678 0.209007 0.2092483 0.2094826 0.2097043 0.20992
 0.2101355 0.2103415 0.2105264 0.2106975 0.2108839 0.2111125 0.2113804 0.2116548 0.2119068 0.2121345
 0.21235 0.2125606 0.2127703 0.2129822 0.2131949 0.2134139 0.2136574 0.2139319 0.2142186 0.2145009
 0.2147807 0.2150567 0.2153172 0.2155637 0.2158054 0.2160289 0.2162093 0.2163606 0.2165486 0.2168376
 0.2172236 0.2176276 0.2179698 0.2182436 0.2185013 0.2187875 0.2191133 0.2194473 0.2196922 0.2197437
 0.2196497 0.2196454 0.2199415 0.2205137 0.2211578 0.2217041 0.2221219 0.2224642 0.2227739 0.2230431
 0.223226 0.2232905 0.2232848 0.2233567 0.2236556 0.2241802 0.2247644 0.2252471 0.2256018 0.2258795
 0.2261187 0.2263394 0.2265008 0.2264469 0.2260681 0.2255853 0.2254918 0.2260776 0.2271045 0.2280626
 0.228677 0.2290497 0.2293722 0.2296876 0.2299463 0.2300541 0.2297598 0.2287941 0.2273912 0.2264427
 0.2267656 0.22828 0.2301449 0.2315995 0.2324495 0.2328897 0.2331695 0.233421 0.2335593 0.2332978
 0.2324657 0.2314187 0.2309462 0.2315449 0.2328667 0.2340964 0.2347855 0.235087 0.2353208 0.2356135
 0.2358154 0.2354492 0.2339721 0.231573 0.2295918 0.2295842 0.2317975 0.2348717 0.2371891 0.2382745
 0.2386784 0.2387827 0.2382376 0.2365935 0.2339816 0.2310589 0.2287832 0.2282666 0.2300454 0.2331699
 0.2357413 0.2367823 0.2370677 0.2378627 0.2394161 0.2409694 0.2417366 0.2415104 0.2405326 0.2390659
 0.2372642 0.2355582 0.2349004 0.2360955 0.2388174 0.2417173 0.2436715 0.2446378 0.2450686 0.2445947
 0.2417568 0.2357572 0.2286632 0.224847 0.2271281 0.2338231 0.2405575 0.2445764 0.2462575 0.2470525
 0.2475296 0.2472244 0.2449206 0.239317 0.2310902 0.2241915 0.2231791 0.2287121 0.2367985 0.2425129
 0.2433494 0.2394911 0.2329292 0.2268723 0.2244427 0.2267861 0.2325632 0.2392732 0.2447581 0.2478008
 0.248117 0.2462409 0.2434821 0.2416065 0.2415645 0.2420952 0.2406777 0.2367125 0.2325162 0.2299235
 0.227454 0.223057 0.218599 0.2186423 0.2245143 0.2320948 0.2364351 0.236771 0.2356814 0.2344007
 0.2307389 0.2222545 0.2108741 0.2030146 0.2039708 0.2124222 0.2216072 0.2259352 0.2254334 0.2237971
 0.2234381 0.2230193 0.2193563 0.2115681 0.2031893 0.1992219 0.2008503 0.204387 0.2056635 0.2034055
 0.1978316 0.1892545 0.1803679 0.1771395 0.1837929 0.1976255 0.2111042 0.2180683 0.2160278 0.2048364
 0.1874551 0.171639 0.1662011 0.1731852 0.1854137 0.1930778 0.1915535 0.1823029 0.1686457 0.1533764
 0.1399864 0.1331833 0.1361006 0.147112 0.1599278 0.1668315 0.162962 0.149976 0.1362201 0.1307477
 0.1352057 0.142754 0.1457426 0.1426459 0.1370825 0.1330358 0.132478 0.1351207 0.138805 0.1414872
 0.1428824 0.142366 0.1367829 0.1242503 0.1094513 0.1006307 0.1010065 0.1070542 0.11511 0.1246783
 0.1341214 0.138382 0.1346595 0.1277027 0.1258053 0.1320162 0.1414988 0.1474347 0.1477866 0.1457456
 0.1447799 0.1448879 0.1443119 0.1436158 0.1458532 0.1523425 0.1603179 0.1659794 0.1684303 0.1693556
 0.1701312 0.1707649 0.1708738 0.1703247 0.1691843 0.1678126 0.1667448 0.1660976 0.1654641 0.1645185
 0.163022 0.1599536 0.1537252 0.1444415 0.1353478 0.1303023 0.1297265 0.1308049 0.1316694 0.1325651
 0.1320363 0.1257257 0.1121302 0.09743938 0.09105407 0.09649943 0.1087984 0.1201827 0.1260613 0.1254322
 0.1185578 0.1071438 0.09630433 0.09299682 0.1003242 0.1145367 0.1290652 0.1401893 0.1474035 0.1502581
 0.1477937 0.1409489 0.1334922 0.1298813 0.1325962 0.1410457 0.1516717 0.1587252 0.1570634 0.1473377
 0.1384513 0.1409717 0.1558961 0.1728349 0.1816657 0.1828398 0.1831986 0.1853253 0.1862851 0.1852611
 0.1865792 0.1937928 0.2044168 0.2123333 0.2131427 0.2059075 0.1925488 0.1782047 0.1699071 0.1710369
 0.1776027 0.182656 0.1830626 0.1791781 0.1707338 0.1584164 0.1481706 0.1476952 0.1575434 0.1699864
 0.177817 0.1809425 0.1832241 0.1857688 0.1855668 0.1800562 0.1713845 0.1650896 0.1646128 0.1682713
 0.1720922 0.1739893 0.1738289 0.1710918 0.1651854 0.158067 0.1542661 0.1569942 0.1648641 0.1732098
 0.178273 0.1795742 0.1788237 0.1776865 0.1766383 0.1751147 0.1726696 0.1704654 0.1710324 0.1755308
 0.1818277 0.186645 0.1892959 0.191924 0.1961624 0.2008995 0.2036428 0.2032619 0.2010937 0.1997985
 0.2012221 0.2049113 0.208434 0.2094416 0.2078932 0.2063002 0.2074147 0.2115933 0.216735 0.2206482
 0.2228392 0.2240673 0.2250489 0.2258335 0.2257808 0.2240591 0.2208508 0.2180588 0.2179808 0.2210502
 0.2254218 0.2288601 0.2305219 0.2308746 0.2305231 0.2295677 0.2279392 0.2259688 0.2243885 0.2237805
 0.224166 0.2251543 0.2263303 0.2274337 0.2283401 0.2290282 0.2295381 0.2299039 0.2301495 0.23033
 0.2304966 0.2306166 0.2306138 0.2305144 0.2304769 0.2306234 0.2308916 0.2311035 0.2311252 0.2308913
 0.2303276 0.2293705 0.2280687 0.2265632 0.2249339 0.2231556 0.2212878 0.2196795 0.2188733 0.219216
 0.2205465 0.222292 0.2238686 0.2249833 0.225629 0.2259268 0.2260266 0.2260745 0.226173 0.2263448
 0.2265523 0.2267553 0.2269424 0.2271175 0.2272811 0.2274438 0.2276413 0.2279111 0.2282529 0.2286244
 0.228973 0.2292612 0.2294728 0.2296115 0.2296894 0.2297014 0.2296112 0.2293778 0.2289988 0.2285241
 0.2280278 0.227564 0.2271348 0.2266883 0.2261545 0.2254865 0.2246576 0.2236295 0.2223694 0.2209202
 0.2194117 0.2179657 0.2166082 0.2152902 0.2139563 0.2125657 0.2110828 0.2094896 0.2078005 0.2060513
 0.2042783 0.2025122 0.2007819 0.1991143 0.1975272 0.1960144 0.1945382 0.193045 0.1914947 0.18987
 0.1881481 0.1862647 0.1841117 0.1815763 0.1785801 0.1750915 0.171129 0.1667748 0.1621748 0.1575095
 0.1529541 0.1486503 0.1446955 0.1411504 0.1380633 0.1354815 0.133443 0.1319728 0.1310938 0.1308274
 0.1311723 0.132087 0.1334869 0.135252 0.1372372 0.1392839 0.1412375 0.1429777 0.1444619 0.1457492
 0.1469708 0.1482528 0.1496476 0.1511255 0.1526229 0.1540829 0.1554515 0.1566652 0.1576681 0.1584406
 0.159003 0.1594052 0.1597098 0.1599694 0.1602116 0.1604473 0.1606844 0.1609257 0.1611718 0.1614341
 0.1617326 0.1620812 0.1624885 0.1629688 0.1635392 0.1642096 0.1649851 0.1658736 0.1668867 0.168035
 0.1693217 0.1707403 0.172282 0.1739455 0.1757339 0.1776467 0.1796766 0.1817969 0.1839482 0.1860515
 0.1880366 0.189852 0.191462 0.1928546 0.1940415 0.1950398 0.1958628 0.1965353 0.1971008 0.1976046
 0.1980732 0.1985028 0.198864 0.1991214 0.1992511 0.1992444 0.1991147 0.1989098 0.1986922 0.1984967
 0.1983205 0.1981542 0.1979997 0.197862 0.1977439 0.1976416 0.1975305 0.1973705 0.1971436 0.1968745
 0.1965996 0.1963185 0.1959804 0.1955177 0.1948923 0.194112 0.1932057 0.1921979 0.1911046 0.18993
 0.188661 0.1872814 0.185794 0.1842174 0.1825689 0.1808622 0.1791086 0.1773095 0.1754662 0.173604
 0.1717738 0.1700228 0.1683732 0.1668226 0.165352 0.1639384 0.1625643 0.1612176 0.159891 0.1585893
 0.1573307 0.1561331 0.1550094 0.153972 0.153029 0.1521795 0.1514232 0.1507647 0.1501969 0.1496914
 0.149219 0.148773 0.148375 0.1480644 0.1478704 0.1477811 0.1477421 0.1476908 0.1475886 0.1474324
 0.1472457 0.1470546 0.1468652 0.1466728 0.1464786 0.1462678 0.1459774 0.1455134 0.1448008 0.1438063
 0.1425293 0.1409988 0.1392782 0.137464 0.1356725 0.134012 0.1325627 0.1313759 0.1304661 0.1297805
 0.1292123 0.1286821 0.1281996 0.1278354 0.1276516 0.1276456 0.1277214 0.1277359 0.1276273 0.1274881
 0.1274813 0.127703 0.1281335 0.1286722 0.1291955 0.1296172 0.1299119 0.1300881 0.1301602 0.130151
 0.1300796 0.1299434 0.129739 0.1294859 0.1292044 0.1288933 0.1285433 0.1281416 0.1276595 0.1270692
 0.1263728 0.1255965 0.1247687 0.1238936 0.1229225 0.1217946 0.1205659 0.1194578 0.1187258 0.1184999
 0.1187449 0.1193044 0.1199858 0.1206663 0.1212893 0.12173 0.1218105 0.1215937 0.1215606 0.1222806
 0.1238536 0.1257772 0.127389 0.1283506 0.1286804 0.1284895 0.12785 0.1268254 0.1254449 0.1236794
 0.1215444 0.119152 0.1166045 0.1139664 0.1113711 0.1090036 0.1069743 0.105303 0.103982 0.1030604
 0.1026693 0.1024771 0.1008324 0.09564942 0.08760078 0.08151829 0.0823352 0.08956175 0.09763126 0.1017857
 0.1018668 0.1003888 0.09910882 0.09830782 0.0978903 0.09795396 0.09859873 0.09970959 0.1009496 0.1019587
 0.1025986 0.1029243 0.102911 0.1022564 0.1003515 0.09648074 0.09037968 0.08275569 0.07506783 0.06867266
 0.06419845 0.06154681 0.06019615 0.05952322 0.05910579 0.05889645 0.05913178 0.06005718 0.06171481 0.06396302
 0.06661917 0.06947478 0.07221128 0.07450303 0.07626638 0.07766081 0.07880504 0.07962938 0.08002473 0.07999808
 0.07965334 0.07911362 0.07847972 0.07779899 0.07704312 0.07614444 0.07510771 0.07410271 0.07338144 0.07305472
 0.07300733 0.07305629 0.07310279 0.07311362 0.07307436 0.07300538 0.07295389 0.07296626 0.07310093 0.07340868
 0.07385202 0.07430208 0.07464916 0.07488346 0.07506318 0.07520059 0.07516399 0.07477984 0.07411713 0.07351878
 0.07317361 0.07281771 0.07210565 0.07115737 0.07047545 0.07037674 0.07071368 0.0711149 0.07131436 0.07125741
 0.07107531 0.07103503 0.07137327 0.07202895</values></Ydata></ScSm><ScRf><Ydata ylabel="Single channel"><values byteorder="INTEL" format="FLOAT32" numvalues="1820"> 0.06073324 0.06090007 0.06099403 0.06101883 0.0610055 0.06100364 0.06106314 0.06120564 0.06140631 0.06160437
 0.06174307 0.06180654 0.06181046 0.06176674 0.06168797 0.0616259 0.06165915 0.06181739 0.0620356 0.06219742
 0.06222664 0.06215428 0.0621019 0.06216391 0.06228131 0.06225968 0.06195332 0.06143293 0.06093745 0.06065103
 0.06058865 0.06074189 0.061198 0.06191172 0.0624473 0.06228866 0.0614842 0.06068561 0.06042308 0.06059559
 0.06076952 0.06068539 0.06034241 0.05989942 0.05971655 0.06025796 0.06163384 0.06322288 0.06389748 0.06273864
 0.0596935 0.05577512 0.05268343 0.05189587 0.05363176 0.05655687 0.05878239 0.05937038 0.05878546 0.05793978
 0.05720502 0.05652772 0.05607483 0.0562807 0.05725113 0.05834737 0.05851724 0.05720668 0.05502233 0.05328951
 0.05283371 0.05347069 0.05473482 0.05638608 0.05767351 0.0569201 0.05317653 0.04831121 0.04617807 0.04895409
 0.05481558 0.05971331 0.06097182 0.05880659 0.05516386 0.05210123 0.05099156 0.05215765 0.05483801 0.05781644
 0.06015003 0.06120336 0.06048405 0.05807563 0.05506174 0.05300373 0.05298332 0.05517553 0.05880738 0.06223048
 0.0636729 0.06254685 0.05983812 0.05706722 0.05528975 0.05510042 0.05678718 0.06003712 0.06390759 0.06736331
 0.06969833 0.07062472 0.07034417 0.06941834 0.06833913 0.06743515 0.06715897 0.06781387 0.06880931 0.06888399
 0.0674777 0.06548695 0.06434827 0.06455588 0.06526606 0.06531854 0.06440917 0.062911 0.06073238 0.05727715
 0.05282031 0.04889276 0.04675414 0.04642503 0.04758888 0.05008858 0.05286526 0.05389615 0.05240811 0.0502909
 0.05022632 0.05282666 0.05631901 0.05870826 0.05962692 0.06018991 0.06156411 0.0637764 0.06556752 0.06533816
 0.06273036 0.05951937 0.05835998 0.06018173 0.06329721 0.06548201 0.06632251 0.06697096 0.06812468 0.06894003
 0.06791376 0.06467316 0.0609267 0.05940229 0.0614703 0.06577165 0.06920327 0.06920965 0.065503 0.06012895
 0.05587218 0.05433017 0.05549549 0.05882222 0.06382982 0.06953035 0.07417528 0.07623273 0.0754924 0.07299426
 0.06983827 0.06616307 0.06169917 0.05745316 0.05593184 0.05878368 0.06469323 0.07047011 0.07389271 0.07482338
 0.07398042 0.07157513 0.0675116 0.06270634 0.05952366 0.0599417 0.06316797 0.06608394 0.06650586 0.06517878
 0.06418054 0.06433502 0.06489542 0.06513579 0.06539567 0.06650431 0.06858963 0.07075989 0.07196319 0.07194281
 0.07128502 0.07074059 0.07054126 0.07022657 0.06929137 0.0681905 0.06828551 0.07035118 0.07350776 0.07612381
 0.07745495 0.07791834 0.07799502 0.0773823 0.07542418 0.07233232 0.06969117 0.06928334 0.07136612 0.07450648
 0.07707299 0.07841399 0.07871398 0.07840286 0.07785985 0.07729061 0.0767936 0.07662775 0.07714722 0.07829692
 0.07949395 0.08021113 0.08041015 0.08028018 0.07986338 0.07913546 0.07827716 0.0776722 0.07763033 0.07815858
 0.07901101 0.07990684 0.08062629 0.08096975 0.08083043 0.08035029 0.07983892 0.07949066 0.0793114 0.07931235
 0.07958102 0.0801071 0.08069378 0.08112335 0.0813299 0.08136985 0.0813026 0.08115096 0.08093906 0.08073507
 0.08065251 0.08077583 0.08105879 0.08135101 0.08157212 0.08179218 0.08207361 0.08231337 0.08234751 0.08217107
 0.08195581 0.08186415 0.08191733 0.08203676 0.08213538 0.08213356 0.0819471 0.08156015 0.08112867 0.0809239
 0.0811138 0.08164085 0.08232068 0.08297569 0.08346605 0.08371638 0.08377115 0.08374799 0.0837007 0.08358493
 0.0833703 0.0831375 0.08304884 0.08322785 0.08365115 0.08415785 0.08457594 0.08482629 0.08492275 0.08494358
 0.08500596 0.08517496 0.08537202 0.08545288 0.08539444 0.08533067 0.08538471 0.08552527 0.08561409 0.085567
 0.08544936 0.08541176 0.08553675 0.08576684 0.08598759 0.08615303 0.08630899 0.08650556 0.08670405 0.08678807
 0.08668891 0.08648352 0.08632129 0.08626416 0.08626458 0.08629611 0.08641255 0.08664115 0.08689064 0.08703065
 0.08703759 0.08701165 0.0870477 0.08712499 0.08714107 0.08703458 0.08684941 0.08668581 0.08661506 0.08664258
 0.08672354 0.08679467 0.08680488 0.08673983 0.0866261 0.08650599 0.08640826 0.08635212 0.08637467 0.08652046
 0.08677354 0.08701258 0.08707818 0.08691372 0.08663139 0.08641705 0.086361 0.0863874 0.08634841 0.08617043
 0.08590101 0.08563718 0.08543957 0.08531043 0.08522172 0.08514957 0.08510068 0.08511703 0.08523163 0.08539763
 0.0854857 0.08539139 0.08514081 0.08486249 0.08466543 0.08457263 0.08454847 0.08454688 0.08454542 0.08456535
 0.08463933 0.0847392 0.08477665 0.08470546 0.08458489 0.08451866 0.08456982 0.08474085 0.08497432 0.08515719
 0.08519015 0.08508734 0.08496791 0.08493166 0.08497836 0.08505547 0.08513664 0.08522719 0.08532684 0.08542655
 0.08553757 0.08569534 0.08592315 0.08619728 0.08645372 0.08663261 0.08672746 0.08680069 0.0869436 0.08720381
 0.08754367 0.08787193 0.08812112 0.08829814 0.08846156 0.08865246 0.08886074 0.08906606 0.08928764 0.0895623
 0.08988558 0.09021121 0.09050821 0.0907878 0.09107248 0.09136569 0.09166051 0.09196647 0.09231718 0.09273821
 0.09319541 0.09359211 0.09384695 0.0939753 0.0940808 0.09427498 0.09460339 0.09501217 0.09536977 0.09556715
 0.09563222 0.09571263 0.09591423 0.09619223 0.09644091 0.09665236 0.09692529 0.0973237 0.09778134 0.09816544
 0.09840942 0.09856453 0.09872928 0.09894074 0.09914386 0.09927107 0.09933461 0.09941175 0.09954725 0.09972021
 0.09991954 0.1001936 0.1005795 0.1010225 0.1014154 0.1017006 0.1018966 0.1020445 0.102167 0.1022633
 0.1023187 0.1023317 0.1023424 0.1024035 0.1025098 0.1025969 0.1026289 0.1026497 0.1027269 0.1028818
 0.1031012 0.1033791 0.1037025 0.1040232 0.1042996 0.1045632 0.1048861 0.1052648 0.105587 0.1057522
 0.1057881 0.1057974 0.1058284 0.1058626 0.1059105 0.1060384 0.1062865 0.1066159 0.1069617 0.1073
 0.1076419 0.1079865 0.1083001 0.1085317 0.1086449 0.1086478 0.1086024 0.1086012 0.1087196 0.108973
 0.1093081 0.1096414 0.1099128 0.1101007 0.1101944 0.1101874 0.1101191 0.1100902 0.1101869 0.1103829
 0.1105465 0.1105487 0.1103467 0.1099662 0.1094451 0.1088163 0.1081309 0.107466 0.1069008 0.106487
 0.1062498 0.1062158 0.1064246 0.106887 0.1075341 0.1082367 0.1088803 0.1093955 0.1097125 0.1097394
 0.1094287 0.1088393 0.1081046 0.1073496 0.1066491 0.1060249 0.1054497 0.1048846 0.1043617 0.1040266
 0.104074 0.1046306 0.1056889 0.107113 0.1086814 0.1101583 0.1113879 0.1123537 0.1131447 0.1138572
 0.1145331 0.115185 0.1158374 0.1165055 0.1171517 0.1177109 0.1181654 0.1185627 0.1189541 0.1193442
 0.1197032 0.1200035 0.1202447 0.1204566 0.1206676 0.1208574 0.1209633 0.1209506 0.1208552 0.1207388
 0.1206203 0.1204644 0.1202195 0.1198578 0.1194105 0.1189952 0.1188015 0.1190102 0.1196882 0.1207474
 0.1220135 0.1233366 0.1246262 0.125799 0.1267531 0.1274269 0.1278585 0.1281553 0.1284165 0.1286949
 0.1290039 0.1293322 0.1296546 0.1299503 0.1302169 0.1304758 0.1307629 0.1310996 0.1314622 0.1317927
 0.1320556 0.1322812 0.1325413 0.1328811 0.1332771 0.1336636 0.1340022 0.1343127 0.1346256 0.1349218
 0.1351549 0.1353205 0.1354726 0.135671 0.1359419 0.1362793 0.1366472 0.1369818 0.1372319 0.1374062
 0.1375626 0.1377515 0.137983 0.1382418 0.1385096 0.1387732 0.1390298 0.1392929 0.1395838 0.1399032
 0.1402118 0.1404541 0.1406114 0.1407263 0.1408651 0.1410584 0.1412836 0.1415014 0.1417036 0.1419244
 0.1422036 0.142536 0.1428606 0.1431104 0.143269 0.1433776 0.1434922 0.1436438 0.1438336 0.1440489
 0.1442744 0.1444961 0.144706 0.1449072 0.1451103 0.1453207 0.1455331 0.1457381 0.1459341 0.1461277
 0.1463266 0.1465336 0.1467527 0.146998 0.1472842 0.1475999 0.1478989 0.1481354 0.1483036 0.1484353
 0.1485635 0.1487012 0.148849 0.149007 0.1491775 0.1493637 0.1495675 0.1497849 0.1500042 0.1502146
 0.1504173 0.1506245 0.1508435 0.1510682 0.1512889 0.1515078 0.1517337 0.1519634 0.1521791 0.1523692
 0.1525442 0.1527282 0.1529354 0.1531558 0.1533656 0.1535522 0.1537263 0.1539072 0.1541028 0.1543077
 0.1545118 0.1547074 0.1548928 0.1550758 0.1552678 0.1554712 0.1556773 0.1558779 0.1560725 0.1562654
 0.156459 0.1566518 0.1568421 0.157034 0.1572326 0.1574356 0.157635 0.1578285 0.1580222 0.1582208
 0.1584222 0.1586224 0.1588202 0.1590172 0.1592168 0.1594196 0.1596207 0.159814 0.1599999 0.160184
 0.1603707 0.1605618 0.160759 0.1609659 0.1611853 0.1614144 0.1616424 0.161859 0.1620642 0.1622665
 0.1624732 0.1626879 0.1629118 0.1631421 0.1633714 0.1635956 0.1638173 0.1640381 0.1642509 0.1644426
 0.1646083 0.1647608 0.1649225 0.1651042 0.1652975 0.1654903 0.1656795 0.1658674 0.1660559 0.1662459
 0.1664369 0.1666265 0.1668149 0.1670058 0.1671992 0.1673912 0.1675811 0.1677742 0.1679769 0.1681926
 0.1684152 0.1686312 0.1688334 0.1690294 0.1692299 0.1694378 0.1696549 0.169884 0.1701183 0.1703413
 0.1705439 0.1707323 0.1709213 0.1711239 0.1713421 0.1715654 0.1717831 0.1719933 0.1721959 0.1723906
 0.1725855 0.1727914 0.1730061 0.1732191 0.173427 0.1736316 0.1738337 0.1740396 0.1742567 0.1744811
 0.1747044 0.1749274 0.1751525 0.1753736 0.1755859 0.175793 0.1760005 0.1762127 0.176432 0.1766517
 0.1768605 0.177059 0.1772524 0.1774287 0.1775461 0.1774902 0.1769664 0.1753939 0.1719092 0.165554
 0.155664 0.1422932 0.1263414 0.109234 0.09240427 0.07693058 0.06344131 0.05220681 0.04328091 0.03658529
 0.03195845 0.02925023 0.02843373 0.02972101 0.0336728 0.04086039 0.05063616 0.06005702 0.06503648 0.06357154
 0.05765513 0.05145724 0.04785964 0.04706461 0.04783735 0.04911881 0.05056778 0.05237596 0.05488186 0.05818619
 0.06212991 0.06670692 0.07226902 0.07908279 0.08679274 0.09456764 0.1018183 0.108663 0.11565 0.1230995
 0.1307682 0.1380904 0.1446279 0.1502916 0.1552618 0.159787 0.1640352 0.1680712 0.1719182 0.1755681
 0.1788976 0.1816246 0.1834434 0.1842604 0.1843064 0.1840068 0.1837294 0.1836377 0.1837368 0.1839937
 0.1843943 0.1849336 0.1855983 0.1863602 0.1871798 0.1880224 0.1888683 0.1896996 0.1904902 0.1912192
 0.1918842 0.1924944 0.1930599 0.1935875 0.1940785 0.1945308 0.1949457 0.1953285 0.1956851 0.1960245
 0.1963575 0.1966858 0.1969969 0.1972795 0.1975334 0.1977655 0.1979841 0.1981988 0.1984146 0.1986282
 0.1988352 0.1990375 0.1992395 0.1994413 0.199641 0.1998379 0.2000344 0.2002338 0.2004361 0.2006339
 0.2008215 0.2010066 0.2012057 0.2014268 0.2016613 0.2018915 0.2021033 0.2022939 0.2024707 0.2026444
 0.2028205 0.2029977 0.2031723 0.2033446 0.2035245 0.2037273 0.2039551 0.2041901 0.2044137 0.2046261
 0.2048376 0.205051 0.2052647 0.2054794 0.2056887 0.2058749 0.2060276 0.2061659 0.2063307 0.2065498
 0.2068096 0.2070641 0.2072799 0.2074659 0.2076544 0.2078586 0.2080594 0.208232 0.2083802 0.2085449
 0.2087663 0.2090368 0.2093079 0.2095497 0.2097751 0.2100041 0.2102391 0.2104771 0.2107106 0.2109115
 0.2110528 0.2111555 0.211296 0.2115476 0.2119108 0.2123036 0.2126338 0.2128804 0.2130903 0.213317
 0.2135846 0.2138696 0.2140785 0.2141093 0.2140045 0.2139832 0.2142418 0.2147576 0.2153406 0.2158318
 0.216201 0.2164991 0.2167728 0.2170162 0.2171737 0.2171986 0.2171372 0.2171527 0.2174131 0.2179221
 0.2184991 0.21896 0.2192644 0.2194701 0.2196353 0.219795 0.2199126 0.2198287 0.2194255 0.2189134
 0.2187802 0.2193197 0.220303 0.2212277 0.2218186 0.2221689 0.2224593 0.2227301 0.2229391 0.2230018
 0.2226721 0.2216823 0.2202653 0.2193066 0.2196124 0.2210938 0.2229111 0.2243128 0.2251131 0.2255101
 0.2257553 0.2259827 0.226106 0.2258347 0.2249977 0.2239519 0.2234821 0.224076 0.2253798 0.2265795
 0.2272319 0.2274983 0.2277065 0.2279837 0.2281725 0.2277938 0.226317 0.2239397 0.2219827 0.2219639
 0.2241154 0.2271089 0.2293721 0.2304399 0.2308368 0.2309249 0.2303667 0.2287368 0.226173 0.2233146
 0.2210879 0.2205743 0.2223011 0.225349 0.2278688 0.2289024 0.2291929 0.229962 0.2314518 0.2329341
 0.2336576 0.2334327 0.2324985 0.231098 0.2293606 0.2276975 0.2270436 0.2281927 0.2308358 0.2336681
 0.2355947 0.2365609 0.2369907 0.2365196 0.2337329 0.227868 0.2209502 0.2172383 0.2194687 0.225996
 0.232562 0.2364833 0.2381255 0.2389042 0.2393778 0.2390935 0.2368618 0.2314123 0.2234089 0.216708
 0.2157477 0.2211561 0.2290386 0.2346089 0.2354355 0.2316914 0.2253148 0.2194441 0.2171302 0.2194792
 0.225166 0.2317405 0.2371041 0.2400914 0.2404431 0.2386783 0.2360657 0.234325 0.2343745 0.2349664
 0.2336402 0.2298308 0.2258093 0.2233586 0.221032 0.2168418 0.2126215 0.2128177 0.2187019 0.22623
 0.2305773 0.2310273 0.230109 0.2290021 0.225535 0.2173201 0.2062768 0.1987395 0.1999241 0.2085083
 0.2178008 0.222287 0.2220168 0.2206657 0.2206407 0.2206233 0.2174267 0.210149 0.202331 0.1989973
 0.2013211 0.2055752 0.2075593 0.2059601 0.2009289 0.1927479 0.1842124 0.1815009 0.188988 0.2039126
 0.2185246 0.2264602 0.2250947 0.214189 0.1967953 0.1811201 0.1765466 0.1852427 0.1995291 0.2089308
 0.2085044 0.1997679 0.1862286 0.170949 0.1579434 0.1526863 0.1588703 0.1746411 0.1925447 0.2032211
 0.200607 0.1866754 0.1718843 0.1676724 0.176042 0.1881335 0.1941164 0.1920981 0.1868197 0.1835661
 0.1851042 0.1910954 0.1984635 0.2043135 0.2082506 0.2091511 0.2020822 0.1842275 0.1627358 0.1499995
 0.1507952 0.1598822 0.1719065 0.1861905 0.2002109 0.2063225 0.2003702 0.1895296 0.1861667 0.1947077
 0.2078616 0.2155327 0.2148104 0.2104882 0.2077057 0.2064985 0.2043294 0.2019775 0.2037775 0.2116144
 0.2216163 0.2284751 0.2309776 0.231528 0.2320784 0.2326453 0.2326868 0.2320011 0.230654 0.229117
 0.2281214 0.2278365 0.2277092 0.2272958 0.2262502 0.2230749 0.2154392 0.2034503 0.191731 0.1857555
 0.186052 0.1885834 0.1907627 0.1929664 0.1929315 0.1841683 0.1645241 0.1432222 0.1341484 0.1424294
 0.1606145 0.1771785 0.1853525 0.1837114 0.1727476 0.1550876 0.1382177 0.1321053 0.1410589 0.1596024
 0.1783346 0.1920119 0.2000771 0.2021574 0.1971371 0.186389 0.1750047 0.1688594 0.1710624 0.180627
 0.192775 0.200122 0.1963069 0.1823502 0.1694204 0.1705525 0.186954 0.205957 0.2152565 0.2153513
 0.2144634 0.2157557 0.2158151 0.2136901 0.2144543 0.2222835 0.2343317 0.2435423 0.244844 0.2371471
 0.2226706 0.2074292 0.1996587 0.2031744 0.2129606 0.2205611 0.2222233 0.2183957 0.2087507 0.1942542
 0.1824113 0.1827567 0.1958153 0.2118656 0.2219905 0.2262021 0.2293726 0.2328347 0.2327499 0.2259025
 0.215055 0.2072398 0.2068198 0.211698 0.2169097 0.2198595 0.220357 0.2176654 0.2109563 0.2026967
 0.198681 0.2030072 0.2138199 0.2250091 0.2316457 0.2330703 0.2314995 0.2291407 0.2266867 0.2234674
 0.2189323 0.214582 0.2136753 0.2177494 0.224191 0.2289351 0.2311175 0.2333509 0.2376019 0.2424793
 0.2449302 0.2435724 0.2400066 0.2374271 0.2380682 0.2414319 0.2446522 0.244936 0.2422227 0.2394904
 0.2400071 0.2442068 0.2496378 0.2537595 0.2560115 0.2572665 0.2583321 0.2592439 0.2592313 0.2572896
 0.2536026 0.2503772 0.2502864 0.2538246 0.2588434 0.2627781 0.2647214 0.2652779 0.2651578 0.2644305
 0.2629405 0.2609851 0.2593348 0.2586284 0.2589137 0.259795 0.2608467 0.2618032 0.2625356 0.2630276
 0.2633408 0.2635302 0.2636225 0.263669 0.2637241 0.2637541 0.2636749 0.2635243 0.2634945 0.2637185
 0.2640914 0.2643777 0.2644296 0.2642083 0.2636565 0.2627029 0.2613983 0.2599162 0.2583645 0.2567065
 0.2549855 0.2535877 0.2531388 0.254033 0.2560617 0.2585368 0.2607624 0.2623842 0.2633841 0.2639017
 0.2641121 0.2641745 0.2641846 0.2641527 0.264042 0.2638303 0.2635314 0.2631732 0.2627757 0.2623595
 0.2619635 0.261631 0.2613658 0.2611143 0.2608022 0.2603883 0.2598882 0.259354 0.2588275 0.2582935
 0.2576829 0.2569339 0.2560501 0.2550949 0.2541485 0.2532698 0.2524734 0.2517206 0.2509491 0.2501197
 0.2492144 0.2482012 0.2470592 0.2458583 0.2447598 0.2438862 0.2432104 0.2425996 0.2419358 0.2411673
 0.2402858 0.2393116 0.2382896 0.2372553 0.236202 0.2350973 0.2339212 0.2326695 0.2313354 0.2299075
 0.2283828 0.2267788 0.2251354 0.2234904 0.2218338 0.2200822 0.2181057 0.2157734 0.212976 0.209638
 0.2057386 0.201333 0.1965559 0.1916008 0.1866791 0.1819752 0.1776256 0.1737288 0.1703654 0.1676072
 0.1655089 0.1640961 0.1633693 0.1633262 0.1639713 0.1652939 0.1672359 0.1696841 0.1724843 0.1754623
 0.1784442 0.1812795 0.1838766 0.1862363 0.1884348 0.1905434 0.19256 0.1944283 0.1961005 0.1975589
 0.1987959 0.1998146 0.2006461 0.2013413 0.2019395 0.2024525 0.2028797 0.203228 0.2035151 0.2037595
 0.2039769 0.2041829 0.2043876 0.2045898 0.2047869 0.20499 0.2052222 0.2055106 0.2058808 0.2063419
 0.2068681 0.2074182 0.2079779 0.2085634 0.2091878 0.209852 0.210572 0.2113892 0.2123451 0.2134541
 0.2146982 0.2160357 0.2174111 0.2187523 0.219969 0.2209765 0.2217319 0.2222394 0.2225251 0.2226208
 0.2225621 0.2223775 0.2220813 0.221688 0.2212233 0.22071 0.2201516 0.219543 0.2188869 0.2181929
 0.2174695 0.2167324 0.2160115 0.2153315 0.2146838 0.214037 0.21338 0.2127378 0.2121337 0.2115563
 0.210981 0.2104059 0.2098459 0.2093029 0.2087562 0.2081732 0.2075168 0.2067581 0.2058953 0.2049528
 0.2039507 0.2028803 0.2017183 0.200457 0.1991084 0.1976808 0.1961672 0.1945618 0.1928818 0.1911537
 0.1893727 0.1874948 0.1854947 0.1834233 0.1813907 0.1794937 0.1777723 0.1762141 0.1747744 0.1733995
 0.172056 0.1707449 0.1694848 0.1682904 0.1671649 0.1661009 0.1650879 0.1641288 0.163243 0.1624501
 0.1617554 0.1611543 0.1606376 0.1601908 0.159795 0.1594345 0.1591155 0.1588764 0.1587609 0.1587664
 0.1588316 0.158879 0.1588614 0.1587739 0.1586491 0.1585346 0.1584589 0.1584164 0.1583834 0.1583245
 0.1581819 0.1578753 0.157321 0.1564528 0.1552489 0.1537456 0.1520195 0.1501689 0.1483192 0.1466085
 0.1451405 0.1439603 0.1430667 0.1424142 0.1419197 0.1415164 0.1412021 0.1410243 0.14103 0.1412097
 0.1414548 0.1416049 0.1415968 0.1415472 0.1416569 0.1420525 0.1427185 0.1435219 0.1442991 0.1449585
 0.1454965 0.1459213 0.146217 0.1463834 0.1464429 0.1464063 0.1462787 0.1460791 0.1458212 0.145506
 0.14514 0.1447207 0.1442199 0.1436245 0.1429559 0.1422256 0.1414236 0.1405449 0.1395655 0.1384366
 0.1371976 0.1360582 0.1352983 0.1351019 0.1354779 0.1362732 0.1372771 0.1383567 0.1394228 0.1402614
 0.140611 0.1405581 0.1407077 0.1417411 0.1437754 0.1462406 0.1483862 0.1498164 0.1505265 0.1506151
 0.1501458 0.1491801 0.1477337 0.1457516 0.1432471 0.1403675 0.137268 0.1340855 0.1310354 0.1283389
 0.126079 0.1242442 0.1228122 0.1218155 0.121394 0.1211943 0.1193153 0.1133014 0.1039487 0.09698872
 0.09823719 0.1070352 0.1167344 0.1217205 0.1218588 0.1201475 0.1186455 0.117663 0.1171074 0.1171443
 0.1179058 0.1192178 0.1206579 0.1218265 0.1225905 0.1230086 0.1230233 0.1222434 0.1199194 0.1152076
 0.1078365 0.09868079 0.0894687 0.08179128 0.07639436 0.07318223 0.07154878 0.07073356 0.07020397 0.06990826
 0.07015418 0.07122555 0.07314438 0.07576278 0.07892487 0.08240727 0.08579853 0.08866313 0.09086617 0.09259041
 0.09400619 0.09505829 0.09560259 0.09562296 0.09525417 0.0946663 0.09398077 0.09324443 0.09240932 0.09136455
 0.09009554 0.08882708 0.08789685 0.08744807 0.0873356 0.08733809 0.08734666 0.08734391 0.08732587 0.0872817
 0.08720411 0.08713236 0.08718574 0.08747455 0.08795814 0.08845602 0.08880602 0.08897771 0.08904675 0.08905223
 0.0888605 0.08828002 0.08739749 0.08660877 0.08611816 0.08559555 0.08461203 0.08329467 0.08225698 0.08192167
 0.08214455 0.08247992 0.08259762 0.08242777 0.08212703 0.08201464 0.08236501 0.08308084 0.08366427 0.08368124
</values></Ydata></ScRf><Data_Parameters_AB><parameter name="DPF">1</parameter><parameter name="NPT">3497</parameter><parameter name="FXV">3996</parameter><parameter name="LXV">500</parameter><parameter name="CSF">1</parameter><parameter name="MXY">0.174198567867279</parameter><parameter name="MNY">-0.0202834494411945</parameter><parameter name="DAT">01/06/2022</parameter><parameter name="TIM">11:42:38.947 (GMT+2)</parameter><parameter name="DXU">WN</parameter></Data_Parameters_AB><AB__Qtest><MainReport name="Quality Test Report"><Header><Line><Legend>Test result ok/not ok [1/0]: </Legend><Value>0</Value></Line><Line><Legend>Method file: </Legend><Value>C:\Users\Public\Documents\Bruker\OPUS_8.2.28\QT\IRBT_v3_default.QT</Value></Line></Header><Matrix><Line><Legend></Legend><Legend>min</Legend><Legend>max</Legend><Legend>measured</Legend></Line><Line><Value>Absorption (X-Range 1):</Value><Value>0.400000</Value><Value>2.000000</Value><Value>0.189149</Value></Line><Line><Value>Noise (X-Range 4):</Value><Value></Value><Value>0.000300</Value><Value>0.000058</Value></Line><Line><Value>Signal/Noise (X-Range 2):</Value><Value>200.000000</Value><Value></Value><Value>90.717423</Value></Line><Line><Value>Signal/Noise (X-Range 3):</Value><Value>40.000000</Value><Value></Value><Value>38.017092</Value></Line><Line><Value>Water vapour (X-Range 5):</Value><Value></Value><Value>0.000300</Value><Value>0.000071</Value></Line><Line><Value>Signal/Water (X-Range 2):</Value><Value>100.000000</Value><Value></Value><Value>73.490916</Value></Line><Line><Value>Signal/Water (X-Range 3):</Value><Value>20.000000</Value><Value></Value><Value>30.797953</Value></Line><Line><Value>Fringes (X-Range 6):</Value><Value></Value><Value>0.000100</Value><Value>0.000077</Value></Line></Matrix></MainReport></AB__Qtest><Data_Parameters_ScSm><parameter name="DPF">1</parameter><parameter name="NPT">1814</parameter><parameter name="FXV">3996.33169228125</parameter><parameter name="LXV">499.541461535156</parameter><parameter name="CSF">1</parameter><parameter name="MXY">0.248117044568062</parameter><parameter name="MNY">0.0297009386122227</parameter><parameter name="DAT">01/06/2022</parameter><parameter name="TIM">11:42:38.947 (GMT+2)</parameter><parameter name="DXU">WN</parameter></Data_Parameters_ScSm><Data_Parameters_ScRf><parameter name="DPF">1</parameter><parameter name="NPT">1820</parameter><parameter name="FXV">4004.04661832813</parameter><parameter name="LXV">495.683998511719</parameter><parameter name="CSF">1</parameter><parameter name="MXY">0.265277922153473</parameter><parameter name="MNY">0.0284337289631367</parameter><parameter name="DAT">01/06/2022</parameter><parameter name="TIM">11:42:13.092 (GMT+2)</parameter><parameter name="DXU">WN</parameter></Data_Parameters_ScRf><Optic_Parameters_Rf><parameter name="APR">0</parameter><parameter name="APT">Open</parameter><parameter name="BMS">KBr</parameter><parameter name="DTC">RT-DLaTGS_IR-Biotyper [Microplate reader]</parameter><parameter name="HPF">0</parameter><parameter name="LPF">10.0</parameter><parameter name="LPV">4000</parameter><parameter name="PGR">0</parameter><parameter name="RCH">Module port</parameter><parameter name="RDX">0</parameter><parameter name="SRC">MIR</parameter><parameter name="VEL">10.0</parameter><parameter name="SON">Off</parameter></Optic_Parameters_Rf><Acquisition_Parameters_Rf><parameter name="ADT">1</parameter><parameter name="AQM">DD</parameter><parameter name="CFE">0</parameter><parameter name="COR">0</parameter><parameter name="DEL">0</parameter><parameter name="DLY">0</parameter><parameter name="HFW">8000</parameter><parameter name="LFW">0</parameter><parameter name="NSR">32</parameter><parameter name="PLF">AB</parameter><parameter name="RES">6</parameter><parameter name="RGN">-1</parameter><parameter name="STR">0</parameter><parameter name="TCL">MakeCompatibleScalar (0, {WSV=1.000000, ARV=0});</parameter><parameter name="TDL">37</parameter><parameter name="RPO">0</parameter></Acquisition_Parameters_Rf><FT_-_Parameters_Rf><parameter name="APF">B3</parameter><parameter name="HFQ">500</parameter><parameter name="LFQ">4000</parameter><parameter name="NLI">0</parameter><parameter name="PHR">24</parameter><parameter name="PHZ">ML</parameter><parameter name="SPZ">NO</parameter><parameter name="ZFF">1</parameter></FT_-_Parameters_Rf><Optic_Parameters_><parameter name="APR">0</parameter><parameter name="APT">Open</parameter><parameter name="BMS">KBr</parameter><parameter name="CHN">Module port</parameter><parameter name="DTC">RT-DLaTGS_IR-Biotyper [Microplate reader]</parameter><parameter name="HPF">0</parameter><parameter name="LPF">10.0</parameter><parameter name="LPV">4000</parameter><parameter name="PGN">0</parameter><parameter name="RDX">0</parameter><parameter name="SRC">MIR</parameter><parameter name="VEL">10.0</parameter><parameter name="SON">Off</parameter></Optic_Parameters_><FT_-_Parameters_><parameter name="APF">B3</parameter><parameter name="HFQ">500</parameter><parameter name="LFQ">4000</parameter><parameter name="NLI">0</parameter><parameter name="PHR">24</parameter><parameter name="PHZ">ML</parameter><parameter name="SPZ">NO</parameter><parameter name="ZFF">1</parameter></FT_-_Parameters_><Acquisition_Parameters_><parameter name="ADT">1</parameter><parameter name="AQM">DD</parameter><parameter name="CFE">0</parameter><parameter name="COR">0</parameter><parameter name="DEL">0</parameter><parameter name="DLY">0</parameter><parameter name="HFW">8000</parameter><parameter name="LFW">0</parameter><parameter name="NSS">32</parameter><parameter name="PLF">AB</parameter><parameter name="RES">6</parameter><parameter name="SOT">0</parameter><parameter name="TCL">MakeCompatibleScalar (0, {WSV=1.000000, ARV=0});</parameter><parameter name="TDL">37</parameter><parameter name="SPO">0</parameter><parameter name="SGN">-1</parameter></Acquisition_Parameters_><Instrument_Parameters_Rf><parameter name="HFL">15800.168544</parameter><parameter name="LFL">0</parameter><parameter name="LWN">15800.168544</parameter><parameter name="ABP">32197</parameter><parameter name="SSP">1</parameter><parameter name="ARG">2</parameter><parameter name="ASG">2</parameter><parameter name="ASS">32</parameter><parameter name="GFW">16</parameter><parameter name="GBW">16</parameter><parameter name="BFW">0</parameter><parameter name="BBW">0</parameter><parameter name="PKA">7310</parameter><parameter name="PKL">4996</parameter><parameter name="PRA">7481</parameter><parameter name="PRL">5001</parameter><parameter name="P2A">1</parameter><parameter name="P2L">1</parameter><parameter name="P2R">1</parameter><parameter name="P2K">1</parameter><parameter name="DAQ">0</parameter><parameter name="AG2">1</parameter><parameter name="SSM">1</parameter><parameter name="RSN">25931</parameter><parameter name="CRR">0</parameter><parameter name="SRT">1654083733.093</parameter><parameter name="DUR">19.6389923095703</parameter><parameter name="TSC">29</parameter><parameter name="MVD">0.213460266590118</parameter><parameter name="AN1">0.225796220172936</parameter><parameter name="AN2">0</parameter><parameter name="VSN">2.485 Apr  4 2017</parameter><parameter name="SRN">0085</parameter><parameter name="CAM">0</parameter><parameter name="INS">IR-Biotyper</parameter><parameter name="FOC">69</parameter><parameter name="RDY">1</parameter><parameter name="ARS">32</parameter></Instrument_Parameters_Rf><Sample_Parameters_><parameter name="BLD"></parameter><parameter name="CNM">Admin</parameter><parameter name="CPY"></parameter><parameter name="DPM"></parameter><parameter name="EXP">IRBT_v3_32Scans.XPM</parameter><parameter name="LCT"></parameter><parameter name="SFM">Microplate, HTS-XT</parameter><parameter name="SNM">220601-1028(v.3)_RTF49M (D_11)_H6_a02b16fd-efea-4f3f-8121-90763df114cc.0</parameter><parameter name="XPP">C:\Users\Public\Documents\Bruker\OPUS_8.2.28\XPM</parameter><parameter name="IST">OK</parameter><parameter name="CPG">1252</parameter><parameter name="UID">5769b816-2d0c-4937-86f3-0785d7d5cf80</parameter></Sample_Parameters_><Instrument_Parameters_><parameter name="HFL">15800.168544</parameter><parameter name="LFL">0</parameter><parameter name="LWN">15800.168544</parameter><parameter name="ABP">32197</parameter><parameter name="SSP">1</parameter><parameter name="ASG">2</parameter><parameter name="ARG">2</parameter><parameter name="ASS">32</parameter><parameter name="GFW">16</parameter><parameter name="GBW">16</parameter><parameter name="BFW">0</parameter><parameter name="BBW">0</parameter><parameter name="PKA">6664</parameter><parameter name="PKL">4988</parameter><parameter name="PRA">6887</parameter><parameter name="PRL">4993</parameter><parameter name="P2A">1</parameter><parameter name="P2L">1</parameter><parameter name="P2R">1</parameter><parameter name="P2K">1</parameter><parameter name="DAQ">0</parameter><parameter name="AG2">1</parameter><parameter name="SSM">1</parameter><parameter name="RSN">13591</parameter><parameter name="CRR">0</parameter><parameter name="SRT">1654083758.947</parameter><parameter name="DUR">19.6389923095703</parameter><parameter name="TSC">29</parameter><parameter name="MVD">0.32139003276825</parameter><parameter name="AN1">0.225803946555816</parameter><parameter name="AN2">0</parameter><parameter name="VSN">2.485 Apr  4 2017</parameter><parameter name="SRN">0085</parameter><parameter name="CAM">0</parameter><parameter name="INS">IR-Biotyper</parameter><parameter name="FOC">69</parameter><parameter name="RDY">1</parameter></Instrument_Parameters_><History/></OPUSDataFile>
