<?xml version="1.0" encoding="UTF-8" ?>
<OPUSDataFile><AB><Ydata ylabel="Absorbance Units"><values byteorder="INTEL" format="FLOAT32" numvalues="3497"> -0.09156061 -0.09162421 -0.09167061 -0.09170109 -0.09169494 -0.09165114 -0.09158009 -0.09148395 -0.09139282 -0.09130795
 -0.09125295 -0.09122473 -0.09122586 -0.09125124 -0.09129032 -0.09133973 -0.09138951 -0.09143817 -0.09148061 -0.09151562
 -0.09154078 -0.09155546 -0.09155817 -0.09155104 -0.09153336 -0.09151214 -0.091488 -0.09147138 -0.09146404 -0.09147304
 -0.09149989 -0.09153817 -0.09158754 -0.09163 -0.09166505 -0.0916806 -0.09167888 -0.09166643 -0.09164652 -0.0916351
 -0.09163153 -0.09164327 -0.09166574 -0.09169491 -0.09172679 -0.09175497 -0.09177838 -0.0917941 -0.09180225 -0.09180228
 -0.0917943 -0.09177797 -0.09175473 -0.09172444 -0.09169047 -0.0916529 -0.0916174 -0.09158429 -0.09156072 -0.09154711
 -0.09154834 -0.09156409 -0.09159154 -0.09162944 -0.09166831 -0.09170827 -0.09174385 -0.09177779 -0.09181438 -0.09185455
 -0.09190343 -0.09195641 -0.09201175 -0.0920607 -0.09209642 -0.09211127 -0.0920985 -0.09205732 -0.09198331 -0.0918893
 -0.09177469 -0.0916661 -0.09156684 -0.09150209 -0.09147541 -0.09149253 -0.09155402 -0.09164498 -0.09176397 -0.09188855
 -0.09201705 -0.09212917 -0.0922223 -0.09227526 -0.09228829 -0.09224717 -0.09216395 -0.09204954 -0.09192184 -0.09180687
 -0.09171244 -0.09165643 -0.0916298 -0.09163495 -0.09165306 -0.09167659 -0.09169751 -0.09171019 -0.09172445 -0.09174097
 -0.09176926 -0.09181139 -0.09185825 -0.09190947 -0.09194526 -0.09196565 -0.0919662 -0.09195004 -0.09193496 -0.09192293
 -0.09193258 -0.09195941 -0.09200317 -0.09205562 -0.09210138 -0.09213906 -0.09215883 -0.09216837 -0.09217153 -0.09217152
 -0.09217161 -0.09217107 -0.09216741 -0.09217289 -0.09218773 -0.09223496 -0.09231974 -0.09244899 -0.09262772 -0.09280971
 -0.09299314 -0.09306034 -0.09301008 -0.09279399 -0.09243494 -0.0920615 -0.09168416 -0.09141422 -0.09123715 -0.09117372
 -0.09120446 -0.09131127 -0.09146515 -0.09162956 -0.09177133 -0.09184679 -0.09185375 -0.09176765 -0.09163866 -0.09147764
 -0.09133561 -0.09123355 -0.09116926 -0.09114832 -0.09114011 -0.09114111 -0.09114116 -0.0911392 -0.09115399 -0.09118643
 -0.09125511 -0.09135696 -0.09148384 -0.0916269 -0.09174856 -0.09184212 -0.09186777 -0.09183431 -0.09173396 -0.09159026
 -0.09142695 -0.09126528 -0.09113225 -0.09103341 -0.09098133 -0.09096758 -0.09099317 -0.09104404 -0.09111771 -0.09119934
 -0.09128729 -0.0913633 -0.09142626 -0.09145112 -0.09143624 -0.09136666 -0.09124374 -0.09108848 -0.09090532 -0.0907352
 -0.09057829 -0.09045791 -0.0903692 -0.09031174 -0.09028079 -0.09026831 -0.0902706 -0.09028136 -0.09029471 -0.09030423
 -0.09030463 -0.0902895 -0.09026271 -0.09022266 -0.09018061 -0.09013911 -0.09010663 -0.09008524 -0.09007793 -0.09008534
 -0.09010797 -0.090146 -0.09019262 -0.09024677 -0.0902894 -0.09031952 -0.09031886 -0.09029178 -0.09024388 -0.09018346
 -0.09013572 -0.09010299 -0.09010303 -0.09012908 -0.09018087 -0.09024896 -0.09032323 -0.09040429 -0.09048673 -0.09058409
 -0.09070182 -0.09084453 -0.09102 -0.09119977 -0.09138307 -0.09152531 -0.09162068 -0.09165145 -0.09161605 -0.09151042
 -0.09133489 -0.0910903 -0.0907836 -0.09046103 -0.0901337 -0.08987258 -0.08967839 -0.08959418 -0.08960273 -0.08970182
 -0.08985211 -0.0900036 -0.09013035 -0.09018326 -0.09018523 -0.09013369 -0.09006048 -0.0899806 -0.08990277 -0.0898338
 -0.08976717 -0.08970296 -0.08963367 -0.08955808 -0.08947591 -0.08938687 -0.08930012 -0.08921652 -0.08915255 -0.08910857
 -0.08909784 -0.08911494 -0.08914859 -0.08918616 -0.08918471 -0.08914598 -0.0890454 -0.08891084 -0.08876925 -0.08863688
 -0.0885439 -0.0884742 -0.08843055 -0.08838271 -0.0883164 -0.08822262 -0.08809131 -0.08794653 -0.08779016 -0.08764804
 -0.0875247 -0.08741973 -0.08733383 -0.08724464 -0.08715138 -0.08703795 -0.08690724 -0.08677283 -0.0866376 -0.08652177
 -0.08642302 -0.08634398 -0.08628526 -0.0862478 -0.08623626 -0.08625949 -0.08631296 -0.0864034 -0.08650076 -0.08659537
 -0.08664189 -0.08661797 -0.08650196 -0.08627772 -0.08596672 -0.08556498 -0.08513005 -0.08466662 -0.08423218 -0.0838314
 -0.08347878 -0.08317387 -0.08290219 -0.08266425 -0.08245756 -0.08228437 -0.08215614 -0.08206709 -0.08201057 -0.08197322
 -0.0819256 -0.08186368 -0.08176885 -0.08164611 -0.08149689 -0.08131545 -0.08109931 -0.08084207 -0.08053416 -0.08019951
 -0.07984049 -0.07948864 -0.07915146 -0.07883984 -0.07855679 -0.07829668 -0.07805941 -0.07783678 -0.07762889 -0.07743956
 -0.07726966 -0.07713109 -0.07701812 -0.07691904 -0.07681502 -0.07664546 -0.07640509 -0.07604 -0.07559631 -0.07510961
 -0.0746249 -0.07420455 -0.07384171 -0.07355544 -0.0733111 -0.0730993 -0.07289069 -0.07267206 -0.07244251 -0.07219867
 -0.07195265 -0.07170732 -0.07145124 -0.07118442 -0.07087329 -0.07051709 -0.07010331 -0.06963709 -0.06915191 -0.0686539
 -0.06818855 -0.06775452 -0.06737265 -0.0670361 -0.06674418 -0.06648444 -0.06624299 -0.06600318 -0.06574272 -0.06545984
 -0.06514162 -0.06481054 -0.06447417 -0.06414554 -0.06383616 -0.06351943 -0.06319354 -0.06282563 -0.06240753 -0.06196194
 -0.06148868 -0.0610497 -0.06064695 -0.06031094 -0.06003731 -0.05980759 -0.05961366 -0.05941042 -0.05919388 -0.05892527
 -0.05861586 -0.05826474 -0.0578945 -0.05753703 -0.05720099 -0.05691393 -0.05664973 -0.05640557 -0.05613879 -0.05582406
 -0.0554605 -0.05503456 -0.05459539 -0.05415022 -0.05373662 -0.05336279 -0.05302145 -0.05271348 -0.05240506 -0.05209484
 -0.05175961 -0.05140109 -0.0510231 -0.05062781 -0.05022733 -0.04982071 -0.04941017 -0.04899707 -0.04858278 -0.04817467
 -0.04778383 -0.04741349 -0.04707301 -0.04675509 -0.04645766 -0.046175 -0.04590269 -0.04564368 -0.04539882 -0.04516701
 -0.04495063 -0.04473218 -0.04451104 -0.04426121 -0.04398067 -0.04365382 -0.04328077 -0.04287091 -0.04242782 -0.04198452
 -0.04154443 -0.04114229 -0.04077456 -0.04045174 -0.04016258 -0.03989059 -0.03962632 -0.03934724 -0.03905728 -0.03874897
 -0.03843842 -0.03813474 -0.03784653 -0.03758473 -0.03733239 -0.03708952 -0.03682694 -0.03653672 -0.0362134 -0.0358526
 -0.03548212 -0.03510332 -0.03474775 -0.03441622 -0.03411431 -0.03384007 -0.0335788 -0.03332981 -0.03308211 -0.03283688
 -0.03259307 -0.03234911 -0.03210225 -0.03184878 -0.03158024 -0.03130089 -0.0310089 -0.0307179 -0.03043773 -0.03017237
 -0.02993044 -0.02969369 -0.0294589 -0.02920856 -0.0289354 -0.0286505 -0.02835321 -0.02806645 -0.0277926 -0.0275289
 -0.02727455 -0.02700268 -0.02671384 -0.0263986 -0.02606441 -0.02574049 -0.02543364 -0.02518305 -0.02498112 -0.02483629
 -0.02472621 -0.02462324 -0.02451154 -0.02436063 -0.02418086 -0.02396583 -0.02374236 -0.02352189 -0.02331952 -0.02314519
 -0.02299111 -0.02285936 -0.02272873 -0.02259739 -0.0224438 -0.02226585 -0.02205657 -0.02181625 -0.02156227 -0.02129615
 -0.02104088 -0.02079302 -0.02054916 -0.02030357 -0.0200336 -0.01974502 -0.01943471 -0.0191201 -0.01882583 -0.01856001
 -0.01834454 -0.01816496 -0.01802029 -0.01788972 -0.01776138 -0.01763063 -0.01749183 -0.01735385 -0.0172183 -0.01708781
 -0.01696358 -0.01683994 -0.01671644 -0.01659204 -0.01646678 -0.01634419 -0.01622327 -0.01609663 -0.01596189 -0.01580135
 -0.01561821 -0.01540956 -0.01518723 -0.01497443 -0.01477864 -0.01462582 -0.01450214 -0.01440843 -0.01431542 -0.01420134
 -0.01405457 -0.01385692 -0.01363564 -0.01339227 -0.01316592 -0.01296817 -0.0128043 -0.01267933 -0.01256409 -0.01245633
 -0.01234088 -0.01221785 -0.01211313 -0.01202851 -0.01199427 -0.01200493 -0.0120517 -0.01212389 -0.01218303 -0.01222568
 -0.01222327 -0.01218504 -0.0121105 -0.01201343 -0.01190827 -0.01180146 -0.0117047 -0.01160969 -0.01151814 -0.01141133
 -0.01128265 -0.01112377 -0.01092774 -0.0107165 -0.01048935 -0.01029039 -0.01012321 -0.01001772 -0.009974639 -0.00998083
 -0.01003254 -0.01008737 -0.01014466 -0.01017681 -0.01019061 -0.01019372 -0.01019004 -0.01019528 -0.01020025 -0.01019891
 -0.01018101 -0.01012898 -0.01005288 -0.009949927 -0.009845258 -0.009752046 -0.009679385 -0.009637685 -0.009606537 -0.009584839
 -0.009546035 -0.009484449 -0.009399874 -0.009290423 -0.009187254 -0.009092067 -0.009042003 -0.009036645 -0.009088264 -0.009190697
 -0.009321563 -0.009471669 -0.009600616 -0.009703381 -0.009747089 -0.009738578 -0.009669012 -0.009560268 -0.009428116 -0.009299229
 -0.009199301 -0.009136097 -0.00912574 -0.009144498 -0.00919122 -0.009230809 -0.009254473 -0.00924545 -0.009199143 -0.009118031
 -0.009002069 -0.008851443 -0.008666132 -0.008442048 -0.008181411 -0.0079019 -0.007611914 -0.007363599 -0.007163559 -0.007065715
 -0.007058392 -0.007150626 -0.007308987 -0.007490502 -0.007662866 -0.007771207 -0.007816629 -0.007773549 -0.007684196 -0.007556859
 -0.007447091 -0.007375448 -0.007374835 -0.007460348 -0.007622248 -0.00786505 -0.008142382 -0.008451622 -0.008741191 -0.009008694
 -0.009232246 -0.009413647 -0.009564316 -0.009686166 -0.009796108 -0.009891572 -0.009972787 -0.01003724 -0.01007596 -0.01009725
 -0.0101042 -0.01012022 -0.01016858 -0.01027272 -0.01046141 -0.0107303 -0.01109301 -0.01150762 -0.01196744 -0.01242025
 -0.01285198 -0.01323741 -0.01356897 -0.01385286 -0.01408835 -0.01429282 -0.01446719 -0.01462957 -0.01478089 -0.01493846
 -0.01510112 -0.01527321 -0.01545027 -0.01561822 -0.01577765 -0.01591864 -0.01605458 -0.01620033 -0.01636993 -0.01658894
 -0.0168486 -0.01715803 -0.01748119 -0.0178057 -0.01809333 -0.01832576 -0.01849315 -0.01858477 -0.01863069 -0.01863022
 -0.01863896 -0.01866133 -0.01874349 -0.01888764 -0.01909947 -0.01937556 -0.01968062 -0.02000982 -0.02031819 -0.02060595
 -0.02084857 -0.02105249 -0.02121888 -0.02135635 -0.02147793 -0.02159126 -0.0217091 -0.02183626 -0.02198098 -0.02214243
 -0.02232434 -0.02251668 -0.02271839 -0.02291431 -0.02310054 -0.02326848 -0.02341502 -0.02354697 -0.0236641 -0.02378161
 -0.02390024 -0.02403032 -0.02417156 -0.02432409 -0.0244869 -0.0246546 -0.0248266 -0.02499806 -0.02516908 -0.02533729
 -0.02550372 -0.02566849 -0.0258337 -0.02600123 -0.02617404 -0.0263553 -0.02654549 -0.0267472 -0.02695422 -0.02716593
 -0.02737285 -0.02757169 -0.02776213 -0.0279426 -0.02812356 -0.02830598 -0.0284952 -0.02869145 -0.02888547 -0.02907695
 -0.0292581 -0.02943139 -0.02960679 -0.02978709 -0.02998917 -0.03020911 -0.03044861 -0.03069731 -0.03093942 -0.03116831
 -0.03136853 -0.0315443 -0.03169289 -0.03182278 -0.03193948 -0.03204166 -0.03213124 -0.03219992 -0.03224347 -0.03227075
 -0.03227896 -0.03230568 -0.03235355 -0.03245988 -0.03262665 -0.03285183 -0.03313182 -0.03342259 -0.03371929 -0.03397007
 -0.03417718 -0.03431683 -0.03440301 -0.03445239 -0.03448559 -0.03454401 -0.03463667 -0.03479605 -0.03500225 -0.03525596
 -0.03552035 -0.0357741 -0.03600185 -0.03618827 -0.03635249 -0.03649651 -0.03663646 -0.03677883 -0.03690223 -0.03700643
 -0.03705413 -0.03704337 -0.03697391 -0.03685 -0.03672471 -0.0366044 -0.03655561 -0.03657533 -0.03669293 -0.03689148
 -0.03714901 -0.03744475 -0.03773357 -0.0380091 -0.03824292 -0.03844839 -0.03862613 -0.03879071 -0.03895358 -0.03910973
 -0.03926133 -0.03939556 -0.039507 -0.0396026 -0.03968107 -0.03976331 -0.03985231 -0.03994644 -0.04004575 -0.04012018
 -0.04016894 -0.04017207 -0.04013411 -0.04007108 -0.03998917 -0.03991988 -0.03986353 -0.0398375 -0.03983704 -0.0398622
 -0.03990831 -0.03996906 -0.04004467 -0.04013109 -0.04023688 -0.04036434 -0.04052464 -0.04072513 -0.04096032 -0.04123482
 -0.04151633 -0.04180215 -0.04205395 -0.04226662 -0.04243067 -0.04254526 -0.04264026 -0.0427183 -0.04282321 -0.04295421
 -0.04313163 -0.04334683 -0.04358099 -0.04382377 -0.04403888 -0.04422702 -0.04436934 -0.04448056 -0.04456924 -0.04465055
 -0.04474165 -0.04484322 -0.04496318 -0.04508736 -0.04521376 -0.04532456 -0.045414 -0.045476 -0.04550591 -0.04552357
 -0.0455288 -0.04556112 -0.0456228 -0.04573759 -0.04590357 -0.0460989 -0.04631832 -0.04651605 -0.0466948 -0.04683663
 -0.046955 -0.04707431 -0.04720259 -0.04736909 -0.04756236 -0.04778373 -0.04801193 -0.04822971 -0.04842512 -0.04858569
 -0.04871161 -0.04880057 -0.0488532 -0.04886923 -0.04884924 -0.04879171 -0.04870892 -0.0486005 -0.04849549 -0.04839546
 -0.0483355 -0.04831661 -0.04836107 -0.04846571 -0.0486245 -0.04882891 -0.04904567 -0.04926619 -0.04945177 -0.04960168
 -0.04969548 -0.04974085 -0.04973859 -0.0496966 -0.04962163 -0.04951835 -0.04938975 -0.04924324 -0.0490801 -0.04891474
 -0.04875044 -0.04860039 -0.04846848 -0.04835377 -0.04825799 -0.04816039 -0.04806 -0.04792382 -0.04775056 -0.04751435
 -0.0472178 -0.04686227 -0.04645561 -0.046027 -0.04558407 -0.04516092 -0.04475909 -0.04439708 -0.04407176 -0.04378666
 -0.04353801 -0.04332545 -0.04314084 -0.04298274 -0.04283334 -0.04268669 -0.04252556 -0.04234182 -0.04213948 -0.04191473
 -0.04169776 -0.04149035 -0.04132763 -0.04121192 -0.04115619 -0.04115926 -0.04120442 -0.04128857 -0.04138305 -0.04148748
 -0.0415849 -0.04167761 -0.04176437 -0.0418436 -0.04191385 -0.04196826 -0.04199684 -0.04199855 -0.04196568 -0.04191091
 -0.04183813 -0.04176155 -0.04168979 -0.04162135 -0.04155913 -0.04149054 -0.04141348 -0.04132159 -0.04121321 -0.04109416
 -0.04096453 -0.04083914 -0.04071934 -0.04062829 -0.0405672 -0.04055802 -0.04059643 -0.04068087 -0.04079928 -0.04092073
 -0.04103584 -0.04111019 -0.04115146 -0.04114882 -0.04113162 -0.04111383 -0.04114022 -0.04123592 -0.04144496 -0.04179325
 -0.0422926 -0.04296036 -0.04374769 -0.04465648 -0.04559107 -0.04654288 -0.04742749 -0.04823871 -0.04895067 -0.04956465
 -0.0501034 -0.05056902 -0.05098706 -0.05135581 -0.05168049 -0.05196165 -0.05220006 -0.0524048 -0.05259082 -0.05276892
 -0.0529607 -0.05316477 -0.05339136 -0.05362278 -0.05385384 -0.05406274 -0.05423888 -0.05437227 -0.05445598 -0.05449808
 -0.05449744 -0.05447287 -0.05442642 -0.05437001 -0.05430473 -0.05422515 -0.05413105 -0.05401592 -0.05388325 -0.05375219
 -0.05363043 -0.05356014 -0.05354335 -0.05361075 -0.05375067 -0.05395987 -0.05421813 -0.05450042 -0.05478905 -0.05506031
 -0.05530583 -0.05551259 -0.05568451 -0.05581832 -0.05592732 -0.05601456 -0.05608946 -0.05615552 -0.05620768 -0.05624579
 -0.05626298 -0.05625823 -0.05625267 -0.05624941 -0.05630635 -0.05642725 -0.05667091 -0.05702952 -0.05750985 -0.05808753
 -0.05870493 -0.05933737 -0.05990928 -0.06042144 -0.06083747 -0.06118722 -0.0614824 -0.06175364 -0.06202616 -0.06230403
 -0.06259803 -0.06289135 -0.06318131 -0.06345487 -0.06370828 -0.06394108 -0.06415255 -0.06434657 -0.06452336 -0.06468478
 -0.06483093 -0.06496326 -0.06508215 -0.06519082 -0.06528986 -0.06538362 -0.06547184 -0.06555682 -0.06563617 -0.0657068
 -0.06576625 -0.06580851 -0.0658372 -0.06585062 -0.06586144 -0.0658759 -0.06590616 -0.06596155 -0.06603649 -0.06613492
 -0.06623074 -0.0663202 -0.06638093 -0.06640795 -0.06641085 -0.06638939 -0.06637739 -0.06637582 -0.06640258 -0.06645426
 -0.06651331 -0.06657694 -0.06662113 -0.06665255 -0.06667557 -0.06670045 -0.06675123 -0.06682578 -0.06693504 -0.06706283
 -0.06719913 -0.06732973 -0.0674419 -0.06753255 -0.06759702 -0.06763712 -0.06765168 -0.06764666 -0.06762097 -0.06759284
 -0.06756338 -0.0675561 -0.06757296 -0.06761955 -0.0676951 -0.06778053 -0.06787405 -0.06795232 -0.06801679 -0.06806058
 -0.06808744 -0.06810436 -0.06811316 -0.06812081 -0.06812677 -0.06813283 -0.06813904 -0.06814586 -0.06815388 -0.0681645
 -0.0681747 -0.06818411 -0.06818782 -0.06818312 -0.06817293 -0.06815571 -0.06814609 -0.06814552 -0.06816599 -0.06820879
 -0.06826851 -0.06834438 -0.06841867 -0.06849087 -0.06854806 -0.06859184 -0.06862166 -0.06864032 -0.06865536 -0.06866843
 -0.06868733 -0.06870931 -0.06873546 -0.06875844 -0.06877119 -0.06877109 -0.06875131 -0.06872278 -0.0686866 -0.06865965
 -0.06864801 -0.06865729 -0.06869077 -0.06874157 -0.06880952 -0.06888633 -0.06897146 -0.06905863 -0.06914741 -0.06922854
 -0.06930156 -0.06935748 -0.06939761 -0.06942202 -0.06943389 -0.06944216 -0.06944886 -0.0694628 -0.06948259 -0.06951064
 -0.06954323 -0.06957778 -0.06961153 -0.06964162 -0.06966804 -0.06968978 -0.0697087 -0.0697252 -0.06974029 -0.06975418
 -0.06976759 -0.06978051 -0.06979465 -0.06981013 -0.06982847 -0.06984955 -0.06987074 -0.06989133 -0.06990454 -0.06990983
 -0.06990045 -0.06987774 -0.06984068 -0.06979366 -0.06974392 -0.06969683 -0.06966302 -0.06964419 -0.06964682 -0.06966691
 -0.06970431 -0.06975347 -0.06981198 -0.06987614 -0.06994484 -0.07001398 -0.07008339 -0.07014516 -0.07019839 -0.07023603
 -0.07025721 -0.07026529 -0.07026077 -0.07025749 -0.07025602 -0.07026813 -0.07029197 -0.07032602 -0.07036687 -0.0704038
 -0.07043512 -0.07045185 -0.0704556 -0.07044416 -0.07042161 -0.07038976 -0.07035582 -0.07032411 -0.07030245 -0.07029647
 -0.07030585 -0.07033394 -0.0703674 -0.07040486 -0.07043125 -0.07044365 -0.07044128 -0.07042342 -0.07040399 -0.0703837
 -0.07037636 -0.07038136 -0.07039984 -0.07042967 -0.0704615 -0.0704944 -0.07052004 -0.07054057 -0.07055604 -0.07056905
 -0.07058423 -0.07060029 -0.07061856 -0.07063458 -0.07064505 -0.07064971 -0.07064616 -0.07064113 -0.07063619 -0.07063643
 -0.07064427 -0.07065497 -0.07066859 -0.07067697 -0.07067925 -0.07067595 -0.0706673 -0.07066166 -0.07065909 -0.07066426
 -0.07067578 -0.07068951 -0.07070476 -0.0707167 -0.07072695 -0.07073641 -0.07074658 -0.07076097 -0.07077738 -0.07079578
 -0.07081146 -0.07082094 -0.07082227 -0.07081246 -0.07079611 -0.07077319 -0.07075164 -0.07073334 -0.07072193 -0.0707187
 -0.07071967 -0.07072473 -0.07072788 -0.07072897 -0.07072747 -0.07072375 -0.07072091 -0.07071866 -0.07071743 -0.07071617
 -0.07071167 -0.07070389 -0.07069083 -0.0706738 -0.07065359 -0.07063189 -0.07061048 -0.07059096 -0.07057501 -0.07056315
 -0.07055655 -0.07055317 -0.07055304 -0.07055229 -0.07054976 -0.07054496 -0.07053706 -0.07053196 -0.07052995 -0.07053818
 -0.07055682 -0.07058628 -0.07062561 -0.07066666 -0.07070811 -0.07073912 -0.07075956 -0.0707628 -0.0707508 -0.07072368
 -0.07068539 -0.07064109 -0.070595 -0.07055353 -0.0705176 -0.07049058 -0.07046919 -0.07045294 -0.07043823 -0.07042335
 -0.07040848 -0.07039318 -0.07037931 -0.07036725 -0.07035644 -0.07034694 -0.07033639 -0.07032469 -0.07031103 -0.0702956
 -0.07027972 -0.0702638 -0.07025036 -0.07024007 -0.07023615 -0.07023887 -0.07025098 -0.07027055 -0.0702968 -0.07032564
 -0.07035314 -0.07037506 -0.07038709 -0.07038763 -0.07037401 -0.07034941 -0.07031294 -0.07027385 -0.07023329 -0.07020212
 -0.07018226 -0.07017808 -0.07019049 -0.07021286 -0.07024474 -0.07027382 -0.07029964 -0.07031288 -0.07031427 -0.07030196
 -0.07027794 -0.07024682 -0.07021111 -0.07017848 -0.07014976 -0.07013052 -0.07011741 -0.07010999 -0.07010243 -0.0700899
 -0.07007095 -0.07004168 -0.07001026 -0.06997775 -0.06995437 -0.06994359 -0.0699454 -0.06996144 -0.06997922 -0.06999797
 -0.07000558 -0.07000162 -0.06998555 -0.06995812 -0.06992696 -0.06989231 -0.06985943 -0.06982763 -0.06979697 -0.06976786
 -0.0697405 -0.06971715 -0.06970154 -0.06969406 -0.06969793 -0.069708 -0.06972249 -0.06973436 -0.06973919 -0.06973518
 -0.06971987 -0.06969783 -0.06966934 -0.06963981 -0.06961004 -0.06958334 -0.06956005 -0.06954268 -0.06953131 -0.06952655
 -0.06952795 -0.06953115 -0.0695354 -0.06953421 -0.06952778 -0.06951282 -0.06949105 -0.06946412 -0.06943447 -0.06940645
 -0.06938154 -0.06936359 -0.06935073 -0.06934388 -0.06933747 -0.06932908 -0.06931452 -0.06929093 -0.06926081 -0.06922357
 -0.06918585 -0.06914874 -0.06911504 -0.06908531 -0.06905663 -0.06902887 -0.06900018 -0.06897104 -0.06894615 -0.06892601
 -0.06891675 -0.0689166 -0.06892388 -0.06893481 -0.06894003 -0.06893811 -0.06892173 -0.06889438 -0.06885657 -0.0688129
 -0.06876715 -0.068721 -0.06867614 -0.06863339 -0.06859294 -0.06855706 -0.06852651 -0.06850147 -0.06848255 -0.06846502
 -0.06844862 -0.06842837 -0.06840407 -0.06837675 -0.06834691 -0.0683205 -0.06829802 -0.06828512 -0.06828183 -0.06829102
 -0.06831314 -0.06835029 -0.06840365 -0.06847616 -0.06856798 -0.06868088 -0.06881312 -0.06896359 -0.06913232 -0.06931751
 -0.06952547 -0.06975752 -0.07002028 -0.07031652 -0.07064403 -0.07100353 -0.07138693 -0.07179374 -0.07221721 -0.07265674
 -0.07308765 -0.07350603 -0.07385906 -0.07414457 -0.07432207 -0.07439554 -0.07436037 -0.07421315 -0.07393954 -0.07354745
 -0.07302754 -0.07243158 -0.0718073 -0.07120545 -0.07068276 -0.07025105 -0.06993227 -0.06971897 -0.06961416 -0.0696051
 -0.06969365 -0.06984609 -0.07006215 -0.07027939 -0.07049216 -0.07065825 -0.07077554 -0.0708496 -0.07088151 -0.07088506
 -0.07085988 -0.07080999 -0.07073553 -0.07063877 -0.07052102 -0.07038584 -0.07023542 -0.07007441 -0.06990492 -0.06973203
 -0.06955335 -0.06936988 -0.06917524 -0.068965 -0.06874032 -0.06849733 -0.06825341 -0.06801013 -0.06779122 -0.06760145
 -0.06744827 -0.06733414 -0.06724 -0.06716484 -0.06707843 -0.06698066 -0.06685996 -0.06672016 -0.06657659 -0.0664329
 -0.06631058 -0.06620842 -0.06613553 -0.06608619 -0.0660566 -0.06603856 -0.06602257 -0.06600036 -0.06596218 -0.06590533
 -0.06582375 -0.06572555 -0.06561051 -0.06549348 -0.0653777 -0.06527443 -0.06518646 -0.06511512 -0.06506117 -0.0650188
 -0.0649877 -0.06496175 -0.06494086 -0.06492258 -0.0649069 -0.0648929 -0.0648798 -0.06486446 -0.06484617 -0.06482123
 -0.06479082 -0.06475498 -0.06471545 -0.06467475 -0.0646323 -0.06458868 -0.06454246 -0.06449237 -0.06444012 -0.06438553
 -0.06433228 -0.06428142 -0.0642341 -0.0641909 -0.06415005 -0.06411146 -0.06407331 -0.06403551 -0.06399728 -0.06395864
 -0.06391971 -0.06388056 -0.06384198 -0.0638037 -0.06376533 -0.0637262 -0.06368425 -0.06363986 -0.06359214 -0.06354335
 -0.06349573 -0.06345084 -0.06341141 -0.06337542 -0.06334304 -0.06331041 -0.06327564 -0.06323869 -0.0631984 -0.06316009
 -0.06312447 -0.0630955 -0.06307408 -0.06305598 -0.06304101 -0.06301986 -0.06299238 -0.06295425 -0.06290649 -0.062853
 -0.06279463 -0.06273649 -0.06267855 -0.06262304 -0.06257004 -0.06252042 -0.06247485 -0.0624347 -0.06239964 -0.06237014
 -0.06234494 -0.06232353 -0.06230479 -0.06228835 -0.06227291 -0.06225849 -0.062242 -0.06222301 -0.06219895 -0.06216936
 -0.06213481 -0.06209532 -0.06205448 -0.06201245 -0.06197213 -0.06193312 -0.0618945 -0.06185551 -0.0618125 -0.06176598
 -0.06171443 -0.06166102 -0.06160973 -0.0615646 -0.06153271 -0.06151376 -0.06151171 -0.06151894 -0.06153347 -0.06154536
 -0.06154978 -0.06154395 -0.06152509 -0.06149969 -0.0614683 -0.06143687 -0.06140655 -0.06137367 -0.06133809 -0.06129299
 -0.06123876 -0.0611787 -0.0611145 -0.06105884 -0.06101168 -0.06098074 -0.06096242 -0.06095216 -0.06094615 -0.06093539
 -0.0609195 -0.06089407 -0.0608614 -0.06082183 -0.06077773 -0.06073031 -0.06068175 -0.06063279 -0.06058616 -0.06054256
 -0.06050438 -0.06047233 -0.06044637 -0.06042683 -0.06041014 -0.06039612 -0.0603787 -0.06035766 -0.06032832 -0.06029135
 -0.06024794 -0.06019996 -0.06015506 -0.06011453 -0.0600862 -0.06006815 -0.06006165 -0.06006186 -0.06006361 -0.06006338
 -0.06005569 -0.06004199 -0.06002102 -0.05999691 -0.05997135 -0.05994545 -0.05992028 -0.05989316 -0.05986357 -0.05983081
 -0.05979442 -0.05975888 -0.05972443 -0.05969497 -0.05967024 -0.05964709 -0.05962478 -0.05959646 -0.05956288 -0.0595229
 -0.05947843 -0.05943409 -0.05939016 -0.0593497 -0.0593109 -0.0592724 -0.05923402 -0.05919439 -0.05915618 -0.05912036
 -0.0590895 -0.05906503 -0.0590473 -0.05903719 -0.05903179 -0.05903139 -0.05902877 -0.05902347 -0.05900679 -0.05897813
 -0.05893531 -0.05887883 -0.05881622 -0.0587486 -0.05868707 -0.0586319 -0.05859028 -0.05856103 -0.05854558 -0.05854098
 -0.05854364 -0.0585491 -0.05855079 -0.05854539 -0.05852705 -0.0584976 -0.05845521 -0.05840682 -0.05835416 -0.05830454
 -0.05826065 -0.05822449 -0.05819758 -0.05817457 -0.05815527 -0.05813226 -0.05810501 -0.05807199 -0.0580335 -0.05799479
 -0.05795599 -0.05792082 -0.05788806 -0.05785454 -0.05781972 -0.05777954 -0.05773674 -0.05769384 -0.05765444 -0.05762507
 -0.05760425 -0.05759456 -0.05758859 -0.05758299 -0.05757165 -0.05755024 -0.05752074 -0.05748186 -0.05744157 -0.05740102
 -0.05736614 -0.057338 -0.05731618 -0.05730081 -0.05728683 -0.05727398 -0.05725711 -0.05723639 -0.05721023 -0.05717944
 -0.05714628 -0.05711166 -0.05707894 -0.05704866 -0.05702349 -0.05700289 -0.056988 -0.05697581 -0.05696489 -0.0569505
 -0.05692898 -0.05689939 -0.05685918 -0.05681441 -0.05676581 -0.05672043 -0.05668029 -0.05664483 -0.05661469 -0.05658276
 -0.05654863 -0.05650764 -0.05646 -0.05640901 -0.05635545 -0.0563069 -0.05626312 -0.05622812 -0.05619926 -0.05617194
 -0.05614338 -0.05610528 -0.0560595 -0.05600341 -0.05594406 -0.05588656 -0.05583615 -0.05579893 -0.05577152 -0.05575524
 -0.05574116 -0.05572714 -0.05570675 -0.05567778 -0.05564193 -0.05559876 -0.05555515 -0.05551157 -0.05547089 -0.05543291
 -0.05539314 -0.05535126 -0.05530247 -0.0552478 -0.0551887 -0.05512654 -0.05506594 -0.05500674 -0.05495071 -0.05489745
 -0.05484682 -0.05479959 -0.05475671 -0.05471764 -0.05468335 -0.0546495 -0.05461491 -0.05457491 -0.05452725 -0.05447323
 -0.05441188 -0.05435106 -0.05429143 -0.05423985 -0.05419692 -0.05416169 -0.05413385 -0.05410711 -0.05408135 -0.05405274
 -0.05402178 -0.05398893 -0.0539537 -0.05391511 -0.05387231 -0.05382251 -0.05376743 -0.05370753 -0.05364617 -0.05358724
 -0.05353031 -0.05347727 -0.05342337 -0.05336671 -0.05330543 -0.05323765 -0.053168 -0.05309669 -0.05303001 -0.05296889
 -0.05291555 -0.05287029 -0.05283085 -0.05279706 -0.05276532 -0.05273567 -0.05270661 -0.05267835 -0.05265124 -0.05262462
 -0.05259701 -0.05256738 -0.0525327 -0.05249352 -0.05244894 -0.05240077 -0.05235069 -0.05229888 -0.05224629 -0.0521914
 -0.05213359 -0.05207247 -0.05200746 -0.05194033 -0.05187127 -0.05180204 -0.05173294 -0.05166439 -0.05159644 -0.05152924
 -0.05146281 -0.05139768 -0.05133383 -0.05127152 -0.05121023 -0.05114787 -0.05108402 -0.05101576 -0.05094447 -0.05087088
 -0.0507976 -0.05072892 -0.05066481 -0.05060767 -0.05055375 -0.05050135 -0.05044784 -0.05039097 -0.05033258 -0.05027241
 -0.05021415 -0.0501586 -0.05010733 -0.05006089 -0.05001681 -0.04997502 -0.04992992 -0.04988134 -0.04982638 -0.04976587
 -0.04970519 -0.04964531 -0.04959417 -0.0495501 -0.04951359 -0.04948022 -0.04944139 -0.04939548 -0.04933535 -0.04926525
 -0.04918623 -0.04910314 -0.04901979 -0.04893742 -0.04885773 -0.0487796 -0.04870304 -0.04862703 -0.04855145 -0.04847505
 -0.04839761 -0.04831859 -0.04823786 -0.04815814 -0.04807967 -0.04800771 -0.04794202 -0.04788395 -0.04783136 -0.04777553
 -0.04771452 -0.0476366 -0.04754552 -0.04744187 -0.04733248 -0.04722783 -0.04712906 -0.04704177 -0.04696247 -0.04689037
 -0.04682314 -0.0467595 -0.04669847 -0.04664019 -0.04658068 -0.04651971 -0.04645086 -0.0463732 -0.04628382 -0.04618228
 -0.04607247 -0.04595475 -0.0458371 -0.04571981 -0.04560875 -0.04550323 -0.04540322 -0.04530805 -0.04521542 -0.04512596
 -0.04504028 -0.04495785 -0.04487933 -0.04480064 -0.04471799 -0.04462919 -0.04452995 -0.04442612 -0.04431903 -0.0442143
 -0.04411525 -0.04401802 -0.04392287 -0.04382255 -0.04371551 -0.04360389 -0.04348748 -0.043376 -0.04326971 -0.04317204
 -0.04308177 -0.04299035 -0.04289611 -0.0427861 -0.04266182 -0.04252014 -0.04236517 -0.04220414 -0.04203834 -0.04187294
 -0.04170684 -0.04153986 -0.04137397 -0.04120962 -0.04105114 -0.04090107 -0.0407601 -0.04062953 -0.04050626 -0.04039014
 -0.04027731 -0.04016801 -0.04005228 -0.03992964 -0.03978488 -0.03961766 -0.03942638 -0.0392128 -0.03899175 -0.03876424
 -0.03854275 -0.03832658 -0.03812034 -0.03792224 -0.03773173 -0.03754533 -0.037358 -0.03716749 -0.03696866 -0.03676452
 -0.03655586 -0.03634412 -0.03613256 -0.03591168 -0.03567979 -0.03542658 -0.0351475 -0.03485074 -0.03453611 -0.03421773
 -0.03389702 -0.03357326 -0.03324638 -0.03291269 -0.03257291 -0.03223293 -0.03189237 -0.03155446 -0.0312145 -0.03086
 -0.03048787 -0.03008245 -0.02965235 -0.02920142 -0.02874216 -0.02829037 -0.02784642 -0.02741623 -0.02699415 -0.02657819
 -0.0261674 -0.02576119 -0.02535931 -0.02496405 -0.02455999 -0.02414801 -0.02368992 -0.02318242 -0.02260656 -0.02196315
 -0.02130325 -0.0206295 -0.0199906 -0.0193783 -0.01877782 -0.018182 -0.01755993 -0.01691405 -0.01623518 -0.01552644
 -0.01479335 -0.0140236 -0.01321355 -0.01233289 -0.01135892 -0.01027617 -0.009057906 -0.007756316 -0.006371933 -0.004997685
 -0.003655818 -0.002388692 -0.001208014 -0.0001025305 0.0009266891 0.001912474 0.002857341 0.003821362 0.004810456 0.005912664
 0.007117641 0.008437171 0.009826506 0.01114348 0.01238402 0.01345599 0.01441406 0.01530067 0.01615233 0.01702739
 0.01792258 0.01885441 0.01980794 0.02077798 0.02176208 0.02276174 0.0237601 0.02475628 0.02572197 0.02665108
 0.02754744 0.02841081 0.02925025 0.03006521 0.03081954 0.03151111 0.03210091 0.03259651 0.0330135 0.03336281
 0.03369038 0.03399171 0.0342833 0.03454741 0.03475765 0.03492363 0.03504017 0.03513428 0.03522817 0.03532169
 0.03542563 0.03551385 0.03557998 0.03560567 0.03558432 0.03551608 0.03539969 0.03524072 0.03503915 0.03480644
 0.03454347 0.03427384 0.0339984 0.03373516 0.03348244 0.03324056 0.0330088 0.03278286 0.03256805 0.03237149
 0.03220283 0.03208024 0.03200679 0.03199273 0.03203648 0.03213765 0.03230244 0.03253556 0.03283386 0.03320344
 0.03361039 0.03404851 0.03449246 0.03493465 0.03539164 0.0358637 0.03637502 0.03692639 0.03751553 0.03814115
 0.03878842 0.03945825 0.04014828 0.04085927 0.04159361 0.04234842 0.04311829 0.04390195 0.04469403 0.04549775
 0.04631446 0.04714691 0.04799828 0.04886717 0.04975449 0.05065558 0.05156945 0.05249119 0.05341997 0.05435067
 0.05528353 0.05620567 0.05711636 0.05799899 0.05885296 0.05968079 0.06048363 0.06127954 0.06206184 0.06280914
 0.06350645 0.0640876 0.06455907 0.06489725 0.06512746 0.06528077 0.06536645 0.06540884 0.0653998 0.06534079
 0.0652241 0.06505138 0.06479769 0.06446557 0.06398609 0.06334119 0.06249917 0.06143652 0.06029432 0.05908265
 0.05790894 0.05677698 0.05562847 0.05445977 0.05321077 0.05188771 0.05049309 0.04903397 0.04754192 0.04600253
 0.04441171 0.04272379 0.04085377 0.03881148 0.03652382 0.03417533 0.03188314 0.02975739 0.02792473 0.02626313
 0.02475893 0.02330212 0.02185371 0.02041952 0.01899157 0.01761974 0.01630923 0.01506719 0.0138938 0.01276124
 0.0116694 0.01060705 0.009577885 0.008597263 0.007665365 0.006793316 0.005973445 0.005195066 0.004449642 0.003719033
 0.002999831 0.002282497 0.001563959 0.000842452 0.0001049203 -0.0006565104 -0.001447516 -0.002285846 -0.003105574 -0.003900762
 -0.004582966 -0.005128182 -0.005571332 -0.005910631 -0.006228244 -0.006528062 -0.006844896 -0.007176323 -0.007505793 -0.007830122
 -0.008121821 -0.008384636 -0.008617651 -0.008823596 -0.0090114 -0.009173564 -0.009303194 -0.009391459 -0.009423712 -0.00940294
 -0.009325562 -0.009199793 -0.009029388 -0.008818182 -0.008568574 -0.008281321 -0.007959055 -0.007590361 -0.007177391 -0.00668059
 -0.00609654 -0.005392922 -0.004568629 -0.00368893 -0.002761625 -0.001903783 -0.001110677 -0.0004168884 0.0001904219 0.0007390908
 0.001230896 0.001682648 0.002093408 0.002461641 0.002807081 0.003143086 0.003508012 0.003942187 0.004443572 0.005038077
 0.005650849 0.006257697 0.006820972 0.007318784 0.007786342 0.008224914 0.008673583 0.009137165 0.009622998 0.01013154
 0.01064391 0.01115935 0.01166183 0.01215431 0.01264378 0.01313671 0.01365968 0.01421497 0.01482499 0.01547842
 0.01616757 0.01688132 0.0175999 0.0183314 0.01907542 0.0198411 0.02063784 0.02145273 0.02228559 0.02311463
 0.02393257 0.02473764 0.02552705 0.02631596 0.02710662 0.02789469 0.02867988 0.02941521 0.03009761 0.03067465
 0.0311477 0.03149879 0.03172934 0.0318366 0.03181628 0.03165705 0.03135518 0.0308971 0.03028873 0.02952851
 0.02863155 0.02760725 0.02647159 0.02523505 0.02390776 0.02249383 0.02100544 0.01944025 0.01783972 0.01620481
 0.01460762 0.01305554 0.01159083 0.01021607 0.008912879 0.007679445 0.006485302 0.00533365 0.004227444 0.003172479
 0.002193649 0.001287458 0.0004610295 -0.0002984798 -0.001008382 -0.001679034 -0.002329609 -0.002962466 -0.003585911 -0.004197909
 -0.004799577 -0.005388239 -0.005963546 -0.006521779 -0.007062008 -0.00758145 -0.008078856 -0.008558336 -0.009020042 -0.009469814
 -0.009907993 -0.01032685 -0.01072495 -0.0110804 -0.01139303 -0.01164959 -0.01185353 -0.0120106 -0.01212294 -0.01219899
 -0.01223779 -0.0122407 -0.01220864 -0.01214108 -0.01204518 -0.01192364 -0.0117908 -0.01165243 -0.01152791 -0.01142507
 -0.01135821 -0.01133388 -0.01135046 -0.01141005 -0.01149806 -0.01161347 -0.01174253 -0.01188437 -0.01203356 -0.01218985
 -0.01234954 -0.01251125 -0.01266497 -0.01280861 -0.01292875 -0.01302557 -0.0130917 -0.01313094 -0.013146 -0.01314091
 -0.01312206 -0.01308968 -0.0130462 -0.01299035 -0.01292131 -0.01284089 -0.01274847 -0.01265037 -0.01254706 -0.01244833
 -0.01235496 -0.0122805 -0.01222634 -0.01220249 -0.01220967 -0.01224499 -0.01230744 -0.01238213 -0.01246812 -0.01255168
 -0.01263381 -0.01271052 -0.01278405 -0.01285791 -0.0129334 -0.0130146 -0.01310091 -0.0131936 -0.01329065 -0.01339067
 -0.01349285 -0.013596 -0.01370127 -0.01380923 -0.01391908 -0.01403157 -0.01414113 -0.01424743 -0.01434274 -0.0144262
 -0.01449336 -0.01454391 -0.01457786 -0.01459542 -0.01459939 -0.01459026 -0.01457227 -0.01454605 -0.01451644 -0.01448314
 -0.01444877 -0.01441046 -0.01436528 -0.01430881 -0.01423393 -0.0141402 -0.0140226 -0.0138897 -0.01374322 -0.01359623
 -0.01345449 -0.01332447 -0.01321038 -0.0131067 -0.01301394 -0.01292093 -0.0128264 -0.01272484 -0.01261579 -0.01250493
 -0.01239297 -0.0122914 -0.01220043 -0.01212742 -0.01207114 -0.01203105 -0.01200568 -0.01199108 -0.01198661 -0.0119891
 -0.01199926 -0.01201623 -0.01204222 -0.01207845 -0.01212753 -0.01219198 -0.0122706 -0.01236477 -0.01246751 -0.01257796
 -0.0126872 -0.01279345 -0.01289198 -0.0129817 -0.01306544 -0.01314327 -0.01322396 -0.01330788 -0.01340218 -0.01350587
 -0.01361623 -0.01373143 -0.01384231 -0.01394938 -0.0140484 -0.01414294 -0.01423722 -0.0143341 -0.01443953 -0.01455251
 -0.01467478 -0.01480296 -0.01493549 -0.01507034 -0.01520636 -0.01534272 -0.01548007 -0.0156124 -0.01574015 -0.0158487
 -0.0159366 -0.01599219 -0.01601446 -0.01601039 -0.01598116 -0.01594803 -0.0159117 -0.01588777 -0.01587426 -0.01587216
 -0.01587873 -0.01588783 -0.01589713 -0.01589997 -0.01589462 -0.01587585 -0.01584449 -0.01579903 -0.01574224 -0.01567614
 -0.01559952 -0.01551358 -0.01541184 -0.01529311 -0.01515118 -0.01498453 -0.01479102 -0.01456981 -0.01432491 -0.01405637
 -0.01377658 -0.01348637 -0.01320104 -0.01292066 -0.01265332 -0.01239791 -0.01215413 -0.01192153 -0.01169887 -0.01148607
 -0.01128291 -0.01108814 -0.0109006 -0.01071802 -0.01053865 -0.01035919 -0.01017763 -0.009990616 -0.00979524 -0.009594526
 -0.009386894 -0.009185179 -0.008991061 -0.008816465 -0.008663698 -0.008530405 -0.008416813 -0.008307616 -0.008201858 -0.008082102
 -0.007947946 -0.007787743 -0.007602603 -0.007390014 -0.007152651 -0.006895618 -0.006622193 -0.006340127 -0.006052508 -0.005766322
 -0.00548289 -0.005207047 -0.004934354 -0.004664774 -0.004389893 -0.004105513 -0.003809567 -0.003499367 -0.003181781 -0.002857345
 -0.002533202 -0.002209966 -0.001894624 -0.001587503 -0.00130173 -0.001037781 -0.00080525 -0.000602452 -0.0004220598 -0.0002617266
 -0.0001073445 4.049897E-05 0.0001865482 0.0003313628 0.0004760371 0.0006267884 0.0007915713 0.000975824 0.00118894 0.001427079
 0.001693169 0.001973514 0.002264701 0.00255053 0.002825163 0.003082267 0.003317946 0.003543104 0.003757993 0.003977997
 0.004204283 0.0044412 0.004688558 0.00494168 0.005199952 0.005457233 0.00571263 0.005958699 0.006195995 0.006421287
 0.006637733 0.006850963 0.007059737 0.007267948 0.007464143 0.007640142 0.007785701 0.007889979 0.007956306 0.007982163
 0.007977745 0.007945249 0.007892564 0.007820633 0.007739909 0.007651077 0.007568244 0.007492412 0.007432787 0.007389564
 0.007365155 0.00735919 0.007370638 0.007398382 0.007437185 0.007486309 0.00754038 0.007601013 0.007669155 0.007745188
 0.00783172 0.007923515 0.008017861 0.008107311 0.00818732 0.008250564 0.008294485 0.008308237 0.008288289 0.008227481
 0.008121977 0.007981682 0.007806301 0.007615454 0.0074105 0.007203295 0.006994258 0.006788982 0.006588053 0.006399473
 0.006222534 0.0060598 0.005907488 0.005756531 0.005604028 0.005439379 0.005264051 0.005075407 0.004876216 0.004669192
 0.00445274 0.004228665 0.003987986 0.003728196 0.003439113 0.003115469 0.002760699 0.002372547 0.001969633 0.00155395
 0.00113853 0.0007247512 0.0003084507 -0.0001105962 -0.0005381012 -0.0009730173 -0.00140966 -0.001846567 -0.002274427 -0.00269271
 -0.003095753 -0.003482379 -0.003847855 -0.004191164 -0.004508324 -0.00480115 -0.005068925 -0.00531663 -0.005545608 -0.005765052
 -0.005978431 -0.006195113 -0.006420298 -0.006650164 -0.006886668 -0.007112502 -0.007325497 -0.007516528 -0.007684403 -0.007837285
 -0.007975483 -0.008105012 -0.008225073 -0.00833072 -0.008422838 -0.008501783 -0.008571072 -0.008641809 -0.008714135 -0.00879491
 -0.008879286 -0.008963637 -0.009043843 -0.00911407 -0.009174524 -0.009222783 -0.00926305 -0.009296433 -0.009326808 -0.009356804
 -0.009382124 -0.009403056 -0.009410668 -0.009402934 -0.00938387 -0.009353195 -0.009328449 -0.009310137 -0.009305355 -0.009312268
 -0.009318492 -0.009322849 -0.009312867 -0.009290411 -0.009254693 -0.009207112 -0.009150371 -0.00908419 -0.009008774 -0.008925228
 -0.008834338 -0.008737937 -0.008637484 -0.008533859 -0.008427439 -0.008320039 -0.00821198 -0.008105913 -0.008002495 -0.007902842
 -0.007807236 -0.007715592 -0.007627977 -0.007542756 -0.007459826 -0.00737652 -0.007293352 -0.007212786 -0.007136671 -0.007075104
 -0.007028595 -0.007004937 -0.007001007 -0.007014845 -0.007042306 -0.007077332 -0.007116064 -0.007153668 -0.007185046 -0.007204853
 -0.007212636 -0.007205095 -0.007190656 -0.007171482 -0.007152729 -0.007137911 -0.007115532 -0.007085437 -0.007029397 -0.006945787
 -0.006828754 -0.006678416 -0.00650326 -0.006304514 -0.006095794 -0.005878418 -0.005665407 -0.005457648 -0.005264472 -0.005086013
 -0.004926854 -0.004786875 -0.00466834 -0.004569305 -0.004490102 -0.004424593 -0.004370199 -0.004317889 -0.004263818 -0.004199034
 -0.004120521 -0.004020598 -0.003896704 -0.003747497 -0.003571195 -0.003380486 -0.003175724 -0.002978744 -0.002790461 -0.002624754
 -0.002480513 -0.002354534 -0.002243997 -0.00213405 -0.002023144 -0.00189754 -0.001760763 -0.001611401 -0.001458326 -0.001313302
 -0.001182723 -0.001079543 -0.0009983547 -0.0009417245 -0.0008957452 -0.0008545509 -0.0008092177 -0.0007543921 -0.0006926214 -0.0006229444
 -0.0005526252 -0.0004829199 -0.0004149955 -0.0003494424 -0.0002769331 -0.0001968594 -9.495959E-05 2.880844E-05 0.0001817143 0.0003613484
 0.0005610464 0.0007767651 0.0009927629 0.001207127 0.001407384 0.00159639 0.001772122 0.00194009 0.002105561 0.002270533
 0.002439474 0.002607336 0.002774158 0.002930505 0.003072944 0.003197398 0.003300355 0.003393438 0.003476397 0.003571985
 0.003682309 0.003816283 0.003973696 0.004133859 0.004295089 0.004431257 0.004545836 0.004640774 0.004722865 0.004815775
 0.004918874 0.005044638 0.005183588 0.005327156 0.005468517 0.005595642 0.005712035 0.005815247 0.005913753 0.006011607
 0.006111837 0.006216969 0.006324222 0.006432553 0.006544992 0.006660997 0.006791649 0.006938263 0.007099121 0.007273634
 0.007436497 0.007586467 0.007699888 0.007780238 0.00783118 0.007858827 0.007883639 0.007909682 0.007954464 0.008021092
 0.008122255 0.008256497 0.008430243 0.008630487 0.008852392 0.009078586 0.009299587 0.009505319 0.009690872 0.009850286
 0.009981596 0.01008071 0.01014556 0.01018557 0.0102007 0.01021182 0.01021992 0.01023943 0.01027005 0.0103151
 0.01037296 0.01043881 0.0105086 0.01056611 0.01061097 0.01062945 0.01063627 0.01064533 0.01067358 0.01074991
 0.01086291 0.01101908 0.0111863 0.01134759 0.01149422 0.01161558 0.01173106 0.01184521 0.01196052 0.01208078
 0.01217812 0.01225015 0.01228258 0.01227545 0.01226198 0.01224544 0.01227509 0.01234616 0.01246342 0.0126131
 0.01275105 0.01287512 0.01295313 0.01300475 0.01304578 0.01309163 0.01316945 0.01326976 0.0133949 0.01353222
 0.01367317 0.01382177 0.01397834 0.01414363 0.01431984 0.01449437 0.01466501 0.0148292 0.01498612 0.01514416
 0.01530356 0.01546259 0.0156211 0.01577567 0.01592852 0.01609049 0.01626186 0.01645118 0.01665271 0.01685766
 0.01706257 0.01725692 0.01744387 0.01762364 0.01779687 0.01796675 0.01812428 0.01826789 0.01838283 0.01846309
 0.01850234 0.01849408 0.01846036 0.01840063 0.01835822 0.01833745 0.01835638 0.01841558 0.01849159 0.01858342
 0.01867142 0.01875828 0.01885028 0.01894645 0.01904755 0.01914963 0.0192419 0.01932823 0.01941039 0.01949065
 0.01957441 0.01965528 0.01972527 0.01979697 0.01986556 0.01997767 0.02015255 0.02040133 0.02074183 0.02110053
 0.02146791 0.02180124 0.02209414 0.02235644 0.0225883 0.0227889 0.02295761 0.0230858 0.02317479 0.02322846
 0.02324634 0.02322936 0.0231753 0.02307667 0.02293972 0.02276943 0.0225752 0.02236947 0.02215642 0.02194049
 0.02173158 0.02153412 0.02136071 0.02121937 0.02110411 0.021016 0.02094229 0.02087978 0.02083338 0.02080344
 0.02079196 0.02079882 0.02079876 0.02078994 0.0207429 0.02065827 0.02052416 0.02034269 0.02011083 0.01983855
 0.01953994 0.01923992 0.01898586 0.01878679 0.01868278 0.01863441 0.01862784 0.01862147 0.01858261 0.01851866
 0.01842142 0.01832038 0.01822053 0.01814551 0.01809981 0.01809638 0.01813851 0.01820521 0.01829534 0.01836652
 0.0184192 0.01844556 0.01844966 0.01845211 0.01845149 0.01845196 0.01845389 0.01845716 0.01847025 0.01850964
 0.01857233 0.01866542 0.01877165 0.01887784 0.01898025 0.01907127 0.0191599 0.01925045 0.01933693 0.01941948
 0.01948775 0.01953878 0.01957863 0.01960778 0.01962834 0.0196404 0.01963617 0.01961702 0.01959736 0.01958042
 0.01959489 0.01963678 0.01970806 0.01980202 0.01990316 0.02001003 0.02011769 0.02021473 0.02029061 0.02032516
 0.02029306 0.02020532 0.02005154 0.01988113 0.01970792 0.0195734 0.0194931 0.01947217 0.01951682 0.01959971
 0.01972079 0.01982881 0.01992097 0.01995271 0.01992485 0.01983429 0.01968629 0.01950793 0.01930497 0.01910878
 0.01892785 0.01879843 0.01872199 0.01872466 0.01878203 0.01888129 0.01898863 0.01907073 0.01911836 0.01911585
 0.01907098 0.01898296 0.01886005 0.01870009 0.01853215 0.01835851 0.01821746 0.01811525 0.01803992 0.01799103
 0.0179181 0.01782198 0.01769931 0.01755771 0.01744444 0.01735706 0.01731579 0.01730485 0.01729581 0.01728003
 0.01722638 0.01714543 0.01703338 0.016913 0.01679972 0.01671273 0.01666926 0.01666764 0.01671305 0.01679143
 0.01689925 0.01703313 0.01719422 0.0173658 0.01754982 0.01767693 0.01774327</values></Ydata></AB><ScSm><Ydata ylabel="Single channel"><values byteorder="INTEL" format="FLOAT32" numvalues="1814"> 0.07544658 0.07546984 0.07555302 0.07571664 0.07593578 0.07615 0.07630314 0.07638137 0.07640235 0.07637425
 0.07630281 0.07624115 0.07628009 0.07645999 0.07671365 0.07691154 0.0769637 0.07689862 0.07685137 0.0769323
 0.07707588 0.07705437 0.07669285 0.0760718 0.07547532 0.07512765 0.07505312 0.07524262 0.07579206 0.07663687
 0.07725686 0.07704997 0.07608938 0.07515424 0.07486446 0.0750877 0.07530674 0.07521772 0.07481916 0.07429268
 0.07406281 0.07468808 0.07631235 0.07820536 0.07902223 0.07765387 0.07402197 0.0693336 0.06563289 0.0647
 0.06679594 0.07031035 0.07297169 0.07365783 0.0729317 0.07189098 0.07098757 0.07016924 0.06964517 0.06992934
 0.07112887 0.07246319 0.07266969 0.07108687 0.06844247 0.06633371 0.06576997 0.06654432 0.06809245 0.07010768
 0.07166927 0.07074779 0.06620061 0.06029577 0.05769873 0.06103583 0.06809486 0.07399317 0.07552227 0.07294431
 0.06857629 0.06487085 0.06349367 0.06487131 0.06810817 0.07172899 0.07457519 0.07586779 0.07501265 0.07211464
 0.06848148 0.0659913 0.06594334 0.06855191 0.07289839 0.07700858 0.07874946 0.07740742 0.07416484 0.07085027
 0.06873122 0.06851855 0.07055244 0.07444911 0.0790711 0.08318129 0.08595073 0.08705279 0.08673316 0.08564945
 0.08436799 0.08327307 0.08292081 0.08369707 0.084903 0.08501743 0.08335327 0.08097425 0.0795996 0.0798274
 0.08065876 0.08071551 0.0796359 0.07785508 0.07524475 0.07108358 0.06571283 0.06098173 0.05840003 0.05798444
 0.05935568 0.0623322 0.0656454 0.06686709 0.06507462 0.06254287 0.06248809 0.06563403 0.06984416 0.07272303
 0.07383175 0.0745079 0.07614841 0.07878329 0.08090593 0.08060792 0.07746636 0.07360479 0.07219473 0.07434698
 0.07804704 0.08063661 0.0816168 0.08235957 0.08370025 0.08463806 0.08337793 0.07946567 0.07493871 0.07306969
 0.07551315 0.08064409 0.08473818 0.08473228 0.08028705 0.07385357 0.06875867 0.06690158 0.06825399 0.07214308
 0.07799166 0.0846381 0.09002002 0.09233502 0.091361 0.08835283 0.08460344 0.08024547 0.07494353 0.06989144
 0.06804653 0.07133193 0.0781797 0.08484319 0.08873962 0.08973063 0.08866259 0.08577868 0.08096518 0.07528712
 0.07148729 0.07185908 0.07548734 0.07876612 0.07917276 0.07756817 0.07634516 0.07644573 0.07700567 0.07718566
 0.0773652 0.07848909 0.08071575 0.08304918 0.08430471 0.08418881 0.08335223 0.08262666 0.0822703 0.08178192
 0.080609 0.07925501 0.07923037 0.08140287 0.08480422 0.08762253 0.08901963 0.08943881 0.08939911 0.08857335
 0.08626515 0.08273153 0.07971556 0.07915732 0.08132347 0.08464241 0.08733423 0.08868466 0.08888553 0.08840258
 0.08765705 0.0868798 0.08617866 0.08583894 0.08625565 0.08737514 0.08856105 0.08923412 0.08934821 0.08910698
 0.08855517 0.0876624 0.08661705 0.08583149 0.08564796 0.08608565 0.0868822 0.0877251 0.0883668 0.08859697
 0.08831978 0.08769855 0.08705226 0.08656692 0.08624203 0.08609983 0.08624539 0.08667302 0.08717529 0.08752155
 0.08764023 0.08758632 0.08741578 0.08714989 0.08682093 0.08650964 0.08633403 0.08637483 0.08658195 0.0868002
 0.08693781 0.08705338 0.08721232 0.08733125 0.08726732 0.08701944 0.08674379 0.08658699 0.08657146 0.08662856
 0.08667081 0.08660741 0.08634687 0.08587508 0.08535382 0.08506052 0.08516515 0.08560301 0.08618201 0.0867328
 0.08713558 0.08732264 0.08732531 0.08724685 0.08714305 0.08697975 0.08672842 0.08646318 0.08634058 0.0864792
 0.08684544 0.08726918 0.08758708 0.08774845 0.08779117 0.0877879 0.08782502 0.0879436 0.08807039 0.08808134
 0.08795931 0.08782987 0.08782047 0.08792415 0.08801836 0.0880039 0.08791453 0.08787906 0.08797731 0.08816317
 0.08833918 0.0884681 0.08858633 0.0887273 0.08885263 0.08887075 0.08874007 0.08853951 0.0883964 0.08835408
 0.08836402 0.08839902 0.08849955 0.08868776 0.08889563 0.08902118 0.08903678 0.08900999 0.08901484 0.08904412
 0.08902626 0.0889183 0.08875805 0.0886246 0.08857018 0.08859241 0.08864984 0.08869241 0.08868701 0.08862841
 0.08853249 0.08841977 0.08830459 0.08820358 0.08815384 0.08820205 0.0883493 0.08851057 0.08856042 0.08844089
 0.08821984 0.08802901 0.08794127 0.08791462 0.08785579 0.08772302 0.0875532 0.08740431 0.08729944 0.08722711
 0.08716837 0.08711438 0.08707842 0.08710139 0.08722059 0.08741044 0.08757137 0.08760984 0.0875283 0.08741598
 0.08735865 0.08737743 0.08744173 0.08751339 0.08758387 0.0876823 0.08783069 0.0879888 0.08808052 0.08808728
 0.08807696 0.08812962 0.0882737 0.08849341 0.08874229 0.08894198 0.0890284 0.08902431 0.08902621 0.08910275
 0.08923784 0.08938142 0.08951655 0.08965719 0.08981058 0.0899738 0.09015791 0.09039102 0.09068983 0.0910337
 0.09136714 0.09163306 0.09181994 0.09198458 0.09221547 0.09255845 0.09297682 0.09338588 0.09372546 0.09400181
 0.09426431 0.09454551 0.09483621 0.09512533 0.09544115 0.09582245 0.09626029 0.09670252 0.097113 0.09749774
 0.09787564 0.09825253 0.09862944 0.09901904 0.0994444 0.09991786 0.1004129 0.1008653 0.1012221 0.1014934
 0.1017464 0.1020542 0.1024488 0.1028982 0.1033127 0.1036087 0.1037995 0.103997 0.1042924 0.1046569
 0.1049986 0.1052936 0.1056105 0.1060066 0.1064497 0.1068586 0.1071936 0.1074855 0.1077869 0.108107
 0.1083986 0.1086108 0.1087525 0.1088889 0.1090728 0.1093056 0.1095793 0.1099192 0.1103439 0.1108065
 0.1112193 0.1115331 0.1117606 0.1119387 0.1121001 0.1122677 0.1124427 0.1126086 0.1127634 0.1129241
 0.1130858 0.1132167 0.1133163 0.1134402 0.1136367 0.1138981 0.1142003 0.1145498 0.1149491 0.115352
 0.1157082 0.1160425 0.1164287 0.1168748 0.1172853 0.1175648 0.117718 0.1178152 0.1179024 0.1179997
 0.1181543 0.1184254 0.1188131 0.1192506 0.1196722 0.1200609 0.1204288 0.1207793 0.1210952 0.1213496
 0.121526 0.1216331 0.1217055 0.1217929 0.1219457 0.1221886 0.1224929 0.1227891 0.1230176 0.1231559
 0.123196 0.1231319 0.1229958 0.1228724 0.1228289 0.1228321 0.1227671 0.1225382 0.1221282 0.1215687
 0.1208872 0.1201024 0.1192537 0.1184173 0.1176888 0.117148 0.1168413 0.1167984 0.1170469 0.1175846
 0.1183354 0.1191593 0.1199159 0.1205007 0.1208242 0.1208041 0.1204167 0.1197366 0.1189 0.1180335
 0.1172182 0.1164856 0.1158213 0.1152014 0.1146663 0.1143544 0.1144438 0.1150569 0.1162118 0.1178274
 0.1197397 0.1217293 0.1235859 0.1251868 0.1265282 0.1276762 0.128699 0.1296444 0.1305532 0.1314464
 0.1322987 0.1330612 0.1337186 0.134302 0.134841 0.1353293 0.135739 0.1360503 0.1362687 0.1364293
 0.1365738 0.1367103 0.1368114 0.1368625 0.1368896 0.1369196 0.136932 0.1368644 0.1366594 0.1363032
 0.1358465 0.1354179 0.1352176 0.1354642 0.1362969 0.1376902 0.139458 0.1413529 0.143169 0.1447693
 0.1460697 0.1470466 0.1477532 0.1482926 0.1487604 0.1492119 0.1496658 0.1501183 0.1505564 0.1509726
 0.1513714 0.1517666 0.1521723 0.1525908 0.1530037 0.1533825 0.1537194 0.1540438 0.1544024 0.1548194
 0.1552744 0.1557204 0.1561305 0.1565209 0.1569159 0.1573025 0.1576428 0.1579292 0.1582016 0.1585089
 0.1588742 0.1592892 0.1597173 0.1601051 0.1604179 0.1606686 0.1609019 0.1611522 0.1614275 0.1617222
 0.1620298 0.1623431 0.1626559 0.1629725 0.1633071 0.163663 0.1640111 0.1643063 0.164533 0.1647275
 0.1649446 0.1652063 0.1654895 0.1657598 0.1660117 0.1662752 0.1665849 0.1669397 0.1672953 0.1675973
 0.1678258 0.1680105 0.1682035 0.1684371 0.1687072 0.1689893 0.1692644 0.1695273 0.1697826 0.1700401
 0.1703085 0.1705864 0.1708624 0.1711266 0.1713798 0.1716302 0.1718836 0.1721392 0.1723967 0.1726663
 0.1729634 0.1732848 0.1735988 0.1738697 0.1740901 0.1742816 0.1744706 0.1746729 0.1748946 0.1751333
 0.1753797 0.1756259 0.1758729 0.1761255 0.1763836 0.176641 0.1768904 0.1771302 0.1773654 0.1776052
 0.177859 0.1781327 0.1784231 0.1787142 0.1789861 0.1792324 0.1794654 0.1797021 0.1799489 0.1801982
 0.1804359 0.1806542 0.1808593 0.1810673 0.18129 0.1815276 0.1817719 0.1820138 0.1822482 0.1824768
 0.1827051 0.1829372 0.1831731 0.1834118 0.1836513 0.1838867 0.1841145 0.184336 0.1845562 0.1847809
 0.1850146 0.1852574 0.1855042 0.1857493 0.185991 0.1862288 0.1864593 0.186678 0.1868852 0.1870879
 0.1872966 0.1875186 0.1877527 0.1879919 0.1882293 0.1884609 0.1886887 0.1889204 0.1891621 0.1894126
 0.1896675 0.1899236 0.1901758 0.1904171 0.1906465 0.1908703 0.1910957 0.191327 0.1915658 0.1918103
 0.1920574 0.1923066 0.1925564 0.1928011 0.1930358 0.1932619 0.1934825 0.193697 0.1939034 0.1941006
 0.1942913 0.1944849 0.1946924 0.1949142 0.1951414 0.1953698 0.1956011 0.1958353 0.1960686 0.1962976
 0.1965197 0.1967364 0.1969537 0.1971755 0.1973991 0.1976243 0.1978557 0.1980936 0.1983315 0.1985646
 0.198792 0.1990153 0.1992409 0.1994749 0.1997148 0.1999546 0.200194 0.2004323 0.200665 0.2008941
 0.2011272 0.2013632 0.2015947 0.2018225 0.2020521 0.2022838 0.2025175 0.2027538 0.2029879 0.2032168
 0.2034478 0.203683 0.2039114 0.2041283 0.2043435 0.2045642 0.2047893 0.2050193 0.2052549 0.2054948
 0.2057412 0.2059932 0.2062366 0.2064608 0.2066751 0.20689 0.2071044 0.20732 0.2075402 0.2077444
 0.207872 0.2077828 0.2071444 0.2053098 0.2013007 0.1940052 0.1826265 0.1671955 0.1487345 0.1288879
 0.1093191 0.09128969 0.07554468 0.06241001 0.05195386 0.04409081 0.03864317 0.03545003 0.03449187 0.03601732
 0.04066821 0.04909416 0.06052931 0.07153633 0.07734498 0.0756183 0.06868834 0.06143037 0.05721141 0.05626567
 0.05715107 0.05863629 0.06032842 0.06244823 0.0653802 0.0692361 0.07383475 0.07917229 0.08565065 0.09356826
 0.1025097 0.1115183 0.1199161 0.1278345 0.1358984 0.1444756 0.1532911 0.1616974 0.1691925 0.1756767
 0.181353 0.1864941 0.1912866 0.1958209 0.2001483 0.2042688 0.2080308 0.2111008 0.2131321 0.2140282
 0.214057 0.2136948 0.2133482 0.2132028 0.2132767 0.2135417 0.2139759 0.2145629 0.2152864 0.2161217
 0.217025 0.2179491 0.2188651 0.2197577 0.2206106 0.2214107 0.222155 0.2228437 0.2234757 0.2240522
 0.2245765 0.2250511 0.225482 0.2258801 0.226254 0.226608 0.2269465 0.2272715 0.2275769 0.227852
 0.228094 0.2283121 0.2285217 0.2287351 0.2289542 0.2291747 0.2293942 0.2296121 0.2298265 0.2300359
 0.2302424 0.2304476 0.2306466 0.230835 0.2310156 0.2311961 0.231383 0.2315802 0.2317863 0.2319938
 0.2321966 0.2323966 0.2325971 0.2327929 0.2329751 0.2331451 0.2333166 0.2335031 0.2337058 0.2339144
 0.2341218 0.2343311 0.2345471 0.2347639 0.2349734 0.2351775 0.2353812 0.2355835 0.2357834 0.2359862
 0.2361901 0.2363808 0.2365496 0.2367094 0.2368875 0.237102 0.2373435 0.2375801 0.2377863 0.237967
 0.2381479 0.2383463 0.2385559 0.2387528 0.2389207 0.2390786 0.2392707 0.239517 0.2397924 0.2400643
 0.2403232 0.2405701 0.2408073 0.2410461 0.2412858 0.2414881 0.2416134 0.24169 0.2418157 0.242078
 0.2424694 0.2428868 0.2432236 0.2434608 0.2436572 0.2438768 0.2441482 0.2444425 0.2446499 0.2446557
 0.2445143 0.2444778 0.2447613 0.245326 0.245953 0.2464726 0.2468634 0.2471798 0.2474571 0.2476794
 0.2477997 0.2477921 0.2477177 0.2477417 0.2480241 0.2485546 0.2491428 0.2496092 0.2499286 0.2501616
 0.2503513 0.2505152 0.2506058 0.2504573 0.249962 0.2493697 0.2492155 0.2498014 0.2508549 0.2518214
 0.252414 0.2527508 0.2530317 0.2532924 0.253482 0.2535135 0.2531261 0.2520296 0.2504714 0.2494043
 0.2496983 0.251261 0.2531926 0.2546855 0.2555363 0.2559498 0.2561841 0.2563736 0.2564302 0.2560611
 0.2550966 0.2539195 0.2533666 0.2539619 0.2553321 0.2566056 0.2572983 0.2575685 0.2577603 0.2580152
 0.258171 0.257709 0.2560529 0.2534226 0.2512586 0.2512065 0.2535091 0.2567155 0.2591191 0.2602262
 0.2606165 0.2606796 0.2600359 0.2582149 0.2553632 0.2521752 0.249667 0.2490343 0.2508616 0.2541384
 0.2568357 0.2579076 0.2581717 0.2589621 0.2605378 0.262102 0.2628365 0.2625295 0.2614296 0.2598022
 0.2578102 0.2559276 0.2551769 0.2564045 0.2592506 0.2622825 0.2643119 0.2652906 0.2656888 0.2651118
 0.2620217 0.2555925 0.2480281 0.2439544 0.2463387 0.253385 0.2604586 0.2646403 0.2663296 0.2670751
 0.2674989 0.2671189 0.264634 0.25864 0.2498422 0.2424399 0.2412829 0.2470741 0.2555773 0.2615733
 0.2624125 0.2582915 0.2513194 0.244889 0.2422891 0.2447121 0.2507368 0.2577349 0.2634452 0.2665923
 0.2668799 0.2648726 0.2619471 0.2599538 0.2598802 0.2603945 0.2588559 0.2546521 0.2502229 0.2474808
 0.2448522 0.2401885 0.23548 0.2355375 0.2417324 0.249694 0.2542185 0.2545429 0.2534042 0.2520727
 0.2481987 0.239206 0.2271652 0.2188847 0.219951 0.2289337 0.2386689 0.2432722 0.2428104 0.2412031
 0.2409882 0.2407344 0.2370634 0.2290611 0.2205171 0.2167494 0.2189574 0.2231498 0.2248737 0.2227799
 0.2170765 0.2080771 0.1987186 0.1954961 0.2029874 0.2182478 0.2331173 0.2409493 0.2390581 0.2272583
 0.2087577 0.1920596 0.1868358 0.19528 0.2094407 0.2185273 0.2174823 0.207899 0.1933927 0.1771028
 0.1631125 0.1569249 0.1621707 0.1769068 0.1936929 0.2033209 0.1999081 0.1854461 0.1701422 0.1650867
 0.1722009 0.1829311 0.1878293 0.1851192 0.1793758 0.175597 0.1762947 0.1810879 0.1871303 0.1917687
 0.1946686 0.1948736 0.1879371 0.1712827 0.1514084 0.1396318 0.1403187 0.1486222 0.1595458 0.1724333
 0.1850781 0.1906403 0.1853577 0.1756827 0.1728022 0.1807517 0.1929331 0.2001611 0.199749 0.1960071
 0.19357 0.1924485 0.1903316 0.1879378 0.1892328 0.1959643 0.2046309 0.2103963 0.2121384 0.2120383
 0.2118795 0.2116904 0.2109987 0.2096432 0.2076914 0.2055509 0.2038514 0.2027363 0.2017345 0.2004828
 0.1987056 0.1951488 0.1878637 0.1769752 0.1664258 0.1608822 0.1608201 0.1628082 0.1646039 0.1664901
 0.1665411 0.1592461 0.142783 0.1250334 0.1178678 0.1256879 0.1421438 0.1573617 0.1654686 0.1650943
 0.156478 0.1418141 0.1278017 0.1235318 0.133034 0.1513915 0.1700178 0.1840602 0.192901 0.196042
 0.1923153 0.1829621 0.1728326 0.1676215 0.1704293 0.1803848 0.1928807 0.2007056 0.1975781 0.1844285
 0.1722278 0.1738782 0.1906195 0.2099096 0.2195234 0.2199512 0.2193839 0.220982 0.2213292 0.2194344
 0.220314 0.2281161 0.2400082 0.2489648 0.249942 0.2418724 0.2269748 0.2112043 0.2027071 0.2053029
 0.2141374 0.220947 0.2220519 0.2178896 0.2081307 0.1936629 0.1817265 0.1815771 0.1937559 0.2088498
 0.2181925 0.221757 0.2242461 0.2269956 0.2263859 0.2193644 0.2085458 0.2005922 0.1996219 0.2036086
 0.207812 0.2097836 0.2094185 0.2061257 0.1991863 0.1908876 0.1865645 0.1899805 0.1994435 0.2093977
 0.2154043 0.2169329 0.2160404 0.2147118 0.2135115 0.2117609 0.2089126 0.2063254 0.2069921 0.2123036
 0.2197684 0.2255366 0.2287944 0.2320391 0.2371523 0.2427852 0.2459766 0.2453786 0.2425573 0.2406586
 0.2418997 0.2458021 0.2495329 0.2503224 0.2481025 0.2458088 0.2466651 0.2510979 0.2566755 0.2608672
 0.2631071 0.264275 0.2652102 0.2659961 0.2659166 0.2640138 0.2604799 0.2574807 0.2576264 0.2613693
 0.2665532 0.2706181 0.272651 0.2732453 0.2731127 0.2723389 0.2707857 0.2687591 0.267031 0.266242
 0.2664482 0.2672749 0.2683167 0.2693105 0.2701136 0.2706943 0.271105 0.2713993 0.2716097 0.2717931
 0.2719963 0.2721695 0.2722218 0.2721923 0.2722666 0.2725614 0.2729659 0.273256 0.2732967 0.2730483
 0.2724467 0.2714193 0.2700178 0.2684075 0.2666836 0.264813 0.2628659 0.2612655 0.2606636 0.2614582
 0.2634272 0.2658637 0.268058 0.26965 0.2706244 0.2711265 0.2713309 0.2713936 0.271418 0.2714311
 0.2714032 0.2713004 0.2711188 0.2708763 0.2705961 0.2703104 0.2700638 0.2698821 0.2697408 0.2695796
 0.2693516 0.269048 0.268688 0.2682986 0.2678963 0.267464 0.2669431 0.2662641 0.2654036 0.2644167
 0.2634102 0.2624774 0.2616438 0.2608628 0.2600608 0.259187 0.2582113 0.257094 0.2558116 0.2544286
 0.2530929 0.2519209 0.2509075 0.2499652 0.2490088 0.2479834 0.2468579 0.2456332 0.2443418 0.2430186
 0.2416756 0.2403042 0.2388898 0.2374208 0.2358913 0.2342981 0.2326362 0.2309027 0.2291035 0.2272482
 0.2253259 0.2232797 0.2210063 0.2183839 0.2152971 0.2116533 0.2074163 0.2026509 0.1975287 0.1922766
 0.1871151 0.1822221 0.1777213 0.1736931 0.1702028 0.1673141 0.1650755 0.1635113 0.1626309 0.1624392
 0.1629356 0.1641014 0.1658758 0.1681402 0.170735 0.1734906 0.1762399 0.1788341 0.1811882 0.183316
 0.1852987 0.1872061 0.1890451 0.1907767 0.1923694 0.1938161 0.1951043 0.1962014 0.1970916 0.1978058
 0.1983923 0.1988771 0.199266 0.1995664 0.1997944 0.1999695 0.2001112 0.2002374 0.2003745 0.2005648
 0.2008453 0.2012168 0.2016515 0.2021299 0.202657 0.2032446 0.2038913 0.2045807 0.2052968 0.2060404
 0.2068276 0.207682 0.2086413 0.2097585 0.2110724 0.2125801 0.2142478 0.2160305 0.2178615 0.2196432
 0.2212698 0.2226588 0.2237646 0.2245763 0.2251126 0.2254158 0.2255453 0.2255559 0.2254702 0.225282
 0.2249915 0.2246188 0.2241801 0.2236785 0.2231198 0.222517 0.2218818 0.221225 0.2205593 0.2198921
 0.2192259 0.2185674 0.2179216 0.2172851 0.2166566 0.2160414 0.2154385 0.2148366 0.2142273 0.2136072
 0.2129686 0.2122949 0.2115612 0.2107381 0.2098105 0.2087875 0.2076789 0.2064734 0.2051583 0.2037461
 0.2022667 0.2007418 0.199176 0.1975655 0.1959084 0.1942017 0.1924206 0.1905194 0.1884848 0.1863824
 0.184321 0.1823762 0.1805591 0.1788429 0.1771975 0.1756122 0.1740991 0.1726703 0.1713188 0.1700328
 0.1688147 0.1676691 0.1665842 0.165538 0.1645218 0.163554 0.1626759 0.161922 0.1612914 0.1607559
 0.1602921 0.1598933 0.1595668 0.1593342 0.1592152 0.1591887 0.1591859 0.1591373 0.1590187 0.1588496
 0.1586653 0.15849 0.1583229 0.1581508 0.1579668 0.1577615 0.157493 0.1570801 0.1564262 0.1554551
 0.1541448 0.1525372 0.1507142 0.1487783 0.1468571 0.1450881 0.1435713 0.1423445 0.1414009 0.1406983
 0.1401599 0.1397106 0.1393295 0.1390599 0.1389667 0.1390637 0.1392562 0.1393827 0.1393608 0.1392812
 0.1393296 0.1396328 0.1401838 0.1408683 0.1415415 0.1421051 0.1425263 0.1427986 0.1429272 0.142954
 0.1429363 0.1428851 0.1427643 0.1425503 0.1422557 0.1419059 0.141518 0.1410876 0.1405872 0.1399924
 0.1393009 0.1385231 0.1376723 0.1367498 0.1357167 0.1345302 0.1332634 0.1321403 0.1314065 0.1311961
 0.1315074 0.1322199 0.1331445 0.1341296 0.1350714 0.1357841 0.1360377 0.1359052 0.1359556 0.1368573
 0.1387409 0.1410561 0.1430647 0.1443683 0.1449534 0.1449239 0.1443603 0.1433322 0.1418598 0.1398989
 0.1374677 0.1347071 0.1317641 0.1287522 0.1258406 0.1232211 0.1209901 0.1191613 0.117727 0.116729
 0.1162976 0.1160692 0.1142206 0.1084293 0.09944759 0.09269501 0.09370377 0.1018962 0.1109854 0.1156284
 0.1156908 0.1140303 0.1126099 0.1117216 0.1112642 0.1113728 0.1121675 0.1135037 0.1149877 0.1162075
 0.1169949 0.1173906 0.117354 0.1165475 0.1142957 0.1098107 0.1028267 0.09416828 0.08546957 0.07822162
 0.0731203 0.07008731 0.06856337 0.0678261 0.06735761 0.06709293 0.06732017 0.06833507 0.07019223 0.07274654
 0.07581131 0.07914393 0.08234337 0.08500294 0.08702673 0.08862279 0.08994789 0.09092219 0.09140754 0.0914024
 0.09102567 0.09042125 0.08970747 0.08894529 0.08810818 0.08710913 0.08593126 0.08475998 0.08390024 0.08349807
 0.08341888 0.0834403 0.08345678 0.08345973 0.08344696 0.08341146 0.0833573 0.08332528 0.08342116 0.08374025
 0.08422823 0.08469781 0.08500334 0.08514282 0.08520238 0.08522001 0.08507386 0.08458193 0.08381121 0.08312445
 0.08270997 0.08224162 0.08130218 0.08002905 0.07903872 0.07875332 0.07902813 0.07940763 0.07954566 0.0793746
 0.07906571 0.07892951 0.07922044 0.07986613</values></Ydata></ScSm><ScRf><Ydata ylabel="Single channel"><values byteorder="INTEL" format="FLOAT32" numvalues="1820"> 0.06081393 0.06097437 0.06107444 0.06111192 0.06110884 0.06111108 0.06117139 0.06131524 0.06151737 0.06171382
 0.06184725 0.06190573 0.06191021 0.06187391 0.06180537 0.06174973 0.06178145 0.0619322 0.0621437 0.06230524
 0.06234011 0.06227455 0.06222685 0.06229198 0.06241304 0.06239717 0.06209929 0.06158799 0.06109805 0.06081323
 0.06075365 0.06091197 0.06136515 0.06205925 0.06257007 0.06240608 0.06162415 0.06085719 0.06061194 0.06078336
 0.06095015 0.06086423 0.06052764 0.06009452 0.05991463 0.06044168 0.06178671 0.06334525 0.06401341 0.06288849
 0.05991686 0.05609055 0.05307411 0.05231413 0.05402516 0.05689856 0.05907983 0.05964685 0.05905633 0.05820779
 0.05747287 0.05680555 0.05637095 0.05658887 0.0575542 0.05863703 0.05880715 0.05752065 0.0553688 0.05365302
 0.05319362 0.05381949 0.05507159 0.05670159 0.0579586 0.05719019 0.05347349 0.04866825 0.04658184 0.04934767
 0.05514522 0.05997564 0.06121581 0.05909092 0.05551444 0.05250399 0.05141243 0.05256386 0.0552096 0.05815028
 0.06045777 0.06150541 0.06080313 0.05842909 0.05545163 0.05341153 0.05337575 0.05551817 0.05908106 0.06244503
 0.06386755 0.06277008 0.06012081 0.05741242 0.05568124 0.05551325 0.0571907 0.0603964 0.06419097 0.0675569
 0.06981864 0.07071506 0.07045158 0.06956954 0.06853455 0.06765722 0.06738266 0.06801917 0.06899658 0.06907827
 0.06771073 0.06576939 0.06465897 0.06486014 0.0655466 0.06558828 0.06469367 0.06322527 0.06108159 0.05767162
 0.0532729 0.04939947 0.04728973 0.04696091 0.04810788 0.05058624 0.05335118 0.05439495 0.05294234 0.05085332
 0.05077722 0.05332638 0.056762 0.05912238 0.06004206 0.06060959 0.06196503 0.06413405 0.06588585 0.0656564
 0.0630946 0.05994014 0.05879872 0.06058414 0.06363809 0.0657737 0.06658661 0.06721491 0.06834945 0.06916191
 0.06816904 0.06499618 0.0613194 0.05982386 0.06186109 0.06609465 0.06947035 0.06947239 0.06581637 0.06051718
 0.05632317 0.05481467 0.05598312 0.0592787 0.06421365 0.06980897 0.07434991 0.07634409 0.07559891 0.07314217
 0.07005204 0.06646013 0.06209914 0.057955 0.0564832 0.05929329 0.06508807 0.07073991 0.0740812 0.07498777
 0.07416375 0.07180609 0.06781255 0.06308635 0.05996015 0.06038242 0.06356858 0.06644607 0.0668694 0.06557575
 0.06460533 0.06476043 0.06530662 0.06553859 0.06579483 0.06688606 0.06893404 0.07106598 0.07225309 0.07224119
 0.07159963 0.07106163 0.07085675 0.07054062 0.06962548 0.06855799 0.068664 0.07069206 0.07377684 0.07632453
 0.07761182 0.07805172 0.0781197 0.07752292 0.07561903 0.07261057 0.07004213 0.06965357 0.07169537 0.07476624
 0.07727131 0.07857527 0.07886295 0.07855843 0.07803137 0.07747863 0.07699417 0.07683066 0.07733411 0.07845274
 0.07962063 0.08032134 0.08051048 0.08037099 0.07995387 0.07924776 0.07843139 0.07787056 0.07785535 0.07838399
 0.0792149 0.08007841 0.08076626 0.08108805 0.08094133 0.0804646 0.07996002 0.07961893 0.07944657 0.07944722
 0.0796988 0.08019321 0.08074829 0.08115765 0.08135581 0.08139639 0.08133694 0.08119468 0.08098688 0.0807828
 0.08070458 0.08084117 0.08114084 0.0814444 0.08166716 0.0818803 0.08214957 0.08237468 0.08239389 0.08220495
 0.08198352 0.08189505 0.08195981 0.08209199 0.08219393 0.08218245 0.08198479 0.08160205 0.08119205 0.08100739
 0.08119692 0.0817036 0.08235957 0.08300126 0.08349022 0.0837433 0.08379759 0.08377035 0.08372208 0.08361511
 0.08341969 0.08321027 0.08313839 0.083317 0.08371988 0.08419475 0.08458312 0.08481517 0.08490808 0.0849399
 0.08502367 0.08521593 0.08542877 0.08551194 0.08544156 0.08535752 0.08539356 0.08552609 0.08561693 0.08557852
 0.08547372 0.08544852 0.08557713 0.08579837 0.08600636 0.08616894 0.08633647 0.08654955 0.08675618 0.08683569
 0.08672605 0.08651377 0.08635303 0.08630462 0.0863148 0.08634701 0.08644907 0.08665735 0.08690049 0.08705661
 0.08708729 0.08707143 0.08710101 0.0871702 0.08718747 0.08708498 0.08689258 0.08670676 0.08661118 0.08662854
 0.08671989 0.08681215 0.08683978 0.08678286 0.08667227 0.08655575 0.08646236 0.08640856 0.08643068 0.08657579
 0.08682963 0.08706879 0.0871314 0.08696231 0.08667661 0.08645886 0.08639643 0.08641648 0.0863784 0.0862098
 0.08595052 0.08568978 0.08548652 0.085345 0.08523907 0.08514883 0.08508742 0.08509934 0.0852115 0.0853688
 0.08544201 0.08533566 0.08508389 0.0848161 0.08463779 0.08456717 0.08456253 0.08457379 0.08458096 0.08461013
 0.08469243 0.084793 0.08482166 0.08473834 0.08460988 0.08454344 0.08460095 0.08477951 0.08501543 0.0851946
 0.08522287 0.08511832 0.08499879 0.084962 0.08500938 0.0850901 0.08517456 0.08526212 0.08535053 0.08543532
 0.08553432 0.08568618 0.08591395 0.08619406 0.08646358 0.08666119 0.08677597 0.08686568 0.0870176 0.08727646
 0.08760674 0.08792577 0.08817305 0.08835319 0.08851729 0.08870365 0.08890469 0.08910309 0.0893216 0.08960246
 0.0899418 0.09028277 0.0905796 0.09083946 0.09109645 0.09137079 0.091664 0.09198046 0.09234126 0.09276395
 0.09321755 0.09361415 0.09387621 0.09401499 0.0941277 0.0943221 0.09464369 0.09504229 0.09539239 0.09558822
 0.09565428 0.09573222 0.09592709 0.09620084 0.09645585 0.09668563 0.09698087 0.09739338 0.0978504 0.09822354
 0.09845527 0.09860009 0.09875295 0.09894963 0.09914074 0.09926405 0.09932889 0.0994055 0.09953769 0.09971071
 0.09991838 0.1002067 0.1006076 0.1010633 0.1014667 0.1017572 0.101948 0.1020796 0.1021839 0.1022735
 0.1023375 0.102364 0.1023785 0.1024296 0.1025218 0.1026018 0.1026332 0.1026515 0.1027202 0.1028661
 0.1030821 0.1033587 0.1036751 0.1039825 0.1042474 0.1045099 0.1048436 0.1052396 0.1055786 0.1057552
 0.1057936 0.1057955 0.1058147 0.1058431 0.1058962 0.106033 0.1062817 0.1066029 0.1069424 0.1072856
 0.1076429 0.1080062 0.1083339 0.1085707 0.1086824 0.1086854 0.1086448 0.1086445 0.1087489 0.1089763
 0.10929 0.10962 0.1099036 0.1101055 0.1102048 0.1101958 0.1101258 0.1101004 0.1102022 0.110398
 0.1105543 0.1105487 0.1103459 0.1099705 0.1094514 0.1088158 0.1081194 0.1074506 0.1068943 0.1064974
 0.106272 0.1062344 0.1064246 0.1068655 0.1075031 0.1082122 0.1088697 0.1093933 0.1097076 0.1097255
 0.109408 0.1088212 0.1080992 0.1073631 0.1066816 0.10607 0.1054946 0.1049168 0.1043795 0.1040415
 0.1040974 0.10466 0.1057102 0.1071145 0.1086631 0.1101303 0.1113621 0.1123371 0.1131352 0.1138465
 0.1145151 0.1151621 0.1158184 0.1164986 0.1171597 0.1177314 0.1181929 0.1185911 0.1189808 0.119372
 0.1197348 0.1200337 0.1202617 0.1204536 0.1206498 0.1208351 0.1209407 0.1209242 0.1208203 0.1206933
 0.1205648 0.1204015 0.1201536 0.1197952 0.11936 0.1189645 0.1187891 0.1190032 0.1196717 0.1207148
 0.121967 0.123281 0.1245675 0.1257466 0.1267162 0.1274083 0.1278539 0.128158 0.1284197 0.1286892
 0.1289793 0.1292846 0.1295923 0.1298921 0.1301833 0.1304761 0.1307877 0.1311269 0.1314746 0.1317882
 0.1320418 0.1322639 0.1325229 0.1328655 0.1332656 0.1336481 0.1339722 0.1342707 0.1345887 0.1349056
 0.1351585 0.1353324 0.1354852 0.1356856 0.1359638 0.1363126 0.1366938 0.1370407 0.1372972 0.1374682
 0.1376127 0.1377861 0.1380021 0.1382469 0.1385058 0.1387698 0.1390327 0.1392967 0.139578 0.1398858
 0.1401926 0.1404432 0.1406105 0.1407313 0.1408723 0.1410668 0.141295 0.141517 0.141719 0.1419284
 0.1421883 0.1425057 0.1428302 0.143092 0.1432642 0.1433788 0.1434899 0.1436335 0.1438171 0.14403
 0.1442545 0.1444739 0.1446802 0.14488 0.1450866 0.1453049 0.1455264 0.1457409 0.1459475 0.1461522
 0.1463578 0.1465621 0.1467683 0.1469938 0.1472592 0.1475615 0.1478606 0.1481084 0.1482892 0.1484246
 0.1485459 0.1486728 0.148817 0.1489864 0.1491819 0.1493927 0.149603 0.1498035 0.1499974 0.1501942
 0.1504004 0.1506159 0.150838 0.1510606 0.1512772 0.1514908 0.1517146 0.1519548 0.1521967 0.1524186
 0.1526141 0.152797 0.152985 0.1531818 0.1533744 0.1535493 0.1537118 0.1538829 0.1540749 0.1542791
 0.1544813 0.1546785 0.1548762 0.1550755 0.1552712 0.1554615 0.1556518 0.1558472 0.1560438 0.1562331
 0.1564147 0.1565984 0.1567937 0.1570001 0.1572103 0.1574189 0.1576257 0.1578332 0.1580408 0.1582446
 0.1584414 0.158632 0.158819 0.1590061 0.159198 0.1593969 0.1595998 0.1598035 0.1600074 0.1602092
 0.1604033 0.1605873 0.160766 0.16095 0.1611503 0.1613731 0.1616117 0.1618493 0.1620724 0.1622806
 0.1624836 0.162691 0.1629048 0.1631214 0.1633388 0.1635593 0.1637827 0.1640022 0.1642098 0.1644017
 0.1645771 0.1647393 0.1648965 0.1650587 0.1652334 0.165425 0.1656294 0.1658311 0.1660157 0.166188
 0.1663663 0.1665631 0.166777 0.166997 0.1672085 0.1674046 0.167595 0.1677949 0.1680075 0.1682214
 0.1684246 0.168616 0.168806 0.1690073 0.16922 0.1694354 0.1696515 0.1698731 0.1700962 0.1703089
 0.1705076 0.1707003 0.1708971 0.171105 0.171325 0.1715482 0.1717627 0.1719655 0.1721609 0.1723556
 0.1725589 0.1727753 0.1729967 0.1732121 0.173421 0.1736266 0.1738294 0.1740338 0.1742457 0.1744621
 0.1746774 0.1748953 0.1751186 0.1753392 0.1755513 0.1757588 0.1759659 0.1761748 0.1763895 0.176609
 0.1768266 0.1770415 0.1772528 0.1774423 0.1775649 0.1775076 0.176985 0.1754351 0.1720135 0.1657659
 0.1560108 0.1427759 0.1269423 0.1099264 0.09315661 0.07770975 0.06422066 0.05296972 0.04401569 0.03728198
 0.03261573 0.0298818 0.02906164 0.03036224 0.03433588 0.04155366 0.0513726 0.06084556 0.06586885 0.06442118
 0.0584918 0.05226258 0.04862913 0.04780013 0.0485443 0.0498103 0.05126336 0.05309087 0.05561925 0.05894287
 0.06290691 0.06751082 0.07310477 0.07994867 0.08768079 0.09546429 0.1027059 0.1095268 0.1164866 0.1239132
 0.1315573 0.1388382 0.1453111 0.1508954 0.155784 0.1602329 0.1644142 0.1683974 0.1722047 0.1758168
 0.1790977 0.1817668 0.1835334 0.1843185 0.1843543 0.1840567 0.1837814 0.183687 0.1837846 0.1840495
 0.1844653 0.1850158 0.185681 0.186437 0.1872485 0.1880775 0.1889004 0.1897036 0.1904723 0.1911962
 0.1918761 0.1925123 0.193098 0.1936288 0.1941099 0.1945506 0.1949574 0.1953314 0.1956736 0.1959941
 0.1963109 0.1966322 0.1969462 0.197235 0.1974918 0.1977221 0.1979368 0.1981459 0.1983538 0.1985592
 0.1987626 0.198969 0.1991813 0.1993971 0.199613 0.1998257 0.2000331 0.200237 0.2004406 0.2006398
 0.2008248 0.2009942 0.2011609 0.2013398 0.2015336 0.2017348 0.2019366 0.2021394 0.2023453 0.2025491
 0.2027418 0.2029238 0.2031067 0.2033004 0.2035069 0.2037264 0.2039575 0.2041897 0.2044103 0.2046162
 0.2048115 0.2050012 0.2051946 0.2054037 0.2056236 0.2058276 0.2059944 0.2061359 0.2062902 0.2064864
 0.2067169 0.2069466 0.2071499 0.207335 0.2075256 0.2077297 0.2079358 0.2081288 0.2083053 0.2084828
 0.2086911 0.2089426 0.2092185 0.2094921 0.2097497 0.2099862 0.2102019 0.2104117 0.2106278 0.2108315
 0.2109921 0.2111206 0.211283 0.2115428 0.2118928 0.2122534 0.2125494 0.2127786 0.2129923 0.2132331
 0.2135102 0.2137931 0.213994 0.2140252 0.2139371 0.2139417 0.2142216 0.2147489 0.2153377 0.2158319
 0.2161982 0.216483 0.2167332 0.2169508 0.2170935 0.2171245 0.217086 0.2171226 0.2173833 0.217868
 0.2184123 0.2188544 0.2191646 0.2193908 0.2195703 0.2197262 0.2198295 0.2197396 0.2193513 0.2188699
 0.2187648 0.2193131 0.2202838 0.2211841 0.2217484 0.2220745 0.2223492 0.2226204 0.2228444 0.222926
 0.2226187 0.2216699 0.2203149 0.2194055 0.2197055 0.2211228 0.2228611 0.2242169 0.2250193 0.2254447
 0.2257108 0.2259323 0.2260314 0.2257473 0.2249311 0.2239293 0.2234903 0.2240758 0.2253428 0.2265099
 0.2271507 0.2274159 0.227616 0.2278762 0.2280557 0.2277011 0.2262988 0.224032 0.2221716 0.2221828
 0.2242871 0.2271945 0.229383 0.2304096 0.2307906 0.2308773 0.2303363 0.2287505 0.2262533 0.2234658
 0.2212889 0.220778 0.2224507 0.2254153 0.2278739 0.228895 0.2291996 0.2299707 0.2314382 0.2328939
 0.2336104 0.2334034 0.2324982 0.2311262 0.2294216 0.2278026 0.2271877 0.2283388 0.2309344 0.2336919
 0.2355487 0.2364657 0.236872 0.2364198 0.2337259 0.2280374 0.2213225 0.2177291 0.2199209 0.2262929
 0.2326959 0.2365151 0.2381057 0.2388527 0.2393141 0.2390594 0.2369174 0.2316194 0.2237946 0.2172221
 0.2162688 0.221565 0.2292938 0.2347604 0.235587 0.2319521 0.2257499 0.2200351 0.2177756 0.2200523
 0.2255863 0.2320027 0.2372551 0.2401921 0.240548 0.2388275 0.2362721 0.2345631 0.2346019 0.2351771
 0.2338901 0.2301904 0.2262944 0.2239287 0.2216547 0.2175218 0.2133473 0.2135139 0.2192761 0.226663
 0.2309401 0.2314059 0.2305366 0.2294752 0.2260779 0.217999 0.2071279 0.1996891 0.2008103 0.2092059
 0.2183205 0.2227461 0.2225216 0.2212332 0.2212217 0.2211864 0.2180166 0.2108582 0.2032075 0.1999855
 0.2023042 0.2064717 0.2083693 0.2067397 0.2017517 0.1936798 0.1852703 0.1826067 0.1899882 0.2046783
 0.2190384 0.2268143 0.2254395 0.2146913 0.1975829 0.1821927 0.1777369 0.1863211 0.2003811 0.2096311
 0.2092212 0.200622 0.1872481 0.1721184 0.1592391 0.1540471 0.1601735 0.175759 0.1934416 0.2039906
 0.2014199 0.1876767 0.173099 0.1689774 0.1772504 0.1891348 0.1949481 0.1928911 0.1876888 0.1845318
 0.1860883 0.1919888 0.199212 0.2049339 0.208783 0.2096479 0.2026468 0.184991 0.1637515 0.1511993
 0.1520688 0.161143 0.1730589 0.1871196 0.2008903 0.2069 0.2010591 0.1903945 0.1870579 0.1954264
 0.2083613 0.2159425 0.2152893 0.2110879 0.2083745 0.2071794 0.2050157 0.202666 0.2044051 0.212088
 0.2219062 0.2286422 0.2310993 0.2316276 0.2321394 0.2326606 0.2326723 0.2319782 0.2306347 0.2290947
 0.2280683 0.2277208 0.2275189 0.2270416 0.2259605 0.2228116 0.2153099 0.2035585 0.1920909 0.1862754
 0.1866213 0.189156 0.1913407 0.1935487 0.1935371 0.1848948 0.1655052 0.1444914 0.1355721 0.1438013
 0.1618073 0.1781991 0.1862917 0.1846831 0.1738629 0.1564186 0.1397386 0.133685 0.142552 0.1609479
 0.1795531 0.1931388 0.2011462 0.2032394 0.1983349 0.1877722 0.1765641 0.170525 0.1727389 0.182215
 0.1942122 0.2014478 0.1976687 0.1838823 0.1710855 0.1721373 0.1882628 0.2069933 0.2161796 0.2162851
 0.2154182 0.216728 0.2168621 0.2148416 0.2156004 0.2232289 0.2349679 0.243936 0.2451761 0.2376111
 0.2233998 0.2084271 0.2007643 0.2041581 0.2137008 0.2211126 0.2227217 0.2189607 0.2094839 0.1952245
 0.1835678 0.1839062 0.1967593 0.2125527 0.2224991 0.2266025 0.229661 0.2330075 0.2328927 0.2261647
 0.2155331 0.2079008 0.2075422 0.2123697 0.2174799 0.2203274 0.2207572 0.2180741 0.2114736 0.2033747
 0.1994565 0.2037229 0.2143334 0.2252879 0.2317679 0.233154 0.2316359 0.2293668 0.2270021 0.2238768
 0.2194637 0.2152407 0.2143858 0.2183875 0.224687 0.2293154 0.2314346 0.2336092 0.2377758 0.2425775
 0.2450169 0.2437257 0.2402625 0.2377504 0.2383719 0.2416418 0.2447703 0.245042 0.2423982 0.2397342
 0.2402301 0.244313 0.2496006 0.2536178 0.2558147 0.2570435 0.2580981 0.2590161 0.2590448 0.2572091
 0.2536963 0.2506478 0.2506329 0.2540992 0.2589544 0.2627342 0.2645864 0.2651057 0.2649728 0.2642522
 0.262802 0.2609197 0.25935 0.2587004 0.2590035 0.2598656 0.2608709 0.2617691 0.2624528 0.2629212
 0.2632329 0.263431 0.2635368 0.2636036 0.2636824 0.2637286 0.2636523 0.2634932 0.2634434 0.2636331
 0.2639651 0.2642232 0.2642706 0.2640587 0.2635146 0.2625639 0.2612679 0.259807 0.2582808 0.2566362
 0.2549055 0.2534799 0.2530013 0.2538804 0.2559153 0.2584089 0.2606478 0.2622654 0.2632478 0.2637457
 0.2639365 0.2639723 0.2639471 0.2638783 0.2637383 0.2635101 0.2632113 0.2628713 0.2625069 0.2621313
 0.2617733 0.2614653 0.2612031 0.2609356 0.2606041 0.260184 0.2596918 0.259162 0.2586171 0.2580442
 0.2574004 0.2566499 0.255794 0.254871 0.2539395 0.2530577 0.2522496 0.2514864 0.2507153 0.2499009
 0.2490158 0.2480154 0.2468779 0.2456787 0.2445746 0.2436827 0.2429899 0.2423866 0.2417598 0.2410401
 0.2401974 0.2392354 0.2381872 0.237092 0.2359697 0.234822 0.2336439 0.2324192 0.231117 0.2297105
 0.2281987 0.2266074 0.224975 0.2233319 0.2216695 0.2199176 0.2179546 0.215641 0.2128522 0.2095023
 0.205571 0.2011261 0.1963244 0.1913774 0.1864922 0.1818286 0.1775009 0.1736051 0.1702299 0.1674487
 0.165317 0.1638775 0.1631576 0.1631618 0.1638706 0.1652412 0.1672024 0.1696484 0.1724404 0.1754152
 0.1783985 0.1812297 0.1838108 0.1861507 0.1883402 0.19045 0.1924597 0.1943004 0.1959372 0.1973786
 0.1986268 0.1996669 0.200507 0.2011945 0.2017836 0.2022984 0.2027355 0.2030938 0.2033915 0.2036506
 0.2038785 0.2040738 0.2042447 0.2044116 0.2045972 0.204817 0.2050745 0.2053712 0.2057234 0.2061559
 0.2066692 0.2072278 0.2077953 0.2083682 0.2089682 0.2096168 0.2103335 0.2111494 0.2121052 0.2132277
 0.2145056 0.2158878 0.2172988 0.218652 0.2198603 0.2208557 0.2216055 0.2221089 0.2223838 0.2224606
 0.2223763 0.2221636 0.2218492 0.2214575 0.2210065 0.2205035 0.2199548 0.2193704 0.2187523 0.2180916
 0.2173888 0.2166661 0.2159511 0.2152545 0.2145715 0.2138997 0.2132506 0.2126356 0.212047 0.2114614
 0.2108672 0.2102745 0.2096962 0.2091298 0.2085623 0.2079763 0.2073435 0.2066301 0.2058181 0.2049123
 0.2039171 0.2028193 0.201606 0.2002924 0.1989113 0.1974785 0.1959817 0.1944059 0.1927563 0.1910456
 0.1892642 0.1873815 0.1853884 0.1833358 0.1813219 0.1794365 0.1777162 0.1761426 0.1746728 0.1732753
 0.1719415 0.1706692 0.1694443 0.1682531 0.1671017 0.1660073 0.1649754 0.1640007 0.1630869 0.1622545
 0.1615276 0.1609124 0.1603903 0.1599391 0.1595565 0.1592538 0.1590357 0.1589008 0.1588477 0.1588583
 0.1588856 0.158877 0.1588075 0.1586875 0.1585507 0.1584331 0.158352 0.1583024 0.1582664 0.1582114
 0.1580778 0.1577835 0.1572419 0.1563827 0.1551771 0.1536527 0.1518853 0.1499922 0.1481292 0.1464448
 0.1450157 0.1438523 0.1429535 0.1423064 0.1418462 0.1414811 0.1411717 0.1409619 0.1409292 0.1410937
 0.1413578 0.1415608 0.1416308 0.141657 0.1417998 0.1421629 0.1427457 0.1434593 0.1441822 0.1448328
 0.1453825 0.145805 0.1460762 0.1462194 0.1462826 0.1462712 0.1461592 0.1459469 0.1456647 0.1453421
 0.1449886 0.1445788 0.1440732 0.1434757 0.1428264 0.1421305 0.1413556 0.1404836 0.1394931 0.1383442
 0.1370831 0.1359272 0.1351659 0.1349881 0.1353925 0.1362032 0.1371931 0.1382346 0.1392601 0.1400758
 0.1404269 0.140389 0.1405503 0.1415891 0.1436386 0.1461388 0.148324 0.1497779 0.1504982 0.1505997
 0.1501506 0.1492073 0.1477905 0.1458543 0.1434048 0.1405682 0.1374902 0.1343157 0.1312688 0.1285678
 0.1262894 0.1244287 0.122983 0.1219954 0.1215923 0.1213973 0.1195076 0.1134838 0.1041222 0.09713615
 0.09834129 0.1071096 0.1168151 0.1218276 0.1219858 0.120286 0.1188015 0.117842 0.1172956 0.1173142
 0.1180415 0.1193347 0.1207935 0.1220019 0.1227816 0.123164 0.1231097 0.1222651 0.1198965 0.1151509
 0.1077456 0.09855935 0.08933616 0.08167904 0.07632633 0.07315841 0.07155266 0.07075273 0.07023498 0.06994684
 0.07019641 0.07128107 0.07323557 0.0759037 0.07910166 0.08257951 0.08592145 0.08871722 0.09086973 0.09257933
 0.09400125 0.0950571 0.09559809 0.09561394 0.09523207 0.09460448 0.09385099 0.09304742 0.09218641 0.09117626
 0.08998521 0.08879888 0.08792014 0.08747725 0.08733264 0.08729267 0.08728365 0.08730488 0.08733541 0.08733127
 0.08726544 0.08717896 0.08720362 0.0874656 0.08793792 0.08844149 0.08880159 0.08897413 0.08902957 0.08900958
 0.08879402 0.08821562 0.08737218 0.08663449 0.08616626 0.08562703 0.08461437 0.08328178 0.08224624 0.0819241
 0.08216737 0.08252437 0.08265723 0.08249933 0.08221943 0.08213621 0.08250193 0.08319899 0.08373962 0.08372419
</values></Ydata></ScRf><Data_Parameters_AB><parameter name="DPF">1</parameter><parameter name="NPT">3497</parameter><parameter name="FXV">3996</parameter><parameter name="LXV">500</parameter><parameter name="CSF">1</parameter><parameter name="MXY">0.0654088407754898</parameter><parameter name="MNY">-0.0930603444576263</parameter><parameter name="DAT">31/05/2022</parameter><parameter name="TIM">14:29:30.180 (GMT+2)</parameter><parameter name="DXU">WN</parameter></Data_Parameters_AB><AB__Qtest><MainReport name="Quality Test Report"><Header><Line><Legend>Test result ok/not ok [1/0]: </Legend><Value>0</Value></Line><Line><Legend>Method file: </Legend><Value>C:\Users\Public\Documents\Bruker\OPUS_8.2.28\QT\IRBT_v3_default.QT</Value></Line></Header><Matrix><Line><Legend></Legend><Legend>min</Legend><Legend>max</Legend><Legend>measured</Legend></Line><Line><Value>Absorption (X-Range 1):</Value><Value>0.400000</Value><Value>2.000000</Value><Value>0.102147</Value></Line><Line><Value>Noise (X-Range 4):</Value><Value></Value><Value>0.000300</Value><Value>0.000051</Value></Line><Line><Value>Signal/Noise (X-Range 2):</Value><Value>200.000000</Value><Value></Value><Value>30.591774</Value></Line><Line><Value>Signal/Noise (X-Range 3):</Value><Value>40.000000</Value><Value></Value><Value>14.689976</Value></Line><Line><Value>Water vapour (X-Range 5):</Value><Value></Value><Value>0.000300</Value><Value>0.000030</Value></Line><Line><Value>Signal/Water (X-Range 2):</Value><Value>100.000000</Value><Value></Value><Value>52.561736</Value></Line><Line><Value>Signal/Water (X-Range 3):</Value><Value>20.000000</Value><Value></Value><Value>25.239812</Value></Line><Line><Value>Fringes (X-Range 6):</Value><Value></Value><Value>0.000100</Value><Value>0.000080</Value></Line></Matrix></MainReport></AB__Qtest><Data_Parameters_ScSm><parameter name="DPF">1</parameter><parameter name="NPT">1814</parameter><parameter name="FXV">3996.33169228125</parameter><parameter name="LXV">499.541461535156</parameter><parameter name="CSF">1</parameter><parameter name="MXY">0.273296684026718</parameter><parameter name="MNY">0.0344918742775917</parameter><parameter name="DAT">31/05/2022</parameter><parameter name="TIM">14:29:30.180 (GMT+2)</parameter><parameter name="DXU">WN</parameter></Data_Parameters_ScSm><Data_Parameters_ScRf><parameter name="DPF">1</parameter><parameter name="NPT">1820</parameter><parameter name="FXV">4004.04661832813</parameter><parameter name="LXV">495.683998511719</parameter><parameter name="CSF">1</parameter><parameter name="MXY">0.265105664730072</parameter><parameter name="MNY">0.0290616359561682</parameter><parameter name="DAT">31/05/2022</parameter><parameter name="TIM">14:29:03.664 (GMT+2)</parameter><parameter name="DXU">WN</parameter></Data_Parameters_ScRf><Optic_Parameters_Rf><parameter name="APR">0</parameter><parameter name="APT">Open</parameter><parameter name="BMS">KBr</parameter><parameter name="DTC">RT-DLaTGS_IR-Biotyper [Microplate reader]</parameter><parameter name="HPF">0</parameter><parameter name="LPF">10.0</parameter><parameter name="LPV">4000</parameter><parameter name="PGR">0</parameter><parameter name="RCH">Module port</parameter><parameter name="RDX">0</parameter><parameter name="SRC">MIR</parameter><parameter name="VEL">10.0</parameter><parameter name="SON">Off</parameter></Optic_Parameters_Rf><Acquisition_Parameters_Rf><parameter name="ADT">1</parameter><parameter name="AQM">DD</parameter><parameter name="CFE">0</parameter><parameter name="COR">0</parameter><parameter name="DEL">0</parameter><parameter name="DLY">0</parameter><parameter name="HFW">8000</parameter><parameter name="LFW">0</parameter><parameter name="NSR">32</parameter><parameter name="PLF">AB</parameter><parameter name="RES">6</parameter><parameter name="RGN">-1</parameter><parameter name="STR">0</parameter><parameter name="TCL">MakeCompatibleScalar (0, {WSV=1.000000, ARV=0});</parameter><parameter name="TDL">37</parameter><parameter name="RPO">0</parameter></Acquisition_Parameters_Rf><FT_-_Parameters_Rf><parameter name="APF">B3</parameter><parameter name="HFQ">500</parameter><parameter name="LFQ">4000</parameter><parameter name="NLI">0</parameter><parameter name="PHR">24</parameter><parameter name="PHZ">ML</parameter><parameter name="SPZ">NO</parameter><parameter name="ZFF">1</parameter></FT_-_Parameters_Rf><Optic_Parameters_><parameter name="APR">0</parameter><parameter name="APT">Open</parameter><parameter name="BMS">KBr</parameter><parameter name="CHN">Module port</parameter><parameter name="DTC">RT-DLaTGS_IR-Biotyper [Microplate reader]</parameter><parameter name="HPF">0</parameter><parameter name="LPF">10.0</parameter><parameter name="LPV">4000</parameter><parameter name="PGN">0</parameter><parameter name="RDX">0</parameter><parameter name="SRC">MIR</parameter><parameter name="VEL">10.0</parameter><parameter name="SON">Off</parameter></Optic_Parameters_><FT_-_Parameters_><parameter name="APF">B3</parameter><parameter name="HFQ">500</parameter><parameter name="LFQ">4000</parameter><parameter name="NLI">0</parameter><parameter name="PHR">24</parameter><parameter name="PHZ">ML</parameter><parameter name="SPZ">NO</parameter><parameter name="ZFF">1</parameter></FT_-_Parameters_><Acquisition_Parameters_><parameter name="ADT">1</parameter><parameter name="AQM">DD</parameter><parameter name="CFE">0</parameter><parameter name="COR">0</parameter><parameter name="DEL">0</parameter><parameter name="DLY">0</parameter><parameter name="HFW">8000</parameter><parameter name="LFW">0</parameter><parameter name="NSS">32</parameter><parameter name="PLF">AB</parameter><parameter name="RES">6</parameter><parameter name="SOT">0</parameter><parameter name="TCL">MakeCompatibleScalar (0, {WSV=1.000000, ARV=0});</parameter><parameter name="TDL">37</parameter><parameter name="SPO">0</parameter><parameter name="SGN">-1</parameter></Acquisition_Parameters_><Instrument_Parameters_Rf><parameter name="HFL">15800.168544</parameter><parameter name="LFL">0</parameter><parameter name="LWN">15800.168544</parameter><parameter name="ABP">32197</parameter><parameter name="SSP">1</parameter><parameter name="ARG">2</parameter><parameter name="ASG">2</parameter><parameter name="ASS">32</parameter><parameter name="GFW">16</parameter><parameter name="GBW">16</parameter><parameter name="BFW">0</parameter><parameter name="BBW">0</parameter><parameter name="PKA">7262</parameter><parameter name="PKL">4996</parameter><parameter name="PRA">7448</parameter><parameter name="PRL">5001</parameter><parameter name="P2A">1</parameter><parameter name="P2L">1</parameter><parameter name="P2R">1</parameter><parameter name="P2K">1</parameter><parameter name="DAQ">0</parameter><parameter name="AG2">1</parameter><parameter name="SSM">1</parameter><parameter name="RSN">25801</parameter><parameter name="CRR">0</parameter><parameter name="SRT">1654007343.665</parameter><parameter name="DUR">19.6379852294922</parameter><parameter name="TSC">29.1</parameter><parameter name="MVD">0.264275521039963</parameter><parameter name="AN1">0.225803497553893</parameter><parameter name="AN2">0</parameter><parameter name="VSN">2.485 Apr  4 2017</parameter><parameter name="SRN">0085</parameter><parameter name="CAM">0</parameter><parameter name="INS">IR-Biotyper</parameter><parameter name="FOC">69</parameter><parameter name="RDY">1</parameter><parameter name="ARS">32</parameter></Instrument_Parameters_Rf><Sample_Parameters_><parameter name="BLD"></parameter><parameter name="CNM">Admin</parameter><parameter name="CPY"></parameter><parameter name="DPM"></parameter><parameter name="EXP">IRBT_v3_32Scans.XPM</parameter><parameter name="LCT"></parameter><parameter name="SFM">Microplate, HTS-XT</parameter><parameter name="SNM">220531-1301_RTF49M (D_4)_H10_36aed1e9-e2a2-4d7b-a16d-dd5118a54efe.0</parameter><parameter name="XPP">C:\Users\Public\Documents\Bruker\OPUS_8.2.28\XPM</parameter><parameter name="IST">OK</parameter><parameter name="CPG">1252</parameter><parameter name="UID">cd2600d6-22e9-4d4f-8ad9-3805155e1eae</parameter></Sample_Parameters_><Instrument_Parameters_><parameter name="HFL">15800.168544</parameter><parameter name="LFL">0</parameter><parameter name="LWN">15800.168544</parameter><parameter name="ABP">32197</parameter><parameter name="SSP">1</parameter><parameter name="ASG">2</parameter><parameter name="ARG">2</parameter><parameter name="ASS">32</parameter><parameter name="GFW">16</parameter><parameter name="GBW">16</parameter><parameter name="BFW">0</parameter><parameter name="BBW">0</parameter><parameter name="PKA">7890</parameter><parameter name="PKL">4988</parameter><parameter name="PRA">8199</parameter><parameter name="PRL">4993</parameter><parameter name="P2A">1</parameter><parameter name="P2L">1</parameter><parameter name="P2R">1</parameter><parameter name="P2K">1</parameter><parameter name="DAQ">0</parameter><parameter name="AG2">1</parameter><parameter name="SSM">1</parameter><parameter name="RSN">13526</parameter><parameter name="CRR">0</parameter><parameter name="SRT">1654007370.18</parameter><parameter name="DUR">19.6379852294922</parameter><parameter name="TSC">29.1</parameter><parameter name="MVD">0.243758887052536</parameter><parameter name="AN1">0.22580448353676</parameter><parameter name="AN2">0</parameter><parameter name="VSN">2.485 Apr  4 2017</parameter><parameter name="SRN">0085</parameter><parameter name="CAM">0</parameter><parameter name="INS">IR-Biotyper</parameter><parameter name="FOC">69</parameter><parameter name="RDY">1</parameter></Instrument_Parameters_><History/></OPUSDataFile>
