<?xml version="1.0" encoding="UTF-8" ?>
<OPUSDataFile><AB><Ydata ylabel="Absorbance Units"><values byteorder="INTEL" format="FLOAT32" numvalues="3497"> -0.06431372 -0.06430013 -0.06428619 -0.06427188 -0.06425861 -0.06424642 -0.06422707 -0.06420069 -0.06416549 -0.06412373
 -0.06408796 -0.06405966 -0.06405212 -0.06406181 -0.06408742 -0.06412459 -0.06416421 -0.06420809 -0.06425447 -0.06430658
 -0.06436887 -0.06443494 -0.0645043 -0.06456503 -0.06461135 -0.06464193 -0.06465382 -0.06465705 -0.0646529 -0.06464782
 -0.06464277 -0.06463747 -0.06463195 -0.06463037 -0.06463329 -0.06465009 -0.06467966 -0.06472135 -0.06477117 -0.06481396
 -0.06484817 -0.06486023 -0.0648566 -0.06484037 -0.06482134 -0.06481338 -0.0648177 -0.06484299 -0.06487669 -0.06491619
 -0.06494465 -0.06495421 -0.06493948 -0.0648949 -0.06483494 -0.06475928 -0.06469432 -0.06464261 -0.06462211 -0.06463398
 -0.06467396 -0.06474066 -0.06481397 -0.06489284 -0.06496025 -0.06501767 -0.06506136 -0.06509314 -0.0651153 -0.06512921
 -0.06513698 -0.06514235 -0.06515013 -0.06516343 -0.06518829 -0.06521915 -0.06525695 -0.06528784 -0.06530663 -0.06530519
 -0.06527821 -0.06523491 -0.06517428 -0.06511794 -0.06506746 -0.06504436 -0.06504996 -0.06509497 -0.06517838 -0.06529059
 -0.06542658 -0.06555177 -0.0656606 -0.0657103 -0.06570821 -0.06564585 -0.06554402 -0.06543449 -0.0653292 -0.06525823
 -0.06521358 -0.06520195 -0.06520286 -0.06520606 -0.06520013 -0.06517348 -0.06514384 -0.06511075 -0.06510546 -0.06513521
 -0.06520429 -0.06531647 -0.06543425 -0.06555571 -0.06563836 -0.06568293 -0.06569126 -0.06566967 -0.06565931 -0.0656625
 -0.06571347 -0.06580162 -0.06592204 -0.06605494 -0.06616266 -0.06623825 -0.06625222 -0.06622501 -0.06616189 -0.06608573
 -0.06601244 -0.0659487 -0.06589949 -0.06587078 -0.06586261 -0.06589191 -0.06596182 -0.06608301 -0.06626 -0.06645975
 -0.06668122 -0.06681517 -0.06685884 -0.06674226 -0.0664856 -0.06618743 -0.0658613 -0.06561372 -0.06543516 -0.06535491
 -0.06536024 -0.0654463 -0.06559344 -0.06578259 -0.0659817 -0.06616016 -0.06629247 -0.06634936 -0.06634483 -0.06627117
 -0.06617282 -0.06606008 -0.06596234 -0.06588759 -0.06584006 -0.06582133 -0.06582782 -0.06585944 -0.06590836 -0.06597348
 -0.06603661 -0.06609637 -0.06613269 -0.06614868 -0.06614435 -0.0661258 -0.06611163 -0.06609728 -0.06608483 -0.06606459
 -0.06602036 -0.06596217 -0.06588802 -0.06582346 -0.06578322 -0.06578127 -0.06583086 -0.0659181 -0.0660458 -0.06617948
 -0.06631439 -0.06642148 -0.06649649 -0.06653085 -0.0665237 -0.06647795 -0.06639424 -0.0662823 -0.0661439 -0.06599461
 -0.06583694 -0.06568813 -0.06555095 -0.06544115 -0.06535968 -0.06531736 -0.06530827 -0.06533258 -0.06537554 -0.06542603
 -0.06547017 -0.06549443 -0.06550119 -0.06548547 -0.0654642 -0.06544073 -0.06542852 -0.06543127 -0.06545012 -0.0654857
 -0.06553578 -0.06560027 -0.06567831 -0.06576927 -0.06586351 -0.06595834 -0.06602979 -0.06607778 -0.06608573 -0.06606268
 -0.06602202 -0.06597496 -0.06594956 -0.06594604 -0.06597877 -0.06603564 -0.06611086 -0.06619592 -0.06628086 -0.06637423
 -0.06647655 -0.06659836 -0.06674623 -0.06690711 -0.06708278 -0.06723964 -0.06737485 -0.06745846 -0.06748848 -0.06743813
 -0.06730757 -0.06709408 -0.06680708 -0.06650966 -0.06621232 -0.06599446 -0.06585027 -0.06581046 -0.06585152 -0.06595095
 -0.06607584 -0.06617148 -0.06623287 -0.06622856 -0.06619153 -0.06613303 -0.06607731 -0.06604093 -0.06601899 -0.06601702
 -0.06600752 -0.06598698 -0.06593052 -0.06583248 -0.06570763 -0.06555585 -0.0654277 -0.06532533 -0.06528991 -0.0653183
 -0.06541277 -0.06556074 -0.06571665 -0.06586298 -0.06592305 -0.06590656 -0.06578498 -0.06560219 -0.06540529 -0.06521668
 -0.06508008 -0.06497625 -0.06490939 -0.064847 -0.06477259 -0.06468263 -0.06456736 -0.06445938 -0.06436367 -0.06430113
 -0.06427783 -0.06426858 -0.06427284 -0.06423467 -0.06415282 -0.06400133 -0.06378877 -0.06356616 -0.06334017 -0.06316993
 -0.06304523 -0.0629681 -0.06292903 -0.06291036 -0.06291033 -0.06292243 -0.06293857 -0.06295361 -0.06294854 -0.06290875
 -0.06282904 -0.06269987 -0.06253859 -0.06235018 -0.06213751 -0.0619038 -0.06163475 -0.06132797 -0.06098576 -0.06060763
 -0.06021586 -0.05981202 -0.0594251 -0.05905714 -0.05873781 -0.05846616 -0.05825776 -0.0581028 -0.05798444 -0.05789072
 -0.05778951 -0.05768064 -0.05755203 -0.05740333 -0.05723632 -0.05703118 -0.05677468 -0.05645936 -0.0560694 -0.05564484
 -0.05519314 -0.05474848 -0.05432103 -0.05391141 -0.05352117 -0.05314335 -0.05277734 -0.05242681 -0.0520924 -0.05178834
 -0.05151447 -0.05128005 -0.05107779 -0.05088697 -0.05069032 -0.05042589 -0.05009259 -0.04964577 -0.04912855 -0.04857895
 -0.04803085 -0.04753676 -0.04708435 -0.04668388 -0.04630838 -0.04594754 -0.04558787 -0.04522165 -0.04485257 -0.04448066
 -0.044107 -0.04373312 -0.04334386 -0.04293846 -0.04249744 -0.04202068 -0.04150919 -0.04096593 -0.04041489 -0.03985725
 -0.03931091 -0.03877436 -0.03825078 -0.03774291 -0.03725749 -0.03679673 -0.03637078 -0.03596673 -0.03557924 -0.03518876
 -0.03477868 -0.03434792 -0.03389063 -0.03341584 -0.03292784 -0.03241852 -0.03188693 -0.03132554 -0.03073023 -0.03013098
 -0.02952906 -0.02896677 -0.02844496 -0.02797132 -0.02754245 -0.02713591 -0.02674737 -0.02634619 -0.02593083 -0.02547841
 -0.02499671 -0.02448709 -0.02396426 -0.02345061 -0.02294906 -0.02247655 -0.02201088 -0.02154545 -0.02105361 -0.02051553
 -0.01994393 -0.01933292 -0.01872574 -0.01813092 -0.01757119 -0.01705295 -0.01656003 -0.01609242 -0.01561421 -0.01512413
 -0.01460156 -0.01404906 -0.01347836 -0.01289204 -0.01230985 -0.01172767 -0.01114336 -0.01055363 -0.00994669 -0.009333028
 -0.008719928 -0.008122092 -0.007559737 -0.007028666 -0.006536131 -0.006061277 -0.005596245 -0.005128104 -0.004648979 -0.00416526
 -0.003676558 -0.003192349 -0.0027151 -0.00223693 -0.001757818 -0.00125923 -0.0007408051 -0.0002000087 0.0003605124 0.0009193421
 0.001474964 0.002007452 0.002521231 0.003018319 0.003504177 0.003991952 0.004480618 0.004976253 0.005470569 0.005958659
 0.006431733 0.006880438 0.007307878 0.007708539 0.008105746 0.008502986 0.008929569 0.009393646 0.009902168 0.01045936
 0.01104277 0.01165163 0.01225315 0.01284585 0.01340491 0.01393075 0.01441489 0.01486069 0.01527761 0.01567088
 0.0160606 0.01644943 0.01685344 0.01726916 0.01769992 0.01813765 0.01857611 0.01900864 0.01942743 0.0198349
 0.02022849 0.02061872 0.02100894 0.02140334 0.02180496 0.02220425 0.02260012 0.02298708 0.02336399 0.02374512
 0.02413129 0.02454129 0.02497378 0.02542622 0.02589394 0.02635379 0.02680309 0.02722029 0.02760945 0.02796681
 0.02830136 0.02862428 0.02894108 0.02926268 0.0295861 0.02991232 0.03023874 0.03056277 0.03088958 0.03122069
 0.03155799 0.03190344 0.0322485 0.03259189 0.03293094 0.03326485 0.0336056 0.03395362 0.03431531 0.03468949
 0.03506735 0.03544894 0.03582928 0.03621093 0.03660078 0.03699673 0.03740001 0.03780218 0.03819165 0.03856318
 0.03890603 0.03922295 0.03951146 0.03977903 0.04002766 0.04026604 0.04049721 0.04072684 0.04095708 0.04118759
 0.04141862 0.04164874 0.04187758 0.04211063 0.04234829 0.04259984 0.04286537 0.04315002 0.04345246 0.04377041
 0.04410014 0.04443058 0.04475616 0.04505928 0.04533912 0.04558369 0.04580424 0.04600529 0.0462033 0.04641262
 0.04663672 0.04688506 0.04713922 0.04739733 0.04763483 0.04784457 0.04802153 0.04816197 0.04828645 0.04839613
 0.04851119 0.0486321 0.04875283 0.04887156 0.04896715 0.04904126 0.04908892 0.04911723 0.04914481 0.04917807
 0.04924051 0.04933127 0.04946157 0.04962108 0.04980602 0.04999995 0.0501895 0.05036756 0.05052279 0.05067236
 0.05081714 0.05098288 0.05117909 0.0513987 0.05164663 0.05187003 0.05206558 0.05218066 0.05221365 0.05216874
 0.05205181 0.05192206 0.05178312 0.05168715 0.05162596 0.05160102 0.05160415 0.05161442 0.05163946 0.05168094
 0.05174813 0.05185813 0.05199363 0.05215324 0.05230333 0.0524237 0.05250843 0.05254484 0.05256627 0.05257725
 0.05260734 0.05266447 0.05273625 0.0528237 0.05288599 0.05292128 0.05290288 0.05283321 0.05272418 0.05258252
 0.05244763 0.05232441 0.05225008 0.05222221 0.05225659 0.05234106 0.05246864 0.05261758 0.05276584 0.05289041
 0.0529658 0.05298906 0.05294586 0.0528653 0.05275027 0.05264089 0.05254688 0.05249052 0.0524768 0.05251126
 0.05259457 0.05273376 0.05292909 0.05318277 0.05349148 0.05382562 0.05417559 0.05447695 0.05472263 0.05485057
 0.05487294 0.05477627 0.05459875 0.05438621 0.05418145 0.05405163 0.0540012 0.05406743 0.05419589 0.05437848
 0.05453664 0.05464073 0.05464983 0.05454222 0.05434526 0.054055 0.05374168 0.05341049 0.05311982 0.05287228
 0.05268002 0.05254068 0.05243323 0.05235619 0.05229032 0.05223798 0.05219715 0.05216946 0.05216022 0.05216284
 0.05217427 0.05217564 0.0521492 0.05207206 0.05191964 0.05168858 0.0513634 0.05097673 0.05053058 0.05007697
 0.04962729 0.04921916 0.04886102 0.04856109 0.04832184 0.04812789 0.04797825 0.0478401 0.04771161 0.04755956
 0.04738715 0.04719185 0.04698231 0.04678812 0.04660891 0.04646435 0.04633506 0.04620133 0.04604399 0.04582927
 0.04556627 0.04524328 0.04489877 0.04454593 0.04422392 0.04395163 0.04373894 0.04359717 0.04349333 0.04342863
 0.04333793 0.04321607 0.04300849 0.04271267 0.0423306 0.04186758 0.04138262 0.04088173 0.04042998 0.04002367
 0.03968729 0.03940866 0.0391732 0.03897053 0.03877767 0.03859117 0.03839901 0.0382004 0.03799162 0.03777144
 0.03753721 0.03729293 0.03703737 0.03678373 0.03653479 0.03630055 0.03608473 0.03587715 0.03567807 0.03546406
 0.03523399 0.03497664 0.03469323 0.03439413 0.03408154 0.03377296 0.03346906 0.03318141 0.03290899 0.03265616
 0.03241925 0.03219625 0.03197918 0.03175944 0.03152929 0.03127866 0.03100925 0.03071705 0.03041407 0.03010341
 0.029795 0.02949321 0.02919461 0.02889997 0.02859916 0.02829075 0.02797708 0.0276583 0.02735173 0.02705773
 0.02678726 0.02653708 0.02629519 0.02605734 0.02580143 0.02552835 0.0252278 0.02490609 0.02456768 0.02422052
 0.02387344 0.02353638 0.02321723 0.0229298 0.02268309 0.02248581 0.02234723 0.02225188 0.02220407 0.0221541
 0.02209802 0.02197488 0.02177757 0.02148238 0.02108799 0.0206338 0.02012491 0.019635 0.01916674 0.0187755
 0.01845481 0.01821569 0.01804213 0.01790697 0.01778837 0.01763932 0.01744809 0.01717621 0.01684481 0.01644982
 0.01603826 0.0156356 0.0152656 0.01494981 0.01466262 0.0144026 0.0141412 0.01386861 0.01360982 0.01336391
 0.01319076 0.01309353 0.0130909 0.01317739 0.01329091 0.01342014 0.01346477 0.01342555 0.01324434 0.0129455
 0.01255225 0.01209721 0.01164733 0.01121033 0.01082755 0.01047433 0.01014352 0.009818048 0.00947832 0.009148925
 0.008831951 0.00856005 0.008348132 0.008178475 0.008054776 0.007922783 0.007776077 0.007599714 0.007392579 0.007201703
 0.007029106 0.006916763 0.006857607 0.006832067 0.006829723 0.006800069 0.006745466 0.006643462 0.006507957 0.00635297
 0.006185826 0.006024453 0.005858593 0.005689864 0.005495689 0.005264598 0.004980634 0.004630011 0.004229148 0.003772168
 0.003316286 0.002867371 0.002486312 0.002182076 0.001959047 0.001818035 0.001693131 0.001579913 0.001400532 0.001158663
 0.0008328639 0.0004382505 1.647056E-05 -0.000418666 -0.0008110573 -0.001161602 -0.001443618 -0.001671701 -0.001850152 -0.001998232
 -0.002131257 -0.002265882 -0.002416273 -0.002586785 -0.002786187 -0.002996058 -0.003215934 -0.003416204 -0.003589528 -0.003735235
 -0.003849636 -0.003977617 -0.004121527 -0.004325539 -0.004588075 -0.004896745 -0.005244485 -0.005578676 -0.005900929 -0.006185473
 -0.006446607 -0.006707801 -0.006975976 -0.007279104 -0.007602008 -0.007940138 -0.008272951 -0.008579441 -0.008857301 -0.009097636
 -0.009310319 -0.009499156 -0.0096628 -0.009803486 -0.009908013 -0.00997307 -0.009999789 -0.009985649 -0.009964188 -0.009937036
 -0.009957412 -0.01002717 -0.01018512 -0.01042676 -0.01074758 -0.01113461 -0.01153989 -0.01194939 -0.01230356 -0.0125995
 -0.01280218 -0.01292419 -0.01296425 -0.01294194 -0.01287203 -0.01276984 -0.01264749 -0.01251391 -0.0123743 -0.01223613
 -0.01210185 -0.01197788 -0.01186684 -0.01176388 -0.01167041 -0.01156054 -0.01143299 -0.01124709 -0.01100153 -0.01066807
 -0.01025093 -0.009760091 -0.009205607 -0.008629909 -0.008040605 -0.00747938 -0.006944209 -0.006451618 -0.005993559 -0.005566667
 -0.00516493 -0.00478295 -0.004415115 -0.004059236 -0.003703212 -0.003343418 -0.002965265 -0.002562484 -0.002136004 -0.001681701
 -0.001227495 -0.0007742663 -0.000363836 1.202541E-06 0.0002939563 0.0005150756 0.0006712402 0.0007662089 0.0008278704 0.0008579116
 0.0008771326 0.0008854991 0.0008905305 0.0008984544 0.0009210862 0.0009694226 0.001064011 0.001203017 0.001396881 0.001624202
 0.001876653 0.002134769 0.002386077 0.002633287 0.002873545 0.003118809 0.003371787 0.00363283 0.003902898 0.004173058
 0.004442879 0.004702301 0.004950068 0.005166297 0.005347704 0.005461384 0.005507244 0.005463013 0.005340131 0.005152524
 0.004919533 0.004682822 0.00444992 0.004255312 0.00407223 0.003901811 0.003680843 0.003379603 0.002932379 0.002301083
 0.001472249 0.0004224805 -0.0007792753 -0.002134065 -0.003518477 -0.004921269 -0.006234445 -0.007450141 -0.008529784 -0.009474754
 -0.01030877 -0.01103554 -0.01169129 -0.01227601 -0.01280711 -0.01328593 -0.01372185 -0.01412292 -0.01450702 -0.01488136
 -0.01526418 -0.01565163 -0.0160486 -0.01644336 -0.01683076 -0.01720112 -0.01754983 -0.01786981 -0.0181591 -0.01840955
 -0.01861953 -0.01878357 -0.01890083 -0.01896933 -0.01898893 -0.01895601 -0.01887104 -0.01873882 -0.01856478 -0.01838589
 -0.01821279 -0.01810923 -0.01807777 -0.01816355 -0.01834851 -0.01862603 -0.01896633 -0.0193297 -0.01969672 -0.02003488
 -0.02034447 -0.02061527 -0.02085784 -0.02107467 -0.02127211 -0.02145417 -0.02161474 -0.02175476 -0.02185811 -0.02192239
 -0.02194283 -0.02191805 -0.02188881 -0.0218603 -0.02192832 -0.02209958 -0.02247389 -0.02304121 -0.0238251 -0.02478892
 -0.02585436 -0.02697964 -0.02804874 -0.02905289 -0.02992535 -0.03069985 -0.03137961 -0.0320065 -0.03261023 -0.03320292
 -0.03380072 -0.03438687 -0.03496074 -0.03550285 -0.03600892 -0.03647111 -0.03688727 -0.0372628 -0.03759764 -0.037908
 -0.03819484 -0.03847606 -0.03875164 -0.03903008 -0.03930984 -0.03958969 -0.03986738 -0.04013713 -0.04039571 -0.0406343
 -0.04085165 -0.0410394 -0.04120746 -0.04135787 -0.04151105 -0.04168047 -0.04187704 -0.04211393 -0.0423717 -0.04265189
 -0.04291472 -0.04315262 -0.04334186 -0.04347624 -0.04357294 -0.04363209 -0.04369448 -0.04376135 -0.04385481 -0.0439717
 -0.04409832 -0.04423212 -0.04435231 -0.04446542 -0.04457698 -0.04469732 -0.04485121 -0.04503645 -0.04526509 -0.04551801
 -0.04578459 -0.04604304 -0.04627603 -0.04647494 -0.04663011 -0.04674776 -0.04682561 -0.04688113 -0.0469154 -0.04695345
 -0.04699796 -0.04707006 -0.04717173 -0.04730349 -0.04746444 -0.04763375 -0.0478099 -0.04797102 -0.04811839 -0.04824546
 -0.04835505 -0.04845165 -0.04853662 -0.04861447 -0.04868591 -0.04875341 -0.04881802 -0.04888238 -0.04894412 -0.04900346
 -0.04905492 -0.04909493 -0.04912548 -0.04914385 -0.0491659 -0.04919346 -0.0492433 -0.04931867 -0.04941886 -0.0495445
 -0.04967713 -0.04981583 -0.0499432 -0.05006013 -0.05016484 -0.05026022 -0.0503579 -0.05045909 -0.05057464 -0.05070038
 -0.05083541 -0.05097054 -0.0510936 -0.05119741 -0.0512685 -0.05131242 -0.05132421 -0.05132638 -0.05132514 -0.05134582
 -0.05139887 -0.05148983 -0.05162453 -0.05178222 -0.05196221 -0.05213598 -0.05230128 -0.05244572 -0.05256938 -0.05267876
 -0.05277497 -0.05286964 -0.05296272 -0.05306026 -0.05316101 -0.05326473 -0.05337 -0.05347395 -0.05357573 -0.05367264
 -0.05376543 -0.05385335 -0.05393887 -0.05402309 -0.05410868 -0.05419742 -0.05428921 -0.05438491 -0.05448127 -0.05457794
 -0.05467152 -0.05476126 -0.05484826 -0.05493248 -0.05501825 -0.05510565 -0.05519484 -0.05528498 -0.05536906 -0.05544671
 -0.05551156 -0.05556612 -0.05561325 -0.05565758 -0.05570961 -0.05577162 -0.05585187 -0.05594826 -0.05606264 -0.05618963
 -0.05632675 -0.05646879 -0.05661299 -0.05675589 -0.05689596 -0.05703126 -0.0571613 -0.05728438 -0.05740021 -0.05750779
 -0.05760694 -0.05769926 -0.05778501 -0.05786995 -0.05795452 -0.05804534 -0.058142 -0.05824693 -0.05835818 -0.05847205
 -0.05858563 -0.05869146 -0.05878786 -0.05886853 -0.05893572 -0.05898785 -0.05903205 -0.05907147 -0.0591146 -0.05916649
 -0.05922999 -0.05930832 -0.05939531 -0.05949089 -0.05958577 -0.05967852 -0.05976524 -0.05984537 -0.05992112 -0.0599926
 -0.06006181 -0.06012861 -0.060192 -0.06025235 -0.06031009 -0.06036702 -0.06042842 -0.06049599 -0.06057645 -0.06066836
 -0.06077379 -0.06088741 -0.06100577 -0.0611221 -0.06123072 -0.06132858 -0.06141172 -0.06148414 -0.06154507 -0.06160398
 -0.0616625 -0.06172824 -0.06180285 -0.0618863 -0.06197894 -0.06207446 -0.06217255 -0.06226676 -0.06235731 -0.06244324
 -0.06252566 -0.0626095 -0.062695 -0.06278627 -0.06288081 -0.06297618 -0.06306861 -0.06315071 -0.06322361 -0.06328387
 -0.06333931 -0.06339394 -0.06345402 -0.06352507 -0.0636033 -0.06368975 -0.0637753 -0.06385797 -0.06393366 -0.06400127
 -0.06406219 -0.06411649 -0.06416447 -0.06420616 -0.06424137 -0.06427069 -0.06429902 -0.06432744 -0.06436417 -0.06440868
 -0.06446438 -0.06452858 -0.06459761 -0.06466893 -0.06473722 -0.06480194 -0.06486019 -0.06491372 -0.06496216 -0.06500955
 -0.06505695 -0.06511007 -0.06517118 -0.06524243 -0.06532568 -0.06541489 -0.06551006 -0.06560089 -0.06568651 -0.06576148
 -0.06582567 -0.06588121 -0.06592837 -0.06597073 -0.06600813 -0.06604156 -0.06607115 -0.06609729 -0.06612128 -0.0661458
 -0.06617222 -0.06620388 -0.06624063 -0.06628387 -0.06633206 -0.06638463 -0.0664404 -0.06649876 -0.06655879 -0.06662039
 -0.06668148 -0.06674168 -0.06679905 -0.06685296 -0.06690534 -0.06695616 -0.06701067 -0.06706904 -0.06713117 -0.06719612
 -0.06725464 -0.0673065 -0.06734437 -0.06737152 -0.06739367 -0.06741484 -0.06744726 -0.06748988 -0.06754743 -0.0676146
 -0.06768743 -0.06776289 -0.06783672 -0.06791109 -0.06798582 -0.06806368 -0.06814614 -0.06823207 -0.06832217 -0.06841083
 -0.06849765 -0.06857582 -0.06864458 -0.06870271 -0.06875032 -0.0687946 -0.06883617 -0.06888424 -0.0689382 -0.06900033
 -0.06906866 -0.0691383 -0.06920797 -0.06927224 -0.06933153 -0.06938401 -0.06943089 -0.06947261 -0.06951053 -0.06954558
 -0.06957902 -0.06961141 -0.06964447 -0.06967863 -0.06971614 -0.06975755 -0.06980421 -0.06985651 -0.06991388 -0.06997632
 -0.07004298 -0.07011379 -0.07018763 -0.07026412 -0.07033927 -0.07041231 -0.07047678 -0.07053321 -0.07057898 -0.07061695
 -0.07065179 -0.07068609 -0.07072637 -0.07077169 -0.07082413 -0.0708802 -0.07093802 -0.0709952 -0.07104972 -0.07110202
 -0.07115171 -0.07120018 -0.0712477 -0.07129499 -0.07134215 -0.07138985 -0.07143813 -0.07148807 -0.07153969 -0.07159323
 -0.07164838 -0.07170223 -0.07175448 -0.07180154 -0.07184416 -0.07188249 -0.07191806 -0.07195449 -0.07199212 -0.07203346
 -0.07207709 -0.07212245 -0.07216841 -0.0722138 -0.07225864 -0.07230301 -0.07234554 -0.07238619 -0.072422 -0.07245195
 -0.07247625 -0.07249414 -0.07251193 -0.07252994 -0.07255563 -0.07258931 -0.07263237 -0.07268431 -0.07274015 -0.07279948
 -0.07285751 -0.07291435 -0.07296798 -0.07301834 -0.07306428 -0.07310588 -0.07314234 -0.07317517 -0.07320542 -0.07323498
 -0.07326607 -0.07329797 -0.07333158 -0.07336338 -0.07339243 -0.07341591 -0.07343243 -0.07344407 -0.0734503 -0.07345863
 -0.07346953 -0.07349085 -0.07352294 -0.07356619 -0.07361992 -0.07367669 -0.07373629 -0.07379294 -0.07384873 -0.07390668
 -0.07397028 -0.07404823 -0.07414377 -0.07426518 -0.07441525 -0.07460026 -0.07482049 -0.07507953 -0.07537178 -0.07569586
 -0.07604523 -0.07641479 -0.07681281 -0.07723744 -0.07771353 -0.07824586 -0.07884152 -0.07950439 -0.08018931 -0.08089364
 -0.08153733 -0.08211733 -0.08257367 -0.08290806 -0.08309998 -0.08314976 -0.08304793 -0.08279292 -0.08236539 -0.08179342
 -0.08109578 -0.08034172 -0.07961189 -0.07895438 -0.07843558 -0.07805634 -0.07783607 -0.07775669 -0.07781916 -0.07799459
 -0.07828412 -0.07862336 -0.07900865 -0.07934483 -0.0796217 -0.0797973 -0.07986958 -0.0798768 -0.07982228 -0.07975549
 -0.07967682 -0.0796149 -0.07956591 -0.07953508 -0.0795123 -0.07947837 -0.07942354 -0.07932127 -0.07917526 -0.0789757
 -0.07874011 -0.078476 -0.07820477 -0.07793814 -0.07769328 -0.07747927 -0.07730233 -0.07716713 -0.07706623 -0.07700068
 -0.07695124 -0.07691669 -0.07687585 -0.07682758 -0.07676239 -0.07668114 -0.07659113 -0.07649386 -0.07640204 -0.07631475
 -0.07623613 -0.07616348 -0.07609207 -0.07602166 -0.0759486 -0.07587671 -0.07580847 -0.07574792 -0.07569962 -0.07566346
 -0.07564145 -0.07562938 -0.07562669 -0.07562815 -0.07563265 -0.07563573 -0.07563642 -0.07563299 -0.0756249 -0.07561565
 -0.07560544 -0.07560007 -0.07559952 -0.07560499 -0.07561569 -0.07562756 -0.07564045 -0.07565133 -0.07566157 -0.07567313
 -0.07568654 -0.07570437 -0.07572422 -0.0757447 -0.07576288 -0.0757752 -0.07578299 -0.07578522 -0.07578647 -0.07578838
 -0.07579324 -0.07580258 -0.07581351 -0.07582596 -0.07583619 -0.07584371 -0.07584771 -0.07584809 -0.07584579 -0.07584085
 -0.07583382 -0.07582482 -0.07581466 -0.07580364 -0.07579339 -0.07578383 -0.07577585 -0.07576847 -0.07576046 -0.07575115
 -0.07573855 -0.07572478 -0.0757101 -0.0756987 -0.07569319 -0.07569495 -0.07570621 -0.07572196 -0.07574193 -0.07575878
 -0.07577093 -0.07577661 -0.07577511 -0.07577171 -0.07576667 -0.07576604 -0.07576985 -0.07577996 -0.07579582 -0.07581526
 -0.07583758 -0.07585936 -0.07588 -0.07589652 -0.07590844 -0.07591351 -0.07591192 -0.07590241 -0.07588714 -0.07586642
 -0.07584521 -0.07582591 -0.0758132 -0.07581014 -0.07581551 -0.07583036 -0.07584823 -0.07586816 -0.07588623 -0.07590163
 -0.07591702 -0.07593251 -0.07595089 -0.07597193 -0.07599291 -0.07601339 -0.07602888 -0.07604008 -0.07604692 -0.0760508
 -0.07605521 -0.07606059 -0.07606955 -0.07608095 -0.07609463 -0.07610904 -0.07612294 -0.07613519 -0.07614457 -0.07615145
 -0.07615499 -0.07615878 -0.07616298 -0.07617344 -0.07619138 -0.07621887 -0.07625678 -0.07629814 -0.07634262 -0.0763778
 -0.07640346 -0.07641336 -0.07640909 -0.07639699 -0.07637911 -0.07636693 -0.07635981 -0.07636282 -0.0763723 -0.07638441
 -0.07639624 -0.07640202 -0.0764031 -0.0763977 -0.076391 -0.0763851 -0.0763846 -0.07639223 -0.07640819 -0.07643385
 -0.07646422 -0.07649909 -0.0765314 -0.07656036 -0.07658183 -0.07659549 -0.07660311 -0.07660509 -0.0766076 -0.07661113
 -0.0766223 -0.0766404 -0.07666729 -0.07670005 -0.07673316 -0.07676281 -0.07677908 -0.07678278 -0.07676865 -0.07674557
 -0.07671777 -0.07669607 -0.07668886 -0.07669775 -0.07672713 -0.07676768 -0.07681834 -0.0768689 -0.07691722 -0.07695919
 -0.07699407 -0.07702144 -0.07704125 -0.0770543 -0.07706089 -0.0770652 -0.0770679 -0.07707573 -0.07708827 -0.07710826
 -0.07713335 -0.0771592 -0.07718367 -0.07720032 -0.07721062 -0.07721283 -0.07721186 -0.0772111 -0.07721437 -0.07722574
 -0.07724318 -0.07726769 -0.07729317 -0.07731807 -0.07733868 -0.07735356 -0.0773652 -0.07737354 -0.07738306 -0.07739405
 -0.07740672 -0.07742082 -0.07743199 -0.07744022 -0.07744289 -0.07744143 -0.07743975 -0.07743962 -0.07744806 -0.07746447
 -0.0774918 -0.07752666 -0.07756644 -0.07760737 -0.07764532 -0.07767853 -0.07770462 -0.07772404 -0.07773598 -0.07774312
 -0.07774562 -0.07774758 -0.07774961 -0.07775524 -0.07776497 -0.07778002 -0.07780055 -0.07782563 -0.07785509 -0.07788634
 -0.07791881 -0.07794742 -0.0779716 -0.07798596 -0.07799151 -0.07798725 -0.07797626 -0.07796301 -0.07795116 -0.07794733
 -0.07795242 -0.07797065 -0.07799771 -0.07803355 -0.07806997 -0.07810377 -0.07812932 -0.07814341 -0.07814922 -0.07814587
 -0.0781438 -0.07814406 -0.07815393 -0.07817404 -0.07820109 -0.07823452 -0.07826453 -0.0782911 -0.07830878 -0.07831907
 -0.07832488 -0.07832772 -0.07833354 -0.07834158 -0.07835353 -0.07836742 -0.07838104 -0.07839428 -0.07840557 -0.07841755
 -0.07843143 -0.07844879 -0.07847136 -0.07849623 -0.07852361 -0.07854731 -0.07856622 -0.07857638 -0.07857687 -0.07856987
 -0.07855537 -0.07854067 -0.07852617 -0.07851914 -0.07851938 -0.07852968 -0.07854867 -0.07857292 -0.07860033 -0.07862362
 -0.07864185 -0.07864922 -0.07864796 -0.07863775 -0.07862327 -0.07860819 -0.07859663 -0.07859237 -0.07859638 -0.07861061
 -0.07863197 -0.07866079 -0.07869039 -0.07872008 -0.07874212 -0.07875548 -0.0787565 -0.0787448 -0.07872295 -0.07869128
 -0.07865573 -0.07861685 -0.07858133 -0.07854951 -0.0785267 -0.07851214 -0.07850724 -0.07850958 -0.07851547 -0.0785231
 -0.07852781 -0.0785315 -0.07853381 -0.07853819 -0.07854772 -0.0785604 -0.07857774 -0.07859063 -0.07859681 -0.07858983
 -0.07856699 -0.07853318 -0.07848803 -0.07844328 -0.0783997 -0.07836562 -0.07834114 -0.0783274 -0.07832371 -0.07832613
 -0.07833359 -0.07833968 -0.07834396 -0.07834122 -0.07833338 -0.07832079 -0.07830718 -0.07829796 -0.07829399 -0.07829961
 -0.07830896 -0.07832082 -0.0783266 -0.07832143 -0.07830436 -0.07827238 -0.07823554 -0.07819474 -0.07816108 -0.07813644
 -0.07812207 -0.07811837 -0.07811752 -0.0781192 -0.0781171 -0.07811188 -0.07810562 -0.07809886 -0.07809556 -0.07809411
 -0.07809243 -0.07808822 -0.07807566 -0.07805517 -0.07802414 -0.07798596 -0.07794221 -0.07789737 -0.07785426 -0.07781682
 -0.07778756 -0.07776778 -0.07775911 -0.07775795 -0.07776453 -0.07777137 -0.0777778 -0.07777684 -0.07776792 -0.07774894
 -0.07772004 -0.07768483 -0.07764385 -0.07760295 -0.07756225 -0.07752552 -0.07749227 -0.0774629 -0.0774373 -0.07741541
 -0.07739729 -0.07738379 -0.07737274 -0.0773635 -0.07735129 -0.07733286 -0.07730568 -0.07726687 -0.07721981 -0.07716433
 -0.07710649 -0.07704747 -0.07699095 -0.07693765 -0.07688795 -0.07684194 -0.07679987 -0.07676189 -0.07673109 -0.07670779
 -0.0766967 -0.07669715 -0.07670989 -0.07673179 -0.07675571 -0.07677665 -0.07678152 -0.07676826 -0.07672674 -0.07666299
 -0.07657745 -0.07648029 -0.07637769 -0.07627732 -0.07618417 -0.07610104 -0.07603025 -0.07596979 -0.07592008 -0.07587628
 -0.07583788 -0.07580137 -0.07576635 -0.07573475 -0.0757068 -0.07568851 -0.07567944 -0.0756802 -0.07568764 -0.07568852
 -0.0756798 -0.07564391 -0.07558515 -0.07550182 -0.07540318 -0.07530147 -0.07520124 -0.07511102 -0.07503217 -0.07496752
 -0.07491869 -0.07488792 -0.07487223 -0.07487325 -0.07487769 -0.07488432 -0.07487629 -0.07485095 -0.0748019 -0.07472813
 -0.0746379 -0.0745318 -0.07442284 -0.07431129 -0.0742054 -0.07410441 -0.07400944 -0.07391964 -0.07383316 -0.07374962
 -0.07366788 -0.07358654 -0.07350351 -0.07341705 -0.07332356 -0.07322609 -0.07312427 -0.07302543 -0.07293365 -0.07284965
 -0.07277625 -0.07270346 -0.07263011 -0.07254602 -0.0724489 -0.07234158 -0.07222371 -0.07210925 -0.07199874 -0.07190119
 -0.07181496 -0.07173087 -0.07164539 -0.07153597 -0.07140425 -0.07124071 -0.07105476 -0.07086105 -0.07066496 -0.07048208
 -0.07030787 -0.07014421 -0.06998404 -0.06982211 -0.06965796 -0.06948862 -0.06932116 -0.06915683 -0.06900261 -0.0688614
 -0.06872936 -0.06860809 -0.06847573 -0.06833091 -0.06815279 -0.06794136 -0.06771059 -0.06746329 -0.06723111 -0.06701266
 -0.06681913 -0.06664518 -0.06648152 -0.06632293 -0.06615467 -0.06597427 -0.06577061 -0.06554818 -0.06530517 -0.06505305
 -0.06479947 -0.06455008 -0.06431305 -0.06407485 -0.06383477 -0.06357266 -0.06328218 -0.06296466 -0.06261843 -0.06225783
 -0.06188413 -0.06149843 -0.06110076 -0.0606891 -0.06026456 -0.05983715 -0.05940652 -0.05897897 -0.05854782 -0.05809695
 -0.0576199 -0.05709128 -0.05652096 -0.05590853 -0.05527423 -0.05464038 -0.0540112 -0.05339821 -0.05279326 -0.05219417
 -0.05159912 -0.05100635 -0.05041977 -0.04984288 -0.04926031 -0.04867447 -0.04803225 -0.04732934 -0.04653249 -0.04564276
 -0.0447328 -0.04380747 -0.04294691 -0.04213922 -0.04136888 -0.04062345 -0.03985506 -0.03906535 -0.03823477 -0.03736937
 -0.03647574 -0.03554059 -0.03456454 -0.03350042 -0.03232059 -0.03097923 -0.02943023 -0.02772389 -0.02584655 -0.02394307
 -0.02204247 -0.02023637 -0.01854606 -0.01696874 -0.01550775 -0.01411402 -0.01278372 -0.01142318 -0.01002259 -0.008441004
 -0.006691332 -0.004736697 -0.002646065 -0.0006254909 0.001309416 0.003004143 0.004533945 0.005945906 0.007291931 0.008650529
 0.01001715 0.01141246 0.01282133 0.01423687 0.015667 0.01711808 0.0185709 0.0200274 0.0214395 0.02279782
 0.02410169 0.02534973 0.02656192 0.02773787 0.02883739 0.02985697 0.03074036 0.03149819 0.03214814 0.03271326
 0.03327739 0.03384618 0.0344859 0.03515455 0.03581604 0.03644541 0.03699114 0.03748468 0.03793679 0.03835889
 0.0387677 0.03913253 0.03944709 0.03968713 0.03984395 0.03991925 0.039911 0.03983281 0.03968468 0.03949551
 0.03926702 0.03903724 0.03880609 0.03858773 0.03837933 0.03817316 0.0379697 0.03776449 0.0375642 0.03737923
 0.03721882 0.03710175 0.03703092 0.03701469 0.03705762 0.03716011 0.03734316 0.03761758 0.03799474 0.03848941
 0.03906285 0.0397117 0.04038928 0.04108489 0.04180502 0.04254811 0.04334866 0.04420811 0.04514217 0.04614931
 0.04722041 0.04835274 0.0495288 0.05074552 0.0519839 0.05324309 0.05450992 0.05579096 0.05708898 0.05841352
 0.05977609 0.06118051 0.06263385 0.0641339 0.06568201 0.06727292 0.06890608 0.07057361 0.0722754 0.07399651
 0.07573754 0.07746421 0.07917462 0.08082549 0.08241503 0.08393485 0.08538786 0.08680663 0.08818566 0.08951963
 0.09078767 0.09191342 0.09289718 0.09369669 0.09433565 0.09483586 0.09520374 0.09545575 0.0955877 0.09560031
 0.09549391 0.09528022 0.09491421 0.09440233 0.09361746 0.09252223 0.09108552 0.08926585 0.08735856 0.08538759
 0.08353172 0.08179699 0.0800443 0.07826702 0.07634488 0.07429013 0.07210606 0.0698058 0.06744567 0.0650025
 0.0624724 0.05978141 0.05679207 0.053523 0.04985937 0.04609977 0.04243771 0.0390403 0.0361062 0.03343716
 0.03100677 0.02865115 0.02630994 0.02400153 0.02171614 0.01952642 0.01744088 0.01545493 0.01356804 0.01172319
 0.009920009 0.008133646 0.006370997 0.004656396 0.002995031 0.001418622 -7.666571E-05 -0.001482476 -0.002807613 -0.004060554
 -0.005251753 -0.006390809 -0.007498892 -0.008584761 -0.009695531 -0.0108557 -0.01210193 -0.01348039 -0.01487389 -0.01628075
 -0.01750037 -0.01848422 -0.01926872 -0.01984643 -0.02037475 -0.02086112 -0.0213879 -0.02195142 -0.02253744 -0.02313807
 -0.02370069 -0.02422879 -0.02470763 -0.02514208 -0.02554229 -0.02589453 -0.0261845 -0.0263933 -0.02648941 -0.02648009
 -0.02635687 -0.02614288 -0.02584886 -0.02548643 -0.02506324 -0.02457867 -0.02403665 -0.02341978 -0.0227305 -0.02191583
 -0.02097104 -0.01985476 -0.01856566 -0.01719967 -0.01576774 -0.01443591 -0.0131965 -0.01209279 -0.01110649 -0.01019335
 -0.009354662 -0.008572111 -0.007852145 -0.007208716 -0.006612862 -0.006050606 -0.005460492 -0.004780893 -0.004011843 -0.003111654
 -0.002194774 -0.001297363 -0.0004792427 0.0002257458 0.0008695079 0.001453119 0.002039291 0.002635052 0.003262771 0.003923725
 0.004598563 0.005285955 0.00596168 0.006630042 0.007299772 0.007982326 0.008722303 0.009525534 0.0104345 0.01143075
 0.01250542 0.0136369 0.01479006 0.01597697 0.01719408 0.01845978 0.01979138 0.02116685 0.0225889 0.02400715
 0.02540815 0.02676943 0.02808172 0.02936888 0.0306324 0.03189281 0.03315103 0.03435823 0.03550851 0.03651261
 0.03737077 0.03803949 0.03852328 0.03881828 0.03891988 0.03881603 0.03850007 0.03795101 0.03717962 0.03618327
 0.03499289 0.03362912 0.03212074 0.03049128 0.02874409 0.02688682 0.02490934 0.02280275 0.02060266 0.01830365
 0.01601429 0.01374377 0.01157883 0.00952451 0.007567563 0.005704779 0.003887163 0.002119327 0.000402365 -0.001252947
 -0.002803367 -0.004252883 -0.005584106 -0.006818255 -0.007980977 -0.009091266 -0.01018186 -0.01125801 -0.01233722 -0.01340852
 -0.0144743 -0.01551037 -0.01650907 -0.01745102 -0.018327 -0.01914427 -0.01990014 -0.02062345 -0.0213169 -0.02199944
 -0.02267228 -0.02331861 -0.02393593 -0.02448484 -0.02496634 -0.0253641 -0.02568607 -0.02595246 -0.02616849 -0.02635825
 -0.02651855 -0.0266556 -0.02676298 -0.02683456 -0.02686935 -0.02686123 -0.02682191 -0.02675177 -0.0266762 -0.02660243
 -0.02655714 -0.02654924 -0.02658887 -0.02668117 -0.02681219 -0.02698216 -0.02716384 -0.02735568 -0.02753944 -0.02771556
 -0.02788652 -0.02805358 -0.02822657 -0.02840355 -0.02858355 -0.02876182 -0.02892618 -0.02907402 -0.02919478 -0.02929012
 -0.02935758 -0.02940034 -0.02942025 -0.02941928 -0.02939869 -0.02936052 -0.02930542 -0.02923623 -0.02915343 -0.02906051
 -0.02895762 -0.02885076 -0.02874028 -0.0286339 -0.02853208 -0.02843987 -0.02835721 -0.02828456 -0.02822137 -0.02816448
 -0.02811361 -0.02806551 -0.0280216 -0.02798251 -0.02795253 -0.02793833 -0.02794522 -0.02798182 -0.02805162 -0.0281602
 -0.02830897 -0.02850072 -0.02873361 -0.0290098 -0.02931758 -0.02965726 -0.03000443 -0.03035638 -0.03068669 -0.03099211
 -0.03125979 -0.03148872 -0.03168329 -0.03184433 -0.03198477 -0.03210529 -0.03221678 -0.03231889 -0.03241646 -0.03250793
 -0.03259252 -0.03266743 -0.0327281 -0.03277116 -0.03279052 -0.03278533 -0.03275151 -0.03269403 -0.03261332 -0.03251822
 -0.03241223 -0.03230093 -0.03218694 -0.03206984 -0.03194991 -0.03182617 -0.03169815 -0.03157052 -0.03144348 -0.03132631
 -0.03121918 -0.03112681 -0.03104771 -0.03097521 -0.03090705 -0.03083022 -0.03074601 -0.03064921 -0.0305466 -0.03044661
 -0.03035663 -0.03029002 -0.03024717 -0.03023487 -0.03024453 -0.03027455 -0.03031285 -0.03035432 -0.03039164 -0.03042078
 -0.03044461 -0.03046226 -0.03048269 -0.0305068 -0.03054018 -0.03058327 -0.03063458 -0.03069397 -0.03075848 -0.0308284
 -0.03090421 -0.03098646 -0.03107775 -0.03117801 -0.03128881 -0.03140873 -0.03153668 -0.03166969 -0.03180419 -0.03193697
 -0.03206392 -0.03218414 -0.03229546 -0.03240008 -0.03249821 -0.03259255 -0.0326843 -0.03277263 -0.03285805 -0.03293594
 -0.03300573 -0.03306523 -0.03311416 -0.0331587 -0.03319936 -0.03324562 -0.0332968 -0.03335373 -0.03341374 -0.03346699
 -0.0335113 -0.03353571 -0.03354058 -0.03352123 -0.03347962 -0.03341621 -0.03333292 -0.0332322 -0.03311286 -0.03297644
 -0.03281588 -0.03262977 -0.03240861 -0.03214889 -0.03184839 -0.03150487 -0.03112737 -0.03071593 -0.03028608 -0.02983875
 -0.02938797 -0.02893408 -0.02848363 -0.02803564 -0.0275871 -0.0271364 -0.02667576 -0.02620438 -0.02571626 -0.02521157
 -0.02468751 -0.02414571 -0.02358562 -0.02301306 -0.02243097 -0.02184952 -0.02127427 -0.02071589 -0.02017918 -0.01967328
 -0.01920094 -0.01877055 -0.01838412 -0.01804578 -0.01775675 -0.0175125 -0.017313 -0.01714413 -0.01700458 -0.01687175
 -0.0167432 -0.01659084 -0.01641351 -0.01619044 -0.01592476 -0.01561328 -0.01526122 -0.01487666 -0.01446258 -0.01402564
 -0.0135679 -0.01309227 -0.01260317 -0.01210347 -0.01159765 -0.0110882 -0.0105774 -0.010066 -0.009556751 -0.009049798
 -0.008550162 -0.008058351 -0.00757867 -0.0071115 -0.006656446 -0.006213155 -0.005774968 -0.005341122 -0.00490243 -0.00445957
 -0.004009726 -0.003555456 -0.003102147 -0.002651541 -0.002209165 -0.001775945 -0.001354282 -0.0009473574 -0.0005595423 -0.000190143
 0.000156602 0.0004947053 0.0008265839 0.001172551 0.001539396 0.001936124 0.002366504 0.00282646 0.003315924 0.003831149
 0.004371756 0.004941117 0.005539417 0.006171077 0.006835022 0.007526902 0.008242837 0.008965692 0.009690158 0.01039444
 0.01107308 0.01170844 0.01229149 0.01280631 0.01323961 0.01357339 0.01380315 0.01391604 0.01393072 0.01384689
 0.01370095 0.01350053 0.01328269 0.01305449 0.01284489 0.012658 0.01251157 0.01240725 0.01234799 0.01233344
 0.01235521 0.01241249 0.01249545 0.01260373 0.01273054 0.01287618 0.01303772 0.01321619 0.01341285 0.01362651
 0.0138584 0.01410051 0.01434828 0.01458879 0.0148136 0.01501219 0.01517821 0.0153062 0.01539356 0.01543727
 0.01543671 0.01538821 0.01529166 0.01514007 0.01493297 0.01466363 0.01433224 0.01394373 0.01350039 0.01302179
 0.01251022 0.01198621 0.01144937 0.01090937 0.01036412 0.009814462 0.009257809 0.008691792 0.008112681 0.007516942
 0.006900162 0.006259195 0.005589456 0.004888543 0.004152724 0.003379568 0.002571714 0.001728205 0.0008591989 -3.406958E-05
 -0.000945846 -0.001875422 -0.002827835 -0.003803149 -0.004803265 -0.005826181 -0.006857601 -0.007894387 -0.008915232 -0.009919032
 -0.01089163 -0.01183397 -0.01274124 -0.01361498 -0.0144552 -0.01526345 -0.01604153 -0.01678922 -0.01750679 -0.01819427
 -0.01885007 -0.01948123 -0.02008807 -0.02068323 -0.02126965 -0.02185265 -0.02243427 -0.02300541 -0.02356577 -0.0241016
 -0.02461248 -0.02509242 -0.02554178 -0.02596128 -0.02635052 -0.02670841 -0.02703342 -0.02732001 -0.02756877 -0.02777677
 -0.0279492 -0.02809145 -0.02820845 -0.02830766 -0.02838827 -0.0284518 -0.02849689 -0.02852123 -0.02853258 -0.02853133
 -0.02853068 -0.02853358 -0.0285464 -0.0285709 -0.0286038 -0.02864516 -0.02868686 -0.02872838 -0.02875915 -0.02877885
 -0.02877912 -0.02876142 -0.02872733 -0.02867951 -0.02862714 -0.02856996 -0.02851316 -0.02845189 -0.02838208 -0.02829891
 -0.02819543 -0.02807225 -0.02792622 -0.02776442 -0.02758841 -0.02740682 -0.02722273 -0.02704038 -0.02686126 -0.02668625
 -0.02651552 -0.02635055 -0.02619147 -0.02603854 -0.02589173 -0.02574938 -0.02561213 -0.02548379 -0.02536636 -0.02527187
 -0.02519985 -0.02515713 -0.02513778 -0.02513383 -0.02513917 -0.02514111 -0.02513928 -0.0251288 -0.02511108 -0.02508683
 -0.02505315 -0.0250097 -0.02495112 -0.02487572 -0.02478018 -0.02466368 -0.02452375 -0.02435989 -0.02417114 -0.02395709
 -0.02372448 -0.02347397 -0.02322244 -0.02297071 -0.02273443 -0.02251142 -0.02230132 -0.0220989 -0.0218882 -0.02166711
 -0.02142158 -0.02115799 -0.02087753 -0.02059121 -0.02031036 -0.02004095 -0.0197919 -0.0195594 -0.01934536 -0.01913958
 -0.01893929 -0.01873728 -0.01853012 -0.01832368 -0.01811703 -0.01792837 -0.01775899 -0.01762343 -0.01752185 -0.01744808
 -0.01739925 -0.01734805 -0.01729113 -0.01719685 -0.01706738 -0.01688938 -0.01667448 -0.01643822 -0.01619361 -0.01596843
 -0.01576067 -0.01558244 -0.0154156 -0.01525115 -0.0150773 -0.0148828 -0.01467711 -0.01445935 -0.01424586 -0.01404074
 -0.0138489 -0.01367194 -0.0135073 -0.01335489 -0.01321289 -0.01308098 -0.01295088 -0.01282087 -0.01267143 -0.01250158
 -0.01229432 -0.01205404 -0.0117829 -0.0114903 -0.01119571 -0.01090716 -0.01064498 -0.01041057 -0.01021496 -0.01004922
 -0.009913519 -0.009789886 -0.009670825 -0.009541326 -0.009393021 -0.009228426 -0.009045372 -0.008856841 -0.008665445 -0.008469312
 -0.008269145 -0.008046302 -0.007800221 -0.007526484 -0.007227977 -0.006929916 -0.006635268 -0.006373713 -0.006141359 -0.005943825
 -0.005771495 -0.005607725 -0.005444545 -0.005262349 -0.005060824 -0.0048308 -0.004580035 -0.004310216 -0.004030783 -0.003746573
 -0.003463245 -0.003182713 -0.002911914 -0.002651796 -0.00241222 -0.00219528 -0.002001574 -0.001832013 -0.001670695 -0.001516752
 -0.001351663 -0.001175689 -0.0009838013 -0.000777731 -0.0005637253 -0.0003420642 -0.0001176754 0.0001120293 0.0003503645 0.0005988118
 0.0008633957 0.001137357 0.001418124 0.001693704 0.001953729 0.002195372 0.002413132 0.002613735 0.002799689 0.002969168
 0.003123082 0.003253165 0.003356778 0.003443536 0.003513389 0.003588174 0.003668655 0.003757615 0.003853912 0.003945507
 0.004034443 0.004124796 0.004219623 0.004333781 0.004461439 0.004598973 0.004736556 0.004855547 0.004957616 0.005034504
 0.005099765 0.005159572 0.005226792 0.005309475 0.005413461 0.005542829 0.00569733 0.005878503 0.006079877 0.006302045
 0.006528899 0.00675993 0.006967948 0.007151587 0.007287479 0.00737753 0.007430132 0.007452001 0.007482343 0.007524234
 0.007609953 0.00773382 0.007899347 0.008100294 0.00832812 0.008581113 0.008854895 0.009147635 0.009457884 0.009780825
 0.01011549 0.01045206 0.0107891 0.01111038 0.01141153 0.01168519 0.01192779 0.01215417 0.01236512 0.01257556
 0.01278597 0.01298965 0.01318619 0.01336729 0.01353616 0.01370523 0.01387809 0.01407425 0.01429173 0.0145378
 0.01480398 0.01508437 0.01536159 0.01561795 0.01583395 0.01598569 0.01607852 0.01610121 0.01609316 0.01606327
 0.01604925 0.01606404 0.01611156 0.01619613 0.01629803 0.01641641 0.01652725 0.01662939 0.01670924 0.01676922
 0.0168289 0.01689411 0.017009 0.01717052 0.01739607 0.01767009 0.01796638 0.01827499 0.01856667 0.018846
 0.01910544 0.01935614 0.01960046 0.01985864 0.02013963 0.02046381 0.02085043 0.02126059 0.02169574 0.02208001
 0.02239637 0.02265113 0.02284161 0.02301216 0.02316458 0.02330215 0.02342234 0.02349556 0.02352316 0.0234941
 0.02341831 0.02332266 0.02321521 0.02313028 0.02306193 0.02302087 0.0229854 0.02293656 0.02285798 0.02272386
 0.02255382 0.02234329 0.02214102 0.0219629 0.02184122 0.02179054 0.02180155 0.0218779 0.02198279 0.02211424
 0.02222994 0.02232765 0.02237725 0.02237883 0.02232447 0.0222145 0.02204781 0.0218212 0.02152029 0.02114888
 0.02069856 0.02019927 0.01968694 0.01920352 0.01881214 0.01852345 0.01837389 0.01833138 0.01839694 0.018512
 0.01866126 0.0187829 0.01885549 0.01886741 0.01880641 0.01873788 0.01866569 0.0186561 0.01871232 0.01882544
 0.01899252 0.01917416 0.01937229 0.01957961 0.01979714 0.02002775 0.02026352 0.02048746 0.0206939 0.02086271
 0.02100277 0.02111208 0.02121218 0.02131862 0.02144611 0.02161304 0.02179952 0.02200855 0.02219441 0.02234479
 0.02244073 0.02247288 0.02247355 0.02244358 0.022429 0.02243225 0.02247894 0.02256895 0.02270995 0.02289842
 0.02312136 0.02337095 0.0236128 0.0238436 0.02403793 0.02419854 0.02432161 0.02440215 0.02443236 0.02441146
 0.02432685 0.02421238 0.02407802 0.02396581 0.02390031 0.02387198 0.02388903 0.02390197 0.02390348 0.02386524
 0.0237823 0.02366395 0.02351054 0.02334711 0.02317507 0.02301996 0.0228804 0.02276354 0.02266317 0.02256026
 0.02245296 0.02232479 0.02218399 0.02203714 0.02188973 0.02175224 0.02162149 0.02149865 0.02137933 0.0212634
 0.02114059 0.02100941 0.02085246 0.02066351 0.02044153 0.02018319 0.01990921 0.01962107 0.01933574 0.01905423
 0.01878952 0.01854312 0.01833954 0.01817797 0.01806989 0.01800664 0.01796316 0.01793353 0.01788909 0.01783458
 0.01776817 0.01768663 0.01758858 0.01746197 0.01728951 0.0170892 0.01685673 0.01664373 0.01647029 0.01636129
 0.01633516 0.01635231 0.01641283 0.01645335 0.01646633 0.01643201 0.01634893</values></Ydata></AB><ScSm><Ydata ylabel="Single channel"><values byteorder="INTEL" format="FLOAT32" numvalues="1814"> 0.07075609 0.07075431 0.07082268 0.07098515 0.0712079 0.0714221 0.07157337 0.07165313 0.07167783 0.0716515
 0.07158048 0.0715204 0.07155998 0.0717354 0.0719802 0.07216958 0.07221594 0.07214618 0.072093 0.07216658
 0.07230417 0.07228198 0.07192618 0.07131383 0.07072512 0.07038438 0.0703164 0.0705052 0.07103707 0.07185327
 0.07246014 0.07227694 0.07136454 0.07046698 0.07018492 0.0703973 0.07060786 0.07052397 0.07014726 0.06965587
 0.06945647 0.07007909 0.07165243 0.07346714 0.07423309 0.07289962 0.06940715 0.06491439 0.06136825 0.06046598
 0.06246291 0.06582601 0.06838142 0.06904978 0.06836583 0.06737787 0.06651528 0.06572582 0.06521167 0.06547043
 0.06661017 0.06788634 0.06808946 0.06658311 0.06405985 0.06204547 0.06150585 0.06224493 0.06372358 0.06564829
 0.06714316 0.06627825 0.06196488 0.05635615 0.05388955 0.0570712 0.06380282 0.06943017 0.07088299 0.06840823
 0.06423033 0.06070325 0.05941194 0.06074786 0.06384815 0.0673082 0.07002757 0.07126223 0.07043878 0.06765313
 0.06416119 0.06177457 0.06174714 0.06427673 0.06846601 0.07241607 0.07409021 0.07281087 0.06970678 0.06652401
 0.06447975 0.06426311 0.06620479 0.0699392 0.07437981 0.07834196 0.08102223 0.08209233 0.08178027 0.08072354
 0.07947841 0.07842124 0.07808596 0.07884084 0.08001284 0.08013767 0.0785509 0.07627225 0.07495415 0.07517177
 0.07596381 0.07600504 0.07495162 0.07323138 0.07073079 0.06675558 0.06162038 0.05709164 0.05462418 0.05424145
 0.05557248 0.05842946 0.06159389 0.06274712 0.06101245 0.05857477 0.05852342 0.0615562 0.06561759 0.06839667
 0.06946535 0.07011104 0.07168298 0.07421611 0.07626499 0.07599367 0.07299167 0.06929781 0.06796084 0.07004775
 0.07361767 0.07611065 0.07704825 0.07775684 0.07904644 0.07995474 0.07874963 0.07498846 0.07062913 0.0688227
 0.07116638 0.07609934 0.08003387 0.08001536 0.07571517 0.06949656 0.06456886 0.06276837 0.0640748 0.06784009
 0.07349787 0.07991491 0.08509676 0.08730924 0.08634533 0.08341922 0.07977794 0.07554916 0.07040864 0.0655034
 0.06368205 0.0668068 0.07338043 0.07979284 0.08353691 0.08446277 0.0833924 0.08058471 0.07594721 0.07049529
 0.06683974 0.06716678 0.07060187 0.0736973 0.07403792 0.07244618 0.0712153 0.07125357 0.07174004 0.07187553
 0.07202289 0.07307796 0.07517814 0.07735972 0.07849132 0.0783073 0.07744898 0.07672082 0.07636169 0.07587358
 0.07471415 0.07336362 0.07327338 0.07528017 0.07846265 0.0810914 0.08236572 0.08270743 0.08261094 0.08176585
 0.07951073 0.07608971 0.07315807 0.07255819 0.07454357 0.07762271 0.08010775 0.08132344 0.08145344 0.08093946
 0.08018044 0.07939483 0.07868182 0.07830568 0.07863575 0.07962095 0.08066083 0.08120885 0.08122567 0.08091331
 0.0803228 0.0794249 0.0783883 0.07759256 0.07735623 0.07769753 0.07837252 0.07909361 0.07963648 0.07980873
 0.07951657 0.07890114 0.07825037 0.07773702 0.07736626 0.07716291 0.07722592 0.07755327 0.07795649 0.07822119
 0.07827696 0.07817391 0.07796744 0.07767896 0.07733464 0.07700365 0.07679319 0.07677945 0.07691699 0.07706124
 0.07712957 0.07718404 0.07728902 0.07735823 0.07724666 0.07695398 0.07663904 0.07644723 0.07639358 0.07640219
 0.07638779 0.07627353 0.07598409 0.07550801 0.07498872 0.074677 0.07472993 0.07509086 0.07558371 0.0760494
 0.07637327 0.0764935 0.07644738 0.07633849 0.0762163 0.07603905 0.07577279 0.07548404 0.07531756 0.07538621
 0.07566862 0.0760176 0.07628223 0.07640591 0.07641461 0.07637472 0.07637202 0.07645076 0.07654622 0.07654424
 0.07642785 0.07630794 0.07629323 0.07637179 0.07643519 0.07640147 0.07630485 0.076258 0.07632715 0.07646823
 0.0765963 0.07668413 0.07676904 0.07687972 0.07697815 0.07698426 0.07686742 0.07669969 0.07658664 0.07655767
 0.07656857 0.07659954 0.07668802 0.07685208 0.07703187 0.07713968 0.07715202 0.07712764 0.07713246 0.07716286
 0.07715855 0.07708184 0.07696117 0.07685709 0.07680824 0.07681367 0.07684682 0.07687537 0.07687618 0.07684226
 0.07678063 0.07670309 0.07661746 0.07653356 0.07648121 0.07650377 0.07660799 0.07672513 0.07675256 0.07664715
 0.07646693 0.07631249 0.07623293 0.07619314 0.07612765 0.07601251 0.07587722 0.07575971 0.07567058 0.07559996
 0.07553655 0.07547499 0.07542612 0.0754282 0.07552188 0.07569102 0.07584599 0.0758964 0.07583801 0.07574753
 0.07569908 0.07570837 0.07574943 0.07579772 0.07585553 0.07594704 0.07608113 0.07621686 0.07629302 0.07630129
 0.07630302 0.07636511 0.07650799 0.07671408 0.0769439 0.07713827 0.07725179 0.07730348 0.07736276 0.07747331
 0.07761694 0.07775868 0.0778953 0.07804395 0.07820915 0.07838485 0.07857925 0.07881683 0.07911255 0.07944868
 0.07977569 0.08004117 0.08023398 0.08040605 0.08063713 0.0809672 0.08136369 0.08175409 0.08208725 0.08236697
 0.08263278 0.0829114 0.08319649 0.08348222 0.08379534 0.08416757 0.08458669 0.08500566 0.08539736 0.08577575
 0.08616474 0.08656781 0.08697142 0.08736689 0.08776559 0.08818921 0.08863784 0.08907348 0.08945054 0.08976281
 0.09005288 0.09037944 0.09077531 0.09121786 0.09163215 0.091949 0.09218039 0.09241745 0.09273241 0.09310058
 0.09344579 0.09374526 0.09405191 0.09441553 0.09481962 0.09521025 0.0955617 0.09589428 0.09623782 0.09659128
 0.09691667 0.09717198 0.09735596 0.09751637 0.09770693 0.09794825 0.09824212 0.09860001 0.09902506 0.09947693
 0.09988912 0.1002214 0.1004761 0.1006768 0.1008543 0.1010421 0.1012564 0.1014862 0.1017136 0.1019276
 0.1021137 0.1022604 0.1023936 0.1025714 0.1028251 0.1031321 0.103463 0.1038215 0.1042123 0.1046036
 0.1049638 0.105319 0.105726 0.1061831 0.1066089 0.1069271 0.107141 0.1073023 0.1074452 0.10759
 0.107783 0.1080779 0.108477 0.1089253 0.1093661 0.109781 0.1101736 0.1105405 0.1108671 0.1111395
 0.1113553 0.1115245 0.1116679 0.1118163 0.1120066 0.1122609 0.1125594 0.112845 0.113065 0.1131974
 0.1132328 0.113164 0.113018 0.112871 0.1127872 0.1127397 0.1126229 0.1123462 0.1118932 0.1112943
 0.1105763 0.1097567 0.1088735 0.1080001 0.1072265 0.106627 0.1062479 0.1061222 0.1062769 0.106706
 0.1073344 0.1080311 0.1086646 0.1091339 0.1093535 0.1092504 0.1088073 0.1080966 0.1072474 0.1063793
 0.1055678 0.1048422 0.1041949 0.1036157 0.1031499 0.102919 0.1030684 0.1036954 0.1048201 0.1063876
 0.1082659 0.1102563 0.1121525 0.1138207 0.1152368 0.1164493 0.1175213 0.1185062 0.1194498 0.1203738
 0.1212557 0.1220531 0.1227561 0.1233944 0.1239928 0.1245407 0.1250071 0.12537 0.1256304 0.1258138
 0.1259541 0.1260663 0.1261461 0.1261998 0.1262563 0.1263335 0.126404 0.1264036 0.126269 0.1259751
 0.1255622 0.1251532 0.1249467 0.1251685 0.1259822 0.1273989 0.129255 0.1312882 0.1332519 0.1349809
 0.1363962 0.1374958 0.1383417 0.1390264 0.1396289 0.1401949 0.1407436 0.1412774 0.1417914 0.1422831
 0.1427584 0.1432278 0.143702 0.1441856 0.144668 0.1451266 0.1455494 0.1459529 0.1463719 0.1468295
 0.1473145 0.1477914 0.1482366 0.1486634 0.1490969 0.1495314 0.1499341 0.1502926 0.1506348 0.1509988
 0.1514034 0.1518434 0.1522908 0.152702 0.1530476 0.153341 0.1536242 0.1539274 0.1542533 0.1545913
 0.1549328 0.1552706 0.1556006 0.1559299 0.1562769 0.1566499 0.1570243 0.1573553 0.1576226 0.1578557
 0.1581075 0.1584052 0.1587338 0.1590609 0.1593711 0.1596805 0.1600171 0.1603853 0.1607552 0.161088
 0.1613708 0.1616221 0.1618709 0.1621376 0.1624302 0.1627459 0.1630722 0.1633904 0.1636895 0.1639765
 0.1642694 0.1645785 0.1648977 0.1652141 0.165521 0.1658207 0.1661199 0.1664241 0.1667375 0.1670663
 0.1674184 0.1677918 0.1681637 0.1685021 0.168791 0.1690424 0.1692819 0.1695297 0.1697939 0.1700731
 0.1703618 0.1706555 0.1709546 0.1712615 0.1715754 0.1718901 0.1721981 0.1724976 0.1727933 0.1730914
 0.1733973 0.1737152 0.1740448 0.1743752 0.1746891 0.1749776 0.1752477 0.175515 0.1757922 0.1760825
 0.1763787 0.1766713 0.1769592 0.1772495 0.1775451 0.1778398 0.1781283 0.178414 0.1787019 0.178991
 0.1792755 0.1795543 0.1798349 0.180126 0.1804266 0.1807253 0.1810129 0.1812906 0.1815658 0.1818438
 0.1821247 0.1824067 0.1826889 0.1829702 0.1832472 0.1835169 0.1837818 0.1840495 0.1843244 0.1846047
 0.1848873 0.1851695 0.1854498 0.1857304 0.1860169 0.1863092 0.1865995 0.1868819 0.187158 0.1874324
 0.1877097 0.1879934 0.1882822 0.1885697 0.188852 0.18913 0.1894067 0.1896881 0.189982 0.1902892
 0.1906005 0.1909064 0.1912029 0.1914875 0.1917593 0.1920229 0.1922848 0.1925482 0.1928142 0.1930815
 0.1933481 0.1936155 0.1938889 0.1941679 0.1944464 0.194722 0.1949984 0.1952786 0.1955637 0.1958539
 0.1961464 0.1964354 0.1967182 0.1969957 0.1972695 0.1975442 0.1978249 0.1981118 0.1984032 0.1987008
 0.1990026 0.1992998 0.1995886 0.1998748 0.200163 0.2004537 0.2007489 0.2010493 0.2013489 0.2016436
 0.2019334 0.2022181 0.2025005 0.2027903 0.2030901 0.2033887 0.2036783 0.203964 0.2042487 0.2045298
 0.2048097 0.2050917 0.2053735 0.2056534 0.205932 0.2062061 0.2064771 0.2067566 0.2070506 0.2073504
 0.20765 0.2079495 0.2082444 0.2085329 0.2088239 0.2091196 0.2094077 0.2096806 0.2099376 0.2101634
 0.2103133 0.2102606 0.2096645 0.2078424 0.2037749 0.196328 0.1847107 0.1689809 0.1502005 0.1300535
 0.110228 0.09199041 0.07608005 0.06281627 0.05225992 0.04431748 0.03880918 0.03558014 0.03461598 0.03616411
 0.04086811 0.04938901 0.06096401 0.07212314 0.0780353 0.07632397 0.06934153 0.06202301 0.05777985 0.05684762
 0.05776007 0.05926619 0.06097183 0.06311148 0.06608438 0.07000361 0.07467918 0.08010904 0.08671529 0.09481123
 0.1039648 0.1131813 0.1217626 0.1298566 0.1381215 0.1469416 0.1560295 0.1647103 0.1724582 0.1791655
 0.185046 0.1903935 0.1954087 0.2001755 0.2047249 0.2090417 0.2129732 0.2161909 0.218345 0.2193288
 0.219407 0.2190704 0.218749 0.2186433 0.2187726 0.2191036 0.2196109 0.2202721 0.2210634 0.2219583
 0.2229228 0.2239197 0.2249196 0.2258994 0.2268375 0.2277167 0.228527 0.2292632 0.2299283 0.2305363
 0.2311004 0.2316259 0.2321157 0.2325745 0.2330068 0.2334194 0.2338233 0.2342225 0.2346044 0.2349522
 0.2352605 0.2355352 0.2357859 0.2360241 0.2362631 0.2365129 0.2367747 0.2370422 0.2373093 0.2375761
 0.2378454 0.2381117 0.2383646 0.2386039 0.2388417 0.2390875 0.239338 0.2395851 0.2398247 0.240058
 0.2402935 0.2405431 0.2408083 0.241074 0.2413227 0.2415532 0.2417796 0.242016 0.2422628 0.2425088
 0.2427505 0.2430009 0.2432728 0.2435588 0.2438431 0.2441215 0.2443962 0.2446625 0.2449187 0.2451748
 0.2454344 0.2456797 0.2458886 0.2460654 0.246248 0.2464805 0.2467724 0.2470867 0.2473793 0.2476429
 0.2478981 0.2481576 0.2484134 0.2486513 0.2488709 0.2490978 0.2493669 0.2496804 0.250002 0.2503064
 0.2506038 0.2509058 0.2512074 0.2515072 0.2518048 0.2520712 0.2522669 0.252406 0.2525754 0.2528719
 0.2533106 0.2537996 0.2542233 0.2545464 0.2548188 0.2551041 0.2554357 0.2557902 0.2560577 0.2561161
 0.2560167 0.2560213 0.2563588 0.2569934 0.2576953 0.2582819 0.2587302 0.2591058 0.2594543 0.259755
 0.2599423 0.2599776 0.2599306 0.2599917 0.2603432 0.2609743 0.2616727 0.2622367 0.2626327 0.2629216
 0.2631511 0.2633512 0.2634872 0.2633857 0.2629165 0.2623298 0.2621984 0.2628599 0.2640332 0.2651198
 0.2657999 0.2661957 0.2665309 0.2668566 0.2671208 0.2672169 0.2668468 0.2656921 0.2640299 0.2629063
 0.2632699 0.2650168 0.2671641 0.2688322 0.269801 0.2702929 0.2705888 0.2708389 0.2709514 0.270606
 0.2696114 0.2683793 0.2678196 0.268501 0.2700111 0.2714006 0.2721563 0.2724683 0.2727146 0.2730376
 0.2732503 0.2727885 0.2710261 0.268201 0.2658816 0.2658637 0.2684144 0.2719527 0.274618 0.2758669
 0.2763246 0.276416 0.2757381 0.2737859 0.270719 0.2672921 0.264611 0.2639705 0.2659976 0.269592
 0.2725528 0.2737468 0.2740653 0.2749655 0.2767335 0.2784948 0.2793438 0.279046 0.2778853 0.2761649
 0.2740589 0.2720647 0.2712815 0.2726324 0.275736 0.2790397 0.2812532 0.2823309 0.2827938 0.2822114
 0.2788926 0.2719167 0.2636783 0.2592302 0.261822 0.2695028 0.2772235 0.2818096 0.2837018 0.2845771
 0.2850897 0.284699 0.2819986 0.2754912 0.2659652 0.2579783 0.2567747 0.2630999 0.2723542 0.2788796
 0.2798041 0.2753417 0.2677825 0.2608138 0.2580148 0.2606886 0.2672902 0.2749488 0.2811914 0.2846293
 0.2849461 0.2827566 0.2795612 0.2773875 0.2773264 0.2779216 0.2762707 0.2716859 0.2668301 0.2638109
 0.2609372 0.2558732 0.2507688 0.2508377 0.2575644 0.2662051 0.2711105 0.2714465 0.2701784 0.2686926
 0.2644575 0.2546907 0.2416332 0.2326559 0.2338135 0.2435642 0.2541412 0.2591455 0.258633 0.2568618
 0.2566082 0.2563303 0.2523482 0.2436411 0.2343007 0.2301091 0.2324088 0.2369049 0.2387646 0.2365
 0.2303244 0.220571 0.2103913 0.206778 0.2146839 0.2309691 0.2468514 0.2551476 0.2529475 0.2400662
 0.2199779 0.2018223 0.1959782 0.2048095 0.2198005 0.229376 0.2281073 0.217726 0.2021442 0.1847141
 0.1697158 0.1629165 0.1681314 0.1833064 0.2005933 0.2103133 0.2063335 0.1907848 0.1743439 0.1685698
 0.1754787 0.1862055 0.190938 0.1878016 0.1815135 0.1772436 0.1775907 0.182172 0.18807 0.1925444
 0.1952219 0.1951438 0.1878507 0.170766 0.1504446 0.138275 0.1386396 0.1466775 0.1574009 0.1701576
 0.1826971 0.188131 0.1827138 0.1729597 0.1700809 0.1780732 0.1902808 0.1974951 0.197043 0.1932579
 0.1907886 0.1896486 0.1875169 0.1850898 0.1863093 0.1929107 0.2013939 0.2069314 0.2084076 0.2080008
 0.2074879 0.206902 0.2057874 0.2039982 0.2016081 0.199025 0.1968676 0.1952621 0.1937311 0.1919209
 0.1895814 0.1855283 0.1779267 0.1669376 0.1563492 0.1506062 0.1501487 0.1517088 0.1531616 0.154792
 0.154793 0.1479517 0.1325376 0.1159901 0.1095117 0.1172554 0.1332405 0.1481544 0.1564139 0.1566227
 0.1488838 0.1352479 0.1222409 0.1187826 0.1288463 0.1476277 0.1667222 0.1813676 0.1908843 0.1946459
 0.19141 0.1824349 0.1726439 0.167824 0.1711609 0.1818162 0.1950935 0.2035457 0.2006519 0.1873882
 0.1751756 0.1774056 0.195289 0.2157103 0.2259643 0.2266422 0.2263175 0.2282342 0.2287635 0.2268916
 0.2279469 0.2362999 0.2489123 0.2583211 0.2591951 0.2504376 0.2344286 0.2174685 0.2081374 0.210456
 0.2193404 0.226128 0.2269584 0.2223151 0.2119135 0.1966943 0.1841262 0.1837527 0.1961317 0.211556
 0.2210845 0.2246712 0.2271365 0.2298373 0.2290443 0.22162 0.2102484 0.2017642 0.2003985 0.2040909
 0.2079917 0.2095807 0.2087483 0.2049339 0.1974602 0.1886558 0.183885 0.1869333 0.1961275 0.2059161
 0.2118452 0.2133718 0.2125564 0.2113891 0.2104227 0.2089569 0.2064412 0.2042761 0.2055164 0.2115559
 0.2198096 0.2263202 0.2302639 0.2342089 0.240067 0.2464164 0.2501882 0.250003 0.2475119 0.245997
 0.2477503 0.2522357 0.2564685 0.2575534 0.2554373 0.2532187 0.2542994 0.2591406 0.2651877 0.2697701
 0.2722829 0.2736447 0.2747312 0.2756214 0.2755538 0.2735173 0.2697286 0.2665047 0.2666364 0.2706207
 0.2761759 0.2805814 0.2828564 0.283617 0.2836054 0.2828983 0.2813348 0.2792325 0.2774153 0.2765701
 0.2767589 0.2775795 0.2785946 0.2795184 0.2802026 0.2806311 0.2808873 0.2810543 0.2811836 0.2813438
 0.2815917 0.2818838 0.2821283 0.2823536 0.2827246 0.2833264 0.2840131 0.2845402 0.2847778 0.2846995
 0.2842376 0.2833033 0.2819475 0.2803579 0.2786471 0.2767731 0.2747917 0.2731396 0.2725059 0.2733155
 0.2753405 0.2778473 0.280099 0.281715 0.2826702 0.28312 0.2832664 0.2832868 0.283282 0.2832605
 0.2831787 0.2830039 0.2827418 0.2824181 0.2820556 0.2816824 0.281347 0.281094 0.2809183 0.2807605
 0.2805505 0.2802509 0.2798681 0.2794361 0.2789834 0.2785 0.2779325 0.2772179 0.276338 0.2753485
 0.2743527 0.2734361 0.2726124 0.2718216 0.2709809 0.2700365 0.2689596 0.2677097 0.2662566 0.2646611
 0.2630843 0.2616656 0.2604121 0.2592269 0.258005 0.2566758 0.2552032 0.2535923 0.2518835 0.250119
 0.248325 0.2465232 0.2447318 0.2429524 0.2411736 0.2393881 0.2375935 0.2357816 0.2339379 0.2320447
 0.2300669 0.2279269 0.2255037 0.2226692 0.2193241 0.2154087 0.2109104 0.2058955 0.2005293 0.1950399
 0.1896495 0.1845276 0.1797888 0.1755163 0.1717866 0.1686727 0.1662335 0.1645072 0.1635131 0.1632458
 0.1636721 0.1647363 0.1663601 0.1684285 0.170787 0.1732586 0.1756683 0.1778755 0.1798229 0.1815663
 0.1832352 0.184937 0.1866862 0.1884205 0.1900684 0.1915863 0.1929378 0.194077 0.194978 0.1956668
 0.1962014 0.1966299 0.1969711 0.197219 0.1973569 0.1973864 0.1973504 0.1973203 0.1973579 0.197492
 0.1977239 0.1980505 0.1984837 0.1990462 0.1997493 0.200579 0.2015048 0.2024976 0.2035445 0.2046508
 0.2058296 0.2070926 0.2084649 0.2099962 0.2117353 0.2136964 0.2158571 0.2181711 0.2205651 0.2229351
 0.2251672 0.2271632 0.2288595 0.2302352 0.2313069 0.2321122 0.2326985 0.2331182 0.2334139 0.2336063
 0.233699 0.2336873 0.2335614 0.2333159 0.2329576 0.2324975 0.2319454 0.231322 0.2306613 0.2299889
 0.2293105 0.2286302 0.2279635 0.227327 0.226722 0.2261288 0.2255177 0.2248734 0.2242091 0.2235481
 0.2228907 0.2222004 0.2214187 0.2204987 0.2194381 0.2182727 0.2170305 0.2157045 0.2142787 0.212757
 0.2111586 0.2095062 0.2078222 0.2061177 0.2043801 0.2025786 0.2006765 0.1986411 0.1964698 0.1942186
 0.1919859 0.1898571 0.1878671 0.1860071 0.1842503 0.1825756 0.1809758 0.1794457 0.1779739 0.1765522
 0.1751871 0.1738889 0.1726598 0.1714994 0.1704161 0.1694303 0.168563 0.167816 0.1671636 0.1665729
 0.1660294 0.1655398 0.1651269 0.1648241 0.1646482 0.1645644 0.1644955 0.1643738 0.1641744 0.1639147
 0.1636402 0.1633951 0.1631842 0.1629748 0.1627387 0.1624658 0.1621294 0.1616631 0.1609768 0.1599897
 0.1586606 0.157009 0.1551147 0.153098 0.1510938 0.1492244 0.1475797 0.1462198 0.1451709 0.1443953
 0.1437886 0.1432506 0.1427627 0.1423874 0.1422008 0.1422086 0.1423052 0.1423399 0.1422604 0.1421719
 0.1422337 0.1425264 0.1430206 0.1436169 0.1441989 0.1446893 0.1450664 0.1453227 0.1454444 0.1454448
 0.145366 0.1452316 0.1450336 0.1447677 0.1444472 0.144086 0.1436848 0.1432239 0.1426754 0.1420332
 0.141313 0.1405185 0.1396418 0.1386779 0.1375941 0.136341 0.1349792 0.1337548 0.1329691 0.1327822
 0.133147 0.13387 0.1347352 0.1356232 0.1364712 0.1371032 0.1372813 0.137082 0.1370852 0.1379523
 0.1397879 0.1420296 0.1439617 0.1452214 0.1458049 0.1457882 0.1452112 0.1441289 0.1425878 0.1405809
 0.1381314 0.1353481 0.1323509 0.1292608 0.1262745 0.1236032 0.1213463 0.119504 0.1180422 0.116985
 0.1164707 0.1161515 0.114201 0.1082923 0.09920624 0.09240521 0.09342894 0.101661 0.1107699 0.1153995
 0.1154344 0.1137605 0.1123522 0.1114884 0.1110486 0.1111648 0.1119651 0.1133058 0.1147828 0.1159744
 0.116713 0.1170541 0.1169852 0.1161961 0.1140134 0.1096183 0.1027064 0.09408882 0.08541343 0.07818312
 0.07308271 0.07001615 0.0684303 0.06763382 0.06713529 0.06687036 0.06710844 0.0681246 0.06995979 0.07246333
 0.07545301 0.07870397 0.08184214 0.08447909 0.08650981 0.0881118 0.08942045 0.09036352 0.09082492 0.0908126
 0.0904363 0.08982737 0.08910105 0.08832243 0.08746725 0.0864483 0.08525437 0.08408275 0.0832406 0.08285682
 0.08277744 0.08278197 0.0827845 0.08279119 0.08280011 0.08279552 0.08276676 0.08273854 0.08281828 0.08313
 0.08364963 0.0841881 0.08457118 0.08477606 0.08488907 0.08495109 0.08483537 0.08436108 0.08361075 0.08295865
 0.0825821 0.08213358 0.08119167 0.07990988 0.07891765 0.07863504 0.07891746 0.07932393 0.07951537 0.07940164
 0.07912625 0.07900815 0.07933481 0.08003393</values></Ydata></ScSm><ScRf><Ydata ylabel="Single channel"><values byteorder="INTEL" format="FLOAT32" numvalues="1820"> 0.06075854 0.06091538 0.06100268 0.06102658 0.06101627 0.06101843 0.06108124 0.061225 0.0614242 0.06161982
 0.06175833 0.06182589 0.06183816 0.06180391 0.06172918 0.06165988 0.06167585 0.06181553 0.06202353 0.06218771
 0.06222901 0.06217022 0.06212339 0.0621792 0.06228472 0.06225556 0.06194855 0.06142607 0.06091954 0.06061825
 0.06055017 0.06071204 0.06118274 0.06190538 0.06244134 0.06228042 0.06147724 0.06068344 0.06042464 0.06059799
 0.06077467 0.06070076 0.06037374 0.05994351 0.05976256 0.06029485 0.06165667 0.06323447 0.0639067 0.0627567
 0.05972917 0.05583086 0.05275522 0.0519767 0.05371413 0.0566332 0.05884687 0.05942364 0.05883504 0.05799173
 0.05725574 0.05656724 0.05609787 0.05629178 0.05725966 0.05836018 0.05853416 0.05721954 0.05501979 0.05326848
 0.05280682 0.05345777 0.05474463 0.0564089 0.05769313 0.05693026 0.05318426 0.04832653 0.04620278 0.04898022
 0.0548337 0.05972209 0.06097852 0.05881781 0.05517779 0.05211098 0.05099452 0.05215954 0.05484769 0.05783799
 0.06017936 0.06123216 0.06050807 0.0581001 0.0550963 0.05305018 0.05302996 0.05520654 0.05881809 0.06223097
 0.06367709 0.06256089 0.05986005 0.05709443 0.05532261 0.05513844 0.05682456 0.06006535 0.06392293 0.06736985
 0.06970298 0.0706308 0.07035163 0.06942777 0.06835143 0.0674473 0.06716494 0.06781261 0.06880952 0.0688972
 0.06750643 0.06552126 0.06437415 0.06456506 0.06525825 0.06529737 0.06437942 0.06287955 0.06070869 0.0572692
 0.05282857 0.04890911 0.04676893 0.0464361 0.04760211 0.05010956 0.0528919 0.05392123 0.05242755 0.05030719
 0.05024555 0.05285382 0.05635542 0.05875063 0.05966999 0.06023216 0.06160951 0.06382733 0.06561804 0.06537874
 0.06275877 0.05954415 0.05839295 0.06022832 0.06335223 0.0655331 0.06635962 0.06699345 0.06813839 0.06894855
 0.06791694 0.06467457 0.06093717 0.05943133 0.06151562 0.06581953 0.06923863 0.06922498 0.06550049 0.0601191
 0.05586987 0.05434537 0.05552427 0.05884989 0.06384559 0.06953554 0.07417566 0.07622837 0.0754806 0.07297773
 0.06982402 0.06615391 0.06169072 0.05743968 0.05591164 0.05875925 0.06466959 0.0704534 0.07388701 0.07482713
 0.07398833 0.07158525 0.06752871 0.06273617 0.05956513 0.05998672 0.0632088 0.06611957 0.06654064 0.06521451
 0.06421103 0.06435184 0.0648998 0.0651406 0.06541193 0.06652862 0.06860945 0.07076956 0.07196854 0.07195009
 0.07129248 0.07074414 0.07054379 0.07023701 0.06931545 0.06822496 0.06832045 0.07037722 0.07352284 0.07613356
 0.07746553 0.07792962 0.07800204 0.07738179 0.07541738 0.07232299 0.06968345 0.0692805 0.0713686 0.07451059
 0.07707295 0.07840721 0.07870449 0.07839841 0.07786421 0.07730091 0.07680702 0.07664757 0.07717791 0.07833531
 0.07952978 0.08023611 0.08042398 0.08028828 0.0798718 0.07914829 0.07829515 0.07769196 0.07764638 0.07816878
 0.07901955 0.07991973 0.0806454 0.0809928 0.08085436 0.08037129 0.07985221 0.07949492 0.07931183 0.07931569
 0.07958848 0.08011368 0.08069259 0.08111064 0.08130899 0.08135034 0.08129225 0.08114842 0.08093755 0.08073182
 0.08065125 0.08078039 0.081067 0.08135588 0.08156865 0.08178218 0.08206204 0.08230016 0.08232687 0.08214014
 0.08192012 0.08183219 0.08189335 0.08202089 0.08212668 0.0821295 0.08194246 0.08155057 0.08111522 0.08091158
 0.0811059 0.08163583 0.08231555 0.08297096 0.08346506 0.08371937 0.0837731 0.08374504 0.08369684 0.08358766
 0.08338042 0.0831475 0.08305217 0.08322563 0.08364843 0.08415604 0.08457162 0.08481748 0.08491438 0.08494517
 0.08502334 0.08520548 0.08540732 0.08548228 0.0854057 0.08531438 0.08534338 0.08547556 0.08557597 0.08555113
 0.08545509 0.08543291 0.08556594 0.0857963 0.08601066 0.08616811 0.08632144 0.08652262 0.08672553 0.08680363
 0.08668578 0.08645707 0.08627866 0.0862195 0.08622947 0.08627172 0.08639255 0.0866244 0.08688723 0.08705083
 0.08707789 0.08705679 0.08708447 0.08715001 0.08715755 0.08704647 0.08685898 0.08669378 0.08662257 0.08665383
 0.08674507 0.08683039 0.08685236 0.08679284 0.08668022 0.08656001 0.08646065 0.08639932 0.08641456 0.08655509
 0.08680459 0.08703607 0.08708832 0.08691202 0.08662701 0.08641648 0.08636148 0.08638279 0.08633819 0.08616064
 0.08589831 0.08564319 0.08544892 0.08531363 0.08521038 0.08511984 0.08505275 0.08505441 0.08516245 0.08533423
 0.08543901 0.08536483 0.08513046 0.08486342 0.08467743 0.08459792 0.08458526 0.08458909 0.08458997 0.08461504
 0.08469546 0.08479573 0.08482536 0.08474498 0.08462204 0.08456243 0.08462436 0.08480074 0.08502649 0.08519058
 0.08520468 0.08509198 0.08497119 0.08493584 0.08498137 0.0850553 0.08513319 0.08522175 0.08532123 0.08542275
 0.08553787 0.08570303 0.08594216 0.08622952 0.08649544 0.08667547 0.08676516 0.08683383 0.08697639 0.08723828
 0.08758005 0.08791258 0.08816962 0.08835395 0.08851726 0.08869694 0.08888488 0.0890681 0.08927675 0.08955639
 0.08990072 0.09024974 0.09055763 0.09083217 0.09110501 0.09139207 0.09169343 0.09201648 0.09238403 0.09280853
 0.09325119 0.0936237 0.09385861 0.09397942 0.09408807 0.09428854 0.09462004 0.09502859 0.09538719 0.09558906
 0.0956585 0.09573805 0.09593271 0.09620164 0.09644341 0.09665209 0.09692718 0.09733275 0.09780037 0.09819276
 0.09843987 0.09859307 0.09875179 0.09895267 0.09914137 0.09925441 0.0993084 0.09938176 0.09951857 0.09969773
 0.09990817 0.1001969 0.1005981 0.1010524 0.1014495 0.1017311 0.1019163 0.1020458 0.1021444 0.1022211
 0.1022725 0.1022988 0.1023306 0.1024102 0.1025279 0.1026187 0.1026453 0.1026515 0.1027094 0.102849
 0.1030639 0.1033463 0.1036738 0.1039904 0.1042551 0.1045085 0.1048334 0.1052301 0.1055812 0.1057757
 0.1058287 0.105836 0.1058507 0.1058683 0.10591 0.1060414 0.106294 0.106624 0.1069692 0.107312
 0.1076671 0.1080305 0.1083583 0.1085902 0.1086904 0.1086771 0.1086208 0.1086124 0.1087217 0.1089645
 0.1092951 0.1096338 0.1099154 0.1101084 0.1101969 0.1101781 0.1101016 0.1100781 0.1101941 0.1104112
 0.1105832 0.1105784 0.1103639 0.1099752 0.1094483 0.108809 0.1081088 0.1074359 0.1068805 0.1064929
 0.1062842 0.1062654 0.1064705 0.1069185 0.1075538 0.1082554 0.1089082 0.1094353 0.1097572 0.1097777
 0.1094539 0.108856 0.1081228 0.1073758 0.1066835 0.1060659 0.1054967 0.1049375 0.1044192 0.1040852
 0.1041277 0.1046736 0.1057189 0.1071309 0.1086889 0.110158 0.111384 0.1123495 0.1131388 0.1138448
 0.1145134 0.1151654 0.1158281 0.1165099 0.1171665 0.1177355 0.1182055 0.1186192 0.1190147 0.1193919
 0.1197314 0.1200188 0.1202581 0.1204769 0.1206993 0.120898 0.121001 0.1209715 0.1208566 0.1207341
 0.1206269 0.120487 0.1202459 0.1198719 0.1194085 0.1189875 0.1188005 0.1190193 0.1197037 0.1207652
 0.1220295 0.1233433 0.1246161 0.1257732 0.1267225 0.1274044 0.1278506 0.1281611 0.1284319 0.1287161
 0.1290265 0.1293488 0.1296597 0.1299479 0.1302211 0.1304972 0.1307979 0.1311347 0.131485 0.1317967
 0.1320384 0.1322435 0.1324889 0.1328245 0.1332246 0.1336145 0.1339499 0.1342573 0.13458 0.1349016
 0.1351614 0.1353393 0.1354888 0.1356835 0.1359602 0.1363106 0.1366897 0.1370286 0.1372763 0.1374439
 0.1375919 0.1377721 0.1379936 0.1382414 0.1385012 0.1387625 0.1390184 0.1392778 0.1395646 0.1398852
 0.1401992 0.1404464 0.1406081 0.1407311 0.1408817 0.1410855 0.141315 0.1415293 0.1417201 0.1419239
 0.1421859 0.1425079 0.1428326 0.1430887 0.1432529 0.1433638 0.1434807 0.1436371 0.1438331 0.1440526
 0.1442773 0.1444917 0.1446902 0.1448829 0.1450858 0.1453041 0.1455279 0.1457452 0.1459538 0.1461599
 0.1463684 0.1465796 0.1467974 0.1470357 0.1473081 0.1476068 0.1478959 0.148135 0.1483098 0.148439
 0.1485545 0.1486804 0.148827 0.1489956 0.1491828 0.1493824 0.1495874 0.1497923 0.1499939 0.1501933
 0.1503955 0.1506079 0.1508336 0.1510665 0.151296 0.1515195 0.1517432 0.1519694 0.1521887 0.1523914
 0.1525812 0.1527725 0.1529748 0.1531827 0.1533809 0.1535603 0.1537303 0.1539111 0.1541131 0.1543271
 0.154536 0.1547319 0.1549184 0.1551022 0.1552861 0.15547 0.155654 0.1558413 0.1560364 0.1562412
 0.1564495 0.1566501 0.1568369 0.1570172 0.1572031 0.1573997 0.1576053 0.1578185 0.1580361 0.1582483
 0.1584466 0.1586341 0.1588213 0.159016 0.1592198 0.1594288 0.1596351 0.1598314 0.1600184 0.1602032
 0.1603927 0.1605892 0.160792 0.1610003 0.1612165 0.1614424 0.161672 0.1618941 0.1621037 0.1623035
 0.1624985 0.1626956 0.1629045 0.1631288 0.1633582 0.1635782 0.1637859 0.1639915 0.1642024 0.1644122
 0.1646081 0.1647876 0.1649609 0.1651352 0.1653076 0.165475 0.1656429 0.1658186 0.1660061 0.1662053
 0.1664095 0.1666093 0.1668032 0.1669992 0.1672031 0.1674127 0.1676241 0.1678349 0.1680438 0.1682515
 0.1684588 0.1686635 0.1688647 0.1690651 0.169265 0.1694629 0.1696646 0.1698773 0.1700962 0.1703106
 0.1705204 0.1707319 0.1709455 0.1711581 0.171368 0.1715735 0.1717761 0.1719825 0.172195 0.1724081
 0.1726202 0.1728343 0.1730469 0.1732523 0.1734542 0.1736581 0.173863 0.1740696 0.174283 0.1745006
 0.1747149 0.1749252 0.1751346 0.1753428 0.1755517 0.1757648 0.1759804 0.1761972 0.1764197 0.1766449
 0.1768623 0.1770712 0.1772758 0.1774607 0.1775775 0.1775078 0.1769637 0.1753801 0.171905 0.1655771
 0.1557179 0.1423704 0.126434 0.1093424 0.09253733 0.07709734 0.06363939 0.05241853 0.04348239 0.03676093
 0.03210933 0.02939182 0.02858494 0.02989106 0.0338569 0.04104895 0.05082635 0.06025323 0.06524235 0.06378572
 0.05787467 0.0516816 0.04808924 0.04729669 0.04806501 0.04933453 0.05076599 0.0525535 0.05504058 0.05833764
 0.06229414 0.06690285 0.07250337 0.07934418 0.08705427 0.09479924 0.102004 0.1088086 0.1157745 0.1232196
 0.1308915 0.1382195 0.1447668 0.1504455 0.155428 0.1599503 0.1641772 0.1681834 0.1720028 0.1756296
 0.1789389 0.1816499 0.1834605 0.1842793 0.1843348 0.1840434 0.183763 0.1836587 0.1837514 0.1840209
 0.1844454 0.1849985 0.1856552 0.186397 0.187201 0.1880377 0.1888812 0.1897114 0.1905082 0.1912549
 0.1919419 0.1925677 0.1931377 0.1936599 0.1941363 0.1945671 0.1949622 0.195338 0.1957019 0.196052
 0.196388 0.1967103 0.1970123 0.1972861 0.197533 0.1977625 0.1979839 0.1982024 0.1984181 0.1986285
 0.198835 0.1990427 0.199253 0.199463 0.1996709 0.1998766 0.2000781 0.2002746 0.2004697 0.2006668
 0.2008644 0.2010601 0.2012535 0.201446 0.2016383 0.2018303 0.2020195 0.2022042 0.2023898 0.2025846
 0.2027888 0.2029947 0.2031952 0.2033907 0.2035902 0.2038057 0.2040373 0.2042681 0.2044826 0.2046854
 0.2048903 0.2051008 0.2053127 0.2055237 0.2057261 0.2059034 0.2060503 0.2061902 0.2063604 0.2065785
 0.2068245 0.2070582 0.2072575 0.207435 0.2076172 0.2078162 0.2080233 0.2082193 0.2083923 0.2085605
 0.2087628 0.2090131 0.2092819 0.2095359 0.2097722 0.2100021 0.2102323 0.2104695 0.2107103 0.2109228
 0.211074 0.2111824 0.2113245 0.2115729 0.2119271 0.2123063 0.2126224 0.2128587 0.2130641 0.2132926
 0.2135673 0.2138609 0.2140748 0.2141042 0.2139937 0.2139674 0.2142259 0.2147486 0.2153433 0.2158455
 0.2162196 0.2165122 0.2167688 0.2169899 0.2171344 0.217166 0.2171249 0.2171569 0.2174199 0.2179213
 0.2184928 0.21896 0.2192836 0.219512 0.2196905 0.2198462 0.2199449 0.2198376 0.2194205 0.2189142
 0.2188043 0.2193693 0.2203617 0.221269 0.2218199 0.2221243 0.2223844 0.2226539 0.2228867 0.2229803
 0.2226727 0.2216931 0.2202783 0.2193138 0.2196056 0.221074 0.2228952 0.2243245 0.225165 0.2255923
 0.2258395 0.2260412 0.226131 0.2258395 0.2249988 0.2239549 0.2234851 0.2240777 0.2253816 0.2265839
 0.2272398 0.2275057 0.2277053 0.2279704 0.2281542 0.227782 0.226317 0.2239506 0.2220044 0.2219981
 0.2241604 0.2271544 0.2294046 0.2304528 0.2308344 0.2309156 0.2303559 0.228727 0.2261683 0.2233225
 0.2211166 0.2206247 0.2223595 0.2253906 0.2278732 0.2288654 0.2291266 0.2298889 0.2313958 0.2329095
 0.2336615 0.2334478 0.2325044 0.2310851 0.2293354 0.2276772 0.2270437 0.2282161 0.2308712 0.2336977
 0.2356069 0.2365579 0.2369854 0.2365222 0.2337426 0.2278767 0.2209512 0.2172296 0.2194534 0.2259825
 0.2325615 0.2365033 0.2381636 0.2389506 0.2394221 0.2391307 0.2368913 0.2314353 0.2234276 0.2167248
 0.2157627 0.2211686 0.2290509 0.2346274 0.2354665 0.2317382 0.225375 0.2195072 0.2171789 0.2195008
 0.2251628 0.2317278 0.2370962 0.2400923 0.2404497 0.2386885 0.23608 0.2343436 0.2343967 0.2349931
 0.2336736 0.2298733 0.2258629 0.2234221 0.2210958 0.2168903 0.2126456 0.2128235 0.218704 0.226237
 0.2305885 0.2310403 0.2301273 0.2290332 0.2255849 0.2173889 0.2063583 0.1988227 0.1999968 0.2085614
 0.217831 0.2222974 0.222016 0.2206675 0.220659 0.2206623 0.2174776 0.2101955 0.2023587 0.1989992
 0.2012974 0.2055326 0.2075118 0.2059293 0.2009351 0.1927949 0.1842807 0.1815619 0.1890273 0.2039379
 0.2185526 0.2264982 0.2251355 0.2142212 0.1968173 0.1811437 0.1765843 0.1852932 0.1995792 0.2089722
 0.2085407 0.1998044 0.186261 0.1709703 0.1579575 0.1527094 0.1589168 0.1747095 0.1926154 0.2032681
 0.2006184 0.1866672 0.1718906 0.1677161 0.1761151 0.1882078 0.1941732 0.1921422 0.1868677 0.1836264
 0.1851749 0.1911748 0.1985526 0.2044067 0.20833 0.2091939 0.2020755 0.184179 0.1626719 0.1499507
 0.1507773 0.1598883 0.1719131 0.1861713 0.2001525 0.2062353 0.2002839 0.1894693 0.1861325 0.1946808
 0.2078325 0.2155167 0.214831 0.2105453 0.2077701 0.2065392 0.2043399 0.2019714 0.2037661 0.2115968
 0.2215884 0.2284411 0.2309515 0.2315257 0.2321068 0.2326942 0.2327315 0.2320186 0.2306404 0.2290873
 0.2280904 0.2278053 0.227673 0.227259 0.2262255 0.2230683 0.2154443 0.203455 0.1917259 0.1857362
 0.1860181 0.188536 0.190703 0.1928998 0.1928703 0.1841286 0.1645147 0.1432345 0.134157 0.1424105
 0.1605681 0.1771279 0.1853214 0.183707 0.1727646 0.155119 0.1382576 0.1321473 0.1410968 0.1596325
 0.1783549 0.1920207 0.2000718 0.2021378 0.1971096 0.1863633 0.1749846 0.168841 0.1710399 0.1805972
 0.1927396 0.2000889 0.1962868 0.1823461 0.1694228 0.1705485 0.1869405 0.2059432 0.2152539 0.2153641
 0.214489 0.2157922 0.2158629 0.2137448 0.2145051 0.2223209 0.2343545 0.2435559 0.2448577 0.2371721
 0.2227129 0.2074819 0.1997035 0.2031935 0.2129495 0.2205311 0.2221897 0.2183636 0.2087174 0.1942223
 0.1823913 0.1827541 0.1958241 0.2118778 0.2220019 0.2262065 0.2293577 0.2327907 0.2326792 0.2258203
 0.2149819 0.207192 0.2068037 0.211711 0.2169461 0.2199145 0.2204259 0.2177394 0.2110237 0.2027506
 0.1987237 0.2030469 0.213864 0.2250615 0.2317048 0.2331278 0.2315426 0.2291567 0.2266703 0.2234277
 0.2188923 0.2145644 0.213686 0.2177764 0.2242156 0.2289416 0.2311016 0.2333275 0.2375982 0.2425112
 0.2449877 0.2436317 0.2400543 0.2374697 0.2381212 0.2415036 0.2447352 0.2450129 0.2422777 0.2395186
 0.2400179 0.2442185 0.2496606 0.2537817 0.2560087 0.257228 0.2582739 0.2591933 0.2592042 0.2572854
 0.2536131 0.2503958 0.2503096 0.2538505 0.2588678 0.2627917 0.2647127 0.2652434 0.2651073 0.2643816
 0.2629076 0.260974 0.2593436 0.2586507 0.2589454 0.2598392 0.2609063 0.2618683 0.2625849 0.2630476
 0.2633405 0.2635359 0.2636598 0.2637479 0.2638329 0.2638647 0.2637599 0.2635728 0.2635136 0.2637219
 0.2640916 0.2643878 0.2644624 0.264267 0.2637291 0.2627707 0.2614544 0.2599722 0.2584363 0.256796
 0.2550792 0.2536747 0.2532217 0.2541176 0.2561432 0.2585983 0.2607885 0.2623745 0.2633604 0.2638973
 0.2641444 0.2642276 0.2642264 0.2641677 0.2640445 0.2638485 0.2635821 0.2632504 0.2628624 0.2624464
 0.2620534 0.2617235 0.2614462 0.261164 0.260817 0.2603837 0.2598848 0.2593582 0.2588264 0.2582737
 0.2576513 0.2569104 0.2560382 0.2550737 0.2540941 0.2531792 0.2523646 0.2516195 0.2508773 0.2500847
 0.2492078 0.2482098 0.2470783 0.2458912 0.2448041 0.2439287 0.2432404 0.2426208 0.2419587 0.2411946
 0.2403104 0.2393233 0.2382755 0.2372025 0.2361106 0.2349904 0.2338297 0.2326066 0.2312922 0.2298716
 0.2283527 0.2267568 0.2251157 0.2234664 0.221812 0.2200789 0.2181281 0.215815 0.2130281 0.209692
 0.2057783 0.2013417 0.1965347 0.1915713 0.1866635 0.1819815 0.1776512 0.1737705 0.1704203 0.167667
 0.1655633 0.1641457 0.1634291 0.1634111 0.164083 0.1654247 0.1673781 0.1698294 0.1726222 0.1755854
 0.1785495 0.1813638 0.183939 0.1862897 0.1885077 0.1906586 0.1927079 0.194564 0.1961772 0.1975664
 0.1987638 0.1997768 0.2006126 0.2013052 0.2019016 0.2024349 0.2029128 0.203324 0.2036531 0.2038985
 0.204083 0.2042466 0.2044255 0.2046343 0.2048665 0.2051116 0.2053692 0.2056519 0.2059805 0.2063741
 0.2068365 0.2073545 0.2079145 0.2085136 0.2091518 0.2098268 0.2105506 0.2113627 0.2123131 0.2134302
 0.2146989 0.2160636 0.2174486 0.2187781 0.219982 0.2209954 0.22177 0.2222887 0.2225667 0.2226423
 0.2225629 0.2223664 0.2220694 0.2216811 0.2212206 0.2207079 0.2201458 0.2195291 0.2188677 0.2181822
 0.2174837 0.2167751 0.216069 0.215385 0.2147302 0.2140935 0.2134643 0.2128447 0.2122404 0.2116476
 0.2110568 0.2104671 0.2098863 0.209319 0.2087586 0.208183 0.2075543 0.2068315 0.205999 0.205072
 0.2040664 0.2029727 0.2017734 0.2004715 0.1990868 0.1976329 0.1961118 0.1945268 0.1928854 0.1911852
 0.1894017 0.1875039 0.1854942 0.1834343 0.181423 0.1795439 0.1778306 0.1762634 0.1747926 0.1733774
 0.1720147 0.1707257 0.1695184 0.1683764 0.1672792 0.1662186 0.165199 0.1642353 0.1633476 0.1625489
 0.1618363 0.1611934 0.1606057 0.1600798 0.1596435 0.1593161 0.1590891 0.1589498 0.158902 0.1589396
 0.1590128 0.1590476 0.1589974 0.1588699 0.1587112 0.1585676 0.158456 0.1583705 0.1583041 0.1582389
 0.1581155 0.1578341 0.1572908 0.1564173 0.1552024 0.1536907 0.1519601 0.1501124 0.1482813 0.1466066
 0.1451796 0.144029 0.1431478 0.1424973 0.1420016 0.1415913 0.1412594 0.1410595 0.1410522 0.1412339
 0.1414904 0.1416597 0.1416885 0.1416991 0.1418712 0.1422915 0.1429242 0.1436655 0.1444045 0.1450693
 0.1456275 0.1460485 0.1463087 0.1464272 0.1464448 0.1463761 0.146224 0.1460083 0.1457463 0.1454397
 0.1450955 0.1447094 0.1442433 0.1436641 0.1429808 0.1422165 0.1413856 0.1404944 0.1395107 0.1383757
 0.1371311 0.1359964 0.135255 0.135083 0.1354787 0.1362823 0.1372773 0.1383305 0.1393704 0.140212
 0.1406033 0.1406064 0.1407943 0.1418373 0.1438605 0.1463037 0.1484234 0.1498365 0.1505542 0.1506782
 0.1502542 0.1493194 0.1478787 0.1458803 0.1433467 0.1404433 0.1373465 0.1341902 0.1311567 0.1284394
 0.1261302 0.1242527 0.1228155 0.1218554 0.1214835 0.121304 0.1194021 0.11335 0.103976 0.09701631
 0.09827439 0.1070802 0.1167757 0.1217393 0.1218402 0.1200916 0.1185715 0.1176061 0.1171036 0.1172065
 0.1180175 0.1193517 0.1207965 0.1219629 0.1227184 0.1231185 0.1231141 0.1223342 0.1200386 0.1153592
 0.107983 0.09876893 0.08947067 0.08171621 0.07626924 0.0730348 0.07140642 0.07061896 0.07011705 0.06982313
 0.07005309 0.07113102 0.07309848 0.07577977 0.07898168 0.08247025 0.08583969 0.08866554 0.09083896 0.09256834
 0.09401549 0.09509186 0.09563609 0.09563637 0.09523046 0.09459236 0.09386393 0.09311801 0.09231535 0.09133446
 0.09014225 0.08894271 0.08805396 0.08761013 0.0874771 0.08746026 0.08746798 0.08747247 0.08744922 0.08738653
 0.08729098 0.08720648 0.08724982 0.0875368 0.0880307 0.08853943 0.08888932 0.08905666 0.08912845 0.08913855
 0.08893977 0.08834107 0.08744441 0.08665495 0.08616789 0.08563635 0.08462623 0.0832774 0.08222474 0.08190306
 0.0821564 0.08251202 0.0826285 0.08245365 0.08216049 0.08205669 0.08239841 0.08309396 0.08366411 0.08367944
</values></Ydata></ScRf><Data_Parameters_AB><parameter name="DPF">1</parameter><parameter name="NPT">3497</parameter><parameter name="FXV">3996</parameter><parameter name="LXV">500</parameter><parameter name="CSF">1</parameter><parameter name="MXY">0.0956003069877625</parameter><parameter name="MNY">-0.0831497609615326</parameter><parameter name="DAT">01/06/2022</parameter><parameter name="TIM">11:25:38.447 (GMT+2)</parameter><parameter name="DXU">WN</parameter></Data_Parameters_AB><AB__Qtest><MainReport name="Quality Test Report"><Header><Line><Legend>Test result ok/not ok [1/0]: </Legend><Value>0</Value></Line><Line><Legend>Method file: </Legend><Value>C:\Users\Public\Documents\Bruker\OPUS_8.2.28\QT\IRBT_v3_default.QT</Value></Line></Header><Matrix><Line><Legend></Legend><Legend>min</Legend><Legend>max</Legend><Legend>measured</Legend></Line><Line><Value>Absorption (X-Range 1):</Value><Value>0.400000</Value><Value>2.000000</Value><Value>0.133266</Value></Line><Line><Value>Noise (X-Range 4):</Value><Value></Value><Value>0.000300</Value><Value>0.000042</Value></Line><Line><Value>Signal/Noise (X-Range 2):</Value><Value>200.000000</Value><Value></Value><Value>49.318075</Value></Line><Line><Value>Signal/Noise (X-Range 3):</Value><Value>40.000000</Value><Value></Value><Value>40.380244</Value></Line><Line><Value>Water vapour (X-Range 5):</Value><Value></Value><Value>0.000300</Value><Value>0.000071</Value></Line><Line><Value>Signal/Water (X-Range 2):</Value><Value>100.000000</Value><Value></Value><Value>29.666364</Value></Line><Line><Value>Signal/Water (X-Range 3):</Value><Value>20.000000</Value><Value></Value><Value>24.289979</Value></Line><Line><Value>Fringes (X-Range 6):</Value><Value></Value><Value>0.000100</Value><Value>0.000065</Value></Line></Matrix></MainReport></AB__Qtest><Data_Parameters_ScSm><parameter name="DPF">1</parameter><parameter name="NPT">1814</parameter><parameter name="FXV">3996.33169228125</parameter><parameter name="LXV">499.541461535156</parameter><parameter name="CSF">1</parameter><parameter name="MXY">0.285089731216431</parameter><parameter name="MNY">0.0346159785985947</parameter><parameter name="DAT">01/06/2022</parameter><parameter name="TIM">11:25:38.447 (GMT+2)</parameter><parameter name="DXU">WN</parameter></Data_Parameters_ScSm><Data_Parameters_ScRf><parameter name="DPF">1</parameter><parameter name="NPT">1820</parameter><parameter name="FXV">4004.04661832813</parameter><parameter name="LXV">495.683998511719</parameter><parameter name="CSF">1</parameter><parameter name="MXY">0.265243351459503</parameter><parameter name="MNY">0.0285849403589964</parameter><parameter name="DAT">01/06/2022</parameter><parameter name="TIM">11:25:12.806 (GMT+2)</parameter><parameter name="DXU">WN</parameter></Data_Parameters_ScRf><Optic_Parameters_Rf><parameter name="APR">0</parameter><parameter name="APT">Open</parameter><parameter name="BMS">KBr</parameter><parameter name="DTC">RT-DLaTGS_IR-Biotyper [Microplate reader]</parameter><parameter name="HPF">0</parameter><parameter name="LPF">10.0</parameter><parameter name="LPV">4000</parameter><parameter name="PGR">0</parameter><parameter name="RCH">Module port</parameter><parameter name="RDX">0</parameter><parameter name="SRC">MIR</parameter><parameter name="VEL">10.0</parameter><parameter name="SON">Off</parameter></Optic_Parameters_Rf><Acquisition_Parameters_Rf><parameter name="ADT">1</parameter><parameter name="AQM">DD</parameter><parameter name="CFE">0</parameter><parameter name="COR">0</parameter><parameter name="DEL">0</parameter><parameter name="DLY">0</parameter><parameter name="HFW">8000</parameter><parameter name="LFW">0</parameter><parameter name="NSR">32</parameter><parameter name="PLF">AB</parameter><parameter name="RES">6</parameter><parameter name="RGN">-1</parameter><parameter name="STR">0</parameter><parameter name="TCL">MakeCompatibleScalar (0, {WSV=1.000000, ARV=0});</parameter><parameter name="TDL">37</parameter><parameter name="RPO">0</parameter></Acquisition_Parameters_Rf><FT_-_Parameters_Rf><parameter name="APF">B3</parameter><parameter name="HFQ">500</parameter><parameter name="LFQ">4000</parameter><parameter name="NLI">0</parameter><parameter name="PHR">24</parameter><parameter name="PHZ">ML</parameter><parameter name="SPZ">NO</parameter><parameter name="ZFF">1</parameter></FT_-_Parameters_Rf><Optic_Parameters_><parameter name="APR">0</parameter><parameter name="APT">Open</parameter><parameter name="BMS">KBr</parameter><parameter name="CHN">Module port</parameter><parameter name="DTC">RT-DLaTGS_IR-Biotyper [Microplate reader]</parameter><parameter name="HPF">0</parameter><parameter name="LPF">10.0</parameter><parameter name="LPV">4000</parameter><parameter name="PGN">0</parameter><parameter name="RDX">0</parameter><parameter name="SRC">MIR</parameter><parameter name="VEL">10.0</parameter><parameter name="SON">Off</parameter></Optic_Parameters_><FT_-_Parameters_><parameter name="APF">B3</parameter><parameter name="HFQ">500</parameter><parameter name="LFQ">4000</parameter><parameter name="NLI">0</parameter><parameter name="PHR">24</parameter><parameter name="PHZ">ML</parameter><parameter name="SPZ">NO</parameter><parameter name="ZFF">1</parameter></FT_-_Parameters_><Acquisition_Parameters_><parameter name="ADT">1</parameter><parameter name="AQM">DD</parameter><parameter name="CFE">0</parameter><parameter name="COR">0</parameter><parameter name="DEL">0</parameter><parameter name="DLY">0</parameter><parameter name="HFW">8000</parameter><parameter name="LFW">0</parameter><parameter name="NSS">32</parameter><parameter name="PLF">AB</parameter><parameter name="RES">6</parameter><parameter name="SOT">0</parameter><parameter name="TCL">MakeCompatibleScalar (0, {WSV=1.000000, ARV=0});</parameter><parameter name="TDL">37</parameter><parameter name="SPO">0</parameter><parameter name="SGN">-1</parameter></Acquisition_Parameters_><Instrument_Parameters_Rf><parameter name="HFL">15800.168544</parameter><parameter name="LFL">0</parameter><parameter name="LWN">15800.168544</parameter><parameter name="ABP">32197</parameter><parameter name="SSP">1</parameter><parameter name="ARG">2</parameter><parameter name="ASG">2</parameter><parameter name="ASS">32</parameter><parameter name="GFW">16</parameter><parameter name="GBW">16</parameter><parameter name="BFW">0</parameter><parameter name="BBW">0</parameter><parameter name="PKA">7310</parameter><parameter name="PKL">4990</parameter><parameter name="PRA">7481</parameter><parameter name="PRL">5001</parameter><parameter name="P2A">1</parameter><parameter name="P2L">1</parameter><parameter name="P2R">1</parameter><parameter name="P2K">1</parameter><parameter name="DAQ">0</parameter><parameter name="AG2">1</parameter><parameter name="SSM">1</parameter><parameter name="RSN">25893</parameter><parameter name="CRR">0</parameter><parameter name="SRT">1654082712.807</parameter><parameter name="DUR">19.6389923095703</parameter><parameter name="TSC">29</parameter><parameter name="MVD">0.28837651014328</parameter><parameter name="AN1">0.225809675684566</parameter><parameter name="AN2">0</parameter><parameter name="VSN">2.485 Apr  4 2017</parameter><parameter name="SRN">0085</parameter><parameter name="CAM">0</parameter><parameter name="INS">IR-Biotyper</parameter><parameter name="FOC">69</parameter><parameter name="RDY">1</parameter><parameter name="ARS">32</parameter></Instrument_Parameters_Rf><Sample_Parameters_><parameter name="BLD"></parameter><parameter name="CNM">Admin</parameter><parameter name="CPY"></parameter><parameter name="DPM"></parameter><parameter name="EXP">IRBT_v3_32Scans.XPM</parameter><parameter name="LCT"></parameter><parameter name="SFM">Microplate, HTS-XT</parameter><parameter name="SNM">220601-1028(v.3)_RTF49M (D_8)_E4_78d061c2-9e6b-40f7-a069-da27c0dde2fb.0</parameter><parameter name="XPP">C:\Users\Public\Documents\Bruker\OPUS_8.2.28\XPM</parameter><parameter name="IST">OK</parameter><parameter name="CPG">1252</parameter><parameter name="UID">be7d91fe-0898-4265-9378-e60836801637</parameter></Sample_Parameters_><Instrument_Parameters_><parameter name="HFL">15800.168544</parameter><parameter name="LFL">0</parameter><parameter name="LWN">15800.168544</parameter><parameter name="ABP">32197</parameter><parameter name="SSP">1</parameter><parameter name="ASG">2</parameter><parameter name="ARG">2</parameter><parameter name="ASS">32</parameter><parameter name="GFW">16</parameter><parameter name="GBW">16</parameter><parameter name="BFW">0</parameter><parameter name="BBW">0</parameter><parameter name="PKA">7904</parameter><parameter name="PKL">4988</parameter><parameter name="PRA">8130</parameter><parameter name="PRL">4993</parameter><parameter name="P2A">1</parameter><parameter name="P2L">1</parameter><parameter name="P2R">1</parameter><parameter name="P2K">1</parameter><parameter name="DAQ">0</parameter><parameter name="AG2">1</parameter><parameter name="SSM">1</parameter><parameter name="RSN">13572</parameter><parameter name="CRR">0</parameter><parameter name="SRT">1654082738.448</parameter><parameter name="DUR">19.6389923095703</parameter><parameter name="TSC">29</parameter><parameter name="MVD">0.77211457490921</parameter><parameter name="AN1">0.225797695077903</parameter><parameter name="AN2">0</parameter><parameter name="VSN">2.485 Apr  4 2017</parameter><parameter name="SRN">0085</parameter><parameter name="CAM">0</parameter><parameter name="INS">IR-Biotyper</parameter><parameter name="FOC">69</parameter><parameter name="RDY">1</parameter></Instrument_Parameters_><History/></OPUSDataFile>
