<?xml version="1.0" encoding="UTF-8" ?>
<OPUSDataFile><AB><Ydata ylabel="Absorbance Units"><values byteorder="INTEL" format="FLOAT32" numvalues="3497"> -0.06013012 -0.06014463 -0.06016706 -0.06019882 -0.06021945 -0.06022788 -0.06020357 -0.06014724 -0.06006078 -0.05994916
 -0.05984187 -0.05974323 -0.05968624 -0.05966635 -0.05969203 -0.05975055 -0.05982555 -0.05990671 -0.05997496 -0.06002924
 -0.06006097 -0.06007766 -0.06007948 -0.06007886 -0.06008017 -0.0600924 -0.06012022 -0.06015862 -0.06020898 -0.06025388
 -0.06029176 -0.06031019 -0.06030842 -0.06029188 -0.06026175 -0.06023494 -0.06021211 -0.06020673 -0.06021642 -0.06024092
 -0.06027523 -0.06030712 -0.06033416 -0.06034487 -0.06034496 -0.06033522 -0.06032482 -0.06032295 -0.06032933 -0.06034911
 -0.06036927 -0.06038684 -0.06038907 -0.06037057 -0.06033348 -0.06027544 -0.06021515 -0.06015363 -0.06011318 -0.06009514
 -0.06010697 -0.06014731 -0.06019984 -0.06026226 -0.06031091 -0.06034858 -0.06037165 -0.06038647 -0.06040779 -0.0604362
 -0.06048105 -0.06053582 -0.06059717 -0.06065813 -0.06071274 -0.06075472 -0.06077996 -0.0607818 -0.0607552 -0.06070409
 -0.06062512 -0.0605416 -0.06045542 -0.06039433 -0.06036157 -0.06037049 -0.06042206 -0.06051425 -0.06064609 -0.06080599
 -0.06099002 -0.06117096 -0.06134088 -0.0614539 -0.06151081 -0.06148348 -0.06139415 -0.06126471 -0.06112004 -0.06100016
 -0.0609109 -0.06087445 -0.06087395 -0.06090932 -0.06095337 -0.06099427 -0.0610216 -0.06102739 -0.06102611 -0.06101887
 -0.06101898 -0.06102909 -0.06104041 -0.0610526 -0.06104993 -0.06103296 -0.06100646 -0.06097342 -0.0609558 -0.06095404
 -0.06098324 -0.061038 -0.0611143 -0.06120341 -0.06128841 -0.061365 -0.06142008 -0.06145729 -0.06147548 -0.06147791
 -0.06146612 -0.06144198 -0.06140373 -0.06136488 -0.06132561 -0.06131223 -0.06132912 -0.06139556 -0.06151661 -0.06167151
 -0.06185995 -0.0619822 -0.06203458 -0.06193465 -0.06170102 -0.06141439 -0.06109124 -0.06084023 -0.06065381 -0.06056869
 -0.06056889 -0.06064829 -0.06078172 -0.06094087 -0.061097 -0.06121441 -0.06128733 -0.0612953 -0.0612696 -0.06121591
 -0.06116664 -0.06113526 -0.0611187 -0.06112047 -0.06111801 -0.06110868 -0.06108434 -0.06104412 -0.06100406 -0.06096542
 -0.0609512 -0.06096074 -0.06100328 -0.06107322 -0.06115599 -0.06124348 -0.06130671 -0.06134484 -0.06133967 -0.0613035
 -0.06124168 -0.06117164 -0.06111002 -0.06106624 -0.06105227 -0.06106366 -0.06110392 -0.06115651 -0.06121873 -0.06127332
 -0.0613159 -0.06134383 -0.06135602 -0.06135756 -0.06134881 -0.06132416 -0.06128316 -0.06121667 -0.06112627 -0.06101714
 -0.06089303 -0.0607707 -0.06065338 -0.06055748 -0.06048435 -0.0604451 -0.06043563 -0.0604587 -0.06050001 -0.06055104
 -0.06059325 -0.06061186 -0.06060293 -0.06055741 -0.06049421 -0.06041468 -0.0603444 -0.06028865 -0.06025894 -0.06025788
 -0.06028096 -0.06032817 -0.06038771 -0.06045859 -0.06052373 -0.06058213 -0.06061725 -0.06063155 -0.06062434 -0.06060175
 -0.06057964 -0.06056078 -0.06055872 -0.06056984 -0.06059529 -0.0606306 -0.06066986 -0.06071858 -0.06077578 -0.06085585
 -0.06096634 -0.06110807 -0.0612887 -0.06147393 -0.06166164 -0.06180543 -0.06189841 -0.06193177 -0.06190439 -0.06182297
 -0.06168732 -0.06149019 -0.06123564 -0.0609449 -0.06062912 -0.06034421 -0.06009709 -0.05993665 -0.05985707 -0.05987892
 -0.05997051 -0.06010533 -0.06024516 -0.06033996 -0.06039571 -0.06039665 -0.06037503 -0.06034256 -0.06031281 -0.06029547
 -0.06027593 -0.06025411 -0.06020914 -0.06013723 -0.0600422 -0.05992363 -0.05980853 -0.05969828 -0.05961903 -0.05957057
 -0.05956595 -0.0596006 -0.0596671 -0.05975304 -0.05982142 -0.05986539 -0.05984954 -0.05978941 -0.05968992 -0.05956663
 -0.05943802 -0.05930251 -0.05916452 -0.05901938 -0.05886337 -0.05870522 -0.05854513 -0.05839818 -0.05826836 -0.0581569
 -0.05806597 -0.05797642 -0.05788746 -0.05776916 -0.05762107 -0.05743355 -0.05721221 -0.05699389 -0.05678257 -0.05661719
 -0.05649043 -0.05640207 -0.05634527 -0.05630701 -0.05628483 -0.05627348 -0.05626309 -0.05624751 -0.0562061 -0.05612335
 -0.05599172 -0.05580042 -0.05556559 -0.05529039 -0.05498365 -0.05464821 -0.05428293 -0.05388716 -0.05346918 -0.05302938
 -0.05257904 -0.05211885 -0.05166023 -0.05120546 -0.0507768 -0.05037661 -0.05002955 -0.04973004 -0.04947804 -0.0492619
 -0.04905843 -0.04886451 -0.04866668 -0.04846555 -0.04826336 -0.04804088 -0.04779004 -0.0474864 -0.04711096 -0.04667954
 -0.04618939 -0.04567413 -0.04514004 -0.04460615 -0.04407525 -0.04355951 -0.04305995 -0.04258492 -0.04213467 -0.04171247
 -0.04131781 -0.04095054 -0.04060647 -0.04027226 -0.03993495 -0.03955076 -0.0391146 -0.03858551 -0.03799455 -0.03736314
 -0.03672407 -0.03612036 -0.03555048 -0.03502902 -0.03453609 -0.03406806 -0.03360346 -0.03313451 -0.03265288 -0.03215408
 -0.03164718 -0.03113288 -0.03061785 -0.030103 -0.02957679 -0.02903862 -0.02847528 -0.02788876 -0.02728838 -0.02667722
 -0.0260744 -0.02547906 -0.02489802 -0.02433063 -0.02377848 -0.0232422 -0.02272562 -0.02222203 -0.02172865 -0.02123387
 -0.02072802 -0.02021013 -0.01967702 -0.01913228 -0.01857895 -0.01800611 -0.01741228 -0.01678714 -0.01612655 -0.01545436
 -0.01477135 -0.01411709 -0.0134925 -0.01290858 -0.01236224 -0.01183474 -0.01132253 -0.01079974 -0.01026664 -0.009708598
 -0.009132561 -0.008544346 -0.00795143 -0.007368797 -0.006792723 -0.006228538 -0.005660153 -0.005078638 -0.004473703 -0.003834161
 -0.00317476 -0.002494804 -0.001821316 -0.001159935 -0.0005252181 7.911862E-05 0.000658698 0.001213173 0.001763138 0.002309638
 0.002872139 0.003450419 0.004051219 0.004673722 0.005318485 0.005984106 0.006669631 0.007367717 0.008065614 0.008752864
 0.009407692 0.01003151 0.0106145 0.01117178 0.01171049 0.01224077 0.01277071 0.01329719 0.01382109 0.01433727
 0.01484342 0.01534556 0.01584289 0.01635371 0.01687919 0.01743602 0.01802424 0.01863765 0.01927341 0.0199041
 0.02052956 0.02113264 0.02171924 0.0222981 0.02287271 0.0234564 0.02404375 0.02463409 0.02521864 0.02578803
 0.02633935 0.02686522 0.02737514 0.02786836 0.028366 0.0288743 0.02940735 0.02997215 0.03055482 0.03115608
 0.03174679 0.03232455 0.03287779 0.0334066 0.03392195 0.03442452 0.03492505 0.03542225 0.03591571 0.03640403
 0.03688246 0.03735156 0.03780908 0.03825907 0.03870537 0.0391536 0.03961156 0.04007905 0.04056014 0.04104644
 0.04153513 0.04202009 0.04249799 0.04297034 0.04343721 0.04389843 0.0443542 0.0448018 0.04524077 0.0456764
 0.04610907 0.04654884 0.04699499 0.04744637 0.04790021 0.04834252 0.04877243 0.04917865 0.04956546 0.04993517
 0.05029433 0.05065374 0.05101554 0.05138696 0.05176383 0.05214486 0.05252873 0.05291277 0.05330393 0.05370451
 0.05411637 0.05454249 0.05496851 0.05539347 0.05580088 0.05618891 0.05655932 0.05691252 0.05726345 0.05761262
 0.0579709 0.05833739 0.05871398 0.05909897 0.05948885 0.05988135 0.06027026 0.06065434 0.06102926 0.06139467
 0.06175009 0.06209102 0.06241519 0.06271645 0.06298912 0.06323909 0.06346398 0.06368455 0.06390437 0.06414019
 0.06439617 0.06466714 0.06495366 0.06523512 0.06551071 0.06576814 0.06600935 0.06624655 0.06648322 0.06674412
 0.06702742 0.06734315 0.06768173 0.06802863 0.0683757 0.0687025 0.0690132 0.06930193 0.06958234 0.0698631
 0.07014968 0.07045133 0.07075118 0.07104868 0.07131606 0.07154573 0.07172974 0.07186328 0.07197131 0.07205509
 0.07214256 0.07223447 0.07232704 0.07241838 0.07248679 0.07253511 0.07256377 0.07258151 0.07261644 0.07267182
 0.07277156 0.07290521 0.07307065 0.07325013 0.07342404 0.07358436 0.07371452 0.07383051 0.07393086 0.07404912
 0.0741967 0.07439156 0.07464541 0.07492938 0.07524538 0.07552855 0.07577401 0.07593103 0.07599811 0.07598165
 0.07588699 0.07576854 0.07562976 0.07551839 0.07542895 0.07536798 0.07533191 0.07531196 0.07531831 0.07536343
 0.07545156 0.07560103 0.07578211 0.07598589 0.07616774 0.07629827 0.07637418 0.0763789 0.07636347 0.07633425
 0.07634196 0.07639855 0.07649776 0.07664246 0.0767736 0.07688817 0.07692812 0.07689526 0.07678181 0.07659876
 0.07639484 0.07618266 0.07602911 0.07593476 0.07593846 0.07602138 0.0761781 0.07637554 0.07657993 0.0767631
 0.07689101 0.07696397 0.07696705 0.07693311 0.07686652 0.07680781 0.07676659 0.07676783 0.0768165 0.07692382
 0.07709116 0.07732535 0.07762645 0.07798593 0.07839939 0.07882257 0.07924549 0.07959349 0.07986123 0.07998537
 0.07998336 0.07985117 0.07963432 0.07939446 0.07917608 0.07905645 0.07903129 0.0791362 0.07930459 0.07952078
 0.07970355 0.07981929 0.07983436 0.07972781 0.07953399 0.07925067 0.07894689 0.07862825 0.07834396 0.07809614
 0.07788733 0.07771577 0.07756254 0.07742945 0.07731534 0.07722552 0.07717929 0.07717387 0.07721912 0.07729368
 0.07737623 0.07743146 0.0774155 0.07730334 0.07705615 0.07668903 0.07618931 0.07561475 0.07497699 0.07434089
 0.07372334 0.07316176 0.07266504 0.07224212 0.07189554 0.07161149 0.07138891 0.07118395 0.07099324 0.07076149
 0.07049277 0.07017548 0.06982512 0.06948835 0.06917151 0.06891956 0.06870987 0.06853163 0.06835239 0.0681282
 0.06785636 0.06751116 0.06713259 0.06672813 0.06635223 0.0660275 0.06577674 0.0656174 0.06550857 0.065453
 0.06536064 0.06522391 0.06497562 0.06461282 0.06415576 0.06361157 0.06306729 0.06252693 0.06206037 0.06165867
 0.06132984 0.06106225 0.06083319 0.06063776 0.06046038 0.06029478 0.06013208 0.05995767 0.05975803 0.05952435
 0.05924403 0.05893242 0.05858816 0.05824308 0.05790491 0.05759142 0.05730903 0.05704349 0.05679522 0.05653216
 0.05625271 0.05593929 0.05559357 0.0552284 0.05484777 0.0544811 0.05412849 0.05380772 0.05351223 0.05323692
 0.05297375 0.05270709 0.05243478 0.05214773 0.05184906 0.05153865 0.05121837 0.05088967 0.05055159 0.05020354
 0.04984718 0.04948195 0.04911434 0.04874506 0.04838003 0.04801995 0.04766658 0.04732 0.04697923 0.04664411
 0.04631285 0.0459851 0.045658 0.04533151 0.04500389 0.04467556 0.04434688 0.04401755 0.04368788 0.0433558
 0.04301884 0.04267661 0.0423252 0.0419746 0.04162443 0.04129983 0.04100865 0.04077258 0.04060377 0.04048219
 0.04041292 0.04032424 0.04021116 0.04000235 0.03969403 0.03928308 0.0387757 0.03824547 0.03770145 0.03723595
 0.03684575 0.03657582 0.03640192 0.036297 0.03622489 0.03611432 0.03594827 0.03566968 0.03531004 0.03486567
 0.03439833 0.03394249 0.0335266 0.03317681 0.03286406 0.03258634 0.03231501 0.03203962 0.03179004 0.03156611
 0.03142574 0.03137199 0.0314116 0.0315387 0.03168252 0.03183301 0.03189342 0.03186467 0.03169265 0.03139766
 0.0309946 0.03051486 0.03001575 0.02951652 0.02906553 0.02865442 0.02829439 0.02796607 0.02765876 0.02737155
 0.02709992 0.02685474 0.02664153 0.02644703 0.02627278 0.02608314 0.02587338 0.02563939 0.02538073 0.02514751
 0.02494235 0.02481598 0.02476205 0.02477174 0.02483113 0.02488514 0.02492801 0.02491563 0.02485738 0.02474773
 0.02460037 0.02443156 0.02424182 0.02404193 0.02381226 0.02354665 0.02322436 0.02283013 0.02238022 0.02186692
 0.02135673 0.02085655 0.02043581 0.02010485 0.01986702 0.01972314 0.0195994 0.01949111 0.01931434 0.01907371
 0.01875002 0.01836034 0.01795543 0.0175484 0.01720028 0.01690355 0.01667729 0.01649851 0.01634856 0.01620886
 0.01605672 0.01588902 0.01569577 0.0154873 0.01526298 0.01504181 0.01482823 0.01463672 0.01447336 0.01432238
 0.01418508 0.01401414 0.01380686 0.01353452 0.01320005 0.01283868 0.01245732 0.01212116 0.01182356 0.01158041
 0.01136935 0.01114142 0.01088785 0.0105626 0.01019226 0.009785071 0.009379358 0.009012723 0.008694789 0.008445863
 0.008246581 0.008093433 0.007973252 0.00787968 0.007819314 0.007793079 0.007802291 0.007849228 0.007906306 0.007972222
 0.00799852 0.007983368 0.007889569 0.00772087 0.007478555 0.007173683 0.006845817 0.00650676 0.006205942 0.005946427
 0.005757483 0.005631774 0.005573007 0.005570568 0.005616674 0.005705317 0.005831127 0.005991363 0.006185673 0.006404905
 0.006648806 0.006898905 0.007151575 0.007397438 0.007632885 0.007883172 0.00814931 0.008484561 0.008890686 0.009405114
 0.0100225 0.01073003 0.01151668 0.0123344 0.01317688 0.01400242 0.01481561 0.01560362 0.01637826 0.01714768
 0.01792367 0.01871819 0.01953934 0.02039501 0.02128823 0.02222339 0.02319478 0.02420474 0.02523206 0.02627613
 0.02730239 0.02830794 0.02925999 0.03015645 0.03097693 0.03172044 0.03237084 0.03292561 0.0333594 0.03367144
 0.03383889 0.03387619 0.03379756 0.03364148 0.03347423 0.03334021 0.03332254 0.0334338 0.03372094 0.03415145
 0.03472321 0.03539377 0.03614275 0.03695838 0.03783088 0.03877388 0.03978851 0.04088466 0.04206425 0.04332388
 0.04466357 0.04607028 0.04754291 0.04906178 0.05062737 0.05222978 0.05387633 0.0555888 0.05737605 0.05927889
 0.06128309 0.06340379 0.06556668 0.06772535 0.06970809 0.0714003 0.07254032 0.07296127 0.07245161 0.0708502
 0.06822534 0.06450055 0.0601096 0.05507807 0.05000178 0.04494418 0.0403398 0.03622188 0.0327011 0.02976997
 0.02730005 0.02527381 0.02351346 0.02201296 0.02065726 0.0194451 0.01831906 0.01727186 0.01626531 0.01529402
 0.01433277 0.01339171 0.01246783 0.01158163 0.01074483 0.009968889 0.009263414 0.008623011 0.00804913 0.007529876
 0.007062729 0.006643757 0.006270964 0.005958117 0.005705661 0.005542965 0.005470625 0.00550406 0.005636362 0.005831474
 0.006074246 0.00628443 0.00645451 0.006518024 0.006491121 0.006365595 0.006176312 0.005959325 0.005751532 0.005593323
 0.005516468 0.005546856 0.005714051 0.006031924 0.006531975 0.007220376 0.008141659 0.009301813 0.01075388 0.01251047
 0.01454557 0.01686345 0.01919459 0.021509 0.0232545 0.02439594 0.02438535 0.02327863 0.02095654 0.01760363
 0.0136156 0.00919622 0.004904925 0.0008188013 -0.002715679 -0.005777024 -0.008302293 -0.01043022 -0.01222719 -0.01378761
 -0.01516907 -0.01640333 -0.01750945 -0.01849856 -0.01937336 -0.02015194 -0.02083549 -0.02144845 -0.02199229 -0.02249273
 -0.02295104 -0.02338954 -0.02380869 -0.0242228 -0.02463134 -0.02504072 -0.02544834 -0.02585216 -0.0262462 -0.02661873
 -0.02696547 -0.02727314 -0.02754961 -0.02779343 -0.0280244 -0.0282543 -0.02849538 -0.02875994 -0.02903409 -0.02931993
 -0.02958573 -0.02982526 -0.03002133 -0.0301687 -0.03028767 -0.03037871 -0.03048232 -0.03059954 -0.03074778 -0.03092331
 -0.03110567 -0.03129264 -0.03146071 -0.03161807 -0.03177366 -0.0319383 -0.03214032 -0.03237453 -0.0326513 -0.0329468
 -0.03324527 -0.03352323 -0.03375944 -0.03395004 -0.0340847 -0.03418108 -0.03423941 -0.03428825 -0.03433228 -0.03439545
 -0.03448186 -0.03459723 -0.03474261 -0.03490555 -0.03508526 -0.03526648 -0.03544918 -0.03562683 -0.03579919 -0.0359625
 -0.03611455 -0.03624669 -0.03635879 -0.03644413 -0.03651011 -0.03656218 -0.03661066 -0.03666851 -0.03673603 -0.03682002
 -0.03690789 -0.03699595 -0.03707441 -0.03713702 -0.03719261 -0.03724004 -0.03729995 -0.03737504 -0.03747543 -0.03760246
 -0.03774484 -0.03790162 -0.0380523 -0.03819691 -0.03832542 -0.03844044 -0.03854776 -0.0386496 -0.03875633 -0.03886554
 -0.03897903 -0.03909006 -0.0391903 -0.03927545 -0.03933613 -0.0393789 -0.03940228 -0.03942268 -0.03944611 -0.03948653
 -0.03955042 -0.03963916 -0.03975517 -0.03988972 -0.04004235 -0.04020324 -0.04037173 -0.040539 -0.04070461 -0.04086055
 -0.04100706 -0.04114166 -0.04126622 -0.04138775 -0.04150742 -0.04163364 -0.04176284 -0.04189327 -0.04201845 -0.04212771
 -0.04222068 -0.04229024 -0.04234757 -0.04239576 -0.04245026 -0.04251947 -0.04260891 -0.04272414 -0.04285512 -0.04300206
 -0.0431482 -0.0432913 -0.04342241 -0.04354044 -0.04364941 -0.04374963 -0.04384879 -0.04394628 -0.04404097 -0.04413111
 -0.0442076 -0.044271 -0.04431647 -0.04434947 -0.0443774 -0.04440701 -0.04445125 -0.04451158 -0.04459544 -0.04469722
 -0.04481635 -0.04494494 -0.04507927 -0.04521488 -0.04534939 -0.04548227 -0.04561305 -0.04574193 -0.04586898 -0.04599315
 -0.04611438 -0.04623178 -0.04634538 -0.04645605 -0.0465638 -0.0466693 -0.04677222 -0.04687138 -0.04696662 -0.04705651
 -0.04714184 -0.04722344 -0.04730196 -0.0473788 -0.04745375 -0.04752678 -0.04759856 -0.04766904 -0.04774039 -0.04781381
 -0.04788962 -0.04796845 -0.04804845 -0.04812896 -0.04821104 -0.04829435 -0.048384 -0.04848044 -0.04858544 -0.04869885
 -0.04881481 -0.04893283 -0.04904592 -0.04915461 -0.04925734 -0.04935548 -0.04945206 -0.04954834 -0.0496485 -0.04975236
 -0.04986227 -0.04997488 -0.05008864 -0.05019846 -0.05029982 -0.0503924 -0.05047349 -0.05055004 -0.05062338 -0.05070015
 -0.05078251 -0.05087029 -0.05096395 -0.05106051 -0.05115978 -0.05126024 -0.05136177 -0.05146177 -0.05155987 -0.05165115
 -0.05173617 -0.05181425 -0.05188759 -0.05196252 -0.05204033 -0.05212776 -0.05222207 -0.0523232 -0.05242576 -0.05252448
 -0.0526159 -0.05269517 -0.05276429 -0.05282176 -0.05287478 -0.05292485 -0.05297938 -0.05304066 -0.05310997 -0.0531884
 -0.0532696 -0.05335329 -0.05343131 -0.05350335 -0.05356603 -0.05361991 -0.05366812 -0.05371196 -0.05375918 -0.0538106
 -0.05387358 -0.05394612 -0.05402889 -0.05411641 -0.05420106 -0.05427938 -0.05434338 -0.0543979 -0.05444233 -0.05448636
 -0.05453507 -0.05459175 -0.05465988 -0.05473344 -0.05481212 -0.05488876 -0.0549621 -0.05503027 -0.05509293 -0.05515155
 -0.05520626 -0.05526002 -0.0553132 -0.05537062 -0.0554322 -0.05550094 -0.05557495 -0.05565027 -0.05572481 -0.05579126
 -0.05585165 -0.0559044 -0.05595589 -0.05601211 -0.05607669 -0.0561559 -0.05624408 -0.05634168 -0.05643743 -0.05652748
 -0.05660614 -0.0566704 -0.05672523 -0.0567705 -0.0568144 -0.05685773 -0.05690205 -0.0569473 -0.05698824 -0.05702485
 -0.05705429 -0.05707809 -0.05710185 -0.05712777 -0.05716613 -0.05721673 -0.05728507 -0.05736741 -0.05746123 -0.05756177
 -0.05766303 -0.05776316 -0.05785858 -0.05795074 -0.05803965 -0.05812603 -0.05821088 -0.05829083 -0.05836561 -0.05843072
 -0.05848508 -0.05852997 -0.05856506 -0.0585992 -0.05863287 -0.05867584 -0.05872796 -0.05879204 -0.05886697 -0.05894877
 -0.05903653 -0.05912541 -0.05921533 -0.05930386 -0.05939111 -0.05947633 -0.05955926 -0.05963951 -0.05971647 -0.05978971
 -0.05985837 -0.05992181 -0.05998001 -0.06003228 -0.06008138 -0.06012733 -0.0601751 -0.06022539 -0.06028165 -0.06034445
 -0.06041155 -0.06048276 -0.06055083 -0.06061559 -0.06067168 -0.0607203 -0.06076424 -0.06080545 -0.0608522 -0.06090418
 -0.06096587 -0.06103346 -0.06110352 -0.06117225 -0.0612336 -0.06128848 -0.06133461 -0.06137737 -0.0614184 -0.06146315
 -0.06151401 -0.06157285 -0.06164104 -0.06171574 -0.06179713 -0.06187918 -0.06196156 -0.06203637 -0.0621032 -0.06215581
 -0.06219458 -0.06222015 -0.06223444 -0.0622474 -0.0622611 -0.06228829 -0.06232753 -0.06238313 -0.06244979 -0.06252145
 -0.06259406 -0.0626602 -0.06272104 -0.06277478 -0.06282448 -0.06287169 -0.06291656 -0.06295979 -0.06299954 -0.06303512
 -0.06306763 -0.06309672 -0.06312703 -0.06315886 -0.0631967 -0.06324071 -0.0632913 -0.063348 -0.06340622 -0.06346554
 -0.06352092 -0.06357299 -0.06362064 -0.0636656 -0.06371103 -0.06375808 -0.06381045 -0.06386681 -0.06392802 -0.06398992
 -0.06405012 -0.06410458 -0.06415003 -0.06418703 -0.06421428 -0.06423665 -0.06425485 -0.06427339 -0.06429315 -0.0643155
 -0.06434059 -0.06436969 -0.06440286 -0.06444203 -0.06448713 -0.06453773 -0.06459369 -0.06465349 -0.06471833 -0.06479035
 -0.06487299 -0.06497446 -0.0650981 -0.06525318 -0.06543929 -0.06566073 -0.06591208 -0.06619059 -0.06649245 -0.06681188
 -0.06715968 -0.06753462 -0.06796287 -0.06845101 -0.06901263 -0.06965516 -0.07034634 -0.0710862 -0.07181094 -0.07251728
 -0.07315672 -0.07372779 -0.07420165 -0.07457318 -0.07479806 -0.07487372 -0.07476185 -0.0744774 -0.07402716 -0.07344501
 -0.07277852 -0.07207305 -0.07139252 -0.07077131 -0.07025511 -0.06985695 -0.0695952 -0.06947082 -0.06949146 -0.06963915
 -0.06992032 -0.0702665 -0.07067483 -0.07103937 -0.07134853 -0.07156219 -0.07167836 -0.0717366 -0.07173837 -0.07171184
 -0.07165481 -0.0715678 -0.07145134 -0.07130661 -0.07113753 -0.07095256 -0.07075706 -0.07056274 -0.07037344 -0.07019988
 -0.07003668 -0.06988531 -0.0697333 -0.06957283 -0.06940268 -0.06921742 -0.06903379 -0.0688542 -0.06869444 -0.06855837
 -0.06844579 -0.06835748 -0.06828483 -0.06822742 -0.06817752 -0.06813478 -0.06809299 -0.06805164 -0.06800434 -0.06795152
 -0.0678907 -0.06782394 -0.0677545 -0.06768443 -0.06761865 -0.06755745 -0.0675031 -0.06745499 -0.06741287 -0.06737788
 -0.06735048 -0.06733181 -0.06732315 -0.06732133 -0.06732667 -0.06733155 -0.06733463 -0.06733217 -0.06732325 -0.06731323
 -0.06730238 -0.06729999 -0.06730606 -0.06732363 -0.06735142 -0.06738374 -0.06741937 -0.06745061 -0.06747819 -0.06749941
 -0.06751709 -0.0675346 -0.06755414 -0.06758042 -0.06761152 -0.06764877 -0.06768563 -0.06771941 -0.0677439 -0.06775526
 -0.06775483 -0.06774094 -0.06772311 -0.06770213 -0.06768873 -0.06768426 -0.06769218 -0.06771274 -0.06774065 -0.06777542
 -0.06780937 -0.06784259 -0.06787154 -0.06789668 -0.06791801 -0.06793518 -0.06794754 -0.06795432 -0.06795353 -0.06794606
 -0.06793153 -0.0679129 -0.0678921 -0.06787205 -0.06785494 -0.06784181 -0.06783343 -0.06783026 -0.06783234 -0.06784111
 -0.06785689 -0.06788039 -0.06791201 -0.06794772 -0.06798732 -0.06802332 -0.06805558 -0.06808013 -0.06809796 -0.06811296
 -0.06812609 -0.06814322 -0.06816342 -0.06818782 -0.0682143 -0.06823992 -0.06826333 -0.06828196 -0.06829488 -0.06830054
 -0.0682988 -0.06828823 -0.06827269 -0.06825215 -0.06823481 -0.06822275 -0.06822117 -0.06823209 -0.06825123 -0.06827872
 -0.06830565 -0.06833152 -0.06835229 -0.06836828 -0.06838285 -0.06839656 -0.06841448 -0.06843646 -0.06846487 -0.06849873
 -0.06853712 -0.06857867 -0.06862082 -0.06866238 -0.0687008 -0.06873611 -0.06876713 -0.06879555 -0.06882191 -0.06884781
 -0.06887422 -0.06890091 -0.06892822 -0.06895462 -0.06897987 -0.06900322 -0.0690245 -0.06904462 -0.06906361 -0.06908346
 -0.06910424 -0.06912765 -0.0691535 -0.06918181 -0.06921173 -0.06924023 -0.06926627 -0.06928542 -0.06929806 -0.06930191
 -0.06930019 -0.06929523 -0.06929114 -0.06929237 -0.06929998 -0.06931669 -0.06933877 -0.06936578 -0.06939298 -0.06941871
 -0.06944198 -0.06946187 -0.06948242 -0.06950384 -0.06953076 -0.0695635 -0.06960133 -0.06964375 -0.06968315 -0.06971906
 -0.06974389 -0.06975917 -0.06976568 -0.06976677 -0.06977139 -0.06978074 -0.06980199 -0.06983188 -0.06986985 -0.06991135
 -0.06995184 -0.06999059 -0.07002558 -0.07005855 -0.07009022 -0.07011975 -0.07014728 -0.07017055 -0.07018869 -0.07020386
 -0.07021578 -0.07023205 -0.07025307 -0.07028393 -0.07032433 -0.07037074 -0.07042221 -0.07047055 -0.07051599 -0.07055467
 -0.07058824 -0.07061905 -0.07064793 -0.07067792 -0.07070765 -0.07073656 -0.07076376 -0.07078733 -0.07081007 -0.07083225
 -0.07085893 -0.0708925 -0.07093451 -0.07098686 -0.07104412 -0.0711063 -0.07116438 -0.07121745 -0.07125958 -0.07129034
 -0.0713099 -0.07131851 -0.07132015 -0.07131542 -0.07130974 -0.07130411 -0.07130523 -0.07131371 -0.07133538 -0.07136811
 -0.07141205 -0.07146183 -0.07151113 -0.07155608 -0.07158998 -0.07161579 -0.07163211 -0.07164665 -0.07166237 -0.07168331
 -0.07171199 -0.07174548 -0.07178392 -0.07182245 -0.07186044 -0.0718962 -0.07192955 -0.07196048 -0.07198896 -0.07201423
 -0.07203661 -0.07205742 -0.07207771 -0.07210258 -0.07213226 -0.072171 -0.07221603 -0.0722648 -0.07231402 -0.07235779
 -0.07239694 -0.07242934 -0.07245932 -0.07248915 -0.07252067 -0.07255589 -0.07259189 -0.07262812 -0.07266285 -0.07269526
 -0.07272794 -0.07276111 -0.07279655 -0.07283446 -0.07287149 -0.07290743 -0.07293784 -0.07296324 -0.07298458 -0.07300303
 -0.07302393 -0.07304759 -0.07307801 -0.07311363 -0.07315399 -0.07319623 -0.0732369 -0.07327319 -0.07330094 -0.07332088
 -0.07333077 -0.07333749 -0.07334258 -0.0733542 -0.07337583 -0.07340711 -0.07344971 -0.07349328 -0.07353698 -0.07357174
 -0.07359678 -0.07361341 -0.07362199 -0.07362974 -0.07363693 -0.07364888 -0.07366528 -0.07368788 -0.07371612 -0.07374988
 -0.07378764 -0.07382698 -0.07386591 -0.07390055 -0.07393113 -0.07395569 -0.07397763 -0.07399831 -0.07402068 -0.07404704
 -0.07407548 -0.07410664 -0.07413469 -0.07415862 -0.07417477 -0.07418218 -0.07418385 -0.07417982 -0.07417663 -0.07417452
 -0.07417805 -0.07418704 -0.07420239 -0.07422349 -0.07424862 -0.07427684 -0.07430495 -0.07433208 -0.0743551 -0.07437399
 -0.07438722 -0.07439578 -0.07439986 -0.07440087 -0.07439975 -0.0743972 -0.07439396 -0.07438918 -0.07438298 -0.07437342
 -0.07435974 -0.07434336 -0.07432389 -0.07430801 -0.0742961 -0.07429428 -0.07430246 -0.07431822 -0.07434046 -0.07435998
 -0.07437659 -0.07438394 -0.07438417 -0.07437938 -0.07437253 -0.07437033 -0.07437355 -0.07438667 -0.07440703 -0.07443459
 -0.07446436 -0.07449359 -0.07451795 -0.07453465 -0.07454288 -0.07454139 -0.07453288 -0.07451734 -0.07449917 -0.07447881
 -0.07446015 -0.07444352 -0.07443047 -0.07442104 -0.07441545 -0.07441387 -0.0744179 -0.07442759 -0.07444452 -0.07446727
 -0.07449352 -0.07452033 -0.07454104 -0.0745542 -0.07455426 -0.0745439 -0.07452274 -0.07449623 -0.07446753 -0.07444058
 -0.07441813 -0.07440054 -0.07438859 -0.07438105 -0.07437777 -0.0743781 -0.07438213 -0.07438778 -0.07439502 -0.07439802
 -0.07439652 -0.07438523 -0.0743648 -0.07433739 -0.07430475 -0.0742757 -0.07425082 -0.07423717 -0.07423206 -0.07423447
 -0.07424024 -0.07424319 -0.07424172 -0.07423127 -0.07421488 -0.07419287 -0.07416908 -0.07414585 -0.07412276 -0.07410058
 -0.07407589 -0.07404789 -0.07401603 -0.07397988 -0.07394228 -0.07390335 -0.0738665 -0.07383202 -0.07380547 -0.0737877
 -0.07378802 -0.07380652 -0.07385038 -0.07391507 -0.07399461 -0.0740781 -0.07414227 -0.0741795 -0.07416575 -0.07411163
 -0.07401472 -0.07389759 -0.07377384 -0.07365791 -0.07356099 -0.07348224 -0.07342453 -0.0733799 -0.07334715 -0.07332141
 -0.07330184 -0.07328709 -0.07327705 -0.07327027 -0.07326674 -0.07326699 -0.07327104 -0.07328027 -0.0732929 -0.07330265
 -0.07330599 -0.07328854 -0.07325137 -0.07318788 -0.07310557 -0.07301117 -0.07291229 -0.07281776 -0.07273363 -0.07266622
 -0.07261853 -0.07259541 -0.07258907 -0.07260068 -0.07261088 -0.07261641 -0.07260162 -0.07256313 -0.07250293 -0.07242057
 -0.07232876 -0.07222803 -0.07212806 -0.07202891 -0.07193507 -0.07184661 -0.07176616 -0.07169392 -0.0716323 -0.07158042
 -0.0715389 -0.07150388 -0.07147134 -0.07143558 -0.07138878 -0.07133098 -0.07125793 -0.07117822 -0.07109437 -0.07101369
 -0.07094 -0.07087155 -0.0708093 -0.07074618 -0.07068144 -0.07060975 -0.07053047 -0.0704461 -0.07035688 -0.07026958
 -0.07018347 -0.07009654 -0.07000559 -0.06989384 -0.06976155 -0.06959788 -0.06941162 -0.06921487 -0.06901488 -0.0688285
 -0.06865343 -0.06849431 -0.06834469 -0.06820107 -0.06806117 -0.06792235 -0.06778713 -0.0676559 -0.06753014 -0.06741145
 -0.06729285 -0.06717513 -0.06703744 -0.06687833 -0.06668098 -0.06644558 -0.06618873 -0.065913 -0.06564887 -0.06539515
 -0.06516283 -0.06494821 -0.06474633 -0.06455424 -0.06436444 -0.06417377 -0.06397469 -0.06376573 -0.06354154 -0.06330599
 -0.06306096 -0.06280649 -0.06254701 -0.06226535 -0.06195837 -0.06160707 -0.06120368 -0.06075926 -0.06027269 -0.05977055
 -0.0592551 -0.05873483 -0.05821011 -0.05768324 -0.05715536 -0.05663904 -0.0561333 -0.05564333 -0.05516112 -0.05466687
 -0.0541512 -0.05358159 -0.05296475 -0.0522908 -0.05158458 -0.05086696 -0.05015461 -0.04946699 -0.04880399 -0.04817089
 -0.04756174 -0.04697637 -0.04640721 -0.04585561 -0.04529886 -0.04473825 -0.04411652 -0.04342947 -0.04262909 -0.04171564
 -0.0407458 -0.03972597 -0.03874337 -0.03778914 -0.03686642 -0.03596331 -0.03504395 -0.03410717 -0.03313537 -0.03212663
 -0.03107879 -0.02996767 -0.02877953 -0.02746257 -0.02597837 -0.02429229 -0.0223566 -0.02024798 -0.01796033 -0.01565806
 -0.01337738 -0.01120845 -0.009174063 -0.007260821 -0.005471481 -0.003746635 -0.002081888 -0.0003736069 0.001388412 0.003354552
 0.005509245 0.007883758 0.01040182 0.01282974 0.0151529 0.01720273 0.01906565 0.02079855 0.02246287 0.02415084
 0.02586082 0.02762076 0.02941119 0.03122596 0.03306493 0.03493303 0.03680063 0.03866735 0.04047759 0.04222015
 0.04389532 0.04550169 0.0470603 0.04857061 0.0499851 0.05129992 0.05245271 0.05345457 0.05432392 0.05508109
 0.05580297 0.05649005 0.05718934 0.05786942 0.05849738 0.0590695 0.05956019 0.06000362 0.06042113 0.06081906
 0.06121391 0.06157205 0.06188811 0.06212688 0.06227995 0.06232555 0.0622592 0.06207082 0.06175712 0.06135643
 0.06087154 0.06038507 0.05989604 0.05942871 0.05897275 0.05848676 0.05796831 0.05738305 0.0567467 0.05606984
 0.05538229 0.05473396 0.05413894 0.05363497 0.05320884 0.05286079 0.05258402 0.05237094 0.05223551 0.05218223
 0.05221465 0.05233727 0.05253179 0.05279562 0.05312078 0.05350563 0.05396168 0.05448955 0.05510382 0.05580476
 0.05660072 0.05749072 0.05847542 0.05955179 0.06071077 0.06194983 0.06325765 0.06463738 0.06608754 0.06761518
 0.06922659 0.0709279 0.07272366 0.0746229 0.0766277 0.07875687 0.08101404 0.08342616 0.08600179 0.08874723
 0.0916715 0.09471402 0.09787431 0.1010334 0.1041847 0.1072118 0.1101056 0.1127416 0.115098 0.11699
 0.1184168 0.1192557 0.1195715 0.1194342 0.1189262 0.118194 0.1173065 0.1163834 0.1154749 0.1146636
 0.1139318 0.1133125 0.1126974 0.1120757 0.1112795 0.1102574 0.1089686 0.1073687 0.1057449 0.1041201
 0.1026673 0.1013925 0.1001733 0.09900528 0.09779827 0.09656648 0.09533964 0.09413029 0.09300876 0.09194547
 0.09094751 0.08988821 0.08860778 0.0869315 0.08454767 0.08157586 0.07794804 0.07399371 0.0699017 0.06571943
 0.06150007 0.05724323 0.05292504 0.04873922 0.0447056 0.04101175 0.0376844 0.03468357 0.03200658 0.02948508
 0.02711498 0.02479276 0.02253041 0.02033808 0.018228 0.01625015 0.01439765 0.01268432 0.01108792 0.009582394
 0.008145712 0.006748998 0.0053665 0.003981844 0.002541341 0.001015498 -0.0006370377 -0.002473953 -0.004337793 -0.006225429
 -0.007869259 -0.00920477 -0.01027749 -0.01107722 -0.01181248 -0.01249315 -0.01322931 -0.01401589 -0.01483175 -0.01566614
 -0.01644619 -0.01717683 -0.01783881 -0.01843699 -0.01898311 -0.01945308 -0.01981845 -0.0200493 -0.02009306 -0.01996363
 -0.01964819 -0.0191866 -0.01859697 -0.01790251 -0.0171174 -0.01624274 -0.01528622 -0.0142164 -0.01303508 -0.01166807
 -0.01010611 -0.008332759 -0.006348514 -0.004356903 -0.002374125 -0.0006623237 0.0007902678 0.001914853 0.002733953 0.003286575
 0.003585728 0.003670729 0.00356797 0.003324695 0.002989379 0.002620399 0.002285562 0.002052341 0.001964476 0.002083942
 0.002339431 0.002727682 0.00314854 0.003568671 0.003979792 0.004371756 0.004786662 0.005227536 0.005724914 0.006280372
 0.006886108 0.007540466 0.008219084 0.008924274 0.009654758 0.01041821 0.01124274 0.01212814 0.01309451 0.01412134
 0.01518334 0.01626894 0.01734498 0.01844126 0.01956562 0.02075714 0.02204425 0.02342685 0.0249178 0.02647893
 0.0281026 0.02976504 0.0314578 0.03320093 0.0349962 0.03685452 0.0387762 0.0406726 0.04253401 0.04421153
 0.04570464 0.04693453 0.04790886 0.04861707 0.04905538 0.049211 0.04907559 0.04862444 0.04786896 0.04680471
 0.04546699 0.04387791 0.04207368 0.04007939 0.03791339 0.03558441 0.03311315 0.0304941 0.02780801 0.0250566
 0.02238128 0.01979657 0.01738508 0.01515187 0.01306211 0.01111199 0.009239987 0.007450577 0.005738934 0.00411328
 0.002605311 0.001207378 -7.79911E-05 -0.001272436 -0.002409383 -0.003505365 -0.004592655 -0.005676204 -0.006771434 -0.007873275
 -0.008986192 -0.01009234 -0.01118917 -0.01225016 -0.01326728 -0.0142296 -0.01513148 -0.01599122 -0.01680948 -0.01761037
 -0.01839529 -0.0191558 -0.019889 -0.02055275 -0.02114614 -0.02164009 -0.02204169 -0.02236084 -0.02260436 -0.02279438
 -0.0229312 -0.0230248 -0.02307447 -0.02308138 -0.02304997 -0.02298127 -0.02288787 -0.02277362 -0.02265896 -0.02255071
 -0.02246858 -0.02241921 -0.02241075 -0.02244634 -0.0225221 -0.02263812 -0.02278816 -0.02297186 -0.02318741 -0.02343474
 -0.02371358 -0.02402242 -0.02435375 -0.02470266 -0.02504874 -0.02538571 -0.02568778 -0.02595334 -0.02616645 -0.02633308
 -0.0264529 -0.02653497 -0.02658578 -0.02661344 -0.02662349 -0.02662257 -0.02661419 -0.02660233 -0.02658884 -0.02657401
 -0.02655788 -0.026542 -0.02652612 -0.02651754 -0.02651667 -0.02653037 -0.02655839 -0.02659875 -0.02665022 -0.02670358
 -0.02675891 -0.02681055 -0.0268617 -0.02691682 -0.02697993 -0.0270605 -0.02715887 -0.02728043 -0.02742028 -0.02757682
 -0.02774404 -0.02791817 -0.02809572 -0.0282749 -0.02845273 -0.02862886 -0.02879762 -0.02895832 -0.02910493 -0.0292366
 -0.02935216 -0.02945146 -0.02953927 -0.02961595 -0.02968772 -0.02975432 -0.02981744 -0.02987592 -0.02992672 -0.02996822
 -0.02999538 -0.03000622 -0.02999537 -0.02996122 -0.02989898 -0.02981064 -0.02969491 -0.02955831 -0.02940423 -0.02923665
 -0.02905877 -0.02886823 -0.02866433 -0.02844837 -0.0282188 -0.02798962 -0.02776157 -0.0275525 -0.02736359 -0.0272009
 -0.027064 -0.02694689 -0.02684892 -0.02676249 -0.02668831 -0.02662469 -0.02657331 -0.02653747 -0.02651822 -0.02651963
 -0.02653993 -0.02657919 -0.02663396 -0.026701 -0.0267794 -0.02686696 -0.02696668 -0.02707931 -0.02720692 -0.02735078
 -0.02750886 -0.02768118 -0.0278646 -0.02805856 -0.02826381 -0.02848035 -0.02871132 -0.02895655 -0.02921478 -0.02948458
 -0.02975627 -0.0300281 -0.03028793 -0.03053559 -0.03076424 -0.03097529 -0.03116753 -0.03134404 -0.0315067 -0.03166189
 -0.03181486 -0.03197193 -0.03213995 -0.03231524 -0.03250039 -0.03268059 -0.03285243 -0.03300524 -0.03313518 -0.03324728
 -0.03334098 -0.03343052 -0.03351678 -0.0336085 -0.0337055 -0.03380542 -0.03390685 -0.03399939 -0.03408203 -0.03414495
 -0.03418902 -0.03421139 -0.03421365 -0.03419791 -0.03416359 -0.03411138 -0.03403895 -0.03394466 -0.03382663 -0.03368415
 -0.03351317 -0.03331327 -0.03307585 -0.03279849 -0.0324756 -0.03210448 -0.0316922 -0.03123836 -0.03075958 -0.03025683
 -0.02974386 -0.02922089 -0.02869194 -0.02815626 -0.0276108 -0.02705464 -0.0264824 -0.02589387 -0.02528486 -0.02465776
 -0.0240131 -0.02335783 -0.02269917 -0.02204682 -0.02141123 -0.02079893 -0.02021749 -0.01966633 -0.01914784 -0.01865629
 -0.01819121 -0.01774498 -0.01731642 -0.01689882 -0.01649104 -0.01609231 -0.01570243 -0.01532571 -0.01496188 -0.01460736
 -0.01425975 -0.01390046 -0.01352738 -0.01312083 -0.01268327 -0.01221052 -0.01170713 -0.01118021 -0.0106304 -0.01006217
 -0.009472538 -0.008859473 -0.008223753 -0.007562366 -0.006887058 -0.006198918 -0.005519326 -0.004853953 -0.004219054 -0.003620493
 -0.003052533 -0.002516771 -0.001988183 -0.00146537 -0.0009241156 -0.0003638146 0.0002264903 0.0008448646 0.001485375 0.002141665
 0.002786692 0.003411905 0.003978795 0.004488369 0.004920133 0.005290837 0.005611265 0.005901514 0.006183588 0.006466839
 0.006763527 0.007074431 0.00740207 0.007747441 0.008110498 0.00849561 0.008902962 0.009339806 0.009806852 0.01031069
 0.01085192 0.01143049 0.01204595 0.01268977 0.01336039 0.0140436 0.01473675 0.01542209 0.01609653 0.01674346
 0.01735986 0.01793426 0.01846081 0.01892939 0.01933078 0.01965288 0.01989234 0.02004064 0.02010895 0.02009692
 0.02002618 0.0199005 0.01974574 0.01956555 0.01938827 0.01921747 0.01907281 0.01895623 0.01886444 0.01879665
 0.01873506 0.01867983 0.018623 0.01856782 0.01852383 0.01849337 0.01848902 0.01850791 0.01855219 0.01861438
 0.0186867 0.01876083 0.01882734 0.01887936 0.01891158 0.01891498 0.01888628 0.01881278 0.01868979 0.01851177
 0.01827516 0.01799026 0.01765724 0.01729109 0.01689292 0.01646907 0.01601989 0.01555062 0.0150629 0.0145716
 0.01407873 0.01360136 0.01313889 0.0126994 0.01227913 0.01187626 0.01148371 0.01109319 0.01069478 0.0102774
 0.009832929 0.009353082 0.008834545 0.008273876 0.007670709 0.007023655 0.006336309 0.005608397 0.004847982 0.00405613
 0.003236905 0.002390827 0.001513879 0.0006060463 -0.0003332041 -0.001302271 -0.002289419 -0.003292006 -0.004292679 -0.005289567
 -0.006268508 -0.00722934 -0.008164232 -0.009076448 -0.009966825 -0.0108391 -0.01169907 -0.01254217 -0.01336916 -0.0141688
 -0.01493506 -0.01566646 -0.01635902 -0.01702571 -0.01766818 -0.01829762 -0.01891617 -0.01952389 -0.02012098 -0.02070466
 -0.02127487 -0.02183134 -0.02237349 -0.0228974 -0.02340111 -0.02387421 -0.02431478 -0.02471146 -0.02506491 -0.02537014
 -0.02563111 -0.0258505 -0.0260332 -0.02618445 -0.02630799 -0.02640627 -0.02648611 -0.02654909 -0.02660765 -0.02666598
 -0.02673107 -0.02680648 -0.02688506 -0.0269666 -0.02704216 -0.02711075 -0.02717689 -0.027241 -0.02731367 -0.02739439
 -0.02748398 -0.02758056 -0.02767607 -0.02776939 -0.02785338 -0.02792747 -0.02798794 -0.02803274 -0.0280583 -0.02806103
 -0.02803648 -0.02798199 -0.0278933 -0.0277738 -0.02762191 -0.02744938 -0.02725856 -0.02706201 -0.02686319 -0.02666564
 -0.02647072 -0.02627406 -0.02607538 -0.02587211 -0.02566446 -0.02545907 -0.02525772 -0.02507764 -0.02492093 -0.02480766
 -0.02473568 -0.02471182 -0.02472697 -0.02476752 -0.0248237 -0.0248751 -0.02492074 -0.02495116 -0.02497255 -0.02498699
 -0.0249969 -0.02500562 -0.02500698 -0.02500054 -0.0249777 -0.02493664 -0.02487214 -0.0247833 -0.02466748 -0.02452443
 -0.02435169 -0.02414919 -0.02391591 -0.02365223 -0.02336034 -0.02304169 -0.02270275 -0.02234731 -0.02198821 -0.0216316
 -0.021296 -0.02098436 -0.02071103 -0.02046873 -0.02025768 -0.02006436 -0.01987936 -0.0196958 -0.01950674 -0.01931591
 -0.0191226 -0.01893288 -0.01874773 -0.01857203 -0.01840634 -0.0182559 -0.01812131 -0.01800261 -0.01789946 -0.01780048
 -0.01770443 -0.01759516 -0.01747288 -0.01732903 -0.01716663 -0.01698968 -0.01680191 -0.01661342 -0.01642429 -0.01624042
 -0.01605609 -0.01586793 -0.01567116 -0.01545986 -0.01523773 -0.01500419 -0.0147663 -0.01452672 -0.01428703 -0.01404777
 -0.01381036 -0.0135744 -0.01334776 -0.0131312 -0.0129271 -0.01273505 -0.01253752 -0.01233271 -0.0120955 -0.01182816
 -0.01152557 -0.01119657 -0.01086422 -0.01053693 -0.01024498 -0.009986186 -0.00977353 -0.009592703 -0.009435915 -0.009286849
 -0.009131338 -0.00896281 -0.008772821 -0.008567574 -0.008345623 -0.008121253 -0.007897029 -0.007684291 -0.007486126 -0.007297259
 -0.007118166 -0.006928439 -0.00672723 -0.006501798 -0.006253846 -0.005994188 -0.005725125 -0.005464781 -0.005210991 -0.004966901
 -0.004728736 -0.004488776 -0.00424842 -0.004005651 -0.003764676 -0.003530998 -0.003300999 -0.003077017 -0.002844464 -0.002597422
 -0.002324439 -0.002017524 -0.00168584 -0.001326917 -0.0009686773 -0.0006138287 -0.000288987 3.118209E-06 0.0002531773 0.0004611108
 0.0006378895 0.0007861921 0.0009347924 0.001087303 0.001277904 0.001505451 0.001787341 0.002113507 0.002474051 0.002853646
 0.003227303 0.003581309 0.003891775 0.004155441 0.004358419 0.004517699 0.0046338 0.004737108 0.004838494 0.00495302
 0.005088545 0.005233821 0.005388536 0.005540265 0.005687328 0.005835564 0.005985315 0.006147167 0.006320677 0.006505741
 0.006700752 0.006897927 0.007095758 0.007285011 0.0074663 0.00763459 0.007796001 0.007956741 0.008123343 0.008307647
 0.008503848 0.008714333 0.008923365 0.009123108 0.009306561 0.009467695 0.009614107 0.00974582 0.009873074 0.009997144
 0.0101259 0.01025996 0.01040677 0.01056674 0.0107466 0.01094661 0.01117186 0.01142222 0.01170008 0.0120046
 0.0123345 0.0126888 0.01306554 0.0134622 0.01387652 0.01430008 0.01472401 0.01514066 0.0155394 0.01592553
 0.0163006 0.01666362 0.01702235 0.01733757 0.01760412 0.01777842 0.01784727 0.01784079 0.01775704 0.01768897
 0.01764091 0.01767248 0.01778039 0.01795212 0.01818138 0.01842885 0.01869378 0.0189533 0.01921015 0.01946064
 0.01970394 0.01994028 0.0201599 0.02035469 0.02051139 0.02061418 0.02066892 0.02066667 0.02064578 0.02061351
 0.02061509 0.0206646 0.02077344 0.02094908 0.02115916 0.02140288 0.0216302 0.02183872 0.02200061 0.0221183
 0.02220735 0.02227277 0.0223501 0.02243932 0.02255906 0.0227065 0.02288474 0.02309059 0.02332423 0.02357281
 0.02382359 0.02406524 0.02427486 0.02448457 0.02469086 0.02497473 0.02537348 0.02589156 0.02655857 0.02722753
 0.02787831 0.02842892 0.02886624 0.0292221 0.02949774 0.02972578 0.02990619 0.03004822 0.03015165 0.03021996
 0.0302541 0.03025791 0.03023493 0.03019433 0.0301398 0.03008546 0.03001982 0.0299397 0.02982326 0.02964679
 0.02941989 0.02913051 0.02883245 0.02853853 0.0283011 0.02813768 0.0280597 0.02807519 0.02815285 0.02829291
 0.02843221 0.02856735 0.02863431 0.02863367 0.02854886 0.02838821 0.02818838 0.02795587 0.02773346 0.02751802
 0.02732557 0.0271455 0.02697182 0.02678619 0.02656788 0.02630092 0.02595793 0.0255628 0.0251097 0.02466274
 0.02424193 0.02389477 0.02363822 0.02348337 0.02343487 0.02349044 0.02365173 0.02389342 0.02421394 0.02455441
 0.02491251 0.02524113 0.02554417 0.02581837 0.02606954 0.02631526 0.02655883 0.02681628 0.02708813 0.02738422
 0.02769772 0.02802625 0.02835974 0.02868926 0.02901072 0.02932217 0.02961279 0.02988198 0.03010524 0.03027391
 0.0303878 0.03044103 0.03047697 0.03049895 0.0305415 0.03060642 0.0306814 0.03076546 0.03084153 0.03091245
 0.03098794 0.03106732 0.03115545 0.03124503 0.03131946 0.03137886 0.03141335 0.03143312 0.0314463 0.03145889
 0.03148038 0.03150535 0.03153564 0.03155743 0.03156685 0.03155126 0.03150479 0.03143264 0.03133273 0.03122787
 0.03111973 0.03102813 0.03095421 0.03091177 0.03090114 0.03093313 0.03100339 0.03109587 0.03119972 0.03126658
 0.03129401 0.03124839 0.0311427 0.03098334 0.03078102 0.03055006 0.03029701 0.03002707 0.02975806 0.02950117
 0.02926584 0.02906472 0.02886944 0.02867688 0.02845559 0.02819589 0.0279141 0.02760905 0.02732464 0.02706324
 0.02684138 0.02665731 0.02649242 0.02634325 0.0261809 0.02600324 0.02578518 0.02553187 0.02523776 0.02492168
 0.02460976 0.02432134 0.02409222 0.02392035 0.02382114 0.02376939 0.02375795 0.02375912 0.02375895 0.02375145
 0.02372982 0.02371066 0.02369663 0.02369363 0.02370448 0.02369935 0.02367669</values></Ydata></AB><ScSm><Ydata ylabel="Single channel"><values byteorder="INTEL" format="FLOAT32" numvalues="1814"> 0.07005629 0.07005495 0.07012758 0.07029356 0.07051545 0.07072206 0.07085855 0.07092001 0.07093026 0.07089888
 0.07083157 0.07078003 0.07083132 0.07102139 0.07127942 0.07147398 0.07151705 0.07144186 0.07138383 0.07144831
 0.07157066 0.07153586 0.0711813 0.0705853 0.07001835 0.06969349 0.06963108 0.06981844 0.07034612 0.07115427
 0.07174559 0.07154179 0.07061271 0.06970832 0.0694268 0.06964153 0.06985246 0.06976499 0.06938098 0.0688823
 0.06867835 0.06929635 0.07086202 0.07267143 0.07344536 0.07213839 0.06868663 0.06423928 0.06073006 0.05984013
 0.0618162 0.06513722 0.0676568 0.0683158 0.0676468 0.06668071 0.06583119 0.06504041 0.06451329 0.06475373
 0.06587602 0.06714068 0.06734346 0.06585272 0.06335995 0.0613797 0.06086227 0.06160296 0.06306522 0.06496415
 0.06643598 0.06556748 0.0612818 0.05571903 0.05327694 0.0564288 0.06308672 0.06864326 0.07006746 0.06760879
 0.06346826 0.05997574 0.05870179 0.060032 0.06310593 0.06652872 0.06921236 0.07042556 0.06960744 0.06685849
 0.06342104 0.06107858 0.06106125 0.0635637 0.06770577 0.07161397 0.07327016 0.07199785 0.06891172 0.06574318
 0.06370479 0.06348642 0.06541673 0.06912598 0.07352774 0.07744486 0.08008754 0.08114049 0.08083321 0.07979082
 0.07855615 0.07750162 0.07716185 0.07790379 0.07905732 0.07917055 0.07759003 0.07533092 0.07402882 0.07424711
 0.07502952 0.07506515 0.0740169 0.07230952 0.06983242 0.06590396 0.06083781 0.05637258 0.05393417 0.05354404
 0.0548461 0.05766204 0.06078416 0.0619175 0.06020072 0.05779783 0.05775572 0.06075255 0.0647537 0.0674829
 0.06852637 0.06915968 0.07071306 0.07321504 0.07523213 0.07495036 0.07197198 0.06832162 0.06701352 0.0690916
 0.0726248 0.07507992 0.07599202 0.07668027 0.0779438 0.07882372 0.07760645 0.07386372 0.06953988 0.06774655
 0.07005121 0.07490662 0.07877634 0.07875484 0.07452156 0.0684 0.0635433 0.06175607 0.06302019 0.06670064
 0.07224044 0.07852349 0.08358808 0.08573195 0.08475547 0.08185322 0.07824933 0.07407092 0.06900649 0.06418678
 0.06239981 0.06545272 0.07185899 0.07807951 0.08167778 0.08253096 0.08145132 0.07868196 0.07412113 0.06876199
 0.06516193 0.06545453 0.0687755 0.07175496 0.07204507 0.07045873 0.0692308 0.06923834 0.06968012 0.06978306
 0.06990115 0.07090142 0.07291661 0.07501407 0.07609486 0.07589456 0.07502954 0.07428104 0.07388818 0.07337812
 0.07223086 0.0709072 0.07080036 0.07271102 0.07574852 0.07824714 0.0794383 0.07973251 0.07961008 0.07877234
 0.07657818 0.07326062 0.0704176 0.06982529 0.07172045 0.07465776 0.07701385 0.07815079 0.07825483 0.07774831
 0.07700324 0.07622109 0.07550105 0.07510857 0.07540265 0.07632707 0.07729964 0.07780129 0.07780358 0.07750127
 0.07693444 0.07606485 0.07505154 0.07426547 0.07402044 0.07433232 0.07495701 0.07561338 0.07609229 0.07621887
 0.07590801 0.07529436 0.07465143 0.07414401 0.07377948 0.07358316 0.07364528 0.07395526 0.07432853 0.074563
 0.07459769 0.07448576 0.07428081 0.07399736 0.07365235 0.07331108 0.07308348 0.07304852 0.07316248 0.07328573
 0.07334113 0.07338943 0.07348937 0.07355423 0.07344273 0.07315336 0.07283813 0.07263831 0.07257134 0.07256483
 0.07253374 0.07240225 0.07210286 0.07163408 0.07113715 0.07084464 0.07089651 0.07123646 0.07170105 0.07214096
 0.07244495 0.07255357 0.07250559 0.07240253 0.07228994 0.07212278 0.07186443 0.07158042 0.07141608 0.07148245
 0.07175327 0.07208022 0.07231885 0.07242116 0.0724165 0.07236783 0.07235359 0.07241374 0.07248944 0.07247897
 0.07237044 0.07226603 0.07226243 0.07234445 0.07240723 0.07237031 0.07226555 0.07220627 0.07226587 0.07240808
 0.07254587 0.07263936 0.07271548 0.07280672 0.07288899 0.07289167 0.07278275 0.07262777 0.07252793 0.07251108
 0.07253056 0.07256125 0.07263413 0.07276629 0.07290886 0.07299294 0.07300499 0.07299404 0.07300657 0.07303026
 0.07301329 0.07293162 0.07281945 0.07273284 0.0727004 0.07271184 0.07273731 0.07274875 0.07273015 0.07267911
 0.07260373 0.07251457 0.07241602 0.07231289 0.07223123 0.07221659 0.07228683 0.07238875 0.07242628 0.07234537
 0.07218406 0.07203186 0.07194181 0.0718891 0.07181493 0.07169755 0.07156708 0.07146169 0.07139096 0.07134217
 0.07129973 0.07125373 0.07121105 0.07120825 0.07129011 0.07145205 0.07161734 0.07170001 0.0716891 0.07164953
 0.07164459 0.07168344 0.07174203 0.07180699 0.07189143 0.07201754 0.07218145 0.07233473 0.07242261 0.0724476
 0.07247254 0.07255612 0.07270981 0.07291357 0.07313414 0.07332438 0.07344717 0.07351696 0.07359064 0.07370548
 0.07384671 0.07398196 0.07410545 0.0742356 0.074387 0.07456357 0.0747733 0.07503149 0.07534261 0.07568332
 0.07600757 0.07627305 0.07647431 0.07665712 0.07689172 0.07721807 0.07761186 0.07800509 0.07834253 0.07862315
 0.07888825 0.07917069 0.07946649 0.07976437 0.08008327 0.08045387 0.0808706 0.08129147 0.08168553 0.08205846
 0.08243146 0.08281574 0.08321066 0.08361431 0.08403016 0.0844624 0.08490107 0.08531671 0.08568262 0.0860026
 0.08630925 0.08663888 0.0870104 0.08741034 0.08778796 0.08808984 0.08832359 0.08856706 0.08888523 0.08925252
 0.08959186 0.08987974 0.0901724 0.09052409 0.09091732 0.0912926 0.09162341 0.09193864 0.09227717 0.0926354
 0.09296381 0.09321446 0.09339133 0.09354905 0.09374106 0.09398328 0.09427331 0.09461863 0.09501769 0.09542914
 0.0957932 0.09608242 0.09631136 0.0965075 0.09669648 0.09690303 0.09713712 0.09738341 0.09761894 0.09782937
 0.09800155 0.09812984 0.09824534 0.0984069 0.09864245 0.09892623 0.09923069 0.09956623 0.09994365 0.100331
 0.1006897 0.1010388 0.1014351 0.101883 0.102304 0.1026151 0.1028117 0.1029481 0.1030732 0.1032193
 0.1034299 0.1037434 0.1041464 0.1045798 0.1049945 0.1053797 0.105741 0.1060754 0.10637 0.1066124
 0.1067975 0.106934 0.1070468 0.1071735 0.107352 0.1075954 0.1078725 0.1081219 0.1082954 0.1083785
 0.108367 0.1082519 0.1080497 0.1078221 0.1076275 0.1074508 0.1072057 0.1068107 0.1062417 0.1055136
 0.1046426 0.1036445 0.1025623 0.1014771 0.100485 0.09966122 0.0990482 0.09868105 0.09861103 0.09887572
 0.0994342 0.1001459 0.1008234 0.1012986 0.1014492 0.1012062 0.1005729 0.0996312 0.09850477 0.0973054
 0.09610463 0.09492897 0.09376334 0.09257949 0.09139521 0.09031461 0.08950661 0.08916026 0.08947211 0.09063133
 0.09272387 0.09559281 0.09881852 0.1019013 0.1045088 0.1065762 0.1082187 0.1095957 0.1108361 0.1120104
 0.1131236 0.1141448 0.1150574 0.1158752 0.1166151 0.1172775 0.1178526 0.1183275 0.1186882 0.1189332
 0.1190818 0.1191572 0.1191767 0.1191647 0.1191539 0.1191488 0.119093 0.1188867 0.1184344 0.1176794
 0.1166145 0.1153066 0.1139707 0.1130435 0.1131032 0.1145635 0.1173489 0.1208801 0.1244161 0.1274341
 0.1297569 0.1314508 0.1326821 0.1336242 0.1344073 0.1351067 0.1357608 0.1363881 0.1369914 0.1375635
 0.1381031 0.1386239 0.139146 0.139678 0.1402041 0.1406956 0.1411403 0.1415601 0.1419934 0.1424609
 0.1429489 0.1434259 0.1438774 0.1443199 0.1447716 0.1452182 0.1456249 0.1459815 0.1463154 0.1466624
 0.147043 0.1474625 0.1479061 0.1483344 0.1487091 0.1490305 0.1493357 0.1496583 0.1499996 0.1503407
 0.1506679 0.1509817 0.1512921 0.1516151 0.1519671 0.1523467 0.1527212 0.1530467 0.1533118 0.1535516
 0.1538124 0.1541089 0.1544198 0.154717 0.1549955 0.1552812 0.1556095 0.155988 0.1563809 0.1567355
 0.1570278 0.157279 0.1575292 0.1578033 0.1581015 0.1584146 0.1587353 0.1590555 0.1593643 0.159656
 0.1599392 0.1602314 0.1605429 0.1608667 0.1611861 0.1614916 0.1617887 0.1620904 0.1624063 0.1627425
 0.1631009 0.1634699 0.1638203 0.1641243 0.1643795 0.1646096 0.164843 0.1650956 0.1653696 0.1656584
 0.1659517 0.1662427 0.1665314 0.16682 0.1671081 0.1673957 0.1676873 0.1679886 0.1682988 0.1686114
 0.1689214 0.1692305 0.169543 0.1698589 0.1701721 0.1704757 0.1707684 0.1710566 0.1713492 0.1716491
 0.1719503 0.172244 0.1725282 0.1728082 0.1730898 0.1733738 0.1736566 0.1739349 0.1742107 0.1744907
 0.17478 0.175077 0.1753763 0.1756736 0.1759656 0.1762507 0.1765311 0.176811 0.177092 0.1773738
 0.1776562 0.1779371 0.1782133 0.178486 0.1787607 0.1790398 0.1793211 0.1796024 0.179881 0.1801519
 0.1804139 0.180675 0.1809462 0.1812315 0.1815247 0.1818161 0.1821004 0.1823798 0.1826611 0.18295
 0.1832491 0.1835552 0.1838578 0.1841479 0.1844289 0.1847122 0.1850029 0.1852967 0.1855886 0.1858777
 0.1861662 0.1864564 0.1867473 0.1870352 0.1873182 0.187597 0.1878699 0.1881357 0.1883992 0.1886659
 0.1889349 0.1892031 0.1894682 0.1897263 0.1899776 0.1902339 0.1905092 0.1908033 0.1911043 0.191403
 0.1916965 0.1919873 0.1922804 0.192576 0.1928665 0.1931495 0.1934322 0.1937206 0.1940143 0.1943116
 0.1946088 0.1948997 0.195185 0.195473 0.1957665 0.1960601 0.1963503 0.1966382 0.1969247 0.1972129
 0.1975051 0.1977952 0.1980769 0.1983555 0.1986384 0.1989236 0.1992097 0.1994995 0.1997907 0.2000774
 0.2003633 0.2006541 0.2009479 0.2012406 0.20153 0.2018114 0.2020864 0.2023684 0.2026636 0.2029611
 0.2032534 0.203545 0.2038378 0.2041297 0.2044227 0.2047139 0.2049937 0.2052629 0.2055269 0.2057697
 0.205938 0.2058977 0.2053148 0.2035278 0.199542 0.192246 0.180867 0.1654649 0.1470761 0.1273396
 0.1079057 0.09002486 0.07443446 0.06145053 0.05112533 0.04335856 0.0379708 0.03481232 0.03387248 0.03539591
 0.04001282 0.04836668 0.05970352 0.07062191 0.07639591 0.07470633 0.06785902 0.06068492 0.05652636 0.05561759
 0.05652034 0.05800187 0.05967179 0.06176151 0.06466626 0.06850252 0.0730907 0.07842927 0.08492199 0.0928649
 0.1018352 0.1108685 0.1192886 0.1272409 0.1353661 0.1440329 0.1529513 0.1614583 0.1690486 0.1756279
 0.1814049 0.1866575 0.1915789 0.1962592 0.2007361 0.2049931 0.208875 0.2120555 0.2141894 0.2151694
 0.2152529 0.2149215 0.2146016 0.214498 0.2146369 0.2149846 0.2155048 0.2161639 0.2169392 0.2178174
 0.2187759 0.2197766 0.220781 0.22176 0.2226933 0.2235688 0.2243783 0.225114 0.2257757 0.2263765
 0.2269319 0.2274487 0.2279319 0.2283901 0.2288308 0.2292556 0.2296649 0.2300577 0.2304296 0.2307745
 0.2310876 0.2313681 0.2316228 0.231865 0.232106 0.2323524 0.2326108 0.2328853 0.233167 0.2334396
 0.2336983 0.2339548 0.2342203 0.234494 0.2347664 0.235029 0.2352805 0.2355261 0.2357723 0.2360207
 0.2362724 0.2365307 0.2367946 0.237054 0.2373004 0.237536 0.2377696 0.2380071 0.2382483 0.2384893
 0.2387319 0.2389892 0.2392716 0.2395688 0.2398595 0.2401359 0.240407 0.2406813 0.2409614 0.2412454
 0.2415196 0.2417615 0.2419642 0.2421524 0.2423686 0.2426407 0.2429591 0.2432829 0.2435755 0.2438343
 0.2440815 0.2443343 0.2445906 0.2448347 0.2450599 0.2452933 0.2455792 0.2459236 0.2462809 0.2466121
 0.2469237 0.2472354 0.24755 0.2478658 0.248177 0.2484524 0.2486574 0.2488128 0.2490078 0.2493323
 0.2497902 0.250283 0.2506973 0.2510061 0.2512699 0.2515596 0.251907 0.2522801 0.2525626 0.2526339
 0.2525472 0.2525612 0.2529065 0.2535605 0.2543049 0.2549472 0.2554377 0.2558262 0.2561691 0.2564681
 0.2566695 0.2567293 0.2567064 0.2567829 0.2571359 0.2577556 0.2584393 0.2590001 0.2594129 0.2597356
 0.2600037 0.2602339 0.2603855 0.2602919 0.2598353 0.2592708 0.2591643 0.2598453 0.2610328 0.2621354
 0.2628394 0.2632682 0.2636412 0.2640007 0.2642857 0.264389 0.2640227 0.2628804 0.2612419 0.2601425
 0.2605191 0.2622662 0.2644117 0.2660887 0.2670787 0.2675954 0.2679107 0.2681751 0.2683033 0.2679775
 0.2670037 0.2657897 0.2652449 0.2659407 0.2674696 0.2688836 0.2696601 0.2699769 0.2702115 0.2705198
 0.2707325 0.2702953 0.2685823 0.2658188 0.2635523 0.2635621 0.2661148 0.2696421 0.2722976 0.273546
 0.2740131 0.2741188 0.2734537 0.2715119 0.2684611 0.2650657 0.2624286 0.261827 0.2638699 0.2674566
 0.2704046 0.2715993 0.2719353 0.2728567 0.2746342 0.2763914 0.2772371 0.2769538 0.2758281 0.2741487
 0.2720712 0.2700844 0.269293 0.2706346 0.2737406 0.2770617 0.2793018 0.2804053 0.280888 0.2803289
 0.2770586 0.2701691 0.2620347 0.2576619 0.2602684 0.2679148 0.275589 0.2801397 0.2820088 0.2828752
 0.2834029 0.2830529 0.2804059 0.2739542 0.2644853 0.2565489 0.2553671 0.2616721 0.2708814 0.277374
 0.2783054 0.2738888 0.2663882 0.2594615 0.2566751 0.2593404 0.2659284 0.273579 0.2798204 0.2832596
 0.2835789 0.2814007 0.2782338 0.2761009 0.2760761 0.2766934 0.275059 0.2704999 0.2656823 0.2627053
 0.2598695 0.2548362 0.2497512 0.2498207 0.2565305 0.2651525 0.2700545 0.2704052 0.2691632 0.2677109
 0.2635162 0.2537921 0.24077 0.2318078 0.23295 0.2426558 0.2531753 0.2581334 0.2575973 0.2558168
 0.2555518 0.2552559 0.2512617 0.2425538 0.2332008 0.2289472 0.2311262 0.2354742 0.2371975 0.2348263
 0.2285816 0.2188065 0.2086394 0.2050121 0.2128111 0.2289025 0.2445912 0.2527852 0.250609 0.2378648
 0.2179786 0.1999912 0.1941642 0.2028223 0.2175364 0.226867 0.2254617 0.2150431 0.199478 0.1820728
 0.1670483 0.1600836 0.1649171 0.1795053 0.1961323 0.205328 0.201134 0.1856753 0.1693754 0.1634657
 0.1698793 0.1799998 0.1843136 0.1810103 0.1746628 0.170269 0.1703157 0.174409 0.1797442 0.183714
 0.1859881 0.1856833 0.178575 0.1622209 0.1428539 0.131284 0.1316439 0.1392871 0.1494705 0.1615835
 0.1734947 0.1786704 0.1735739 0.1644106 0.1618313 0.1696233 0.1814624 0.1886037 0.1885083 0.1852895
 0.1833447 0.1826479 0.180977 0.1790447 0.1806754 0.1875193 0.1961486 0.2018709 0.2036082 0.2034701
 0.203165 0.2027095 0.2016533 0.1998512 0.1973732 0.1946174 0.1921884 0.1902018 0.1881603 0.1856603
 0.1824208 0.1773619 0.1689121 0.1574749 0.1468554 0.1413423 0.1412871 0.1434433 0.1456139 0.147876
 0.1483467 0.1419984 0.1272439 0.1113105 0.1049892 0.1122476 0.1272995 0.1411714 0.1485003 0.1479879
 0.1398357 0.1261301 0.1131677 0.1094578 0.1188506 0.1369565 0.1559145 0.1710652 0.1814031 0.1860117
 0.1836126 0.1754846 0.1664414 0.1620991 0.1655654 0.1760791 0.1891506 0.1975922 0.195059 0.1824683
 0.170926 0.1734807 0.1912915 0.2115277 0.2217814 0.2226589 0.2225549 0.2246176 0.2252639 0.2234985
 0.2245539 0.2327002 0.2449152 0.2538497 0.2542926 0.2452207 0.2290098 0.2118468 0.202152 0.2039355
 0.2123601 0.2190897 0.220392 0.2166317 0.2073192 0.193198 0.1815381 0.1817451 0.1944057 0.2099718
 0.2196285 0.2233419 0.2258924 0.2286257 0.2278388 0.2204246 0.2090759 0.2006222 0.1992928 0.2030302
 0.2069673 0.2085368 0.2075825 0.2035396 0.1957632 0.1865939 0.1813565 0.1838009 0.1923077 0.2014631
 0.2069397 0.2082378 0.2073931 0.2063542 0.2056457 0.2045529 0.2024945 0.2007902 0.2023872 0.2086242
 0.2169526 0.223484 0.2274191 0.2313067 0.2370536 0.2432792 0.2469718 0.2467801 0.2443406 0.2429028
 0.2447356 0.2493001 0.2536271 0.254845 0.2529058 0.2508745 0.2520973 0.2569972 0.2630207 0.2675278
 0.2699506 0.2712306 0.2722462 0.2730692 0.2729411 0.2708653 0.267067 0.2638556 0.2640113 0.268036
 0.2736675 0.2781963 0.2806279 0.2815461 0.2816631 0.2810455 0.2795438 0.2775004 0.2757581 0.2750024
 0.2752806 0.2761849 0.2772922 0.2783342 0.2791614 0.2797403 0.2801368 0.280426 0.280656 0.2808879
 0.281163 0.2814189 0.2815521 0.2816029 0.2817738 0.2821941 0.282741 0.2831644 0.2833145 0.2831482
 0.2825932 0.2815641 0.2801187 0.2784484 0.2766657 0.2747234 0.2726632 0.2709069 0.2701484 0.2708431
 0.272791 0.2752552 0.2774779 0.2790752 0.2800418 0.2805453 0.2807765 0.2808923 0.2809836 0.2810627
 0.2810964 0.2810614 0.2809668 0.2808349 0.2806847 0.2805429 0.2804512 0.2804338 0.2804615 0.2804603
 0.2803583 0.280127 0.2797937 0.2794152 0.279025 0.2785972 0.2780674 0.2773879 0.2765663 0.2756622
 0.2747548 0.2739012 0.2731041 0.2723136 0.271464 0.2705119 0.2694277 0.268169 0.2667073 0.2651036
 0.2635103 0.2620548 0.2607359 0.2594553 0.2581145 0.2566567 0.255057 0.2533256 0.2515119 0.2496747
 0.2478451 0.2460239 0.2442009 0.2423667 0.2405107 0.2386189 0.2366782 0.2346839 0.2326383 0.2305405
 0.2283665 0.2260484 0.223475 0.2205209 0.2170803 0.2130825 0.2085134 0.2034505 0.1980687 0.1925856
 0.1871925 0.1820285 0.1772002 0.1728169 0.1690047 0.1658796 0.1635014 0.161865 0.1609366 0.1606874
 0.1610946 0.1621255 0.1637163 0.1657563 0.1680938 0.1705578 0.1729782 0.1752105 0.1771839 0.1789391
 0.180597 0.1822656 0.183966 0.1856424 0.1872304 0.1886951 0.1900093 0.1911353 0.1920556 0.1928018
 0.1934275 0.1939621 0.1944076 0.1947629 0.1950369 0.1952464 0.1954134 0.1955683 0.1957575 0.1960347
 0.1964292 0.1969309 0.1975206 0.1982008 0.1989812 0.1998466 0.2007575 0.2016759 0.2025875 0.2035103
 0.2044838 0.2055511 0.2067547 0.2081419 0.209752 0.2115969 0.2136606 0.2159029 0.2182521 0.2206028
 0.2228348 0.2248385 0.2265427 0.2279374 0.2290643 0.2299697 0.2306755 0.2311957 0.2315577 0.2317966
 0.2319373 0.2319855 0.2319309 0.2317641 0.2314872 0.2311063 0.2306288 0.2300767 0.2294864 0.2288844
 0.2282772 0.227667 0.2270618 0.2264695 0.2258991 0.2253614 0.2248548 0.2243559 0.2238353 0.2232789
 0.2226855 0.2220444 0.2213171 0.2204515 0.2194228 0.2182505 0.2169688 0.2155942 0.2141317 0.2125924
 0.2109931 0.2093497 0.2076768 0.2059829 0.2042635 0.2024989 0.2006516 0.1986799 0.1965778 0.1944014
 0.1922354 0.1901423 0.1881519 0.1862731 0.1844925 0.1827801 0.1811175 0.1795126 0.1779845 0.1765471
 0.1752017 0.1739351 0.1727273 0.1715708 0.17048 0.1694829 0.1686046 0.1678514 0.1672038 0.1666325
 0.1661163 0.1656467 0.1652302 0.1648962 0.1646771 0.1645615 0.1644815 0.1643558 0.1641397 0.1638429
 0.1635174 0.1632182 0.162961 0.1627219 0.1624762 0.1622117 0.161894 0.16144 0.1607381 0.1597013
 0.1583116 0.1566222 0.154722 0.1527122 0.1507101 0.1488396 0.1471972 0.1458365 0.1447724 0.1439669
 0.1433285 0.1427699 0.1422738 0.1418917 0.1416873 0.1416648 0.1417269 0.141729 0.1416203 0.1415118
 0.1415729 0.141884 0.1423976 0.142995 0.1435582 0.1440226 0.1443803 0.144633 0.1447698 0.1447926
 0.1447218 0.1445678 0.1443301 0.1440162 0.1436387 0.1432066 0.1427322 0.1422212 0.1416558 0.1410109
 0.1402751 0.1394446 0.1385266 0.137537 0.1364591 0.1352469 0.1339386 0.1327362 0.1319087 0.131626
 0.1318755 0.1324805 0.1332172 0.1339676 0.1346948 0.1352439 0.1353668 0.1351252 0.1351232 0.1360667
 0.1380552 0.1404493 0.1424509 0.143681 0.1441837 0.1440965 0.1434998 0.1424564 0.1409885 0.1390567
 0.1366708 0.1339397 0.1309705 0.1278664 0.1248333 0.1221167 0.1198411 0.1180095 0.1165845 0.1155829
 0.1151247 0.1148506 0.1129538 0.1071329 0.09814215 0.09136447 0.09228458 0.1003249 0.1092587 0.113804
 0.1138328 0.1121692 0.1107451 0.1098361 0.1093323 0.1093778 0.1101254 0.1114601 0.11298 0.114233
 0.115019 0.1153815 0.1153121 0.1145138 0.1123374 0.1079876 0.101158 0.09263371 0.08404331 0.07689843
 0.07190588 0.0689761 0.0675347 0.06685413 0.06641528 0.06614898 0.06633966 0.06728418 0.06904288 0.07147943
 0.07441818 0.07762758 0.08071412 0.08327173 0.08519963 0.08670399 0.0879516 0.08887996 0.08935558 0.08935533
 0.088966 0.08832236 0.08756647 0.08678445 0.08594535 0.08494137 0.08375292 0.08257946 0.08172457 0.0813136
 0.08120759 0.08121184 0.08124654 0.08129519 0.08132973 0.08132926 0.08129276 0.08125042 0.08130745 0.08158787
 0.08207313 0.08258121 0.08294503 0.08314612 0.08326577 0.08333579 0.08323138 0.08278098 0.08206181 0.08143076
 0.0810679 0.08065723 0.07980102 0.07863785 0.07775636 0.07754001 0.07782778 0.07818748 0.07831454 0.07816247
 0.07789664 0.0778183 0.07817385 0.07886603</values></Ydata></ScSm><ScRf><Ydata ylabel="Single channel"><values byteorder="INTEL" format="FLOAT32" numvalues="1820"> 0.0607412 0.06089605 0.06098592 0.06101183 0.06099866 0.06099333 0.06104887 0.0611919 0.06139961 0.06160825
 0.06175419 0.06181611 0.0618123 0.06176334 0.06168783 0.061636 0.06168035 0.06184459 0.06206112 0.06221727
 0.06224508 0.06217984 0.06213677 0.06219903 0.06230378 0.06226489 0.06194838 0.06142842 0.06093781 0.06065467
 0.06059504 0.06075461 0.06121983 0.06193867 0.06246926 0.06229651 0.06147763 0.06067438 0.06041867 0.06060079
 0.06077734 0.06068759 0.06033711 0.05989031 0.05970849 0.06025467 0.06163749 0.06323379 0.06391516 0.06276353
 0.05972662 0.05581538 0.05272665 0.05193736 0.05366844 0.05658656 0.05880283 0.05938114 0.05878965 0.05794061
 0.05720115 0.05651531 0.05605499 0.05626145 0.05724045 0.05834712 0.05852443 0.05721688 0.05503037 0.05329145
 0.05283137 0.05347162 0.05474478 0.05640265 0.05768871 0.05692808 0.05317874 0.04831453 0.04618722 0.04896479
 0.05481707 0.059699 0.06094574 0.0587782 0.05513963 0.05208262 0.0509772 0.05214427 0.05482119 0.05779481
 0.0601292 0.06119341 0.06049214 0.05810135 0.05509868 0.05304355 0.05301749 0.05519599 0.05881013 0.06221981
 0.06366012 0.06254265 0.05984601 0.05708416 0.05531134 0.05512413 0.05681052 0.06005487 0.063913 0.0673532
 0.06967656 0.07059953 0.07032196 0.06940047 0.06832396 0.06742178 0.06714883 0.06780975 0.0688137 0.0688984
 0.06750263 0.06552044 0.06438261 0.06457756 0.06526381 0.06529316 0.06437263 0.06287561 0.06070399 0.05725865
 0.05281495 0.04890015 0.04676697 0.04643431 0.04759152 0.05008934 0.0528734 0.05392037 0.0524503 0.05034267
 0.05027504 0.05286543 0.05634896 0.05873208 0.05964518 0.06020365 0.06157592 0.06378697 0.06557543 0.06534466
 0.06274073 0.05953764 0.05838427 0.06020598 0.06331632 0.06549507 0.06633213 0.06697939 0.06813034 0.06893831
 0.06790182 0.0646541 0.06090924 0.05939475 0.06147259 0.0657734 0.0691921 0.06918205 0.0654664 0.06009579
 0.05585376 0.05433203 0.05551366 0.05884451 0.0638442 0.06953214 0.07416744 0.07622281 0.07548998 0.07300617
 0.06986269 0.06619023 0.06171927 0.05746235 0.05592976 0.05876834 0.06466213 0.07042587 0.07384431 0.07478078
 0.0739505 0.07156263 0.06751932 0.0627317 0.05955815 0.05997619 0.06319757 0.06610802 0.06652603 0.06519644
 0.06419477 0.06434435 0.06490281 0.06514803 0.06541474 0.06652276 0.06859839 0.07075895 0.07196097 0.07194476
 0.07128591 0.0707297 0.07051528 0.07019562 0.06926973 0.06818165 0.0682784 0.07033198 0.07347353 0.07608365
 0.07741944 0.07788968 0.07796721 0.07734954 0.07538868 0.07230411 0.06968067 0.06929287 0.07138788 0.07452824
 0.07708625 0.07841818 0.07871443 0.07840571 0.07786794 0.07730328 0.07680929 0.07664507 0.07716368 0.07830804
 0.07949465 0.08019867 0.08038713 0.08025494 0.07984537 0.07912848 0.07827777 0.07767504 0.07763399 0.07816602
 0.07902491 0.07992461 0.08064096 0.08097669 0.0808328 0.08035583 0.0798521 0.07950921 0.07932833 0.0793196
 0.07957406 0.08008847 0.08067086 0.08110143 0.08130946 0.08135094 0.08128837 0.0811446 0.08093974 0.08073927
 0.08065913 0.08078752 0.08107711 0.08137242 0.0815911 0.08180644 0.08208257 0.08231297 0.0823318 0.08213982
 0.08191693 0.081828 0.08189142 0.08202472 0.0821366 0.08214258 0.08195612 0.08156357 0.08112589 0.08091822
 0.08110891 0.08163647 0.08231188 0.08295898 0.0834455 0.08370017 0.08376199 0.08374163 0.08369493 0.0835845
 0.08338023 0.08315532 0.08306545 0.08323289 0.08363684 0.08412183 0.0845245 0.08477462 0.08488902 0.08493926
 0.08502932 0.08521372 0.0854122 0.08548366 0.08540621 0.08531626 0.08534664 0.08547741 0.08557133 0.08553596
 0.08543091 0.08540657 0.08554295 0.0857752 0.08598599 0.08613766 0.08628935 0.08649629 0.08671143 0.08680496
 0.08670245 0.08648686 0.08631766 0.08626156 0.08626789 0.08630291 0.0864158 0.08663645 0.08688153 0.08702526
 0.08704032 0.08702005 0.08705851 0.08713928 0.08716017 0.08705242 0.08685406 0.08667122 0.08658959 0.0866235
 0.08672304 0.08681192 0.08683059 0.08676636 0.08665228 0.08653395 0.08643825 0.08638085 0.08639743 0.08653446
 0.08677895 0.08701077 0.08707017 0.08690158 0.08661948 0.086408 0.08635012 0.08636494 0.08630948 0.0861222
 0.08585928 0.08561496 0.08543616 0.0853107 0.08520828 0.0851175 0.08505979 0.08508044 0.08520415 0.08537456
 0.08545971 0.08535956 0.08510649 0.08483182 0.08464289 0.0845589 0.08454129 0.08454327 0.08454365 0.08456407
 0.0846355 0.08473037 0.08476628 0.08470269 0.08459687 0.08454637 0.08461108 0.08479069 0.0850209 0.0851846
 0.08519185 0.08507384 0.08495714 0.0849327 0.08498716 0.08506416 0.0851416 0.08522755 0.08532044 0.08541264
 0.08552244 0.08569129 0.08593903 0.08623057 0.08649166 0.08666226 0.08674613 0.08681659 0.08696512 0.08723044
 0.08757035 0.0878997 0.08815672 0.08834218 0.0885023 0.08867521 0.08886114 0.08905198 0.08927041 0.08954986
 0.08988246 0.09021922 0.09052454 0.09080502 0.09108379 0.09137055 0.09166323 0.0919685 0.09231291 0.09272145
 0.09317023 0.093573 0.09384605 0.0939917 0.09410366 0.09429358 0.09461253 0.09501176 0.09536247 0.0955551
 0.09561542 0.09569106 0.09588973 0.09616721 0.09641758 0.09663658 0.09692805 0.09735408 0.09783795 0.09823643
 0.09847929 0.09862019 0.09876385 0.09895743 0.09915556 0.0992904 0.09936219 0.09943705 0.09956171 0.09972523
 0.09992172 0.1001981 0.1005914 0.1010473 0.1014528 0.1017403 0.1019233 0.1020495 0.102153 0.1022414
 0.1023025 0.1023307 0.1023586 0.1024316 0.1025407 0.1026202 0.1026346 0.1026336 0.1026947 0.1028462
 0.1030716 0.1033539 0.1036726 0.1039827 0.1042513 0.1045161 0.1048499 0.1052449 0.1055805 0.1057487
 0.105776 0.1057731 0.1057974 0.1058322 0.1058828 0.1060117 0.10626 0.1065926 0.1069468 0.107298
 0.1076557 0.1080172 0.108345 0.1085837 0.108696 0.1086954 0.1086487 0.1086452 0.1087523 0.1089842
 0.1092962 0.1096161 0.1098901 0.1100937 0.1102047 0.1102051 0.1101337 0.1101 0.1101954 0.1103897
 0.1105466 0.1105397 0.1103324 0.1099528 0.1094361 0.1088115 0.1081284 0.1074663 0.1069073 0.1065014
 0.1062666 0.1062241 0.1064156 0.1068608 0.1075 0.1082079 0.1088678 0.1094034 0.1097363 0.1097692
 0.109455 0.1088588 0.1081204 0.1073677 0.1066747 0.1060579 0.1054831 0.1049121 0.1043864 0.1040581
 0.1041149 0.1046718 0.1057191 0.1071273 0.1086807 0.1101465 0.1113725 0.112343 0.1131429 0.1138621
 0.1145415 0.1151966 0.1158529 0.1165226 0.1171665 0.1177259 0.1181897 0.1186 0.1189941 0.1193715
 0.1197121 0.1199993 0.1202331 0.1204406 0.1206528 0.1208512 0.1209668 0.1209567 0.120858 0.1207383
 0.1206159 0.1204503 0.1201912 0.1198204 0.1193758 0.1189705 0.1187841 0.1189943 0.1196739 0.1207382
 0.1220063 0.1233206 0.1245973 0.1257677 0.1267321 0.1274155 0.1278467 0.128138 0.1283968 0.1286754
 0.1289842 0.1293135 0.1296416 0.1299461 0.1302197 0.1304803 0.1307641 0.1310942 0.1314491 0.1317728
 0.1320327 0.1322612 0.1325299 0.1328793 0.1332768 0.1336509 0.1339704 0.1342722 0.1345965 0.1349147
 0.1351598 0.1353181 0.1354532 0.1356423 0.1359197 0.1362725 0.1366525 0.1369936 0.1372519 0.1374406
 0.137611 0.1378024 0.1380219 0.1382628 0.1385183 0.138776 0.139023 0.139267 0.1395377 0.1398481
 0.14016 0.1404096 0.1405743 0.1406985 0.1408472 0.1410448 0.1412643 0.141468 0.1416521 0.1418549
 0.1421216 0.1424532 0.1427936 0.143073 0.1432645 0.1433967 0.1435184 0.143663 0.1438403 0.144044
 0.1442584 0.1444671 0.1446657 0.1448656 0.1450814 0.1453138 0.1455475 0.1457643 0.1459595 0.1461446
 0.1463366 0.1465434 0.1467654 0.1470102 0.1472904 0.1475991 0.1478966 0.1481365 0.1483061 0.1484328
 0.1485544 0.1486935 0.148854 0.1490301 0.1492138 0.1493998 0.1495875 0.149778 0.1499726 0.1501727
 0.1503811 0.1506006 0.1508301 0.1510627 0.1512907 0.1515143 0.1517395 0.1519652 0.1521799 0.1523754
 0.1525577 0.152741 0.1529347 0.1531368 0.1533358 0.1535217 0.1536984 0.1538809 0.1540771 0.1542788
 0.1544732 0.1546565 0.1548336 0.1550129 0.1552025 0.1554067 0.1556207 0.1558312 0.1560267 0.1562087
 0.1563909 0.1565865 0.1567962 0.1570098 0.1572159 0.1574099 0.1575966 0.1577875 0.1579916 0.1582065
 0.1584193 0.1586189 0.1588045 0.1589862 0.1591753 0.1593743 0.1595773 0.1597797 0.159983 0.1601882
 0.1603939 0.1606006 0.1608099 0.1610205 0.1612318 0.1614476 0.1616688 0.1618865 0.1620904 0.1622797
 0.1624652 0.1626605 0.1628713 0.1630917 0.1633131 0.1635354 0.1637638 0.1639978 0.1642271 0.1644372
 0.1646202 0.1647817 0.1649386 0.165103 0.1652738 0.1654471 0.1656255 0.1658117 0.1660045 0.1662025
 0.166405 0.1666079 0.166807 0.1670014 0.1671923 0.1673835 0.1675805 0.1677848 0.1679919 0.1681999
 0.1684111 0.1686238 0.1688324 0.1690386 0.1692486 0.1694639 0.1696801 0.1698923 0.1700981 0.1703006
 0.1705086 0.1707246 0.1709412 0.1711511 0.1713521 0.1715422 0.1717248 0.1719159 0.1721303 0.1723644
 0.1726014 0.1728252 0.1730294 0.1732221 0.1734205 0.1736321 0.1738505 0.174071 0.1742942 0.1745145
 0.1747269 0.1749366 0.1751485 0.1753599 0.1755713 0.1757874 0.1760039 0.1762132 0.1764179 0.1766238
 0.1768317 0.1770433 0.1772564 0.1774498 0.1775748 0.1775137 0.1769763 0.175393 0.1719095 0.1655653
 0.1556857 0.1423191 0.1263701 0.1092723 0.0924604 0.0770054 0.06352755 0.05229614 0.04336827 0.036666
 0.03202829 0.02931411 0.02850901 0.02982191 0.03379163 0.04097188 0.05072235 0.06012308 0.06510083 0.06364587
 0.05773827 0.05154435 0.04794867 0.04715204 0.04791521 0.04918249 0.05062312 0.05243354 0.05494629 0.05825549
 0.06220388 0.06679219 0.07237415 0.0792082 0.08692667 0.09469339 0.1019251 0.1087484 0.1157154 0.123147
 0.1308022 0.1381171 0.144655 0.1503272 0.1553073 0.159832 0.1640639 0.1680772 0.1719077 0.1755517
 0.1788827 0.181614 0.1834369 0.1842552 0.1842985 0.1839914 0.1837021 0.1835982 0.1836938 0.183961
 0.1843811 0.1849383 0.1856132 0.1863802 0.1872031 0.188043 0.1888744 0.1896842 0.1904605 0.1911937
 0.1918784 0.1925115 0.1930917 0.1936232 0.1941117 0.1945597 0.1949699 0.1953473 0.195697 0.1960269
 0.1963489 0.196668 0.1969738 0.1972516 0.1974967 0.197715 0.1979187 0.1981234 0.1983401 0.1985677
 0.198797 0.1990213 0.1992387 0.1994494 0.1996556 0.1998619 0.2000699 0.200275 0.2004717 0.2006586
 0.2008404 0.2010234 0.2012101 0.2013984 0.201589 0.201787 0.201993 0.2021969 0.2023883 0.2025664
 0.2027391 0.2029177 0.2031098 0.2033147 0.2035257 0.2037415 0.2039654 0.2041944 0.2044193 0.2046364
 0.2048471 0.2050511 0.2052523 0.2054616 0.2056792 0.2058826 0.2060481 0.2061844 0.2063319 0.2065271
 0.2067666 0.2070136 0.2072382 0.2074419 0.20764 0.2078349 0.2080166 0.208178 0.2083271 0.2084931
 0.2087086 0.2089736 0.2092512 0.209511 0.2097534 0.2099846 0.2102022 0.2104137 0.2106297 0.2108348
 0.2109994 0.2111344 0.2113046 0.2115738 0.2119352 0.2123086 0.2126154 0.2128486 0.2130574 0.2132865
 0.213553 0.2138332 0.214037 0.2140657 0.2139651 0.2139552 0.214228 0.2147548 0.2153443 0.2158411
 0.2162166 0.2165154 0.2167763 0.2169952 0.217131 0.2171502 0.2170985 0.2171271 0.2173914 0.2178899
 0.2184491 0.2189007 0.2192167 0.2194489 0.2196379 0.2198085 0.219928 0.2198418 0.219433 0.2189157
 0.2187851 0.2193355 0.2203281 0.221251 0.2218298 0.2221653 0.2224442 0.2227089 0.222917 0.222981
 0.222651 0.2216612 0.2202501 0.2193014 0.2196118 0.2210875 0.2228977 0.2243029 0.2251177 0.2255259
 0.2257642 0.2259663 0.2260635 0.2257863 0.2249674 0.2239483 0.2234963 0.2240964 0.2254031 0.2266056
 0.2272527 0.2274989 0.2276796 0.2279372 0.2281225 0.2277532 0.2262928 0.223936 0.2219996 0.2219939
 0.2241469 0.2271337 0.2293906 0.230459 0.2308623 0.2309533 0.2303841 0.2287267 0.2261301 0.2232539
 0.2210381 0.2205545 0.222303 0.2253457 0.2278406 0.2288501 0.2291293 0.2298992 0.231399 0.2328992
 0.233644 0.2334319 0.2324913 0.2310712 0.2293194 0.2276581 0.2270139 0.2281683 0.2308105 0.2336405
 0.2355671 0.236538 0.2369807 0.2365277 0.2337523 0.2278801 0.2209387 0.2172052 0.2194365 0.2259902
 0.2325883 0.2365247 0.238161 0.2389266 0.2393929 0.239108 0.2368758 0.2314219 0.2234118 0.2167037
 0.2157349 0.2211349 0.2290161 0.2345989 0.2354493 0.2317315 0.2253752 0.2195142 0.2171958 0.2195299
 0.2252054 0.231786 0.2371679 0.240162 0.2404916 0.2386842 0.2360337 0.2342782 0.2343358 0.234946
 0.2336334 0.2298251 0.2257982 0.2233466 0.2210222 0.2168246 0.2125843 0.212764 0.218652 0.2262004
 0.2305669 0.231025 0.2301091 0.2290075 0.2255493 0.2173415 0.2063015 0.1987658 0.1999507 0.2085318
 0.2178181 0.2223001 0.2220311 0.2206829 0.2206543 0.2206236 0.2174114 0.2101256 0.2023092 0.1989809
 0.2013081 0.205564 0.2075507 0.2059568 0.2009322 0.1927543 0.1842141 0.181493 0.188977 0.2039134
 0.2185464 0.2264962 0.2251273 0.2142061 0.1967986 0.1811191 0.1765473 0.1852451 0.1995315 0.2089321
 0.2084988 0.1997442 0.1861783 0.1708772 0.1578687 0.1526293 0.1588404 0.1746296 0.192526 0.2031668
 0.2005104 0.1865626 0.1717968 0.167633 0.1760397 0.1881367 0.1941004 0.1920642 0.1867934 0.1835742
 0.1851528 0.1911689 0.1985404 0.2043781 0.2082956 0.2091754 0.2020896 0.1842259 0.1627364 0.1500138
 0.150825 0.1599138 0.1719176 0.1861654 0.2001502 0.2062413 0.2002862 0.1894505 0.1860891 0.1946288
 0.2077875 0.2154741 0.2147727 0.2104656 0.2076839 0.2064658 0.2042871 0.2019379 0.2037489 0.2115936
 0.2215964 0.2284561 0.2309634 0.2315187 0.2320707 0.2326367 0.2326754 0.231985 0.2306321 0.2290883
 0.2280828 0.2277862 0.2276535 0.2272454 0.2262058 0.2230237 0.2153732 0.2033834 0.1916892 0.1857517
 0.1860745 0.1886066 0.1907648 0.19294 0.1928853 0.1841231 0.164498 0.1432147 0.1341401 0.1424031
 0.1605731 0.1771377 0.185322 0.1836925 0.1727416 0.1550957 0.1382367 0.1321313 0.1410917 0.1596372
 0.1783553 0.1920036 0.2000461 0.2021304 0.1971376 0.186416 0.1750345 0.1688654 0.1710345 0.1805753
 0.1927211 0.2000839 0.1962883 0.1823437 0.1694215 0.1705675 0.1869915 0.206018 0.2153345 0.2154384
 0.2145498 0.2158274 0.2158557 0.2136905 0.2144218 0.2222399 0.2342967 0.2435189 0.2448222 0.2371196
 0.2226394 0.2073983 0.1996274 0.2031418 0.2129337 0.2205522 0.2222347 0.2184112 0.2087478 0.1942233
 0.1823607 0.1827025 0.1957716 0.2118392 0.2219745 0.2261775 0.2293235 0.2327667 0.2326889 0.2258754
 0.2150734 0.2072999 0.2069123 0.2118112 0.2170259 0.2199574 0.2204229 0.2177001 0.2109703 0.202702
 0.1986874 0.2030227 0.2138515 0.2250599 0.23171 0.2331337 0.2315473 0.2291637 0.2266796 0.2234279
 0.2188669 0.2145081 0.2136116 0.2177029 0.2241533 0.2288918 0.2310648 0.2333058 0.2375886 0.2425023
 0.2449689 0.2436021 0.2400207 0.2374346 0.2380754 0.2414356 0.2446487 0.2449299 0.2422218 0.2394984
 0.2400241 0.2442309 0.2496597 0.2537618 0.2559817 0.2572094 0.2582633 0.2591755 0.2591691 0.2572439
 0.2535906 0.2504105 0.2503545 0.2538949 0.25888 0.2627628 0.2646611 0.2651988 0.2650893 0.2643896
 0.2629292 0.261 0.2593719 0.2586769 0.2589568 0.259824 0.2608655 0.2618147 0.2625357 0.2630163
 0.263329 0.2635303 0.2636402 0.2637048 0.2637742 0.2638088 0.2637244 0.263568 0.2635429 0.2637832
 0.264177 0.2644807 0.2645415 0.2643167 0.2637471 0.2627673 0.2614464 0.2599745 0.2584532 0.2568199
 0.2550997 0.2536887 0.2532349 0.2541392 0.2561805 0.2586547 0.2608607 0.262452 0.2634251 0.2639281
 0.2641312 0.2641847 0.2641862 0.2641526 0.2640471 0.263842 0.2635498 0.2631982 0.262804 0.2623867
 0.2619899 0.2616585 0.2613931 0.26114 0.2608328 0.2604341 0.2599456 0.2593974 0.2588244 0.258236
 0.2575988 0.2568607 0.2560002 0.2550541 0.2541015 0.2532175 0.2524256 0.2516845 0.2509289 0.2501181
 0.2492315 0.2482356 0.2471143 0.2459426 0.2448737 0.2440124 0.2433247 0.2426912 0.2420115 0.2412378
 0.2403569 0.2393844 0.2383586 0.2373075 0.2362239 0.2350828 0.2338707 0.2325901 0.2312476 0.2298439
 0.228369 0.2268123 0.2251855 0.2235236 0.2218383 0.2200676 0.2180849 0.2157563 0.2129785 0.2096759
 0.2058049 0.201395 0.1965858 0.1916012 0.186672 0.181975 0.1776319 0.1737394 0.1703821 0.1676248
 0.1655122 0.1640772 0.1633408 0.1633068 0.163963 0.1652825 0.1672104 0.1696485 0.1724553 0.1754596
 0.1784764 0.1813342 0.1839284 0.186268 0.1884505 0.1905588 0.1925805 0.1944376 0.1960755 0.1974946
 0.1987138 0.1997441 0.200602 0.2013177 0.20192 0.2024287 0.2028634 0.2032442 0.2035798 0.2038651
 0.204094 0.2042751 0.2044339 0.2045996 0.2047896 0.2050081 0.2052593 0.2055578 0.2059242 0.2063691
 0.2068812 0.207434 0.208005 0.2085869 0.2091854 0.2098159 0.2105074 0.2113029 0.2122458 0.213359
 0.2146307 0.2160121 0.2174294 0.2187991 0.2200363 0.2210638 0.2218298 0.2223242 0.2225792 0.22265
 0.2225852 0.2224076 0.2221224 0.2217425 0.2212903 0.2207759 0.220192 0.2195391 0.2188405 0.2181239
 0.2174041 0.2166911 0.2160022 0.2153483 0.2147179 0.2140867 0.213446 0.2128136 0.2122124 0.2116456
 0.2110949 0.210538 0.2099623 0.2093685 0.2087647 0.2081511 0.2075045 0.2067852 0.2059648 0.2050388
 0.2040142 0.2028978 0.2016996 0.2004333 0.1991021 0.1976913 0.1961832 0.1945811 0.192914 0.1912062
 0.18944 0.1875678 0.1855782 0.1835324 0.1815244 0.1796213 0.177855 0.1762367 0.1747536 0.1733726
 0.1720632 0.1708091 0.1695969 0.1684191 0.167286 0.1662127 0.1651976 0.1642316 0.1633201 0.1624828
 0.1617371 0.16109 0.1605385 0.1600757 0.1596915 0.1593704 0.159103 0.1589112 0.1588355 0.158876
 0.1589644 0.1590119 0.1589713 0.158849 0.1586854 0.1585324 0.158428 0.15838 0.1583667 0.1583394
 0.1582202 0.1579133 0.1573335 0.1564301 0.1552031 0.1536982 0.1519828 0.1501404 0.148292 0.1465835
 0.1451234 0.1439518 0.1430635 0.1424194 0.1419392 0.141538 0.1411915 0.1409545 0.1409114 0.1410848
 0.1413704 0.1415914 0.1416645 0.1416886 0.1418473 0.1422567 0.1429108 0.1437094 0.1445141 0.1452159
 0.1457632 0.1461387 0.1463501 0.1464417 0.1464589 0.1464027 0.1462579 0.1460379 0.1457666 0.1454525
 0.1450977 0.1446962 0.144226 0.1436738 0.1430447 0.1423305 0.1415156 0.1406029 0.1395827 0.1384199
 0.1371636 0.1360293 0.1353007 0.1351584 0.1355941 0.1364259 0.1374218 0.1384536 0.1394655 0.1402791
 0.140638 0.1406026 0.1407544 0.1417771 0.1438042 0.1462725 0.1484227 0.1498484 0.1505459 0.150627
 0.1501672 0.149226 0.1478045 0.1458333 0.1433261 0.1404487 0.137373 0.1342222 0.1311756 0.1284377
 0.1261134 0.1242259 0.1227736 0.1217941 0.1214166 0.1212578 0.1193859 0.1133391 0.1039352 0.09694239
 0.09820506 0.1070602 0.1168198 0.1218322 0.1219638 0.1202402 0.1187361 0.1177539 0.1171881 0.1172054
 0.1179556 0.1192808 0.1207509 0.1219403 0.1226999 0.1230975 0.1230951 0.1223108 0.1199879 0.1152673
 0.1078708 0.09868567 0.08946066 0.08178987 0.07639784 0.0731665 0.07149449 0.07064878 0.07011178 0.06981964
 0.07007127 0.07116683 0.07314083 0.07582512 0.07903282 0.0825309 0.08591405 0.08875693 0.0909455 0.0926855
 0.09414621 0.0952481 0.09582496 0.09584819 0.09544232 0.09477842 0.09400126 0.0931917 0.0923229 0.09128039
 0.09002918 0.08877806 0.08786394 0.087431 0.08732755 0.08733293 0.08735035 0.08736452 0.08736119 0.08733286
 0.08728898 0.0872678 0.08736724 0.08768333 0.08817203 0.08864549 0.08894037 0.08904923 0.08907865 0.08907419
 0.08888349 0.08830004 0.0874171 0.08664519 0.08618662 0.08569126 0.08471543 0.08339055 0.08234307 0.08200493
 0.08223579 0.08258688 0.08271842 0.08255689 0.08226871 0.08218153 0.08255936 0.08328202 0.08383995 0.08381419
</values></Ydata></ScRf><Data_Parameters_AB><parameter name="DPF">1</parameter><parameter name="NPT">3497</parameter><parameter name="FXV">3996</parameter><parameter name="LXV">500</parameter><parameter name="CSF">1</parameter><parameter name="MXY">0.119571506977081</parameter><parameter name="MNY">-0.074873723089695</parameter><parameter name="DAT">01/06/2022</parameter><parameter name="TIM">11:34:34.318 (GMT+2)</parameter><parameter name="DXU">WN</parameter></Data_Parameters_AB><AB__Qtest><MainReport name="Quality Test Report"><Header><Line><Legend>Test result ok/not ok [1/0]: </Legend><Value>0</Value></Line><Line><Legend>Method file: </Legend><Value>C:\Users\Public\Documents\Bruker\OPUS_8.2.28\QT\IRBT_v3_default.QT</Value></Line></Header><Matrix><Line><Legend></Legend><Legend>min</Legend><Legend>max</Legend><Legend>measured</Legend></Line><Line><Value>Absorption (X-Range 1):</Value><Value>0.400000</Value><Value>2.000000</Value><Value>0.137812</Value></Line><Line><Value>Noise (X-Range 4):</Value><Value></Value><Value>0.000300</Value><Value>0.000049</Value></Line><Line><Value>Signal/Noise (X-Range 2):</Value><Value>200.000000</Value><Value></Value><Value>59.730634</Value></Line><Line><Value>Signal/Noise (X-Range 3):</Value><Value>40.000000</Value><Value></Value><Value>34.110759</Value></Line><Line><Value>Water vapour (X-Range 5):</Value><Value></Value><Value>0.000300</Value><Value>0.000078</Value></Line><Line><Value>Signal/Water (X-Range 2):</Value><Value>100.000000</Value><Value></Value><Value>37.126665</Value></Line><Line><Value>Signal/Water (X-Range 3):</Value><Value>20.000000</Value><Value></Value><Value>21.202165</Value></Line><Line><Value>Fringes (X-Range 6):</Value><Value></Value><Value>0.000100</Value><Value>0.000063</Value></Line></Matrix></MainReport></AB__Qtest><Data_Parameters_ScSm><parameter name="DPF">1</parameter><parameter name="NPT">1814</parameter><parameter name="FXV">3996.33169228125</parameter><parameter name="LXV">499.541461535156</parameter><parameter name="CSF">1</parameter><parameter name="MXY">0.283578932285309</parameter><parameter name="MNY">0.033872477710247</parameter><parameter name="DAT">01/06/2022</parameter><parameter name="TIM">11:34:34.318 (GMT+2)</parameter><parameter name="DXU">WN</parameter></Data_Parameters_ScSm><Data_Parameters_ScRf><parameter name="DPF">1</parameter><parameter name="NPT">1820</parameter><parameter name="FXV">4004.04661832813</parameter><parameter name="LXV">495.683998511719</parameter><parameter name="CSF">1</parameter><parameter name="MXY">0.265198826789856</parameter><parameter name="MNY">0.0285090059041977</parameter><parameter name="DAT">01/06/2022</parameter><parameter name="TIM">11:34:08.463 (GMT+2)</parameter><parameter name="DXU">WN</parameter></Data_Parameters_ScRf><Optic_Parameters_Rf><parameter name="APR">0</parameter><parameter name="APT">Open</parameter><parameter name="BMS">KBr</parameter><parameter name="DTC">RT-DLaTGS_IR-Biotyper [Microplate reader]</parameter><parameter name="HPF">0</parameter><parameter name="LPF">10.0</parameter><parameter name="LPV">4000</parameter><parameter name="PGR">0</parameter><parameter name="RCH">Module port</parameter><parameter name="RDX">0</parameter><parameter name="SRC">MIR</parameter><parameter name="VEL">10.0</parameter><parameter name="SON">Off</parameter></Optic_Parameters_Rf><Acquisition_Parameters_Rf><parameter name="ADT">1</parameter><parameter name="AQM">DD</parameter><parameter name="CFE">0</parameter><parameter name="COR">0</parameter><parameter name="DEL">0</parameter><parameter name="DLY">0</parameter><parameter name="HFW">8000</parameter><parameter name="LFW">0</parameter><parameter name="NSR">32</parameter><parameter name="PLF">AB</parameter><parameter name="RES">6</parameter><parameter name="RGN">-1</parameter><parameter name="STR">0</parameter><parameter name="TCL">MakeCompatibleScalar (0, {WSV=1.000000, ARV=0});</parameter><parameter name="TDL">37</parameter><parameter name="RPO">0</parameter></Acquisition_Parameters_Rf><FT_-_Parameters_Rf><parameter name="APF">B3</parameter><parameter name="HFQ">500</parameter><parameter name="LFQ">4000</parameter><parameter name="NLI">0</parameter><parameter name="PHR">24</parameter><parameter name="PHZ">ML</parameter><parameter name="SPZ">NO</parameter><parameter name="ZFF">1</parameter></FT_-_Parameters_Rf><Optic_Parameters_><parameter name="APR">0</parameter><parameter name="APT">Open</parameter><parameter name="BMS">KBr</parameter><parameter name="CHN">Module port</parameter><parameter name="DTC">RT-DLaTGS_IR-Biotyper [Microplate reader]</parameter><parameter name="HPF">0</parameter><parameter name="LPF">10.0</parameter><parameter name="LPV">4000</parameter><parameter name="PGN">0</parameter><parameter name="RDX">0</parameter><parameter name="SRC">MIR</parameter><parameter name="VEL">10.0</parameter><parameter name="SON">Off</parameter></Optic_Parameters_><FT_-_Parameters_><parameter name="APF">B3</parameter><parameter name="HFQ">500</parameter><parameter name="LFQ">4000</parameter><parameter name="NLI">0</parameter><parameter name="PHR">24</parameter><parameter name="PHZ">ML</parameter><parameter name="SPZ">NO</parameter><parameter name="ZFF">1</parameter></FT_-_Parameters_><Acquisition_Parameters_><parameter name="ADT">1</parameter><parameter name="AQM">DD</parameter><parameter name="CFE">0</parameter><parameter name="COR">0</parameter><parameter name="DEL">0</parameter><parameter name="DLY">0</parameter><parameter name="HFW">8000</parameter><parameter name="LFW">0</parameter><parameter name="NSS">32</parameter><parameter name="PLF">AB</parameter><parameter name="RES">6</parameter><parameter name="SOT">0</parameter><parameter name="TCL">MakeCompatibleScalar (0, {WSV=1.000000, ARV=0});</parameter><parameter name="TDL">37</parameter><parameter name="SPO">0</parameter><parameter name="SGN">-1</parameter></Acquisition_Parameters_><Instrument_Parameters_Rf><parameter name="HFL">15800.168544</parameter><parameter name="LFL">0</parameter><parameter name="LWN">15800.168544</parameter><parameter name="ABP">32197</parameter><parameter name="SSP">1</parameter><parameter name="ARG">2</parameter><parameter name="ASG">2</parameter><parameter name="ASS">32</parameter><parameter name="GFW">16</parameter><parameter name="GBW">16</parameter><parameter name="BFW">0</parameter><parameter name="BBW">0</parameter><parameter name="PKA">7310</parameter><parameter name="PKL">4990</parameter><parameter name="PRA">7481</parameter><parameter name="PRL">5001</parameter><parameter name="P2A">1</parameter><parameter name="P2L">1</parameter><parameter name="P2R">1</parameter><parameter name="P2K">1</parameter><parameter name="DAQ">0</parameter><parameter name="AG2">1</parameter><parameter name="SSM">1</parameter><parameter name="RSN">25913</parameter><parameter name="CRR">0</parameter><parameter name="SRT">1654083248.464</parameter><parameter name="DUR">19.6389923095703</parameter><parameter name="TSC">29</parameter><parameter name="MVD">0.253387749195099</parameter><parameter name="AN1">0.225768373912864</parameter><parameter name="AN2">0</parameter><parameter name="VSN">2.485 Apr  4 2017</parameter><parameter name="SRN">0085</parameter><parameter name="CAM">0</parameter><parameter name="INS">IR-Biotyper</parameter><parameter name="FOC">69</parameter><parameter name="RDY">1</parameter><parameter name="ARS">32</parameter></Instrument_Parameters_Rf><Sample_Parameters_><parameter name="BLD"></parameter><parameter name="CNM">Admin</parameter><parameter name="CPY"></parameter><parameter name="DPM"></parameter><parameter name="EXP">IRBT_v3_32Scans.XPM</parameter><parameter name="LCT"></parameter><parameter name="SFM">Microplate, HTS-XT</parameter><parameter name="SNM">220601-1028(v.3)_RTF49M (D_10)_G5_35d305ef-4e58-4e9c-bb0e-c08c5380c3ca.0</parameter><parameter name="XPP">C:\Users\Public\Documents\Bruker\OPUS_8.2.28\XPM</parameter><parameter name="IST">OK</parameter><parameter name="CPG">1252</parameter><parameter name="UID">4d9a7fb3-b957-4af7-bef3-acf6801eb3f5</parameter></Sample_Parameters_><Instrument_Parameters_><parameter name="HFL">15800.168544</parameter><parameter name="LFL">0</parameter><parameter name="LWN">15800.168544</parameter><parameter name="ABP">32197</parameter><parameter name="SSP">1</parameter><parameter name="ASG">2</parameter><parameter name="ARG">2</parameter><parameter name="ASS">32</parameter><parameter name="GFW">16</parameter><parameter name="GBW">16</parameter><parameter name="BFW">0</parameter><parameter name="BBW">0</parameter><parameter name="PKA">7741</parameter><parameter name="PKL">4988</parameter><parameter name="PRA">7968</parameter><parameter name="PRL">4993</parameter><parameter name="P2A">1</parameter><parameter name="P2L">1</parameter><parameter name="P2R">1</parameter><parameter name="P2K">1</parameter><parameter name="DAQ">0</parameter><parameter name="AG2">1</parameter><parameter name="SSM">1</parameter><parameter name="RSN">13582</parameter><parameter name="CRR">0</parameter><parameter name="SRT">1654083274.318</parameter><parameter name="DUR">19.6389923095703</parameter><parameter name="TSC">29</parameter><parameter name="MVD">0.542693078517914</parameter><parameter name="AN1">0.225803296147609</parameter><parameter name="AN2">0</parameter><parameter name="VSN">2.485 Apr  4 2017</parameter><parameter name="SRN">0085</parameter><parameter name="CAM">0</parameter><parameter name="INS">IR-Biotyper</parameter><parameter name="FOC">69</parameter><parameter name="RDY">1</parameter></Instrument_Parameters_><History/></OPUSDataFile>
