<?xml version="1.0" encoding="UTF-8" ?>
<OPUSDataFile><AB><Ydata ylabel="Absorbance Units"><values byteorder="INTEL" format="FLOAT32" numvalues="3497"> -0.04902691 -0.04897349 -0.04892448 -0.04887934 -0.04884696 -0.04882777 -0.04881725 -0.0488148 -0.04881176 -0.04880784
 -0.04879694 -0.04877914 -0.0487512 -0.04871381 -0.04866595 -0.04861086 -0.04855239 -0.0484955 -0.04844785 -0.04841037
 -0.04838783 -0.0483741 -0.04836771 -0.04836181 -0.04835225 -0.04834117 -0.04832728 -0.04831954 -0.04831969 -0.04833017
 -0.04835218 -0.04837407 -0.04839525 -0.04840038 -0.0483896 -0.04836044 -0.04831508 -0.04826505 -0.04821179 -0.048167
 -0.04812935 -0.04810132 -0.04808168 -0.04806915 -0.04806401 -0.04806669 -0.04807575 -0.04809142 -0.04810838 -0.04812427
 -0.04813398 -0.04813458 -0.04812569 -0.048106 -0.0480798 -0.04804706 -0.04801528 -0.04798499 -0.04796446 -0.04795419
 -0.04795657 -0.04797081 -0.04798707 -0.04800394 -0.04800657 -0.04799681 -0.04797209 -0.04793775 -0.04790572 -0.04787845
 -0.04786692 -0.04786676 -0.04787849 -0.04789389 -0.04790699 -0.04791105 -0.04790036 -0.04787329 -0.04782673 -0.0477665
 -0.04769233 -0.04761549 -0.04753747 -0.04746816 -0.04740869 -0.04736459 -0.04733619 -0.04732842 -0.04734118 -0.04737598
 -0.04743011 -0.04748932 -0.04754794 -0.04757528 -0.0475733 -0.04752728 -0.04745179 -0.04736478 -0.04727667 -0.04720902
 -0.04715893 -0.04713272 -0.04712003 -0.04711758 -0.04711482 -0.04710635 -0.04708927 -0.0470604 -0.04702757 -0.04699093
 -0.0469624 -0.04694364 -0.0469363 -0.04694064 -0.04694506 -0.04694939 -0.04694819 -0.04694344 -0.04694585 -0.04695558
 -0.04698149 -0.04701683 -0.04705035 -0.04707425 -0.04706648 -0.04703379 -0.04697192 -0.0468992 -0.04683132 -0.04677314
 -0.04673428 -0.04670472 -0.04668124 -0.04666252 -0.04664521 -0.0466435 -0.04665963 -0.04670237 -0.04677491 -0.04685599
 -0.04694489 -0.04697981 -0.0469598 -0.04685484 -0.04667656 -0.04648735 -0.04629336 -0.0461527 -0.04605837 -0.04602311
 -0.04603593 -0.04608747 -0.04616004 -0.04623117 -0.04628291 -0.04628894 -0.04625444 -0.04616841 -0.04606467 -0.04595388
 -0.04585975 -0.04579404 -0.04574854 -0.04572424 -0.04570703 -0.0456948 -0.04568845 -0.0456879 -0.04569821 -0.04571881
 -0.04574168 -0.04576494 -0.0457711 -0.04576138 -0.04572932 -0.04568104 -0.04562967 -0.04557719 -0.04553497 -0.04549721
 -0.04546028 -0.04542252 -0.0453787 -0.04533738 -0.04530073 -0.04527995 -0.04528067 -0.0453063 -0.04536111 -0.04543344
 -0.04552374 -0.04560935 -0.0456884 -0.04573942 -0.04576098 -0.04574184 -0.04568226 -0.0455845 -0.04545061 -0.04529407
 -0.045118 -0.04494068 -0.04476552 -0.04461037 -0.04447655 -0.0443754 -0.04430389 -0.04426397 -0.04424893 -0.04425434
 -0.04427366 -0.04430194 -0.04433559 -0.04437272 -0.04440908 -0.04444443 -0.04446952 -0.04448298 -0.04447639 -0.04444823
 -0.04439915 -0.04432899 -0.0442472 -0.04415474 -0.04406793 -0.04398823 -0.04393426 -0.04390522 -0.04390964 -0.04394235
 -0.04399564 -0.04406276 -0.04412858 -0.04418865 -0.04423004 -0.04425567 -0.04426029 -0.04425894 -0.04425724 -0.04427231
 -0.04431511 -0.04438308 -0.04448226 -0.04458268 -0.04468156 -0.04474502 -0.04476798 -0.04474332 -0.04467016 -0.04455215
 -0.04438997 -0.04419238 -0.04396431 -0.04374383 -0.04353614 -0.04338511 -0.04328602 -0.04325289 -0.04326912 -0.04331423
 -0.04336844 -0.04339338 -0.04339528 -0.04336065 -0.0433184 -0.04328483 -0.04326925 -0.0432841 -0.04331037 -0.04334759
 -0.04336746 -0.04336381 -0.04332528 -0.04324802 -0.04314994 -0.04303165 -0.04292293 -0.04282492 -0.04275852 -0.04272264
 -0.0427222 -0.04275149 -0.04279293 -0.04283652 -0.04284348 -0.0428169 -0.04273853 -0.04263073 -0.04251653 -0.04240606
 -0.04232112 -0.04224788 -0.04218502 -0.04211689 -0.04203249 -0.04194096 -0.04183969 -0.04175413 -0.04168998 -0.04165441
 -0.04165087 -0.04165811 -0.04167529 -0.04166982 -0.04164087 -0.04157263 -0.04146912 -0.04135158 -0.04122476 -0.04112096
 -0.04103789 -0.04098596 -0.04096097 -0.04096017 -0.04098028 -0.04101769 -0.0410653 -0.04111825 -0.04116338 -0.04119201
 -0.04119391 -0.04116136 -0.04109595 -0.04099578 -0.04086825 -0.04071384 -0.0405418 -0.0403528 -0.0401576 -0.03995689
 -0.03976035 -0.03956868 -0.03939408 -0.03923763 -0.03911425 -0.03902245 -0.0389661 -0.03893837 -0.03892252 -0.03891433
 -0.03889547 -0.03887249 -0.03884731 -0.03882352 -0.03881117 -0.03879144 -0.03875727 -0.03868864 -0.03856811 -0.03841671
 -0.03823449 -0.03805293 -0.03787987 -0.0377214 -0.03757994 -0.03744723 -0.03732279 -0.03720265 -0.03708713 -0.03698412
 -0.03689418 -0.03682708 -0.03677909 -0.03674261 -0.03670755 -0.03664079 -0.0365398 -0.03637735 -0.03617473 -0.03594821
 -0.03571633 -0.0355056 -0.03531203 -0.03514149 -0.03498433 -0.03483639 -0.03469678 -0.03456366 -0.03444166 -0.03433213
 -0.03423348 -0.03414633 -0.03406184 -0.03397947 -0.03389098 -0.03379626 -0.03369477 -0.03358718 -0.03347885 -0.03336927
 -0.03325931 -0.03314727 -0.03302822 -0.03290259 -0.03276808 -0.03262776 -0.03248513 -0.03234127 -0.03219924 -0.03205647
 -0.03191279 -0.03176412 -0.0316095 -0.03144281 -0.03126238 -0.03106245 -0.03083923 -0.0306057 -0.03036074 -0.03013982
 -0.02994556 -0.02979778 -0.0296961 -0.02962404 -0.02957897 -0.02953282 -0.02948494 -0.02941728 -0.02933164 -0.02922286
 -0.02909487 -0.02895151 -0.02879896 -0.02864697 -0.02849958 -0.02836599 -0.02824092 -0.02812559 -0.02800805 -0.02788189
 -0.02774576 -0.02759585 -0.02744426 -0.02729336 -0.02714787 -0.0270097 -0.02686934 -0.02672627 -0.02657153 -0.02640516
 -0.02623236 -0.02605433 -0.02588397 -0.02572019 -0.02556567 -0.0254169 -0.02526421 -0.02510789 -0.02494176 -0.02477306
 -0.02460874 -0.02445504 -0.02432246 -0.02420679 -0.02411019 -0.02402165 -0.02393652 -0.02384869 -0.02375424 -0.02365643
 -0.02355501 -0.02345522 -0.02335824 -0.02326154 -0.02316522 -0.02306023 -0.02294631 -0.0228193 -0.02268038 -0.02253722
 -0.02239139 -0.02225493 -0.02212661 -0.0220102 -0.02190134 -0.02179321 -0.02168289 -0.02156196 -0.02143399 -0.0212983
 -0.02116186 -0.0210302 -0.02090345 -0.02078506 -0.02066537 -0.02054193 -0.02040859 -0.02026196 -0.02011054 -0.01995437
 -0.01980702 -0.01966973 -0.01954547 -0.0194341 -0.01932842 -0.01922815 -0.01912762 -0.01902765 -0.01892894 -0.0188325
 -0.01874235 -0.01865732 -0.01857809 -0.01850039 -0.01841861 -0.01832978 -0.01822756 -0.01811563 -0.01799359 -0.01786818
 -0.01774338 -0.01761919 -0.01749705 -0.01737244 -0.01724382 -0.01711372 -0.01698183 -0.01685566 -0.01673599 -0.01662125
 -0.01651113 -0.01639577 -0.01627561 -0.01614922 -0.01601958 -0.01590025 -0.01579257 -0.01570949 -0.01564584 -0.01559853
 -0.01555984 -0.01551593 -0.01546719 -0.0154068 -0.01534423 -0.0152848 -0.01523179 -0.01519107 -0.01515065 -0.01510844
 -0.01505289 -0.01497961 -0.01489289 -0.0147921 -0.0146885 -0.01458307 -0.01447909 -0.01437663 -0.01427496 -0.01417419
 -0.0140758 -0.0139791 -0.01388195 -0.01378287 -0.01367471 -0.01356054 -0.0134416 -0.01332508 -0.01322292 -0.01313596
 -0.01307227 -0.0130213 -0.01297899 -0.01293504 -0.01288147 -0.01282172 -0.0127537 -0.01268932 -0.01263149 -0.01258344
 -0.01254708 -0.01251225 -0.01247839 -0.01243506 -0.01238201 -0.01232077 -0.01225224 -0.01218574 -0.01212107 -0.01206245
 -0.01200842 -0.01195637 -0.01190619 -0.01185637 -0.01180739 -0.0117606 -0.01171265 -0.01166185 -0.01160188 -0.01152692
 -0.01143662 -0.01132689 -0.0112089 -0.0110843 -0.01096662 -0.01085977 -0.01076712 -0.01069034 -0.01062302 -0.01056464
 -0.01051281 -0.01046765 -0.01043725 -0.01042206 -0.01043065 -0.01046094 -0.01050852 -0.01056879 -0.01062573 -0.01067561
 -0.01070234 -0.01070647 -0.01068047 -0.01063069 -0.01055904 -0.01047619 -0.0103899 -0.01030733 -0.01023555 -0.01017051
 -0.01011325 -0.01005492 -0.009992287 -0.009928719 -0.009862875 -0.009811784 -0.009776839 -0.009768199 -0.009785959 -0.009818468
 -0.009863958 -0.009900169 -0.009927346 -0.009934072 -0.009923903 -0.009901683 -0.009870813 -0.009841095 -0.009813198 -0.009792823
 -0.009777839 -0.009768696 -0.009761632 -0.009754582 -0.009743574 -0.009726205 -0.009700236 -0.009663999 -0.009618677 -0.009563633
 -0.009503876 -0.009439611 -0.009378091 -0.009319857 -0.009271225 -0.009232495 -0.009207253 -0.009195376 -0.00919747 -0.009212647
 -0.009237579 -0.009269984 -0.009301379 -0.00932926 -0.009343404 -0.009344847 -0.009329074 -0.009302679 -0.009269775 -0.009238509
 -0.009216841 -0.009206072 -0.009211049 -0.009222157 -0.009238721 -0.009246183 -0.009240949 -0.009215361 -0.009166923 -0.0091006
 -0.009016331 -0.008923819 -0.008823484 -0.008719118 -0.008610879 -0.008500589 -0.00839022 -0.008290483 -0.008204066 -0.008146944
 -0.008116243 -0.008116199 -0.00813638 -0.008163294 -0.008188724 -0.008196223 -0.008191402 -0.008169984 -0.008149445 -0.008136873
 -0.008145859 -0.008184678 -0.008249749 -0.008344143 -0.008448149 -0.008560094 -0.008659041 -0.008742567 -0.008806348 -0.008850357
 -0.008889261 -0.008923952 -0.008970123 -0.009025767 -0.009089381 -0.009156844 -0.00921324 -0.009258043 -0.009280945 -0.009288117
 -0.009283074 -0.009274918 -0.009274271 -0.009287541 -0.009323332 -0.009381878 -0.009466759 -0.009571515 -0.009695857 -0.009829456
 -0.009970533 -0.01010889 -0.01024307 -0.01036452 -0.01047227 -0.01056215 -0.01063406 -0.01069417 -0.01074357 -0.01079687
 -0.01085353 -0.01091979 -0.01099131 -0.01105663 -0.01111355 -0.01114856 -0.0111696 -0.01118109 -0.01119526 -0.01122885
 -0.01128267 -0.01136613 -0.01146475 -0.01157531 -0.01168026 -0.01177244 -0.01184349 -0.01188881 -0.01191319 -0.01191519
 -0.01191231 -0.01190541 -0.01191712 -0.01194853 -0.0120104 -0.01210142 -0.01221105 -0.0123367 -0.01245854 -0.01257667
 -0.01268039 -0.0127726 -0.01285485 -0.01292874 -0.01299824 -0.01306169 -0.01311854 -0.01316801 -0.0132082 -0.0132427
 -0.01327221 -0.01330194 -0.01333424 -0.01337029 -0.01341108 -0.01345487 -0.01350132 -0.01355085 -0.01360337 -0.01366134
 -0.01372485 -0.01379238 -0.01386332 -0.01393028 -0.01399269 -0.01404299 -0.01408228 -0.01410946 -0.01412773 -0.01414293
 -0.01415927 -0.01418573 -0.0142251 -0.01428468 -0.0143625 -0.0144616 -0.014572 -0.01469133 -0.01480479 -0.01490627
 -0.01498848 -0.01504635 -0.01509043 -0.01512039 -0.01515572 -0.01519852 -0.01525669 -0.01533062 -0.01541016 -0.01549453
 -0.0155709 -0.01564018 -0.01570078 -0.01575444 -0.01580679 -0.01585746 -0.01590881 -0.01595853 -0.01600385 -0.01604341
 -0.01607376 -0.01609714 -0.01611338 -0.0161272 -0.01614136 -0.01615751 -0.01617797 -0.01619765 -0.01621574 -0.01622816
 -0.0162329 -0.01623813 -0.01624376 -0.01626708 -0.01630897 -0.01637813 -0.01647318 -0.01658061 -0.01669685 -0.01679358
 -0.01687077 -0.01691011 -0.01692089 -0.01691326 -0.01690074 -0.01691158 -0.0169475 -0.01702604 -0.01712964 -0.01725253
 -0.0173735 -0.01747722 -0.01756171 -0.01762041 -0.01766727 -0.01770552 -0.01773987 -0.0177733 -0.01779232 -0.01779595
 -0.01777289 -0.01772254 -0.01765617 -0.01757578 -0.01750985 -0.01745951 -0.01744766 -0.01747027 -0.01752755 -0.01761063
 -0.01769938 -0.01778679 -0.01785023 -0.0178939 -0.01791085 -0.01791598 -0.01791888 -0.0179293 -0.0179584 -0.01799723
 -0.01804652 -0.01809071 -0.01812412 -0.01814807 -0.01816017 -0.01817825 -0.01820405 -0.01824684 -0.01830721 -0.0183742
 -0.01844679 -0.01850842 -0.01855917 -0.01859116 -0.01860512 -0.01859901 -0.01857407 -0.01853047 -0.01847344 -0.01840973
 -0.01834827 -0.01830198 -0.01827577 -0.01827946 -0.01830841 -0.01836398 -0.01843667 -0.01852386 -0.01861678 -0.0187138
 -0.01880432 -0.01888719 -0.01894923 -0.01898867 -0.01900153 -0.01898745 -0.01896414 -0.01893338 -0.01892448 -0.01893708
 -0.01898568 -0.01906458 -0.01916198 -0.01927097 -0.01936826 -0.01945284 -0.0195109 -0.01954884 -0.01956737 -0.01957632
 -0.01958368 -0.01959589 -0.01962037 -0.01965315 -0.0196968 -0.01973617 -0.01976826 -0.01978032 -0.01976785 -0.01973876
 -0.01969188 -0.01965649 -0.01963419 -0.01965043 -0.01970451 -0.019793 -0.01991156 -0.02003151 -0.02015062 -0.02024382
 -0.02031574 -0.02036447 -0.02039649 -0.02042325 -0.02044453 -0.02046563 -0.02048146 -0.02048838 -0.0204867 -0.02047384
 -0.02045759 -0.02044078 -0.02042696 -0.02041916 -0.02040966 -0.02039798 -0.02037493 -0.02033883 -0.02029338 -0.02023864
 -0.02019026 -0.02014892 -0.02012769 -0.02012568 -0.02014419 -0.02018133 -0.02023127 -0.02029211 -0.02035739 -0.02042342
 -0.02048234 -0.02052844 -0.02055138 -0.02054975 -0.02051657 -0.02046057 -0.02038286 -0.0202974 -0.02020986 -0.02012846
 -0.02005719 -0.01999514 -0.01994315 -0.01989652 -0.01985512 -0.01981263 -0.01976873 -0.0197128 -0.01964422 -0.01955142
 -0.01943498 -0.01929162 -0.0191248 -0.01894489 -0.01875658 -0.01857684 -0.01840763 -0.01826121 -0.01813385 -0.01802713
 -0.01793359 -0.01784779 -0.01776402 -0.01767661 -0.01758655 -0.01749216 -0.01739882 -0.01730764 -0.01722231 -0.01714375
 -0.01707289 -0.01700978 -0.01695668 -0.01691374 -0.01688378 -0.01686658 -0.01685903 -0.01686026 -0.01686246 -0.0168663
 -0.01686981 -0.01687516 -0.01688805 -0.01690707 -0.01693428 -0.01696266 -0.01698458 -0.01699482 -0.0169845 -0.01695792
 -0.01691363 -0.01686146 -0.01680533 -0.01675006 -0.01669864 -0.01664763 -0.01659719 -0.01654148 -0.01647962 -0.01641093
 -0.01633522 -0.01626033 -0.01618693 -0.01612726 -0.01608139 -0.01605657 -0.01605095 -0.01606132 -0.01608571 -0.01611698
 -0.01615546 -0.01619813 -0.01624693 -0.01630288 -0.01636806 -0.01644335 -0.01653402 -0.01664167 -0.01677607 -0.01694168
 -0.01714382 -0.01738732 -0.01766066 -0.01796494 -0.01827328 -0.01858343 -0.01887021 -0.01913182 -0.01935954 -0.01955385
 -0.01972245 -0.01986644 -0.01999727 -0.02011453 -0.02022272 -0.02032077 -0.0204071 -0.02048377 -0.02055251 -0.02061846
 -0.02068949 -0.02076633 -0.02085502 -0.02094553 -0.02103531 -0.02111069 -0.02116428 -0.02119358 -0.02119443 -0.02117849
 -0.02114655 -0.02111249 -0.02107834 -0.02104765 -0.02102089 -0.02099143 -0.02095897 -0.02091756 -0.02086831 -0.02081554
 -0.02076197 -0.02072082 -0.02069363 -0.02069212 -0.02071393 -0.02076168 -0.02082882 -0.02090977 -0.02099513 -0.02107567
 -0.02114332 -0.02118951 -0.02121509 -0.0212162 -0.02120497 -0.02118327 -0.02116391 -0.02115036 -0.02114367 -0.02114466
 -0.0211479 -0.02115291 -0.02116485 -0.02118476 -0.02123261 -0.02130918 -0.02143146 -0.02159547 -0.0217964 -0.0220255
 -0.02225786 -0.02248646 -0.0226854 -0.02285694 -0.02299117 -0.02309938 -0.02318732 -0.02326595 -0.02334457 -0.02342512
 -0.0235118 -0.02359845 -0.02368451 -0.02376327 -0.02383328 -0.02389139 -0.02393684 -0.02397041 -0.023992 -0.02400677
 -0.02401521 -0.0240262 -0.02404017 -0.02406535 -0.02410043 -0.02414544 -0.02419661 -0.02424399 -0.02428475 -0.02430761
 -0.02431569 -0.02430679 -0.02428917 -0.02426913 -0.02425323 -0.02424841 -0.02425344 -0.02427042 -0.02429307 -0.02432054
 -0.02434559 -0.02436675 -0.02437935 -0.02438237 -0.02437675 -0.02436235 -0.02434702 -0.02433118 -0.02432283 -0.02432151
 -0.02432769 -0.02434032 -0.0243548 -0.02437172 -0.02439021 -0.02441167 -0.02443938 -0.02447139 -0.02450781 -0.02454283
 -0.02457124 -0.02458932 -0.02459204 -0.02458245 -0.02455968 -0.02453073 -0.02449725 -0.02446494 -0.02443515 -0.024411
 -0.02439317 -0.02438142 -0.02437587 -0.02437215 -0.02437001 -0.02436436 -0.02435566 -0.02434453 -0.02433243 -0.02432609
 -0.02432587 -0.0243371 -0.02435709 -0.02438394 -0.02441343 -0.02443929 -0.02445873 -0.02446683 -0.02446338 -0.02444647
 -0.0244182 -0.02437823 -0.0243316 -0.02427877 -0.0242279 -0.02418039 -0.02414318 -0.02411768 -0.0241033 -0.02410027
 -0.02410063 -0.02410406 -0.02410443 -0.02410235 -0.02409965 -0.02409737 -0.02410146 -0.02411132 -0.02412879 -0.02415184
 -0.02417779 -0.0242042 -0.02422713 -0.02424404 -0.02425131 -0.02424748 -0.02422936 -0.02420111 -0.02416205 -0.02412282
 -0.02408601 -0.02406094 -0.02405071 -0.02405456 -0.02407343 -0.02409815 -0.02412816 -0.0241563 -0.02418241 -0.02420562
 -0.0242259 -0.02424286 -0.02425559 -0.02425941 -0.02425429 -0.02423655 -0.02420959 -0.02417748 -0.02414494 -0.02412087
 -0.02410533 -0.02410292 -0.02410788 -0.02411808 -0.02412825 -0.02413475 -0.02413831 -0.02413821 -0.02413711 -0.02413603
 -0.02413251 -0.02412664 -0.0241133 -0.02409198 -0.02406348 -0.02402813 -0.02399408 -0.02396154 -0.02393629 -0.02391696
 -0.02390046 -0.02388572 -0.02386704 -0.02384651 -0.02382504 -0.02380593 -0.02379487 -0.02379148 -0.02379847 -0.02381131
 -0.02382783 -0.02384489 -0.02385996 -0.02387417 -0.02388732 -0.02390097 -0.02391592 -0.02392962 -0.02394217 -0.02394776
 -0.02394592 -0.02393391 -0.02391182 -0.02388417 -0.02385165 -0.02382233 -0.02379595 -0.02377605 -0.02376115 -0.02374838
 -0.02373776 -0.02372719 -0.02371937 -0.02371757 -0.02372251 -0.02373803 -0.02375756 -0.02377922 -0.02379338 -0.02379446
 -0.02378006 -0.02374665 -0.02370254 -0.0236481 -0.02359451 -0.02354332 -0.02350084 -0.02346777 -0.02344469 -0.02343152
 -0.02342549 -0.02342633 -0.02343043 -0.02343785 -0.02344684 -0.02345788 -0.02347181 -0.02348817 -0.0235072 -0.02352647
 -0.02354313 -0.02355415 -0.02355512 -0.02354596 -0.02352411 -0.02349459 -0.02345771 -0.0234227 -0.02339208 -0.02337377
 -0.02337077 -0.02338136 -0.02340678 -0.02343375 -0.02346154 -0.0234759 -0.02347639 -0.02345937 -0.02342594 -0.02338397
 -0.023335 -0.02329048 -0.02325056 -0.02322239 -0.02320347 -0.02319288 -0.02318639 -0.02317711 -0.02316402 -0.0231421
 -0.02311674 -0.02308942 -0.0230667 -0.02305304 -0.02304761 -0.02305203 -0.02305991 -0.02307013 -0.02307868 -0.02308477
 -0.02308748 -0.02308675 -0.02308055 -0.02306881 -0.02305045 -0.02302593 -0.02299884 -0.02296987 -0.02294432 -0.02292214
 -0.02290609 -0.02289529 -0.02288945 -0.02288751 -0.02288824 -0.02288983 -0.02289033 -0.02288789 -0.02288059 -0.02286782
 -0.02284856 -0.02282396 -0.02279399 -0.02276051 -0.02272361 -0.0226863 -0.02264864 -0.02261606 -0.02258891 -0.0225732
 -0.02256916 -0.02257854 -0.02260064 -0.02263001 -0.02266509 -0.02269557 -0.02272044 -0.02273069 -0.02272766 -0.02270893
 -0.02267832 -0.02263992 -0.02259754 -0.02255686 -0.02251849 -0.02248522 -0.02245408 -0.02242439 -0.02239353 -0.02235984
 -0.0223251 -0.0222888 -0.02225656 -0.02222917 -0.02220995 -0.02219948 -0.02219411 -0.02219359 -0.02219064 -0.02218541
 -0.02217599 -0.02216378 -0.02215483 -0.02214967 -0.02215428 -0.02216561 -0.0221807 -0.02219545 -0.02220184 -0.02219987
 -0.02218565 -0.02216323 -0.02213412 -0.0221018 -0.02206824 -0.02203544 -0.02200391 -0.02197727 -0.02195612 -0.02194474
 -0.02194421 -0.02195338 -0.02197256 -0.02199379 -0.02201662 -0.02203139 -0.02203801 -0.02203141 -0.02201277 -0.0219848
 -0.0219494 -0.0219141 -0.02187952 -0.02185104 -0.02182725 -0.02180825 -0.02179293 -0.02177976 -0.02176935 -0.02176213
 -0.02175708 -0.02175464 -0.02175075 -0.02174395 -0.0217325 -0.02171477 -0.02169648 -0.02167795 -0.0216661 -0.02166181
 -0.02166368 -0.02167148 -0.02167521 -0.02167444 -0.02166067 -0.02163506 -0.02159818 -0.02155305 -0.02150921 -0.02146924
 -0.02144404 -0.02143237 -0.02143883 -0.02145631 -0.0214806 -0.02150194 -0.02151154 -0.02150576 -0.02147877 -0.02143747
 -0.02138184 -0.02132293 -0.02126333 -0.02120926 -0.02116212 -0.02112345 -0.02109348 -0.02107344 -0.02106338 -0.02106293
 -0.02107151 -0.02108307 -0.02109682 -0.02110499 -0.02110838 -0.02110519 -0.02109706 -0.02108718 -0.02107531 -0.02106286
 -0.02104815 -0.02102937 -0.02100723 -0.02098077 -0.02095389 -0.02092844 -0.02090639 -0.02088957 -0.02087509 -0.02086281
 -0.02084892 -0.02083254 -0.02081416 -0.02079358 -0.02077468 -0.02075761 -0.02074418 -0.02073418 -0.02072569 -0.02071857
 -0.02071099 -0.02070334 -0.02069612 -0.0206893 -0.02068345 -0.02067741 -0.0206697 -0.02065934 -0.02064436 -0.02062555
 -0.02060247 -0.02057746 -0.02055164 -0.02052628 -0.02050251 -0.02047868 -0.02045497 -0.02042776 -0.02039636 -0.02035984
 -0.02031778 -0.02027486 -0.0202314 -0.02019606 -0.02016917 -0.02015735 -0.02015989 -0.02017706 -0.02020697 -0.02024378
 -0.02028572 -0.02032568 -0.02036396 -0.02039722 -0.02042851 -0.02045929 -0.02049371 -0.02053559 -0.02058638 -0.02064856
 -0.0207192 -0.02079836 -0.020881 -0.0209662 -0.0210494 -0.02113014 -0.02120274 -0.02126682 -0.02131524 -0.02134768
 -0.02136549 -0.02137045 -0.02138347 -0.02140575 -0.02145885 -0.02153417 -0.0216182 -0.02169429 -0.0217149 -0.02167962
 -0.02155873 -0.02138131 -0.0211647 -0.02094071 -0.02073956 -0.02057509 -0.02046328 -0.02040338 -0.02040134 -0.02044068
 -0.02052314 -0.02060904 -0.02069377 -0.02073957 -0.02074065 -0.02070809 -0.02064244 -0.0205772 -0.02051228 -0.02045638
 -0.02040745 -0.02035827 -0.02030835 -0.02025276 -0.02019124 -0.02012033 -0.02004132 -0.0199531 -0.01986157 -0.01977188
 -0.01969097 -0.01962661 -0.01957927 -0.01955283 -0.01953969 -0.01953872 -0.01954098 -0.01954385 -0.01954392 -0.01954019
 -0.01953235 -0.01952046 -0.01950141 -0.01947503 -0.01943488 -0.01938108 -0.01931211 -0.01922959 -0.01914151 -0.01904974
 -0.01896529 -0.01888807 -0.01882368 -0.01877038 -0.01872793 -0.01869467 -0.01866887 -0.01864883 -0.0186333 -0.01861936
 -0.01860533 -0.01858879 -0.0185679 -0.01854415 -0.018517 -0.01849132 -0.01846801 -0.01844864 -0.01843382 -0.0184183
 -0.01840183 -0.01837706 -0.01834419 -0.01830317 -0.01825571 -0.01821149 -0.01817215 -0.01814952 -0.01814174 -0.01815205
 -0.01817383 -0.0181985 -0.01821949 -0.01822501 -0.01821542 -0.01818561 -0.01814313 -0.01809016 -0.01803421 -0.01797859
 -0.01792698 -0.01788061 -0.01784253 -0.01781344 -0.01779485 -0.01778741 -0.01778505 -0.01778745 -0.01778416 -0.01777525
 -0.01775871 -0.01773611 -0.01771606 -0.01769861 -0.01768964 -0.01768567 -0.01768134 -0.01767412 -0.01765587 -0.01763036
 -0.01759739 -0.0175646 -0.01753838 -0.01752185 -0.01752035 -0.01752699 -0.01754189 -0.01755265 -0.01755611 -0.01754489
 -0.01751642 -0.01747461 -0.01741905 -0.01736148 -0.01730254 -0.01725235 -0.01721092 -0.01718098 -0.01716164 -0.01714928
 -0.01714302 -0.01713794 -0.01713376 -0.01712772 -0.01711917 -0.01710608 -0.01708733 -0.01706028 -0.01702616 -0.0169838
 -0.01693876 -0.01689327 -0.01685301 -0.01682134 -0.01679792 -0.01678386 -0.01677471 -0.01676985 -0.01676669 -0.01676486
 -0.0167637 -0.01676315 -0.01676082 -0.01675657 -0.01674759 -0.01673425 -0.01671704 -0.0166968 -0.01667699 -0.01665775
 -0.01664142 -0.01662694 -0.01661376 -0.01660049 -0.0165852 -0.01656751 -0.01654622 -0.0165222 -0.01649547 -0.01646727
 -0.01643799 -0.01640877 -0.01637975 -0.01635285 -0.01632832 -0.0163083 -0.01629318 -0.01628204 -0.01627485 -0.01626789
 -0.01626111 -0.01625277 -0.0162434 -0.01623544 -0.01622904 -0.01622643 -0.01622639 -0.01622726 -0.01622746 -0.01622343
 -0.01621478 -0.01619938 -0.01617817 -0.01615104 -0.01611947 -0.01608396 -0.01604661 -0.01600789 -0.0159711 -0.01593681
 -0.01590914 -0.015889 -0.01587788 -0.01587637 -0.0158802 -0.01588918 -0.01589487 -0.015897 -0.01588986 -0.01587404
 -0.01585025 -0.01581954 -0.01578629 -0.01575079 -0.01571599 -0.01568157 -0.01564802 -0.01561574 -0.015585 -0.01555729
 -0.01553406 -0.01551575 -0.01550369 -0.01549523 -0.01549011 -0.01548424 -0.01547618 -0.01546524 -0.01545068 -0.01543568
 -0.0154205 -0.0154072 -0.01539596 -0.01538494 -0.01537409 -0.01536172 -0.01534839 -0.01533692 -0.01532788 -0.01532556
 -0.01532879 -0.01533754 -0.01534889 -0.01535787 -0.01536231 -0.01535715 -0.01534311 -0.01531847 -0.01528646 -0.015248
 -0.01520708 -0.01516536 -0.01512548 -0.01508853 -0.01505533 -0.01502629 -0.01500088 -0.01497915 -0.01495991 -0.01494309
 -0.01492683 -0.0149111 -0.01489504 -0.01487919 -0.01486641 -0.01485751 -0.01485774 -0.01486605 -0.01488351 -0.01490632
 -0.01492843 -0.01494689 -0.01495469 -0.01495378 -0.01494288 -0.01492623 -0.01490654 -0.01488438 -0.01486114 -0.01483408
 -0.01480219 -0.01476636 -0.0147258 -0.0146874 -0.01465168 -0.01462529 -0.01460873 -0.01460112 -0.01460202 -0.014604
 -0.01460667 -0.01460345 -0.01459512 -0.01458108 -0.01456265 -0.01454301 -0.01452255 -0.01450338 -0.0144853 -0.01446879
 -0.01445376 -0.01444057 -0.01442826 -0.01441691 -0.01440383 -0.01438798 -0.01436755 -0.01434135 -0.0143113 -0.0142771
 -0.01424381 -0.01421183 -0.01418591 -0.0141664 -0.01415433 -0.01414948 -0.01414817 -0.01414992 -0.01414932 -0.01414668
 -0.0141401 -0.01413071 -0.01412073 -0.01411055 -0.0141024 -0.01409496 -0.01408778 -0.01407883 -0.01406596 -0.01404879
 -0.01402594 -0.01399957 -0.01396981 -0.01394013 -0.01391156 -0.01388596 -0.01386415 -0.01384464 -0.01382745 -0.01381017
 -0.01379263 -0.01377504 -0.01375745 -0.01374135 -0.01372651 -0.01371222 -0.01369791 -0.01368066 -0.01366085 -0.01363735
 -0.01361227 -0.01358865 -0.01356857 -0.0135567 -0.01355154 -0.01355472 -0.01356011 -0.01356512 -0.01356317 -0.01355047
 -0.01352563 -0.01348669 -0.01343813 -0.01337992 -0.01331938 -0.01325703 -0.01320121 -0.01315245 -0.01311834 -0.01309895
 -0.01309612 -0.01310859 -0.01312871 -0.01315458 -0.01317407 -0.01318724 -0.01318725 -0.01317719 -0.0131592 -0.01313663
 -0.01311512 -0.01309502 -0.01307931 -0.013065 -0.01305146 -0.01303501 -0.01301386 -0.01298641 -0.01295132 -0.01291083
 -0.01286462 -0.01281822 -0.01277209 -0.01273141 -0.01269661 -0.01266855 -0.01264712 -0.0126293 -0.01261498 -0.01260155
 -0.01258959 -0.01257992 -0.01257344 -0.01257328 -0.01257914 -0.01259277 -0.01261112 -0.01263196 -0.01265002 -0.01266001
 -0.01265835 -0.01264 -0.01260856 -0.012563 -0.01251255 -0.01245948 -0.01241068 -0.01236828 -0.01233259 -0.0123041
 -0.01228001 -0.01226017 -0.01224171 -0.01222454 -0.01220724 -0.01218988 -0.0121725 -0.01215488 -0.01213636 -0.01211606
 -0.01209093 -0.0120611 -0.01202437 -0.0119839 -0.0119423 -0.01190366 -0.01187329 -0.01185116 -0.01183994 -0.01183445
 -0.01183363 -0.01183159 -0.01182629 -0.0118149 -0.01179613 -0.01177166 -0.01174116 -0.01171063 -0.01168043 -0.01165607
 -0.01163757 -0.01162458 -0.0116166 -0.0116096 -0.01160359 -0.01159637 -0.01158855 -0.01158097 -0.01157331 -0.01156584
 -0.01155677 -0.0115439 -0.01152589 -0.01150001 -0.01146818 -0.01142992 -0.01139014 -0.01135081 -0.01131515 -0.01128521
 -0.01125872 -0.01123589 -0.01121219 -0.01118691 -0.01115918 -0.01112879 -0.01109955 -0.01107167 -0.01104913 -0.01103172
 -0.01102003 -0.01101304 -0.01100703 -0.01100038 -0.01098671 -0.01096504 -0.01092944 -0.01088277 -0.0108252 -0.01076278
 -0.01070117 -0.01064417 -0.01059648 -0.01055712 -0.01052723 -0.01050334 -0.0104846 -0.01046881 -0.01045515 -0.01044428
 -0.01043607 -0.0104325 -0.01043378 -0.01043864 -0.01044681 -0.01045238 -0.01045478 -0.01044655 -0.01042806 -0.01039596
 -0.01035305 -0.01030504 -0.01025531 -0.01021408 -0.01018018 -0.01015724 -0.01014027 -0.01012569 -0.01011052 -0.01009107
 -0.01006863 -0.01004286 -0.01001547 -0.009987454 -0.009957165 -0.00992458 -0.009887259 -0.009844588 -0.009798211 -0.00974807
 -0.009699617 -0.009653124 -0.009613708 -0.009581249 -0.009557402 -0.009541263 -0.009530115 -0.009522405 -0.009512512 -0.009499061
 -0.00947662 -0.009444998 -0.009401066 -0.009347082 -0.009282842 -0.009214236 -0.009144413 -0.0090794 -0.009023524 -0.008976212
 -0.008939188 -0.008905674 -0.008874553 -0.008841162 -0.008804239 -0.008766947 -0.008729343 -0.008696823 -0.008669415 -0.008645506
 -0.008624115 -0.008596108 -0.008561082 -0.008511035 -0.008449112 -0.008379564 -0.008306938 -0.008243167 -0.008188189 -0.008148217
 -0.00811791 -0.008095042 -0.008073233 -0.008047096 -0.008014969 -0.007973841 -0.007927748 -0.007877124 -0.007826252 -0.00777643
 -0.007727902 -0.007681135 -0.007632833 -0.007582729 -0.007529728 -0.007473926 -0.007419417 -0.007366305 -0.007317446 -0.007272192
 -0.0072289 -0.007187274 -0.007145551 -0.007103936 -0.007062688 -0.007020226 -0.006975025 -0.00692422 -0.006864 -0.006794334
 -0.00671355 -0.006624134 -0.006527022 -0.006423119 -0.006312408 -0.00619755 -0.006077967 -0.005963054 -0.005854044 -0.005756861
 -0.005672482 -0.005593092 -0.005518175 -0.005435327 -0.005344737 -0.005242642 -0.005130391 -0.005012857 -0.00488983 -0.004763561
 -0.00463235 -0.004492605 -0.004346323 -0.004193453 -0.004039885 -0.003891868 -0.003751568 -0.003623097 -0.003503964 -0.003394148
 -0.003290902 -0.003193725 -0.003099301 -0.003008116 -0.002910188 -0.002805376 -0.002675117 -0.00251762 -0.002327268 -0.002104647
 -0.001878499 -0.001649786 -0.001440911 -0.001247287 -0.001058199 -0.0008703003 -0.0006668773 -0.0004501212 -0.0002163643 3.093694E-05
 0.0002863507 0.0005536326 0.0008315748 0.001133091 0.001467007 0.001840386 0.002265208 0.002717263 0.003196118 0.003659141
 0.0040955 0.004489498 0.004835504 0.005147922 0.005426801 0.005697607 0.00596191 0.006252343 0.00657077 0.006952346
 0.007390416 0.007877598 0.008394028 0.008869269 0.009304418 0.009661227 0.009965901 0.01024011 0.01050414 0.01078747
 0.011096 0.01144446 0.01182576 0.01224314 0.01267751 0.01312651 0.01356168 0.01397611 0.01435436 0.01469124
 0.01500077 0.0152834 0.01555738 0.01582312 0.01607491 0.01631168 0.01651952 0.01670097 0.01686115 0.01700387
 0.01714637 0.01728404 0.01741744 0.01753636 0.01762136 0.01768007 0.01771057 0.01772881 0.01774848 0.0177685
 0.01779438 0.017812 0.01781727 0.0178032 0.01776646 0.01771092 0.01763623 0.01755003 0.01745269 0.01735412
 0.01725481 0.01716304 0.01707838 0.01699979 0.01692619 0.01685118 0.0167753 0.01669577 0.01661641 0.01654329
 0.01648096 0.01643978 0.01641897 0.01642213 0.01644553 0.01648694 0.01654603 0.01662274 0.01671465 0.01682207
 0.01693762 0.01705868 0.01718707 0.01732179 0.01747411 0.01764527 0.01783604 0.01804625 0.01826202 0.01848325
 0.01870264 0.01892263 0.01915277 0.01939338 0.01965183 0.01992381 0.02020304 0.0204876 0.0207701 0.02105549
 0.02134576 0.02164632 0.02196299 0.02229413 0.02264154 0.02299853 0.02336307 0.02373145 0.02410216 0.02447578
 0.02485264 0.02522974 0.02560719 0.02597581 0.02633517 0.02668053 0.02701248 0.02733634 0.02765135 0.0279577
 0.02825115 0.02851718 0.02875496 0.02895484 0.02911998 0.02925229 0.02935075 0.02941501 0.02944395 0.02943538
 0.02939329 0.02932045 0.02921451 0.02907802 0.02889493 0.02866017 0.02837337 0.0280295 0.0276712 0.02730254
 0.02693889 0.02658064 0.02620047 0.02579811 0.02536052 0.02489163 0.02440555 0.02390532 0.0234122 0.02291755
 0.02242025 0.02189276 0.02128993 0.02060145 0.01977424 0.01888891 0.01798319 0.01713275 0.01640417 0.01576007
 0.01520513 0.0146852 0.01418463 0.01369365 0.01320705 0.01273928 0.01229164 0.01186654 0.01146397 0.01107124
 0.01068833 0.01030959 0.009937523 0.009583003 0.009247218 0.008941659 0.008661638 0.008403026 0.008159891 0.007920465
 0.007683858 0.007444539 0.007203883 0.006962655 0.006717271 0.006467129 0.006205438 0.00592604 0.005642203 0.005352446
 0.00508922 0.004859407 0.004664338 0.004505822 0.004362539 0.004233495 0.004105876 0.003980031 0.003855913 0.003734291
 0.003619392 0.00351103 0.003410338 0.003317759 0.003234013 0.003161628 0.003104585 0.003065385 0.003048687 0.003054251
 0.003083943 0.003134933 0.003206923 0.00329515 0.003398332 0.003511226 0.003631537 0.003760932 0.003897826 0.004057527
 0.004241193 0.004462889 0.004723154 0.00500246 0.005298199 0.005571969 0.005825237 0.006046242 0.006239148 0.006412851
 0.006567616 0.006708179 0.006833861 0.006942897 0.007042569 0.007136722 0.007241652 0.007373179 0.007533301 0.007734708
 0.007945524 0.008156884 0.008347138 0.008505433 0.008645304 0.008765872 0.008891741 0.009025301 0.009180339 0.009357585
 0.009549122 0.009753766 0.009954058 0.01015068 0.01033759 0.01051844 0.01070262 0.0108925 0.01109982 0.01132064
 0.0115541 0.01179572 0.01203818 0.01228525 0.01253723 0.01279844 0.01307289 0.01335652 0.01364922 0.01394511
 0.0142417 0.01454174 0.01484512 0.01515696 0.0154786 0.01580023 0.0161213 0.01641441 0.01667876 0.01689617
 0.01706888 0.01720098 0.01729374 0.01735517 0.01738176 0.01737021 0.01731483 0.01720405 0.01703716 0.01680656
 0.01652057 0.01618192 0.01580133 0.015386 0.014939 0.01446321 0.01395777 0.01342056 0.0128643 0.01228832
 0.01172151 0.0111666 0.01064245 0.0101502 0.009686929 0.009252265 0.008840296 0.008451776 0.008089037 0.007751634
 0.007440427 0.007151818 0.006877717 0.006615578 0.006356438 0.006102978 0.005854066 0.005614806 0.005389962 0.005179025
 0.004985162 0.004798637 0.004617049 0.00443121 0.004237075 0.004037225 0.003830663 0.003627176 0.003427567 0.003239142
 0.003062345 0.002901491 0.00275678 0.002632167 0.002527299 0.002442598 0.002376646 0.002324437 0.002285319 0.002254954
 0.002234186 0.002222676 0.002220785 0.00222955 0.002246818 0.002272105 0.002300836 0.002331007 0.002357431 0.002377684
 0.002389077 0.002389914 0.002382408 0.002366262 0.002346918 0.002325008 0.002302612 0.002279896 0.00225176 0.002217922
 0.002172787 0.002117254 0.002053428 0.00198347 0.001916147 0.001853207 0.001803346 0.001766739 0.001747802 0.001745281
 0.001760046 0.001788934 0.001831044 0.001879602 0.001931319 0.001979422 0.002020111 0.00205217 0.002074063 0.002089118
 0.002097905 0.002101075 0.002098939 0.002088821 0.002070572 0.002043566 0.002007968 0.001965947 0.001917912 0.001866957
 0.001814246 0.00176516 0.001721679 0.001692209 0.001675577 0.001675543 0.00168492 0.001697607 0.001705646 0.001698911
 0.001678852 0.001640931 0.001597933 0.001553123 0.001518328 0.001498716 0.001492369 0.001500919 0.001511946 0.001524329
 0.00152943 0.001526634 0.001517699 0.001502924 0.001487282 0.001470682 0.00145467 0.001439408 0.001425845 0.001415298
 0.001411682 0.001415485 0.001430178 0.001453212 0.001483373 0.001517158 0.001550682 0.001583951 0.001614839 0.001648168
 0.001685189 0.001730076 0.001785138 0.001847273 0.001917358 0.001984368 0.0020474 0.002096494 0.002130942 0.002150901
 0.00215695 0.002158185 0.002155254 0.002157162 0.002163166 0.002175696 0.002192749 0.002210858 0.002227876 0.002238449
 0.002241778 0.002234302 0.002217595 0.002190982 0.002158655 0.00212251 0.002086492 0.002052991 0.002022204 0.001995008
 0.001968808 0.001943351 0.001916251 0.001887231 0.001854915 0.001819221 0.001777696 0.001730288 0.00167542 0.001613809
 0.001548972 0.001482412 0.001421986 0.001368091 0.001326397 0.001294786 0.001272733 0.001256705 0.001242197 0.001226975
 0.001207271 0.001183574 0.001155045 0.001122975 0.001088266 0.001049282 0.001006097 0.0009553862 0.0008960696 0.0008296337
 0.0007555221 0.0006828968 0.0006122459 0.0005535234 0.0005068983 0.0004760902 0.0004602959 0.0004562496 0.000462768 0.0004735055
 0.0004879934 0.0005012688 0.0005148841 0.0005287361 0.0005458855 0.0005704834 0.0006032047 0.0006474467 0.0006982358 0.0007545009
 0.0008091175 0.0008583994 0.0009006253 0.0009333117 0.0009635005 0.0009913895 0.001027394 0.001072834 0.001132625 0.001207266
 0.001292423 0.001387678 0.001485409 0.001585491 0.001683432 0.001779468 0.001872236 0.001961726 0.002046988 0.002128498
 0.002206296 0.002281837 0.002357102 0.002432592 0.002509947 0.002587406 0.002664736 0.002739214 0.002809624 0.002874557
 0.002933144 0.002986126 0.003033236 0.003077148 0.003118031 0.003158944 0.003200095 0.003243275 0.003288593 0.003337788
 0.003391201 0.003452063 0.003520697 0.003600497 0.003690741 0.003791824 0.003901607 0.004017144 0.00413494 0.004249707
 0.004358489 0.004456276 0.004543982 0.004619864 0.004688674 0.004751822 0.004813201 0.004874358 0.004936204 0.004998793
 0.005064806 0.005134378 0.005211767 0.005297371 0.005388933 0.005485909 0.005577583 0.005663571 0.005735137 0.005794228
 0.005843333 0.00588607 0.005933085 0.005987022 0.006058192 0.006145766 0.006254253 0.00637774 0.006514463 0.006653677
 0.006789283 0.006911362 0.007012755 0.007095326 0.007155329 0.007211202 0.007264673 0.007337142 0.007432322 0.007551559
 0.007695658 0.007842396 0.007990586 0.008117185 0.008223281 0.008304967 0.008366166 0.008420419 0.008471487 0.008537024
 0.00861673 0.008720709 0.00884037 0.008970958 0.009098964 0.009209671 0.009298475 0.00935502 0.009391434 0.009409393
 0.009423037 0.009438866 0.00945388 0.009469849 0.009472994 0.009461184 0.009432908 0.009387539 0.00934111 0.009294361
 0.009261573 0.009241657 0.00923303 0.009234129 0.009236729 0.00924217 0.009250043 0.00926182 0.009281638 0.00930596
 0.009332604 0.009356395 0.009370614 0.00937655 0.009371909 0.009363024 0.009352844 0.009342318 0.009333145 0.00932057
 0.009303704 0.009280766 0.00925104 0.009218499 0.009183377 0.00914855 0.009113923 0.009076724 0.009036407 0.008987242
 0.008929451 0.008860311 0.008781682 0.008697111 0.008608478 0.008521714 0.008435667 0.008352044 0.008267018 0.00817798
 0.008081301 0.007973838 0.007854148 0.007719999 0.007574714 0.007417312 0.007258387 0.007099312 0.006951048 0.006815773
 0.006692496 0.006581561 0.006472033 0.00636349 0.006248658 0.006127832 0.006000348 0.005866132 0.005724185 0.005574717
 0.005416767 0.005253039 0.005087837 0.004924301 0.004768851 0.004621697 0.004485644 0.004358804 0.004241045 0.004129834
 0.004024536 0.003921425 0.003819177 0.003715978 0.003610652 0.003506652 0.003404076 0.003307708 0.003217969 0.003135502
 0.003060296 0.002991363 0.002928925 0.002874605 0.002828334 0.002791285 0.002761901 0.002736724 0.002713669 0.00268668
 0.002655775 0.002617747 0.002575445 0.002530152 0.002484926 0.002442678 0.002403002 0.002366899 0.002331486 0.002296006
 0.002258874 0.002219368 0.002178594 0.002136362 0.002095969 0.002057497 0.002027591 0.002006575 0.00200078 0.002009511
 0.002030559 0.002061764 0.002092127 0.002120633 0.002138328 0.002146353 0.002142554 0.002128778 0.00210565 0.00207751
 0.002046871 0.002022453 0.002010578 0.002016717 0.002047037 0.00209446 0.002159779 0.00222825 0.002297026 0.002356563
 0.002404861 0.002441406 0.00246587 0.002482818 0.002492467 0.002499188 0.002502504 0.002500602 0.00249228 0.00247023
 0.002435566 0.00238598 0.002327192 0.002268781 0.002216584 0.002183689 0.00216978 0.002180676 0.002209732 0.002255023
 0.002308838 0.002367555 0.002425389 0.002480206 0.002527304 0.002565562 0.002591209 0.002603393 0.002602142 0.002587181
 0.002564392 0.002534185 0.002505348 0.002478444 0.002461393 0.002455436 0.002470538 0.00250756 0.002576428 0.002671951
 0.002791601 0.002922466 0.003045436 0.003152314 0.003225033 0.003271512 0.003289638 0.003294584 0.003293542 0.003293017
 0.003296825 0.003305546 0.003319216 0.003342087 0.003374704 0.003420403 0.003479789 0.003546977 0.003621554 0.003693752
 0.003763341 0.003824551 0.003877145 0.003917327 0.003944104 0.003951869 0.003941527 0.003910052 0.003864442 0.003810916
 0.003761643 0.003730766 0.003725515 0.003758263 0.003819548 0.003911754 0.004011113 0.004111556 0.004192749 0.004248146
 0.004274739 0.004269997 0.004246815 0.004205552 0.004166458 0.004130541 0.004115574 0.004121114 0.004151431 0.004203765
 0.004267006 0.004339654 0.004409861 0.004481485 0.00455651 0.004639259 0.004739463 0.004851419 0.00497599 0.005098379
 0.005208386 0.005297852 0.005357682 0.005396175 0.005412759 0.005421557 0.005425942 0.005431779 0.005440495 0.005452387
 0.005467431 0.005489246 0.005518025 0.005558053 0.005608749 0.005666695 0.005730548 0.005791744 0.005850118 0.005900599
 0.005944014 0.005980042 0.006008436 0.006028327 0.006040594 0.006043688 0.006045195 0.006047884 0.006064039 0.006101342
 0.006162293 0.006252621 0.006355635 0.006470471 0.006573393 0.006660589 0.00672128 0.00675376 0.006763847 0.006751954
 0.006730299 0.006699691 0.006672326 0.006648792 0.006639074 0.006641972 0.006660036 0.006689532 0.006724212 0.00676057
 0.006790382 0.006813336 0.00682509 0.006829711 0.006827047 0.006826275 0.006830687 0.00685056 0.006891293 0.006952248
 0.007036896 0.007126217 0.007219051 0.007291694 0.007341623 0.007362932 0.007355728 0.007338413 0.007312499 0.007301237
 0.007302579 0.007319719 0.007347096 0.007367648 0.007380863 0.007374565 0.007357934 0.007339274 0.007325971 0.007331778
 0.00735024 0.007382441 0.007417053 0.007446914 0.007472771 0.007492113 0.007513442 0.007539227 0.007569046 0.007603884
 0.00763536 0.007662518 0.007685986 0.007706 0.007736341 0.007777341 0.007839127 0.007918451 0.008004703 0.008093375
 0.008162331 0.008214782 0.008244262 0.008262035 0.008283552 0.008312566 0.008362921 0.00842134 0.008483897 0.008535467
 0.008564982 0.008574481 0.008559435 0.008537571 0.00851083 0.008499494 0.008506889 0.008544472 0.008614273 0.008708317
 0.008825957 0.008941542 0.009053806 0.009139167 0.009199762 0.009232751 0.009243988 0.00924991 0.009256314 0.009284825
 0.009334964 0.00941852 0.009523767 0.009644765 0.009766041 0.009872041 0.009962793 0.01003073 0.01009361 0.01015713
 0.01022826 0.01031372 0.01039038 0.0104571 0.01048391 0.01046704 0.01040668 0.01030316 0.0101896 0.01006787
 0.009970886 0.009896116 0.009847655 0.009821068 0.009801594 0.00979263 0.009792805 0.009810688 0.009862175 0.009942971
 0.01005829 0.01019087 0.01032914 0.01046345 0.01058524 0.01069373 0.0107889 0.01086171 0.01090927 0.01092988
 0.01092011 0.0109051 0.01088658 0.0108863 0.0109052 0.01094154 0.01099367 0.01104266 0.01108742 0.01111128
 0.01111674 0.0111023 0.01107284 0.01103854 0.01100235 0.01097535 0.01095239 0.01093408 0.01090935 0.01086876
 0.01081023 0.01072768 0.01063195 0.01052511 0.01041715 0.01031121 0.0102101 0.01011452 0.01002684 0.009947377
 0.009876724 0.009814862 0.009755793 0.009699467 0.009642135 0.00958607 0.009540978 0.009510571 0.009513336 0.009549021
 0.009630478 0.009744626 0.009882592 0.01001707 0.01011509 0.01015944 0.01011714 0.01001586 0.009851174 0.009686855
 0.009544311 0.009465731 0.00947317 0.009538824 0.009669254 0.009771983 0.009839889 0.00979293 0.009627305 0.009370377
 0.009031955 0.008737672 0.00849279 0.00839861 0.008436355 0.008600509 0.008861354 0.00914767 0.009444868 0.009695811
 0.009906562 0.01005984 0.01017308 0.01025451 0.0103159 0.01037044 0.01040431 0.01041832 0.01038657 0.01029878
 0.0101629 0.009973936 0.009781564 0.009589627 0.009438249 0.009329578 0.009264545 0.009242016 0.009249553 0.009285318
 0.009336029 0.009394743 0.009430153 0.009438022 0.00938554 0.009291949 0.009165757 0.009045601 0.008978944 0.008986222
 0.009107462 0.009316943 0.009620405 0.009960054 0.0103192 0.0106467 0.01092493 0.01113922 0.01128258 0.01137025
 0.01140321 0.01139045 0.01133245 0.01122105 0.01105696 0.01084436 0.01058881 0.01032411 0.01005604 0.00982412
 0.009626927 0.009482406 0.009382338 0.00932271 0.009293105 0.009281281 0.009277774 0.009272229 0.009257113 0.009226603
 0.009174089 0.009095877 0.008988703 0.00884883 0.008687816 0.00850404 0.008330248 0.008168703 0.008054434 0.00798944
 0.007973569 0.008003427 0.008034031 0.008062742 0.008046578 0.007995499 0.007919514 0.007834353 0.007787923 0.00777398
 0.007810323 0.007868213 0.007916979 0.007951096 0.007948117 0.007937545 0.007932358 0.007943137 0.007984208 0.008023635
 0.008055174 0.008059571 0.008028549 0.007988288 0.007940613 0.007904287 0.007880459</values></Ydata></AB><ScSm><Ydata ylabel="Single channel"><values byteorder="INTEL" format="FLOAT32" numvalues="1814"> 0.06837298 0.06837399 0.06843632 0.06858379 0.06878915 0.06898829 0.06912424 0.06918445 0.06918841 0.06914751
 0.06907004 0.06900559 0.06903651 0.06919733 0.06942325 0.06959467 0.0696334 0.06957057 0.06952801 0.0695989
 0.0697194 0.06968564 0.06934361 0.06876941 0.06822404 0.06791379 0.06785785 0.06803912 0.06853799 0.06929809
 0.06985484 0.06966583 0.06879401 0.06793971 0.06766289 0.06784715 0.06802863 0.06793495 0.06756748 0.06709468
 0.06690094 0.067483 0.06895857 0.0706622 0.07138376 0.07013021 0.06683587 0.06259047 0.05923718 0.05838244
 0.06026465 0.06343325 0.06583673 0.06645805 0.06580307 0.06486358 0.06404858 0.06330982 0.06283375 0.06308237
 0.06415271 0.06534459 0.06552374 0.06409302 0.06170283 0.05978955 0.05926625 0.05995151 0.06133796 0.06314768
 0.06454882 0.06370841 0.05959223 0.05424763 0.05189413 0.05491285 0.06130628 0.06665237 0.0680404 0.06570767
 0.06175907 0.0584179 0.05718229 0.0584244 0.06133072 0.06457822 0.06713461 0.06830183 0.06753591 0.06491926
 0.06162777 0.05936386 0.05931085 0.06166488 0.06559052 0.06929934 0.07086641 0.06965169 0.06672369 0.06373017
 0.06181344 0.06161682 0.06344929 0.06696374 0.0711326 0.07484139 0.07734418 0.07834303 0.07805341 0.07706814
 0.07590582 0.07492061 0.0746125 0.07531942 0.07640062 0.07648139 0.07495008 0.07278022 0.07153276 0.07174678
 0.07251183 0.07257341 0.07159853 0.06998086 0.06761232 0.06385071 0.05900663 0.05474354 0.05241618 0.05203751
 0.05327196 0.0559671 0.0589839 0.06012206 0.0585274 0.05623506 0.05615024 0.05894844 0.06272513 0.06532475
 0.06633831 0.06695512 0.06842861 0.07079277 0.07269986 0.07243343 0.06960914 0.06613702 0.06487387 0.06681982
 0.07015705 0.07248795 0.07336384 0.07402629 0.07523575 0.07609539 0.07498583 0.0714912 0.06743973 0.06577332
 0.06798001 0.07260187 0.07629468 0.0763021 0.07230931 0.06651434 0.06191701 0.06024436 0.06148909 0.06505113
 0.07039919 0.07646851 0.08139013 0.08353592 0.08269891 0.08000429 0.07662354 0.07268872 0.06790259 0.06334454
 0.06169701 0.06471531 0.07098594 0.07710267 0.08070455 0.08165605 0.0807282 0.07814392 0.07379392 0.06864653
 0.0652159 0.06561116 0.06899518 0.07205444 0.07246894 0.07103202 0.06994943 0.07009046 0.07065778 0.07087931
 0.07111256 0.07223338 0.0743795 0.07661545 0.07783797 0.07778059 0.07705894 0.07645345 0.07619931 0.07581673
 0.07478665 0.07358752 0.0736353 0.07573435 0.07897253 0.0816577 0.08301306 0.08345975 0.08348744 0.08278829
 0.0807024 0.07746464 0.07471201 0.07427125 0.07639338 0.079595 0.0821964 0.08352836 0.08378166 0.08340202
 0.08278525 0.08214642 0.08158681 0.0813697 0.08185403 0.08297931 0.0841485 0.08482584 0.0849762 0.084796
 0.08433046 0.08355351 0.08264431 0.08199062 0.08191004 0.08241251 0.0832452 0.08411506 0.0847942 0.08508556
 0.08489236 0.08436202 0.08379894 0.08339198 0.08315167 0.08309808 0.08332045 0.08380402 0.08434889 0.08473809
 0.08490887 0.08492029 0.08482812 0.0846453 0.08439059 0.08413786 0.08401 0.08409506 0.08434509 0.08460675
 0.08479604 0.08497959 0.0852195 0.0854155 0.08540723 0.08519226 0.08494388 0.08482553 0.08485788 0.08495773
 0.08503178 0.08500026 0.08478621 0.08437786 0.08392486 0.08368931 0.08383767 0.08431818 0.08495337 0.0855713
 0.08603482 0.08626561 0.08630256 0.08626173 0.08620008 0.08607395 0.08584747 0.08559541 0.08548065 0.08563167
 0.08602655 0.0865002 0.08687928 0.08709411 0.08717196 0.08719264 0.08725871 0.08741869 0.08759106 0.08763935
 0.08754622 0.08744768 0.08747335 0.08760214 0.08769876 0.08767074 0.0875712 0.08754075 0.0876563 0.08786283
 0.0880578 0.08820619 0.08835189 0.08853404 0.08870946 0.08876978 0.08865629 0.088447 0.08828612 0.08823326
 0.08824161 0.08828076 0.08839743 0.08861926 0.08886427 0.08900625 0.08901256 0.08897188 0.08897998 0.08902898
 0.0890286 0.08891903 0.08873641 0.08857329 0.08850046 0.08852696 0.08860888 0.08868103 0.08869253 0.08863027
 0.08851717 0.08838759 0.08826584 0.08817451 0.08815795 0.0882659 0.08848488 0.08869678 0.08874698 0.08857925
 0.08829597 0.0880693 0.08798777 0.08799246 0.08795732 0.0878146 0.08759674 0.08737953 0.08721194 0.0870965
 0.08700932 0.08693013 0.08687063 0.0868798 0.0869963 0.08717653 0.08729389 0.08724461 0.08705026 0.08683194
 0.08669388 0.08665488 0.08667257 0.08669786 0.08671549 0.0867552 0.08684812 0.08696131 0.08701213 0.08696532
 0.08688002 0.08684841 0.08692396 0.08710663 0.08734141 0.08752441 0.08757174 0.08750609 0.08743775 0.0874493
 0.08753182 0.08763526 0.08773742 0.0878448 0.08795983 0.08807869 0.08821374 0.0883948 0.08864054 0.08893195
 0.08921462 0.08943137 0.08956722 0.08967269 0.08983386 0.09010472 0.09046304 0.09083126 0.0911407 0.09137939
 0.091584 0.09179014 0.09200313 0.09222352 0.09247874 0.09279846 0.09316729 0.09353475 0.09387174 0.09419069
 0.09451143 0.09483369 0.09515047 0.09547411 0.09583956 0.09627226 0.09674287 0.0971651 0.09746382 0.09764819
 0.09780639 0.09803491 0.09837528 0.09878752 0.09916431 0.09940781 0.09953043 0.09965443 0.09987748 0.1001672
 0.1004312 0.1006623 0.1009521 0.1013599 0.1018241 0.1022242 0.1025023 0.1027024 0.1029045 0.1031355
 0.1033493 0.1034909 0.1035707 0.1036562 0.1037952 0.1039818 0.1042112 0.1045207 0.1049358 0.1054
 0.1058074 0.106097 0.1062853 0.1064221 0.1065454 0.106667 0.1067748 0.1068549 0.1069224 0.1070077
 0.1071068 0.10718 0.1072169 0.1072662 0.1073808 0.1075659 0.1078046 0.1080957 0.1084328 0.1087717
 0.1090704 0.1093562 0.109698 0.1100962 0.1104478 0.1106563 0.1107376 0.1107769 0.1108199 0.1108661
 0.1109446 0.1111196 0.1114125 0.1117719 0.1121351 0.112485 0.1128341 0.1131808 0.113492 0.1137187
 0.113829 0.1138379 0.1138111 0.113834 0.1139683 0.1142221 0.1145464 0.1148671 0.1151283 0.1153049
 0.1153792 0.1153411 0.1152315 0.1151546 0.1151954 0.1153227 0.1154037 0.1153178 0.1150353 0.1145876
 0.1140042 0.1133055 0.1125402 0.1117977 0.111172 0.1107189 0.1104584 0.1104122 0.1106183 0.1110884
 0.1117561 0.1124938 0.113181 0.1137318 0.1140593 0.1140674 0.1137165 0.1130774 0.1122911 0.1114854
 0.110737 0.11007 0.1094594 0.108869 0.1083337 0.1080008 0.1080633 0.1086467 0.1097495 0.11125
 0.1129432 0.1146001 0.1160496 0.117239 0.118221 0.1190792 0.1198699 0.1206244 0.1213713 0.1221185
 0.1228271 0.1234441 0.1239655 0.1244362 0.1248897 0.1253149 0.1256811 0.125971 0.1261939 0.126385
 0.126576 0.1267504 0.126849 0.1268411 0.1267662 0.126683 0.1265964 0.1264529 0.1261929 0.1257985
 0.1253189 0.1248834 0.1246848 0.1249131 0.1256577 0.1268499 0.1283046 0.1298295 0.1312929 0.1326006
 0.1336635 0.1344325 0.1349475 0.1353139 0.1356297 0.1359469 0.1362834 0.1366388 0.1369987 0.1373448
 0.1376695 0.1379829 0.138307 0.1386548 0.1390088 0.1393296 0.139597 0.1398426 0.140128 0.1404875
 0.1408912 0.1412748 0.1416086 0.1419264 0.1422689 0.1426171 0.1429117 0.1431316 0.143321 0.1435415
 0.1438268 0.1441767 0.144556 0.1449006 0.1451593 0.1453405 0.1455017 0.1456921 0.1459215 0.1461775
 0.1464487 0.1467255 0.146998 0.1472687 0.1475572 0.1478739 0.1481883 0.1484442 0.1486173 0.148746
 0.1488961 0.1491014 0.1493442 0.1495864 0.1498121 0.1500437 0.1503155 0.1506288 0.1509381 0.1511882
 0.1513634 0.1514967 0.1516366 0.1518124 0.1520248 0.1522577 0.1524907 0.1527085 0.1529085 0.1531032
 0.1533095 0.1535338 0.1537679 0.1539997 0.1542227 0.1544344 0.1546354 0.1548322 0.1550406 0.155281
 0.1555645 0.155877 0.1561797 0.1564323 0.1566214 0.1567651 0.1568946 0.1570351 0.1571998 0.1573885
 0.1575909 0.157796 0.1579997 0.1582034 0.158409 0.1586181 0.1588331 0.1590564 0.1592857 0.1595119
 0.1597277 0.1599371 0.1601518 0.1603746 0.1605938 0.160798 0.1609909 0.1611875 0.1613993 0.161623
 0.1618424 0.1620425 0.1622237 0.1623993 0.1625821 0.1627775 0.1629853 0.1632002 0.1634116 0.1636112
 0.1637984 0.1639774 0.1641551 0.1643402 0.1645383 0.1647458 0.1649542 0.1651595 0.1653636 0.1655692
 0.1657766 0.1659832 0.1661857 0.1663846 0.1665848 0.166788 0.1669901 0.1671865 0.1673775 0.1675664
 0.1677553 0.1679453 0.1681387 0.168338 0.1685406 0.1687391 0.1689324 0.1691316 0.1693474 0.1695762
 0.169805 0.170025 0.1702346 0.170437 0.1706388 0.1708453 0.1710552 0.1712648 0.1714748 0.1716872
 0.1719003 0.1721124 0.1723251 0.172541 0.1727588 0.1729713 0.1731685 0.1733474 0.1735168 0.173687
 0.1738584 0.1740288 0.1742015 0.1743818 0.1745701 0.1747661 0.1749692 0.175175 0.1753792 0.1755813
 0.1757814 0.1759786 0.1761745 0.1763721 0.1765703 0.1767678 0.1769681 0.1771763 0.1773942 0.1776185
 0.1778403 0.1780511 0.178252 0.1784523 0.1786588 0.1788729 0.1790912 0.1793032 0.179499 0.1796851
 0.179878 0.1800825 0.1802922 0.1805059 0.1807247 0.1809417 0.1811506 0.1813551 0.1815603 0.1817669
 0.181974 0.1821793 0.18238 0.1825801 0.1827871 0.1829994 0.1832111 0.1834225 0.1836358 0.1838501
 0.1840681 0.1842906 0.1845089 0.1847164 0.18492 0.1851259 0.1853313 0.1855362 0.1857386 0.1859165
 0.186019 0.1859303 0.1853627 0.1837393 0.1801777 0.1736707 0.163494 0.1496687 0.1331108 0.1153022
 0.09774567 0.08157825 0.06746474 0.05568837 0.04630191 0.03922781 0.03431854 0.03144757 0.0306033 0.03199532
 0.03618052 0.04373592 0.05398486 0.06385899 0.06908572 0.06756067 0.06136051 0.05485065 0.05105677 0.05019886
 0.0509875 0.05231714 0.05383449 0.05573814 0.05837314 0.06183974 0.06597736 0.0707861 0.07662748 0.08376489
 0.09181905 0.09992738 0.1074826 0.1146064 0.121862 0.1295763 0.1374971 0.1450441 0.1517725 0.1575959
 0.1626964 0.1673238 0.1716531 0.1757616 0.179679 0.1833947 0.1867778 0.1895394 0.1913697 0.1921765
 0.1921999 0.1918783 0.1915877 0.1914924 0.1915944 0.1918566 0.1922582 0.1927891 0.193441 0.1942006
 0.1950368 0.1959042 0.196765 0.1975981 0.1983921 0.1991389 0.1998299 0.2004548 0.2010117 0.201515
 0.2019847 0.2024289 0.2028444 0.2032273 0.2035791 0.2039082 0.204226 0.2045363 0.2048323 0.2051083
 0.2053652 0.2056019 0.2058141 0.2060053 0.2061903 0.2063815 0.2065805 0.2067838 0.2069889 0.2071929
 0.2073912 0.2075814 0.2077683 0.20796 0.2081586 0.2083568 0.2085474 0.2087327 0.2089186 0.2091053
 0.2092894 0.209471 0.2096505 0.2098246 0.2099938 0.2101684 0.210359 0.2105646 0.2107722 0.2109694
 0.2111569 0.2113478 0.2115512 0.2117609 0.2119676 0.2121739 0.2123862 0.2126011 0.2128113 0.2130146
 0.2132053 0.2133697 0.2135029 0.2136259 0.2137737 0.213968 0.2141999 0.2144382 0.2146582 0.214859
 0.2150535 0.2152473 0.2154327 0.2155997 0.2157537 0.2159243 0.2161425 0.2164012 0.2166598 0.2168955
 0.2171205 0.2173478 0.2175733 0.217795 0.2180126 0.2182042 0.2183439 0.2184517 0.2186023 0.2188666
 0.2192401 0.2196359 0.2199616 0.2201972 0.2203877 0.2205842 0.2208144 0.2210652 0.2212528 0.2212788
 0.221183 0.2211786 0.2214541 0.2219815 0.2225709 0.223066 0.2234383 0.2237338 0.2239902 0.2241978
 0.2243116 0.2243047 0.224234 0.224254 0.2245146 0.2250102 0.2255694 0.2260258 0.2263476 0.2265821
 0.2267677 0.2269267 0.2270247 0.2269151 0.2264946 0.2259786 0.2258467 0.2263804 0.2273473 0.2282498
 0.2288155 0.2291355 0.2293913 0.2296329 0.2298295 0.2298988 0.2295862 0.228613 0.2272032 0.2262337
 0.2265067 0.2279439 0.2297298 0.2311292 0.231947 0.2323539 0.2325818 0.23277 0.2328565 0.2325723
 0.2317457 0.2307129 0.2302368 0.2308005 0.2320659 0.2332389 0.2338829 0.2341488 0.234351 0.2346129
 0.2347839 0.2343957 0.2329252 0.2305665 0.2286238 0.2285971 0.2307151 0.2336613 0.2358784 0.2369097
 0.2372825 0.2373612 0.2368095 0.2351942 0.2326338 0.2297525 0.2274828 0.2269264 0.2286235 0.2316532
 0.2341616 0.2351878 0.2354696 0.2362245 0.2376978 0.2391688 0.2398871 0.2396569 0.2387109 0.2372941
 0.2355415 0.2338649 0.2331916 0.2343088 0.2369103 0.2397 0.2415909 0.2425319 0.2429503 0.2424835
 0.239714 0.2338701 0.2269635 0.223239 0.2254294 0.2319002 0.2384106 0.2422889 0.2439021 0.2446631
 0.2451291 0.2448491 0.242632 0.2371935 0.2291746 0.2224226 0.2213966 0.2267583 0.234624 0.240191
 0.2410111 0.237259 0.2308773 0.2249979 0.2226585 0.2249616 0.2305933 0.2371213 0.2424562 0.2454263
 0.2457607 0.2439723 0.241326 0.239539 0.2395367 0.2400872 0.2387374 0.2349142 0.2308794 0.2284139
 0.2260683 0.2218481 0.2175802 0.2177104 0.2235187 0.2309791 0.2352849 0.2357215 0.2347999 0.233677
 0.2301725 0.2219063 0.2108085 0.2032118 0.204322 0.2128157 0.2220173 0.226434 0.2261253 0.2247541
 0.2246975 0.2246182 0.2213488 0.2140259 0.2061971 0.2028474 0.205106 0.2092379 0.2110665 0.2093095
 0.2041416 0.195857 0.1872416 0.184435 0.1917661 0.2064654 0.2208286 0.2285578 0.2270742 0.2161545
 0.1988247 0.183204 0.1785581 0.1870034 0.2009356 0.2100237 0.2094164 0.2006168 0.1870592 0.1717491
 0.1586594 0.1531875 0.1589338 0.1740471 0.1912357 0.2013835 0.1985942 0.184788 0.1701299 0.1657209
 0.1734892 0.1848437 0.1902898 0.1880417 0.1827031 0.1793338 0.1805255 0.1859238 0.1926127 0.197859
 0.2013036 0.2019024 0.1949888 0.1778838 0.15737 0.1452346 0.146026 0.1547165 0.1661289 0.1795866
 0.1927757 0.1985537 0.1929986 0.1828351 0.17971 0.187824 0.2003307 0.2077079 0.2071781 0.2032173
 0.2006387 0.1994677 0.1973298 0.1949926 0.1965734 0.2038565 0.2131681 0.2194747 0.221629 0.2219151
 0.2221827 0.2224419 0.2221838 0.2212353 0.2196691 0.2179143 0.2166325 0.215975 0.2154408 0.214637
 0.2132578 0.2099366 0.2025473 0.1912062 0.1801725 0.1744848 0.1746341 0.1769024 0.1788934 0.1809383
 0.1809401 0.1729079 0.1548609 0.1353325 0.1271662 0.1351086 0.1522746 0.1679993 0.1759944 0.1748827
 0.1650388 0.1488588 0.1333823 0.1280653 0.1370442 0.1551622 0.1734941 0.1870384 0.1952403 0.1977087
 0.1933289 0.1833708 0.1727111 0.1670409 0.169413 0.1789017 0.190889 0.1982289 0.1947496 0.1814048
 0.1690018 0.1702182 0.1862821 0.2049077 0.2141061 0.2143299 0.2135823 0.2149722 0.2151854 0.2132536
 0.2140551 0.2216312 0.2332415 0.242069 0.2432126 0.23562 0.2214298 0.2064435 0.1986237 0.2016938
 0.2108584 0.2179755 0.2194135 0.2155868 0.2061611 0.192046 0.1804669 0.1806288 0.1930606 0.208398
 0.2180234 0.221912 0.2247406 0.2278222 0.2275197 0.2207749 0.2102282 0.2025934 0.2020243 0.2064872
 0.2112117 0.2137222 0.2138722 0.210999 0.2043352 0.1962296 0.1921747 0.1960429 0.2060721 0.2164962
 0.2226876 0.2240611 0.2227337 0.2207795 0.218821 0.2162051 0.2124103 0.2088476 0.2085684 0.2129889
 0.2196056 0.2245494 0.2270038 0.2294783 0.2338765 0.2388785 0.2415464 0.2405305 0.2373587 0.2351118
 0.235955 0.2394168 0.2427337 0.243205 0.24076 0.2382613 0.2388647 0.2430046 0.2483234 0.2523539
 0.2545364 0.2557185 0.2567075 0.2575657 0.2575675 0.2557537 0.2522952 0.2492927 0.2492931 0.252764
 0.2576436 0.2614667 0.2633584 0.2639036 0.2637917 0.2630898 0.2616443 0.2597449 0.2581428 0.2574564
 0.2577262 0.2585691 0.2595817 0.2605137 0.2612399 0.261739 0.2620671 0.2622806 0.2624132 0.2625188
 0.2626426 0.2627353 0.2627005 0.26257 0.2625358 0.2627358 0.2630761 0.2633365 0.2633814 0.2631718
 0.2626389 0.2616983 0.2603974 0.2589127 0.2573504 0.2556654 0.2538934 0.2524232 0.2518929 0.2527127
 0.2546824 0.2571077 0.2592815 0.2608514 0.2618161 0.262324 0.2625375 0.2625985 0.2626033 0.262571
 0.2624671 0.2622696 0.2619991 0.2616903 0.261364 0.2610403 0.2607523 0.2605212 0.2603222 0.2600953
 0.259791 0.2593985 0.2589428 0.2584625 0.2579806 0.2574819 0.2569159 0.2562303 0.2554092 0.2544906
 0.2535554 0.2526848 0.251905 0.2511678 0.2503988 0.2495553 0.2486222 0.2475749 0.246402 0.2451742
 0.2440356 0.2430916 0.2423227 0.2416226 0.2408887 0.2400612 0.2391185 0.2380744 0.2369673 0.2358293
 0.2346663 0.2334686 0.2322239 0.2309157 0.2295271 0.2280516 0.2264945 0.2248658 0.2231844 0.2214747
 0.2197344 0.2179021 0.2158619 0.2134808 0.2106391 0.207252 0.203298 0.198844 0.1940386 0.1890756
 0.1841535 0.1794495 0.1751061 0.171228 0.1678854 0.1651261 0.1629894 0.1615121 0.1607233 0.1606381
 0.1612531 0.1625336 0.1643986 0.1667227 0.1693617 0.1721723 0.1750062 0.1777135 0.1801871 0.1824193
 0.1844904 0.1864792 0.1883857 0.1901505 0.191729 0.1931194 0.1943302 0.1953587 0.1962081 0.1969043
 0.1974838 0.1979727 0.1983823 0.1987199 0.1990001 0.1992421 0.1994568 0.1996472 0.1998224 0.2000042
 0.2002137 0.2004583 0.2007397 0.2010711 0.201479 0.2019798 0.2025543 0.20316 0.2037746 0.2044145
 0.2051055 0.2058566 0.2066779 0.2076039 0.2086766 0.2099102 0.2112814 0.2127418 0.2142302 0.2156779
 0.2170101 0.2181534 0.2190557 0.2197055 0.2201274 0.2203538 0.2204079 0.2203124 0.2200996 0.2198029
 0.2194394 0.2190067 0.2184974 0.2179149 0.217275 0.2165984 0.2159084 0.2152294 0.2145765 0.2139444
 0.213316 0.2126846 0.2120633 0.2114705 0.2109101 0.2103676 0.2098236 0.2092681 0.2087012 0.2081282
 0.2075531 0.2069671 0.2063351 0.2056072 0.2047564 0.2037962 0.2027531 0.201636 0.2004391 0.1991604
 0.1978047 0.1963776 0.194884 0.1933271 0.1917058 0.1900142 0.1882356 0.1863444 0.1843363 0.1822662
 0.1802391 0.1783493 0.1766301 0.1750577 0.1735893 0.1721916 0.1708434 0.1695296 0.1682488 0.1670228
 0.1658781 0.1648139 0.1638045 0.1628365 0.1619242 0.1610902 0.1603452 0.1596867 0.1591043 0.1585905
 0.1581511 0.1577983 0.1575392 0.1573781 0.1573137 0.1573207 0.1573471 0.1573429 0.1572842 0.1571758
 0.1570444 0.1569215 0.1568196 0.1567328 0.1566536 0.156558 0.1563765 0.1560115 0.155387 0.1544676
 0.1532472 0.1517462 0.1500179 0.1481581 0.1463034 0.1445958 0.1431301 0.1419438 0.1410406 0.1403895
 0.1399131 0.1395265 0.1391981 0.1389635 0.1388867 0.1389922 0.1392024 0.1393691 0.139416 0.1394296
 0.1395774 0.1399628 0.1405683 0.1412902 0.1420083 0.1426481 0.1431838 0.1435903 0.1438391 0.1439412
 0.1439402 0.1438637 0.1437206 0.1435239 0.1432799 0.1429832 0.142634 0.1422279 0.1417384 0.1411463
 0.1404636 0.1397062 0.1388812 0.137992 0.1370096 0.1358849 0.1346614 0.1335412 0.1327841 0.1325642
 0.1329017 0.1336572 0.1346145 0.1356281 0.1366225 0.1374225 0.1377838 0.1377618 0.1379139 0.138902
 0.140855 0.1432238 0.1452787 0.1466445 0.1473277 0.1474183 0.1469605 0.1460062 0.1445811 0.1426426
 0.1402009 0.1373927 0.1343717 0.1312758 0.1283121 0.1256897 0.1234842 0.1216827 0.1202725 0.1192963
 0.1188794 0.1186475 0.1167465 0.1108195 0.1016616 0.09483512 0.09598802 0.1044991 0.1139186 0.1187718
 0.1189043 0.1172304 0.1157741 0.1148535 0.1143638 0.1144289 0.1151641 0.116433 0.1178631 0.1190585
 0.1198451 0.1202486 0.1202247 0.1194303 0.1171602 0.1125802 0.1053909 0.09642789 0.08739834 0.07989341
 0.07465863 0.07158417 0.07004872 0.06929015 0.06878024 0.06847144 0.06869182 0.0697643 0.07172695 0.07439056
 0.07753237 0.08089967 0.08411118 0.08679271 0.08885902 0.0905022 0.09187216 0.09290501 0.09347142 0.09355207
 0.09323664 0.09264918 0.09190927 0.09109943 0.09021669 0.0891872 0.08800554 0.0868618 0.08603406 0.08562233
 0.08547871 0.0854149 0.08536558 0.08533522 0.08531079 0.08526863 0.08520741 0.08517727 0.08529203 0.08564439
 0.08617803 0.08670411 0.0870633 0.0872395 0.08732193 0.08735152 0.08719362 0.08666101 0.08583563 0.08508893
 0.08460569 0.0840721 0.08309514 0.08181076 0.08080736 0.0804897 0.08072313 0.08107232 0.08120056 0.08103499
 0.08074287 0.08064465 0.08099786 0.08169884</values></Ydata></ScSm><ScRf><Ydata ylabel="Single channel"><values byteorder="INTEL" format="FLOAT32" numvalues="1820"> 0.06080153 0.06094907 0.06103541 0.06106767 0.06107153 0.06108675 0.06115421 0.06129143 0.0614761 0.06165527
 0.06178129 0.06184462 0.06186257 0.06184184 0.06178428 0.06173179 0.06176116 0.06190775 0.06211321 0.06226611
 0.0622951 0.0622337 0.06219835 0.06227335 0.06239552 0.06237628 0.06207637 0.06156464 0.06107482 0.06079268
 0.06073892 0.06090173 0.06135392 0.06204312 0.06254951 0.06238304 0.06159905 0.06082993 0.06058402 0.06075741
 0.06092775 0.0608452 0.06051239 0.06008645 0.05991733 0.0604521 0.06179423 0.06334217 0.06400535 0.06288908
 0.0599319 0.05611263 0.05309297 0.0523255 0.05402801 0.0568909 0.05906196 0.05962473 0.05903779 0.05819774
 0.05747395 0.0568197 0.05639688 0.05661938 0.05757912 0.05864974 0.05880829 0.05751596 0.05536436 0.05365288
 0.0531993 0.05382968 0.05508326 0.056714 0.05797577 0.05721572 0.0535024 0.04868687 0.04657868 0.04932375
 0.05511272 0.05994711 0.06119667 0.05908179 0.05551606 0.05251528 0.05142556 0.05256718 0.05519724 0.05812628
 0.06043043 0.06148106 0.06078655 0.05842581 0.05546521 0.05343797 0.05340257 0.05553186 0.05907685 0.06242922
 0.06384968 0.06275299 0.06009956 0.05738094 0.05563689 0.05545513 0.05711873 0.06031667 0.06412029 0.06751592
 0.06981748 0.07074551 0.07049248 0.06959905 0.0685402 0.06763956 0.06735168 0.0679869 0.06897193 0.06906591
 0.06770997 0.06577271 0.06465501 0.06484136 0.0655147 0.06555212 0.06466196 0.0632005 0.06106023 0.05765033
 0.05325355 0.04938629 0.04728293 0.04695658 0.04810421 0.05058731 0.05336322 0.05442015 0.05297697 0.05089055
 0.05081079 0.05335201 0.05677695 0.05912541 0.06003434 0.06059525 0.0619499 0.06412252 0.0658779 0.06564796
 0.06308209 0.05992449 0.05878402 0.06057309 0.06363018 0.0657675 0.06658134 0.06720828 0.06833558 0.0691345
 0.06812803 0.06494961 0.06127693 0.05978853 0.06182811 0.06605755 0.06942803 0.06943123 0.06578545 0.06049995
 0.05631366 0.05480271 0.05596136 0.05924429 0.06416854 0.0697623 0.074315 0.07632755 0.07559559 0.07314412
 0.07005671 0.06646542 0.06209584 0.05793153 0.05643657 0.05923154 0.06502289 0.07067913 0.07402743 0.07494175
 0.07412796 0.07178389 0.06780371 0.06308447 0.05995573 0.06036909 0.0635476 0.0664252 0.06685643 0.06557313
 0.06461112 0.06477243 0.06532222 0.0655514 0.06579473 0.06686331 0.06888331 0.07098924 0.07216154 0.07215255
 0.07152863 0.07101148 0.0708212 0.07051525 0.06961444 0.06856631 0.06868356 0.07070116 0.07375886 0.07628414
 0.0775672 0.07801273 0.07808076 0.07747811 0.07557625 0.07258595 0.0700428 0.06966957 0.0717079 0.07476282
 0.07725409 0.07855642 0.07885244 0.07855656 0.07803272 0.07748237 0.0770076 0.07685992 0.077372 0.07847917
 0.07961801 0.08028958 0.08046589 0.0803312 0.07992469 0.07922275 0.07840038 0.07782751 0.07780091 0.07832346
 0.079154 0.08001998 0.08071074 0.08103706 0.08089969 0.08043678 0.07994467 0.0796083 0.07943311 0.07943003
 0.07968251 0.08018109 0.08073828 0.08114572 0.08134057 0.08137979 0.0813223 0.0811855 0.08098557 0.08078773
 0.080709 0.0808369 0.08112426 0.08141922 0.08164182 0.08186206 0.08213986 0.08236901 0.08238664 0.08219461
 0.08197186 0.08188003 0.08193199 0.08204329 0.08213159 0.08212864 0.08195817 0.08160141 0.08120029 0.08100863
 0.08118728 0.08168846 0.08234486 0.08298713 0.08347152 0.08371685 0.08376867 0.08374967 0.08371456 0.0836128
 0.0834066 0.08317488 0.08308275 0.08325423 0.08366215 0.08414342 0.08453125 0.08475884 0.08485243 0.08489327
 0.08498816 0.08518639 0.0854007 0.08548724 0.08542535 0.08535132 0.08539315 0.0855249 0.08560931 0.08556056
 0.08544379 0.08540921 0.08553675 0.08576767 0.0859904 0.08616195 0.08632645 0.08652844 0.08672391 0.0867954
 0.08667856 0.08645795 0.08629006 0.08624065 0.0862595 0.08630873 0.08642948 0.08664948 0.08689237 0.08703902
 0.08706008 0.08704175 0.08707407 0.08714402 0.08715852 0.08705632 0.08687266 0.08670138 0.08661903 0.08664256
 0.08673109 0.08681419 0.08683214 0.08676855 0.08665262 0.08652949 0.08642951 0.08637203 0.08639395 0.08654104
 0.08679789 0.08704005 0.08710432 0.08693486 0.08664669 0.08642364 0.08635174 0.08635832 0.08630639 0.0861301
 0.08587517 0.08563106 0.08544913 0.08532205 0.08521622 0.08511379 0.08503737 0.08504141 0.08515809 0.08533232
 0.08543012 0.08534724 0.08510935 0.08484325 0.08465884 0.08458081 0.08457056 0.08457568 0.08457161 0.08458415
 0.08465249 0.08475295 0.08479771 0.08473584 0.08461901 0.0845475 0.08458868 0.08475079 0.08497797 0.08515705
 0.08519072 0.0850939 0.08498164 0.08494821 0.08499226 0.08506359 0.08513772 0.08522175 0.08531901 0.08542305
 0.08554135 0.0857012 0.08592156 0.0861837 0.0864334 0.08661656 0.08672408 0.0868101 0.08695796 0.08721398
 0.08754776 0.08787742 0.08813614 0.08832101 0.08848103 0.0886582 0.08885106 0.0890462 0.08926398 0.08953981
 0.08986768 0.09019989 0.09050427 0.09079148 0.09108359 0.09138323 0.0916823 0.09198808 0.09233196 0.09274192
 0.09319292 0.09359593 0.09386577 0.09400527 0.09411061 0.09429675 0.09461594 0.0950169 0.09536883 0.09556434
 0.09563023 0.09570812 0.09589854 0.09616061 0.09640107 0.09662266 0.09692152 0.09734575 0.09781359 0.09819143
 0.09842576 0.09857951 0.09875055 0.0989675 0.09917007 0.0992917 0.09934729 0.09941535 0.09954223 0.09970884
 0.09990278 0.1001684 0.1005431 0.1009799 0.101379 0.10168 0.1018888 0.1020365 0.1021482 0.1022369
 0.1023001 0.1023337 0.1023625 0.1024272 0.1025271 0.1026092 0.1026397 0.1026542 0.102716 0.1028525
 0.1030593 0.1033314 0.1036495 0.1039607 0.1042269 0.1044874 0.1048205 0.1052207 0.1055653 0.1057407
 0.1057659 0.1057482 0.1057527 0.1057789 0.1058427 0.1060009 0.1062788 0.1066282 0.1069823 0.1073202
 0.10766 0.1080082 0.1083303 0.1085661 0.1086736 0.1086662 0.1086129 0.1086031 0.1087063 0.1089431
 0.1092733 0.1096184 0.1099094 0.1101118 0.1102081 0.1101924 0.1101101 0.1100705 0.1101649 0.1103656
 0.110534 0.1105366 0.1103321 0.1099515 0.1094329 0.1088049 0.108115 0.1074446 0.1068798 0.1064736
 0.1062432 0.1062074 0.106406 0.1068566 0.1074965 0.108198 0.1088454 0.1093671 0.1096906 0.1097213
 0.1094108 0.1088209 0.108089 0.1073432 0.1066578 0.1060493 0.105483 0.1049186 0.1043933 0.104056
 0.1040948 0.1046286 0.1056522 0.1070408 0.1085848 0.1100559 0.1112984 0.1122869 0.1130968 0.113818
 0.1144983 0.1151574 0.1158185 0.1164901 0.1171312 0.117681 0.118131 0.1185351 0.1189426 0.1193487
 0.1197139 0.1200079 0.1202351 0.1204348 0.1206424 0.1208368 0.1209472 0.1209322 0.120829 0.120705
 0.1205823 0.1204249 0.1201785 0.1198137 0.1193635 0.1189483 0.1187559 0.1189617 0.1196312 0.120683
 0.1219475 0.1232712 0.1245594 0.1257327 0.1266935 0.1273776 0.1278164 0.1281157 0.1283759 0.1286507
 0.1289564 0.1292869 0.1296191 0.1299275 0.1302063 0.1304779 0.1307762 0.1311129 0.1314584 0.1317624
 0.1320044 0.1322211 0.1324796 0.1328181 0.1332075 0.1335789 0.1338958 0.1341897 0.1345038 0.1348208
 0.1350811 0.1352674 0.135432 0.1356415 0.1359259 0.1362764 0.1366523 0.1369886 0.137237 0.13741
 0.1375674 0.1377545 0.1379724 0.138204 0.1384429 0.1386906 0.1389464 0.1392154 0.139514 0.1398457
 0.1401711 0.1404285 0.1405948 0.140715 0.1408581 0.1410535 0.1412779 0.1414937 0.1416907 0.1418972
 0.1421528 0.142463 0.1427801 0.143038 0.1432087 0.1433232 0.1434372 0.1435869 0.1437747 0.1439865
 0.1442087 0.14443 0.14464 0.1448368 0.1450313 0.1452369 0.1454547 0.1456742 0.1458862 0.1460911
 0.1462951 0.1465033 0.1467215 0.1469625 0.1472408 0.1475497 0.1478494 0.1480931 0.1482657 0.1483908
 0.1485035 0.1486278 0.1487741 0.1489452 0.1491384 0.1493465 0.1495599 0.1497704 0.1499759 0.1501814
 0.150391 0.1506013 0.1508067 0.1510083 0.1512151 0.1514373 0.1516765 0.1519209 0.1521506 0.1523536
 0.1525365 0.1527183 0.1529118 0.1531132 0.153308 0.1534881 0.1536622 0.1538455 0.1540434 0.1542471
 0.1544446 0.1546317 0.1548147 0.1550035 0.1552021 0.1554039 0.1556004 0.155791 0.1559844 0.156189
 0.156403 0.1566154 0.1568165 0.157008 0.1571981 0.1573901 0.1575829 0.1577798 0.157986 0.1581986
 0.1584063 0.1586014 0.158785 0.1589634 0.1591431 0.15933 0.1595284 0.1597393 0.1599577 0.160172
 0.1603739 0.1605659 0.1607564 0.1609499 0.1611487 0.1613566 0.1615742 0.1617955 0.1620156 0.162235
 0.162456 0.1626796 0.1629045 0.1631252 0.1633355 0.1635383 0.1637441 0.1639575 0.1641687 0.164364
 0.1645405 0.164709 0.1648833 0.1650673 0.1652546 0.1654386 0.1656169 0.1657879 0.1659537 0.1661243
 0.1663122 0.16652 0.1667387 0.1669565 0.1671657 0.1673659 0.1675611 0.1677537 0.1679445 0.1681384
 0.1683419 0.1685527 0.1687632 0.168972 0.1691839 0.1694022 0.1696255 0.1698469 0.1700561 0.1702503
 0.1704406 0.1706398 0.1708501 0.1710697 0.1712976 0.1715272 0.1717494 0.1719609 0.1721639 0.1723609
 0.1725565 0.1727564 0.1729604 0.1731676 0.1733807 0.1735968 0.1738068 0.1740102 0.1742174 0.1744326
 0.1746499 0.1748645 0.1750759 0.1752861 0.1754999 0.1757175 0.1759303 0.1761353 0.1763425 0.1765576
 0.1767737 0.1769878 0.1772004 0.1773953 0.1775258 0.1774743 0.1769537 0.1754037 0.1719834 0.1657427
 0.1560037 0.1427914 0.126976 0.109966 0.09319505 0.07775274 0.06427696 0.05303842 0.04408641 0.0373453
 0.03267038 0.02993431 0.0291217 0.03043588 0.03441932 0.04163519 0.05144232 0.06090177 0.06591402 0.06445663
 0.05852049 0.05229426 0.0486771 0.04787197 0.0486378 0.04991737 0.05137655 0.05320741 0.05574159 0.05907557
 0.06305222 0.067665 0.07325597 0.08007951 0.08777853 0.09553193 0.1027606 0.1095848 0.1165498 0.1239716
 0.1316026 0.1388748 0.1453541 0.1509562 0.1558577 0.1603011 0.1644596 0.1684121 0.172186 0.1757645
 0.1790191 0.1816802 0.1834608 0.1842716 0.1843266 0.184028 0.183735 0.183625 0.1837243 0.1840044
 0.1844338 0.1849877 0.1856498 0.1864017 0.1872109 0.1880429 0.1888764 0.1896938 0.190471 0.1911927
 0.1918614 0.1924806 0.1930437 0.1935461 0.1939961 0.1944114 0.1948105 0.1952041 0.195589 0.1959551
 0.1962968 0.1966136 0.1969051 0.1971744 0.197428 0.1976699 0.1979007 0.1981229 0.1983392 0.198549
 0.1987523 0.1989521 0.1991512 0.1993483 0.199543 0.1997373 0.1999343 0.200136 0.2003406 0.200543
 0.2007411 0.2009396 0.2011429 0.2013487 0.2015514 0.2017476 0.2019339 0.2021086 0.2022779 0.2024541
 0.2026438 0.2028426 0.2030422 0.2032381 0.2034353 0.2036455 0.2038742 0.2041107 0.2043396 0.2045555
 0.2047617 0.2049619 0.2051631 0.2053724 0.2055827 0.2057729 0.205933 0.2060816 0.206251 0.2064579
 0.2066915 0.2069266 0.2071469 0.2073538 0.2075552 0.2077528 0.207942 0.2081151 0.2082723 0.2084355
 0.2086366 0.2088802 0.2091388 0.2093922 0.2096461 0.2099039 0.2101552 0.2103961 0.2106266 0.2108277
 0.2109775 0.2110963 0.2112507 0.2115004 0.2118416 0.2122052 0.2125167 0.2127569 0.2129605 0.2131735
 0.2134269 0.2137069 0.2139207 0.2139616 0.2138697 0.2138635 0.2141369 0.2146632 0.2152524 0.2157491
 0.2161242 0.2164223 0.216682 0.2168993 0.2170354 0.2170611 0.2170224 0.2170604 0.2173183 0.2177972
 0.2183407 0.2187908 0.2191122 0.2193467 0.2195342 0.2197024 0.2198208 0.2197437 0.2193635 0.2188847
 0.218774 0.219308 0.2202618 0.2211509 0.2217133 0.2220422 0.2223144 0.2225698 0.2227687 0.2228316
 0.2225263 0.2215991 0.2202725 0.219389 0.2197129 0.2211535 0.222906 0.2242542 0.2250239 0.2254041
 0.2256317 0.2258351 0.2259399 0.2256792 0.2248918 0.2239125 0.2234863 0.224079 0.2253525 0.2265264
 0.2271743 0.2274477 0.2276565 0.2279181 0.2280804 0.2276867 0.2262386 0.2239427 0.2220787 0.2220989
 0.2242081 0.2271129 0.2292968 0.23032 0.2307003 0.2307947 0.2302763 0.2287258 0.2262642 0.2235005
 0.221332 0.2208169 0.2224773 0.2254269 0.2278749 0.2288934 0.229198 0.2299626 0.2314162 0.2328576
 0.2335636 0.2333474 0.2324342 0.2310632 0.2293725 0.2277686 0.227152 0.228279 0.2308435 0.233586
 0.2354555 0.2364038 0.2368405 0.2364042 0.2337127 0.2280219 0.2213068 0.217716 0.2199111 0.2262834
 0.2326821 0.2364968 0.2380906 0.2388474 0.2393103 0.2390358 0.2368638 0.2315525 0.2237411 0.2171876
 0.2162328 0.2215056 0.2292092 0.234663 0.2354858 0.2318467 0.2256393 0.2199261 0.2176809 0.2199806
 0.2255335 0.2319523 0.2371897 0.2401047 0.2404452 0.238725 0.2361873 0.2345074 0.234576 0.2351707
 0.2338865 0.2301735 0.226257 0.2238773 0.2216058 0.2174908 0.2133392 0.2135225 0.2192886 0.2266667
 0.2309277 0.231379 0.2305035 0.2294446 0.2260543 0.2179839 0.2071257 0.1997064 0.2008466 0.209245
 0.2183369 0.222722 0.2224595 0.2211518 0.2211434 0.2211287 0.2179915 0.2108726 0.2032597 0.2000626
 0.2023866 0.2065419 0.2084181 0.206766 0.2017595 0.1936761 0.1852632 0.1826028 0.1899905 0.204685
 0.2190457 0.226821 0.2254456 0.2146932 0.1975767 0.1821828 0.1777344 0.1863277 0.2003848 0.2096238
 0.2092151 0.2006395 0.1872979 0.1721889 0.1593126 0.1541143 0.1602315 0.1758015 0.1934586 0.2039802
 0.201396 0.1876608 0.173103 0.1689962 0.1772696 0.189144 0.1949488 0.1928981 0.1877227 0.1846068
 0.1862004 0.1921151 0.1993231 0.2050113 0.2088263 0.209668 0.2026562 0.185 0.1637667 0.1512218
 0.1520934 0.1611625 0.1730655 0.1871042 0.2008455 0.2068285 0.2009749 0.1903103 0.186976 0.195344
 0.2082821 0.2158793 0.215253 0.2110755 0.2083692 0.2071649 0.2049886 0.2026342 0.2043761 0.2120636
 0.2218859 0.2286251 0.2310823 0.2316067 0.2321133 0.2326303 0.2326367 0.2319344 0.2305831 0.229041
 0.2280201 0.2276821 0.2274878 0.227013 0.2259317 0.2227846 0.2152859 0.2035329 0.1920575 0.1862392
 0.1866025 0.1891761 0.1914018 0.1936305 0.1936134 0.1849496 0.1655359 0.1445043 0.1355789 0.1438126
 0.161824 0.1782165 0.1863146 0.1847305 0.17395 0.1565372 0.1398584 0.1337733 0.1425915 0.1609413
 0.1795188 0.1931044 0.2011403 0.20328 0.1984198 0.1878784 0.1766644 0.1706069 0.1728086 0.1822858
 0.1942946 0.2015505 0.1977994 0.1840379 0.1712418 0.1722582 0.1883261 0.2070085 0.2161751 0.2162799
 0.215409 0.2167052 0.2168286 0.2148089 0.2155711 0.2231949 0.2349273 0.2439024 0.2451697 0.237645
 0.2234731 0.208522 0.2008522 0.2042194 0.2137409 0.2211513 0.2227691 0.2190116 0.2095325 0.1952724
 0.1836155 0.183947 0.1967862 0.2125661 0.2225063 0.2266124 0.2296802 0.2330379 0.2329318 0.22621
 0.2155841 0.2079541 0.2075893 0.2124058 0.2175127 0.2203696 0.2208118 0.2181333 0.2115304 0.2034283
 0.1995052 0.20376 0.2143551 0.2253002 0.2317812 0.2331701 0.2316423 0.2293471 0.2269532 0.2238159
 0.2194155 0.2152185 0.2143856 0.218395 0.2246874 0.2292996 0.2314027 0.233569 0.2377334 0.2425307
 0.2449607 0.243666 0.2402191 0.2377429 0.2384016 0.2416897 0.244815 0.2450749 0.2424214 0.2397506
 0.2402427 0.2443301 0.2496301 0.2536546 0.2558414 0.2570444 0.2580693 0.2589651 0.2589872 0.2571625
 0.2536669 0.2506239 0.2505981 0.2540488 0.2588913 0.2626535 0.2644788 0.2649776 0.264854 0.264175
 0.2627759 0.2609267 0.2593613 0.2586953 0.2589756 0.2598192 0.2608154 0.2617115 0.2623866 0.2628272
 0.2631043 0.2632939 0.2634335 0.2635519 0.2636617 0.2637083 0.2636247 0.263474 0.2634488 0.263662
 0.2640005 0.2642457 0.2642716 0.2640434 0.2634956 0.2625533 0.2612708 0.2598181 0.2582887 0.2566338
 0.2548997 0.2534871 0.2530316 0.2539236 0.2559419 0.2583885 0.2605715 0.2621554 0.2631432 0.263674
 0.2638961 0.2639432 0.2639139 0.2638391 0.2636964 0.2634662 0.2631642 0.2628196 0.2624499 0.2620698
 0.2617106 0.2614025 0.2611383 0.26087 0.2605434 0.2601327 0.2596511 0.2591351 0.2586106 0.2580591
 0.2574229 0.256653 0.2557522 0.2547793 0.2538226 0.2529555 0.2521897 0.2514667 0.2507143 0.2499016
 0.2490193 0.2480316 0.2469083 0.2457134 0.244605 0.24371 0.243019 0.2424176 0.2417879 0.2410604
 0.2402101 0.2392492 0.2382175 0.2371529 0.2360646 0.2349393 0.233758 0.2325004 0.2311504 0.2297066
 0.2281802 0.2265852 0.2249441 0.2232876 0.2216191 0.2198753 0.2179298 0.2156329 0.2128507 0.2094963
 0.2055568 0.2011081 0.1963032 0.1913423 0.1864319 0.1817465 0.1774151 0.1735335 0.1701798 0.1674213
 0.1653142 0.1639005 0.1632 0.1632081 0.1639026 0.1652484 0.1671878 0.1696247 0.1724174 0.1753916
 0.1783642 0.1811766 0.1837415 0.1860797 0.1882871 0.1904265 0.1924597 0.194305 0.1959328 0.1973672
 0.198616 0.1996553 0.2004852 0.2011565 0.2017291 0.2022274 0.20265 0.2030042 0.2033108 0.2035809
 0.2038099 0.2039988 0.2041685 0.204345 0.2045427 0.2047658 0.2050216 0.2053281 0.2057077 0.2061674
 0.206684 0.2072218 0.2077691 0.2083435 0.2089621 0.2096229 0.2103308 0.2111258 0.2120693 0.2131958
 0.2144813 0.2158586 0.2172527 0.2185917 0.2197979 0.2207973 0.2215488 0.2220569 0.2223531 0.2224678
 0.222419 0.2222214 0.2219035 0.2215044 0.2210504 0.2205404 0.219966 0.219333 0.2186583 0.2179543
 0.2172317 0.2165097 0.2158095 0.2151343 0.2144682 0.2137992 0.2131371 0.2125021 0.2119039 0.2113396
 0.2107995 0.2102679 0.209725 0.2091594 0.2085724 0.2079597 0.2072989 0.206563 0.2057407 0.2048352
 0.2038469 0.202766 0.2015847 0.2003081 0.1989477 0.1975057 0.1959761 0.1943624 0.1926856 0.1909659
 0.1891946 0.1873343 0.1853635 0.1833246 0.1813145 0.1794221 0.1776813 0.1760772 0.17458 0.1731688
 0.1718373 0.1705817 0.1693881 0.1682394 0.1671314 0.1660687 0.1650511 0.1640795 0.1631716 0.1623558
 0.1616472 0.1610354 0.1604973 0.1600172 0.1595951 0.1592359 0.1589461 0.1587472 0.1586686 0.1587066
 0.1587995 0.158862 0.158838 0.1587248 0.1585653 0.1584177 0.1583176 0.1582634 0.1582324 0.1581858
 0.1580583 0.1577641 0.1572191 0.1563596 0.1551609 0.1536515 0.151905 0.150028 0.1481604 0.14645
 0.1449972 0.1438351 0.1429572 0.1423261 0.1418628 0.1414807 0.1411491 0.1409162 0.1408664 0.1410316
 0.1413144 0.1415357 0.1416036 0.1416116 0.141744 0.1421207 0.1427354 0.1434849 0.144237 0.1449037
 0.1454532 0.145865 0.146124 0.1462574 0.146311 0.1462904 0.1461759 0.1459735 0.1457108 0.1454087
 0.1450692 0.1446659 0.1441598 0.1435475 0.1428606 0.1421113 0.1412901 0.1403979 0.1394149 0.1382911
 0.1370625 0.1359356 0.1351896 0.1350109 0.1354069 0.1362114 0.1372005 0.1382492 0.1392964 0.1401483
 0.1405312 0.1404987 0.1406399 0.1416553 0.1436915 0.1461814 0.148351 0.1497887 0.150498 0.1505951
 0.1501555 0.1492438 0.1478669 0.1459491 0.1434932 0.1406601 0.1376174 0.1344819 0.1314347 0.1286927
 0.1263689 0.1244822 0.1230218 0.1220168 0.1215963 0.1213956 0.1195164 0.1135176 0.104191 0.09723307
 0.09843366 0.1071578 0.1168094 0.1217957 0.1219578 0.1202644 0.1187755 0.1178182 0.1172974 0.1173513
 0.1180942 0.11937 0.1207895 0.1219568 0.1227055 0.1230671 0.1229995 0.1221526 0.1198005 0.115089
 0.1077238 0.09857379 0.08938377 0.08175797 0.0764257 0.07325678 0.07163338 0.07081874 0.07030285 0.07002371
 0.07026497 0.07131153 0.0732148 0.07585157 0.07905777 0.08257559 0.08596532 0.08879608 0.090964 0.09267612
 0.0940987 0.09515689 0.09569591 0.09570006 0.09529947 0.09465332 0.09388589 0.09307095 0.09219161 0.09114573
 0.08990675 0.08868957 0.08783215 0.08747319 0.08744879 0.0875188 0.08757084 0.08759303 0.08758014 0.08751413
 0.0873896 0.08726338 0.08727823 0.08755837 0.08805844 0.08857927 0.0889433 0.08911958 0.08918862 0.08918466
 0.08896683 0.08835311 0.08745179 0.08666579 0.08618153 0.08564759 0.08463623 0.083298 0.08226703 0.08196148
 0.08221449 0.08256777 0.08269851 0.0825444 0.0822559 0.08214487 0.08248837 0.08319342 0.08376206 0.08376278
</values></Ydata></ScRf><Data_Parameters_AB><parameter name="DPF">1</parameter><parameter name="NPT">3497</parameter><parameter name="FXV">3996</parameter><parameter name="LXV">500</parameter><parameter name="CSF">1</parameter><parameter name="MXY">0.0294439531862736</parameter><parameter name="MNY">-0.0490269139409065</parameter><parameter name="DAT">31/05/2022</parameter><parameter name="TIM">14:14:45.959 (GMT+2)</parameter><parameter name="DXU">WN</parameter></Data_Parameters_AB><AB__Qtest><MainReport name="Quality Test Report"><Header><Line><Legend>Test result ok/not ok [1/0]: </Legend><Value>0</Value></Line><Line><Legend>Method file: </Legend><Value>C:\Users\Public\Documents\Bruker\OPUS_8.2.28\QT\IRBT_v3_default.QT</Value></Line></Header><Matrix><Line><Legend></Legend><Legend>min</Legend><Legend>max</Legend><Legend>measured</Legend></Line><Line><Value>Absorption (X-Range 1):</Value><Value>0.400000</Value><Value>2.000000</Value><Value>0.035204</Value></Line><Line><Value>Noise (X-Range 4):</Value><Value></Value><Value>0.000300</Value><Value>0.000049</Value></Line><Line><Value>Signal/Noise (X-Range 2):</Value><Value>200.000000</Value><Value></Value><Value>11.026302</Value></Line><Line><Value>Signal/Noise (X-Range 3):</Value><Value>40.000000</Value><Value></Value><Value>5.877203</Value></Line><Line><Value>Water vapour (X-Range 5):</Value><Value></Value><Value>0.000300</Value><Value>0.000020</Value></Line><Line><Value>Signal/Water (X-Range 2):</Value><Value>100.000000</Value><Value></Value><Value>27.198805</Value></Line><Line><Value>Signal/Water (X-Range 3):</Value><Value>20.000000</Value><Value></Value><Value>14.497417</Value></Line><Line><Value>Fringes (X-Range 6):</Value><Value></Value><Value>0.000100</Value><Value>0.000060</Value></Line></Matrix></MainReport></AB__Qtest><Data_Parameters_ScSm><parameter name="DPF">1</parameter><parameter name="NPT">1814</parameter><parameter name="FXV">3996.33169228125</parameter><parameter name="LXV">499.541461535156</parameter><parameter name="CSF">1</parameter><parameter name="MXY">0.263903558254242</parameter><parameter name="MNY">0.0306033045053482</parameter><parameter name="DAT">31/05/2022</parameter><parameter name="TIM">14:14:45.959 (GMT+2)</parameter><parameter name="DXU">WN</parameter></Data_Parameters_ScSm><Data_Parameters_ScRf><parameter name="DPF">1</parameter><parameter name="NPT">1820</parameter><parameter name="FXV">4004.04661832813</parameter><parameter name="LXV">495.683998511719</parameter><parameter name="CSF">1</parameter><parameter name="MXY">0.264977633953094</parameter><parameter name="MNY">0.0291217006742954</parameter><parameter name="DAT">31/05/2022</parameter><parameter name="TIM">14:14:19.848 (GMT+2)</parameter><parameter name="DXU">WN</parameter></Data_Parameters_ScRf><Optic_Parameters_Rf><parameter name="APR">0</parameter><parameter name="APT">Open</parameter><parameter name="BMS">KBr</parameter><parameter name="DTC">RT-DLaTGS_IR-Biotyper [Microplate reader]</parameter><parameter name="HPF">0</parameter><parameter name="LPF">10.0</parameter><parameter name="LPV">4000</parameter><parameter name="PGR">0</parameter><parameter name="RCH">Module port</parameter><parameter name="RDX">0</parameter><parameter name="SRC">MIR</parameter><parameter name="VEL">10.0</parameter><parameter name="SON">Off</parameter></Optic_Parameters_Rf><Acquisition_Parameters_Rf><parameter name="ADT">1</parameter><parameter name="AQM">DD</parameter><parameter name="CFE">0</parameter><parameter name="COR">0</parameter><parameter name="DEL">0</parameter><parameter name="DLY">0</parameter><parameter name="HFW">8000</parameter><parameter name="LFW">0</parameter><parameter name="NSR">32</parameter><parameter name="PLF">AB</parameter><parameter name="RES">6</parameter><parameter name="RGN">-1</parameter><parameter name="STR">0</parameter><parameter name="TCL">MakeCompatibleScalar (0, {WSV=1.000000, ARV=0});</parameter><parameter name="TDL">37</parameter><parameter name="RPO">0</parameter></Acquisition_Parameters_Rf><FT_-_Parameters_Rf><parameter name="APF">B3</parameter><parameter name="HFQ">500</parameter><parameter name="LFQ">4000</parameter><parameter name="NLI">0</parameter><parameter name="PHR">24</parameter><parameter name="PHZ">ML</parameter><parameter name="SPZ">NO</parameter><parameter name="ZFF">1</parameter></FT_-_Parameters_Rf><Optic_Parameters_><parameter name="APR">0</parameter><parameter name="APT">Open</parameter><parameter name="BMS">KBr</parameter><parameter name="CHN">Module port</parameter><parameter name="DTC">RT-DLaTGS_IR-Biotyper [Microplate reader]</parameter><parameter name="HPF">0</parameter><parameter name="LPF">10.0</parameter><parameter name="LPV">4000</parameter><parameter name="PGN">0</parameter><parameter name="RDX">0</parameter><parameter name="SRC">MIR</parameter><parameter name="VEL">10.0</parameter><parameter name="SON">Off</parameter></Optic_Parameters_><FT_-_Parameters_><parameter name="APF">B3</parameter><parameter name="HFQ">500</parameter><parameter name="LFQ">4000</parameter><parameter name="NLI">0</parameter><parameter name="PHR">24</parameter><parameter name="PHZ">ML</parameter><parameter name="SPZ">NO</parameter><parameter name="ZFF">1</parameter></FT_-_Parameters_><Acquisition_Parameters_><parameter name="ADT">1</parameter><parameter name="AQM">DD</parameter><parameter name="CFE">0</parameter><parameter name="COR">0</parameter><parameter name="DEL">0</parameter><parameter name="DLY">0</parameter><parameter name="HFW">8000</parameter><parameter name="LFW">0</parameter><parameter name="NSS">32</parameter><parameter name="PLF">AB</parameter><parameter name="RES">6</parameter><parameter name="SOT">0</parameter><parameter name="TCL">MakeCompatibleScalar (0, {WSV=1.000000, ARV=0});</parameter><parameter name="TDL">37</parameter><parameter name="SPO">0</parameter><parameter name="SGN">-1</parameter></Acquisition_Parameters_><Instrument_Parameters_Rf><parameter name="HFL">15800.168544</parameter><parameter name="LFL">0</parameter><parameter name="LWN">15800.168544</parameter><parameter name="ABP">32197</parameter><parameter name="SSP">1</parameter><parameter name="ARG">2</parameter><parameter name="ASG">2</parameter><parameter name="ASS">32</parameter><parameter name="GFW">16</parameter><parameter name="GBW">16</parameter><parameter name="BFW">0</parameter><parameter name="BBW">0</parameter><parameter name="PKA">7263</parameter><parameter name="PKL">4996</parameter><parameter name="PRA">7449</parameter><parameter name="PRL">5001</parameter><parameter name="P2A">1</parameter><parameter name="P2L">1</parameter><parameter name="P2R">1</parameter><parameter name="P2K">1</parameter><parameter name="DAQ">0</parameter><parameter name="AG2">1</parameter><parameter name="SSM">1</parameter><parameter name="RSN">25769</parameter><parameter name="CRR">0</parameter><parameter name="SRT">1654006459.848</parameter><parameter name="DUR">19.6389923095703</parameter><parameter name="TSC">29.1</parameter><parameter name="MVD">0.293870478868484</parameter><parameter name="AN1">0.22581831295933</parameter><parameter name="AN2">0</parameter><parameter name="VSN">2.485 Apr  4 2017</parameter><parameter name="SRN">0085</parameter><parameter name="CAM">0</parameter><parameter name="INS">IR-Biotyper</parameter><parameter name="FOC">69</parameter><parameter name="RDY">1</parameter><parameter name="ARS">32</parameter></Instrument_Parameters_Rf><Sample_Parameters_><parameter name="BLD"></parameter><parameter name="CNM">Admin</parameter><parameter name="CPY"></parameter><parameter name="DPM"></parameter><parameter name="EXP">IRBT_v3_32Scans.XPM</parameter><parameter name="LCT"></parameter><parameter name="SFM">Microplate, HTS-XT</parameter><parameter name="SNM">220531-1301_RTF49M (D_4)_H8_94e41f44-578d-42b4-8777-7063efda43b9.0</parameter><parameter name="XPP">C:\Users\Public\Documents\Bruker\OPUS_8.2.28\XPM</parameter><parameter name="IST">OK</parameter><parameter name="CPG">1252</parameter><parameter name="UID">bf40dc51-f96d-497b-9abe-d673c7f8eed5</parameter></Sample_Parameters_><Instrument_Parameters_><parameter name="HFL">15800.168544</parameter><parameter name="LFL">0</parameter><parameter name="LWN">15800.168544</parameter><parameter name="ABP">32197</parameter><parameter name="SSP">1</parameter><parameter name="ASG">2</parameter><parameter name="ARG">2</parameter><parameter name="ASS">32</parameter><parameter name="GFW">16</parameter><parameter name="GBW">16</parameter><parameter name="BFW">0</parameter><parameter name="BBW">0</parameter><parameter name="PKA">7410</parameter><parameter name="PKL">4988</parameter><parameter name="PRA">7715</parameter><parameter name="PRL">5002</parameter><parameter name="P2A">1</parameter><parameter name="P2L">1</parameter><parameter name="P2R">1</parameter><parameter name="P2K">1</parameter><parameter name="DAQ">0</parameter><parameter name="AG2">1</parameter><parameter name="SSM">1</parameter><parameter name="RSN">13510</parameter><parameter name="CRR">0</parameter><parameter name="SRT">1654006485.959</parameter><parameter name="DUR">19.6379852294922</parameter><parameter name="TSC">29.1</parameter><parameter name="MVD">0.179295599460602</parameter><parameter name="AN1">0.225817124194762</parameter><parameter name="AN2">0</parameter><parameter name="VSN">2.485 Apr  4 2017</parameter><parameter name="SRN">0085</parameter><parameter name="CAM">0</parameter><parameter name="INS">IR-Biotyper</parameter><parameter name="FOC">69</parameter><parameter name="RDY">1</parameter></Instrument_Parameters_><History/></OPUSDataFile>
