<?xml version="1.0" encoding="UTF-8" ?>
<OPUSDataFile><AB><Ydata ylabel="Absorbance Units"><values byteorder="INTEL" format="FLOAT32" numvalues="3497"> -0.04548078 -0.04547369 -0.04547643 -0.04549041 -0.04549436 -0.04548718 -0.04545458 -0.04539806 -0.04533213 -0.04526043
 -0.04521323 -0.04518887 -0.04520017 -0.04523781 -0.04528661 -0.04533894 -0.04537344 -0.04539346 -0.04539251 -0.04538165
 -0.04536712 -0.04535779 -0.04536135 -0.04537715 -0.04540838 -0.04544507 -0.04548621 -0.04551937 -0.04554169 -0.04555123
 -0.04554663 -0.04554174 -0.04553728 -0.04554968 -0.04557861 -0.04562411 -0.0456837 -0.04574211 -0.04579907 -0.04584416
 -0.04588171 -0.04591701 -0.04595307 -0.04599962 -0.04605084 -0.04610566 -0.04615335 -0.04618338 -0.04619505 -0.04618141
 -0.04615871 -0.04613047 -0.04611307 -0.04611363 -0.04612762 -0.04615716 -0.0461818 -0.04619968 -0.04619736 -0.046174
 -0.04613398 -0.04607834 -0.04602163 -0.04596518 -0.04592428 -0.04589928 -0.04590048 -0.04592558 -0.04597627 -0.04604536
 -0.04612381 -0.04620061 -0.04625933 -0.04629442 -0.04629319 -0.04626431 -0.04620617 -0.04613792 -0.04606641 -0.04600386
 -0.04595616 -0.04592002 -0.04589613 -0.0458772 -0.04586204 -0.04585303 -0.0458502 -0.04586509 -0.04589827 -0.04596147
 -0.04605293 -0.04617114 -0.04630809 -0.04643488 -0.04654331 -0.04659445 -0.04659707 -0.04654386 -0.04645747 -0.04636115
 -0.04627144 -0.04621199 -0.04618074 -0.04618678 -0.04620967 -0.04624463 -0.04627254 -0.04628559 -0.04628455 -0.046267
 -0.04624716 -0.04622615 -0.04621537 -0.04621559 -0.04622847 -0.04625375 -0.04628788 -0.04633082 -0.04638083 -0.04643777
 -0.04650117 -0.04656871 -0.04663555 -0.04669707 -0.04674255 -0.04677139 -0.04677672 -0.04676549 -0.04674152 -0.04670881
 -0.04667134 -0.04662802 -0.04657675 -0.04652758 -0.04647928 -0.04645843 -0.04646843 -0.04653507 -0.04666332 -0.0468463
 -0.04708454 -0.04728976 -0.04745666 -0.04747975 -0.04737387 -0.04718148 -0.04692279 -0.04669996 -0.04651188 -0.04640773
 -0.04637599 -0.04642353 -0.04652737 -0.04666798 -0.04681339 -0.0469295 -0.04700272 -0.04700857 -0.04697325 -0.04689793
 -0.04681996 -0.04675131 -0.04670404 -0.04668348 -0.04668185 -0.046699 -0.0467266 -0.04676412 -0.04680861 -0.04685983
 -0.0469144 -0.04697104 -0.04702044 -0.04706001 -0.04707442 -0.04706302 -0.04701433 -0.04693433 -0.04682548 -0.0467003
 -0.04657383 -0.04645732 -0.04636603 -0.04630226 -0.04627299 -0.04627154 -0.04629761 -0.0463423 -0.04640291 -0.0464758
 -0.04655999 -0.04665473 -0.04676112 -0.04686306 -0.04695988 -0.0470187 -0.04703883 -0.04700448 -0.0469197 -0.04680303
 -0.04665962 -0.04651901 -0.04638308 -0.04627151 -0.04618328 -0.04612647 -0.04609653 -0.04609264 -0.04610631 -0.04613077
 -0.04615846 -0.04618192 -0.0462021 -0.04621651 -0.04623259 -0.04625204 -0.04627938 -0.0463162 -0.04636076 -0.04641326
 -0.04646951 -0.04652929 -0.04658795 -0.04664523 -0.04669645 -0.04674134 -0.0467758 -0.04679979 -0.04681009 -0.04680866
 -0.04679762 -0.0467818 -0.04677106 -0.04676763 -0.04678067 -0.04680292 -0.04683165 -0.04685957 -0.04687753 -0.04689718
 -0.04691856 -0.04696268 -0.04703845 -0.04714231 -0.04727923 -0.04741196 -0.04753738 -0.04762423 -0.04767026 -0.04766116
 -0.04759648 -0.04746528 -0.04727221 -0.04704067 -0.04678213 -0.04655499 -0.04636572 -0.04626467 -0.04624211 -0.04631289
 -0.04644092 -0.04658887 -0.0467256 -0.04680177 -0.04683551 -0.04682088 -0.04678857 -0.04675385 -0.04671872 -0.04668968
 -0.04664728 -0.04658807 -0.0465037 -0.04639055 -0.04627277 -0.04615135 -0.04606235 -0.04600669 -0.04600188 -0.04604497
 -0.04612667 -0.04623857 -0.04634367 -0.04643229 -0.04645383 -0.04641983 -0.04632079 -0.04618892 -0.0460647 -0.04595921
 -0.04590248 -0.04587422 -0.04587393 -0.04587163 -0.04585237 -0.04580825 -0.04572967 -0.04563991 -0.0455413 -0.04545543
 -0.04538674 -0.04532829 -0.04528032 -0.04521395 -0.04512852 -0.04501016 -0.04486378 -0.04471936 -0.04458028 -0.04447896
 -0.04440891 -0.04436822 -0.04435243 -0.04435138 -0.04436616 -0.0443958 -0.0444369 -0.0444893 -0.04454009 -0.04458188
 -0.04460473 -0.04460274 -0.04457159 -0.04451133 -0.0444073 -0.04425633 -0.04405124 -0.04378837 -0.04349349 -0.04316771
 -0.04284564 -0.04252846 -0.04223497 -0.04196536 -0.04173021 -0.04152922 -0.04136899 -0.04124475 -0.0411482 -0.04107222
 -0.04099812 -0.04092658 -0.0408502 -0.04077364 -0.04070329 -0.040627 -0.04054319 -0.04042762 -0.04026552 -0.0400601
 -0.03980596 -0.0395273 -0.03922786 -0.03892402 -0.03861808 -0.03831996 -0.03803039 -0.03775859 -0.03750508 -0.03727958
 -0.03708217 -0.03692059 -0.03679015 -0.03668039 -0.03657595 -0.03642875 -0.03623018 -0.03592961 -0.03555926 -0.0351363
 -0.03470107 -0.03430133 -0.0339429 -0.03364673 -0.03339531 -0.03318916 -0.0330002 -0.03282139 -0.03262942 -0.03241705
 -0.03218326 -0.03192637 -0.03165697 -0.03137593 -0.0310815 -0.03077328 -0.03044063 -0.03008509 -0.02971247 -0.02932742
 -0.02895398 -0.02859319 -0.02826157 -0.02795438 -0.02767113 -0.02740521 -0.02714798 -0.02689449 -0.02663684 -0.026374
 -0.0261028 -0.02582489 -0.02554197 -0.02524824 -0.02494478 -0.02461421 -0.0242523 -0.02385325 -0.02341242 -0.02296564
 -0.02251443 -0.02211053 -0.02175517 -0.02146307 -0.02122958 -0.02102611 -0.02084646 -0.02064701 -0.02042893 -0.02016935
 -0.01988131 -0.01957835 -0.01927277 -0.01899095 -0.01872607 -0.01848683 -0.01824636 -0.0179907 -0.01769901 -0.01735276
 -0.01696754 -0.01654023 -0.01610651 -0.01567335 -0.01526107 -0.01487406 -0.01451201 -0.01417561 -0.01385031 -0.01353509
 -0.01320884 -0.01287096 -0.01250616 -0.0121167 -0.01170272 -0.01127003 -0.01083375 -0.01040123 -0.009994684 -0.009615427
 -0.009278278 -0.0089702 -0.008687476 -0.008408916 -0.008118223 -0.007808233 -0.007467001 -0.007113738 -0.006748776 -0.006403273
 -0.00608508 -0.005803927 -0.005565057 -0.005339624 -0.005126627 -0.004881986 -0.004604347 -0.00427598 -0.003900691 -0.003501576
 -0.003083588 -0.00268237 -0.002296779 -0.001943323 -0.001615229 -0.001307378 -0.001013351 -0.0007213661 -0.0004306001 -0.0001346844
 0.0001607624 0.0004537748 0.0007403647 0.00101558 0.001288665 0.001559499 0.001845388 0.002150939 0.002479998 0.00283541
 0.00319944 0.003571376 0.003926771 0.004264748 0.004573271 0.004853912 0.005113955 0.005356514 0.005599839 0.005844996
 0.006105484 0.006378365 0.006664586 0.006960199 0.007259923 0.007561874 0.007862374 0.008160836 0.00845539 0.008747648
 0.009037153 0.009328503 0.009624337 0.009921268 0.01022135 0.01050576 0.01077218 0.01100782 0.01121051 0.01140037
 0.01157895 0.01178451 0.01201641 0.01228749 0.01259086 0.01290128 0.01321349 0.0134966 0.01375527 0.01398243
 0.01418868 0.01438665 0.01458162 0.01478493 0.01499291 0.01520674 0.01542145 0.01563442 0.0158451 0.01605263
 0.01625796 0.01646112 0.01666305 0.01686358 0.01706648 0.01727201 0.01748312 0.0176998 0.01791896 0.0181408
 0.01836479 0.01859305 0.01883631 0.01909438 0.01937526 0.01967049 0.01996797 0.0202577 0.02051778 0.02075076
 0.02094827 0.0211244 0.02128669 0.02144352 0.02160298 0.02175893 0.02191148 0.02205277 0.02217939 0.02229793
 0.0224078 0.0225249 0.02265057 0.02279223 0.02294998 0.02311835 0.02329718 0.02348274 0.02367616 0.02388204
 0.02409929 0.02432892 0.02456495 0.02479611 0.02501671 0.02521209 0.0253848 0.02552924 0.02565802 0.02577688
 0.02589902 0.02603448 0.02618063 0.02634227 0.02649732 0.0266418 0.02676027 0.02684764 0.02691994 0.02697741
 0.0270487 0.02713461 0.02723438 0.02734518 0.02743809 0.02751396 0.02755931 0.02758264 0.02760347 0.02762753
 0.02767908 0.02775178 0.02784855 0.02795739 0.02806609 0.02817038 0.02826122 0.02834629 0.02842536 0.02851179
 0.02861051 0.02872721 0.02886637 0.02901497 0.0291736 0.02931458 0.02943568 0.0295175 0.0295596 0.02957188
 0.02955689 0.02954445 0.02953389 0.02953915 0.0295542 0.02956538 0.02957335 0.02956857 0.02956514 0.02958107
 0.02962261 0.0297105 0.02982123 0.02994789 0.03006061 0.03013706 0.03018534 0.03019732 0.03021403 0.03024416
 0.03030973 0.03041882 0.03054657 0.03069289 0.03081093 0.0308985 0.03092394 0.03088907 0.03079699 0.03065535
 0.03050201 0.03034631 0.03023885 0.03018 0.03019964 0.03028189 0.03042054 0.03058926 0.03075998 0.03091201
 0.03101933 0.03108262 0.03109086 0.03106872 0.03101953 0.03097372 0.03093888 0.03093167 0.03095586 0.0310155
 0.03111111 0.03124741 0.03142453 0.03164226 0.03189781 0.03216511 0.03243683 0.03266109 0.03283405 0.03291152
 0.0329051 0.03281152 0.03266008 0.03248996 0.03233062 0.03223152 0.03219346 0.03224169 0.03233598 0.03246902
 0.03258608 0.03266569 0.03268208 0.03262075 0.03250198 0.03232379 0.03213078 0.03192648 0.03174366 0.0315838
 0.03145212 0.03134757 0.03126068 0.03119157 0.03113574 0.03109524 0.0310751 0.03107508 0.03109999 0.03114136
 0.0311925 0.03123531 0.03125015 0.03121961 0.03112173 0.03095956 0.03072259 0.03044256 0.03012434 0.02980821
 0.02950467 0.02923503 0.02900525 0.02881286 0.02865879 0.02852826 0.0284204 0.0283125 0.02820336 0.02807036
 0.02791591 0.02773893 0.02754666 0.02736357 0.02719131 0.02704971 0.0269262 0.02681151 0.02669123 0.02654246
 0.02637 0.02616447 0.02595253 0.02574332 0.02556304 0.02542602 0.02533105 0.02528534 0.02525409 0.02523524
 0.02518468 0.02509758 0.0249575 0.0247638 0.02453806 0.02428266 0.02403156 0.02378483 0.02356073 0.02335673
 0.02317405 0.02301077 0.02286347 0.02273064 0.02260977 0.02249648 0.02238659 0.02227275 0.0221486 0.02200858
 0.02184654 0.02166669 0.02146682 0.02126236 0.02105606 0.02086156 0.02068237 0.020517 0.02036614 0.0202186
 0.02007385 0.01992505 0.01977228 0.01961459 0.01945185 0.01928227 0.01910655 0.01892491 0.0187407 0.01856167
 0.01838982 0.01823386 0.01808793 0.01795074 0.01781161 0.01766071 0.01749621 0.01731167 0.01711951 0.01692261
 0.01673113 0.0165507 0.01637074 0.01619154 0.01599396 0.01577523 0.01553939 0.01528672 0.015048 0.01482421
 0.01463808 0.01448536 0.01435487 0.01424008 0.01411159 0.01396901 0.01379466 0.01359698 0.01338007 0.01315548
 0.01293774 0.01273311 0.01255165 0.01239282 0.01225811 0.01214878 0.01206463 0.01201125 0.01199262 0.01199746
 0.01202895 0.01204174 0.01203316 0.01194979 0.01178879 0.01154113 0.01121137 0.01085121 0.01046851 0.01013655
 0.009854119 0.009661086 0.009539742 0.009473545 0.009436153 0.009376704 0.00928366 0.009117364 0.008899459 0.008627873
 0.008343047 0.008067856 0.007820017 0.007616086 0.007437807 0.007283594 0.007137551 0.006993391 0.006871623 0.006772617
 0.00672958 0.006744265 0.006813686 0.006933885 0.007054642 0.007170324 0.007220668 0.007207984 0.007104277 0.006924144
 0.006684377 0.006405135 0.006128076 0.005860175 0.005630261 0.005422407 0.005234421 0.00504884 0.004850182 0.004649865
 0.004445337 0.004263206 0.00411321 0.00399175 0.003903017 0.003812403 0.003716154 0.0036015 0.003467571 0.003343973
 0.003232143 0.003160417 0.003124829 0.003116458 0.003129858 0.003139526 0.0031465 0.003140362 0.003124779 0.003102931
 0.003072656 0.003034844 0.002980724 0.002904909 0.00279734 0.002650552 0.002461276 0.002223201 0.001951408 0.001644203
 0.0013377 0.001036027 0.0007756601 0.0005618079 0.0004001076 0.0002911968 0.0002017139 0.000129082 2.934274E-05 -9.614202E-05
 -0.000263682 -0.0004654451 -0.0006824927 -0.0009076028 -0.001112512 -0.00129848 -0.001453365 -0.001585261 -0.001698144 -0.001800653
 -0.001900523 -0.002004278 -0.002118519 -0.002242437 -0.00238022 -0.002516125 -0.002648584 -0.002756383 -0.002833614 -0.00288385
 -0.002904519 -0.002934641 -0.002976292 -0.003066041 -0.003202704 -0.003377619 -0.003585326 -0.003785484 -0.003979632 -0.004149065
 -0.004305186 -0.004468286 -0.004642117 -0.004847581 -0.005068763 -0.005296752 -0.005513639 -0.005698186 -0.005853529 -0.005973298
 -0.006072506 -0.0061577 -0.006229219 -0.006290569 -0.006327156 -0.006336146 -0.006313716 -0.006257632 -0.006187857 -0.006105312
 -0.00604374 -0.006004572 -0.006015516 -0.006074893 -0.006188612 -0.006349677 -0.006537134 -0.006741967 -0.006931475 -0.007101569
 -0.007229477 -0.007318479 -0.007362668 -0.007369221 -0.00734118 -0.007286815 -0.007210522 -0.007121071 -0.007022385 -0.006921118
 -0.006820115 -0.00672053 -0.006623701 -0.006524361 -0.006423006 -0.006304114 -0.006166933 -0.005984378 -0.00575523 -0.005455052
 -0.005086672 -0.004653259 -0.004163419 -0.003650865 -0.003122014 -0.002612372 -0.002116739 -0.001644251 -0.001182653 -0.0007192899
 -0.0002503069 0.0002345404 0.0007261048 0.001221482 0.001715076 0.002201179 0.002690071 0.003183094 0.003690531 0.004217222
 0.00474752 0.005282081 0.005784291 0.006251961 0.006660697 0.007010928 0.007307341 0.007551616 0.007757538 0.007924091
 0.008053029 0.0081459 0.008202973 0.008237143 0.008267436 0.008312786 0.00840487 0.008550387 0.008769013 0.009048889
 0.009389736 0.009776486 0.01020163 0.01066267 0.01115656 0.01168904 0.01226121 0.01287354 0.01352721 0.01420967
 0.01492051 0.01562963 0.01633427 0.01698766 0.01758622 0.01808211 0.01847561 0.01874094 0.0188835 0.01890426
 0.01880708 0.01860124 0.01828269 0.01785074 0.01729963 0.01662109 0.01582231 0.01490019 0.01387949 0.01276565
 0.01159116 0.01036288 0.009115635 0.007853596 0.006619183 0.005415992 0.004289726 0.003243568 0.002300651 0.001460004
 0.0007060359 3.499332E-05 -0.0005868523 -0.001159661 -0.001702087 -0.002211543 -0.0026888 -0.003136493 -0.003558183 -0.003960376
 -0.004354548 -0.004738519 -0.005117188 -0.005477775 -0.005813555 -0.00611779 -0.006383339 -0.006620206 -0.006828932 -0.007022551
 -0.007205198 -0.007372754 -0.00752695 -0.00764223 -0.007717294 -0.007720344 -0.007651048 -0.00749988 -0.007273078 -0.007005972
 -0.006710385 -0.006452992 -0.006238589 -0.006118287 -0.006078644 -0.006123565 -0.006227276 -0.006361028 -0.006501649 -0.006620144
 -0.006702605 -0.006732803 -0.006706006 -0.006614529 -0.006467085 -0.006261121 -0.006022436 -0.00575216 -0.00548972 -0.005237532
 -0.005045342 -0.004915955 -0.004909943 -0.005030495 -0.005336795 -0.005827497 -0.00652791 -0.007423338 -0.008475824 -0.009656422
 -0.01087374 -0.01210009 -0.01324029 -0.0142913 -0.01520439 -0.01600703 -0.01670319 -0.01732826 -0.01790637 -0.01845259
 -0.01898157 -0.01948555 -0.01996596 -0.02041017 -0.02081536 -0.02117801 -0.02149647 -0.02178005 -0.02202897 -0.02226178
 -0.0224794 -0.02269954 -0.02292179 -0.02315229 -0.02338891 -0.02362676 -0.02386323 -0.02408949 -0.02430286 -0.02449428
 -0.02466277 -0.02480132 -0.02491671 -0.02500929 -0.02509535 -0.02518421 -0.02528879 -0.02541978 -0.02556998 -0.02574292
 -0.02591267 -0.02607545 -0.0262094 -0.02631012 -0.02638088 -0.02642114 -0.02645479 -0.02648277 -0.02652242 -0.02657202
 -0.02662644 -0.02668411 -0.02673343 -0.02677921 -0.02682735 -0.02688565 -0.02697376 -0.02708951 -0.02724216 -0.02741548
 -0.02760011 -0.02777755 -0.02793291 -0.02805922 -0.0281483 -0.02820617 -0.02823091 -0.02823884 -0.02823101 -0.02823077
 -0.02824078 -0.02827905 -0.02834736 -0.02844303 -0.02856513 -0.02869299 -0.0288255 -0.02894407 -0.0290499 -0.02913802
 -0.02921049 -0.02927037 -0.02931883 -0.02935901 -0.0293926 -0.0294226 -0.02945131 -0.02948244 -0.02951509 -0.02955102
 -0.02958436 -0.02961308 -0.02963278 -0.02964026 -0.02964089 -0.02963362 -0.02963376 -0.02964281 -0.0296737 -0.02972773
 -0.02980339 -0.0299 -0.03000129 -0.03010607 -0.03019706 -0.03027535 -0.03033559 -0.03038124 -0.03041921 -0.03045155
 -0.03048645 -0.03052147 -0.0305572 -0.03058993 -0.03061506 -0.0306349 -0.03064751 -0.03066269 -0.03068399 -0.03071918
 -0.03077277 -0.03084091 -0.03092479 -0.03101205 -0.03110148 -0.03118291 -0.03125539 -0.03131754 -0.03136957 -0.03141729
 -0.03146131 -0.03150932 -0.03156119 -0.03162104 -0.03168697 -0.03175633 -0.03182646 -0.03189079 -0.03194849 -0.03199477
 -0.03203265 -0.03206243 -0.03208927 -0.03211687 -0.03214727 -0.03218335 -0.03222098 -0.03225986 -0.03229463 -0.03232329
 -0.03234859 -0.03236988 -0.03239773 -0.03243284 -0.03248329 -0.03254911 -0.0326278 -0.03271823 -0.03281038 -0.03290324
 -0.03298702 -0.03306188 -0.03312283 -0.03317139 -0.03320754 -0.03323416 -0.03325443 -0.03327239 -0.03329213 -0.03331862
 -0.03335631 -0.03340757 -0.03347593 -0.03355615 -0.03364888 -0.03374199 -0.03383317 -0.03391426 -0.03398318 -0.03404371
 -0.03409579 -0.03414864 -0.03420246 -0.03425912 -0.03431784 -0.03437263 -0.03442342 -0.03446617 -0.03450252 -0.03453508
 -0.03456519 -0.03459702 -0.03463015 -0.03466546 -0.03470309 -0.03474289 -0.03478681 -0.03483624 -0.03489185 -0.03495552
 -0.03502214 -0.03509111 -0.03515559 -0.03521348 -0.03526481 -0.0353087 -0.03535283 -0.03539772 -0.03544904 -0.03550674
 -0.03556562 -0.03562471 -0.03567296 -0.03571085 -0.03573364 -0.0357448 -0.03575142 -0.0357573 -0.03577399 -0.03580147
 -0.03584565 -0.03590191 -0.0359685 -0.03603975 -0.0361114 -0.03617998 -0.03624273 -0.03629889 -0.03634748 -0.03638942
 -0.03642432 -0.03645565 -0.03648353 -0.03651318 -0.03654499 -0.03658267 -0.03662626 -0.03667431 -0.03672609 -0.03677467
 -0.03681949 -0.03685354 -0.03687828 -0.03689358 -0.03690287 -0.03691294 -0.03692619 -0.03694983 -0.03698185 -0.03702378
 -0.03707045 -0.03711904 -0.03716558 -0.03720691 -0.03724376 -0.0372751 -0.03730517 -0.03733484 -0.03736624 -0.03740023
 -0.03743342 -0.03746567 -0.03749238 -0.0375135 -0.03753127 -0.03754644 -0.03756717 -0.03759326 -0.03762891 -0.03767181
 -0.03771731 -0.03776339 -0.03780298 -0.03783726 -0.03786431 -0.03788763 -0.03791007 -0.03793403 -0.03796248 -0.03799485
 -0.03803196 -0.03807151 -0.03811313 -0.03815435 -0.03819466 -0.03823214 -0.03826647 -0.03829646 -0.03832192 -0.03834328
 -0.03836059 -0.03837666 -0.03839181 -0.03841058 -0.03843274 -0.03846022 -0.03849128 -0.03852204 -0.0385502 -0.0385685
 -0.03857757 -0.0385738 -0.0385628 -0.03854783 -0.03853639 -0.03853506 -0.03854664 -0.03857573 -0.03861609 -0.03866825
 -0.03871933 -0.03876704 -0.03880043 -0.03881689 -0.03881762 -0.03880198 -0.03878324 -0.03876205 -0.03875082 -0.03874907
 -0.03875725 -0.03877427 -0.03879426 -0.0388184 -0.03884703 -0.03888229 -0.03893003 -0.03898821 -0.03905785 -0.03913234
 -0.03920555 -0.03927236 -0.03932646 -0.03936865 -0.03939693 -0.03941626 -0.03942759 -0.03943576 -0.03944199 -0.03944906
 -0.03945754 -0.0394684 -0.03948173 -0.03949825 -0.03951801 -0.03954148 -0.03956843 -0.03959706 -0.03962673 -0.03965304
 -0.03967603 -0.03969299 -0.03970566 -0.03971634 -0.03972683 -0.03974134 -0.03975913 -0.03978143 -0.03980573 -0.03983027
 -0.03985471 -0.03987786 -0.03990236 -0.03992909 -0.03995874 -0.03999214 -0.04002596 -0.04005986 -0.04009115 -0.0401194
 -0.04014734 -0.04017511 -0.04020614 -0.04023993 -0.04027312 -0.04030444 -0.04032532 -0.04033602 -0.04033184 -0.04031625
 -0.04029369 -0.0402688 -0.04025071 -0.04024095 -0.04024548 -0.04026109 -0.04028773 -0.04032118 -0.0403592 -0.04039984
 -0.04044219 -0.04048456 -0.04052685 -0.04056542 -0.04059958 -0.04062822 -0.04065095 -0.04067234 -0.04069263 -0.04071597
 -0.04074192 -0.04076727 -0.04079125 -0.0408077 -0.04081751 -0.04081995 -0.04081709 -0.04081319 -0.04080914 -0.04080834
 -0.04081025 -0.04081536 -0.04082354 -0.04083472 -0.04084921 -0.04086773 -0.04088818 -0.04091078 -0.04093015 -0.040945
 -0.04095228 -0.0409506 -0.04094516 -0.040936 -0.04093315 -0.04093708 -0.04095231 -0.04097822 -0.04101013 -0.04104702
 -0.04108108 -0.0411121 -0.04113513 -0.04115098 -0.04115851 -0.04115983 -0.04115741 -0.04115352 -0.04115174 -0.04115232
 -0.04115673 -0.04116402 -0.04117366 -0.04118647 -0.04120269 -0.04122282 -0.0412478 -0.04127308 -0.04129836 -0.04131817
 -0.04133176 -0.04134019 -0.04134354 -0.04134661 -0.04134943 -0.0413535 -0.04135886 -0.04136562 -0.04137539 -0.04139294
 -0.04142086 -0.04146715 -0.0415334 -0.04162594 -0.04174406 -0.04188979 -0.04206067 -0.04225577 -0.04247224 -0.04270725
 -0.04296362 -0.04323999 -0.04354696 -0.04388626 -0.04426854 -0.04469726 -0.04516551 -0.04567464 -0.04619096 -0.04671251
 -0.04718639 -0.04761013 -0.04793819 -0.0481714 -0.04829149 -0.04829902 -0.04818641 -0.04795286 -0.04758254 -0.04710159
 -0.04653125 -0.04592755 -0.04536024 -0.04486029 -0.04447692 -0.04420508 -0.04405519 -0.04401461 -0.0440837 -0.04424157
 -0.04449106 -0.04477334 -0.04508499 -0.04534074 -0.04553037 -0.04563527 -0.0456546 -0.04564268 -0.04560081 -0.0455616
 -0.04552047 -0.04546781 -0.04540115 -0.04530514 -0.04518499 -0.04504316 -0.04488933 -0.04474097 -0.04460085 -0.04448241
 -0.04437326 -0.04427048 -0.04415667 -0.04401901 -0.04385922 -0.04367074 -0.04347825 -0.04328525 -0.04311639 -0.04297717
 -0.04287202 -0.0428029 -0.04275395 -0.04272432 -0.04268809 -0.04264449 -0.04257569 -0.04248397 -0.04237166 -0.04224372
 -0.04211809 -0.04199836 -0.04190248 -0.04182895 -0.04178489 -0.04176306 -0.04175947 -0.04176445 -0.04176939 -0.04176855
 -0.04175582 -0.04173252 -0.04169724 -0.04165467 -0.04160544 -0.04155424 -0.04150148 -0.04145321 -0.04140981 -0.04137906
 -0.04136138 -0.04136021 -0.04137493 -0.04139904 -0.04143096 -0.0414578 -0.04147954 -0.04148816 -0.04148697 -0.041479
 -0.04146861 -0.04146532 -0.04146822 -0.04148184 -0.04149836 -0.04151352 -0.04152064 -0.04151309 -0.04149529 -0.04146562
 -0.04143674 -0.04141162 -0.04139773 -0.04139782 -0.04140626 -0.04142328 -0.04143586 -0.04144328 -0.04143763 -0.04141934
 -0.04139178 -0.04135626 -0.04132234 -0.0412902 -0.04126586 -0.04124783 -0.0412355 -0.04122761 -0.04122162 -0.04121745
 -0.04121437 -0.0412116 -0.04120877 -0.04120377 -0.04119505 -0.04118253 -0.04116509 -0.04114662 -0.0411276 -0.04111252
 -0.04110258 -0.04109716 -0.04109653 -0.04109616 -0.04109578 -0.04109318 -0.04108865 -0.04108583 -0.041085 -0.04109016
 -0.04110036 -0.0411146 -0.0411314 -0.0411466 -0.04115968 -0.04116788 -0.04117132 -0.04116927 -0.04116157 -0.04114765
 -0.04112832 -0.04110324 -0.04107561 -0.04104609 -0.04101882 -0.04099482 -0.04097728 -0.04096703 -0.04096457 -0.0409703
 -0.04098037 -0.04099458 -0.04100693 -0.04101737 -0.04102365 -0.04102661 -0.04103034 -0.0410355 -0.0410472 -0.04106443
 -0.04108767 -0.04111473 -0.04114217 -0.04116846 -0.04119016 -0.04120777 -0.04122024 -0.04122943 -0.04123624 -0.04124142
 -0.04124603 -0.04124774 -0.0412463 -0.04123898 -0.04122483 -0.0412057 -0.04118135 -0.04115828 -0.04113684 -0.04112259
 -0.04111544 -0.04111534 -0.04112151 -0.04112924 -0.04113785 -0.04114213 -0.04114238 -0.04113632 -0.0411257 -0.041112
 -0.0410978 -0.04108685 -0.04108019 -0.04108079 -0.04108583 -0.04109493 -0.04110424 -0.04111142 -0.04111773 -0.04112241
 -0.0411308 -0.04114417 -0.04116239 -0.04118621 -0.0412058 -0.04122064 -0.04122277 -0.04121263 -0.04119501 -0.04117137
 -0.0411537 -0.0411419 -0.04114244 -0.04115328 -0.04117282 -0.04119915 -0.0412285 -0.04125939 -0.04128895 -0.0413155
 -0.04133664 -0.04135187 -0.04135967 -0.04136238 -0.04136014 -0.0413566 -0.04135287 -0.04135058 -0.04135052 -0.04135074
 -0.04135126 -0.04134851 -0.04134227 -0.04133099 -0.04131488 -0.04129638 -0.04127608 -0.04125896 -0.04124531 -0.04123915
 -0.04123974 -0.04124758 -0.04126107 -0.04127776 -0.04129631 -0.04131403 -0.04133069 -0.04134532 -0.04135776 -0.04136804
 -0.04137475 -0.04137735 -0.04137489 -0.04136643 -0.04135463 -0.04133935 -0.04132593 -0.04131493 -0.04130983 -0.04131092
 -0.04131727 -0.04132867 -0.04134161 -0.04135578 -0.04136755 -0.04137679 -0.04138097 -0.04138056 -0.04137498 -0.04136582
 -0.04135527 -0.04134531 -0.04133962 -0.04133788 -0.04134197 -0.04134801 -0.04135467 -0.04135782 -0.04135476 -0.04134662
 -0.04133242 -0.04131793 -0.04130381 -0.04129543 -0.04129352 -0.04130011 -0.04131541 -0.04133727 -0.0413653 -0.04139282
 -0.04141914 -0.04143579 -0.04144333 -0.04143878 -0.04142465 -0.04140562 -0.04138418 -0.04136711 -0.04135477 -0.04135083
 -0.04135315 -0.04136177 -0.04137276 -0.04138417 -0.04139231 -0.04139483 -0.04139175 -0.041382 -0.04136965 -0.04135503
 -0.04134269 -0.04133317 -0.04132949 -0.04133189 -0.04134136 -0.04135773 -0.04137845 -0.04140287 -0.04142519 -0.04144534
 -0.04145938 -0.04146885 -0.04147555 -0.04148122 -0.04149028 -0.04150221 -0.04151874 -0.04153729 -0.04155658 -0.04157353
 -0.04158581 -0.04159228 -0.04159138 -0.04158528 -0.04157382 -0.0415613 -0.04154847 -0.04153806 -0.04153061 -0.04152567
 -0.04152328 -0.04152204 -0.04152194 -0.04152274 -0.04152441 -0.04152678 -0.0415295 -0.04153103 -0.04153099 -0.04152703
 -0.04152051 -0.04151205 -0.04150497 -0.04150386 -0.04151025 -0.04152846 -0.04155403 -0.04158664 -0.04161854 -0.04164628
 -0.04166598 -0.04167522 -0.04167603 -0.04166822 -0.04165507 -0.04163704 -0.04161504 -0.04158915 -0.0415597 -0.04152684
 -0.04149333 -0.04145965 -0.04143099 -0.04140719 -0.04139116 -0.04138076 -0.0413721 -0.04136276 -0.04134556 -0.04132191
 -0.04128933 -0.04125379 -0.04121942 -0.04119125 -0.04117423 -0.04116804 -0.04117453 -0.04118892 -0.04121085 -0.04123364
 -0.04125626 -0.04127258 -0.0412817 -0.04128088 -0.04126979 -0.04125063 -0.04122374 -0.04119521 -0.04116565 -0.04114255
 -0.04112576 -0.04111942 -0.04112148 -0.04112884 -0.04113898 -0.041145 -0.04114795 -0.0411454 -0.04114193 -0.04114138
 -0.04114499 -0.04115643 -0.04116911 -0.04118193 -0.0411866 -0.04117974 -0.04116068 -0.04112773 -0.04108872 -0.04104402
 -0.04100357 -0.04096813 -0.04094276 -0.04092739 -0.0409197 -0.04091905 -0.04091961 -0.04092124 -0.04092024 -0.04091705
 -0.04091089 -0.04090233 -0.04089176 -0.04088025 -0.04086942 -0.04085978 -0.0408528 -0.04084713 -0.0408424 -0.04083744
 -0.04083132 -0.04082503 -0.04081877 -0.040813 -0.04080838 -0.04080127 -0.04079153 -0.04077379 -0.04074759 -0.040712
 -0.04066727 -0.04061864 -0.04056675 -0.04051872 -0.04047451 -0.04043777 -0.04040777 -0.04038408 -0.04036678 -0.04035568
 -0.04035136 -0.04035541 -0.04036543 -0.04038115 -0.04039625 -0.04040677 -0.04040851 -0.04039746 -0.04037725 -0.04034743
 -0.04031499 -0.04028132 -0.04025027 -0.04022267 -0.04019805 -0.04017646 -0.04015587 -0.04013627 -0.04011725 -0.04009929
 -0.04008582 -0.04007743 -0.04007906 -0.04008946 -0.04010899 -0.04013297 -0.04015322 -0.040165 -0.04015734 -0.04013196
 -0.04008489 -0.04002429 -0.0399533 -0.03988098 -0.03981186 -0.03975182 -0.03970407 -0.03966833 -0.0396459 -0.03962986
 -0.03961984 -0.03960735 -0.03959165 -0.03957066 -0.03954465 -0.03952137 -0.03950149 -0.03949493 -0.03950007 -0.03951646
 -0.03953922 -0.03955388 -0.03955844 -0.03954022 -0.0395049 -0.03945415 -0.03939527 -0.03933586 -0.03927958 -0.03923138
 -0.03919101 -0.03916023 -0.03913513 -0.03911538 -0.03909542 -0.03907383 -0.03904895 -0.0390201 -0.03898992 -0.0389586
 -0.03892684 -0.03889459 -0.03885975 -0.03882234 -0.03878153 -0.03873755 -0.03869103 -0.03864187 -0.03858991 -0.03853558
 -0.03847944 -0.03842225 -0.03836554 -0.03830901 -0.038253 -0.03819678 -0.03813954 -0.03808238 -0.0380255 -0.03797025
 -0.03791728 -0.03786628 -0.03781718 -0.03777023 -0.03772532 -0.03768449 -0.03764794 -0.03761581 -0.0375879 -0.03755947
 -0.0375297 -0.03748966 -0.03743882 -0.03736886 -0.03728247 -0.03718223 -0.03707291 -0.03696603 -0.03686206 -0.03676792
 -0.0366783 -0.03659087 -0.03650039 -0.03640117 -0.03629591 -0.03618257 -0.03607178 -0.03596573 -0.03587509 -0.03580334
 -0.03575085 -0.03572002 -0.03569018 -0.03566048 -0.03560054 -0.03550975 -0.03538717 -0.03523584 -0.03508275 -0.03492814
 -0.03478841 -0.03465912 -0.03453603 -0.03441472 -0.03428379 -0.03414282 -0.03398524 -0.0338157 -0.03363536 -0.0334513
 -0.03326955 -0.033091 -0.03292086 -0.03274454 -0.03256044 -0.03234807 -0.03210058 -0.03182091 -0.03150654 -0.031183
 -0.03085209 -0.03053074 -0.03021943 -0.02991927 -0.02962968 -0.02934664 -0.02906917 -0.02879114 -0.02851117 -0.02822145
 -0.02792266 -0.0276111 -0.02729155 -0.02696921 -0.0266475 -0.02633272 -0.02602287 -0.02571835 -0.0254173 -0.0251179
 -0.02482338 -0.02453403 -0.02425445 -0.02398748 -0.02372468 -0.02346802 -0.02318323 -0.02286797 -0.02249081 -0.02205174
 -0.02158128 -0.02108312 -0.02060665 -0.02014671 -0.01970423 -0.01927238 -0.01882998 -0.01837685 -0.01790346 -0.0174094
 -0.01689503 -0.01634584 -0.01575441 -0.01508873 -0.01432436 -0.01344331 -0.01241612 -0.01129828 -0.01008946 -0.008892273
 -0.007731799 -0.006650792 -0.005662314 -0.004744831 -0.003898652 -0.003084446 -0.002299659 -0.001490676 -0.0006522634 0.000292396
 0.001336458 0.002501768 0.003749477 0.004964565 0.006136859 0.007176178 0.008125964 0.009011848 0.009867377 0.01074093
 0.01163231 0.01255811 0.01350322 0.01446404 0.01543095 0.01640292 0.01736068 0.01830095 0.01920405 0.02006427
 0.0208963 0.02170077 0.02249447 0.02327717 0.02401613 0.0247084 0.02530906 0.02582411 0.02625711 0.02662064
 0.02695616 0.02726919 0.02759534 0.02792328 0.02825055 0.02856975 0.02886925 0.02915552 0.02943299 0.02969509
 0.02994277 0.03015863 0.03033527 0.03047099 0.03056187 0.03062363 0.03065734 0.0306806 0.03069538 0.03070411
 0.03070655 0.03068434 0.03063703 0.03055249 0.03043279 0.03028185 0.03010191 0.02990042 0.02968178 0.02945703
 0.02923366 0.02902781 0.02884235 0.02868664 0.02855891 0.02845795 0.02839147 0.02836038 0.02838041 0.02845903
 0.02859566 0.0287937 0.02903588 0.02931977 0.02963756 0.02998804 0.03037459 0.03079731 0.03125708 0.03175364
 0.03228498 0.03285039 0.03344649 0.03407062 0.03471288 0.03537083 0.03603256 0.03670224 0.03737908 0.03807245
 0.0387922 0.03954305 0.04033371 0.0411576 0.04201588 0.04289386 0.04378741 0.04468437 0.04558124 0.04647232
 0.04735724 0.04822533 0.04907603 0.04989348 0.05067723 0.05143437 0.05216802 0.05291679 0.05367757 0.05446073
 0.0552478 0.05598106 0.05665525 0.05722472 0.05770878 0.05811954 0.05846615 0.05876709 0.05901216 0.05919974
 0.05932071 0.05937368 0.05933951 0.05922034 0.05895999 0.05854324 0.0579473 0.05715207 0.05628715 0.05536232
 0.05446833 0.05360833 0.05272288 0.0518088 0.05081034 0.04973364 0.04858287 0.04736434 0.04610774 0.04479859
 0.04343037 0.04196117 0.04030864 0.03849147 0.03644835 0.03436467 0.03236636 0.0305463 0.0290254 0.02766673
 0.02645034 0.02525797 0.02404791 0.02282036 0.02156532 0.02033688 0.01914005 0.01799277 0.01689567 0.01582291
 0.01477318 0.01372201 0.0126727 0.01162813 0.01059621 0.009604595 0.008658107 0.007784424 0.006975172 0.006233206
 0.005539454 0.004877273 0.004225173 0.003566103 0.002874478 0.002131042 0.001329134 0.0004438404 -0.0004359529 -0.001301596
 -0.002038936 -0.002616797 -0.003081119 -0.003429692 -0.003768506 -0.004102584 -0.004477229 -0.004888869 -0.005311765 -0.005740448
 -0.00612898 -0.006482734 -0.006796706 -0.007075949 -0.007335231 -0.00756158 -0.007743541 -0.007863594 -0.0078928 -0.0078391
 -0.007694904 -0.007484957 -0.007220558 -0.006916223 -0.006581692 -0.006213642 -0.005817635 -0.005362519 -0.004849896 -0.004208646
 -0.003432347 -0.002466846 -0.001310135 -5.58455E-05 0.001284139 0.002534588 0.003700551 0.004719703 0.005608256 0.006391355
 0.007071973 0.007667081 0.008178834 0.008609429 0.008984162 0.0093232 0.009670424 0.01007141 0.01053054 0.01107912
 0.01164263 0.01220013 0.01270348 0.01312909 0.0135032 0.01382467 0.0141341 0.01443562 0.01474844 0.01507365
 0.01540375 0.01573789 0.01606256 0.0163794 0.01668978 0.01699821 0.01732109 0.01766095 0.01803347 0.01843411
 0.0188624 0.01931435 0.01978261 0.0202737 0.02079043 0.02133743 0.02192177 0.02253031 0.02316243 0.02379614
 0.02442515 0.02504103 0.02564072 0.02622903 0.02680694 0.02736676 0.02790802 0.0283947 0.02882462 0.02916027
 0.02940254 0.0295383 0.02956814 0.02948825 0.02929569 0.02898116 0.02854386 0.02797527 0.02728491 0.02647641
 0.0255691 0.0245777 0.0235189 0.02240715 0.02124351 0.02003155 0.01876791 0.01744634 0.01609864 0.01472287
 0.01339314 0.01211655 0.01094121 0.009870007 0.008887894 0.007992664 0.007150854 0.006363568 0.005620655 0.004924984
 0.004283323 0.003692777 0.003152193 0.002652309 0.002179048 0.00172186 0.001264171 0.0007979748 0.0003110155 -0.0001974216
 -0.0007340085 -0.001285274 -0.001850957 -0.002406097 -0.002944577 -0.003449587 -0.003915532 -0.004350024 -0.004752325 -0.005144433
 -0.005527547 -0.005908677 -0.006286112 -0.006638268 -0.006963035 -0.007234965 -0.007457844 -0.007630863 -0.00776054 -0.007862524
 -0.007939268 -0.008002696 -0.008050131 -0.008083354 -0.008098571 -0.008091583 -0.008065856 -0.008018859 -0.007966363 -0.007911736
 -0.007874481 -0.007860491 -0.007879152 -0.00793393 -0.008020393 -0.00813903 -0.008277356 -0.008434703 -0.008597366 -0.008764943
 -0.008928956 -0.009089817 -0.009246113 -0.009397561 -0.009543174 -0.009680601 -0.009804006 -0.009910833 -0.009993423 -0.01005287
 -0.01008642 -0.01009896 -0.01009288 -0.01007373 -0.01004521 -0.01001027 -0.00997113 -0.009927493 -0.009879591 -0.009827113
 -0.009769388 -0.009711269 -0.009652823 -0.009602717 -0.00956146 -0.009534352 -0.009521247 -0.009520885 -0.009532892 -0.009554155
 -0.009585043 -0.009625191 -0.009675312 -0.009737388 -0.009810774 -0.009896441 -0.009990382 -0.01008938 -0.01018712 -0.01027708
 -0.01035678 -0.01042132 -0.01047701 -0.01052433 -0.01057207 -0.01062361 -0.01067853 -0.01073824 -0.01079348 -0.01084341
 -0.01088184 -0.01090832 -0.01092669 -0.01093733 -0.01094675 -0.01095458 -0.01096175 -0.01096757 -0.01096985 -0.0109687
 -0.01096383 -0.01095423 -0.01093921 -0.01091477 -0.01087572 -0.01081997 -0.01074201 -0.0106484 -0.01053991 -0.01042721
 -0.0103152 -0.01020768 -0.01010753 -0.01001019 -0.009915105 -0.009819904 -0.009723899 -0.009631013 -0.009541427 -0.009460037
 -0.009386885 -0.009323278 -0.009268886 -0.009222414 -0.009183343 -0.009149051 -0.009119261 -0.009091623 -0.009067023 -0.009045301
 -0.009029024 -0.009021271 -0.009023607 -0.009039237 -0.009065751 -0.009103386 -0.009147243 -0.009195334 -0.009245106 -0.009295202
 -0.009346304 -0.009398465 -0.009451458 -0.009505354 -0.009558465 -0.009610648 -0.009664288 -0.009719786 -0.009784068 -0.009857298
 -0.009944463 -0.01004438 -0.01015556 -0.01027606 -0.01040078 -0.01052723 -0.01064939 -0.01076426 -0.01086575 -0.01095279
 -0.01102126 -0.01107532 -0.01111499 -0.01114839 -0.01117867 -0.01121139 -0.01124974 -0.01129024 -0.01133363 -0.01136991
 -0.01139785 -0.0114133 -0.01141581 -0.01141214 -0.01140256 -0.01139296 -0.01138214 -0.01136453 -0.01133933 -0.01129932
 -0.0112471 -0.0111859 -0.01111779 -0.0110498 -0.0109775 -0.01089958 -0.01080797 -0.01069525 -0.01055673 -0.01038685
 -0.01018674 -0.009954735 -0.009696444 -0.009412312 -0.009110544 -0.008792604 -0.008464077 -0.008125923 -0.00777868 -0.007422438
 -0.007057015 -0.006682541 -0.006301291 -0.005913491 -0.005521829 -0.005126289 -0.004728275 -0.004327563 -0.003924266 -0.003518231
 -0.003108415 -0.002697055 -0.002285184 -0.001878589 -0.001482848 -0.001100734 -0.0007371294 -0.0003864044 -4.769393E-05 0.0002849062
 0.0006144307 0.0009374905 0.001254468 0.001558288 0.001848076 0.002120857 0.002376366 0.002613706 0.002833143 0.003038181
 0.00323109 0.003428539 0.003634251 0.003872997 0.004144627 0.004463216 0.004822204 0.005217535 0.00564017 0.006077175
 0.00652291 0.00696781 0.007410819 0.007849392 0.00828156 0.008707558 0.009119309 0.009514343 0.009888532 0.01023869
 0.01057808 0.01090726 0.0112439 0.0115895 0.01194054 0.01229611 0.0126376 0.01296561 0.01327525 0.01356966
 0.01386029 0.01414683 0.01443538 0.01472154 0.01499937 0.0152674 0.01551931 0.01576137 0.0159949 0.01623164
 0.01647949 0.01674406 0.01703317 0.01733281 0.01764306 0.01793909 0.01821517 0.01846334 0.01868027 0.01888405
 0.01907541 0.01928007 0.01949899 0.01974909 0.02002947 0.0203428 0.02068572 0.02104702 0.02142195 0.02179288
 0.02215538 0.02249537 0.02280518 0.0230715 0.02328344 0.02342568 0.02349621 0.02348567 0.02340952 0.02326926
 0.02308843 0.02287261 0.02264362 0.02240541 0.02217777 0.02196361 0.02177335 0.02160819 0.02146216 0.02133481
 0.02121619 0.02110698 0.02100787 0.02092004 0.02084918 0.02079519 0.02076046 0.02074495 0.02075067 0.02077486
 0.02081744 0.02086803 0.02091893 0.02095781 0.02097392 0.02096407 0.02092299 0.02085682 0.02076553 0.02065837
 0.02053709 0.02040797 0.02027261 0.02012728 0.01997203 0.01979569 0.01959801 0.01937563 0.01912946 0.01886571
 0.01858364 0.01828319 0.01796308 0.01761751 0.01725113 0.01686915 0.01647796 0.01609098 0.01570306 0.01531711
 0.01491822 0.01449696 0.01404697 0.01356005 0.01304795 0.0125103 0.01196804 0.01142521 0.01089524 0.01038146
 0.009877745 0.009384312 0.008881185 0.008367578 0.007829647 0.007268403 0.00668503 0.00608168 0.005467024 0.004844651
 0.004227345 0.003621117 0.00304378 0.00249757 0.001995706 0.001529016 0.00109622 0.0006812296 0.0002738767 -0.0001372631
 -0.0005603936 -0.0009973564 -0.001451668 -0.001915703 -0.002389652 -0.002859869 -0.003324787 -0.003774485 -0.004207978 -0.004624924
 -0.005025395 -0.005412109 -0.005784914 -0.006143534 -0.006487933 -0.006817529 -0.007133055 -0.007435986 -0.007727641 -0.008010589
 -0.008287418 -0.008562842 -0.008837861 -0.009116995 -0.009393911 -0.009667489 -0.009926986 -0.01016705 -0.01038268 -0.0105706
 -0.01073255 -0.01086786 -0.01098161 -0.01107351 -0.01115599 -0.01122968 -0.01131176 -0.01140261 -0.01150579 -0.01161934
 -0.01172796 -0.01183118 -0.01191685 -0.01199 -0.01205866 -0.01212752 -0.0122121 -0.01230754 -0.01241622 -0.01252542
 -0.01262326 -0.01270362 -0.0127558 -0.01278974 -0.01280609 -0.01281834 -0.01283258 -0.01284755 -0.01286501 -0.0128749
 -0.01287535 -0.0128677 -0.01285162 -0.01283792 -0.01282691 -0.01282158 -0.01282127 -0.01282133 -0.01282145 -0.01281866
 -0.01281141 -0.01279416 -0.01276466 -0.01271342 -0.01264595 -0.01256324 -0.01247806 -0.0124049 -0.0123455 -0.01230956
 -0.01228004 -0.01225204 -0.0122111 -0.01214868 -0.0120729 -0.01198258 -0.01189544 -0.01181461 -0.01174186 -0.01167817
 -0.01160611 -0.01152488 -0.01141896 -0.01128966 -0.01114125 -0.01097679 -0.01081319 -0.01065087 -0.01050013 -0.01035894
 -0.01022719 -0.01010535 -0.009993773 -0.009893754 -0.009808388 -0.009732811 -0.009665999 -0.00959964 -0.009528679 -0.009452336
 -0.009368256 -0.009282805 -0.009197361 -0.009113722 -0.009032936 -0.008948887 -0.008861161 -0.008765518 -0.00866203 -0.008556603
 -0.008450057 -0.008352666 -0.008263871 -0.008187016 -0.008119855 -0.008057268 -0.00799809 -0.007937759 -0.007875474 -0.007809947
 -0.007735741 -0.007648396 -0.007540079 -0.007402488 -0.007237449 -0.00704059 -0.006827861 -0.006601783 -0.006381447 -0.006171079
 -0.005983206 -0.005820073 -0.005688158 -0.005588423 -0.005518699 -0.005478388 -0.005448368 -0.005425919 -0.005378087 -0.005303865
 -0.005178463 -0.005008114 -0.004796281 -0.004554415 -0.004307622 -0.00406281 -0.003841418 -0.003642443 -0.003472326 -0.003328978
 -0.003212277 -0.00312235 -0.003060411 -0.003021786 -0.003007404 -0.003003281 -0.003008046 -0.003003329 -0.002987016 -0.002942218
 -0.002867196 -0.002755635 -0.002607763 -0.002440344 -0.002256091 -0.002087975 -0.001936042 -0.001820133 -0.001733684 -0.001667888
 -0.001615133 -0.001554489 -0.001484685 -0.001393862 -0.001286743 -0.001163231 -0.001029406 -0.0008891298 -0.0007472868 -0.0006069217
 -0.0004713625 -0.0003427965 -0.0002204469 -0.0001058657 1.068406E-05 0.0001297269 0.0002648487 0.000417869 0.0005834489 0.0007608176
 0.0009200839 0.001060713 0.001163318 0.001233572 0.001289622 0.001336206 0.001400652 0.001476386 0.001563104 0.001652914
 0.001730317 0.001802028 0.001866525 0.001938913 0.002031041 0.002146339 0.002292965 0.002456319 0.002635632 0.002808485
 0.002970017 0.003104942 0.003209303 0.003285885 0.003333864 0.003371708 0.003400455 0.003442421 0.003497961 0.003580785
 0.003687574 0.003811476 0.003944371 0.004056684 0.004144596 0.004180962 0.004178591 0.004141134 0.004090551 0.004051648
 0.004035143 0.0040576 0.004117074 0.004216829 0.004352764 0.004526434 0.004724114 0.00494654 0.005162349 0.005367989
 0.005535094 0.005660155 0.005742139 0.005781335 0.005801152 0.00580351 0.005816796 0.00584081 0.005890342 0.005962025
 0.006052375 0.006159984 0.006279012 0.006412421 0.00656397 0.006730812 0.006913823 0.007102625 0.007287316 0.007470979
 0.007648865 0.007840338 0.008053061 0.008289985 0.008557218 0.008828335 0.009100955 0.009350557 0.009574342 0.009767327
 0.009929284 0.01006273 0.01016871 0.01025752 0.01033193 0.01041276 0.0104995 0.01060356 0.01071804 0.01083298
 0.01094412 0.01103839 0.01112112 0.01119169 0.01125953 0.01133168 0.0114128 0.01150905 0.01161372 0.01172761
 0.01183641 0.01193623 0.01202278 0.01209408 0.0121571 0.01221281 0.01225541 0.01228461 0.01229039 0.0122754
 0.01226457 0.01226228 0.01230956 0.01239853 0.01252668 0.012681 0.01282769 0.01296973 0.01309747 0.01321538
 0.01332908 0.01342794 0.01350029 0.01355817 0.01359014 0.01366534 0.01380867 0.01405133 0.01442504 0.01481519
 0.01520926 0.01552091 0.01573697 0.0158891 0.01597878 0.01606208 0.016139 0.01623021 0.01632841 0.01640537
 0.0164547 0.01643552 0.01635793 0.01621995 0.01604381 0.01586496 0.01569194 0.01554938 0.01543158 0.01533864
 0.01527577 0.01524639 0.01525138 0.015299 0.01535417 0.01541147 0.01543702 0.01542025 0.01538357 0.01532687
 0.01529181 0.01528018 0.01528516 0.01530355 0.01529515 0.01525997 0.01517667 0.01505 0.01488357 0.0146836
 0.01446413 0.01423298 0.014009 0.01379466 0.01360001 0.01342384 0.01326434 0.01313379 0.01303957 0.01298407
 0.01297763 0.01298153 0.01298753 0.01297205 0.01292301 0.01289287 0.01288424 0.01295781 0.01311638 0.01333939
 0.01362237 0.01390383 0.01418532 0.014443 0.0146846 0.01492494 0.01516671 0.01542773 0.01569591 0.01596524
 0.01621052 0.01639858 0.0165237 0.0165593 0.01654755 0.01649924 0.01646261 0.01646403 0.01649905 0.01657626
 0.01665596 0.01673347 0.01677887 0.01678853 0.01674951 0.01666112 0.01654256 0.01639888 0.01629825 0.01624374
 0.01629465 0.01643635 0.01665185 0.01692236 0.01719357 0.0174629 0.0177043 0.01791588 0.01808896 0.01821399
 0.01827624 0.01828685 0.01824324 0.0181734 0.01808883 0.01799813 0.01790602 0.01781129 0.01771328 0.01762099
 0.01753641 0.01744742 0.01735337 0.01721639 0.01703712 0.0168107 0.01654424 0.01627824 0.01601437 0.0157816
 0.01557302 0.01538522 0.01521593 0.01505896 0.01491699 0.0147915 0.01468241 0.01459057 0.01451419 0.01445381
 0.01440322 0.01436132 0.01431906 0.01427298 0.01422434 0.01417348 0.01411849 0.01406116 0.01396907 0.01384052
 0.01364377 0.01338139 0.01307774 0.01273972 0.01242247 0.01212484 0.01187229 0.01165882 0.01148116 0.01133906
 0.01123141 0.01115705 0.01111714 0.01110184 0.01110557 0.01111565 0.01112469 0.01112193 0.01110041 0.01106095
 0.01099939 0.01093653 0.01087538 0.01082962 0.01080295 0.01076949 0.01072794</values></Ydata></AB><ScSm><Ydata ylabel="Single channel"><values byteorder="INTEL" format="FLOAT32" numvalues="1814"> 0.06773265 0.06773701 0.06781085 0.06797042 0.06818432 0.0683911 0.06853868 0.06861527 0.06863568 0.06860533
 0.06852978 0.06846119 0.06848939 0.06865678 0.06889887 0.06908522 0.06912518 0.06905116 0.06900048 0.06907835
 0.06921653 0.06919852 0.06886557 0.06829739 0.06775557 0.06744076 0.06737074 0.06753963 0.06804405 0.06882989
 0.06941269 0.06922505 0.06832738 0.06744469 0.06716254 0.06736614 0.06757367 0.06749611 0.0671292 0.06664512
 0.06644139 0.06703368 0.06854735 0.07029852 0.07104222 0.06976223 0.0663995 0.06207581 0.05867269 0.05781972
 0.059749 0.06297895 0.0654269 0.06606692 0.06541559 0.06447389 0.06364667 0.06288024 0.06237178 0.06260747
 0.06369799 0.06492697 0.06512575 0.06367965 0.06125745 0.05932821 0.05881678 0.05952832 0.06094202 0.06277852
 0.06420228 0.06336598 0.05922906 0.05385938 0.05151102 0.05457958 0.0610441 0.06643853 0.06782231 0.06543791
 0.06142313 0.05803784 0.05680041 0.05808103 0.061049 0.06436077 0.06696716 0.06815679 0.06737797 0.06471956
 0.06138129 0.0590944 0.0590589 0.06146888 0.06547047 0.06924567 0.07084043 0.06960426 0.06662159 0.06357075
 0.06162136 0.06143173 0.06331284 0.06690796 0.07117118 0.07496578 0.07752572 0.07854378 0.07824194 0.07722799
 0.07603188 0.07501723 0.07470125 0.07543641 0.07656899 0.07668525 0.07514665 0.07294163 0.07166879 0.07188342
 0.07265504 0.07270242 0.07169154 0.07003215 0.06761758 0.06379078 0.05886459 0.05453402 0.05218287 0.05182334
 0.05310063 0.05584028 0.05887552 0.05998331 0.05832708 0.05600392 0.05596894 0.05888049 0.06276521 0.06541385
 0.0664224 0.06702716 0.06852297 0.07094607 0.07291143 0.07265531 0.06977983 0.06623952 0.06496113 0.06697011
 0.0704041 0.07280633 0.07371816 0.07441112 0.07565768 0.07653016 0.07536941 0.07175969 0.06758507 0.06586494
 0.06812413 0.07286373 0.07664729 0.07664524 0.07254128 0.06659789 0.06189048 0.06018102 0.0614534 0.0650888
 0.0705438 0.07673009 0.0817342 0.08389061 0.08299507 0.08020833 0.07672904 0.07268424 0.06776597 0.06308185
 0.06137693 0.06444091 0.07082196 0.07703641 0.08067357 0.08159767 0.08060065 0.07792099 0.07346122 0.06820977
 0.06470799 0.06507891 0.06846667 0.07151829 0.07189034 0.07038634 0.06923512 0.0693168 0.06983243 0.0700072
 0.07019758 0.07127863 0.07338713 0.07558486 0.07676193 0.07664642 0.07585758 0.07518853 0.07488473 0.07446238
 0.07338519 0.07211841 0.07208378 0.07410465 0.07728077 0.07991552 0.08122113 0.08161482 0.08158982 0.08083987
 0.07869902 0.07539392 0.07256016 0.07203079 0.07406412 0.07718147 0.07970682 0.08097261 0.08116546 0.0807225
 0.0800328 0.07931046 0.0786614 0.07835865 0.07877134 0.07984026 0.08095714 0.08157302 0.08165157 0.08140025
 0.08087334 0.08004059 0.07906851 0.07833722 0.07816822 0.07858092 0.07932857 0.08011952 0.08072709 0.08095706
 0.08071396 0.08014099 0.0795333 0.07907026 0.07875852 0.07862245 0.07876156 0.07917131 0.07965482 0.07998841
 0.08009914 0.08004239 0.07988064 0.07963672 0.07933185 0.07903263 0.07885319 0.07888161 0.07907882 0.07929687
 0.07944288 0.07956688 0.07972623 0.07983695 0.07976096 0.07950146 0.07921688 0.07905392 0.07903278 0.07908297
 0.07911952 0.07905708 0.07880799 0.0783578 0.07786182 0.077585 0.077687 0.07810514 0.07865953 0.07919051
 0.07957937 0.07975605 0.07975152 0.07967058 0.07956998 0.07941391 0.07916839 0.07889973 0.07875949 0.07886857
 0.07920229 0.07960001 0.07990127 0.08005159 0.08008479 0.08007316 0.08010335 0.08021475 0.08033559 0.08035037
 0.08024842 0.08014596 0.08014849 0.08023663 0.08029941 0.08025843 0.08015399 0.08010653 0.08019056 0.08036499
 0.08053698 0.08066663 0.08078614 0.08092932 0.08106107 0.08109109 0.08097336 0.0807786 0.0806304 0.08057886
 0.08058424 0.08061676 0.08070575 0.08087029 0.081053 0.08116286 0.08117197 0.08114146 0.08114256 0.08116997
 0.08115497 0.08105678 0.08091246 0.08079489 0.08074758 0.08076506 0.08081083 0.08084144 0.08082731 0.08076633
 0.08067923 0.08058839 0.08050089 0.0804195 0.08037123 0.08040413 0.08052984 0.08067474 0.08071983 0.08060762
 0.08040049 0.0802217 0.08013908 0.08011265 0.08005297 0.07991624 0.07973398 0.07956421 0.07943712 0.07934721
 0.07927511 0.07920812 0.07915694 0.07916117 0.07925692 0.07941837 0.07954808 0.07955551 0.07944419 0.0793011
 0.07920778 0.07918376 0.07920408 0.07924169 0.07929398 0.079383 0.07951849 0.0796559 0.07972361 0.07970599
 0.07966809 0.0796883 0.07979976 0.07999425 0.08022898 0.08042175 0.08049928 0.08047654 0.08045028 0.08049625
 0.08060487 0.08072762 0.08084657 0.08097455 0.08111684 0.08126691 0.08143339 0.08164529 0.08192199 0.08224357
 0.08255263 0.08279018 0.08294457 0.08307342 0.08326606 0.08356977 0.08395056 0.08432665 0.08463828 0.08488776
 0.08511917 0.08536578 0.08562624 0.08589448 0.08619197 0.08654517 0.08694047 0.0873304 0.08768541 0.08801772
 0.08835387 0.08870354 0.08906049 0.08942337 0.08980781 0.09023011 0.09067354 0.09108241 0.0914083 0.09165971
 0.09189609 0.09218057 0.09254127 0.09295173 0.09333396 0.09361231 0.09379517 0.0939804 0.0942492 0.09457543
 0.09487602 0.09513159 0.09540968 0.09576701 0.0961732 0.0965499 0.09685885 0.09713002 0.09741269 0.09771571
 0.09799643 0.09820697 0.09835035 0.09848246 0.09865506 0.09887631 0.09914051 0.09946635 0.09986748 0.100301
 0.1006868 0.1009772 0.1011833 0.1013431 0.1014923 0.1016527 0.101823 0.1019875 0.1021445 0.1023057
 0.1024597 0.1025757 0.1026592 0.1027667 0.1029439 0.1031838 0.1034644 0.1037881 0.1041525 0.1045168
 0.1048436 0.1051585 0.1055213 0.1059296 0.1062963 0.1065428 0.1066805 0.1067738 0.1068619 0.1069581
 0.1070992 0.1073366 0.1076777 0.1080733 0.1084684 0.1088409 0.1091922 0.1095202 0.1098082 0.1100314
 0.1101763 0.1102575 0.1103162 0.1104044 0.1105662 0.1108165 0.111124 0.1114244 0.1116624 0.1118127
 0.1118615 0.1118001 0.111659 0.111519 0.1114459 0.1114128 0.1113136 0.1110536 0.1106093 0.1100051
 0.1092678 0.1084209 0.1075087 0.1066064 0.105799 0.105152 0.104705 0.1044944 0.1045628 0.1049231
 0.1055101 0.1061874 0.1068111 0.1072694 0.107468 0.1073218 0.1068029 0.1059802 0.1049864 0.103949
 0.1029559 0.1020532 0.1012474 0.1005335 0.09996186 0.09967399 0.09984823 0.1006022 0.101934 0.1037188
 0.1057395 0.10775 0.1095625 0.1111056 0.1124089 0.1135381 0.1145499 0.1154938 0.1164166 0.1173355
 0.1182158 0.1190037 0.1196828 0.1202812 0.1208289 0.1213288 0.1217646 0.1221161 0.1223719 0.1225408
 0.1226461 0.1227005 0.1227019 0.1226604 0.122608 0.1225613 0.1224879 0.1223197 0.1219968 0.1215069
 0.120914 0.1203759 0.120128 0.1204083 0.1213448 0.1228782 0.12479 0.1268177 0.1287518 0.130453
 0.1318375 0.1328863 0.1336578 0.1342555 0.1347715 0.1352578 0.1357348 0.1362067 0.13667 0.1371189
 0.1375517 0.137974 0.1383979 0.1388302 0.1392578 0.1396548 0.14001 0.1403468 0.1407089 0.1411207
 0.1415621 0.1419869 0.1423716 0.1427375 0.1431125 0.1434865 0.1438255 0.1441222 0.1444079 0.1447183
 0.1450693 0.1454571 0.1458579 0.1462294 0.1465393 0.1467961 0.1470385 0.147298 0.1475813 0.1478815
 0.1481898 0.1484956 0.1487912 0.1490841 0.1493959 0.149736 0.1500768 0.1503691 0.1505909 0.1507735
 0.1509718 0.1512135 0.1514824 0.1517458 0.1519937 0.1522514 0.1525535 0.1529025 0.1532555 0.153558
 0.1537901 0.1539783 0.1541669 0.1543834 0.1546296 0.1548937 0.155163 0.1554283 0.1556868 0.1559445
 0.1562092 0.1564805 0.1567478 0.1570008 0.1572392 0.1574736 0.1577175 0.1579798 0.1582647 0.1585775
 0.1589201 0.1592753 0.1596029 0.1598682 0.1600717 0.1602472 0.1604293 0.1606329 0.1608564 0.1610963
 0.1613515 0.1616188 0.1618885 0.1621507 0.1624055 0.1626621 0.1629252 0.1631888 0.1634469 0.1637027
 0.1639657 0.1642408 0.1645251 0.1648094 0.1650828 0.1653382 0.1655762 0.1658052 0.1660372 0.1662792
 0.166526 0.1667666 0.1669984 0.1672316 0.1674746 0.1677241 0.1679704 0.1682101 0.1684477 0.1686897
 0.1689376 0.1691873 0.1694338 0.1696751 0.1699121 0.170146 0.1703783 0.1706109 0.1708447 0.1710801
 0.1713178 0.1715583 0.1718021 0.1720503 0.172302 0.1725509 0.17279 0.1730188 0.1732431 0.1734696
 0.1737031 0.1739453 0.1741922 0.1744371 0.1746775 0.1749171 0.1751619 0.1754133 0.1756659 0.1759133
 0.1761572 0.1764046 0.1766565 0.1769048 0.1771427 0.1773725 0.1776041 0.1778481 0.1781053 0.1783626
 0.178608 0.1788461 0.1790902 0.1793428 0.1795945 0.1798381 0.1800721 0.1802969 0.180514 0.1807251
 0.1809314 0.1811371 0.1813492 0.181569 0.1817923 0.1820178 0.1822483 0.1824847 0.1827263 0.1829728
 0.1832196 0.1834593 0.1836909 0.1839209 0.1841559 0.1844001 0.1846544 0.1849129 0.1851678 0.1854185
 0.185667 0.1859103 0.1861456 0.1863748 0.1866007 0.1868276 0.1870631 0.1873102 0.1875642 0.1878222
 0.1880833 0.1883402 0.1885875 0.1888323 0.1890822 0.1893335 0.189582 0.1898287 0.190071 0.1903051
 0.1905379 0.1907786 0.1910257 0.191273 0.1915161 0.1917514 0.1919827 0.1922225 0.1924739 0.1927253
 0.1929704 0.1932114 0.1934457 0.1936733 0.1939068 0.1941514 0.1943958 0.1946329 0.1948643 0.1950747
 0.1952129 0.1951507 0.1945711 0.1928485 0.1890459 0.1821159 0.1713242 0.1567172 0.1392695 0.1205397
 0.1021025 0.08514699 0.07036635 0.05805381 0.04825921 0.04089113 0.03578014 0.03278119 0.03188119 0.03330992
 0.03766365 0.04555738 0.05628969 0.06664662 0.07214324 0.07056554 0.06408852 0.05729087 0.05334444 0.05247504
 0.05332302 0.05472094 0.05629582 0.05826424 0.0610023 0.06462333 0.06895608 0.07399392 0.0801144 0.08759776
 0.0960484 0.1045594 0.1124938 0.1199884 0.1276473 0.1358184 0.1442266 0.1522435 0.1593899 0.1655792
 0.1710152 0.1759626 0.1805958 0.1849891 0.1891772 0.1931548 0.1967863 0.1997668 0.2017669 0.2026784
 0.2027387 0.2024028 0.2020797 0.2019674 0.2020864 0.2023968 0.2028626 0.2034625 0.2041868 0.2050211
 0.2059269 0.2068528 0.207763 0.2086415 0.209477 0.2102594 0.2109844 0.2116531 0.2122709 0.2128439
 0.2133707 0.2138458 0.2142774 0.2146878 0.2150919 0.215486 0.215861 0.2162133 0.2165413 0.2168426
 0.2171156 0.2173617 0.217587 0.2178041 0.2180247 0.2182518 0.2184816 0.2187123 0.2189444 0.2191768
 0.2194082 0.2196389 0.2198697 0.2201 0.2203287 0.2205546 0.2207772 0.220998 0.2212197 0.2214423
 0.2216647 0.2218854 0.2221023 0.2223119 0.2225134 0.2227092 0.2229028 0.2230989 0.2233021 0.2235135
 0.2237347 0.223972 0.2242256 0.2244806 0.2247241 0.2249622 0.2252043 0.2254429 0.2256695 0.2258921
 0.2261179 0.2263324 0.2265182 0.2266864 0.2268727 0.2271041 0.227372 0.2276406 0.2278827 0.2281019
 0.2283161 0.2285313 0.2287383 0.2289273 0.2291029 0.2292937 0.2295343 0.2298244 0.2301251 0.2304071
 0.2306751 0.2309372 0.2311901 0.2314397 0.2316928 0.2319236 0.2320929 0.2322136 0.2323679 0.2326398
 0.2330317 0.233455 0.2338151 0.2340955 0.2343449 0.2346097 0.2349057 0.235206 0.235416 0.2354363
 0.2353241 0.2353199 0.2356265 0.2362072 0.2368543 0.2374018 0.237821 0.2381617 0.2384629 0.238711
 0.2388534 0.2388595 0.238795 0.238834 0.2391407 0.2397035 0.2403294 0.2408382 0.2412026 0.2414773
 0.2416994 0.2418882 0.2420062 0.2418947 0.2414396 0.2408773 0.2407382 0.2413357 0.2424143 0.2434229
 0.2440582 0.2444207 0.2447139 0.2449961 0.2452324 0.2453278 0.245 0.2439441 0.2424079 0.2413527
 0.2416552 0.2432269 0.2451731 0.2466932 0.2475861 0.2480488 0.2483296 0.2485612 0.2486587 0.2483274
 0.247396 0.2462553 0.2457542 0.2464134 0.2478372 0.2491361 0.249832 0.2501045 0.250313 0.2506
 0.2507966 0.2503763 0.2487571 0.24616 0.2440336 0.2440308 0.2463908 0.2496495 0.25209 0.253222
 0.2536377 0.2537335 0.2531239 0.2513293 0.2485001 0.2453464 0.2428948 0.2423326 0.2442252 0.247549
 0.2502761 0.25137 0.2516582 0.2524829 0.2541054 0.2557236 0.2565086 0.2562425 0.2551787 0.2535935
 0.2516565 0.2498356 0.2491395 0.2504051 0.2532764 0.2563314 0.2583916 0.2594136 0.2598661 0.2593452
 0.2562998 0.2498982 0.2423531 0.2383066 0.2407337 0.2478298 0.2549466 0.2591656 0.260903 0.2617169
 0.2622144 0.2618874 0.2594254 0.2534428 0.2446766 0.2373447 0.2362847 0.2421683 0.2507379 0.2567772
 0.2576478 0.2535477 0.2465827 0.2401552 0.237578 0.2400649 0.2461955 0.2533197 0.2591499 0.2623937
 0.2627424 0.2607537 0.2578208 0.2558345 0.2558087 0.2563891 0.254891 0.2506919 0.2462658 0.2435572
 0.2409846 0.2363725 0.2317096 0.231835 0.2381369 0.2462242 0.2508575 0.2512581 0.2501709 0.2488781
 0.2450297 0.2360439 0.2240026 0.2157541 0.2169253 0.2260807 0.2359965 0.2407232 0.2403115 0.2387188
 0.2385307 0.2383225 0.2346753 0.2266337 0.217999 0.2141481 0.2163316 0.220563 0.2223606 0.2203423
 0.2146941 0.2057236 0.1963925 0.1932536 0.2009383 0.2164986 0.2317027 0.2398078 0.2380576 0.2262412
 0.2076087 0.1907896 0.1856102 0.1943202 0.2088619 0.2182662 0.2173735 0.2078002 0.1932351 0.1768669
 0.1628228 0.1566994 0.1622357 0.1774912 0.1948569 0.20487 0.2014831 0.1867493 0.1711487 0.1660573
 0.1734543 0.1845807 0.1897323 0.1870382 0.18116 0.1772591 0.1779862 0.1829863 0.1893077 0.1941761
 0.1972218 0.1974613 0.1903408 0.1732323 0.1528035 0.1406327 0.1411697 0.1494805 0.1605255 0.1736657
 0.1865792 0.1921762 0.1865908 0.176483 0.1733537 0.1813422 0.1936909 0.2010101 0.2005677 0.1967804
 0.1943837 0.193381 0.1914076 0.1891976 0.1907865 0.1979205 0.2069862 0.2130437 0.2149763 0.2150314
 0.2150238 0.2149708 0.2143901 0.21312 0.2112248 0.209119 0.2074553 0.2063932 0.2054579 0.204276
 0.2025502 0.1989621 0.1914805 0.18023 0.1692826 0.1634485 0.1632115 0.1650421 0.1666513 0.1683564
 0.1682053 0.1605615 0.1435585 0.1252501 0.1177534 0.1255405 0.142112 0.1573987 0.1654341 0.164849
 0.1559159 0.1408848 0.1265432 0.1220516 0.1314198 0.1496465 0.1681016 0.1819683 0.1906682 0.1936828
 0.1898085 0.1803018 0.1700621 0.1648101 0.1676356 0.1776455 0.1902026 0.1980511 0.1948843 0.1816764
 0.1694945 0.1712905 0.1882398 0.2076869 0.2173698 0.217841 0.2173411 0.2189911 0.2193191 0.2173743
 0.2182868 0.2262535 0.2383617 0.2474574 0.2484223 0.2401812 0.2249818 0.2088423 0.199994 0.2023116
 0.2109348 0.2175696 0.2185254 0.2142493 0.2044206 0.1899289 0.1780088 0.1779073 0.1901659 0.2053826
 0.2148961 0.2186711 0.2213976 0.2243906 0.2239901 0.2171115 0.2063901 0.1985546 0.1977748 0.2020248
 0.2065285 0.2087939 0.2086704 0.2055276 0.1986455 0.190379 0.1861769 0.1898814 0.1997726 0.2101759
 0.2165286 0.2182413 0.2173823 0.2159798 0.2146246 0.2126309 0.2094509 0.2065063 0.206891 0.2120273
 0.2193399 0.2248752 0.2278139 0.230734 0.2355756 0.2409703 0.2439093 0.2430462 0.2400069 0.2379975
 0.239237 0.2431836 0.2469225 0.2476428 0.2453052 0.2429235 0.2437866 0.2483216 0.2540445 0.2583773
 0.2607461 0.2620396 0.2630933 0.2639702 0.2639256 0.2619746 0.2583154 0.2551755 0.2552502 0.2590278
 0.2643139 0.2684889 0.2706147 0.2712926 0.2712403 0.2705365 0.269035 0.2670429 0.2653387 0.2645674
 0.2647887 0.2656261 0.2666646 0.2676283 0.2683744 0.2688907 0.2692555 0.2695335 0.269747 0.2699289
 0.2701048 0.2702187 0.2701921 0.270088 0.2701133 0.2703953 0.2708191 0.2711474 0.2712295 0.2710162
 0.2704428 0.2694408 0.2680677 0.2664953 0.2648246 0.2630196 0.2611351 0.2595771 0.2589925 0.2597891
 0.2617551 0.2641848 0.2663677 0.2679481 0.268915 0.2694133 0.2696187 0.2696926 0.2697351 0.2697536
 0.2696976 0.2695343 0.2692816 0.2689783 0.2686497 0.2683165 0.268016 0.2677858 0.2676228 0.2674712
 0.2672578 0.266938 0.2665173 0.2660383 0.2655392 0.2650126 0.2644013 0.2636453 0.2627389 0.2617421
 0.2607413 0.2598011 0.2589376 0.2581145 0.2572632 0.2563217 0.2552496 0.2540135 0.2526054 0.2511017
 0.2496603 0.2484018 0.2473094 0.2462684 0.2451742 0.2439792 0.2426738 0.2412703 0.2397995 0.2382988
 0.2367932 0.2352831 0.2337464 0.2321557 0.2304988 0.2287817 0.2270163 0.2252149 0.2233879 0.2215313
 0.219608 0.2175418 0.2152308 0.2125674 0.2094511 0.2058007 0.2015899 0.1968895 0.1918636 0.1867161
 0.1816402 0.1768004 0.1723275 0.1683177 0.1648428 0.1619624 0.1597241 0.1581602 0.1572863 0.157099
 0.1575778 0.1586911 0.1603859 0.1625632 0.1650738 0.1677401 0.1703792 0.1728333 0.175023 0.1769842
 0.1788305 0.1806588 0.1824819 0.1842462 0.1858985 0.187417 0.1887812 0.1899539 0.1909172 0.1917028
 0.1923607 0.1929149 0.1933678 0.1937261 0.1940044 0.1942212 0.194402 0.194577 0.1947702 0.1949969
 0.1952685 0.1955973 0.196 0.1964941 0.1970859 0.1977704 0.198539 0.1993777 0.2002613 0.2011696
 0.2021094 0.2031145 0.2042277 0.2054838 0.2068971 0.2084616 0.2101631 0.2119813 0.2138717 0.2157562
 0.2175364 0.2191141 0.2204151 0.2214176 0.2221572 0.222695 0.2230812 0.2233427 0.2234901 0.223529
 0.2234711 0.2233319 0.223121 0.2228429 0.2225039 0.2221087 0.2216626 0.2211859 0.2207105 0.22025
 0.2197884 0.2193054 0.2187955 0.2182665 0.2177336 0.2172135 0.2167109 0.2162147 0.215714 0.2152114
 0.2147092 0.2141867 0.2135947 0.2128862 0.212053 0.2111189 0.2100968 0.2089744 0.2077439 0.2064163
 0.2050028 0.2035084 0.201941 0.2003049 0.1985918 0.1967924 0.1949024 0.1929104 0.1908136 0.1886604
 0.1865485 0.1845626 0.182724 0.181 0.1793494 0.1777594 0.1762438 0.1748128 0.173458 0.1721713
 0.1709573 0.1698151 0.168729 0.1676901 0.1667129 0.1658221 0.1650317 0.1643367 0.1637205 0.1631721
 0.1626941 0.1622902 0.1619566 0.1616959 0.1615189 0.1614185 0.1613549 0.1612761 0.1611434 0.1609503
 0.1607315 0.1605379 0.1603854 0.1602435 0.1600782 0.159877 0.1596134 0.1592135 0.1585772 0.1576302
 0.1563583 0.1548015 0.1530283 0.1511292 0.1492221 0.1474346 0.1458663 0.1445793 0.1435997 0.1428931
 0.1423572 0.1418915 0.1414784 0.1411839 0.141086 0.1411894 0.1413817 0.1414944 0.1414556 0.1413742
 0.1414462 0.1417908 0.142381 0.1430905 0.1437837 0.1443803 0.1448518 0.1451768 0.1453423 0.1453781
 0.1453371 0.1452389 0.1450711 0.1448291 0.1445205 0.1441551 0.1437506 0.1433185 0.1428404 0.1422845
 0.1416281 0.1408541 0.139958 0.1389577 0.1378572 0.1366389 0.1353611 0.1342269 0.1334921 0.1333101
 0.1336625 0.1343821 0.1352615 0.1361858 0.1370976 0.1378136 0.1380706 0.1379219 0.1379495 0.1388409
 0.140725 0.1430372 0.1450365 0.1463382 0.1469405 0.1469433 0.1464141 0.1454108 0.1439419 0.1419508
 0.1394532 0.1366057 0.1335769 0.1304903 0.1275167 0.1248517 0.122595 0.1207507 0.1192935 0.1182652
 0.1178175 0.1175908 0.1157169 0.1098237 0.1006926 0.09385255 0.0949213 0.1032943 0.112577 0.1173369
 0.1174233 0.1157334 0.1142796 0.1133771 0.1129143 0.1130076 0.1137738 0.1150753 0.1165187 0.1176896
 0.1184282 0.11879 0.1187405 0.1179371 0.1156894 0.1111791 0.1041055 0.09529018 0.08641766 0.07904792
 0.07390203 0.07086582 0.0693296 0.06855759 0.06805508 0.06777637 0.06799985 0.06899877 0.07082177 0.07333709
 0.07636838 0.0796686 0.08283326 0.08546866 0.08749728 0.08912909 0.09050607 0.09153312 0.09206215 0.09208183
 0.09170631 0.09109153 0.09037771 0.08963166 0.08880324 0.08777353 0.08652109 0.08526475 0.08435111 0.08393819
 0.08387095 0.08390403 0.08392508 0.08392676 0.08390932 0.08387628 0.08384555 0.08385696 0.08400464 0.08438506
 0.08495514 0.08551849 0.08589665 0.08606831 0.08613402 0.08615507 0.08601262 0.08551221 0.08471724 0.08400674
 0.08359124 0.08314814 0.08223862 0.0809768 0.07997902 0.07968251 0.07995024 0.08032649 0.08046921 0.08031602
 0.08003758 0.079947 0.08030645 0.08103225</values></Ydata></ScSm><ScRf><Ydata ylabel="Single channel"><values byteorder="INTEL" format="FLOAT32" numvalues="1820"> 0.06072818 0.06088175 0.06097209 0.06100202 0.06099764 0.06100318 0.06106678 0.06121298 0.06142001 0.06162493
 0.06176578 0.0618267 0.06183111 0.06179654 0.06173015 0.06167178 0.06169504 0.06183694 0.06204433 0.06220649
 0.06224324 0.06217712 0.06212385 0.06217846 0.06228717 0.06225993 0.0619505 0.06142594 0.06092467 0.06063558
 0.06057709 0.06073561 0.06118838 0.06188763 0.06240757 0.0622451 0.06145228 0.06067321 0.06042685 0.06060513
 0.06077499 0.06068427 0.06034172 0.05991004 0.05974322 0.06029415 0.06166805 0.06325016 0.06392339 0.06277193
 0.05973734 0.05582589 0.05273472 0.05194213 0.05367056 0.05659014 0.05881421 0.05940208 0.05881337 0.05795839
 0.05721222 0.05652744 0.05607503 0.05628677 0.0572611 0.05835513 0.05851941 0.05720319 0.05501186 0.05327081
 0.05281231 0.05345782 0.05473695 0.05639903 0.05768851 0.05693189 0.05318418 0.04831452 0.04617574 0.04894476
 0.05479982 0.0596943 0.06095309 0.05878923 0.05514709 0.05208501 0.05097647 0.05214313 0.05482302 0.05780174
 0.06013801 0.06119629 0.06048353 0.05808287 0.05507699 0.05302606 0.05301044 0.05520264 0.05882813 0.06224228
 0.0636812 0.06256129 0.05986366 0.05710063 0.05532414 0.05513151 0.0568145 0.06006093 0.06392641 0.06737553
 0.06970607 0.07063437 0.07036129 0.06944144 0.06835915 0.06744237 0.06715189 0.06780136 0.06880334 0.06888977
 0.06749058 0.06549703 0.06434669 0.06453884 0.06523568 0.06528012 0.06436734 0.06286952 0.06069686 0.05725446
 0.05281386 0.04889955 0.04676678 0.04643574 0.04759343 0.05008946 0.05287052 0.05391261 0.0524355 0.05032359
 0.05026016 0.05286124 0.05635411 0.05874127 0.05965569 0.06021587 0.0615899 0.0638005 0.06558398 0.06534322
 0.06272842 0.05952176 0.05837695 0.06021407 0.06333401 0.06550781 0.06632856 0.06696005 0.06810595 0.06892036
 0.06789573 0.06465903 0.06092076 0.05940714 0.06148248 0.06578289 0.06920627 0.06920189 0.06548611 0.0601069
 0.05584969 0.05430976 0.05547554 0.05879907 0.06380129 0.06949507 0.07413079 0.07617833 0.07543455 0.07294515
 0.06980672 0.06614815 0.06169311 0.05744734 0.05591848 0.05875565 0.06464794 0.07041393 0.07383798 0.07477924
 0.07394858 0.07155369 0.06749959 0.06270435 0.05953332 0.05996566 0.06320798 0.06613721 0.06656381 0.06522963
 0.06421499 0.0643525 0.06490524 0.0651491 0.0654159 0.06652725 0.06861117 0.07077999 0.07198297 0.0719618
 0.07130191 0.07075467 0.07055451 0.07024591 0.06932533 0.06824014 0.0683399 0.07039396 0.07352704 0.07611607
 0.07742403 0.07787339 0.07794587 0.07733399 0.07537729 0.07228848 0.06965471 0.06925654 0.07134673 0.07449109
 0.07705988 0.07840137 0.07869942 0.07838757 0.07785074 0.07729458 0.07680969 0.07664678 0.07716057 0.07830508
 0.07950564 0.08023314 0.08043842 0.08030174 0.07986733 0.07912236 0.07825826 0.07766112 0.07763541 0.07818013
 0.07904198 0.07993633 0.08064674 0.08098279 0.08084387 0.08036801 0.07985619 0.0795006 0.07931184 0.07930423
 0.07956351 0.08007856 0.0806561 0.0810822 0.08129146 0.08133925 0.08128347 0.08114316 0.080938 0.0807367
 0.08065929 0.08079445 0.08109073 0.0813885 0.08160517 0.08181621 0.08208779 0.08231513 0.08233411 0.08214442
 0.08192171 0.08182782 0.08188379 0.08201304 0.08212642 0.08213565 0.08195005 0.08155654 0.08111813 0.08090932
 0.08109786 0.08162662 0.08231211 0.08297557 0.08347403 0.08372898 0.08378376 0.08375756 0.08370734 0.08358981
 0.08337297 0.08313707 0.08304702 0.08322756 0.08365113 0.08415128 0.0845575 0.08480117 0.08490539 0.0849447
 0.08502203 0.08519278 0.08538137 0.0854497 0.0853744 0.08528885 0.08532386 0.08545816 0.08555459 0.08552217
 0.08541983 0.08539374 0.08552265 0.08574934 0.08596666 0.08613631 0.08630358 0.08651024 0.0867102 0.0867873
 0.08667852 0.0864666 0.08630425 0.08625375 0.08626287 0.08629614 0.08640274 0.08661698 0.08685948 0.08700325
 0.0870188 0.08700088 0.08704402 0.08712696 0.08714318 0.08702673 0.08682168 0.08663689 0.08655802 0.08659922
 0.08670823 0.08680371 0.08682314 0.08675712 0.08664551 0.08653714 0.08645433 0.08640458 0.08642012 0.08655094
 0.0867889 0.08701567 0.08707184 0.08690081 0.08661397 0.08639432 0.08633102 0.08635116 0.08631054 0.086136
 0.08587271 0.08561438 0.08541718 0.08527957 0.08517468 0.0850861 0.0850288 0.08504663 0.08516728 0.08533838
 0.08543073 0.0853436 0.08510472 0.08484012 0.08465552 0.0845716 0.08455124 0.08454944 0.08454851 0.084573
 0.08465151 0.08474876 0.0847766 0.08469762 0.08457907 0.08452575 0.08459665 0.08478571 0.08502415 0.08519354
 0.08520393 0.08508586 0.08496536 0.08493525 0.08498595 0.08506313 0.08514438 0.08523691 0.08533718 0.0854313
 0.08553014 0.08567542 0.08589803 0.08617697 0.08644477 0.08663477 0.08673388 0.08680142 0.08693194 0.08718143
 0.08752026 0.08785853 0.08812197 0.08830835 0.08847238 0.08865739 0.08885553 0.08904722 0.08925737 0.08953467
 0.08988018 0.09023518 0.0905461 0.09081295 0.09107016 0.0913447 0.09164222 0.09196418 0.09232851 0.09275648
 0.09322236 0.09363434 0.09390204 0.09402808 0.09411475 0.09428413 0.09459297 0.09499219 0.09534985 0.09555279
 0.0956215 0.0956974 0.09588702 0.09615342 0.09639941 0.09661984 0.09690806 0.09731841 0.09777927 0.09816208
 0.09840748 0.09856708 0.09873451 0.09894541 0.09914742 0.09927263 0.09933041 0.09940007 0.09953356 0.09971294
 0.09992197 0.1002017 0.1005872 0.1010271 0.1014189 0.1017059 0.1019014 0.1020418 0.1021515 0.1022395
 0.1022986 0.1023254 0.1023499 0.102416 0.102518 0.1025979 0.1026252 0.1026445 0.1027203 0.1028716
 0.1030865 0.1033597 0.1036758 0.1039842 0.104246 0.1045006 0.1048267 0.10522 0.105562 0.1057448
 0.1057877 0.1057889 0.1058008 0.105816 0.1058546 0.1059843 0.1062398 0.1065769 0.1069279 0.1072688
 0.1076129 0.1079623 0.1082831 0.1085211 0.1086384 0.1086463 0.1086083 0.1086098 0.108718 0.1089519
 0.1092734 0.1096081 0.1098907 0.1100878 0.1101836 0.1101745 0.1101047 0.1100786 0.1101817 0.1103819
 0.11054 0.1105272 0.1103131 0.1099378 0.1094378 0.1088284 0.1081465 0.1074756 0.106911 0.1065063
 0.1062721 0.1062254 0.1064143 0.1068641 0.1075112 0.1082218 0.108876 0.1094009 0.1097228 0.1097476
 0.1094284 0.1088282 0.1080848 0.1073281 0.1066363 0.1060297 0.1054736 0.104922 0.1044074 0.1040809
 0.1041374 0.1046947 0.1057368 0.1071315 0.1086718 0.1101348 0.1113657 0.1123384 0.1131317 0.1138381
 0.1145035 0.1151478 0.1158007 0.1164775 0.1171378 0.117715 0.1181919 0.118612 0.1190159 0.1193991
 0.1197322 0.1199991 0.1202135 0.1204147 0.1206322 0.1208386 0.1209602 0.1209555 0.120861 0.120741
 0.1206135 0.1204429 0.1201825 0.1198124 0.1193682 0.118964 0.1187809 0.1189938 0.1196698 0.1207236
 0.1219818 0.1232931 0.12457 0.1257371 0.1266973 0.1273845 0.1278277 0.1281309 0.128396 0.1286782
 0.1289878 0.1293093 0.1296209 0.1299109 0.1301841 0.1304577 0.1307552 0.1310899 0.1314415 0.1317608
 0.1320158 0.1322331 0.1324823 0.132812 0.1332015 0.1335829 0.1339164 0.1342269 0.1345515 0.1348701
 0.1351261 0.1353064 0.1354652 0.1356694 0.1359502 0.1363004 0.1366787 0.1370178 0.1372665 0.137435
 0.1375825 0.1377594 0.1379773 0.1382259 0.1384917 0.1387595 0.1390161 0.1392681 0.1395433 0.1398572
 0.1401785 0.1404436 0.1406168 0.140729 0.14085 0.1410252 0.1412448 0.1414688 0.1416779 0.1418965
 0.1421637 0.1424803 0.1427929 0.1430387 0.1432018 0.1433214 0.1434511 0.1436186 0.1438186 0.1440313
 0.1442407 0.1444425 0.1446439 0.1448564 0.1450841 0.1453175 0.1455422 0.1457528 0.1459557 0.1461582
 0.1463607 0.146562 0.146769 0.1469989 0.1472663 0.1475609 0.1478445 0.1480777 0.1482514 0.1483856
 0.1485068 0.1486344 0.1487826 0.1489591 0.1491597 0.1493709 0.1495817 0.1497899 0.1499999 0.1502162
 0.1504374 0.1506564 0.1508667 0.1510681 0.1512674 0.1514758 0.1516998 0.1519318 0.1521528 0.1523498
 0.1525298 0.1527141 0.152918 0.1531365 0.153348 0.1535349 0.1537014 0.1538678 0.1540499 0.1542472
 0.1544501 0.1546507 0.1548468 0.1550396 0.1552325 0.1554309 0.1556386 0.1558525 0.1560619 0.1562572
 0.1564398 0.1566201 0.1568069 0.1570012 0.1571983 0.1573955 0.1575972 0.1578097 0.1580292 0.1582395
 0.15843 0.1586076 0.1587875 0.1589775 0.1591752 0.1593759 0.1595753 0.1597703 0.1599623 0.1601578
 0.1603639 0.1605813 0.1608012 0.1610121 0.1612139 0.1614197 0.1616411 0.1618739 0.1621013 0.1623089
 0.1624973 0.1626835 0.1628868 0.1631114 0.1633458 0.1635776 0.1638028 0.1640228 0.1642361 0.1644346
 0.1646089 0.1647614 0.1649083 0.165065 0.1652347 0.1654147 0.1656034 0.1657976 0.1659915 0.1661829
 0.1663738 0.166568 0.1667711 0.1669856 0.167203 0.1674096 0.1676036 0.1677953 0.167992 0.1681942
 0.1684013 0.1686121 0.1688231 0.1690305 0.1692321 0.1694306 0.1696353 0.1698532 0.1700772 0.1702943
 0.1705015 0.1707044 0.1709064 0.1711094 0.1713158 0.1715244 0.1717319 0.1719389 0.172147 0.1723576
 0.1725751 0.1728006 0.1730242 0.1732368 0.1734437 0.1736531 0.1738632 0.1740717 0.1742827 0.1744981
 0.1747144 0.1749291 0.1751389 0.1753401 0.1755386 0.1757438 0.175954 0.1761636 0.1763766 0.1765947
 0.1768085 0.1770106 0.1772017 0.177374 0.1774891 0.1774293 0.1768999 0.1753296 0.1718653 0.1655468
 0.1556962 0.1423542 0.1264169 0.1093166 0.0924964 0.07703857 0.06356703 0.05234354 0.04341497 0.0367028
 0.03205513 0.02933628 0.02852667 0.02983118 0.03379614 0.04098659 0.05076282 0.06019302 0.06519006 0.06373846
 0.05782351 0.05162248 0.04802764 0.04723892 0.04800979 0.04927746 0.05071014 0.05250956 0.05501366 0.05831647
 0.0622578 0.06683807 0.07241331 0.07924366 0.08696033 0.09472249 0.1019422 0.1087502 0.115715 0.1231704
 0.1308673 0.1382158 0.1447562 0.1503984 0.1553354 0.1598273 0.1640476 0.168066 0.1719085 0.1755632
 0.1788969 0.1816205 0.1834286 0.1842332 0.1842696 0.1839629 0.183677 0.1835747 0.1836705 0.1839429
 0.1843753 0.1849442 0.185621 0.1863789 0.1871899 0.1880264 0.1888679 0.1896946 0.1904815 0.1912098
 0.1918773 0.1924896 0.193054 0.1935783 0.194066 0.1945134 0.1949214 0.1953029 0.1956716 0.1960307
 0.1963752 0.1966964 0.196987 0.197247 0.1974832 0.1977022 0.1979115 0.1981232 0.1983467 0.1985786
 0.1988075 0.1990255 0.1992318 0.1994316 0.199633 0.1998395 0.2000449 0.2002405 0.2004258 0.2006074
 0.2007923 0.2009833 0.2011793 0.2013785 0.2015832 0.2017971 0.2020153 0.2022244 0.2024146 0.2025884
 0.2027572 0.2029344 0.2031273 0.2033322 0.2035415 0.2037552 0.2039776 0.2042032 0.2044194 0.2046233
 0.2048232 0.2050279 0.2052418 0.2054641 0.205681 0.2058688 0.206016 0.2061413 0.206285 0.2064783
 0.2067163 0.2069628 0.207186 0.2073855 0.2075804 0.207782 0.2079844 0.2081744 0.2083471 0.2085218
 0.20873 0.2089773 0.2092347 0.2094784 0.2097137 0.2099509 0.2101892 0.2104297 0.2106693 0.2108783
 0.2110223 0.2111193 0.2112505 0.2114969 0.2118606 0.2122551 0.212586 0.2128362 0.2130579 0.2133029
 0.2135852 0.2138704 0.2140622 0.2140665 0.2139391 0.2139109 0.2141809 0.2147195 0.2153273 0.2158388
 0.2162207 0.2165211 0.2167851 0.2170098 0.217149 0.2171678 0.2171176 0.2171504 0.2174143 0.2179034
 0.2184526 0.2189047 0.2192299 0.2194691 0.2196538 0.2198075 0.2199048 0.2198058 0.2194034 0.2189043
 0.218785 0.2193305 0.2203109 0.2212261 0.221801 0.2221301 0.2224021 0.2226662 0.2228783 0.2229438
 0.2226139 0.2216297 0.2202268 0.2192762 0.2195688 0.2210222 0.2228227 0.2242372 0.2250734 0.2255062
 0.2257707 0.2260023 0.2261253 0.2258558 0.2250217 0.2239756 0.2234983 0.2240768 0.2253636 0.2265557
 0.2272143 0.227491 0.2276987 0.2279601 0.2281297 0.2277431 0.2262734 0.2239098 0.2219639 0.2219514
 0.2241076 0.227105 0.229369 0.2304343 0.2308291 0.2309185 0.2303626 0.228732 0.226165 0.2233058
 0.2210845 0.2205791 0.2223065 0.2253382 0.2278268 0.228828 0.2291017 0.2298795 0.2314015 0.2329276
 0.2336889 0.2334795 0.2325302 0.231093 0.2293205 0.2276455 0.2270039 0.2281711 0.2308182 0.2336365
 0.2355429 0.2364974 0.2369307 0.2364743 0.2337068 0.2278614 0.2209597 0.2172557 0.2194848 0.2260081
 0.232572 0.2364902 0.2381231 0.2388892 0.2393553 0.239074 0.2368524 0.2314102 0.2234032 0.216689
 0.215714 0.2211134 0.228994 0.2345702 0.2354127 0.2316964 0.2253518 0.2194994 0.2171716 0.2194754
 0.2251126 0.231665 0.2370425 0.2400612 0.2404374 0.2386777 0.2360524 0.2342923 0.2343281 0.2349185
 0.2336003 0.2298017 0.2257889 0.2233416 0.2210109 0.2168104 0.2125801 0.2127727 0.2186595 0.2261909
 0.2305411 0.2310002 0.2301044 0.2290294 0.2255899 0.2173831 0.2063241 0.1987575 0.1999161 0.2084882
 0.2177803 0.2222724 0.2220126 0.2206755 0.2206622 0.2206482 0.2174457 0.2101555 0.202321 0.1989704
 0.2012783 0.2055144 0.207476 0.2058589 0.2008307 0.1926787 0.1841813 0.1814924 0.1889796 0.2038966
 0.2185097 0.2264526 0.2250863 0.2141677 0.1967597 0.181078 0.176501 0.1851861 0.1994535 0.2088376
 0.2083996 0.1996519 0.1860977 0.1708077 0.1578114 0.1525898 0.1588258 0.1746445 0.1925702 0.2032325
 0.2005792 0.1866094 0.1718029 0.1675992 0.1759877 0.1880969 0.1940938 0.1920884 0.1868244 0.1835846
 0.1851313 0.1911216 0.1984792 0.2043134 0.2082367 0.2091314 0.2020653 0.1842156 0.1627235 0.1499805
 0.1507694 0.1598533 0.1718718 0.1861365 0.2001248 0.2062075 0.2002449 0.1894099 0.1860514 0.1945851
 0.207731 0.2154157 0.2147384 0.2104741 0.2077308 0.2065284 0.2043419 0.2019699 0.2037508 0.2115622
 0.2215349 0.2283753 0.2308791 0.2314442 0.2320115 0.2325906 0.2326357 0.2319432 0.2305816 0.2290286
 0.2280192 0.2277245 0.2275942 0.2271863 0.2261507 0.2229818 0.2153472 0.2033616 0.1916545 0.1856941
 0.185995 0.1885129 0.1906685 0.1928542 0.1928186 0.1840753 0.1644664 0.1432039 0.1341606 0.1424551
 0.1606386 0.1771945 0.1853625 0.1837241 0.172773 0.1551278 0.1382618 0.132136 0.1410656 0.1595862
 0.1783025 0.1919727 0.2000402 0.2021303 0.1971202 0.1863724 0.1749706 0.1687906 0.1709544 0.1804932
 0.192639 0.2000039 0.1962193 0.1823022 0.169415 0.1705778 0.1869847 0.2059705 0.2152466 0.2153249
 0.2144267 0.2157083 0.2157533 0.2136136 0.2143693 0.2222038 0.2342736 0.2435136 0.2448366 0.2371463
 0.2226687 0.2074245 0.1996434 0.2031368 0.2129012 0.220496 0.2221661 0.2183444 0.2086973 0.1941969
 0.1823525 0.1826966 0.1957549 0.2118104 0.2219408 0.2261456 0.2292951 0.232738 0.2326512 0.2258171
 0.2149857 0.2071827 0.2067742 0.2116676 0.2168955 0.2198524 0.2203396 0.2176249 0.2108973 0.2026382
 0.1986375 0.2029769 0.2137923 0.2249788 0.2316148 0.2330405 0.2314674 0.2290998 0.2266334 0.2234046
 0.2188684 0.214526 0.2136294 0.2177076 0.2241445 0.2288782 0.2310503 0.2332793 0.2375346 0.2424192
 0.2448709 0.2435047 0.2399307 0.2373504 0.2379921 0.241349 0.244557 0.2448303 0.2421059 0.2393561
 0.2398584 0.2440671 0.2495337 0.2536927 0.2559566 0.2571986 0.2582498 0.2591667 0.2591793 0.2572708
 0.2536111 0.2503968 0.2502978 0.2538149 0.2588094 0.2627197 0.2646357 0.2651658 0.2650329 0.2643183
 0.2628649 0.2609542 0.2593353 0.2586376 0.2589197 0.2598041 0.2608666 0.2618259 0.2625442 0.2630157
 0.2633172 0.2635079 0.2636106 0.263673 0.2637445 0.2637837 0.2637019 0.2635391 0.2634956 0.2637141
 0.2640957 0.2644018 0.2644722 0.2642572 0.2636983 0.2627306 0.2614152 0.2599365 0.2584042 0.2567683
 0.2550538 0.2536444 0.2531803 0.2540665 0.2560902 0.2585516 0.2607526 0.2623472 0.2633304 0.2638484
 0.2640715 0.264147 0.2641648 0.2641361 0.2640244 0.2638056 0.2634972 0.2631376 0.2627547 0.2623633
 0.2619851 0.2616472 0.2613512 0.2610573 0.2607124 0.2602914 0.2598095 0.2592994 0.2587771 0.2582196
 0.2575766 0.2568099 0.2559231 0.2549618 0.2539995 0.2531106 0.252324 0.2515953 0.2508439 0.2500199
 0.2491111 0.2481041 0.2469913 0.2458348 0.2447701 0.2439029 0.2432149 0.2425932 0.2419305 0.2411736
 0.2403097 0.23935 0.2383253 0.2372648 0.2361742 0.2350424 0.233857 0.232604 0.2312666 0.2298375
 0.2283225 0.2267334 0.2250903 0.2234236 0.221743 0.2199936 0.2180546 0.2157792 0.2130355 0.2097285
 0.2058223 0.2013718 0.1965364 0.1915456 0.1866243 0.1819367 0.1775933 0.1736908 0.1703226 0.1675599
 0.165444 0.1640037 0.1632676 0.1632573 0.1639672 0.1653499 0.1673171 0.1697527 0.1725241 0.1754826
 0.1784629 0.1813039 0.1839032 0.1862657 0.1884785 0.1906072 0.1926251 0.1944572 0.1960689 0.1974796
 0.1987099 0.1997573 0.2006227 0.2013324 0.2019243 0.2024254 0.2028481 0.2032041 0.2035111 0.2037811
 0.2040123 0.2042017 0.2043603 0.2045124 0.2046863 0.2049065 0.205185 0.2055222 0.2059191 0.2063788
 0.2068912 0.2074339 0.2079949 0.2085791 0.2091894 0.2098268 0.2105141 0.2113037 0.2122478 0.2133656
 0.2146333 0.2159955 0.2173819 0.218715 0.2199136 0.2209096 0.2216704 0.2222012 0.2225236 0.2226577
 0.2226208 0.2224307 0.2221112 0.2216943 0.2212112 0.2206795 0.2201048 0.2194919 0.2188474 0.2181723
 0.2174642 0.2167315 0.2159987 0.2152914 0.2146188 0.2139743 0.2133515 0.2127483 0.2121568 0.2115646
 0.2109712 0.2103914 0.2098328 0.2092797 0.2087069 0.2080979 0.2074398 0.2067102 0.2058872 0.2049671
 0.2039608 0.2028714 0.2016898 0.2004104 0.1990392 0.1975885 0.1960722 0.1945058 0.1928946 0.1912185
 0.1894384 0.18753 0.1855184 0.1834782 0.1814956 0.1796271 0.1778902 0.1762768 0.1747673 0.1733412
 0.171987 0.1706999 0.1694716 0.1682932 0.1671665 0.1660988 0.1650898 0.1641346 0.1632397 0.1624264
 0.1617158 0.161108 0.160579 0.1601051 0.1596856 0.1593319 0.1590478 0.1588412 0.1587357 0.1587414
 0.1588211 0.1589012 0.1589152 0.1588369 0.1586908 0.1585309 0.1583994 0.1583095 0.1582579 0.1582217
 0.1581333 0.1578839 0.157363 0.156497 0.1552719 0.1537344 0.1519725 0.1501007 0.1482575 0.1465753
 0.1451314 0.1439486 0.1430331 0.1423655 0.1418734 0.1414719 0.1411405 0.1409349 0.140924 0.1411069
 0.1413717 0.1415612 0.1416183 0.1416454 0.141806 0.1422002 0.1428239 0.1435817 0.1443341 0.1449808
 0.1454981 0.1458902 0.1461549 0.1463056 0.1463653 0.1463324 0.1461959 0.1459731 0.1456981 0.1453956
 0.1450709 0.1446957 0.144221 0.1436309 0.14295 0.1421923 0.1413578 0.1404592 0.1394821 0.1383712
 0.1371519 0.1360293 0.1352891 0.1351188 0.1355159 0.1363072 0.1372772 0.1383135 0.1393546 0.1401971
 0.1405725 0.1405578 0.1407522 0.1418299 0.143896 0.1463662 0.1484846 0.1498695 0.1505437 0.1506209
 0.1501535 0.1491828 0.1477211 0.1457267 0.1432256 0.1403709 0.1373177 0.1341868 0.1311606 0.1284356
 0.1261086 0.1242111 0.1227554 0.1217759 0.1213923 0.1212246 0.1193493 0.1133046 0.103906 0.09692096
 0.09818556 0.1070247 0.1167546 0.1217448 0.1218777 0.1201743 0.118693 0.1177243 0.1171595 0.1171648
 0.1178907 0.1191966 0.1206821 0.1219209 0.1227128 0.1230782 0.1229994 0.1221602 0.1198386 0.1151498
 0.1077678 0.09855939 0.08929253 0.0815983 0.07622348 0.07304399 0.0714348 0.07063775 0.07012015 0.06982011
 0.07005149 0.07112931 0.07309641 0.0757864 0.07900514 0.08250785 0.08588654 0.0887201 0.09088958 0.09259112
 0.0940033 0.09507445 0.09565584 0.09570608 0.09531794 0.09464353 0.09384637 0.09304833 0.09223764 0.09127043
 0.09007592 0.08885665 0.08796307 0.08754829 0.08745781 0.08745897 0.08744499 0.08740922 0.08735742 0.08728439
 0.08718412 0.08709656 0.08714828 0.08745915 0.08798116 0.08850615 0.08885117 0.08899499 0.08904037 0.0890454
 0.08887975 0.08834224 0.08749618 0.08671117 0.08618496 0.08560337 0.08455421 0.08317377 0.08209237 0.08175576
 0.08202043 0.08240882 0.08255701 0.08239017 0.08208247 0.08196848 0.08232607 0.08305481 0.08365272 0.08368247
</values></Ydata></ScRf><Data_Parameters_AB><parameter name="DPF">1</parameter><parameter name="NPT">3497</parameter><parameter name="FXV">3996</parameter><parameter name="LXV">500</parameter><parameter name="CSF">1</parameter><parameter name="MXY">0.059373676776886</parameter><parameter name="MNY">-0.0482990220189095</parameter><parameter name="DAT">01/06/2022</parameter><parameter name="TIM">11:28:17.586 (GMT+2)</parameter><parameter name="DXU">WN</parameter></Data_Parameters_AB><AB__Qtest><MainReport name="Quality Test Report"><Header><Line><Legend>Test result ok/not ok [1/0]: </Legend><Value>0</Value></Line><Line><Legend>Method file: </Legend><Value>C:\Users\Public\Documents\Bruker\OPUS_8.2.28\QT\IRBT_v3_default.QT</Value></Line></Header><Matrix><Line><Legend></Legend><Legend>min</Legend><Legend>max</Legend><Legend>measured</Legend></Line><Line><Value>Absorption (X-Range 1):</Value><Value>0.400000</Value><Value>2.000000</Value><Value>0.077709</Value></Line><Line><Value>Noise (X-Range 4):</Value><Value></Value><Value>0.000300</Value><Value>0.000036</Value></Line><Line><Value>Signal/Noise (X-Range 2):</Value><Value>200.000000</Value><Value></Value><Value>37.312644</Value></Line><Line><Value>Signal/Noise (X-Range 3):</Value><Value>40.000000</Value><Value></Value><Value>29.110078</Value></Line><Line><Value>Water vapour (X-Range 5):</Value><Value></Value><Value>0.000300</Value><Value>0.000057</Value></Line><Line><Value>Signal/Water (X-Range 2):</Value><Value>100.000000</Value><Value></Value><Value>23.402781</Value></Line><Line><Value>Signal/Water (X-Range 3):</Value><Value>20.000000</Value><Value></Value><Value>18.258068</Value></Line><Line><Value>Fringes (X-Range 6):</Value><Value></Value><Value>0.000100</Value><Value>0.000064</Value></Line></Matrix></MainReport></AB__Qtest><Data_Parameters_ScSm><parameter name="DPF">1</parameter><parameter name="NPT">1814</parameter><parameter name="FXV">3996.33169228125</parameter><parameter name="LXV">499.541461535156</parameter><parameter name="CSF">1</parameter><parameter name="MXY">0.271292597055435</parameter><parameter name="MNY">0.0318811908364296</parameter><parameter name="DAT">01/06/2022</parameter><parameter name="TIM">11:28:17.586 (GMT+2)</parameter><parameter name="DXU">WN</parameter></Data_Parameters_ScSm><Data_Parameters_ScRf><parameter name="DPF">1</parameter><parameter name="NPT">1820</parameter><parameter name="FXV">4004.04661832813</parameter><parameter name="LXV">495.683998511719</parameter><parameter name="CSF">1</parameter><parameter name="MXY">0.265165776014328</parameter><parameter name="MNY">0.0285266749560833</parameter><parameter name="DAT">01/06/2022</parameter><parameter name="TIM">11:27:52.023 (GMT+2)</parameter><parameter name="DXU">WN</parameter></Data_Parameters_ScRf><Optic_Parameters_Rf><parameter name="APR">0</parameter><parameter name="APT">Open</parameter><parameter name="BMS">KBr</parameter><parameter name="DTC">RT-DLaTGS_IR-Biotyper [Microplate reader]</parameter><parameter name="HPF">0</parameter><parameter name="LPF">10.0</parameter><parameter name="LPV">4000</parameter><parameter name="PGR">0</parameter><parameter name="RCH">Module port</parameter><parameter name="RDX">0</parameter><parameter name="SRC">MIR</parameter><parameter name="VEL">10.0</parameter><parameter name="SON">Off</parameter></Optic_Parameters_Rf><Acquisition_Parameters_Rf><parameter name="ADT">1</parameter><parameter name="AQM">DD</parameter><parameter name="CFE">0</parameter><parameter name="COR">0</parameter><parameter name="DEL">0</parameter><parameter name="DLY">0</parameter><parameter name="HFW">8000</parameter><parameter name="LFW">0</parameter><parameter name="NSR">32</parameter><parameter name="PLF">AB</parameter><parameter name="RES">6</parameter><parameter name="RGN">-1</parameter><parameter name="STR">0</parameter><parameter name="TCL">MakeCompatibleScalar (0, {WSV=1.000000, ARV=0});</parameter><parameter name="TDL">37</parameter><parameter name="RPO">0</parameter></Acquisition_Parameters_Rf><FT_-_Parameters_Rf><parameter name="APF">B3</parameter><parameter name="HFQ">500</parameter><parameter name="LFQ">4000</parameter><parameter name="NLI">0</parameter><parameter name="PHR">24</parameter><parameter name="PHZ">ML</parameter><parameter name="SPZ">NO</parameter><parameter name="ZFF">1</parameter></FT_-_Parameters_Rf><Optic_Parameters_><parameter name="APR">0</parameter><parameter name="APT">Open</parameter><parameter name="BMS">KBr</parameter><parameter name="CHN">Module port</parameter><parameter name="DTC">RT-DLaTGS_IR-Biotyper [Microplate reader]</parameter><parameter name="HPF">0</parameter><parameter name="LPF">10.0</parameter><parameter name="LPV">4000</parameter><parameter name="PGN">0</parameter><parameter name="RDX">0</parameter><parameter name="SRC">MIR</parameter><parameter name="VEL">10.0</parameter><parameter name="SON">Off</parameter></Optic_Parameters_><FT_-_Parameters_><parameter name="APF">B3</parameter><parameter name="HFQ">500</parameter><parameter name="LFQ">4000</parameter><parameter name="NLI">0</parameter><parameter name="PHR">24</parameter><parameter name="PHZ">ML</parameter><parameter name="SPZ">NO</parameter><parameter name="ZFF">1</parameter></FT_-_Parameters_><Acquisition_Parameters_><parameter name="ADT">1</parameter><parameter name="AQM">DD</parameter><parameter name="CFE">0</parameter><parameter name="COR">0</parameter><parameter name="DEL">0</parameter><parameter name="DLY">0</parameter><parameter name="HFW">8000</parameter><parameter name="LFW">0</parameter><parameter name="NSS">32</parameter><parameter name="PLF">AB</parameter><parameter name="RES">6</parameter><parameter name="SOT">0</parameter><parameter name="TCL">MakeCompatibleScalar (0, {WSV=1.000000, ARV=0});</parameter><parameter name="TDL">37</parameter><parameter name="SPO">0</parameter><parameter name="SGN">-1</parameter></Acquisition_Parameters_><Instrument_Parameters_Rf><parameter name="HFL">15800.168544</parameter><parameter name="LFL">0</parameter><parameter name="LWN">15800.168544</parameter><parameter name="ABP">32197</parameter><parameter name="SSP">1</parameter><parameter name="ARG">2</parameter><parameter name="ASG">2</parameter><parameter name="ASS">32</parameter><parameter name="GFW">16</parameter><parameter name="GBW">16</parameter><parameter name="BFW">0</parameter><parameter name="BBW">0</parameter><parameter name="PKA">7307</parameter><parameter name="PKL">4996</parameter><parameter name="PRA">7478</parameter><parameter name="PRL">5001</parameter><parameter name="P2A">1</parameter><parameter name="P2L">1</parameter><parameter name="P2R">1</parameter><parameter name="P2K">1</parameter><parameter name="DAQ">0</parameter><parameter name="AG2">1</parameter><parameter name="SSM">1</parameter><parameter name="RSN">25899</parameter><parameter name="CRR">0</parameter><parameter name="SRT">1654082872.024</parameter><parameter name="DUR">19.6389923095703</parameter><parameter name="TSC">29</parameter><parameter name="MVD">0.30296117067337</parameter><parameter name="AN1">0.225768090069533</parameter><parameter name="AN2">0</parameter><parameter name="VSN">2.485 Apr  4 2017</parameter><parameter name="SRN">0085</parameter><parameter name="CAM">0</parameter><parameter name="INS">IR-Biotyper</parameter><parameter name="FOC">69</parameter><parameter name="RDY">1</parameter><parameter name="ARS">32</parameter></Instrument_Parameters_Rf><Sample_Parameters_><parameter name="BLD"></parameter><parameter name="CNM">Admin</parameter><parameter name="CPY"></parameter><parameter name="DPM"></parameter><parameter name="EXP">IRBT_v3_32Scans.XPM</parameter><parameter name="LCT"></parameter><parameter name="SFM">Microplate, HTS-XT</parameter><parameter name="SNM">220601-1028(v.3)_RTF49M (D_11)_H4_dc56b041-8956-4655-b620-c1a511b8537b.0</parameter><parameter name="XPP">C:\Users\Public\Documents\Bruker\OPUS_8.2.28\XPM</parameter><parameter name="IST">OK</parameter><parameter name="CPG">1252</parameter><parameter name="UID">7d4e47da-6c83-4287-aec7-2b24e7d948bc</parameter></Sample_Parameters_><Instrument_Parameters_><parameter name="HFL">15800.168544</parameter><parameter name="LFL">0</parameter><parameter name="LWN">15800.168544</parameter><parameter name="ABP">32197</parameter><parameter name="SSP">1</parameter><parameter name="ASG">2</parameter><parameter name="ARG">2</parameter><parameter name="ASS">32</parameter><parameter name="GFW">16</parameter><parameter name="GBW">16</parameter><parameter name="BFW">0</parameter><parameter name="BBW">0</parameter><parameter name="PKA">7586</parameter><parameter name="PKL">4988</parameter><parameter name="PRA">7803</parameter><parameter name="PRL">4993</parameter><parameter name="P2A">1</parameter><parameter name="P2L">1</parameter><parameter name="P2R">1</parameter><parameter name="P2K">1</parameter><parameter name="DAQ">0</parameter><parameter name="AG2">1</parameter><parameter name="SSM">1</parameter><parameter name="RSN">13575</parameter><parameter name="CRR">0</parameter><parameter name="SRT">1654082897.587</parameter><parameter name="DUR">19.6389923095703</parameter><parameter name="TSC">29</parameter><parameter name="MVD">0.662977039813995</parameter><parameter name="AN1">0.225794313404016</parameter><parameter name="AN2">0</parameter><parameter name="VSN">2.485 Apr  4 2017</parameter><parameter name="SRN">0085</parameter><parameter name="CAM">0</parameter><parameter name="INS">IR-Biotyper</parameter><parameter name="FOC">69</parameter><parameter name="RDY">1</parameter></Instrument_Parameters_><History/></OPUSDataFile>
