<?xml version="1.0" encoding="UTF-8" ?>
<OPUSDataFile><AB><Ydata ylabel="Absorbance Units"><values byteorder="INTEL" format="FLOAT32" numvalues="3497"> -0.04560597 -0.04560056 -0.04557881 -0.04554058 -0.04548708 -0.04541841 -0.04534874 -0.04527918 -0.04522799 -0.04519499
 -0.04519002 -0.0452092 -0.04524534 -0.04529279 -0.04533383 -0.04536809 -0.04538486 -0.04539236 -0.04539595 -0.04540152
 -0.04541792 -0.04543921 -0.04546487 -0.04548843 -0.04550448 -0.04552284 -0.04554383 -0.04558223 -0.04564242 -0.04571791
 -0.04580988 -0.0458907 -0.0459589 -0.04599509 -0.04600025 -0.04598212 -0.04594376 -0.04590774 -0.04587409 -0.04585578
 -0.04584868 -0.04584936 -0.04585447 -0.04585576 -0.04585499 -0.04585047 -0.04584609 -0.04584549 -0.04584744 -0.04585379
 -0.04585691 -0.04585408 -0.04584137 -0.04581533 -0.04578556 -0.04575158 -0.04573336 -0.0457328 -0.04576429 -0.04582874
 -0.0459215 -0.04604084 -0.04616281 -0.04628536 -0.04638251 -0.04645664 -0.04650121 -0.04652241 -0.04653194 -0.04653363
 -0.04654017 -0.04654959 -0.04656574 -0.04658206 -0.04659526 -0.0465982 -0.04658573 -0.0465553 -0.04650341 -0.04643574
 -0.04635111 -0.04626493 -0.04617793 -0.04611313 -0.04607243 -0.04607789 -0.04613091 -0.04623656 -0.04639294 -0.04657649
 -0.04678175 -0.04696317 -0.04711818 -0.04720974 -0.0472468 -0.04723037 -0.04717446 -0.04710392 -0.04702475 -0.04695468
 -0.04689151 -0.04684005 -0.04679391 -0.04675097 -0.04670598 -0.04665455 -0.04660264 -0.04654888 -0.04651035 -0.04648983
 -0.0464983 -0.04653848 -0.046598 -0.04667638 -0.04674636 -0.04680758 -0.04684858 -0.04687274 -0.04689569 -0.04692029
 -0.04696754 -0.04703305 -0.04711929 -0.04721472 -0.04730037 -0.04737004 -0.04740597 -0.04741583 -0.04739969 -0.047366
 -0.04731999 -0.04726469 -0.04719923 -0.04713874 -0.04708349 -0.04706331 -0.04708325 -0.04716419 -0.04731173 -0.04750142
 -0.04773283 -0.0478976 -0.04799169 -0.04792428 -0.04771492 -0.04744599 -0.04713543 -0.04689812 -0.04672753 -0.04666618
 -0.04669792 -0.04682031 -0.04700363 -0.04721788 -0.04742365 -0.04757622 -0.04766211 -0.04765161 -0.047582 -0.04745745
 -0.04732394 -0.04719786 -0.04708677 -0.04699598 -0.04691223 -0.04683399 -0.0467602 -0.04669059 -0.04663949 -0.04660748
 -0.04660666 -0.04663537 -0.04669096 -0.04676774 -0.04684405 -0.04691286 -0.04694374 -0.04693824 -0.0468811 -0.04678786
 -0.04666889 -0.04654351 -0.04643127 -0.04634303 -0.04629107 -0.04627644 -0.0463037 -0.04636517 -0.04646206 -0.04657548
 -0.04670413 -0.04682217 -0.04692721 -0.04699609 -0.04702722 -0.04700754 -0.04693721 -0.0468166 -0.04664803 -0.04644511
 -0.04621275 -0.04597491 -0.04573914 -0.04553649 -0.0453715 -0.04526909 -0.04522176 -0.04523479 -0.04528654 -0.04536286
 -0.04544125 -0.04550289 -0.04554295 -0.04555218 -0.04554483 -0.04552163 -0.04550144 -0.04548796 -0.04549117 -0.04551327
 -0.0455508 -0.04560382 -0.04565962 -0.04571735 -0.04576176 -0.04579264 -0.04580018 -0.0457865 -0.0457535 -0.04570559
 -0.04565437 -0.04560416 -0.04556801 -0.04554751 -0.04554984 -0.04557468 -0.04562225 -0.0456981 -0.04580352 -0.04594992
 -0.0461455 -0.04638316 -0.04667111 -0.04695599 -0.04723402 -0.04743393 -0.04754567 -0.04754692 -0.04743519 -0.04722561
 -0.04692046 -0.04655554 -0.04613981 -0.04575253 -0.04540092 -0.04515996 -0.04502139 -0.04500784 -0.04509366 -0.04525146
 -0.04544004 -0.04559444 -0.04569796 -0.04570322 -0.04564496 -0.04552772 -0.04539183 -0.04525691 -0.04513785 -0.04504545
 -0.04496851 -0.04490835 -0.04484136 -0.04476403 -0.04467199 -0.04456421 -0.04446712 -0.0443824 -0.04434273 -0.04434651
 -0.04440285 -0.04450028 -0.04460151 -0.04468875 -0.04468785 -0.04460989 -0.04442958 -0.04419279 -0.04395226 -0.04372554
 -0.04355571 -0.04341402 -0.04329873 -0.04317176 -0.04301171 -0.04281829 -0.04258102 -0.04233925 -0.04209875 -0.04188754
 -0.04171239 -0.04155493 -0.0414151 -0.04124045 -0.04102971 -0.04075627 -0.04042915 -0.04010233 -0.03978303 -0.03953523
 -0.03934658 -0.03921655 -0.03913183 -0.0390671 -0.039017 -0.03896746 -0.03890841 -0.03882878 -0.03871482 -0.03855243
 -0.03834461 -0.03808902 -0.03779192 -0.03745902 -0.0370702 -0.0366214 -0.03610544 -0.03551753 -0.03489612 -0.03424313
 -0.03360147 -0.03297253 -0.03237757 -0.03181758 -0.03131072 -0.0308572 -0.03047132 -0.03014492 -0.02986602 -0.02962107
 -0.02937989 -0.02913336 -0.02886198 -0.02854871 -0.02817641 -0.02771981 -0.02714678 -0.02648787 -0.02573591 -0.02497187
 -0.02422273 -0.02351327 -0.02285678 -0.02222883 -0.02162774 -0.021037 -0.02045492 -0.01988927 -0.01934118 -0.01883529
 -0.01837164 -0.01796811 -0.01761251 -0.01727175 -0.01691597 -0.01643884 -0.01584036 -0.01504637 -0.01413526 -0.01318028
 -0.01223852 -0.01140343 -0.01064717 -0.009984464 -0.009363089 -0.008761887 -0.008155493 -0.007528624 -0.006890735 -0.006241142
 -0.005591543 -0.004945309 -0.004287212 -0.003616967 -0.002901684 -0.002140635 -0.001322017 -0.0004508793 0.000439652 0.001343634
 0.002216528 0.003059922 0.003854652 0.004606692 0.005316471 0.005994146 0.006650281 0.007300683 0.007965485 0.008647099
 0.009357319 0.01007758 0.01079876 0.01152324 0.01224176 0.01300212 0.01381367 0.01470156 0.01567749 0.01667032
 0.01767703 0.01860203 0.01944356 0.02018806 0.02084268 0.02145677 0.02203667 0.02263714 0.02325617 0.02392013
 0.024615 0.02532674 0.02604298 0.02673412 0.02741586 0.02808357 0.02878048 0.02953652 0.03036631 0.03129837
 0.03227175 0.0332792 0.03424766 0.03515745 0.03599279 0.03674606 0.03744915 0.038103 0.03875758 0.03941514
 0.04011477 0.04085485 0.04164054 0.04246761 0.04331958 0.04419528 0.04508466 0.04598448 0.04688839 0.04778197
 0.04864349 0.04946236 0.0502148 0.05091711 0.05156862 0.05219914 0.05282461 0.05345153 0.05408947 0.05471551
 0.05532601 0.05590645 0.05645074 0.05699098 0.05752798 0.05812094 0.05877149 0.05950052 0.06030073 0.06112194
 0.06195475 0.06272599 0.0634418 0.06407689 0.0646534 0.06520229 0.06574108 0.0663119 0.06690659 0.06753829
 0.0681766 0.06880444 0.0694043 0.06995577 0.07048685 0.07099576 0.07153743 0.07212404 0.07278258 0.07352165
 0.07431623 0.07516619 0.07602045 0.07687657 0.07769283 0.07846932 0.07918859 0.07985276 0.08046112 0.08101705
 0.08152674 0.08199961 0.08245366 0.0829048 0.08338397 0.08389591 0.0844616 0.08506258 0.08569299 0.08633737
 0.08698291 0.0876401 0.08831185 0.08899721 0.08970277 0.0903833 0.09103325 0.09162308 0.09214751 0.09265943
 0.09316241 0.09374301 0.09439792 0.09514066 0.09595288 0.09675691 0.09753876 0.09821112 0.0987854 0.09923624
 0.0995969 0.09990222 0.1001792 0.1004712 0.1007759 0.1011071 0.101448 0.1017913 0.1021371 0.102482
 0.1028373 0.1032059 0.1035884 0.1039853 0.1043962 0.1048208 0.10527 0.1057443 0.1062443 0.1067681
 0.1072967 0.1078311 0.1083642 0.108901 0.1094565 0.1100267 0.1106149 0.1112052 0.1117762 0.1123173
 0.112808 0.1132511 0.1136419 0.1139875 0.1142898 0.114556 0.1147867 0.1149956 0.1151838 0.115373
 0.1155657 0.115784 0.11603 0.116313 0.1166331 0.1169803 0.1173535 0.1177376 0.1181334 0.118538
 0.1189509 0.1193724 0.1197942 0.1201999 0.1205816 0.1209159 0.1212155 0.1214783 0.1217362 0.1220124
 0.1223205 0.1226824 0.1230614 0.1234555 0.1238085 0.1241034 0.1243351 0.1244952 0.1246437 0.1247848
 0.1249635 0.1251802 0.1253966 0.1256074 0.1257418 0.1258071 0.1257963 0.1257301 0.1256696 0.1256243
 0.1256483 0.1257267 0.1258636 0.1260346 0.1262151 0.1263938 0.1265503 0.1267003 0.1268405 0.1270077
 0.1272142 0.12748 0.1278196 0.1281909 0.1285961 0.1289437 0.1292265 0.12938 0.1294028 0.1293199
 0.1291394 0.1289498 0.1287548 0.1286215 0.12854 0.1285139 0.1285351 0.1285848 0.1286685 0.1287894
 0.1289442 0.1291406 0.1293428 0.1295311 0.1296702 0.1297288 0.129728 0.1296587 0.1295898 0.129535
 0.1295394 0.1296161 0.1297412 0.1299162 0.1300709 0.1302017 0.1302442 0.1301998 0.130054 0.1298193
 0.1295461 0.1292519 0.1290196 0.1288532 0.1288086 0.1288623 0.1290113 0.129211 0.1294173 0.1295931
 0.1296928 0.1297191 0.129653 0.1295404 0.1293886 0.1292499 0.1291378 0.1290779 0.1290757 0.1291416
 0.1292764 0.1294986 0.129809 0.1302151 0.1307112 0.1312475 0.1318081 0.1322855 0.1326701 0.1328646
 0.1328921 0.1327416 0.132473 0.1321663 0.1318784 0.1317088 0.131652 0.1317526 0.1319284 0.1321601
 0.1323475 0.1324494 0.1324234 0.1322433 0.1319508 0.1315423 0.1311065 0.1306504 0.130239 0.129875
 0.1295584 0.1292862 0.1290233 0.1287723 0.1285259 0.1282954 0.1281153 0.1279876 0.1279424 0.1279528
 0.128001 0.1280367 0.1280025 0.1278594 0.1275521 0.1270962 0.126471 0.1257539 0.1249586 0.1241774
 0.1234345 0.1227799 0.1222275 0.121772 0.1214159 0.1211179 0.1208756 0.1206274 0.120371 0.120053
 0.1196803 0.1192563 0.1187983 0.1183684 0.11797 0.1176514 0.1173813 0.1171375 0.1168796 0.1165478
 0.1161452 0.1156404 0.1150974 0.1145321 0.1140245 0.1136105 0.1133138 0.1131586 0.1130748 0.1130631
 0.1130006 0.1128758 0.1126134 0.1122101 0.1117011 0.1110944 0.1104911 0.1098943 0.1093751 0.1089227
 0.1085394 0.1082116 0.1079093 0.107626 0.1073389 0.1070465 0.1067387 0.1064171 0.1060783 0.1057293
 0.105372 0.1050154 0.1046639 0.1043205 0.103988 0.1036607 0.1033389 0.1030116 0.1026782 0.1023262
 0.101955 0.1015585 0.1011375 0.1007009 0.1002523 0.09981625 0.09939602 0.09901733 0.09867717 0.09838432
 0.09812725 0.09789409 0.09766957 0.09743298 0.09717418 0.09687731 0.09654471 0.09617017 0.09577098 0.09535006
 0.0949285 0.09451316 0.09410896 0.09371965 0.09332836 0.0929341 0.09251977 0.09208453 0.09163343 0.091168
 0.09070817 0.09025424 0.08981866 0.08939905 0.08899345 0.08860037 0.08821471 0.08783795 0.08747028 0.08711317
 0.08676893 0.08643655 0.08611483 0.0858068 0.08551028 0.08524133 0.085005 0.08481398 0.08467904 0.08456764
 0.08448312 0.08434187 0.08413674 0.08380195 0.083334 0.08275854 0.08208355 0.08141346 0.08075606 0.08021329
 0.07977735 0.07948319 0.0793018 0.07919089 0.07911044 0.07897576 0.07877012 0.0784291 0.0779938 0.0774634
 0.07691441 0.07639096 0.07592608 0.07555231 0.07522913 0.07495382 0.07468336 0.07440432 0.07414293 0.07389784
 0.07373437 0.07365592 0.07367904 0.0737975 0.07393904 0.07409091 0.07413926 0.07408409 0.07385594 0.07348281
 0.07298817 0.07241482 0.07184529 0.07129701 0.07083061 0.07041868 0.07006176 0.06972584 0.06938565 0.06904841
 0.06870702 0.06839174 0.06811313 0.06786665 0.06765669 0.06744527 0.06722778 0.06699724 0.06675305 0.06654089
 0.06636252 0.06625613 0.0662149 0.0662192 0.06625857 0.06628335 0.06629344 0.06626155 0.06619821 0.06610864
 0.06600165 0.06589264 0.06577606 0.06565849 0.06551363 0.06533249 0.06508338 0.0647468 0.06433023 0.06382105
 0.06329224 0.06274913 0.06228244 0.06190437 0.06163449 0.06147465 0.06134607 0.06124249 0.06105762 0.06079485
 0.06041411 0.05993647 0.05941309 0.05886786 0.058387 0.05797212 0.05767202 0.05745791 0.05732043 0.05721977
 0.05712019 0.05700089 0.05683553 0.05663808 0.05640233 0.05616827 0.05594397 0.05576251 0.05563497 0.05554536
 0.05549668 0.05542236 0.05531874 0.05513672 0.05487956 0.05458191 0.05425389 0.05398035 0.05375641 0.05361564
 0.05353321 0.05346219 0.05339277 0.05327518 0.05314368 0.05301123 0.05293066 0.05295161 0.05309658 0.05339643
 0.05383724 0.05442062 0.05513153 0.05596485 0.0569206 0.05799957 0.05919336 0.06050455 0.06188314 0.06332679
 0.06473371 0.06609669 0.0672922 0.06831762 0.06908914 0.06961958 0.06990661 0.06997418 0.06987882 0.06963763
 0.0693064 0.06888705 0.06840219 0.06785215 0.06723836 0.06657985 0.06587918 0.06518085 0.06449659 0.06388091
 0.06334936 0.06293787 0.06265574 0.06251277 0.06251003 0.06266157 0.062968 0.06347327 0.06417926 0.06512649
 0.06630747 0.06769974 0.06928454 0.07097936 0.07277253 0.0745897 0.07643968 0.07830238 0.08019433 0.08212958
 0.08411361 0.08615653 0.08825674 0.09041462 0.09263325 0.09491608 0.09725628 0.0996608 0.1020805 0.1045159
 0.1068727 0.1091434 0.1112322 0.113133 0.114797 0.1162246 0.1174193 0.1183842 0.1191406 0.1196921
 0.1200562 0.1202492 0.1203081 0.1202767 0.1202385 0.1202478 0.1204068 0.1207318 0.1212823 0.1220157
 0.1229299 0.1239664 0.1250986 0.1263046 0.1275712 0.1289055 0.1303082 0.131776 0.1333103 0.1348864
 0.1365032 0.1381271 0.1397562 0.1413554 0.1429243 0.1444392 0.1459077 0.1473421 0.148759 0.1502078
 0.1516952 0.1532713 0.1548913 0.156556 0.1581177 0.1594977 0.1604432 0.1608057 0.1603598 0.1589516
 0.1565998 0.1532256 0.1491783 0.144472 0.1396198 0.1346733 0.1300358 0.1257374 0.1219189 0.1185757
 0.1156329 0.1130745 0.1107605 0.1086845 0.1067497 0.1049544 0.1032508 0.1016267 0.1000423 0.0984807
 0.09690104 0.09530699 0.09367948 0.09205472 0.09044302 0.08889185 0.08742214 0.08606399 0.08482987 0.08373158
 0.0827712 0.0819658 0.08131494 0.08086056 0.08060493 0.08059967 0.08084441 0.08134201 0.08207702 0.08295182
 0.08393795 0.08486759 0.08573037 0.08639935 0.08691599 0.08727936 0.08757509 0.08790342 0.08834102 0.08899496
 0.08987907 0.09104461 0.0924335 0.09404282 0.09578649 0.09764017 0.09955047 0.1015019 0.1034871 0.105509
 0.1075166 0.1095114 0.1112433 0.1126862 0.1133595 0.1132359 0.1118594 0.1092865 0.1054526 0.1005324
 0.09492195 0.08881896 0.08276628 0.07685454 0.07143353 0.06645811 0.06201679 0.05800817 0.05439527 0.05110392
 0.04809466 0.04532997 0.04279521 0.04045752 0.03831127 0.03632011 0.03447982 0.0327625 0.03116613 0.02967082
 0.02827538 0.02695914 0.02572068 0.02453942 0.02341546 0.02233682 0.02130723 0.02032963 0.01940928 0.01855917
 0.01777688 0.01706949 0.01641873 0.01581469 0.01523172 0.01465025 0.01405984 0.0134467 0.01282911 0.01220584
 0.01161193 0.01105397 0.01055374 0.01011699 0.009727399 0.009384946 0.009046135 0.008709584 0.008349893 0.007971117
 0.0075921 0.00721642 0.006873339 0.006553645 0.006249897 0.00594653 0.00560759 0.005233688 0.004804832 0.004344453
 0.003863593 0.003390195 0.002944698 0.002542636 0.002197116 0.001906734 0.001677287 0.001485986 0.00133293 0.001176844
 0.001013153 0.0008105034 0.00056571 0.0002873762 -2.278637E-05 -0.0003266727 -0.0006231219 -0.0008844374 -0.001114571 -0.001315095
 -0.001491002 -0.001657214 -0.001814978 -0.001973814 -0.002132375 -0.002293153 -0.002453284 -0.002612606 -0.002763753 -0.002903531
 -0.003021847 -0.00311211 -0.003174835 -0.003204901 -0.003225024 -0.003236364 -0.00327218 -0.003337324 -0.003445763 -0.003599595
 -0.003777871 -0.003978922 -0.004167406 -0.004343276 -0.004488755 -0.004608139 -0.004710141 -0.004798961 -0.004892029 -0.00498763
 -0.005092578 -0.005198728 -0.005298586 -0.005384598 -0.005444281 -0.005483458 -0.00549702 -0.005509838 -0.005528963 -0.005581995
 -0.005680873 -0.005829035 -0.006032598 -0.006265708 -0.006527049 -0.006785396 -0.007038247 -0.007271866 -0.007486103 -0.007683181
 -0.007863818 -0.008034151 -0.008194908 -0.008352013 -0.008506654 -0.008665715 -0.008828633 -0.008998964 -0.009171894 -0.009343191
 -0.009506973 -0.009655608 -0.009788087 -0.009900367 -0.009997388 -0.0100802 -0.01015328 -0.01021843 -0.01027661 -0.01032799
 -0.01037454 -0.01041608 -0.01045879 -0.01050308 -0.01055375 -0.01061067 -0.01066899 -0.01072741 -0.01077271 -0.01080462
 -0.01081352 -0.01080309 -0.01077724 -0.01074317 -0.01071616 -0.01070212 -0.010716 -0.01075833 -0.01083588 -0.01094398
 -0.01108268 -0.01124402 -0.01142604 -0.01161712 -0.01181455 -0.01200527 -0.01218595 -0.01235063 -0.01249731 -0.0126322
 -0.01275536 -0.01287948 -0.01300504 -0.01313983 -0.01328319 -0.01343374 -0.01358987 -0.01374365 -0.01389417 -0.01403399
 -0.01416489 -0.01428594 -0.01440143 -0.01451697 -0.01463522 -0.01476203 -0.01489396 -0.0150318 -0.01516763 -0.0152983
 -0.01541776 -0.01552291 -0.01561376 -0.01568878 -0.01575531 -0.01581336 -0.0158758 -0.01594344 -0.01602878 -0.01613215
 -0.0162561 -0.01639926 -0.0165515 -0.01671094 -0.01686296 -0.01700822 -0.01713997 -0.01726216 -0.01737914 -0.01749467
 -0.01761681 -0.01774438 -0.01788046 -0.01801891 -0.018157 -0.01828875 -0.01841003 -0.01852065 -0.01861873 -0.0187101
 -0.0187952 -0.01888135 -0.01896968 -0.01906365 -0.01916372 -0.01926871 -0.01937854 -0.01949078 -0.0196056 -0.01972346
 -0.01984441 -0.01996949 -0.02009723 -0.02022441 -0.02034833 -0.02046166 -0.02056376 -0.02064941 -0.02072253 -0.02078409
 -0.02084055 -0.02089639 -0.02095596 -0.02102263 -0.02109719 -0.02118066 -0.02127254 -0.02137307 -0.02148075 -0.02159584
 -0.02171297 -0.02183194 -0.02194384 -0.02204826 -0.02213868 -0.02221562 -0.02228042 -0.02233461 -0.02238586 -0.0224355
 -0.02249152 -0.02255429 -0.0226287 -0.02271362 -0.02281028 -0.02291518 -0.02302634 -0.023138 -0.02324601 -0.02334566
 -0.02343304 -0.02350886 -0.02357154 -0.02362749 -0.02367748 -0.02372821 -0.02378093 -0.0238372 -0.02389738 -0.02395898
 -0.0240219 -0.02408421 -0.02414594 -0.02420685 -0.02426684 -0.02432526 -0.02438187 -0.02443537 -0.02448611 -0.02453394
 -0.02457981 -0.02462501 -0.0246702 -0.02471644 -0.02476409 -0.02481395 -0.02486519 -0.02491818 -0.02496994 -0.02502
 -0.02506422 -0.0251011 -0.02513129 -0.02515398 -0.02517713 -0.02520123 -0.02523408 -0.02527586 -0.02532458 -0.02537932
 -0.02543015 -0.02547714 -0.02551434 -0.02554497 -0.0255753 -0.02560915 -0.02565828 -0.02572245 -0.02580785 -0.02590844
 -0.02602138 -0.02613874 -0.02625413 -0.02636308 -0.02646098 -0.02654984 -0.02662835 -0.02670378 -0.02677726 -0.02685527
 -0.02693931 -0.02702898 -0.02712463 -0.02721967 -0.02731378 -0.02740124 -0.02748224 -0.02755628 -0.02762413 -0.02768929
 -0.02775239 -0.02781739 -0.02788415 -0.02795473 -0.02802757 -0.02810156 -0.02817457 -0.02824386 -0.0283086 -0.02836701
 -0.02842028 -0.02846837 -0.02851307 -0.0285548 -0.02859558 -0.02863567 -0.02867782 -0.02872232 -0.02877226 -0.02882798
 -0.02889094 -0.02896117 -0.02903713 -0.02911844 -0.0292008 -0.02928375 -0.02936256 -0.02943747 -0.02950661 -0.02957085
 -0.02963137 -0.02968844 -0.02974324 -0.02979487 -0.02984267 -0.02988641 -0.02992522 -0.02996093 -0.02999398 -0.0300267
 -0.03006036 -0.03009443 -0.03012939 -0.03016194 -0.03019152 -0.03021702 -0.03023801 -0.03025957 -0.03028199 -0.03031219
 -0.0303499 -0.03039539 -0.03044712 -0.03049699 -0.03054431 -0.03058196 -0.03061178 -0.03063396 -0.03065116 -0.03066785
 -0.03068449 -0.03070362 -0.03072372 -0.03074421 -0.03076483 -0.03078467 -0.03080636 -0.0308303 -0.0308598 -0.03089616
 -0.03093858 -0.0309878 -0.03103672 -0.03108495 -0.03112402 -0.03115357 -0.0311719 -0.03117985 -0.03118555 -0.03119024
 -0.03120519 -0.03122972 -0.03126862 -0.03131804 -0.03137238 -0.03142738 -0.03147327 -0.03151046 -0.03153443 -0.03155094
 -0.03156248 -0.03157451 -0.03159132 -0.03161209 -0.03163815 -0.03166472 -0.03169088 -0.03171374 -0.03173253 -0.03174769
 -0.03175904 -0.03176996 -0.03178069 -0.03179805 -0.03182247 -0.03186104 -0.03191353 -0.03198261 -0.03206718 -0.03216432
 -0.03227477 -0.03239714 -0.03253642 -0.03269784 -0.03289023 -0.03312394 -0.03340767 -0.03375086 -0.03415827 -0.03463458
 -0.0351816 -0.03580064 -0.03649338 -0.03726079 -0.03810207 -0.03901903 -0.03999622 -0.04103413 -0.04209382 -0.04317283
 -0.04420407 -0.04518006 -0.04599914 -0.04665004 -0.04701527 -0.04709577 -0.04682205 -0.04622552 -0.04532389 -0.04419076
 -0.04293259 -0.04164206 -0.04046173 -0.03943353 -0.03864013 -0.03806508 -0.03772435 -0.03758159 -0.03763327 -0.03782732
 -0.03816094 -0.03854196 -0.03896091 -0.03931458 -0.03958997 -0.03977014 -0.0398542 -0.03989194 -0.0398838 -0.03984962
 -0.03978577 -0.03968045 -0.03953447 -0.03934274 -0.03911177 -0.03885282 -0.03857343 -0.03829061 -0.03800761 -0.03773608
 -0.03747087 -0.03721343 -0.03695302 -0.03668339 -0.03640158 -0.03610184 -0.03579951 -0.03549521 -0.03521242 -0.03495542
 -0.03473439 -0.03455174 -0.03439493 -0.03426331 -0.03413313 -0.034004 -0.03386322 -0.03371332 -0.03356161 -0.03341105
 -0.0332766 -0.03315698 -0.03305798 -0.03297387 -0.03289831 -0.03282645 -0.03274911 -0.0326683 -0.03258114 -0.03249545
 -0.03241443 -0.03234402 -0.03228792 -0.03224507 -0.03221654 -0.03219675 -0.03218516 -0.03217655 -0.03217038 -0.03216345
 -0.03215557 -0.03214629 -0.03213581 -0.03212638 -0.03211839 -0.03211533 -0.03211697 -0.03212487 -0.03213758 -0.03215288
 -0.03216878 -0.032181 -0.03218875 -0.03218907 -0.0321832 -0.03217099 -0.03215431 -0.03213442 -0.03211137 -0.03208566
 -0.03205585 -0.03202136 -0.03198301 -0.03194027 -0.03189874 -0.03185872 -0.03182739 -0.03180515 -0.03179497 -0.03179648
 -0.03180561 -0.03182136 -0.03183578 -0.03184833 -0.03185262 -0.03184936 -0.03183676 -0.03181639 -0.0317896 -0.0317586
 -0.03172587 -0.03169433 -0.03166674 -0.03164569 -0.03163369 -0.03163029 -0.03163649 -0.03164864 -0.03166632 -0.03168524
 -0.03170482 -0.03172108 -0.03173362 -0.03173923 -0.03173774 -0.03172882 -0.03171284 -0.03169447 -0.03167416 -0.03165717
 -0.03164287 -0.03163205 -0.03162343 -0.03161422 -0.03160414 -0.03159114 -0.03157645 -0.0315603 -0.03154487 -0.03153178
 -0.03152303 -0.03152026 -0.03152396 -0.0315352 -0.03155157 -0.03157306 -0.03159548 -0.03161825 -0.03163777 -0.03165358
 -0.03166393 -0.03166869 -0.03166838 -0.03166316 -0.03165536 -0.03164522 -0.03163541 -0.03162592 -0.03161813 -0.03161177
 -0.03160697 -0.03160328 -0.03160014 -0.03159706 -0.03159303 -0.03158848 -0.03158291 -0.03157851 -0.03157631 -0.03157797
 -0.03158466 -0.03159573 -0.03161135 -0.03163015 -0.03165198 -0.03167568 -0.03170131 -0.03172547 -0.03174798 -0.03176431
 -0.03177456 -0.03177911 -0.03177876 -0.03177902 -0.0317799 -0.0317847 -0.03179187 -0.03179909 -0.03180544 -0.0318078
 -0.03180727 -0.03180359 -0.03179894 -0.03179455 -0.0317934 -0.03179711 -0.03180885 -0.03183079 -0.03186197 -0.03190389
 -0.03194769 -0.03199269 -0.03202804 -0.03205223 -0.03206287 -0.03205967 -0.03205086 -0.03203703 -0.03202827 -0.03202458
 -0.03203101 -0.03204689 -0.0320726 -0.03210719 -0.03214905 -0.0321961 -0.03224471 -0.03229187 -0.03233242 -0.03236531
 -0.03238707 -0.03240092 -0.03240715 -0.03241056 -0.0324133 -0.03241735 -0.03242395 -0.03243192 -0.03244122 -0.03245084
 -0.03246056 -0.03247103 -0.03248228 -0.03249632 -0.03251325 -0.03253491 -0.03256102 -0.03259129 -0.03262457 -0.03265665
 -0.03268614 -0.03270683 -0.03271952 -0.03272155 -0.03271746 -0.03271098 -0.03270747 -0.03271341 -0.03272888 -0.03275742
 -0.03279137 -0.03282933 -0.03286204 -0.03288622 -0.03289951 -0.03290016 -0.03289416 -0.03288163 -0.0328715 -0.03286432
 -0.03286529 -0.03287428 -0.03289005 -0.0329119 -0.03293459 -0.03295786 -0.03297766 -0.03299474 -0.03300896 -0.03302103
 -0.03303236 -0.03304268 -0.03305207 -0.03306065 -0.03306791 -0.03307604 -0.03308586 -0.03309998 -0.03312004 -0.03314561
 -0.0331776 -0.03321145 -0.03324686 -0.033278 -0.03330412 -0.0333226 -0.03333318 -0.03333792 -0.03333708 -0.03333508
 -0.03333219 -0.03333236 -0.03333575 -0.03334505 -0.03336037 -0.03338362 -0.03341407 -0.03345198 -0.0334949 -0.03354057
 -0.03358533 -0.03362552 -0.03365841 -0.03368092 -0.03369362 -0.03369506 -0.03369047 -0.03368034 -0.03367195 -0.03366676
 -0.03366861 -0.03367836 -0.03369424 -0.03371624 -0.03374078 -0.03376779 -0.03379566 -0.03382435 -0.03385289 -0.03388107
 -0.03390721 -0.03393198 -0.03395592 -0.03398056 -0.03400941 -0.03404182 -0.0340793 -0.0341181 -0.03415534 -0.03418901
 -0.03421583 -0.03423993 -0.03426177 -0.03428663 -0.03431687 -0.03435099 -0.03438964 -0.03442676 -0.03446151 -0.03449241
 -0.03451921 -0.03454744 -0.0345774 -0.03461518 -0.03466038 -0.03471373 -0.03477374 -0.03483524 -0.03489622 -0.0349487
 -0.03499205 -0.03502016 -0.03503691 -0.03504318 -0.03504696 -0.03505546 -0.0350738 -0.03510904 -0.03515569 -0.03521511
 -0.03527367 -0.03532781 -0.03536861 -0.03539252 -0.035405 -0.03540556 -0.03540794 -0.03541305 -0.03542765 -0.03545149
 -0.03547908 -0.0355095 -0.03553346 -0.03555108 -0.03555768 -0.03555456 -0.03554243 -0.03552328 -0.03550044 -0.03547673
 -0.03545665 -0.035443 -0.03544024 -0.03544807 -0.03546891 -0.03549684 -0.03553114 -0.03556252 -0.0355882 -0.0356025
 -0.03560291 -0.03559386 -0.03557496 -0.03555733 -0.03554171 -0.03553497 -0.03553696 -0.0355435 -0.03555362 -0.03555795
 -0.03555674 -0.03554534 -0.03552625 -0.03550329 -0.03547961 -0.03546291 -0.03545455 -0.03546035 -0.03547745 -0.03550708
 -0.03554064 -0.03557429 -0.0355984 -0.03560688 -0.03559929 -0.03557231 -0.03553783 -0.03549689 -0.03546303 -0.03543833
 -0.03542677 -0.0354289 -0.03543936 -0.03545782 -0.03547788 -0.03549959 -0.0355204 -0.03554078 -0.03556111 -0.03558207
 -0.03560575 -0.03563239 -0.03566446 -0.03569897 -0.03573442 -0.03576423 -0.03578152 -0.03578383 -0.03576533 -0.03573444
 -0.03569221 -0.03565015 -0.03561251 -0.03558247 -0.03556211 -0.03554636 -0.03553509 -0.03552167 -0.0355056 -0.03548357
 -0.03545568 -0.03542479 -0.03539166 -0.03536349 -0.03534028 -0.03532643 -0.03532019 -0.03531891 -0.03532122 -0.0353226
 -0.03532439 -0.03532674 -0.03533047 -0.03533784 -0.03534454 -0.03534969 -0.03534588 -0.03532899 -0.03529759 -0.03524883
 -0.03519135 -0.03512566 -0.03506326 -0.03500592 -0.0349574 -0.03491824 -0.03488451 -0.03485619 -0.03483314 -0.03481634
 -0.03481406 -0.03482598 -0.03485728 -0.0349025 -0.03495082 -0.03499371 -0.0350083 -0.03499411 -0.03493702 -0.03485147
 -0.03474428 -0.03463167 -0.03452748 -0.03443499 -0.03436065 -0.03429639 -0.03424141 -0.03418739 -0.03413178 -0.03407504
 -0.03401639 -0.03396292 -0.03391499 -0.03387981 -0.03385756 -0.0338515 -0.03386034 -0.03387686 -0.03389711 -0.03389952
 -0.03388207 -0.03382462 -0.03373563 -0.03362049 -0.03349067 -0.03336559 -0.03324667 -0.0331425 -0.03305006 -0.03296878
 -0.03289965 -0.03284336 -0.03279918 -0.03276927 -0.03274149 -0.03271537 -0.03267145 -0.03260706 -0.03251159 -0.03238362
 -0.03223114 -0.032055 -0.03187521 -0.03169262 -0.03152342 -0.03136627 -0.03122395 -0.0310945 -0.03097365 -0.0308608
 -0.0307539 -0.03064998 -0.03054579 -0.03043456 -0.03030725 -0.03016483 -0.03000212 -0.02983283 -0.02966244 -0.02949798
 -0.02934567 -0.029193 -0.02903924 -0.02886899 -0.02867897 -0.0284728 -0.02825012 -0.02802624 -0.02780142 -0.02757674
 -0.02734982 -0.02710046 -0.02682756 -0.02651247 -0.02616242 -0.02578817 -0.02539763 -0.02501551 -0.02463467 -0.0242586
 -0.02387073 -0.02345437 -0.0230054 -0.02251132 -0.02199021 -0.02144693 -0.0208967 -0.02035114 -0.01978919 -0.01921695
 -0.01856209 -0.01782107 -0.01689099 -0.01576267 -0.01439722 -0.01279579 -0.01103125 -0.009103417 -0.007051598 -0.004851567
 -0.002414042 0.0002858933 0.00338145 0.006847851 0.01072744 0.0149139 0.01929932 0.0237418 0.02806719 0.03219227
 0.03599892 0.03950267 0.0426758 0.04557595 0.04822542 0.05061583 0.05275908 0.05457429 0.05604924 0.05715936
 0.05789956 0.05831997 0.05842278 0.0582467 0.05779085 0.05706496 0.05606464 0.05477812 0.05319559 0.05126705
 0.04902135 0.04645376 0.04369541 0.04092298 0.03824329 0.03585379 0.03370432 0.03182505 0.03013598 0.02859788
 0.02719688 0.0259186 0.0247737 0.02376364 0.02288653 0.02213945 0.02154841 0.02111381 0.02089563 0.02089448
 0.02108271 0.02145047 0.02189072 0.02240683 0.02295794 0.02355657 0.02422167 0.02495588 0.02577334 0.02667307
 0.0276522 0.02873105 0.02991579 0.03126259 0.03280975 0.0345991 0.03668713 0.03897912 0.04148169 0.04399398
 0.04647015 0.04880992 0.05098651 0.05302419 0.05492064 0.05674505 0.05850261 0.06031461 0.06219403 0.06432825
 0.06669761 0.069341 0.07216062 0.07485472 0.07740805 0.07960878 0.08157543 0.08339331 0.08514764 0.0869685
 0.08885347 0.09084401 0.09290519 0.09502865 0.09719519 0.09940653 0.1016045 0.1037814 0.1058673 0.1078441
 0.1097444 0.1115685 0.1133735 0.1151593 0.1168511 0.1184408 0.1198095 0.120975 0.1219549 0.1227876
 0.1236105 0.1244251 0.1253227 0.1262319 0.1270738 0.1278336 0.1284451 0.1289832 0.1294929 0.1299841
 0.1304902 0.130937 0.1313045 0.1315532 0.1316625 0.1316672 0.131566 0.1314193 0.1312321 0.1310411
 0.1308471 0.1306285 0.1303822 0.1300696 0.1296939 0.1292485 0.1287427 0.1281968 0.1276273 0.1270754
 0.1265586 0.1261226 0.1257692 0.1255157 0.1253632 0.1253103 0.1253828 0.1255947 0.1259546 0.1264814
 0.1271117 0.1278374 0.1285967 0.1293733 0.130194 0.1310578 0.1320306 0.133115 0.1343375 0.135695
 0.1371668 0.1387494 0.1404148 0.1421625 0.1439753 0.1458562 0.1477997 0.1498164 0.1519184 0.1541178
 0.1564341 0.1588662 0.1614214 0.1640885 0.1668616 0.1697411 0.1727223 0.1758245 0.1790537 0.1824099
 0.1859018 0.1894556 0.1930687 0.1966254 0.2001203 0.2034978 0.2067569 0.2098829 0.2128488 0.2155135
 0.2178396 0.219605 0.2208588 0.2215789 0.2218728 0.2218965 0.2217097 0.22144 0.2210853 0.2206847
 0.2202157 0.2196831 0.2190427 0.2182941 0.2173409 0.2161566 0.2147009 0.2129427 0.2110692 0.2090946
 0.2071449 0.2052242 0.2032498 0.2012197 0.1990813 0.1968491 0.1945734 0.1922663 0.1900093 0.1877699
 0.1855536 0.1832341 0.1806385 0.17763 0.1739196 0.1696946 0.16496 0.1600262 0.1551041 0.150163
 0.1452319 0.140267 0.1352283 0.1303005 0.1254991 0.1210167 0.1168797 0.11306 0.1095556 0.1062214
 0.1030558 0.09998862 0.09703287 0.09422391 0.09156695 0.08910489 0.08681821 0.0846891 0.08268808 0.08076283
 0.07889363 0.07704397 0.07519349 0.07332686 0.07139663 0.06937248 0.06723396 0.06492641 0.06264134 0.06039638
 0.05844325 0.05685032 0.05551755 0.05444905 0.05342635 0.05243926 0.05141447 0.05035926 0.04933509 0.04834757
 0.04746303 0.04666851 0.04594871 0.04530481 0.04471765 0.04422954 0.04389487 0.04375373 0.04388322 0.04426089
 0.04490012 0.04575498 0.04680179 0.04802393 0.04940682 0.05096063 0.05267207 0.05462507 0.05680979 0.05946854
 0.06262212 0.06647357 0.07103009 0.07592061 0.08109412 0.08581351 0.09008843 0.09359039 0.09638043 0.09849261
 0.09996833 0.1008982 0.1013463 0.1014303 0.1012508 0.1009517 0.1006209 0.1003804 0.1002317 0.1002277
 0.1002658 0.1003137 0.1003285 0.100279 0.1002378 0.1002074 0.1002806 0.1004681 0.1008004 0.1012792
 0.1018449 0.1024932 0.1031504 0.1038222 0.1045006 0.1052 0.1059697 0.1068094 0.1077535 0.1087676
 0.1098112 0.110861 0.1118592 0.1128488 0.1138343 0.1148864 0.1160474 0.1173448 0.1188049 0.1204004
 0.1221292 0.1239694 0.1259152 0.1279766 0.1301582 0.1324077 0.1347216 0.1368901 0.1389009 0.1405338
 0.1418014 0.1426605 0.1431344 0.143285 0.1431154 0.142665 0.1419234 0.1408885 0.1395579 0.1379237
 0.1360002 0.1337928 0.131322 0.1285988 0.1256386 0.1224433 0.1190464 0.1154391 0.1117413 0.1079563
 0.1042863 0.1007516 0.0974774 0.09447116 0.09170485 0.08917461 0.08681884 0.08464446 0.08266144 0.08088022
 0.07935252 0.07806147 0.07700677 0.07613562 0.07537273 0.07465153 0.07387024 0.07298438 0.07191603 0.07068598
 0.06926796 0.06775431 0.06616632 0.06459995 0.06308737 0.0616575 0.06032417 0.05905754 0.05785631 0.05669077
 0.05555918 0.05447537 0.05344243 0.05250703 0.0516688 0.05095176 0.05034726 0.04983644 0.0494136 0.04905438
 0.04876106 0.04852789 0.04835462 0.04824222 0.04817984 0.04816311 0.04817153 0.04819662 0.04821132 0.04820694
 0.04815321 0.04804257 0.04784857 0.04756559 0.04718023 0.0466893 0.04610423 0.04542544 0.04468935 0.04389863
 0.04309615 0.04228495 0.04150284 0.04075524 0.04008075 0.03948508 0.03900311 0.03863201 0.03838598 0.03825095
 0.03821836 0.03827025 0.03839227 0.03856437 0.03877608 0.03900012 0.03922654 0.03942781 0.03959413 0.03971604
 0.0397886 0.03982441 0.0398235 0.03980607 0.03977326 0.03974099 0.03970968 0.03968863 0.03967661 0.03967227
 0.03967131 0.03965846 0.03962811 0.03955837 0.03944791 0.03928271 0.03906922 0.03880791 0.03850967 0.0381824
 0.03783668 0.03747846 0.03712094 0.03676722 0.03643918 0.03614114 0.03589721 0.0357128 0.03559656 0.0355513
 0.03556244 0.03562944 0.03572278 0.0358406 0.03595054 0.03605161 0.03611996 0.0361586 0.03616342 0.03614343
 0.03611677 0.03609476 0.03610479 0.03615289 0.03625865 0.03641791 0.03663601 0.03689991 0.03720538 0.03753696
 0.03788865 0.03824738 0.03860927 0.03896397 0.0393092 0.03963871 0.03995104 0.04025009 0.04053592 0.04082163
 0.04110803 0.04140905 0.04172521 0.04206684 0.04243386 0.04283292 0.04326075 0.04371569 0.04418702 0.04465883
 0.04511454 0.04552919 0.04588946 0.04617525 0.04638372 0.04650626 0.04655007 0.04651495 0.04641175 0.04624252
 0.04601837 0.04574058 0.04542269 0.04506568 0.04468608 0.04428494 0.0438743 0.04345415 0.04302499 0.04258638
 0.04213427 0.04167102 0.04120187 0.04073277 0.04028098 0.03985127 0.03946095 0.03910836 0.03880007 0.03852786
 0.03828759 0.03807128 0.0378721 0.03768995 0.03752198 0.03737516 0.0372506 0.03715447 0.03708792 0.03705504
 0.03705592 0.03709885 0.03718425 0.03732351 0.03751666 0.03776623 0.03807006 0.03841547 0.0387997 0.0392048
 0.03963058 0.04006701 0.04051634 0.04097835 0.04145411 0.04194526 0.0424512 0.0429707 0.04350747 0.04406099
 0.04464277 0.0452567 0.04591293 0.04661644 0.04736455 0.04815887 0.04898619 0.04984577 0.05072246 0.05161545
 0.05250652 0.05339436 0.05425544 0.0550889 0.0558765 0.05661983 0.05731555 0.05796496 0.05857134 0.05913103
 0.0596406 0.06009249 0.06047627 0.0607863 0.06101353 0.06115795 0.06121554 0.06119319 0.06109044 0.06092249
 0.06069077 0.06041916 0.06011052 0.05979192 0.05946647 0.0591536 0.05885483 0.05857613 0.05831725 0.0580742
 0.0578451 0.0576173 0.05738541 0.05712255 0.05682201 0.05645006 0.05600985 0.05548535 0.05489902 0.05426601
 0.05362346 0.05300327 0.05244616 0.05198089 0.05164495 0.05145853 0.05144814 0.05162726 0.05199668 0.05256372
 0.05328945 0.05417464 0.05514102 0.05618446 0.0572077 0.0582064 0.05910177 0.05989503 0.06055467 0.06108834
 0.0615078 0.06182381 0.06206732 0.06225264 0.06241582 0.06257592 0.06276969 0.0630127 0.06333333 0.06373004
 0.06421493 0.06476372 0.06537446 0.06600662 0.06665163 0.06726731 0.06784504 0.06835645 0.06879648 0.0691586
 0.06944168 0.06965968 0.06981392 0.06993014 0.07000959 0.07007466 0.07012346 0.07016104 0.07018319 0.07018094
 0.07015236 0.07008978 0.06999285 0.06985974 0.06968564 0.06946686 0.0691963 0.0688667 0.06848106 0.06803462
 0.06754925 0.06702606 0.06650223 0.06598279 0.0655063 0.0650781 0.06471918 0.06443177 0.06420911 0.06405006
 0.06393065 0.06384946 0.06378468 0.0637366 0.06369432 0.06365978 0.06363194 0.06361412 0.06361225 0.0636279
 0.06366817 0.06372549 0.06380034 0.06387076 0.0639279 0.06394061 0.06389423 0.06376762 0.06354795 0.06324536
 0.06285593 0.06241716 0.06193262 0.06143331 0.06092205 0.06040083 0.05986935 0.05931806 0.05874793 0.05816215
 0.05756277 0.05696064 0.0563558 0.0557534 0.05515378 0.05455917 0.05397179 0.0533971 0.05283153 0.05227798
 0.05171935 0.05114986 0.05054303 0.04988774 0.04916133 0.04835389 0.04745914 0.04647219 0.04540617 0.04426066
 0.0430613 0.04180957 0.0405331 0.03923317 0.03793126 0.03662764 0.03533381 0.03405023 0.03278348 0.03153735
 0.03032466 0.02915101 0.0280345 0.02697415 0.02597871 0.02503782 0.0241454 0.0232922 0.02246939 0.02167671
 0.02091197 0.0201766 0.01947168 0.01879283 0.01813981 0.0175064 0.01689179 0.01629245 0.01570809 0.01513596
 0.01457589 0.01402402 0.01348051 0.01294381 0.01241588 0.01190303 0.01141029 0.01095415 0.01054019 0.01018808
 0.00989709 0.009676912 0.009517261 0.009413981 0.009352491 0.009323503 0.009313821 0.009316368 0.009320527 0.009322011
 0.00931414 0.009294652 0.009262248 0.009216448 0.009157617 0.009085755 0.009000733 0.008902641 0.008793719 0.008674395
 0.008549083 0.008418215 0.008285396 0.00815208 0.008023493 0.007902524 0.007797784 0.007709539 0.007643103 0.00759359
 0.007558313 0.0075333 0.007513845 0.007502818 0.00749953 0.007510239 0.007536913 0.007582603 0.007648758 0.007733408
 0.007836999 0.007952704 0.008080317 0.008207871 0.008334606 0.008445649 0.008540239 0.008605114 0.008640755 0.00864111
 0.008609397 0.008550594 0.008470072 0.008380556 0.00828582 0.008197011 0.008113435 0.008039213 0.007969843 0.007903568
 0.007836915 0.007766174 0.007696581 0.007626217 0.007573432 0.007540471 0.00754784 0.007599321 0.00769883 0.007847559
 0.008029939 0.008245094 0.008474947 0.008719469 0.008971012 0.00922997 0.009494715 0.009764043 0.01003363 0.01030212
 0.01056359 0.01082071 0.01107326 0.01132802 0.01159231 0.01186785 0.01216094 0.01246072 0.0127655 0.01305988
 0.01333802 0.0135943 0.01382575 0.0140363 0.014226 0.01439889 0.01455528 0.01469798 0.01482718 0.01494613
 0.01505481 0.01515371 0.01524375 0.01532764 0.01541032 0.01550774 0.01562397 0.01577892 0.01596312 0.01617566
 0.01639598 0.01660121 0.01678607 0.01693249 0.01706862 0.01719866 0.01736198 0.01757424 0.01784753 0.01819142
 0.01858022 0.01901382 0.01945211 0.01989211 0.02030403 0.02068672 0.02102895 0.02133206 0.02160254 0.02184317
 0.02207087 0.02228646 0.02250239 0.02271514 0.02292354 0.02312424 0.02331023 0.02348488 0.02364735 0.02380612
 0.02396636 0.02413479 0.02431601 0.02451249 0.02472652 0.02495589 0.0252016 0.02545478 0.02571514 0.02596871
 0.02621433 0.02644222 0.02665226 0.02685006 0.02703767 0.02723693 0.02744855 0.02769059 0.02795562 0.02823278
 0.02850988 0.02875379 0.02896488 0.02912418 0.02925171 0.02935928 0.02946651 0.02959333 0.0297401 0.02991332
 0.03010382 0.03030859 0.03052765 0.03075994 0.03101027 0.03127994 0.03156497 0.03186554 0.03216906 0.03247496
 0.03277494 0.03307 0.03336604 0.03366541 0.03398331 0.03432003 0.03468526 0.03507595 0.03549142 0.03592625
 0.03637465 0.036826 0.03726996 0.03769176 0.03807613 0.03842168 0.03871826 0.03899119 0.0392438 0.0395087
 0.03979531 0.04011226 0.04046389 0.0408344 0.04122311 0.04161248 0.04200183 0.04238648 0.04276695 0.04314752
 0.04352727 0.0439054 0.04427747 0.04462885 0.04495716 0.0452472 0.04550708 0.0457395 0.04595957 0.04618246
 0.0464219 0.04669029 0.04700091 0.04736324 0.04778415 0.04827249 0.04880824 0.04939184 0.04998605 0.05058402
 0.05117656 0.05176092 0.05236315 0.05298438 0.05364267 0.0543372 0.05506411 0.05582513 0.05662647 0.05747248
 0.05838327 0.05935432 0.06038915 0.06147334 0.06258775 0.06372 0.06485146 0.0659724 0.06707679 0.06813768
 0.06915188 0.07005664 0.07083739 0.07141954 0.07177836 0.07190271 0.0717775 0.07149658 0.07106361 0.07060702
 0.07013292 0.06971207 0.06934322 0.06903788 0.06879411 0.06860957 0.06848267 0.06840995 0.0683846 0.06839273
 0.06842291 0.06845336 0.06847328 0.06846243 0.06841875 0.06833019 0.06821351 0.06807021 0.0679284 0.06779938
 0.06769365 0.06761897 0.06755753 0.06750868 0.06745023 0.06737976 0.06729116 0.06718428 0.06707075 0.06695239
 0.06685232 0.06677206 0.06673195 0.06673143 0.06677809 0.06687347 0.06702587 0.06723337 0.06750415 0.06781421
 0.06814451 0.06846721 0.06874621 0.06900124 0.06922133 0.06947333 0.06978706 0.0701637 0.07062434 0.07106222
 0.07146031 0.07178127 0.07201753 0.07220525 0.07234571 0.07244464 0.07250024 0.07249118 0.07242061 0.07229307
 0.07211658 0.07192197 0.0717098 0.07149929 0.0712801 0.07104794 0.07078476 0.07046888 0.07009105 0.06962833
 0.06911068 0.0685376 0.06797162 0.06743386 0.06696643 0.06658704 0.06629109 0.06608249 0.06593446 0.06584577
 0.0657847 0.06574935 0.0656966 0.06562419 0.06549064 0.06529834 0.06503507 0.06471151 0.06435315 0.0639763
 0.06363271 0.06332432 0.06309018 0.06288741 0.06269086 0.06244611 0.06208447 0.06164503 0.06110625 0.06060094
 0.06017393 0.05990146 0.05982617 0.05988359 0.06007772 0.06028405 0.06049055 0.06062989 0.06069861 0.06072254
 0.06070737 0.06072902 0.06078885 0.06093831 0.06116385 0.06144932 0.06177647 0.06209398 0.06239739 0.06265511
 0.06287529 0.06305411 0.06320281 0.06332797 0.06343967 0.06354723 0.06364667 0.06374257 0.06381129 0.06384724
 0.06383804 0.06377723 0.06369106 0.06358017 0.06348492 0.06340744 0.06336471 0.06335484 0.06336207 0.06338
 0.06336407 0.06331063 0.06317513 0.06297688 0.06272981 0.06247317 0.06228273 0.06216277 0.06216438 0.06222568
 0.06231915 0.06238537 0.06237347 0.0623002 0.0621524 0.06198995 0.06182667 0.06169382 0.06160157 0.06153726
 0.06150179 0.06146497 0.06142522 0.06136621 0.06128947 0.06121056 0.06113167 0.0610772 0.0610402 0.0610112
 0.06097843 0.06090608 0.06079705 0.0606354 0.06044079 0.06022897 0.06001538 0.05982028 0.05964002 0.05948152
 0.05932516 0.05916684 0.05898555 0.05877485 0.05852547 0.05823357 0.05790666 0.0575436 0.05717256 0.05679503
 0.05645765 0.05616141 0.05593526 0.05577092 0.0556366 0.05551983 0.05535256 0.0551447 0.05487513 0.05458447
 0.05433035 0.05413962 0.05407853 0.05411479 0.05425775 0.05443138 0.05460004 0.05470285 0.05470058 0.05460296
 0.0543943 0.05415497 0.05389353 0.05368487 0.05354002 0.05345784 0.05343874</values></Ydata></AB><ScSm><Ydata ylabel="Single channel"><values byteorder="INTEL" format="FLOAT32" numvalues="1814"> 0.067783 0.0677873 0.06785477 0.06800933 0.06822331 0.0684315 0.06857637 0.06864467 0.06865419 0.06861576
 0.06854059 0.06848234 0.06852452 0.06870096 0.06894659 0.06913842 0.06918883 0.06912208 0.06906629 0.06912938
 0.06925432 0.06923009 0.0688927 0.06831585 0.06776417 0.06744631 0.06738213 0.06755859 0.06806391 0.06884399
 0.06942386 0.06924664 0.06837384 0.06751952 0.06725436 0.06745664 0.06765084 0.0675617 0.06719493 0.06672131
 0.0665285 0.06712364 0.0686312 0.07037306 0.07111321 0.06984305 0.06650244 0.06219992 0.05880246 0.05793945
 0.0598567 0.0630833 0.06553379 0.06617315 0.06551431 0.0645619 0.0637271 0.06296097 0.06246169 0.06271136
 0.06381331 0.06504565 0.06524083 0.06379109 0.06137139 0.0594506 0.05894842 0.05966584 0.06108136 0.06291655
 0.06433642 0.06349416 0.05934914 0.05396736 0.05160045 0.05464476 0.06108602 0.06646787 0.06785582 0.06548879
 0.06149245 0.05811528 0.05687446 0.05814774 0.0611097 0.06441382 0.0670063 0.06817761 0.06738271 0.06471518
 0.06137538 0.05909244 0.05906207 0.06147458 0.06547721 0.06925769 0.07086576 0.06964773 0.06667973 0.06363165
 0.06166839 0.06144968 0.06329432 0.06685483 0.07109005 0.07486317 0.07740901 0.07842381 0.07813032 0.07712996
 0.0759436 0.07493004 0.07460647 0.07532799 0.07644631 0.07655479 0.07501757 0.07281716 0.07154306 0.07174794
 0.07250747 0.07254817 0.07153962 0.06989507 0.06751519 0.06374328 0.05887258 0.05456906 0.05220471 0.05180388
 0.05302966 0.05572094 0.0587252 0.05983085 0.05819428 0.0558883 0.05584877 0.05873513 0.06258939 0.06521735
 0.066219 0.06682209 0.06830786 0.07070682 0.07264335 0.07237248 0.06950594 0.06598341 0.06470256 0.06667665
 0.07006039 0.07241905 0.07329489 0.07394534 0.07513833 0.07596117 0.07477526 0.07116643 0.06699176 0.06523546
 0.06741203 0.07204749 0.07574717 0.07571304 0.07162927 0.06572372 0.06102666 0.05927643 0.06045622 0.06394833
 0.06921035 0.075174 0.07996894 0.081974 0.08100357 0.07820203 0.0747395 0.07073537 0.06588195 0.06124011
 0.05946086 0.06228377 0.0683195 0.07420693 0.07761336 0.07840393 0.07734706 0.07468624 0.07033677 0.06523067
 0.06176628 0.06195825 0.06501478 0.06777357 0.06800914 0.0664688 0.06525964 0.06522207 0.06560361 0.06565998
 0.06570805 0.06656526 0.0683737 0.07027213 0.07123131 0.07099752 0.07014173 0.0693911 0.06897143 0.06844689
 0.06732868 0.0660308 0.06584337 0.06752584 0.07027098 0.07253721 0.07360154 0.07383269 0.073672 0.07285087
 0.07078596 0.06768633 0.06500657 0.06437596 0.06602941 0.06865945 0.07077833 0.07178682 0.07183982 0.07131784
 0.07056735 0.0697829 0.06905913 0.06863771 0.06885192 0.0696597 0.07052676 0.07096233 0.07093032 0.07061999
 0.07008664 0.06929447 0.06836437 0.06761271 0.06733097 0.06756248 0.06810714 0.06870297 0.06913648 0.06923693
 0.06893619 0.06836861 0.06777798 0.06729484 0.06691051 0.06665166 0.06662117 0.06683148 0.0671238 0.06731163
 0.06733212 0.06722158 0.06701483 0.06672226 0.06637 0.06602117 0.06576414 0.06566857 0.06571701 0.06579816
 0.06581859 0.0657946 0.06577785 0.06573444 0.06558286 0.06532741 0.06507358 0.06491572 0.06486101 0.06485506
 0.06483126 0.06472083 0.06445555 0.06402498 0.0635519 0.06325125 0.0632585 0.06352378 0.06389317 0.06423336
 0.06445799 0.06452496 0.06446604 0.06436249 0.06425263 0.06410161 0.06387829 0.06363121 0.06347645 0.06351002
 0.06371836 0.06398077 0.06417353 0.06425435 0.06424709 0.06419966 0.06417045 0.06419271 0.06422772 0.06420144
 0.06410196 0.06400107 0.06397328 0.06401876 0.06406767 0.06405334 0.06398702 0.06395117 0.06400681 0.06412805
 0.0642444 0.06432158 0.0643779 0.06443635 0.06447976 0.06446037 0.06436113 0.06423584 0.06416018 0.0641499
 0.06416431 0.06418393 0.0642381 0.06434721 0.06447565 0.06456293 0.06458768 0.06458345 0.06458931 0.06459866
 0.06457335 0.0645027 0.06442413 0.06438115 0.06438134 0.06440125 0.06441656 0.06441839 0.06440839 0.0643869
 0.06434967 0.06429309 0.06421737 0.06412882 0.06404925 0.06401512 0.0640455 0.06410705 0.06412965 0.06406745
 0.06394044 0.06381172 0.06372646 0.06367674 0.06362553 0.06355517 0.06348113 0.0634249 0.06339253 0.06337948
 0.06337713 0.06337149 0.06335735 0.06336159 0.06343022 0.06357396 0.06373946 0.06385459 0.06389803 0.06390846
 0.06393283 0.06398559 0.06405625 0.0641366 0.06423457 0.0643655 0.06452554 0.06467651 0.06477749 0.06483561
 0.06490199 0.06501403 0.0651672 0.06534272 0.06552665 0.06569472 0.06581769 0.06589969 0.06598452 0.06610691
 0.0662578 0.06641 0.06655783 0.06671487 0.06688704 0.06706949 0.06726627 0.06749586 0.06777157 0.06808113
 0.06838678 0.06864722 0.06885044 0.06903175 0.06925221 0.06954855 0.06990241 0.07025907 0.07057518 0.07084972
 0.07111154 0.07138162 0.07165715 0.07193714 0.07224561 0.07260761 0.07301039 0.07341152 0.07378472 0.07413836
 0.07449093 0.07484861 0.07520981 0.07557659 0.0759545 0.0763455 0.07674213 0.07712804 0.07748806 0.07782017
 0.07813762 0.0784616 0.07880969 0.07917899 0.07953478 0.07983381 0.08007616 0.08031948 0.08061788 0.08095629
 0.08127367 0.08154603 0.08181319 0.08211881 0.08245738 0.0827949 0.08311758 0.08343972 0.08377475 0.08411239
 0.08442119 0.08467115 0.08486228 0.08503037 0.08521743 0.08544217 0.08570775 0.08602145 0.08638141 0.08675222
 0.08708137 0.08734152 0.0875412 0.08770362 0.0878557 0.08802655 0.0882313 0.08845744 0.08867871 0.08887298
 0.08902462 0.08913687 0.08925309 0.08943371 0.08969339 0.0899879 0.0902797 0.09058326 0.09092234 0.09127541
 0.09160322 0.09191235 0.09224746 0.09261791 0.09296867 0.09323602 0.09340467 0.09349821 0.09354676 0.09358864
 0.09367463 0.09383085 0.0940212 0.09417138 0.09422749 0.09417715 0.09402651 0.09378234 0.09346154 0.09310576
 0.09277774 0.09254076 0.09244086 0.09250709 0.09275737 0.09318541 0.09373792 0.09432015 0.09483445 0.09520935
 0.09539982 0.09538707 0.09519365 0.09487879 0.09449196 0.09402741 0.09343332 0.09266299 0.09170917 0.09059399
 0.08934274 0.08797741 0.08653529 0.08508931 0.08374307 0.08259923 0.08173051 0.08117982 0.08097272 0.08110543
 0.08151169 0.08205391 0.08256009 0.08287452 0.0828879 0.082551 0.08188504 0.08097392 0.07992733 0.07883975
 0.07777469 0.07676494 0.07581243 0.0749035 0.07405069 0.07332328 0.07283111 0.07269342 0.07303859 0.07400194
 0.07565424 0.07789312 0.08042507 0.08289649 0.08506843 0.08688587 0.0884188 0.08976983 0.09102185 0.09222116
 0.09337765 0.09448496 0.09554454 0.09656121 0.0975177 0.09836942 0.09906581 0.09956696 0.09984682 0.09990185
 0.09976482 0.09950496 0.09920916 0.09894657 0.09872372 0.09846307 0.09804343 0.09738007 0.09647217 0.09538474
 0.09420779 0.09305423 0.09211446 0.09171307 0.09225847 0.09403688 0.09698357 0.1006551 0.1044539 0.1079091
 0.1108028 0.1131276 0.1149892 0.1165278 0.1178657 0.119081 0.1202093 0.1212609 0.1222377 0.1231433
 0.123985 0.1247728 0.1255193 0.1262354 0.1269201 0.1275613 0.1281532 0.1287119 0.1292666 0.1298352
 0.130411 0.1309736 0.1315126 0.1320368 0.1325564 0.1330629 0.1335385 0.1339821 0.1344141 0.1348567
 0.1353187 0.1357953 0.1362701 0.136718 0.1371218 0.1374861 0.1378315 0.1381743 0.1385168 0.1388553
 0.1391904 0.1395273 0.1398697 0.1402179 0.1405704 0.1409209 0.1412531 0.1415494 0.1418083 0.1420499
 0.1423004 0.1425714 0.1428532 0.143127 0.1433859 0.1436468 0.1439381 0.144271 0.1446257 0.1449691
 0.1452829 0.1455737 0.1458603 0.1461566 0.1464656 0.1467827 0.1471009 0.147414 0.147719 0.1480169
 0.1483103 0.148598 0.1488758 0.1491403 0.1493926 0.1496397 0.1498889 0.1501423 0.1503977 0.1506581
 0.1509326 0.1512233 0.1515159 0.1517913 0.1520465 0.1522958 0.1525532 0.1528201 0.1530908 0.1533638
 0.1536432 0.1539326 0.1542317 0.1545388 0.1548521 0.1551685 0.1554834 0.1557931 0.156097 0.1563971
 0.1566976 0.1570021 0.1573083 0.1576074 0.1578922 0.1581665 0.1584405 0.1587221 0.1590127 0.1593103
 0.1596086 0.1599 0.160182 0.1604592 0.160737 0.1610166 0.1612984 0.1615834 0.1618703 0.1621554
 0.1624386 0.1627237 0.1630117 0.1632963 0.1635686 0.1638273 0.164082 0.1643439 0.1646144 0.1648882
 0.165163 0.1654418 0.165726 0.1660115 0.1662923 0.1665643 0.1668277 0.1670863 0.1673465 0.167613
 0.1678859 0.1681593 0.1684259 0.1686853 0.168943 0.1692026 0.1694623 0.1697213 0.1699821 0.1702463
 0.1705132 0.1707804 0.1710442 0.1713025 0.1715582 0.1718159 0.1720751 0.1723319 0.1725848 0.1728358
 0.1730902 0.1733543 0.1736287 0.1739052 0.1741737 0.1744317 0.1746828 0.174932 0.1751852 0.1754442
 0.1757038 0.175959 0.1762132 0.1764712 0.1767307 0.1769866 0.1772375 0.177489 0.1777498 0.1780242
 0.1783051 0.1785817 0.1788516 0.1791192 0.1793876 0.1796579 0.1799294 0.1801984 0.1804638 0.1807323
 0.1810079 0.1812835 0.1815518 0.1818148 0.1820783 0.1823442 0.182612 0.1828786 0.1831403 0.1834008
 0.1836647 0.1839257 0.1841743 0.1844137 0.1846536 0.1848964 0.185141 0.1853885 0.1856363 0.1858803
 0.186122 0.1863637 0.1866056 0.1868537 0.187115 0.1873819 0.1876404 0.1878896 0.1881382 0.188392
 0.1886535 0.1889205 0.189182 0.1894324 0.1896814 0.1899359 0.1901884 0.1904334 0.1906697 0.190881
 0.191018 0.1909553 0.1903869 0.1887133 0.1850292 0.1783086 0.1678237 0.1536165 0.1366428 0.1184221
 0.1004807 0.08396861 0.06956056 0.05754663 0.04798007 0.04077754 0.03578055 0.03285008 0.03196958 0.03336063
 0.03760939 0.04532053 0.05580514 0.06591586 0.07126854 0.06970346 0.06335174 0.05669429 0.05283567 0.05199479
 0.05283469 0.05420706 0.05574604 0.05766638 0.0603386 0.06387331 0.06810064 0.07301258 0.07897905 0.08627452
 0.09451158 0.1028042 0.1105318 0.117828 0.1252831 0.1332416 0.1414439 0.1492785 0.1562656 0.1623011
 0.1675746 0.1723584 0.176848 0.181128 0.1852237 0.1891151 0.1926632 0.195571 0.1975179 0.1984023
 0.198462 0.1981436 0.1978409 0.1977386 0.197852 0.1981434 0.1985834 0.1991544 0.1998431 0.2006292
 0.2014787 0.2023564 0.203242 0.2041215 0.2049732 0.2057719 0.2065007 0.2071521 0.2077319 0.2082585
 0.2087507 0.2092153 0.2096541 0.2100707 0.210467 0.2108419 0.2111973 0.2115347 0.2118491 0.2121329
 0.2123876 0.2126232 0.212854 0.2130913 0.2133358 0.213577 0.2138068 0.2140302 0.2142556 0.2144819
 0.2147026 0.2149169 0.2151312 0.2153524 0.215581 0.2158082 0.216022 0.2162198 0.2164121 0.2166124
 0.2168293 0.2170629 0.2173022 0.2175284 0.217732 0.2179239 0.2181232 0.2183371 0.218558 0.2187759
 0.2189925 0.2192202 0.2194676 0.2197283 0.2199894 0.2202452 0.2204968 0.2207435 0.220985 0.2212233
 0.2214552 0.2216714 0.2218692 0.222062 0.2222728 0.2225177 0.222789 0.2230567 0.2232965 0.2235141
 0.2237322 0.2239597 0.2241873 0.2244033 0.2246092 0.2248259 0.2250765 0.2253571 0.2256415 0.2259193
 0.2262018 0.2264877 0.2267605 0.227019 0.227271 0.2274977 0.2276691 0.2278012 0.2279697 0.2282499
 0.2286423 0.2290613 0.2294139 0.2296851 0.2299309 0.2302071 0.2305315 0.2308675 0.2311063 0.23114
 0.2310258 0.2310128 0.2313164 0.2319067 0.2325714 0.2331349 0.2335628 0.2339066 0.2342105 0.2344653
 0.2346209 0.2346458 0.2346023 0.2346598 0.2349809 0.2355561 0.2361931 0.236709 0.2370755 0.2373545
 0.2375911 0.237805 0.2379557 0.2378877 0.2374905 0.2369921 0.2369057 0.2375365 0.2386372 0.2396719
 0.2403466 0.2407576 0.2410943 0.2414006 0.2416398 0.2417316 0.2414155 0.2403977 0.2389152 0.2379074
 0.2382423 0.239841 0.2418177 0.2433637 0.2442636 0.2447143 0.2449797 0.2452084 0.2453215 0.2450228
 0.2441323 0.2430244 0.242531 0.243173 0.2445755 0.2458694 0.2465778 0.246869 0.2470932 0.2473887
 0.2475858 0.2471682 0.2455722 0.2430227 0.2409421 0.2409478 0.2432727 0.2464852 0.248906 0.2500482
 0.2504807 0.2505879 0.2499982 0.2482476 0.2454852 0.2424069 0.2400165 0.2394741 0.2413341 0.2445972
 0.2472754 0.2483495 0.2486349 0.2494561 0.2510692 0.2526781 0.2534629 0.2532094 0.2521685 0.2506115
 0.2487017 0.2468978 0.2461983 0.2474369 0.250264 0.2532722 0.2552963 0.256295 0.2567323 0.2562139
 0.2532145 0.2469075 0.2394586 0.2354391 0.2377981 0.244777 0.2517962 0.2559609 0.2576597 0.2584245
 0.2588716 0.2585199 0.2560818 0.2501816 0.2415282 0.2342586 0.2331358 0.2388448 0.2472203 0.2531297
 0.2539611 0.2498996 0.2430146 0.236649 0.2340556 0.2364225 0.2423492 0.2492363 0.2548499 0.2579303
 0.2581783 0.2561439 0.25319 0.2511553 0.2510262 0.2514859 0.2499076 0.2456625 0.2411575 0.238311
 0.2356036 0.2309098 0.2261423 0.2259955 0.2318265 0.2393794 0.2435545 0.2435687 0.2420781 0.2403557
 0.2361575 0.2269661 0.214694 0.2057944 0.2055574 0.2125604 0.2198808 0.221791 0.2182665 0.213085
 0.2089497 0.2050534 0.1987906 0.1895013 0.1803533 0.1757421 0.1766552 0.1797846 0.1814143 0.1803652
 0.1767273 0.17069 0.1646896 0.1641931 0.1730335 0.1886017 0.203763 0.2125854 0.2124762 0.2030632
 0.1871794 0.1726094 0.1682827 0.1763163 0.1894859 0.19788 0.1968295 0.1878313 0.1742775 0.159075
 0.1459105 0.1397331 0.1438101 0.1563809 0.1707423 0.1786613 0.1749541 0.1614414 0.1471421 0.1418167
 0.1472057 0.1558754 0.1595428 0.1565808 0.1509332 0.146938 0.1467595 0.1500815 0.1545025 0.1577483
 0.1595022 0.1590484 0.1528405 0.1387814 0.1221315 0.1121149 0.1123187 0.1187973 0.1274517 0.1377308
 0.1478595 0.1522966 0.147968 0.1400814 0.1377196 0.1441983 0.1541987 0.1602593 0.1601537 0.1573341
 0.1555413 0.154776 0.1531429 0.1512019 0.1521755 0.1575066 0.164355 0.1687616 0.1697822 0.1691798
 0.168414 0.1675285 0.1661644 0.1642041 0.1616918 0.1589338 0.1564241 0.154282 0.1521341 0.1496746
 0.1466952 0.142348 0.1353642 0.1259954 0.1171884 0.1123499 0.1118378 0.1131339 0.1144859 0.1159628
 0.11616 0.1111703 0.09968291 0.08727048 0.08238384 0.08821641 0.1003153 0.1116527 0.1179615 0.1181314
 0.1122183 0.1017957 0.09188017 0.08937316 0.09747849 0.1127101 0.1287069 0.1416708 0.1507519 0.1551327
 0.1536754 0.1473753 0.1402187 0.1369285 0.1401706 0.1493626 0.1607495 0.1682452 0.1664284 0.1560252
 0.1464608 0.1488836 0.1643464 0.181924 0.1909714 0.1919416 0.1920014 0.1938732 0.1945009 0.1930149
 0.1938776 0.2007261 0.2109344 0.2181658 0.2179511 0.2094527 0.1946951 0.1787919 0.1686873 0.1678344
 0.1725878 0.1764338 0.1764585 0.1729302 0.1653277 0.1540544 0.1447884 0.1450503 0.1553822 0.1681532
 0.176208 0.1794042 0.1815448 0.1837649 0.183152 0.1772198 0.1681107 0.161312 0.1602596 0.1633355
 0.1666128 0.1679625 0.1671944 0.1638328 0.1573783 0.1497588 0.1453321 0.1472112 0.1541644 0.1618309
 0.1666512 0.1681337 0.1678756 0.1674663 0.1673767 0.1670601 0.1660409 0.1653707 0.1674336 0.1732977
 0.1808202 0.1867405 0.1903593 0.193766 0.1985219 0.2034831 0.2062387 0.2058534 0.2038558 0.2029688
 0.2049635 0.2092562 0.2132977 0.2146698 0.2133359 0.2118821 0.2131438 0.2174959 0.222789 0.2267807
 0.2289734 0.2301635 0.2311173 0.2319272 0.2319711 0.2304119 0.2274514 0.2250737 0.2256615 0.2296281
 0.2349839 0.2393264 0.2417238 0.2426386 0.2427018 0.2420286 0.2405476 0.2385891 0.2369053 0.2361161
 0.2362816 0.2370401 0.2379922 0.2388766 0.2395616 0.2400411 0.2404024 0.2407281 0.2410549 0.2414165
 0.2418309 0.2422316 0.2425072 0.2426516 0.2427946 0.243032 0.2432874 0.2434078 0.2433316 0.2430699
 0.2425661 0.2417048 0.2404679 0.2389714 0.237309 0.235473 0.2335387 0.2318926 0.2311341 0.2316387
 0.2332067 0.2351756 0.2368707 0.2379435 0.2383798 0.2383402 0.2380408 0.2376873 0.2374162 0.2372652
 0.2372053 0.2372009 0.2372377 0.2373064 0.237388 0.237476 0.2375997 0.2377946 0.2380432 0.2382623
 0.2383565 0.2382804 0.2380606 0.2377636 0.2374355 0.2370602 0.2365705 0.2358977 0.2350127 0.2339414
 0.2327587 0.2315558 0.2303852 0.2292305 0.2280395 0.2267809 0.2254431 0.2239892 0.2223711 0.2206166
 0.2188567 0.2172226 0.2157398 0.214348 0.2129852 0.2116205 0.2102436 0.2088705 0.2075472 0.2063188
 0.2052014 0.2041863 0.2032518 0.2023588 0.2014523 0.2004801 0.199414 0.1982568 0.1970403 0.1958154
 0.1946242 0.1934564 0.1922171 0.1907331 0.1887927 0.1861972 0.1828213 0.1786738 0.1739231 0.1688567
 0.1637961 0.1590163 0.1547003 0.1509419 0.1477805 0.1452311 0.1432857 0.1419114 0.1410699 0.1407458
 0.1409553 0.1417225 0.1430398 0.1448425 0.1470159 0.1494173 0.1518871 0.1542694 0.1564642 0.1584762
 0.1603936 0.1623006 0.1642074 0.1660634 0.167818 0.169442 0.1708964 0.1721217 0.1730839 0.1738129
 0.1743762 0.1748295 0.1752006 0.1755021 0.1757408 0.175925 0.1760749 0.1762294 0.1764445 0.1767737
 0.1772367 0.1778093 0.1784551 0.1791621 0.1799394 0.1807926 0.1817125 0.1826785 0.1836663 0.1846614
 0.1856737 0.1867431 0.1879373 0.1893391 0.191013 0.1929726 0.1951764 0.1975492 0.1999982 0.2024178
 0.2046951 0.2067237 0.2084322 0.2098079 0.210889 0.2117295 0.2123735 0.2128525 0.2131904 0.2134082
 0.2135277 0.2135666 0.2135321 0.2134251 0.2132408 0.2129573 0.2125445 0.2120027 0.2113769 0.2107237
 0.2100767 0.2094478 0.2088453 0.2082796 0.2077603 0.2072862 0.2068403 0.2064021 0.2059613 0.2055111
 0.2050349 0.2045098 0.2039125 0.2032168 0.2023992 0.2014523 0.2003854 0.1992123 0.1979471 0.1966057
 0.1952031 0.1937544 0.192274 0.1907678 0.1892252 0.1876205 0.1859203 0.1841016 0.1821807 0.1802184
 0.1782818 0.1764068 0.1746035 0.1728746 0.1712171 0.1696254 0.1681028 0.1666569 0.1652821 0.1639632
 0.1626922 0.1614729 0.1603125 0.1592166 0.1581922 0.157253 0.1564198 0.155703 0.155089 0.1545536
 0.154083 0.1536699 0.1533101 0.1530208 0.152832 0.1527334 0.1526495 0.1524922 0.1522264 0.1518817
 0.1515182 0.1511884 0.150913 0.1506824 0.150475 0.1502584 0.1499783 0.1495574 0.1489118 0.1479707
 0.1467018 0.1451315 0.1433383 0.1414345 0.1395535 0.1378252 0.1363336 0.1351026 0.1341198 0.1333539
 0.1327532 0.1322632 0.1318618 0.1315742 0.1314498 0.1314956 0.1316158 0.1316536 0.131539 0.1313724
 0.1313319 0.1315198 0.1319115 0.1324029 0.1328766 0.1332545 0.1335106 0.1336437 0.1336604 0.1335828
 0.1334331 0.1332065 0.1328893 0.1324923 0.1320403 0.1315499 0.131032 0.1304869 0.1298924 0.129224
 0.1284731 0.1276294 0.1266735 0.1255955 0.1243866 0.1230341 0.1215898 0.1202336 0.1192076 0.1186715
 0.1186109 0.1188526 0.1191891 0.1195159 0.1197995 0.1199153 0.1196981 0.1192839 0.1192508 0.1201961
 0.1221497 0.1245088 0.1265472 0.1278987 0.1285666 0.1286606 0.1282675 0.127462 0.1262691 0.1246468
 0.1225966 0.1202228 0.1176473 0.1149875 0.1124207 0.1101274 0.1081837 0.1065913 0.105341 0.1044622
 0.1040559 0.1037924 0.1020596 0.09680556 0.08871462 0.08263505 0.08351915 0.09085187 0.09899749 0.1031622
 0.1032271 0.1017572 0.1005058 0.09972703 0.09934209 0.09950167 0.1003336 0.1016979 0.1032039 0.1044402
 0.1052382 0.1056499 0.1056695 0.1050122 0.1030666 0.09910301 0.09285852 0.08506675 0.07721554 0.07067983
 0.06611137 0.06343919 0.06213218 0.0615053 0.06108154 0.060826 0.0610286 0.06195988 0.06364714 0.06593645
 0.06865324 0.07159135 0.07441182 0.07676423 0.07856174 0.07998335 0.08116835 0.08205123 0.08251393 0.0825531
 0.08226218 0.0817536 0.08113096 0.08046595 0.079753 0.07891318 0.0779127 0.07689846 0.07613897 0.07577886
 0.07571758 0.07576118 0.07579888 0.07580532 0.07578325 0.07575043 0.07572594 0.07573503 0.07585153 0.07616064
 0.07663347 0.07710912 0.0774377 0.07760068 0.07768632 0.07774981 0.07768382 0.07730986 0.07667608 0.07610339
 0.07575565 0.07533869 0.07449234 0.0733625 0.07250601 0.07227465 0.07250915 0.07280891 0.07290927 0.07279034
 0.07260545 0.0725961 0.07294294 0.07354186</values></Ydata></ScSm><ScRf><Ydata ylabel="Single channel"><values byteorder="INTEL" format="FLOAT32" numvalues="1820"> 0.0607628 0.06091732 0.06100641 0.06103374 0.06102624 0.06103216 0.06110344 0.06126063 0.06147173 0.06166887
 0.06179576 0.06184533 0.06184385 0.0618061 0.06173719 0.06167966 0.06171082 0.06186502 0.0620792 0.06223492
 0.06225606 0.06217797 0.06212544 0.06219139 0.06231302 0.0622941 0.06198955 0.06147047 0.0609753 0.06068916
 0.06063002 0.06079033 0.06125214 0.06196235 0.06248331 0.06230625 0.06148973 0.06068907 0.06042961 0.06060374
 0.06077696 0.06069468 0.0603608 0.05993296 0.05976477 0.06031441 0.061692 0.06328064 0.06395603 0.06279877
 0.05975543 0.05584038 0.05275317 0.0519668 0.05369632 0.05660985 0.05882631 0.05941319 0.05883307 0.05799099
 0.05725372 0.05656931 0.05611076 0.05631653 0.05729075 0.05838988 0.05855845 0.05724184 0.05504806 0.05330701
 0.05285138 0.05350024 0.05478147 0.05644325 0.05772877 0.05696531 0.05321185 0.04834067 0.04620242 0.04896786
 0.05481154 0.05969026 0.06093699 0.05877008 0.05513199 0.05207539 0.05097063 0.05214083 0.05482653 0.0578142
 0.06016189 0.06123186 0.06052648 0.05812412 0.05510714 0.05304091 0.05301198 0.05519653 0.05882245 0.06224693
 0.0637031 0.06259792 0.05990395 0.05713402 0.05534686 0.05514357 0.0568158 0.06005467 0.06392277 0.06738579
 0.06973241 0.07066869 0.07039385 0.06946858 0.06838372 0.06746962 0.06718463 0.06783739 0.06883749 0.06891958
 0.06751903 0.06552935 0.06438538 0.0645822 0.06528047 0.06532498 0.06441291 0.06291546 0.06074073 0.05729447
 0.05284987 0.04893017 0.04678945 0.04645296 0.04761419 0.05011974 0.05290501 0.05394074 0.05245336 0.0503354
 0.05027093 0.0528744 0.05637511 0.05877599 0.05970244 0.06026307 0.06162462 0.06381819 0.06558968 0.06534547
 0.06273319 0.05953056 0.05838845 0.06022712 0.06334943 0.06552789 0.06635565 0.06699507 0.06814737 0.06896515
 0.06794152 0.0647051 0.06096679 0.05945157 0.06152156 0.06581165 0.069222 0.06920803 0.06549086 0.06011664
 0.05586477 0.05432723 0.05549392 0.05881938 0.06382533 0.06952412 0.07416463 0.07621424 0.07546705 0.07296801
 0.06981684 0.06614813 0.06168955 0.05744744 0.05592843 0.05878004 0.06468797 0.07046667 0.07389871 0.07484418
 0.07401445 0.07161681 0.06755639 0.06275129 0.05956621 0.05998116 0.06320629 0.06612279 0.06654359 0.06521098
 0.06420386 0.06435208 0.06491543 0.06516658 0.06543483 0.06654253 0.06862349 0.07079565 0.07200659 0.07199071
 0.0713294 0.07077703 0.07057242 0.07026079 0.06933764 0.06825085 0.06835071 0.07040629 0.0735434 0.07614151
 0.07746166 0.07791762 0.07798474 0.07736066 0.07539728 0.07231382 0.06969307 0.06930675 0.07140143 0.07454135
 0.0770988 0.07842746 0.07871686 0.07840081 0.07785817 0.07729037 0.07679376 0.0766301 0.07715636 0.07831486
 0.07951654 0.08023037 0.08042031 0.0802837 0.07987143 0.07916081 0.07832433 0.07773426 0.07769454 0.07821439
 0.07905394 0.07993795 0.08065104 0.08099642 0.08086595 0.08039478 0.07988441 0.07952705 0.07933383 0.07932311
 0.07958658 0.0801144 0.08070607 0.08113693 0.08133674 0.08136643 0.08129515 0.08114977 0.08094965 0.08075675
 0.08068374 0.08081651 0.08110666 0.08139884 0.08161067 0.08181608 0.08208407 0.08231571 0.08234693 0.08217054
 0.08195649 0.08186582 0.08191861 0.08203639 0.08213309 0.08212848 0.08193674 0.08154383 0.08111162 0.0809143
 0.0811153 0.08164974 0.08233105 0.08298641 0.08348227 0.08374313 0.08380537 0.08377892 0.08371992 0.08359374
 0.08337581 0.08314513 0.08305992 0.08324008 0.08365915 0.08415703 0.08456868 0.08482239 0.08493169 0.08496697
 0.08503722 0.08520535 0.08539627 0.08546872 0.08539884 0.08532074 0.0853633 0.08550134 0.08559585 0.08555781
 0.08545071 0.08542465 0.08555819 0.08578885 0.08600329 0.08616386 0.0863245 0.08653416 0.08674205 0.08681931
 0.08669733 0.08646688 0.08629285 0.08624323 0.08626491 0.0863183 0.08644465 0.08666837 0.08690655 0.08703952
 0.08704731 0.087026 0.08706472 0.08714078 0.08715369 0.08704387 0.08685479 0.08668721 0.08661608 0.08664913
 0.08673818 0.08681503 0.0868287 0.08676866 0.08666229 0.0865477 0.08644864 0.08638366 0.0863948 0.08653337
 0.08678503 0.08702345 0.08708465 0.08691376 0.08662666 0.08640753 0.08634241 0.08635755 0.08631355 0.08614211
 0.0858882 0.08564286 0.08546066 0.08533689 0.08523771 0.08514214 0.08506905 0.08507074 0.08517902 0.08533984
 0.08542247 0.08532836 0.08508834 0.0848299 0.08465865 0.08459347 0.08459169 0.0845993 0.08459188 0.08459628
 0.08465359 0.0847431 0.08478106 0.08471952 0.08461036 0.08455166 0.08460724 0.08477996 0.08500691 0.08517102
 0.0851807 0.0850652 0.08495133 0.08493242 0.08499581 0.08508119 0.08516088 0.0852427 0.08533259 0.08542982
 0.08554769 0.08571322 0.08593972 0.08620346 0.08644763 0.08661606 0.08670118 0.0867666 0.08690794 0.0871751
 0.08752999 0.08788015 0.08815347 0.08834611 0.08850725 0.08868068 0.08886846 0.08905831 0.08926789 0.08953136
 0.0898468 0.09017079 0.09046957 0.09074986 0.09103503 0.09133478 0.09164682 0.09197652 0.09234464 0.09276527
 0.09320559 0.0935822 0.09382626 0.09395525 0.09406666 0.09426486 0.09459223 0.09499664 0.0953499 0.09554373
 0.09560466 0.09568122 0.0958828 0.096167 0.09642655 0.09665012 0.09693357 0.09733953 0.09780151 0.09818599
 0.09842435 0.09856729 0.09871802 0.09892268 0.09913267 0.09927662 0.09935355 0.09943001 0.09955432 0.09971982
 0.09992453 0.1002117 0.1006075 0.1010522 0.1014416 0.1017212 0.1019086 0.1020466 0.1021651 0.1022705
 0.1023453 0.1023763 0.102394 0.1024505 0.1025465 0.1026215 0.102639 0.1026398 0.1026931 0.10283
 0.1030486 0.1033409 0.1036782 0.1039993 0.1042645 0.1045173 0.1048406 0.1052341 0.1055805 0.1057679
 0.1058107 0.1058073 0.105815 0.1058293 0.1058673 0.1059929 0.1062426 0.1065778 0.1069349 0.1072864
 0.1076364 0.1079826 0.1082969 0.1085331 0.108652 0.1086548 0.1086012 0.1085881 0.1086974 0.1089482
 0.1092865 0.1096243 0.1098982 0.1100864 0.1101791 0.1101698 0.1100998 0.1100758 0.1101862 0.1103962
 0.1105607 0.1105478 0.1103268 0.1099378 0.1094195 0.1087955 0.1081102 0.1074449 0.1068849 0.1064809
 0.1062497 0.1062125 0.1064126 0.1068696 0.1075209 0.1082367 0.1088986 0.1094308 0.1097551 0.1097752
 0.1094485 0.1088484 0.1081173 0.1073753 0.1066853 0.1060624 0.1054796 0.1049018 0.1043652 0.1040189
 0.1040585 0.10461 0.1056657 0.1070912 0.1086667 0.1101564 0.1113983 0.1123658 0.1131444 0.1138391
 0.1145054 0.1151592 0.1158168 0.1164849 0.1171257 0.1176824 0.1181455 0.1185629 0.1189764 0.1193763
 0.1197235 0.1199934 0.1201998 0.1203885 0.1205939 0.1207891 0.1208994 0.1208844 0.120785 0.1206704
 0.1205594 0.120409 0.1201619 0.1197945 0.1193478 0.1189441 0.1187657 0.1189815 0.1196534 0.1207009
 0.1219613 0.1232907 0.1245949 0.1257817 0.1267406 0.1274076 0.1278258 0.1281104 0.1283639 0.1286357
 0.1289361 0.1292555 0.129575 0.1298779 0.1301615 0.1304429 0.1307521 0.1311028 0.1314666 0.131788
 0.1320391 0.1322534 0.1325011 0.1328273 0.1332098 0.1335825 0.1339093 0.1342196 0.1345527 0.1348847
 0.1351508 0.1353316 0.13548 0.1356673 0.1359333 0.1362778 0.1366587 0.1370039 0.1372595 0.1374389
 0.1376043 0.1378019 0.1380312 0.1382697 0.1385058 0.1387421 0.1389864 0.1392509 0.1395503 0.1398801
 0.1401985 0.1404485 0.1406109 0.1407285 0.1408669 0.1410568 0.1412773 0.1414885 0.1416778 0.1418771
 0.142133 0.1424532 0.1427842 0.1430529 0.1432312 0.143354 0.1434768 0.1436309 0.1438174 0.1440244
 0.144237 0.1444402 0.1446285 0.1448125 0.1450084 0.145221 0.1454409 0.1456582 0.1458717 0.1460854
 0.1462995 0.1465104 0.1467225 0.1469544 0.1472256 0.1475296 0.1478277 0.1480775 0.1482662 0.148412
 0.1485411 0.1486722 0.1488182 0.1489868 0.1491753 0.1493723 0.149568 0.1497631 0.149966 0.1501832
 0.1504094 0.1506308 0.150838 0.1510361 0.151241 0.1514664 0.1517119 0.1519597 0.152187 0.1523816
 0.1525509 0.1527155 0.1528955 0.1530963 0.153304 0.1534987 0.1536756 0.1538489 0.1540346 0.1542363
 0.1544472 0.1546588 0.1548645 0.155062 0.1552538 0.1554431 0.1556305 0.1558158 0.1560018 0.1561938
 0.1563956 0.1566054 0.156815 0.1570161 0.1572068 0.1573921 0.1575803 0.157779 0.1579908 0.1582094
 0.158424 0.1586268 0.1588168 0.1589983 0.1591783 0.1593633 0.1595567 0.1597589 0.159967 0.1601749
 0.1603781 0.1605785 0.1607812 0.1609882 0.1611997 0.1614153 0.1616312 0.1618428 0.1620506 0.1622577
 0.1624646 0.1626721 0.1628849 0.1631047 0.1633263 0.1635455 0.1637659 0.1639923 0.1642217 0.1644409
 0.1646349 0.1648011 0.1649552 0.1651164 0.1652909 0.1654736 0.1656577 0.1658378 0.1660119 0.1661834
 0.1663587 0.1665435 0.166741 0.1669492 0.1671593 0.167364 0.1675669 0.1677756 0.167992 0.1682139
 0.1684377 0.1686555 0.1688617 0.1690605 0.1692579 0.1694537 0.1696473 0.1698435 0.1700455 0.1702537
 0.170469 0.1706894 0.1709087 0.1711261 0.1713462 0.1715677 0.1717829 0.1719883 0.1721838 0.1723719
 0.1725635 0.1727694 0.1729857 0.1732003 0.1734104 0.1736198 0.1738293 0.1740407 0.174255 0.1744661
 0.1746707 0.1748797 0.1751034 0.175335 0.1755608 0.1757734 0.1759739 0.1761746 0.1763903 0.1766178
 0.1768384 0.1770457 0.1772455 0.1774274 0.1775454 0.1774779 0.1769302 0.1753355 0.1718509 0.1655307
 0.1557052 0.1424112 0.1265308 0.1094788 0.09268612 0.0772355 0.06376105 0.0525331 0.04359951 0.03687938
 0.03222132 0.02949486 0.02868614 0.03000062 0.03397899 0.04117897 0.05095577 0.06037628 0.06535858 0.06389853
 0.05798924 0.05180323 0.04822024 0.04743332 0.04819987 0.04946499 0.05090027 0.05270488 0.05521378 0.05852179
 0.06246937 0.06705209 0.07261971 0.07943344 0.08713273 0.09488378 0.1020988 0.108904 0.1158618 0.1233028
 0.1309804 0.1383115 0.1448429 0.1504862 0.1554304 0.159929 0.1641512 0.1681631 0.1719864 0.1756088
 0.1789089 0.1816154 0.1834317 0.1842595 0.1843143 0.1840095 0.1837156 0.1836126 0.1837201 0.1840023
 0.1844281 0.1849805 0.1856491 0.1864142 0.1872355 0.1880694 0.1888924 0.1896981 0.1904789 0.1912222
 0.1919143 0.1925447 0.1931112 0.1936222 0.1940875 0.1945129 0.1949055 0.1952767 0.1956349 0.1959848
 0.196328 0.1966588 0.1969639 0.197236 0.1974814 0.1977128 0.1979413 0.1981719 0.1983997 0.1986129
 0.1988078 0.1989961 0.1991922 0.1993982 0.1996075 0.1998152 0.2000228 0.2002345 0.2004507 0.2006647
 0.2008674 0.2010559 0.2012354 0.2014146 0.2016017 0.2017993 0.2019992 0.2021899 0.2023695 0.2025471
 0.2027315 0.2029245 0.2031238 0.2033257 0.2035308 0.2037452 0.2039692 0.2041893 0.204394 0.204593
 0.2048059 0.2050367 0.205272 0.2054969 0.2056996 0.2058712 0.2060136 0.2061488 0.2063108 0.2065213
 0.2067683 0.2070138 0.20723 0.2074235 0.2076167 0.2078172 0.2080127 0.2081895 0.2083507 0.2085239
 0.2087419 0.2090036 0.2092722 0.2095206 0.2097542 0.2099856 0.2102183 0.2104578 0.2107019 0.2109179
 0.211069 0.2111723 0.211307 0.21155 0.2119015 0.2122798 0.2125981 0.2128422 0.2130592 0.2132947
 0.2135648 0.2138435 0.2140408 0.2140616 0.2139558 0.213946 0.2142244 0.2147579 0.2153467 0.2158293
 0.216182 0.2164645 0.2167275 0.2169635 0.2171164 0.2171431 0.2170931 0.2171256 0.2173971 0.2179017
 0.2184636 0.2189163 0.2192315 0.2194593 0.2196408 0.2198036 0.2199177 0.2198325 0.2194352 0.2189378
 0.2188247 0.2193804 0.220367 0.221279 0.2218444 0.2221638 0.2224286 0.22269 0.222906 0.2229781
 0.2226476 0.221651 0.2202346 0.2192836 0.21959 0.2210573 0.2228568 0.2242526 0.2250633 0.2254791
 0.2257404 0.2259746 0.2260958 0.2258185 0.2249745 0.2239206 0.2234434 0.2240355 0.2253451 0.2265518
 0.2272035 0.227463 0.2276701 0.2279594 0.2281647 0.2277918 0.2263092 0.2239283 0.2219816 0.2219832
 0.224153 0.227152 0.2294063 0.2304575 0.2308385 0.2309157 0.2303512 0.228717 0.2261462 0.2232771
 0.2210433 0.2205333 0.2222689 0.2253162 0.2278193 0.2288292 0.2291047 0.2298784 0.2313928 0.2329089
 0.233657 0.233432 0.2324713 0.2310343 0.2292706 0.2276004 0.2269539 0.2281172 0.2307752 0.2336157
 0.2355413 0.2365042 0.2369378 0.2364769 0.2336987 0.2278364 0.2209192 0.2172134 0.2194602 0.2260113
 0.2325954 0.2365175 0.2381456 0.2389117 0.2393859 0.2391102 0.2368787 0.2314146 0.2233926 0.2166815
 0.2157182 0.2211224 0.2290004 0.2345773 0.2354278 0.2317169 0.225363 0.2194898 0.2171507 0.2194707
 0.2251446 0.2317284 0.2371151 0.2401229 0.2404772 0.2386936 0.2360538 0.2342964 0.2343479 0.2349527
 0.2336369 0.2298291 0.2258062 0.2233597 0.2210426 0.2168592 0.2126365 0.2128201 0.2186846 0.226192
 0.2305278 0.230983 0.2300844 0.2290013 0.2255527 0.2173457 0.2063001 0.1987534 0.1999249 0.2084937
 0.2177721 0.2222541 0.2219974 0.2206763 0.2206836 0.2206811 0.2174747 0.210174 0.2023374 0.1989934
 0.2013053 0.2055422 0.2075165 0.2059283 0.2009234 0.1927627 0.1842248 0.1814927 0.1889625 0.2038902
 0.2185224 0.2264756 0.2251114 0.2141985 0.1968072 0.1811503 0.1765993 0.1853072 0.19959 0.208976
 0.2085253 0.1997606 0.1861975 0.1709082 0.1579118 0.152678 0.1588838 0.1746569 0.1925375 0.2031788
 0.2005414 0.1866145 0.1718542 0.167679 0.1760667 0.1881467 0.1941026 0.1920705 0.1868102 0.1835993
 0.1851806 0.1911938 0.1985564 0.2043819 0.2082903 0.2091674 0.2020793 0.1842055 0.162697 0.1499551
 0.1507612 0.1598655 0.1718944 0.1861588 0.2001467 0.2062375 0.2002871 0.1894586 0.1861015 0.1946419
 0.2078031 0.2155011 0.2148233 0.2105448 0.2077841 0.2065728 0.2043907 0.2020338 0.2038327 0.2116564
 0.2216298 0.2284608 0.2309532 0.2315098 0.2320655 0.2326225 0.2326416 0.2319365 0.2305839 0.2290502
 0.2280518 0.2277519 0.2276069 0.2271854 0.2261419 0.222971 0.2153405 0.2033647 0.1916694 0.185721
 0.1860365 0.1885737 0.1907476 0.1929416 0.1929023 0.1841496 0.1645307 0.1432538 0.1341832 0.1424401
 0.1605923 0.1771375 0.1853162 0.1837006 0.172774 0.1551479 0.1382935 0.1321755 0.1411102 0.1596273
 0.1783278 0.1919757 0.2000237 0.2021012 0.197087 0.1863485 0.1749749 0.1688396 0.1710501 0.1806159
 0.1927575 0.2000957 0.1962785 0.1823319 0.1694207 0.1705704 0.1869781 0.2059724 0.2152576 0.2153481
 0.2144722 0.2157802 0.2158386 0.2136906 0.214428 0.2222486 0.2343083 0.2435347 0.2448451 0.2371519
 0.2226763 0.2074282 0.199643 0.2031481 0.2129401 0.2205584 0.2222313 0.2183957 0.2087335 0.1942262
 0.1823793 0.1827169 0.1957644 0.211814 0.2219527 0.2261795 0.2293542 0.2328121 0.2327256 0.2258861
 0.2150571 0.2072675 0.2068757 0.2117785 0.2170014 0.2199364 0.2203905 0.2176442 0.2108983 0.2026368
 0.1986477 0.2030079 0.2138448 0.2250414 0.2316689 0.2330721 0.2314765 0.2290976 0.22663 0.2234007
 0.2188572 0.2145009 0.2135908 0.2176608 0.2240918 0.2288168 0.2309819 0.2332192 0.2375038 0.2424268
 0.2449061 0.2435482 0.2399709 0.2373928 0.2380514 0.2414309 0.2446481 0.2449105 0.2421708 0.2394216
 0.2399392 0.2441542 0.2495976 0.2537117 0.2559383 0.2571687 0.2582277 0.2591569 0.2591834 0.2572926
 0.2536502 0.2504468 0.2503524 0.2538711 0.2588644 0.2627688 0.2646746 0.2651919 0.2650459 0.2643223
 0.2628725 0.2609822 0.2593916 0.2587069 0.2589671 0.2597992 0.2608079 0.2617421 0.2624769 0.262999
 0.2633644 0.2636087 0.2637406 0.263808 0.2638676 0.2638851 0.2637804 0.2636037 0.2635556 0.2637627
 0.2641125 0.2643742 0.2644087 0.2641768 0.263615 0.2626516 0.2613443 0.2598708 0.2583358 0.2566956
 0.2549867 0.253594 0.2531491 0.2540535 0.2561006 0.2585936 0.2608223 0.2624252 0.2633967 0.2638979
 0.2641088 0.2641711 0.2641658 0.2641083 0.2639778 0.2637614 0.2634718 0.2631312 0.2627555 0.2623639
 0.261991 0.2616702 0.2613994 0.2611324 0.2608084 0.2603897 0.2598842 0.2593377 0.2587941 0.2582498
 0.2576465 0.2569199 0.2560556 0.2551035 0.2541468 0.2532547 0.2524444 0.2516757 0.2508912 0.2500597
 0.249167 0.248181 0.2470748 0.2459031 0.2448076 0.2439083 0.2432025 0.2425847 0.2419382 0.2411921
 0.2403285 0.2393703 0.2383573 0.2373113 0.2362262 0.2350871 0.233885 0.2326103 0.2312522 0.2298076
 0.2282838 0.2266964 0.2250729 0.2234423 0.2217957 0.220057 0.2181032 0.2158061 0.2130486 0.2097307
 0.2058066 0.2013364 0.1964955 0.1915201 0.1866296 0.1819808 0.1776738 0.1737885 0.1704099 0.1676233
 0.1654963 0.1640681 0.1633519 0.1633452 0.1640363 0.1653953 0.1673516 0.1697863 0.1725518 0.1754959
 0.1784654 0.1813068 0.1839075 0.186256 0.1884403 0.1905502 0.1925821 0.1944559 0.1961115 0.1975517
 0.1987976 0.1998504 0.2007115 0.2014085 0.2019821 0.2024601 0.2028568 0.2031868 0.2034708 0.2037287
 0.2039685 0.2041841 0.2043685 0.204533 0.20471 0.204932 0.2052103 0.205537 0.2059092 0.2063386
 0.2068331 0.2073789 0.2079543 0.2085526 0.2091791 0.2098392 0.2105463 0.2113377 0.2122624 0.21335
 0.2145941 0.2159569 0.2173735 0.2187517 0.2199872 0.2209999 0.2217572 0.2222646 0.222544 0.2226273
 0.2225564 0.222367 0.2220778 0.2216996 0.2212487 0.2207382 0.2201694 0.2195428 0.2188694 0.2181637
 0.2174359 0.2167005 0.2159803 0.2152922 0.2146337 0.2139902 0.2133538 0.2127314 0.212133 0.2115577
 0.2109923 0.2104242 0.209851 0.2092776 0.2087048 0.2081172 0.2074813 0.2067586 0.2059278 0.2049931
 0.20397 0.2028696 0.2016937 0.2004377 0.1990917 0.1976497 0.1961193 0.1945198 0.1928674 0.1911587
 0.1893659 0.1874583 0.1854445 0.1833941 0.1814038 0.1795414 0.1778225 0.1762269 0.1747249 0.1732985
 0.1719474 0.170672 0.1694588 0.1682959 0.1671913 0.1661564 0.165183 0.1642524 0.1633609 0.162527
 0.1617781 0.1611299 0.1605729 0.1600839 0.1596559 0.1593061 0.1590552 0.1589082 0.1588504 0.1588483
 0.158861 0.1588581 0.1588279 0.1587707 0.1586965 0.1586199 0.1585476 0.1584794 0.1584153 0.1583376
 0.1581855 0.1578676 0.1572983 0.1564177 0.1552047 0.1536919 0.1519591 0.1501126 0.1482765 0.1465778
 0.1451147 0.1439391 0.1430563 0.142414 0.1419135 0.1414788 0.1411163 0.1408929 0.1408714 0.141051
 0.1413279 0.1415386 0.1416032 0.1416154 0.1417581 0.1421502 0.1427844 0.14356 0.1443473 0.1450476
 0.1456067 0.1459909 0.1461969 0.1462791 0.1463054 0.1462856 0.1461878 0.1460027 0.1457512 0.1454549
 0.1451224 0.1447339 0.1442483 0.1436497 0.1429611 0.1422023 0.1413767 0.140485 0.1394934 0.1383425
 0.1370763 0.1359232 0.1351775 0.1350221 0.1354553 0.1363067 0.1373408 0.1384069 0.1394314 0.1402414
 0.1405957 0.1405614 0.1407184 0.1417498 0.1437881 0.1462647 0.1484141 0.1498301 0.1505182 0.1506012
 0.1501556 0.1492293 0.1478154 0.1458515 0.1433618 0.1405095 0.1374547 0.1343158 0.1312754 0.1285378
 0.1262046 0.1243019 0.1228388 0.1218577 0.1214844 0.1213346 0.1194825 0.1134672 0.1040907 0.09709963
 0.09833452 0.1071507 0.116881 0.1218751 0.1219828 0.1202137 0.1186491 0.1176221 0.1170558 0.1171143
 0.1179125 0.1192586 0.1207188 0.1218847 0.1226181 0.1229865 0.122959 0.1221709 0.119867 0.1151631
 0.1077592 0.09855509 0.08933142 0.08169183 0.07633755 0.07312412 0.0714506 0.07060969 0.07010666 0.06987015
 0.07016306 0.07125697 0.07319652 0.07584898 0.07904698 0.08254464 0.08591422 0.08872348 0.09086716 0.09256053
 0.09397552 0.09503468 0.09558171 0.095601 0.09521987 0.09459968 0.09387305 0.09310864 0.09226427 0.0912201
 0.0899625 0.08873172 0.08786781 0.08748445 0.08740097 0.08739318 0.08737657 0.08734924 0.0873085 0.0872543
 0.08719762 0.08717827 0.08729631 0.08763935 0.08814593 0.08862196 0.08891536 0.08902776 0.0890635 0.08907078
 0.08890854 0.08836441 0.0875002 0.08670409 0.08619447 0.08565286 0.08464383 0.08328725 0.08221155 0.08186951
 0.08213048 0.08252741 0.08269443 0.08254912 0.08226277 0.08216205 0.08250336 0.08317359 0.08369407 0.08367292
</values></Ydata></ScRf><Data_Parameters_AB><parameter name="DPF">1</parameter><parameter name="NPT">3497</parameter><parameter name="FXV">3996</parameter><parameter name="LXV">500</parameter><parameter name="CSF">1</parameter><parameter name="MXY">0.221896454691887</parameter><parameter name="MNY">-0.0479916855692863</parameter><parameter name="DAT">01/06/2022</parameter><parameter name="TIM">11:14:59.772 (GMT+2)</parameter><parameter name="DXU">WN</parameter></Data_Parameters_AB><AB__Qtest><MainReport name="Quality Test Report"><Header><Line><Legend>Test result ok/not ok [1/0]: </Legend><Value>0</Value></Line><Line><Legend>Method file: </Legend><Value>C:\Users\Public\Documents\Bruker\OPUS_8.2.28\QT\IRBT_v3_default.QT</Value></Line></Header><Matrix><Line><Legend></Legend><Legend>min</Legend><Legend>max</Legend><Legend>measured</Legend></Line><Line><Value>Absorption (X-Range 1):</Value><Value>0.400000</Value><Value>2.000000</Value><Value>0.183583</Value></Line><Line><Value>Noise (X-Range 4):</Value><Value></Value><Value>0.000300</Value><Value>0.000058</Value></Line><Line><Value>Signal/Noise (X-Range 2):</Value><Value>200.000000</Value><Value></Value><Value>51.745028</Value></Line><Line><Value>Signal/Noise (X-Range 3):</Value><Value>40.000000</Value><Value></Value><Value>38.399218</Value></Line><Line><Value>Water vapour (X-Range 5):</Value><Value></Value><Value>0.000300</Value><Value>0.000088</Value></Line><Line><Value>Signal/Water (X-Range 2):</Value><Value>100.000000</Value><Value></Value><Value>34.386832</Value></Line><Line><Value>Signal/Water (X-Range 3):</Value><Value>20.000000</Value><Value></Value><Value>25.517958</Value></Line><Line><Value>Fringes (X-Range 6):</Value><Value></Value><Value>0.000100</Value><Value>0.000072</Value></Line></Matrix></MainReport></AB__Qtest><Data_Parameters_ScSm><parameter name="DPF">1</parameter><parameter name="NPT">1814</parameter><parameter name="FXV">3996.33169228125</parameter><parameter name="LXV">499.541461535156</parameter><parameter name="CSF">1</parameter><parameter name="MXY">0.258871555328369</parameter><parameter name="MNY">0.0319695845246315</parameter><parameter name="DAT">01/06/2022</parameter><parameter name="TIM">11:14:59.772 (GMT+2)</parameter><parameter name="DXU">WN</parameter></Data_Parameters_ScSm><Data_Parameters_ScRf><parameter name="DPF">1</parameter><parameter name="NPT">1820</parameter><parameter name="FXV">4004.04661832813</parameter><parameter name="LXV">495.683998511719</parameter><parameter name="CSF">1</parameter><parameter name="MXY">0.265191942453384</parameter><parameter name="MNY">0.0286861434578896</parameter><parameter name="DAT">01/06/2022</parameter><parameter name="TIM">11:14:33.917 (GMT+2)</parameter><parameter name="DXU">WN</parameter></Data_Parameters_ScRf><Optic_Parameters_Rf><parameter name="APR">0</parameter><parameter name="APT">Open</parameter><parameter name="BMS">KBr</parameter><parameter name="DTC">RT-DLaTGS_IR-Biotyper [Microplate reader]</parameter><parameter name="HPF">0</parameter><parameter name="LPF">10.0</parameter><parameter name="LPV">4000</parameter><parameter name="PGR">0</parameter><parameter name="RCH">Module port</parameter><parameter name="RDX">0</parameter><parameter name="SRC">MIR</parameter><parameter name="VEL">10.0</parameter><parameter name="SON">Off</parameter></Optic_Parameters_Rf><Acquisition_Parameters_Rf><parameter name="ADT">1</parameter><parameter name="AQM">DD</parameter><parameter name="CFE">0</parameter><parameter name="COR">0</parameter><parameter name="DEL">0</parameter><parameter name="DLY">0</parameter><parameter name="HFW">8000</parameter><parameter name="LFW">0</parameter><parameter name="NSR">32</parameter><parameter name="PLF">AB</parameter><parameter name="RES">6</parameter><parameter name="RGN">-1</parameter><parameter name="STR">0</parameter><parameter name="TCL">MakeCompatibleScalar (0, {WSV=1.000000, ARV=0});</parameter><parameter name="TDL">37</parameter><parameter name="RPO">0</parameter></Acquisition_Parameters_Rf><FT_-_Parameters_Rf><parameter name="APF">B3</parameter><parameter name="HFQ">500</parameter><parameter name="LFQ">4000</parameter><parameter name="NLI">0</parameter><parameter name="PHR">24</parameter><parameter name="PHZ">ML</parameter><parameter name="SPZ">NO</parameter><parameter name="ZFF">1</parameter></FT_-_Parameters_Rf><Optic_Parameters_><parameter name="APR">0</parameter><parameter name="APT">Open</parameter><parameter name="BMS">KBr</parameter><parameter name="CHN">Module port</parameter><parameter name="DTC">RT-DLaTGS_IR-Biotyper [Microplate reader]</parameter><parameter name="HPF">0</parameter><parameter name="LPF">10.0</parameter><parameter name="LPV">4000</parameter><parameter name="PGN">0</parameter><parameter name="RDX">0</parameter><parameter name="SRC">MIR</parameter><parameter name="VEL">10.0</parameter><parameter name="SON">Off</parameter></Optic_Parameters_><FT_-_Parameters_><parameter name="APF">B3</parameter><parameter name="HFQ">500</parameter><parameter name="LFQ">4000</parameter><parameter name="NLI">0</parameter><parameter name="PHR">24</parameter><parameter name="PHZ">ML</parameter><parameter name="SPZ">NO</parameter><parameter name="ZFF">1</parameter></FT_-_Parameters_><Acquisition_Parameters_><parameter name="ADT">1</parameter><parameter name="AQM">DD</parameter><parameter name="CFE">0</parameter><parameter name="COR">0</parameter><parameter name="DEL">0</parameter><parameter name="DLY">0</parameter><parameter name="HFW">8000</parameter><parameter name="LFW">0</parameter><parameter name="NSS">32</parameter><parameter name="PLF">AB</parameter><parameter name="RES">6</parameter><parameter name="SOT">0</parameter><parameter name="TCL">MakeCompatibleScalar (0, {WSV=1.000000, ARV=0});</parameter><parameter name="TDL">37</parameter><parameter name="SPO">0</parameter><parameter name="SGN">-1</parameter></Acquisition_Parameters_><Instrument_Parameters_Rf><parameter name="HFL">15800.168544</parameter><parameter name="LFL">0</parameter><parameter name="LWN">15800.168544</parameter><parameter name="ABP">32197</parameter><parameter name="SSP">1</parameter><parameter name="ARG">2</parameter><parameter name="ASG">2</parameter><parameter name="ASS">32</parameter><parameter name="GFW">16</parameter><parameter name="GBW">16</parameter><parameter name="BFW">0</parameter><parameter name="BBW">0</parameter><parameter name="PKA">7310</parameter><parameter name="PKL">4990</parameter><parameter name="PRA">7479</parameter><parameter name="PRL">5001</parameter><parameter name="P2A">1</parameter><parameter name="P2L">1</parameter><parameter name="P2R">1</parameter><parameter name="P2K">1</parameter><parameter name="DAQ">0</parameter><parameter name="AG2">1</parameter><parameter name="SSM">1</parameter><parameter name="RSN">25869</parameter><parameter name="CRR">0</parameter><parameter name="SRT">1654082073.918</parameter><parameter name="DUR">19.6389923095703</parameter><parameter name="TSC">29</parameter><parameter name="MVD">0.227248713374138</parameter><parameter name="AN1">0.225799694819342</parameter><parameter name="AN2">0</parameter><parameter name="VSN">2.485 Apr  4 2017</parameter><parameter name="SRN">0085</parameter><parameter name="CAM">0</parameter><parameter name="INS">IR-Biotyper</parameter><parameter name="FOC">69</parameter><parameter name="RDY">1</parameter><parameter name="ARS">32</parameter></Instrument_Parameters_Rf><Sample_Parameters_><parameter name="BLD"></parameter><parameter name="CNM">Admin</parameter><parameter name="CPY"></parameter><parameter name="DPM"></parameter><parameter name="EXP">IRBT_v3_32Scans.XPM</parameter><parameter name="LCT"></parameter><parameter name="SFM">Microplate, HTS-XT</parameter><parameter name="SNM">220601-1028(v.3)_RTF49M (D_5)_A3_dc8662be-446c-42f8-a954-77b9b992c42f.0</parameter><parameter name="XPP">C:\Users\Public\Documents\Bruker\OPUS_8.2.28\XPM</parameter><parameter name="IST">OK</parameter><parameter name="CPG">1252</parameter><parameter name="UID">085b2437-5791-46fa-9236-7e711b1b5031</parameter></Sample_Parameters_><Instrument_Parameters_><parameter name="HFL">15800.168544</parameter><parameter name="LFL">0</parameter><parameter name="LWN">15800.168544</parameter><parameter name="ABP">32197</parameter><parameter name="SSP">1</parameter><parameter name="ASG">2</parameter><parameter name="ARG">2</parameter><parameter name="ASS">32</parameter><parameter name="GFW">16</parameter><parameter name="GBW">16</parameter><parameter name="BFW">0</parameter><parameter name="BBW">0</parameter><parameter name="PKA">6933</parameter><parameter name="PKL">4988</parameter><parameter name="PRA">7206</parameter><parameter name="PRL">4993</parameter><parameter name="P2A">1</parameter><parameter name="P2L">1</parameter><parameter name="P2R">1</parameter><parameter name="P2K">1</parameter><parameter name="DAQ">0</parameter><parameter name="AG2">1</parameter><parameter name="SSM">1</parameter><parameter name="RSN">13560</parameter><parameter name="CRR">0</parameter><parameter name="SRT">1654082099.772</parameter><parameter name="DUR">19.6389923095703</parameter><parameter name="TSC">29</parameter><parameter name="MVD">0.240583539009094</parameter><parameter name="AN1">0.225836762218358</parameter><parameter name="AN2">0</parameter><parameter name="VSN">2.485 Apr  4 2017</parameter><parameter name="SRN">0085</parameter><parameter name="CAM">0</parameter><parameter name="INS">IR-Biotyper</parameter><parameter name="FOC">69</parameter><parameter name="RDY">1</parameter></Instrument_Parameters_><History/></OPUSDataFile>
