<?xml version="1.0" encoding="UTF-8" ?>
<OPUSDataFile><AB><Ydata ylabel="Absorbance Units"><values byteorder="INTEL" format="FLOAT32" numvalues="3497"> -0.04507936 -0.0450576 -0.04503489 -0.04501132 -0.04498611 -0.04495921 -0.04492282 -0.04487744 -0.04482615 -0.04477157
 -0.04473132 -0.04470542 -0.04470552 -0.04472522 -0.04475583 -0.0447908 -0.04481376 -0.04482706 -0.04482554 -0.04481766
 -0.04480868 -0.04480341 -0.04480681 -0.04481699 -0.04483489 -0.04485569 -0.04487859 -0.044899 -0.04491574 -0.04492861
 -0.04493698 -0.04494875 -0.04496432 -0.04499451 -0.04503917 -0.04509992 -0.04517446 -0.04525035 -0.04532491 -0.04538142
 -0.04542053 -0.04543405 -0.04542752 -0.04540553 -0.0453749 -0.04534598 -0.04532008 -0.04530313 -0.04528924 -0.04527707
 -0.04526082 -0.04523702 -0.04520706 -0.04516984 -0.04513202 -0.04509445 -0.04506244 -0.04503676 -0.04501816 -0.04500671
 -0.04500075 -0.0450003 -0.04500511 -0.0450155 -0.04503375 -0.04505916 -0.04509081 -0.04512696 -0.04516226 -0.04519749
 -0.04523063 -0.04526551 -0.0453075 -0.04535386 -0.04540817 -0.04545403 -0.04548388 -0.04548479 -0.04544542 -0.04538142
 -0.04529077 -0.04520911 -0.0451421 -0.04511238 -0.04512352 -0.04517766 -0.04527514 -0.04541131 -0.04558484 -0.04578037
 -0.04599111 -0.04616878 -0.04630513 -0.04633573 -0.0462766 -0.04612556 -0.04592159 -0.04573259 -0.04557377 -0.04549775
 -0.04547999 -0.04552373 -0.04558633 -0.04564447 -0.04567297 -0.04565014 -0.04559662 -0.04550904 -0.04543314 -0.04537738
 -0.04536213 -0.04539278 -0.04544414 -0.0455151 -0.04556939 -0.04560763 -0.04563138 -0.04564561 -0.0456842 -0.04574658
 -0.04585287 -0.04598997 -0.04613864 -0.04628127 -0.04637572 -0.04642289 -0.04640115 -0.04633539 -0.04623825 -0.04613026
 -0.04602642 -0.04593682 -0.0458646 -0.04583161 -0.04584207 -0.04592176 -0.04607939 -0.04630434 -0.04660262 -0.04688144
 -0.04713636 -0.04720419 -0.04708688 -0.04677783 -0.0463076 -0.04588166 -0.04549951 -0.04527018 -0.04516808 -0.04518246
 -0.04529657 -0.04548321 -0.04571727 -0.04596847 -0.04619035 -0.04633322 -0.04637552 -0.04627321 -0.04609173 -0.04583769
 -0.04560218 -0.04541756 -0.04529819 -0.04525552 -0.04525519 -0.04529392 -0.0453583 -0.04544727 -0.04556549 -0.04571163
 -0.04586792 -0.04602902 -0.04615013 -0.04622984 -0.04623529 -0.0461768 -0.04606144 -0.04590402 -0.04573216 -0.045558
 -0.04540544 -0.04528471 -0.04521341 -0.04519131 -0.04522673 -0.04530293 -0.04541852 -0.04554654 -0.04568096 -0.04579751
 -0.04589112 -0.04594775 -0.04596505 -0.04593879 -0.04586839 -0.04576461 -0.04562879 -0.04548413 -0.04533147 -0.04518757
 -0.04505225 -0.04493228 -0.04483049 -0.04475752 -0.04471558 -0.04471663 -0.04475215 -0.04482093 -0.04490203 -0.04497873
 -0.04503301 -0.04504701 -0.0450229 -0.04495313 -0.0448618 -0.04475107 -0.04465428 -0.04457789 -0.04454104 -0.04454809
 -0.04458918 -0.04466424 -0.0447445 -0.04482841 -0.04488726 -0.04492174 -0.04492028 -0.0448889 -0.04484391 -0.04479255
 -0.04476364 -0.04475551 -0.04478077 -0.0448288 -0.04488978 -0.04496088 -0.04503062 -0.04511815 -0.04523038 -0.04538593
 -0.04560171 -0.04585374 -0.04614758 -0.04641472 -0.04664446 -0.04678551 -0.04682839 -0.04677815 -0.04663445 -0.04640698
 -0.0460976 -0.04573278 -0.04532318 -0.04495769 -0.04464201 -0.04445259 -0.04437336 -0.04440752 -0.04452363 -0.04466976
 -0.0448176 -0.04490269 -0.0449376 -0.04490394 -0.04484317 -0.04477829 -0.04472484 -0.04469945 -0.04468529 -0.04468369
 -0.04466447 -0.04462161 -0.04454 -0.04441463 -0.04426982 -0.04410622 -0.04397394 -0.04387487 -0.04384549 -0.0438816
 -0.0439766 -0.04411569 -0.04423732 -0.04432763 -0.04430637 -0.04419958 -0.04400877 -0.04378365 -0.04359762 -0.0434522
 -0.04338435 -0.04334926 -0.04333213 -0.04329211 -0.04320117 -0.04307047 -0.04289043 -0.04271489 -0.04255325 -0.04243665
 -0.0423739 -0.04233299 -0.04231347 -0.0422356 -0.04209729 -0.04185452 -0.04152106 -0.04117605 -0.04083354 -0.04060165
 -0.04046466 -0.04043751 -0.04049618 -0.04060501 -0.04074483 -0.0408823 -0.04099169 -0.04104049 -0.04101053 -0.04087204
 -0.04065463 -0.04035853 -0.04003144 -0.03969252 -0.03934062 -0.03897934 -0.03859481 -0.03818318 -0.03776653 -0.03734584
 -0.03694795 -0.03657339 -0.03622884 -0.0359141 -0.03563099 -0.03537963 -0.03516257 -0.03497775 -0.03482117 -0.03469043
 -0.03458103 -0.03448684 -0.03440652 -0.03431056 -0.03417929 -0.03396926 -0.03363337 -0.03320258 -0.03266239 -0.03211458
 -0.03159208 -0.03112701 -0.03073697 -0.03038621 -0.03007256 -0.02976676 -0.02946614 -0.02917345 -0.02888946 -0.02863398
 -0.02840551 -0.02820713 -0.02802644 -0.02781641 -0.02755895 -0.0271677 -0.02666496 -0.02603368 -0.02534912 -0.02471196
 -0.02414559 -0.02372257 -0.02338963 -0.02314001 -0.02290783 -0.02266177 -0.02236836 -0.02200525 -0.02159299 -0.02112882
 -0.02065542 -0.02017897 -0.01971265 -0.01925854 -0.01879524 -0.01832191 -0.01782075 -0.01729531 -0.01676517 -0.01623469
 -0.01573495 -0.01526273 -0.01482545 -0.01441729 -0.01403079 -0.01366182 -0.01330404 -0.01294895 -0.0125868 -0.01221199
 -0.0118148 -0.01140602 -0.01098904 -0.01056862 -0.01015279 -0.009711788 -0.00924117 -0.008716621 -0.008128892 -0.007527699
 -0.006914686 -0.006372096 -0.005901599 -0.005520102 -0.005220277 -0.004952955 -0.004710502 -0.004432135 -0.004119852 -0.003743612
 -0.003319446 -0.002861851 -0.00238935 -0.001935883 -0.001502114 -0.001106642 -0.0007253575 -0.0003500598 4.407215E-05 0.0004751114
 0.0009345035 0.00142697 0.001923317 0.002417527 0.002896904 0.00335798 0.003807519 0.004245559 0.004684518 0.005124816
 0.005572565 0.006027368 0.006487889 0.006955117 0.00743232 0.007921768 0.008434648 0.008965042 0.009511326 0.01005564
 0.01057203 0.01105206 0.01147181 0.011852 0.01219551 0.01253233 0.01287968 0.01324202 0.01362834 0.0140153
 0.01439973 0.01476335 0.0151011 0.01542724 0.01574163 0.01608109 0.01644686 0.01685828 0.01731152 0.01778403
 0.01826993 0.01872827 0.01916202 0.01955554 0.01992159 0.02027845 0.02063373 0.02101002 0.02139628 0.02179329
 0.02218032 0.02254071 0.02287354 0.02316705 0.02345498 0.0237427 0.02406795 0.02444291 0.02486547 0.02533989
 0.02582842 0.02632868 0.02681026 0.02727236 0.02771208 0.02813021 0.02853301 0.02891904 0.02928465 0.0296285
 0.02994286 0.030232 0.03049893 0.03075217 0.03100559 0.03126197 0.03153054 0.03180602 0.03208564 0.03237184
 0.03266153 0.03297204 0.03331033 0.03367742 0.03408012 0.03447999 0.03487362 0.03522448 0.0355279 0.03580452
 0.03605642 0.03634192 0.03666034 0.03703408 0.03745205 0.03787487 0.03829319 0.03865502 0.03896767 0.03921759
 0.03942379 0.03960828 0.03978131 0.03996424 0.04014941 0.04033789 0.04052216 0.04069519 0.04086841 0.04104249
 0.04123399 0.04144812 0.04168388 0.04194263 0.04221284 0.04249353 0.04278187 0.04307779 0.04338232 0.04369495
 0.04401043 0.04432921 0.04464992 0.04497518 0.04531384 0.04566386 0.04602842 0.04639678 0.04675616 0.04709586
 0.04739921 0.04766583 0.04788837 0.04807676 0.04823234 0.04836881 0.04849021 0.04860765 0.04872425 0.04884537
 0.04897225 0.04910604 0.04924689 0.04939586 0.04955307 0.0497222 0.04990378 0.05010472 0.05032459 0.05056679
 0.05082663 0.05109359 0.05135938 0.05160056 0.05181609 0.05198943 0.05213747 0.05226717 0.05240407 0.05257072
 0.05277159 0.05302178 0.0532892 0.05356998 0.05382352 0.05403711 0.05420779 0.05433011 0.05444108 0.05454343
 0.05466099 0.05479386 0.05491426 0.05501928 0.05506662 0.05506214 0.05500837 0.05492076 0.05484819 0.05480025
 0.05482434 0.05491162 0.05507484 0.05528755 0.05553112 0.0557759 0.05599292 0.056176 0.05630708 0.05642026
 0.0565193 0.05664832 0.0568228 0.05703669 0.05729723 0.05753624 0.05774942 0.05787161 0.05790084 0.05784368
 0.05770688 0.05755912 0.05740391 0.05729795 0.05723212 0.05720724 0.05721483 0.0572332 0.05726954 0.05732543
 0.05740745 0.05753022 0.05767383 0.05783362 0.05797715 0.0580831 0.05815065 0.05816836 0.05817396 0.05817272
 0.05819901 0.05826073 0.05835604 0.05848678 0.05862116 0.05875741 0.05885679 0.05891863 0.05891922 0.05886379
 0.05876253 0.05862758 0.05850164 0.05839415 0.05834985 0.05836075 0.05844057 0.05856087 0.05870039 0.0588293
 0.0589161 0.05895853 0.05894031 0.05889524 0.05882801 0.05877906 0.05875951 0.05878508 0.05886051 0.05898194
 0.05914924 0.05936306 0.05962339 0.05993071 0.06028174 0.06064647 0.06101534 0.0613232 0.06156417 0.06167891
 0.06168232 0.06156839 0.06137639 0.0611578 0.06095298 0.06082835 0.060787 0.06086355 0.06100813 0.06121375
 0.0614072 0.06156258 0.06163374 0.06160031 0.06147357 0.06124742 0.06098116 0.0606783 0.06040172 0.06015433
 0.05995981 0.05981596 0.05970746 0.05963257 0.05957306 0.05953258 0.05951408 0.05951997 0.05956181 0.05962748
 0.05971086 0.05978099 0.05980603 0.05975612 0.05959328 0.05932563 0.05893562 0.05848325 0.05797883 0.05749526
 0.05705307 0.05668291 0.05639569 0.0561716 0.05601097 0.05587706 0.05576795 0.05565076 0.05552473 0.0553679
 0.05518415 0.05497994 0.05476409 0.0545716 0.05440148 0.05427533 0.05417139 0.0540673 0.05394173 0.05375652
 0.05352316 0.05322975 0.05291889 0.05260637 0.05233185 0.05211525 0.05196475 0.05189134 0.05186148 0.05187635
 0.05186959 0.05183595 0.05171897 0.0515161 0.05123254 0.05087387 0.0505042 0.05012826 0.04980784 0.04953624
 0.04932592 0.04916362 0.04902595 0.04890408 0.04877383 0.048633 0.04846974 0.04828669 0.04808098 0.0478598
 0.04762477 0.04738618 0.04714723 0.04691767 0.04670066 0.04649977 0.04631706 0.04614465 0.04598256 0.04581505
 0.04564135 0.0454547 0.04525641 0.04505945 0.04486548 0.04469196 0.04453557 0.04439611 0.04426567 0.04412575
 0.04397264 0.04378989 0.04358429 0.043355 0.04311492 0.04287365 0.04263899 0.04241926 0.04221052 0.04201483
 0.04182011 0.04162411 0.04141693 0.04119604 0.04096184 0.04071357 0.0404614 0.04020585 0.0399592 0.03972164
 0.03949936 0.03929134 0.0390956 0.03891024 0.03872839 0.03854769 0.0383596 0.0381625 0.03794891 0.037722
 0.0374799 0.03723355 0.03698817 0.0367598 0.03655718 0.03639366 0.03627785 0.03620785 0.03618968 0.03619144
 0.03621321 0.03619704 0.03613784 0.0359898 0.03575046 0.03542997 0.03503342 0.03462531 0.03421197 0.03386502
 0.03358085 0.03339039 0.03327456 0.03320959 0.03316814 0.03309472 0.03297733 0.03277246 0.03250694 0.03217946
 0.03184129 0.03152162 0.03124352 0.0310295 0.03085096 0.03070643 0.0305624 0.03040902 0.0302616 0.03011839
 0.03003057 0.03000081 0.03005296 0.03018289 0.03034759 0.03053629 0.03066331 0.03072534 0.03065879 0.03048189
 0.03019946 0.0298443 0.02947262 0.02910237 0.02878126 0.02849601 0.02825309 0.02803229 0.02782005 0.02762045
 0.02743015 0.02726382 0.02712832 0.02701137 0.02691445 0.02680602 0.02668198 0.02653848 0.02637513 0.02622902
 0.02610182 0.02602671 0.0259993 0.0260119 0.0260565 0.02609978 0.02613932 0.02615144 0.02614104 0.02610529
 0.02605013 0.02598301 0.02590231 0.0258131 0.02569977 0.0255576 0.02536625 0.02511287 0.02480464 0.02443285
 0.02405274 0.02366847 0.02334863 0.0231026 0.02294302 0.02287121 0.02282029 0.02278521 0.02267857 0.02250418
 0.02223505 0.02189001 0.02152074 0.02114509 0.02083607 0.0205887 0.02043392 0.02034268 0.02029618 0.02026319
 0.02021037 0.02012829 0.01999757 0.01983844 0.01964993 0.01946841 0.01930326 0.01917654 0.01909732 0.01904489
 0.01902049 0.01897103 0.0188935 0.01875667 0.01856286 0.01833841 0.01808898 0.01786553 0.01766427 0.01750104
 0.01736303 0.01722451 0.01708295 0.01691714 0.01674416 0.01657403 0.01642594 0.0163208 0.01626204 0.01625809
 0.01630406 0.01639881 0.01654316 0.01673774 0.01698055 0.01727427 0.01759486 0.01794217 0.01827108 0.01857908
 0.0188195 0.01899088 0.01906286 0.01903769 0.01891118 0.01869148 0.01840346 0.01805955 0.01770163 0.01733891
 0.01700668 0.01670515 0.0164485 0.0162329 0.01605855 0.01592585 0.01583462 0.01578694 0.01578591 0.01582247
 0.01589794 0.01598802 0.016089 0.01618208 0.01626274 0.01634882 0.01644076 0.01659517 0.0168146 0.0171499
 0.01759566 0.01814662 0.01878821 0.01946307 0.02016153 0.02082773 0.02146788 0.02206542 0.02263481 0.02318736
 0.02373216 0.02428043 0.02483645 0.02540447 0.0259902 0.0265977 0.02722611 0.02787963 0.02853643 0.02919621
 0.02982169 0.03040906 0.03093135 0.03138651 0.03177549 0.03209953 0.03237965 0.03261622 0.03282324 0.03299681
 0.03312811 0.03321649 0.03324974 0.03324418 0.0332173 0.03319659 0.03322502 0.03331028 0.03348104 0.03370954
 0.03399045 0.03429105 0.03459252 0.03489665 0.03519565 0.03552178 0.03587868 0.03629559 0.03677709 0.03732783
 0.03794872 0.03861263 0.03931628 0.04000388 0.0406717 0.04126418 0.04178675 0.0422263 0.04259947 0.04294172
 0.04326518 0.0436146 0.04397362 0.0443541 0.0446964 0.04497017 0.04508074 0.04497126 0.04456162 0.04379574
 0.04268276 0.04119365 0.03946138 0.03749071 0.03548241 0.03345648 0.03157311 0.02984419 0.02832125 0.02700212
 0.02584987 0.02485876 0.02397283 0.02319098 0.02248088 0.02184147 0.02125672 0.02071906 0.02020929 0.01971849
 0.01922622 0.01873377 0.01823243 0.01773543 0.01724697 0.01678118 0.01634509 0.01594511 0.01558437 0.01526464
 0.01498573 0.01475477 0.01457147 0.01445366 0.01440236 0.01443663 0.01455591 0.01475429 0.0150246 0.01531693
 0.01562025 0.01586207 0.01604155 0.01611388 0.01609814 0.01600303 0.01585856 0.01570427 0.01556365 0.01547082
 0.01543462 0.01547123 0.01557549 0.01575078 0.01598301 0.01626865 0.01659929 0.01697107 0.01739397 0.01786985
 0.01839767 0.01897923 0.01953114 0.02004319 0.02032652 0.02036899 0.01998121 0.0191847 0.0179452 0.01633293
 0.01450362 0.01253595 0.01064886 0.008867825 0.007325727 0.005978659 0.004840316 0.003842989 0.002948018 0.002117528
 0.001323998 0.000564196 -0.0001680611 -0.0008685361 -0.001537035 -0.002172292 -0.002774562 -0.003338078 -0.003862542 -0.004340136
 -0.004770956 -0.005156944 -0.005499675 -0.005811352 -0.006093406 -0.00635865 -0.006606322 -0.0068411 -0.007061186 -0.007264221
 -0.007452226 -0.007624012 -0.007790028 -0.007957525 -0.008138868 -0.008346031 -0.008576787 -0.008837699 -0.009104551 -0.009374036
 -0.009616752 -0.009825465 -0.009990728 -0.01010863 -0.01019859 -0.01026128 -0.01032723 -0.0103973 -0.01048627 -0.01059209
 -0.01070585 -0.01082647 -0.01094273 -0.01105947 -0.01118353 -0.01132089 -0.01148852 -0.01168203 -0.01190641 -0.01214525
 -0.01238746 -0.01261547 -0.01281486 -0.01297785 -0.01309569 -0.01317485 -0.01321219 -0.01323097 -0.0132327 -0.01325043
 -0.0132884 -0.0133665 -0.01348696 -0.01363882 -0.01382064 -0.01400201 -0.01418188 -0.01433786 -0.01447189 -0.01457994
 -0.01466471 -0.01473098 -0.01478145 -0.01482209 -0.01485792 -0.01489746 -0.01494518 -0.01501028 -0.0150873 -0.01517882
 -0.01526738 -0.01534628 -0.01540307 -0.01542955 -0.01543643 -0.01542191 -0.01541349 -0.0154144 -0.01544216 -0.01549873
 -0.01557593 -0.01567286 -0.01576886 -0.01586385 -0.01594712 -0.01602116 -0.01609098 -0.01615869 -0.01623381 -0.01631439
 -0.01640283 -0.01649235 -0.01657541 -0.01664588 -0.01669343 -0.01672192 -0.01672702 -0.01672691 -0.01672658 -0.01674647
 -0.01679522 -0.01687626 -0.0169942 -0.01713115 -0.01728644 -0.01743622 -0.01757868 -0.01770097 -0.01780299 -0.01788658
 -0.01795295 -0.01801198 -0.01806467 -0.01812089 -0.01818007 -0.01824611 -0.01831706 -0.01839099 -0.01846643 -0.01854012
 -0.01861293 -0.01868431 -0.01875586 -0.01882871 -0.01890291 -0.01897905 -0.01905554 -0.0191321 -0.0192073 -0.01928097
 -0.01935117 -0.01941772 -0.01947826 -0.01953258 -0.01958034 -0.01962164 -0.01965908 -0.01969264 -0.01972358 -0.01975111
 -0.01977205 -0.01978626 -0.01979048 -0.01978811 -0.01978277 -0.01978116 -0.01979374 -0.01982502 -0.01988447 -0.01996869
 -0.02008056 -0.0202081 -0.02034831 -0.02048627 -0.02061696 -0.02073099 -0.02082459 -0.02090019 -0.02095672 -0.02100661
 -0.02105062 -0.02110044 -0.02115636 -0.02121949 -0.0212889 -0.02135707 -0.02142382 -0.02148374 -0.02153883 -0.02159184
 -0.02164508 -0.02170507 -0.021771 -0.02184547 -0.02192432 -0.02200495 -0.02208302 -0.02215435 -0.02221868 -0.02227393
 -0.02232476 -0.02237189 -0.02242021 -0.02247148 -0.02252428 -0.02257913 -0.02262924 -0.02267407 -0.02271078 -0.02273953
 -0.02276705 -0.02279407 -0.02283033 -0.02287515 -0.02293076 -0.02299557 -0.02306584 -0.02314116 -0.02321917 -0.02329933
 -0.02338103 -0.02346068 -0.02353497 -0.0236004 -0.02365232 -0.02369389 -0.023724 -0.02375151 -0.02377885 -0.02381239
 -0.02385451 -0.02390423 -0.02396216 -0.02402256 -0.0240851 -0.02414371 -0.02419819 -0.0242469 -0.0242905 -0.0243339
 -0.02437795 -0.02442979 -0.0244883 -0.02455479 -0.02462557 -0.02469404 -0.0247572 -0.02480722 -0.02484546 -0.02486894
 -0.02488444 -0.02489443 -0.02490778 -0.02492944 -0.02496359 -0.0250141 -0.02507479 -0.02514638 -0.02521469 -0.02527801
 -0.02532583 -0.0253568 -0.02537505 -0.02538109 -0.02539037 -0.02540337 -0.02543146 -0.02547282 -0.02552519 -0.02558573
 -0.02564424 -0.02570064 -0.02574925 -0.02579303 -0.02583389 -0.025874 -0.02591708 -0.02596118 -0.02600677 -0.02604955
 -0.02608752 -0.02611848 -0.0261408 -0.02615624 -0.02616454 -0.0261696 -0.02617177 -0.02617512 -0.02617991 -0.02619043
 -0.02620685 -0.02623169 -0.02626454 -0.02630298 -0.02634591 -0.02638661 -0.02642457 -0.02645429 -0.02647674 -0.02649112
 -0.02649897 -0.02650174 -0.02650159 -0.02650029 -0.02650187 -0.02650943 -0.02652606 -0.02655537 -0.02659298 -0.02663966
 -0.02668456 -0.0267253 -0.02675582 -0.02677415 -0.02678558 -0.02679017 -0.02679671 -0.02680554 -0.02681926 -0.02683765
 -0.02685932 -0.02688446 -0.02691358 -0.0269464 -0.02698332 -0.02702181 -0.02705678 -0.02708659 -0.02710508 -0.02711647
 -0.02712143 -0.02712781 -0.02714201 -0.02716613 -0.02720414 -0.02725033 -0.02730375 -0.02735931 -0.0274152 -0.02747213
 -0.02753006 -0.02758929 -0.02765004 -0.02770832 -0.02776394 -0.02781402 -0.02785897 -0.0279017 -0.02794262 -0.02798574
 -0.02803016 -0.0280754 -0.02812002 -0.02816027 -0.02819653 -0.02822713 -0.02825446 -0.02828054 -0.0283065 -0.02833468
 -0.02836219 -0.0283886 -0.02841009 -0.0284244 -0.02843374 -0.02843732 -0.02844281 -0.02845125 -0.0284672 -0.02849138
 -0.02852119 -0.0285565 -0.02859322 -0.02863135 -0.02866959 -0.02870798 -0.02874629 -0.02878422 -0.02882066 -0.0288554
 -0.02888759 -0.02891686 -0.02894253 -0.02896373 -0.02897906 -0.02898884 -0.02899205 -0.02899193 -0.02898937 -0.02898841
 -0.02899082 -0.0289978 -0.02901016 -0.02902667 -0.02904721 -0.02907125 -0.02909863 -0.02913106 -0.02916862 -0.02921285
 -0.02926345 -0.02931825 -0.02937614 -0.02943057 -0.0294802 -0.02951679 -0.02954086 -0.02954827 -0.02954331 -0.02952946
 -0.02951348 -0.02950398 -0.02950413 -0.02952069 -0.02954789 -0.02958599 -0.0296244 -0.02965919 -0.02968543 -0.02970004
 -0.02970898 -0.02971216 -0.02971946 -0.02973181 -0.02975382 -0.02978563 -0.02982388 -0.02986789 -0.02990957 -0.02994826
 -0.02997585 -0.02999289 -0.02999613 -0.02998803 -0.0299718 -0.02995075 -0.02993146 -0.02991548 -0.02990742 -0.02990595
 -0.02991217 -0.02992233 -0.02993528 -0.02994667 -0.02995469 -0.0299571 -0.02995262 -0.0299431 -0.02992819 -0.02991357
 -0.0298996 -0.02989215 -0.02989151 -0.02990098 -0.02992064 -0.02995241 -0.02999656 -0.03005546 -0.03012943 -0.03022072
 -0.03032941 -0.03045635 -0.03060247 -0.03076874 -0.03095832 -0.0311738 -0.03142091 -0.03170339 -0.03202912 -0.03240189
 -0.03283073 -0.03331994 -0.03387305 -0.03449448 -0.03516905 -0.03589889 -0.03664024 -0.03739095 -0.03809366 -0.03874534
 -0.0393039 -0.03976907 -0.04012592 -0.04037344 -0.04050284 -0.04050354 -0.04033649 -0.03999116 -0.03940535 -0.03862611
 -0.03767516 -0.03666202 -0.03571607 -0.03489831 -0.03430633 -0.03392015 -0.0337595 -0.03377625 -0.03396272 -0.03426235
 -0.03466892 -0.0350987 -0.03554322 -0.03590501 -0.03617273 -0.0363133 -0.03632509 -0.03625172 -0.03609666 -0.03591318
 -0.03570122 -0.03548858 -0.03527152 -0.03505139 -0.03482686 -0.03459283 -0.03435668 -0.03412781 -0.03391196 -0.03372237
 -0.03355071 -0.03339644 -0.03324686 -0.03309314 -0.03293593 -0.03277257 -0.03261022 -0.03245152 -0.03229309 -0.03213547
 -0.0319691 -0.03179273 -0.03160679 -0.03141132 -0.0312188 -0.03102978 -0.0308548 -0.03069311 -0.03054578 -0.03041241
 -0.03029185 -0.03018509 -0.03009438 -0.0300193 -0.02996135 -0.02991671 -0.02988212 -0.02985363 -0.02982685 -0.02980094
 -0.02977441 -0.02974717 -0.02971929 -0.02968888 -0.02965512 -0.02961899 -0.02957976 -0.02954507 -0.02951544 -0.02949822
 -0.0294938 -0.02949985 -0.02951562 -0.02953118 -0.02954598 -0.0295515 -0.02954868 -0.02953579 -0.02951495 -0.02948993
 -0.02946262 -0.02943826 -0.0294162 -0.02939838 -0.02938162 -0.02936373 -0.02934373 -0.02931925 -0.02929529 -0.02927288
 -0.02925717 -0.02925061 -0.02925036 -0.02925706 -0.02926179 -0.02926372 -0.02925734 -0.02924233 -0.02921986 -0.02919015
 -0.02915643 -0.02911874 -0.02907864 -0.02903652 -0.02899415 -0.02895276 -0.028916 -0.02888496 -0.02886347 -0.02885064
 -0.02884754 -0.02885117 -0.02886016 -0.02887035 -0.02887951 -0.0288838 -0.02888115 -0.02887036 -0.0288501 -0.02882388
 -0.02879164 -0.02875989 -0.02872926 -0.02870376 -0.02868364 -0.02866802 -0.02865675 -0.02864769 -0.02864068 -0.028634
 -0.02862718 -0.02861747 -0.02860488 -0.02858733 -0.02856683 -0.02854536 -0.02852552 -0.02851154 -0.02850332 -0.02850265
 -0.02850714 -0.0285161 -0.0285272 -0.02853972 -0.02855104 -0.02856057 -0.02856561 -0.02856538 -0.0285603 -0.02855011
 -0.02853863 -0.02852606 -0.02851419 -0.0285029 -0.02849097 -0.0284785 -0.02846558 -0.02845273 -0.02844233 -0.02843378
 -0.02842725 -0.02842116 -0.02841254 -0.02840165 -0.02838686 -0.02837131 -0.028357 -0.02834611 -0.02834153 -0.02833974
 -0.02834099 -0.02833815 -0.02832917 -0.02831103 -0.02828202 -0.0282483 -0.02820997 -0.02817716 -0.02815046 -0.02813559
 -0.02813241 -0.02814022 -0.02815828 -0.02818225 -0.02821094 -0.0282379 -0.02826192 -0.02827627 -0.02828188 -0.02827637
 -0.02826362 -0.02824709 -0.02823014 -0.02821727 -0.02820795 -0.02820355 -0.0282012 -0.02820012 -0.02819815 -0.02819439
 -0.02818881 -0.028181 -0.02817321 -0.02816547 -0.02816168 -0.0281621 -0.02816839 -0.02818023 -0.02819318 -0.02820656
 -0.02821346 -0.02821449 -0.02820768 -0.02819538 -0.02818225 -0.02817028 -0.02816537 -0.02816711 -0.02817811 -0.02819504
 -0.028217 -0.02823832 -0.02825606 -0.02826482 -0.02826126 -0.02824509 -0.02821435 -0.02817674 -0.02813238 -0.0280937
 -0.0280619 -0.02804637 -0.02804779 -0.02806652 -0.02810191 -0.02814452 -0.02819291 -0.02823291 -0.02826433 -0.02827791
 -0.02827625 -0.02826062 -0.02823479 -0.02820631 -0.0281762 -0.02814932 -0.02812341 -0.02809773 -0.02807193 -0.02804429
 -0.02801983 -0.02799972 -0.02798942 -0.02799143 -0.02800411 -0.02802835 -0.0280559 -0.02808611 -0.02811153 -0.02813167
 -0.02814407 -0.0281488 -0.02814685 -0.02813862 -0.02812671 -0.02811201 -0.02809917 -0.02808886 -0.02808557 -0.02808844
 -0.0280985 -0.02811347 -0.02813121 -0.02814939 -0.02816584 -0.02817779 -0.02818333 -0.02817992 -0.02816533 -0.02814172
 -0.02810787 -0.02807329 -0.02803911 -0.02801478 -0.02800194 -0.02799981 -0.02800851 -0.02801869 -0.02803005 -0.02803651
 -0.02803902 -0.02804095 -0.02804327 -0.02805233 -0.02806651 -0.02808569 -0.02810619 -0.0281211 -0.02812905 -0.02812426
 -0.02811101 -0.02808987 -0.0280682 -0.02805068 -0.02804097 -0.02804271 -0.02805235 -0.02807036 -0.02808951 -0.02810879
 -0.02812209 -0.02812843 -0.02812671 -0.02811671 -0.02810369 -0.02808807 -0.02807759 -0.02807197 -0.02807371 -0.02808092
 -0.02808753 -0.0280919 -0.02808576 -0.02807086 -0.02804549 -0.02801442 -0.02798278 -0.02795428 -0.02793456 -0.02792283
 -0.02792077 -0.02792471 -0.02793348 -0.02794491 -0.02795798 -0.02797292 -0.02798981 -0.02800786 -0.0280272 -0.0280445
 -0.02805955 -0.02806881 -0.02807224 -0.02806902 -0.02805941 -0.02804461 -0.02802492 -0.02800199 -0.02797619 -0.02794895
 -0.02792117 -0.0278947 -0.02787124 -0.0278534 -0.02784299 -0.02784316 -0.02785238 -0.02787217 -0.02789508 -0.02791934
 -0.0279358 -0.0279408 -0.02793314 -0.02791083 -0.02788318 -0.0278509 -0.02782263 -0.02779913 -0.02777838 -0.02776007
 -0.02773735 -0.02771072 -0.02768034 -0.0276477 -0.02761948 -0.02759546 -0.02757917 -0.02756818 -0.02755944 -0.02755178
 -0.0275418 -0.02753128 -0.02752098 -0.02751141 -0.02750449 -0.02749512 -0.02748208 -0.02745974 -0.02742467 -0.02738209
 -0.02733087 -0.02728675 -0.02725144 -0.02723549 -0.02723998 -0.02725915 -0.02729227 -0.02732478 -0.02735617 -0.02737593
 -0.02738475 -0.02737958 -0.02736187 -0.02733307 -0.02729622 -0.02725698 -0.0272188 -0.02718941 -0.02716735 -0.02715576
 -0.02714678 -0.02713655 -0.02711938 -0.0270903 -0.02705373 -0.02700905 -0.02696526 -0.02692427 -0.02688962 -0.02686229
 -0.02683983 -0.02682216 -0.02680531 -0.02678914 -0.02677136 -0.02675221 -0.02673222 -0.02671199 -0.02669437 -0.02667936
 -0.02666921 -0.02666182 -0.02665512 -0.0266453 -0.02662611 -0.02659668 -0.02655195 -0.02649921 -0.02644009 -0.02638551
 -0.02634158 -0.02631017 -0.02629499 -0.02628522 -0.02627999 -0.02626693 -0.02624395 -0.0262093 -0.02616247 -0.02611221
 -0.02605898 -0.02601217 -0.02597149 -0.02593955 -0.02591484 -0.02589233 -0.02587093 -0.02584426 -0.02581421 -0.02578064
 -0.02574747 -0.02572089 -0.02570011 -0.02568868 -0.02567819 -0.02566493 -0.02564085 -0.02559993 -0.02554509 -0.02547416
 -0.02540002 -0.02532438 -0.02525922 -0.0252067 -0.02516834 -0.02514463 -0.02512665 -0.02511401 -0.02509885 -0.02508199
 -0.02506652 -0.0250531 -0.02504807 -0.02504749 -0.02504491 -0.02503377 -0.02499601 -0.02493498 -0.02484337 -0.02473869
 -0.02463453 -0.02454304 -0.02447907 -0.02443615 -0.02441716 -0.02440595 -0.02439815 -0.0243836 -0.02435855 -0.02432526
 -0.02428298 -0.02424093 -0.0241996 -0.02416842 -0.02414759 -0.0241404 -0.02414527 -0.02415237 -0.02415814 -0.02414046
 -0.02409982 -0.02402272 -0.02391975 -0.02380428 -0.02368668 -0.02358837 -0.02350865 -0.02345501 -0.02342233 -0.02340982
 -0.02341219 -0.02342902 -0.02344835 -0.02346889 -0.02347064 -0.02344922 -0.02339324 -0.02329902 -0.02317934 -0.02303439
 -0.02288928 -0.02274503 -0.02261798 -0.02250742 -0.02241533 -0.02233992 -0.02227456 -0.02221791 -0.02216273 -0.02210863
 -0.02205216 -0.02199158 -0.02192366 -0.02184588 -0.02175307 -0.02164939 -0.02153389 -0.02141791 -0.02130741 -0.02120493
 -0.02111504 -0.02102433 -0.02093106 -0.02082347 -0.02069834 -0.02056483 -0.020423 -0.02029219 -0.02017279 -0.02006711
 -0.0199728 -0.01987073 -0.01975951 -0.01962037 -0.01945877 -0.01927992 -0.0190912 -0.01891178 -0.01873984 -0.01858259
 -0.01843142 -0.01827998 -0.01812412 -0.01795715 -0.0177851 -0.01760831 -0.01743508 -0.01726961 -0.01710929 -0.01695708
 -0.01679171 -0.0166126 -0.01638531 -0.01610669 -0.01576653 -0.01536571 -0.01494124 -0.01449454 -0.01405628 -0.0136199
 -0.01317157 -0.01270412 -0.01218664 -0.01162285 -0.01100122 -0.01033879 -0.009651951 -0.008960505 -0.008290199 -0.007649238
 -0.007054848 -0.006493196 -0.005966507 -0.005444394 -0.00491563 -0.004371308 -0.003801867 -0.003244897 -0.002703855 -0.002209833
 -0.001766718 -0.001360047 -0.0009889934 -0.0006324401 -0.0002916115 2.973397E-05 0.0003316493 0.0006092693 0.0008704929 0.00113671
 0.001413417 0.001728116 0.002065529 0.002418243 0.002765518 0.003078994 0.003364159 0.003613026 0.003845199 0.004068972
 0.004292909 0.004522568 0.004754714 0.004986423 0.005233376 0.005492204 0.005826294 0.006240237 0.006786603 0.007464778
 0.008200789 0.008987058 0.009717263 0.01040271 0.01104169 0.01164961 0.01227415 0.01291703 0.0136043 0.01433254
 0.01510126 0.01592586 0.01681037 0.01780136 0.01893048 0.02023176 0.02175059 0.02341266 0.02522275 0.02702634
 0.02878838 0.03043027 0.03193152 0.033307 0.03455455 0.03572711 0.0368287 0.03795489 0.0391159 0.04045739
 0.04196672 0.04368525 0.04554245 0.04732984 0.04903027 0.05048363 0.05176785 0.05292962 0.05402891 0.05515077
 0.05630028 0.05750901 0.05875863 0.06004786 0.06136218 0.06270263 0.06403045 0.06533947 0.06658978 0.06777016
 0.06890677 0.07000021 0.07109034 0.0721773 0.07321607 0.07420105 0.07505386 0.07578427 0.07639412 0.07690766
 0.0774044 0.0778907 0.07843164 0.07898728 0.07952252 0.08001811 0.08042803 0.08078963 0.08111961 0.08143161
 0.08174589 0.08202789 0.08227101 0.08244647 0.08254347 0.08256746 0.08251555 0.08241539 0.08226813 0.08211264
 0.08195061 0.08180275 0.08166714 0.08153196 0.08139616 0.08124713 0.0810886 0.08092427 0.08076105 0.08061498
 0.08049138 0.08040621 0.08035782 0.08034868 0.08038133 0.08045322 0.08058403 0.08078276 0.08106221 0.08143568
 0.08187375 0.08237467 0.08289962 0.08344003 0.08399896 0.08457487 0.08519574 0.08586282 0.08659396 0.08738858
 0.08824788 0.08917012 0.09014847 0.09117977 0.0922507 0.0933591 0.09449214 0.09565407 0.09684456 0.09807104
 0.09934197 0.1006592 0.1020278 0.1034434 0.1049051 0.10641 0.1079559 0.1095456 0.11118 0.1128563
 0.1145776 0.1163117 0.1180576 0.1197604 0.1214176 0.122996 0.1244958 0.1259119 0.1272378 0.1284384
 0.1295026 0.1303669 0.1310462 0.1315359 0.1318678 0.1320898 0.1322157 0.1322788 0.1322777 0.1322221
 0.1321061 0.1319371 0.1316782 0.1313304 0.1308088 0.1300865 0.1291505 0.1279752 0.1267539 0.1255032
 0.1243203 0.1232083 0.1220654 0.1208888 0.1196094 0.1182371 0.1167895 0.1152734 0.1137308 0.1121372
 0.110479 0.1086852 0.1066324 0.1043004 0.1015578 0.09861369 0.09557661 0.09261154 0.08987723 0.08725896
 0.08474813 0.08225203 0.07972784 0.07724538 0.07480495 0.07250589 0.07036114 0.06835821 0.06649609 0.06469278
 0.06294754 0.06122158 0.05952562 0.05789734 0.05634516 0.05492276 0.05361694 0.05242958 0.05133396 0.05029
 0.04927972 0.0482697 0.04725004 0.04620763 0.04512416 0.04398444 0.042788 0.04150949 0.04025781 0.03904661
 0.0380009 0.0371571 0.03644786 0.03587393 0.03531327 0.03476014 0.03417508 0.03356262 0.03296179 0.03237738
 0.03185815 0.03139765 0.03099778 0.03065525 0.03035875 0.03012043 0.02995425 0.02987001 0.02988868 0.02999862
 0.03019937 0.03047478 0.03081493 0.03121592 0.03167232 0.03219217 0.03277044 0.03344738 0.03422009 0.03519
 0.03636646 0.03782432 0.03956616 0.04143276 0.04340543 0.0452037 0.04683773 0.04821847 0.04937476 0.0503616
 0.0511866 0.05189014 0.05247792 0.05296177 0.05338562 0.05378878 0.05424267 0.05482901 0.05553477 0.05640581
 0.057293 0.05814607 0.05889535 0.05949902 0.06002564 0.06047772 0.06093131 0.06139529 0.06189206 0.06242295
 0.06296353 0.06351253 0.06404532 0.06456623 0.06508482 0.06561051 0.06618238 0.06680229 0.06750102 0.06825737
 0.06905264 0.06986523 0.07065635 0.07143871 0.07220636 0.07298449 0.07378919 0.07461984 0.07548415 0.07635725
 0.0772343 0.07809875 0.07894602 0.07977957 0.08060015 0.08140069 0.08218066 0.08288837 0.08351995 0.08401075
 0.08436262 0.08455282 0.08458657 0.08447085 0.08420672 0.08379929 0.08324948 0.08255781 0.08173397 0.08078584
 0.07973018 0.07858254 0.07735243 0.07605203 0.07467259 0.0732142 0.07166509 0.07001617 0.06829561 0.06649972
 0.06470763 0.06292639 0.06121358 0.05957259 0.05799264 0.05647234 0.05498717 0.05354301 0.05216117 0.05085078
 0.04966063 0.0485832 0.04763141 0.04677887 0.04599069 0.04524147 0.04448714 0.04372079 0.04291814 0.04209694
 0.04125646 0.04042714 0.0396204 0.03885382 0.03813647 0.0374612 0.03682955 0.03622243 0.03563787 0.03506577
 0.03450545 0.03396739 0.03345306 0.03298511 0.03256343 0.03219948 0.03189025 0.03163068 0.03141932 0.03125011
 0.03112333 0.03103804 0.03099124 0.03098102 0.03099926 0.03104083 0.03109405 0.03115247 0.03120455 0.03124438
 0.03126678 0.0312683 0.03125327 0.03122138 0.03118068 0.03113193 0.03108022 0.03102588 0.03097228 0.03091987
 0.03087477 0.03083826 0.03082065 0.03082389 0.03086086 0.0309318 0.0310453 0.03119678 0.03138378 0.03159856
 0.03183158 0.03207676 0.03232728 0.03257666 0.0328216 0.033051 0.03326068 0.03344082 0.03358712 0.03370048
 0.03377954 0.03383305 0.0338615 0.03387431 0.03387204 0.03386481 0.03385317 0.03384688 0.03384557 0.03385241
 0.03386557 0.03388055 0.03389487 0.03390117 0.03389565 0.03387012 0.0338183 0.03373026 0.03360048 0.03342018
 0.0331907 0.03290771 0.0325839 0.0322197 0.03183953 0.0314474 0.03107231 0.03071948 0.03040841 0.03014235
 0.02992227 0.02974847 0.0296078 0.02949926 0.02940602 0.0293274 0.02925047 0.02917578 0.02909812 0.02901932
 0.02894109 0.02886544 0.02879603 0.02873541 0.02868666 0.02865531 0.02864605 0.02866497 0.02871814 0.02880331
 0.02892366 0.02906439 0.02922382 0.02938272 0.02953754 0.02967674 0.0297984 0.02990071 0.02998341 0.03005123
 0.03010487 0.03015523 0.03020358 0.03026434 0.03033672 0.03042714 0.03053014 0.03063615 0.03073885 0.03082192
 0.03088517 0.03092071 0.03093407 0.0309273 0.03090471 0.03086969 0.03082315 0.03076604 0.0306991 0.03062278
 0.03053698 0.0304423 0.03033429 0.03021274 0.03007167 0.02991068 0.02972865 0.02952596 0.02930788 0.02907527
 0.0288363 0.02859158 0.02834814 0.02810559 0.02786683 0.02763056 0.02739563 0.02716167 0.02692711 0.02669394
 0.02646269 0.02623697 0.02601898 0.02581107 0.02561514 0.02543022 0.02525669 0.02509184 0.02493507 0.02478579
 0.0246436 0.02451194 0.02439097 0.0242859 0.02419698 0.02412858 0.02408039 0.02405298 0.02404489 0.02405061
 0.02406929 0.02409422 0.02412981 0.02417897 0.02425028 0.0243567 0.02449976 0.02468859 0.02491065 0.02516239
 0.02542957 0.02570383 0.02598525 0.02627061 0.02657135 0.02688926 0.02723104 0.02759838 0.02798581 0.0283932
 0.02880884 0.02923215 0.0296527 0.03007021 0.03047782 0.03087533 0.03125798 0.03162641 0.03197895 0.03231866
 0.03264971 0.0329757 0.03330379 0.0336328 0.03396602 0.03429531 0.03461813 0.0349238 0.03520777 0.03546226
 0.03568365 0.03587128 0.03602323 0.03614919 0.03624928 0.03633963 0.03642125 0.03650616 0.03659469 0.03669193
 0.03679826 0.0369187 0.03705441 0.0372131 0.03739492 0.03760487 0.03784068 0.03810151 0.03838266 0.03867881
 0.03898411 0.03929156 0.0395984 0.03989983 0.04019968 0.0404978 0.04080012 0.04110833 0.04142572 0.04175302
 0.0420929 0.04244584 0.04281274 0.04319385 0.0435822 0.04397722 0.04436765 0.04475386 0.04513294 0.04550643
 0.04587956 0.04625234 0.0466274 0.04700417 0.04738215 0.04776264 0.04814735 0.04853649 0.04893219 0.04932981
 0.04972878 0.05011978 0.05049981 0.05085857 0.05119193 0.05149719 0.05177115 0.05202799 0.05226767 0.05251612
 0.052775 0.05306377 0.05338264 0.05373434 0.05411706 0.05452004 0.05494009 0.05535904 0.0557736 0.05616574
 0.05653397 0.05686764 0.05716599 0.05742439 0.05764115 0.05781289 0.05794011 0.05802109 0.05806068 0.05806001
 0.05802457 0.05795506 0.05786017 0.05773987 0.05761197 0.05747794 0.05735678 0.05725003 0.05716327 0.0570964
 0.0570448 0.0570087 0.05698761 0.05698236 0.05699702 0.05703028 0.0570818 0.05714716 0.05721906 0.05729138
 0.05735363 0.05740114 0.05742531 0.05742697 0.05740391 0.05735917 0.05729473 0.05720761 0.05709771 0.05696048
 0.05679376 0.05660364 0.05638996 0.05616477 0.05592896 0.05568714 0.05543948 0.05518774 0.0549331 0.05468574
 0.05444645 0.05422562 0.05402006 0.05382748 0.05364199 0.05345194 0.05325231 0.05303208 0.0527881 0.05251329
 0.05220813 0.05187028 0.05150347 0.05110886 0.05068877 0.05024431 0.04977539 0.04928172 0.04876608 0.0482283
 0.04767531 0.04710744 0.04653379 0.04595503 0.04538428 0.04482227 0.04428153 0.04376064 0.04326084 0.04277888
 0.04230578 0.04184079 0.04137801 0.04091872 0.04046342 0.04000977 0.03955664 0.03909955 0.03863451 0.03816188
 0.03767967 0.03719406 0.03670597 0.0362224 0.03574485 0.03527756 0.03482152 0.03437605 0.03394125 0.0335131
 0.03309158 0.03267699 0.03227031 0.03187951 0.03150579 0.03115838 0.03083811 0.03055177 0.03030008 0.03008874
 0.02991469 0.02977893 0.02967052 0.02958125 0.02949834 0.02941057 0.02931354 0.02920206 0.02907803 0.02894191
 0.02879115 0.02862575 0.02844045 0.0282337 0.02801086 0.02777163 0.02753737 0.02730926 0.027111 0.02694205
 0.02680963 0.02671042 0.02663334 0.02657618 0.02652624 0.02648501 0.02644983 0.02642164 0.02640185 0.02638742
 0.02637597 0.02636548 0.02635262 0.02634135 0.02633237 0.02633003 0.02633709 0.02634942 0.02636774 0.02638094
 0.02638759 0.02638101 0.0263602 0.02633257 0.02629885 0.02627668 0.02626648 0.02628049 0.02631635 0.02637048
 0.0264393 0.02651052 0.02658247 0.02664599 0.02670116 0.02674466 0.0267762 0.02679402 0.02679916 0.02679033
 0.02677366 0.02675007 0.02673003 0.02671634 0.02671858 0.02673922 0.02678314 0.02685135 0.02694525 0.02706511
 0.02720944 0.02737787 0.02756028 0.02775492 0.02794181 0.02812069 0.02827773 0.02841812 0.02854922 0.02867716
 0.02881936 0.02897448 0.02914869 0.02933705 0.029535 0.02974511 0.029967 0.03020587 0.03046683 0.03074129
 0.0310302 0.03131355 0.03158692 0.03184008 0.03207007 0.03228334 0.03248009 0.03266735 0.03284509 0.03300777
 0.03315414 0.03327078 0.03335696 0.03340165 0.03340611 0.03336671 0.03328878 0.03317848 0.03304733 0.03291206
 0.0327861 0.0326894 0.03262612 0.0326078 0.03262381 0.03267341 0.03274208 0.03282402 0.03291569 0.03301433
 0.03312644 0.03325279 0.0333961 0.03355708 0.03372579 0.03390164 0.03407022 0.03423199 0.03438422 0.03452974
 0.0346809 0.03483903 0.03501594 0.03520811 0.03541471 0.03563035 0.03584729 0.03606115 0.03626606 0.03645596
 0.03662516 0.03676984 0.03688354 0.03697837 0.03705322 0.03713573 0.03723156 0.03735908 0.03752344 0.03771532
 0.03793506 0.0381581 0.03838335 0.0385941 0.03879084 0.03897143 0.03913702 0.0392919 0.03943666 0.03957494
 0.03970775 0.03983799 0.03996846 0.04010382 0.04024755 0.0404055 0.04057727 0.0407658 0.04096494 0.04117335
 0.04138321 0.04159126 0.04179513 0.0419926 0.04219048 0.04238904 0.04259752 0.04281703 0.04304636 0.04328522
 0.04352114 0.0437541 0.04397807 0.04419576 0.04441747 0.04464569 0.04489452 0.04516232 0.04545376 0.04576278
 0.04608507 0.04640884 0.04672302 0.04701246 0.04726217 0.04746793 0.04762008 0.04773464 0.04781261 0.0478773
 0.0479342 0.04799623 0.04806669 0.04814447 0.04823013 0.04831393 0.04839542 0.04846608 0.04852685 0.04858334
 0.04863783 0.04870581 0.04878631 0.04888472 0.04899836 0.04912254 0.04925966 0.0494118 0.04957974 0.04976922
 0.04996687 0.05016673 0.05035325 0.05051483 0.05065348 0.05076603 0.05086338 0.05094778 0.05102398 0.05109192
 0.05116253 0.05123582 0.05133798 0.05147026 0.05165199 0.05188186 0.05215429 0.05246659 0.05280176 0.05315964
 0.05353133 0.05391711 0.05431597 0.05472113 0.05512539 0.05551396 0.05586756 0.05618128 0.05643936 0.05666394
 0.05685939 0.05705296 0.05725926 0.05747209 0.05769538 0.05790267 0.05808854 0.05825463 0.05839945 0.05855018
 0.05870793 0.05888334 0.05907508 0.05927254 0.05947537 0.05967615 0.05987635 0.06007737 0.06027951 0.06048536
 0.06069141 0.06089639 0.06108896 0.06125838 0.0613919 0.06147335 0.06150916 0.06149378 0.06145306 0.0613952
 0.06133486 0.06127887 0.06122069 0.06115945 0.06109584 0.06102903 0.06097589 0.06093721 0.06092344 0.06093382
 0.06096344 0.06101138 0.06106928 0.06113937 0.06122201 0.06132551 0.06146856 0.06165622 0.06191128 0.06221477
 0.06255954 0.06291568 0.06325374 0.06357481 0.06386612 0.06415772 0.06446388 0.06477403 0.06509475 0.0653731
 0.06559779 0.06577238 0.06589466 0.06599978 0.06608932 0.06617697 0.06626283 0.06635216 0.06644566 0.066553
 0.06666911 0.06678529 0.06689009 0.06695212 0.06696872 0.06691802 0.06681328 0.06665743 0.06647149 0.06627048
 0.06607252 0.06589362 0.0657309 0.0655913 0.06544741 0.06529227 0.06511663 0.06491317 0.06472276 0.0645477
 0.06443229 0.06437845 0.0643739 0.06441454 0.06444925 0.06447601 0.06445637 0.06439424 0.06427982 0.06412336
 0.0639412 0.06374525 0.06356648 0.06339595 0.06324086 0.06307496 0.06287149 0.06264577 0.06238725 0.0621569
 0.06197719 0.06187312 0.06186119 0.06191047 0.06201896 0.06215885 0.06232755 0.06250768 0.06269802 0.06285751
 0.06298457 0.06304327 0.06304124 0.0629989 0.06293125 0.0629011 0.06291445 0.06302174 0.06320618 0.06346978
 0.06377825 0.06409313 0.0643968 0.06465601 0.06489213 0.06510866 0.06532104 0.06554512 0.06574384 0.06591286
 0.06601273 0.06603064 0.06599519 0.06590548 0.06582551 0.06575853 0.06572813 0.06573226 0.0657521 0.06578548
 0.06581096 0.06582879 0.06582773 0.06581123 0.06578002 0.06574126 0.06570773 0.06568112 0.06566978 0.06566822
 0.06567279 0.06568615 0.0657075 0.06574428 0.06580192 0.06587168 0.06595414 0.06603205 0.06610279 0.0661558
 0.06619041 0.06619179 0.0661591 0.06607285 0.06593391 0.06574575 0.06551349 0.06526729 0.06501266 0.06478367
 0.06458444 0.06444314 0.06435604 0.0643363 0.0643597 0.06440815 0.06445096 0.06445286 0.06441641 0.06432599
 0.06421985 0.06410917 0.06401878 0.06396273 0.06391896 0.06388948 0.06382602 0.06372363 0.06355596 0.06332139
 0.06304931 0.06274317 0.06245762 0.06219076 0.06195964 0.06175794 0.06156818 0.06139543 0.06124296 0.06111737
 0.06104035 0.06098852 0.0609488 0.06088641 0.06076141 0.06058255 0.06033494 0.06006638 0.05979106 0.05954253
 0.05933345 0.05917081 0.05905787 0.05899377 0.05898003 0.05899348 0.05903286</values></Ydata></AB><ScSm><Ydata ylabel="Single channel"><values byteorder="INTEL" format="FLOAT32" numvalues="1814"> 0.06765845 0.06765445 0.06771205 0.06786051 0.06807059 0.06827455 0.06841753 0.0684914 0.06851242 0.06848158
 0.06840208 0.06833082 0.0683611 0.06853063 0.06876911 0.06894935 0.06898922 0.06892392 0.06888595 0.06897524
 0.06912069 0.06910259 0.06875861 0.06816941 0.06760478 0.06727608 0.06720559 0.06738062 0.06788541 0.06866048
 0.06922853 0.06903358 0.06814044 0.06727007 0.06700109 0.0672124 0.06741966 0.06733893 0.06697497 0.06650017
 0.0663 0.06688149 0.06837942 0.07012933 0.07089677 0.06966086 0.06634855 0.06206165 0.05866067 0.0577701
 0.05964587 0.06284277 0.06529244 0.06594964 0.0653038 0.06434974 0.06350686 0.06273458 0.06222833 0.06246477
 0.0635521 0.06478313 0.06499945 0.06358331 0.0611866 0.05926409 0.05874224 0.05943713 0.06083385 0.06265613
 0.06408033 0.06327178 0.05917661 0.05382134 0.05143129 0.0544224 0.06082599 0.06621024 0.06762852 0.06529424
 0.06131525 0.05793136 0.05666099 0.05789728 0.06083479 0.06413384 0.06673495 0.06792611 0.06716407 0.06453465
 0.06122021 0.05893844 0.05888852 0.06127211 0.06524988 0.06902289 0.0706449 0.06944992 0.06649622 0.06344713
 0.06147259 0.06123841 0.06306673 0.06661472 0.07084788 0.07463357 0.07720254 0.07823814 0.07795156 0.07694616
 0.07575369 0.07473603 0.07440482 0.07511675 0.07623512 0.07635833 0.07484028 0.07264937 0.07137153 0.07156786
 0.07232419 0.07236762 0.07136034 0.06971474 0.06733964 0.06357873 0.05871272 0.05440288 0.05203382 0.05163785
 0.05286761 0.05555399 0.05855536 0.05967033 0.058043 0.05572604 0.05565722 0.05852063 0.06237733 0.0650274
 0.06605157 0.06666602 0.06815419 0.07055483 0.072501 0.07225052 0.0694035 0.0658804 0.06457698 0.06653035
 0.06991807 0.07230193 0.07320492 0.07387618 0.07509276 0.07595249 0.0748125 0.07124071 0.06708023 0.06532211
 0.06750441 0.07217213 0.07592952 0.07595924 0.07192114 0.0660315 0.06133009 0.05957568 0.06076675 0.06429444
 0.06962547 0.07569424 0.08061207 0.0827226 0.0818146 0.0790372 0.07558607 0.07159611 0.06675286 0.06211406
 0.06035857 0.06326643 0.06945489 0.07552186 0.07908239 0.07997806 0.07898207 0.07634044 0.07195842 0.06678116
 0.0632746 0.06353111 0.06675963 0.06970959 0.07007125 0.06859108 0.06743024 0.06746146 0.06792193 0.06805475
 0.06819326 0.06918348 0.0711685 0.07324732 0.07434237 0.07418658 0.07338089 0.07269248 0.07235638 0.07190794
 0.0708333 0.06957718 0.0695055 0.07141718 0.07445332 0.07697772 0.07822128 0.07857579 0.07851093 0.07773551
 0.0756219 0.07239984 0.06964043 0.06909613 0.0710116 0.07397053 0.07636607 0.07755429 0.07771036 0.07725464
 0.0765641 0.07584257 0.07518303 0.07484251 0.07518323 0.07616222 0.07720198 0.07777327 0.07783875 0.07759713
 0.07709651 0.07629853 0.07535372 0.07462475 0.0744268 0.07478802 0.07547451 0.07620081 0.07674602 0.07693245
 0.07668177 0.07613202 0.07555021 0.0750912 0.07475869 0.07458545 0.07467471 0.07502295 0.07544291 0.07572821
 0.07581626 0.07575648 0.07559733 0.07535569 0.07505693 0.07476686 0.07458569 0.07458936 0.07474583 0.07492507
 0.0750389 0.0751255 0.0752372 0.07530703 0.07521904 0.07497756 0.07472128 0.07457922 0.07456889 0.07462242
 0.07465249 0.07457461 0.07431392 0.07386754 0.07338248 0.07310206 0.07317464 0.0735433 0.07403725 0.07450279
 0.07483173 0.07497004 0.07495753 0.07489274 0.07481804 0.07468662 0.07446094 0.07420611 0.0740687 0.07416292
 0.07446515 0.07482634 0.0750992 0.07523473 0.07526331 0.07524668 0.07525879 0.07533701 0.07542463 0.07542261
 0.07531732 0.0752081 0.07519545 0.07527496 0.0753507 0.07534124 0.07526854 0.07523328 0.0753001 0.07543433
 0.0755628 0.07566173 0.07576064 0.07587899 0.07597844 0.07598531 0.07587235 0.07570936 0.07559958 0.07557213
 0.07558107 0.07560255 0.07567175 0.07581002 0.07596591 0.07606141 0.07607667 0.0760639 0.07607622 0.07610035
 0.07607529 0.07597151 0.07583036 0.07572235 0.07568496 0.07570496 0.0757428 0.07576228 0.07574526 0.07569207
 0.0756139 0.0755228 0.07542482 0.07532798 0.07526106 0.0752678 0.07535851 0.07547036 0.07550292 0.07540723
 0.0752321 0.07507466 0.074988 0.0749418 0.07487051 0.0747478 0.07460427 0.07448205 0.07439327 0.07432406
 0.07425855 0.07419084 0.07413313 0.07412297 0.0742002 0.07435289 0.07449853 0.07454823 0.07449009 0.0743919
 0.07432853 0.07432586 0.07436553 0.07441838 0.07447405 0.07454924 0.0746581 0.07477289 0.07484095 0.07484998
 0.07484856 0.07489477 0.0750115 0.07518919 0.0753923 0.07555966 0.07564242 0.07565811 0.07567864 0.07575341
 0.07586869 0.07598783 0.07610339 0.07623237 0.07638113 0.07654117 0.07671542 0.07692714 0.07719372 0.07749783
 0.07778883 0.07801594 0.07817055 0.07830481 0.07849926 0.07879868 0.07917424 0.07954888 0.07986072 0.08010703
 0.08033128 0.08057075 0.08082591 0.08108709 0.08137197 0.0817088 0.08208929 0.08246876 0.08281621 0.08314182
 0.08347197 0.08381671 0.08416872 0.08452353 0.08489189 0.08528763 0.08570056 0.08608952 0.08641595 0.08668344
 0.08693784 0.08723214 0.08759099 0.08798984 0.08835912 0.08863479 0.08882731 0.08902237 0.08928901 0.08960393
 0.08989622 0.09015058 0.09042446 0.09076251 0.09113451 0.09147654 0.09176757 0.09204266 0.09234014 0.0926526
 0.09293106 0.09313389 0.09327126 0.09339696 0.09355702 0.09376143 0.09401213 0.09432861 0.09471669 0.09512928
 0.09549296 0.09577013 0.09597392 0.09613506 0.09628026 0.09643124 0.09659705 0.09677012 0.09694126 0.09710417
 0.09724186 0.09733972 0.09742522 0.09756009 0.09777369 0.09803545 0.09831107 0.09860919 0.09894481 0.0992906
 0.09960908 0.09991743 0.10027 0.1006694 0.1010364 0.101292 0.1014376 0.1015308 0.1016136 0.101705
 0.1018393 0.1020567 0.1023519 0.1026679 0.1029495 0.1031834 0.1033847 0.1035677 0.1037326 0.1038709
 0.1039793 0.1040728 0.1041828 0.1043453 0.1045878 0.1049146 0.1052891 0.1056434 0.105917 0.1060848
 0.1061429 0.1060941 0.1059677 0.1058292 0.1057309 0.1056493 0.1054963 0.1051927 0.1047177 0.1040913
 0.1033369 0.1024746 0.1015458 0.1006283 0.09981652 0.09918319 0.09876315 0.09857723 0.09865298 0.0989996
 0.09956326 0.1002255 0.1008489 0.1013131 0.1015191 0.1013987 0.1009477 0.1002386 0.09938364 0.09848334
 0.09760477 0.096779 0.09600243 0.09526461 0.09460571 0.09414386 0.09403031 0.09437973 0.09524152 0.09660244
 0.09837388 0.1003769 0.1023811 0.104197 0.1057456 0.1070486 0.1081698 0.1091766 0.1101263 0.1110466
 0.1119208 0.1127139 0.1134183 0.1140588 0.114654 0.1151953 0.1156582 0.1160178 0.1162613 0.1164019
 0.1164756 0.1165123 0.1165201 0.1165047 0.1164813 0.1164503 0.1163735 0.1161878 0.1158431 0.1153303
 0.1146954 0.1140514 0.1135881 0.1135554 0.1141844 0.11556 0.1175399 0.1198092 0.1220323 0.1239758
 0.1255386 0.1267286 0.1276284 0.1283492 0.1289831 0.1295798 0.1301529 0.1306976 0.1312065 0.1316802
 0.132129 0.1325685 0.1330145 0.1334731 0.1339309 0.1343616 0.1347524 0.1351227 0.1355108 0.1359389
 0.1363908 0.1368285 0.1372328 0.1376235 0.1380271 0.1384331 0.1388048 0.1391283 0.1394313 0.139751
 0.1401045 0.1404876 0.1408808 0.1412538 0.1415834 0.1418728 0.1421464 0.1424246 0.1427101 0.142998
 0.1432886 0.1435877 0.1438978 0.1442166 0.1445427 0.1448724 0.1451887 0.1454663 0.1456964 0.1459015
 0.1461178 0.1463636 0.1466287 0.1468911 0.1471432 0.1474034 0.1476985 0.1480316 0.1483708 0.1486756
 0.1489311 0.1491547 0.1493746 0.1496066 0.1498505 0.1501014 0.1503569 0.150615 0.1508718 0.1511267
 0.1513871 0.1516604 0.1519432 0.1522225 0.1524889 0.1527436 0.1529929 0.1532425 0.1535003 0.1537803
 0.1540921 0.1544219 0.1547339 0.1549993 0.1552216 0.1554271 0.1556357 0.1558494 0.1560663 0.1562923
 0.156536 0.1567978 0.157068 0.1573344 0.1575927 0.1578481 0.1581081 0.1583736 0.1586393 0.1589008
 0.1591607 0.1594275 0.1597062 0.1599885 0.1602574 0.1605058 0.1607431 0.1609829 0.1612276 0.1614712
 0.1617098 0.1619441 0.162178 0.1624159 0.1626594 0.1629044 0.1631464 0.1633851 0.163623 0.1638609
 0.1640995 0.1643428 0.1645955 0.1648551 0.165111 0.165354 0.165584 0.1658098 0.1660417 0.166285
 0.1665368 0.1667853 0.1670197 0.1672432 0.1674722 0.1677183 0.1679758 0.1682286 0.1684681 0.1686992
 0.1689306 0.1691629 0.1693904 0.1696117 0.1698333 0.1700607 0.1702938 0.1705318 0.1707749 0.1710207
 0.1712653 0.1715081 0.1717514 0.1719955 0.1722378 0.1724757 0.1727093 0.1729429 0.1731829 0.173431
 0.1736832 0.1739345 0.1741823 0.1744269 0.1746699 0.1749077 0.1751292 0.1753296 0.1755234 0.1757312
 0.1759577 0.176193 0.1764276 0.1766587 0.1768853 0.1771092 0.1773348 0.1775666 0.1778075 0.1780571
 0.1783104 0.1785625 0.178812 0.1790555 0.1792872 0.1795095 0.1797364 0.1799782 0.1802337 0.180496
 0.1807569 0.1810083 0.1812502 0.1814897 0.1817298 0.1819682 0.1822048 0.1824419 0.18268 0.1829207
 0.1831632 0.1834005 0.1836297 0.1838611 0.1841039 0.1843536 0.1846024 0.1848472 0.1850852 0.1853174
 0.1855541 0.1858002 0.1860462 0.1862846 0.1865205 0.18676 0.1870057 0.1872599 0.1875189 0.187771
 0.1880116 0.1882446 0.1884708 0.1886921 0.1889177 0.1891499 0.1893805 0.1896068 0.1898291 0.1900281
 0.1901547 0.1900893 0.1895284 0.1878641 0.184178 0.1774391 0.1669247 0.1526844 0.1356789 0.1174322
 0.0994743 0.08295787 0.06855708 0.05656046 0.04701886 0.0398436 0.03486819 0.03194816 0.03106727 0.03244572
 0.03665825 0.04429903 0.05469459 0.06474199 0.07009468 0.06858611 0.06230237 0.05568231 0.05181906 0.05094511
 0.05174459 0.05308683 0.05461198 0.05652705 0.05919212 0.06271704 0.06693628 0.07184044 0.07779606 0.08508234
 0.09331868 0.101614 0.1093335 0.1166043 0.1240235 0.1319457 0.1401157 0.1479253 0.1549023 0.1609498
 0.166253 0.1710669 0.1755718 0.1798518 0.1839409 0.1878253 0.1913676 0.1942722 0.1962194 0.1971038
 0.1971575 0.1968251 0.1965039 0.1963855 0.1964909 0.1967826 0.1972266 0.197801 0.1984928 0.1992844
 0.2001416 0.2010244 0.2019043 0.2027615 0.203577 0.2043392 0.205047 0.2056998 0.2062956 0.2068391
 0.2073369 0.2077911 0.2082044 0.2085889 0.2089589 0.2093213 0.2096744 0.210011 0.2103225 0.2106047
 0.2108621 0.2111035 0.2113375 0.2115693 0.2117996 0.2120251 0.2122433 0.2124561 0.2126679 0.2128814
 0.213096 0.213309 0.2135201 0.2137323 0.2139453 0.2141506 0.2143418 0.2145258 0.2147157 0.2149146
 0.2151159 0.2153156 0.2155141 0.2157115 0.2159089 0.2161122 0.2163262 0.2165478 0.2167655 0.2169687
 0.2171595 0.2173556 0.2175725 0.217805 0.2180364 0.218261 0.2184862 0.2187172 0.2189526 0.2191886
 0.2194143 0.2196116 0.219775 0.2199257 0.2200994 0.2203169 0.2205637 0.220803 0.2210122 0.2212031
 0.2214024 0.2216203 0.221845 0.2220547 0.2222387 0.2224179 0.2226331 0.2228979 0.223181 0.2234488
 0.2236981 0.2239403 0.2241843 0.2244404 0.2247052 0.2249414 0.2251085 0.2252234 0.2253692 0.2256306
 0.2260138 0.2264328 0.2267877 0.2270541 0.2272793 0.2275151 0.2277836 0.228064 0.2282662 0.2282877
 0.2281732 0.2281546 0.2284413 0.2290088 0.2296493 0.2301854 0.230581 0.2308899 0.2311625 0.2313966
 0.231544 0.231566 0.2315114 0.2315421 0.2318265 0.2323669 0.2329768 0.2334674 0.2337976 0.2340222
 0.2341935 0.2343481 0.2344561 0.2343564 0.2339265 0.233391 0.23327 0.2338719 0.2349403 0.2359233
 0.2365227 0.2368523 0.2371272 0.2374009 0.2376217 0.2376909 0.2373476 0.2363089 0.2348128 0.233785
 0.2340805 0.2356212 0.2375323 0.2390189 0.2398778 0.24031 0.240569 0.2407855 0.2408739 0.2405483
 0.2396392 0.2385127 0.2379812 0.238562 0.2399029 0.2411628 0.2418701 0.2421752 0.2424053 0.2426858
 0.2428513 0.2424052 0.2408037 0.2382659 0.236182 0.2361445 0.2383963 0.2415375 0.2439086 0.2450196
 0.2454283 0.245517 0.2449208 0.2431802 0.2404362 0.2373678 0.234962 0.2343701 0.2361573 0.2393562
 0.2420074 0.2430819 0.2433524 0.244116 0.2456471 0.2471896 0.2479468 0.2477001 0.246683 0.2451532
 0.2432676 0.2414746 0.2407527 0.2419236 0.2446571 0.2475845 0.2495631 0.2505425 0.2509703 0.25046
 0.2475213 0.2413448 0.234043 0.2300827 0.2323561 0.239161 0.2460293 0.2501255 0.2518182 0.2525946
 0.2530489 0.2527104 0.25033 0.244568 0.2361107 0.2289993 0.2279022 0.2335003 0.2417189 0.2475311
 0.2483781 0.2444371 0.2377254 0.2315093 0.2289773 0.2313094 0.2371524 0.2439633 0.2495398 0.252631
 0.2529342 0.2509854 0.2481269 0.2461798 0.2461269 0.2466715 0.2452135 0.2411177 0.2367517 0.23402
 0.2314459 0.2269424 0.2223936 0.2224336 0.2284081 0.2361107 0.2404987 0.2408077 0.2396762 0.2383541
 0.2345941 0.2259003 0.2142311 0.20612 0.2069587 0.2154005 0.2245514 0.2287069 0.2278894 0.2258768
 0.2251743 0.2244941 0.2206503 0.2127485 0.2043408 0.2004672 0.2023203 0.2061727 0.2078006 0.2058837
 0.2005954 0.1922197 0.1834963 0.1805336 0.1876919 0.2022599 0.216544 0.2241988 0.2226107 0.2115754
 0.1941274 0.178313 0.1733075 0.1812437 0.1946369 0.2032564 0.2022742 0.1931976 0.179478 0.1640792
 0.1508005 0.1447858 0.1494643 0.1630421 0.1785474 0.1873547 0.1839764 0.1702784 0.1557635 0.1507626
 0.1571097 0.1668952 0.1713202 0.1686697 0.1631519 0.1594178 0.1598319 0.1640677 0.1694911 0.1736145
 0.176094 0.1760767 0.1695537 0.1541947 0.1359018 0.1249597 0.1253479 0.1326889 0.1424678 0.1540833
 0.1654957 0.170466 0.1655863 0.1567378 0.1540799 0.1612587 0.1722689 0.1787691 0.1783257 0.1748647
 0.1726136 0.171597 0.1697104 0.1675771 0.1687648 0.1748441 0.1826425 0.1877886 0.1892751 0.1890711
 0.1887725 0.1883943 0.1875178 0.1860114 0.1839402 0.1816693 0.1797652 0.1783585 0.1770243 0.1754277
 0.1733145 0.1695904 0.1625955 0.1525202 0.1428758 0.1377469 0.1375143 0.1391427 0.1406441 0.1422459
 0.1422683 0.1359255 0.1216381 0.1062398 0.1000107 0.1067572 0.1209887 0.1341697 0.1412103 0.1409018
 0.1334391 0.1207446 0.1086811 0.1052005 0.1138436 0.1303531 0.147261 0.1603027 0.1688204 0.1722148
 0.1693659 0.1613902 0.1526573 0.1482937 0.1511152 0.1603873 0.1719886 0.179377 0.1768031 0.1650905
 0.1542612 0.1561155 0.1717719 0.1897248 0.1987717 0.1993786 0.1990626 0.200692 0.2010901 0.1993608
 0.200188 0.2074327 0.2184439 0.2266614 0.2273854 0.2196381 0.2054813 0.190393 0.1818703 0.1834942
 0.1909335 0.196695 0.1974046 0.193437 0.1844876 0.1713217 0.1604208 0.1601265 0.1709758 0.1845236
 0.1929453 0.1961769 0.1984365 0.2009301 0.2003939 0.1940607 0.1842674 0.1770159 0.1760486 0.1795897
 0.1833897 0.1852095 0.1849009 0.1819139 0.1756259 0.1681254 0.1642276 0.1673373 0.1759639 0.1851219
 0.1907786 0.1923831 0.1917297 0.1905972 0.1895219 0.1879271 0.1853489 0.1830469 0.1837598 0.1887575
 0.1957602 0.2012404 0.204437 0.2076063 0.2124364 0.2176765 0.2206405 0.2201539 0.217701 0.2161641
 0.2175322 0.221319 0.2249026 0.22574 0.2237793 0.2217422 0.222627 0.2268428 0.2321303 0.2361223
 0.2382862 0.2394486 0.2403932 0.2411809 0.2411196 0.2392997 0.2359032 0.2329721 0.23297 0.2363333
 0.24104 0.2446791 0.2463848 0.2467188 0.2463698 0.2454417 0.2438153 0.2417791 0.2400627 0.2392728
 0.2394561 0.240238 0.2412075 0.2420942 0.2427619 0.2432013 0.2434877 0.2436873 0.2438404 0.2440211
 0.2443041 0.2446604 0.2449844 0.2452575 0.2455945 0.2460759 0.2466036 0.2469919 0.2471412 0.2470325
 0.2466073 0.2457881 0.2446204 0.2432664 0.2418126 0.2402026 0.238472 0.2370069 0.236428 0.2371265
 0.2389143 0.241143 0.243145 0.2445673 0.2453914 0.2457765 0.2459176 0.2459654 0.2459915 0.2459953
 0.2459462 0.2458276 0.2456525 0.2454521 0.2452576 0.245096 0.2449909 0.2449504 0.2449506 0.2449437
 0.2448854 0.2447524 0.2445454 0.2442826 0.2439837 0.2436456 0.2432325 0.2426963 0.2420131 0.2412072
 0.2403457 0.2395054 0.2387236 0.2379688 0.2371657 0.2362553 0.2352161 0.2340347 0.2327055 0.2312879
 0.2299167 0.2287048 0.2276498 0.2266589 0.2256397 0.2245446 0.2233631 0.222112 0.2208214 0.2195119
 0.2181873 0.2168496 0.2155057 0.2141568 0.2127889 0.2113794 0.2099102 0.2083768 0.2067876 0.2051509
 0.2034521 0.2016342 0.1995996 0.1972382 0.1944534 0.1911698 0.1873519 0.1830446 0.178391 0.1735944
 0.1688578 0.1643461 0.1601763 0.1564274 0.1531614 0.1504319 0.1482766 0.1467192 0.145783 0.1454905
 0.1458458 0.146822 0.1483539 0.150332 0.1526098 0.1550261 0.1574235 0.1596675 0.1616847 0.1634965
 0.1651962 0.1668679 0.168518 0.1700893 0.171531 0.1728336 0.1739934 0.1749839 0.1757881 0.1764347
 0.176972 0.1774251 0.1777953 0.1780863 0.1783153 0.1785078 0.1786903 0.1788812 0.1790948 0.1793499
 0.1796613 0.1800244 0.1804279 0.1808787 0.1813944 0.1819749 0.1825986 0.1832449 0.1839152 0.1846317
 0.1854174 0.1862841 0.1872467 0.188341 0.1896049 0.1910474 0.1926461 0.1943571 0.1961083 0.1978001
 0.1993367 0.2006584 0.2017452 0.2026057 0.2032671 0.2037655 0.2041349 0.2043992 0.204567 0.2046385
 0.2046213 0.2045304 0.204371 0.2041366 0.2038223 0.2034259 0.2029451 0.202396 0.2018225 0.2012666
 0.2007401 0.2002378 0.1997667 0.1993432 0.1989672 0.1986101 0.1982321 0.1978104 0.1973482 0.196859
 0.1963493 0.1958151 0.1952377 0.1945825 0.1938194 0.1929454 0.1919753 0.1909184 0.1897766 0.1885558
 0.187262 0.1858944 0.1844501 0.1829329 0.1813531 0.1797187 0.1780185 0.1762238 0.1743254 0.1723721
 0.170454 0.1686444 0.1669629 0.1653858 0.1638791 0.1624266 0.1610337 0.1597069 0.1584406 0.1572265
 0.156059 0.154926 0.1538159 0.1527411 0.1517382 0.1508382 0.1500493 0.1493641 0.1487748 0.1482833
 0.147898 0.1476166 0.1474226 0.1473057 0.1472678 0.1472919 0.1473227 0.1472951 0.1471736 0.1469671
 0.1467216 0.1464944 0.1463147 0.146168 0.1460192 0.1458365 0.1455833 0.1451988 0.1446023 0.1437248
 0.1425432 0.1410851 0.1394103 0.1376087 0.1358118 0.1341617 0.1327471 0.1315873 0.1306714 0.1299747
 0.1294424 0.129004 0.1286232 0.1283259 0.1281769 0.1282067 0.1283381 0.1284134 0.1283418 0.1282058
 0.1281858 0.1284017 0.1288386 0.1293832 0.1299036 0.1303209 0.1306241 0.1308283 0.1309483 0.1310102
 0.131035 0.1310033 0.1308758 0.1306464 0.1303419 0.1299869 0.1295921 0.1291528 0.1286466 0.128053
 0.1273748 0.1266264 0.1258189 0.1249542 0.124003 0.1229206 0.1217432 0.1206515 0.119886 0.1196038
 0.1198039 0.1203393 0.1210191 0.121739 0.1224589 0.1230304 0.1232228 0.1230756 0.1231015 0.1239107
 0.1256081 0.127672 0.129435 0.1305686 0.1310915 0.1310917 0.1306054 0.1296722 0.1283266 0.1265585
 0.1243836 0.1218993 0.1192216 0.1164688 0.1138154 0.1114364 0.1094126 0.107758 0.1064691 0.1055734
 0.1051679 0.1049066 0.1031388 0.09778515 0.0895668 0.08342539 0.08437591 0.09186792 0.1001688 0.1044149
 0.1044808 0.1029577 0.1016222 0.1007424 0.1002471 0.1002892 0.100996 0.1022318 0.1036215 0.1047774
 0.1055432 0.1059563 0.105979 0.1053042 0.103318 0.09929797 0.09298771 0.08512785 0.07721667 0.07063521
 0.06602712 0.06330504 0.06193662 0.06126129 0.06082597 0.06058488 0.06078951 0.06168848 0.06332836 0.06559321
 0.06832601 0.07130418 0.07415938 0.07652797 0.07833038 0.07975195 0.08092415 0.08177307 0.08218666 0.08217427
 0.08183382 0.08127573 0.08060627 0.07990402 0.07916224 0.0782911 0.07725388 0.07621446 0.07545746 0.07511321
 0.0750475 0.07505508 0.07504651 0.07501602 0.07496416 0.07490595 0.07487396 0.0749034 0.07505305 0.07538038
 0.07584465 0.07629763 0.07660997 0.07676891 0.07684419 0.07686179 0.07670251 0.07621007 0.07547493 0.07484976
 0.07450404 0.07413054 0.07334639 0.07226954 0.07143921 0.0712208 0.07149237 0.07187246 0.07206786 0.0720046
 0.07180694 0.07173697 0.07202387 0.0726015</values></Ydata></ScSm><ScRf><Ydata ylabel="Single channel"><values byteorder="INTEL" format="FLOAT32" numvalues="1820"> 0.0606882 0.06084807 0.06094885 0.06098814 0.06098678 0.0609891 0.06104749 0.06118894 0.06139041 0.06158872
 0.0617255 0.06178838 0.06179821 0.06176558 0.0616952 0.06163298 0.06165873 0.06180654 0.06201555 0.0621736
 0.06220688 0.06214325 0.06209698 0.06215778 0.06226844 0.06224 0.06192997 0.06140666 0.06090549 0.06061357
 0.06055372 0.0607183 0.06118321 0.06189172 0.06241072 0.0622382 0.06143323 0.06064591 0.06039704 0.06057819
 0.06075549 0.06067356 0.06033378 0.05989253 0.05970705 0.06024294 0.06161582 0.06320933 0.06389691 0.06275614
 0.0597275 0.05581789 0.05272592 0.05193315 0.05366337 0.05658291 0.05880078 0.05937885 0.05878494 0.05793405
 0.0571961 0.05651263 0.05604935 0.056246 0.05721504 0.0583185 0.05849805 0.05719113 0.05500007 0.05325597
 0.05279739 0.05344619 0.05472608 0.05638044 0.05765513 0.05688581 0.0531369 0.04827902 0.04615651 0.04893404
 0.05478507 0.0596711 0.06092808 0.05876908 0.05512946 0.05206378 0.05095151 0.0521201 0.05480564 0.05778776
 0.06012115 0.06117 0.06044574 0.0580391 0.05503719 0.05299536 0.05298395 0.05517104 0.05878847 0.06220169
 0.06364927 0.06253977 0.05984572 0.05707962 0.05529995 0.05510611 0.05678427 0.06001871 0.06387141 0.06731613
 0.06964952 0.07057719 0.07029507 0.06936768 0.06829259 0.06739768 0.06713045 0.06779343 0.06880015 0.06888981
 0.06749632 0.06550975 0.06436439 0.06455535 0.06524196 0.06526993 0.0643425 0.06283715 0.06066186 0.05721658
 0.05277096 0.04885139 0.04671677 0.04639065 0.04755872 0.05006301 0.05284289 0.0538752 0.05238562 0.05026152
 0.05018616 0.05277892 0.05627239 0.05866898 0.05959494 0.06016271 0.06153955 0.06375115 0.06553762 0.06530346
 0.06269515 0.05948726 0.05833044 0.06015138 0.06326082 0.06543306 0.06625781 0.0668958 0.06805062 0.06887621
 0.06786199 0.06463139 0.06089479 0.05938155 0.06145693 0.06575362 0.06916796 0.06915589 0.06544346 0.06008045
 0.05584434 0.05432021 0.05549034 0.05880715 0.06379911 0.06948835 0.0741262 0.07617449 0.07542456 0.07292677
 0.0697857 0.06613138 0.06168181 0.05743761 0.05590635 0.05874041 0.06463155 0.07039783 0.07382043 0.07475612
 0.07391769 0.07151908 0.06747007 0.0626848 0.05951625 0.05993397 0.06314819 0.06605054 0.06646495 0.06513654
 0.06414054 0.0643021 0.06487739 0.0651364 0.0654068 0.06651014 0.06857914 0.07073263 0.07192347 0.07189271
 0.07122448 0.0706716 0.07047042 0.07016385 0.06924532 0.06816283 0.06826916 0.07033376 0.07347751 0.07607505
 0.07739052 0.07784661 0.07792346 0.07731393 0.07536002 0.07227378 0.06963733 0.06922809 0.07130282 0.07443589
 0.07700385 0.07835492 0.07866659 0.0783631 0.07782364 0.07725703 0.07676382 0.07660142 0.07712039 0.07826403
 0.07945266 0.08016587 0.08037081 0.08025649 0.07985859 0.0791446 0.07829213 0.07768848 0.07764788 0.07817709
 0.07902629 0.07991295 0.08062129 0.08095825 0.08081994 0.08034486 0.0798367 0.07948674 0.07930072 0.07929109
 0.07954908 0.08006963 0.08065701 0.08108765 0.08128922 0.08131847 0.08123952 0.08107767 0.08085749 0.08065118
 0.08057919 0.08072613 0.08103405 0.08133866 0.0815567 0.08176591 0.08203565 0.08226398 0.08228768 0.08210489
 0.08188895 0.08180007 0.08185666 0.08197851 0.08207682 0.0820706 0.08187777 0.08148738 0.08105864 0.08086058
 0.0810553 0.08158113 0.08225552 0.08290774 0.08340302 0.08366352 0.08372729 0.08371057 0.08367203 0.08356881
 0.08336361 0.08313049 0.08303462 0.08320711 0.08362664 0.08412744 0.08453389 0.08477129 0.08486355 0.08489472
 0.08497629 0.08516102 0.08536314 0.08543882 0.08536685 0.08528323 0.08531755 0.08544652 0.08553433 0.08549441
 0.08539122 0.08537507 0.08552324 0.08576894 0.08599279 0.08615354 0.08630776 0.08651213 0.08672203 0.08680703
 0.08669064 0.08645792 0.0862754 0.08621529 0.08622434 0.08626007 0.08636583 0.08657473 0.08681193 0.08695713
 0.08698086 0.08696875 0.08700813 0.08708456 0.08710624 0.08701168 0.08683267 0.08666107 0.08657517 0.08659416
 0.08667689 0.08675131 0.08675846 0.08668734 0.08657451 0.08646652 0.08638531 0.08633935 0.08636183 0.08650114
 0.08674491 0.08697161 0.08702371 0.08685077 0.0865674 0.08635342 0.08629365 0.08631723 0.08628537 0.08612464
 0.08587357 0.08562157 0.08542686 0.08529052 0.08518435 0.08508968 0.08502295 0.0850327 0.08515037 0.08532186
 0.08541109 0.08531265 0.08505867 0.08478608 0.08460808 0.08454324 0.08454517 0.08455724 0.08455335 0.08455931
 0.08461647 0.08470435 0.08473804 0.0846699 0.08455525 0.08449516 0.08455221 0.08472709 0.08495787 0.08512914
 0.08514655 0.08503409 0.08491773 0.08489526 0.08495748 0.08504258 0.0851205 0.08519936 0.08528525 0.08537439
 0.08547911 0.08563375 0.08586098 0.08613628 0.08639272 0.08656965 0.0866669 0.08675395 0.08691777 0.08719186
 0.08753137 0.08785389 0.08810485 0.08829184 0.088462 0.08864735 0.08884023 0.08902956 0.0892418 0.08951673
 0.08984958 0.09018952 0.09049659 0.09077423 0.09104526 0.09132209 0.09160855 0.09191754 0.09227569 0.09269901
 0.09315226 0.09354571 0.09380181 0.09393263 0.09403866 0.09423287 0.09456229 0.09497164 0.0953289 0.09552661
 0.09559285 0.09567303 0.09587219 0.09614781 0.09639676 0.09661232 0.09689428 0.09730752 0.09778321 0.09818184
 0.09843105 0.09858225 0.09873784 0.09893851 0.09913306 0.0992578 0.09932332 0.09939864 0.09952417 0.09968598
 0.09988266 0.1001634 0.1005598 0.1010138 0.1014179 0.1017112 0.1019064 0.1020441 0.1021531 0.1022408
 0.1022947 0.1023099 0.1023231 0.1023864 0.1024938 0.1025754 0.1025894 0.1025831 0.1026383 0.1027901
 0.103025 0.1033196 0.1036413 0.1039387 0.1041863 0.1044366 0.1047691 0.105171 0.1055157 0.1056951
 0.1057338 0.1057347 0.1057523 0.1057813 0.105841 0.1059918 0.106258 0.1065925 0.1069367 0.107277
 0.1076271 0.1079804 0.1082966 0.1085239 0.1086316 0.1086336 0.108591 0.1085863 0.1086867 0.1089119
 0.1092249 0.1095556 0.1098439 0.1100555 0.1101639 0.1101541 0.1100724 0.1100367 0.1101444 0.1103623
 0.1105404 0.1105404 0.1103257 0.1099332 0.109404 0.1087682 0.1080764 0.1074107 0.1068528 0.1064482
 0.1062118 0.1061678 0.1063645 0.1068237 0.1074797 0.1081986 0.10886 0.1093886 0.1097065 0.1097166
 0.1093753 0.1087551 0.1080042 0.1072577 0.1065923 0.1060164 0.1054768 0.1049157 0.104372 0.104015
 0.1040536 0.1046085 0.1056594 0.1070649 0.1086092 0.110068 0.1112942 0.1122699 0.1130727 0.1137886
 0.1144616 0.1151143 0.1157758 0.1164563 0.1171135 0.1176858 0.1181589 0.118573 0.118967 0.1193423
 0.1196779 0.1199564 0.1201828 0.1203885 0.1206015 0.1207981 0.1209107 0.1209026 0.1208115 0.1206999
 0.1205838 0.1204242 0.1201693 0.1197945 0.1193364 0.1189189 0.1187342 0.1189574 0.1196452 0.1207019
 0.1219523 0.123253 0.1245263 0.1257021 0.1266805 0.1273876 0.1278463 0.1281551 0.1284094 0.1286612
 0.1289306 0.129221 0.129523 0.129824 0.1301203 0.1304227 0.1307487 0.1311013 0.1314497 0.1317461
 0.1319756 0.1321846 0.1324461 0.132795 0.1331965 0.1335813 0.1339147 0.1342253 0.134549 0.1348651
 0.1351174 0.1352926 0.1354451 0.1356437 0.1359227 0.1362735 0.1366505 0.1369855 0.1372323 0.1374054
 0.1375618 0.1377466 0.137967 0.138211 0.1384687 0.1387308 0.1389869 0.139239 0.1395093 0.1398135
 0.1401258 0.1403902 0.1405774 0.1407171 0.1408669 0.1410562 0.1412687 0.1414719 0.1416586 0.1418608
 0.1421202 0.1424387 0.142761 0.1430183 0.143188 0.1433063 0.1434285 0.1435854 0.1437752 0.1439809
 0.1441884 0.1443915 0.1445896 0.1447868 0.1449903 0.1452047 0.1454262 0.1456443 0.145852 0.146053
 0.1462563 0.1464676 0.1466917 0.1469411 0.1472286 0.1475438 0.147844 0.148083 0.1482487 0.1483673
 0.1484747 0.1485953 0.1487422 0.1489197 0.1491215 0.1493338 0.149546 0.1497554 0.1499636 0.1501711
 0.150376 0.1505771 0.1507764 0.150979 0.1511897 0.1514111 0.1516411 0.1518729 0.1520984 0.1523138
 0.1525199 0.1527179 0.1529078 0.1530888 0.153261 0.153428 0.1536017 0.1537943 0.1540046 0.1542167
 0.154416 0.1546023 0.1547852 0.1549728 0.1551677 0.155367 0.1555666 0.155764 0.1559606 0.1561598
 0.1563634 0.1565688 0.1567698 0.1569628 0.1571517 0.1573439 0.1575433 0.157748 0.1579542 0.1581591
 0.158361 0.1585593 0.1587529 0.1589421 0.1591293 0.1593167 0.1595057 0.1596994 0.1599024 0.1601145
 0.1603299 0.1605422 0.1607484 0.16095 0.1611528 0.1613635 0.161585 0.1618137 0.1620418 0.1622576
 0.1624543 0.162641 0.1628389 0.1630591 0.163292 0.1635216 0.1637415 0.1639536 0.1641587 0.1643546
 0.1645395 0.1647171 0.1648951 0.1650771 0.1652601 0.1654416 0.1656207 0.1657948 0.1659632 0.1661325
 0.1663103 0.166497 0.1666902 0.1668911 0.1671004 0.1673153 0.1675297 0.1677371 0.1679356 0.1681341
 0.1683432 0.1685623 0.1687835 0.1690033 0.1692191 0.1694257 0.1696235 0.1698211 0.1700228 0.1702282
 0.17044 0.1706603 0.1708845 0.1711069 0.1713238 0.1715298 0.1717229 0.1719106 0.1720997 0.1722896
 0.1724836 0.172691 0.1729136 0.1731422 0.1733672 0.1735811 0.1737815 0.1739792 0.1741887 0.1744088
 0.1746277 0.174841 0.1750498 0.1752552 0.1754647 0.1756857 0.1759118 0.1761321 0.1763465 0.1765571
 0.1767626 0.1769688 0.1771804 0.1773774 0.1775056 0.1774448 0.1769063 0.1753198 0.171826 0.165463
 0.1555622 0.1421781 0.1262136 0.1090942 0.09225073 0.07676087 0.06325846 0.05202095 0.04310329 0.03642099
 0.03180636 0.02910863 0.0283025 0.02959672 0.03354452 0.04071457 0.05046726 0.05987289 0.0648521 0.06339607
 0.0574845 0.05127978 0.0476678 0.04685966 0.04762491 0.04890471 0.05035793 0.05217553 0.05469258 0.05800666
 0.06195873 0.06654316 0.07210924 0.07891996 0.08662086 0.0943877 0.101638 0.1084902 0.1154894 0.1229558
 0.1306484 0.1379982 0.1445589 0.1502362 0.1552081 0.1597209 0.1639466 0.1679646 0.1718094 0.1754671
 0.1787985 0.1815163 0.1833245 0.1841392 0.1841903 0.1838948 0.1836162 0.1835244 0.1836369 0.1839248
 0.1843596 0.1849134 0.1855646 0.1863 0.1871008 0.1879385 0.1887852 0.1896178 0.1904155 0.1911637
 0.1918541 0.192479 0.1930363 0.1935366 0.1939961 0.1944253 0.1948305 0.1952175 0.1955897 0.1959465
 0.1962874 0.1966091 0.1969068 0.1971813 0.1974393 0.1976835 0.1979124 0.1981282 0.1983353 0.1985359
 0.1987327 0.1989327 0.1991397 0.1993505 0.1995616 0.1997721 0.1999811 0.2001879 0.200393 0.2005941
 0.2007867 0.2009706 0.2011518 0.2013382 0.2015368 0.2017499 0.2019687 0.2021768 0.2023655 0.2025416
 0.2027177 0.2029031 0.2030993 0.2032984 0.2034924 0.2036865 0.203893 0.2041122 0.2043328 0.2045502
 0.2047676 0.2049834 0.2051941 0.2054038 0.2056133 0.2058079 0.2059723 0.2061145 0.2062645 0.2064484
 0.2066664 0.2068971 0.2071223 0.2073402 0.207554 0.2077569 0.2079371 0.208091 0.2082333 0.2083987
 0.2086209 0.2088963 0.2091862 0.2094611 0.2097194 0.2099624 0.2101873 0.210405 0.2106262 0.2108293
 0.2109808 0.2110951 0.2112447 0.2114999 0.2118584 0.212239 0.2125546 0.2127905 0.2129995 0.2132367
 0.21352 0.2138131 0.2140141 0.2140273 0.2139101 0.2138894 0.2141558 0.2146756 0.2152569 0.215749
 0.2161286 0.2164387 0.2167084 0.216924 0.217045 0.2170485 0.2169919 0.2170295 0.2173101 0.2178225
 0.2183887 0.218844 0.2191652 0.2194037 0.2195937 0.2197546 0.2198557 0.2197529 0.2193367 0.2188182
 0.2186864 0.2192367 0.2202346 0.2211647 0.2217449 0.2220784 0.2223634 0.2226446 0.2228656 0.2229264
 0.2225838 0.2215883 0.2201834 0.2192414 0.2195486 0.2210169 0.2228287 0.2242493 0.2250869 0.2255175
 0.2257733 0.2259847 0.226078 0.2257824 0.2249369 0.2238954 0.2234326 0.2240264 0.225318 0.2264974
 0.2271311 0.2273869 0.2275921 0.22787 0.2280598 0.22768 0.2262015 0.2238279 0.2218829 0.2218783
 0.2240379 0.2270299 0.2292861 0.2303492 0.2307504 0.2308532 0.2303132 0.2286922 0.2261201 0.2232428
 0.2210041 0.2204948 0.2222328 0.2252833 0.2277932 0.2288122 0.2290916 0.229857 0.2313518 0.2328471
 0.2335878 0.2333781 0.2324497 0.2310425 0.2292894 0.2276104 0.2269474 0.2280969 0.2307468 0.2335834
 0.2355034 0.2364537 0.2368722 0.2364078 0.2336479 0.2278197 0.2209355 0.2172468 0.2194897 0.2260169
 0.2325656 0.2364554 0.2380661 0.2388281 0.2393014 0.2390233 0.2367938 0.2313411 0.2233368 0.216644
 0.2156963 0.2211094 0.228982 0.2345338 0.2353435 0.2315916 0.2252177 0.2193561 0.2170488 0.2193969
 0.2250807 0.2316603 0.2370387 0.2400382 0.2403845 0.2385949 0.235954 0.2342041 0.2342741 0.2349052
 0.2336108 0.2298074 0.2257714 0.223304 0.2209651 0.2167595 0.2125194 0.2127047 0.2185975 0.2261449
 0.230505 0.2309584 0.2300458 0.2289552 0.2255081 0.2173019 0.2062489 0.1986885 0.1998458 0.2084053
 0.2176817 0.2221674 0.2219137 0.2205863 0.220575 0.2205513 0.2173358 0.2100426 0.2022198 0.1988844
 0.2011984 0.2054337 0.2074012 0.2058007 0.2007866 0.1926306 0.1841123 0.1814043 0.1888908 0.2038236
 0.2184531 0.2264005 0.2250269 0.2140964 0.1966795 0.1809988 0.1764368 0.185148 0.1994422 0.2088467
 0.208427 0.199705 0.1861822 0.170915 0.15792 0.1526776 0.1588769 0.1746491 0.1925267 0.203151
 0.200482 0.1865246 0.1717515 0.1675816 0.1759792 0.1880635 0.1940177 0.1919807 0.1867132 0.1834936
 0.1850644 0.1910651 0.1984161 0.2042368 0.2081501 0.2090396 0.2019686 0.1841151 0.1626268 0.1498989
 0.1507086 0.1598089 0.1718325 0.1860925 0.2000751 0.2061606 0.2002109 0.1893928 0.18605 0.1945991
 0.2077595 0.2154495 0.2147595 0.2104678 0.2076982 0.2064846 0.2043009 0.2019349 0.2037177 0.2115277
 0.2214954 0.2283254 0.2308172 0.2313775 0.2319485 0.2325326 0.2325804 0.2318942 0.2305475 0.2290123
 0.2280129 0.2277164 0.2275816 0.2271795 0.2261629 0.223016 0.2153928 0.2034015 0.191675 0.1856938
 0.1859875 0.1885176 0.1906946 0.1928941 0.1928558 0.184094 0.1644534 0.1431492 0.1340624 0.1423238
 0.1604912 0.1770443 0.1852159 0.1835856 0.1726477 0.1550188 0.1381711 0.1320679 0.1410206 0.1595492
 0.1782461 0.1918796 0.1999207 0.2020126 0.1970216 0.1862858 0.1748821 0.168705 0.1708939 0.1804715
 0.1926469 0.2000198 0.1962246 0.1822853 0.1693727 0.1705197 0.1869279 0.2059251 0.2152086 0.2152856
 0.2143887 0.2156894 0.2157721 0.2136696 0.2144408 0.2222634 0.2343029 0.2435069 0.2447996 0.2370915
 0.2226072 0.2073639 0.1995934 0.2031091 0.2128984 0.2205042 0.2221614 0.2183071 0.208623 0.1941014
 0.1822645 0.1826384 0.1957264 0.2117915 0.2219107 0.2260981 0.2292383 0.232682 0.2326013 0.2257774
 0.2149617 0.2071775 0.2067839 0.2116816 0.2169028 0.2198481 0.2203274 0.2176104 0.2108788 0.2026072
 0.1985894 0.2029164 0.2137288 0.2249212 0.2315676 0.2329998 0.2314197 0.229032 0.2265471 0.2233199
 0.2188096 0.2145036 0.2136363 0.2177292 0.2241655 0.2288829 0.2310278 0.2332343 0.2374869 0.2423862
 0.2448529 0.24349 0.2399119 0.2373351 0.2379956 0.2413774 0.2446003 0.2448741 0.2421456 0.2393949
 0.2398943 0.2440884 0.2495277 0.2536586 0.2559111 0.2571642 0.2582321 0.2591429 0.2591169 0.2571592
 0.2534728 0.2502699 0.250208 0.253762 0.2587736 0.26268 0.2645833 0.2651041 0.2649679 0.2642505
 0.2627911 0.2608735 0.2592528 0.2585598 0.2588456 0.2597238 0.2607715 0.2617185 0.2624383 0.2629267
 0.263253 0.2634671 0.2635854 0.2636535 0.2637234 0.2637594 0.2636778 0.263519 0.2634773 0.2636861
 0.2640451 0.2643281 0.2643915 0.2641865 0.26364 0.2626749 0.2613522 0.2598592 0.2583094 0.2566631
 0.2549562 0.2535678 0.2531184 0.2540014 0.2560114 0.258464 0.2606678 0.2622744 0.263274 0.2638087
 0.2640442 0.2641241 0.264136 0.2640941 0.2639712 0.263752 0.2634505 0.2630909 0.2626943 0.2622874
 0.2619076 0.2615818 0.2613002 0.2610179 0.2606843 0.2602722 0.2597878 0.2592617 0.258723 0.2581674
 0.2575516 0.2568231 0.2559637 0.25501 0.2540418 0.2531397 0.2523301 0.2515678 0.2507877 0.2499637
 0.2490891 0.2481214 0.2470152 0.2458262 0.2447186 0.2438273 0.24314 0.242535 0.2418922 0.2411453
 0.2402734 0.2392931 0.2382495 0.2371825 0.2360987 0.2349811 0.2338103 0.2325674 0.2312347 0.2298065
 0.228294 0.2267162 0.2250928 0.2234433 0.2217661 0.2200061 0.21805 0.2157587 0.2130028 0.209686
 0.2057718 0.2013185 0.1964877 0.1915055 0.1865949 0.1819266 0.1776153 0.1737473 0.1704018 0.1676448
 0.1655216 0.1640648 0.1633053 0.1632644 0.1639347 0.1652717 0.1671984 0.1696112 0.172382 0.1753586
 0.1783693 0.1812458 0.1838741 0.1862454 0.1884433 0.1905506 0.1925648 0.1944169 0.1960552 0.1974784
 0.1986979 0.1997131 0.2005371 0.2012136 0.2017923 0.2023016 0.2027491 0.2031357 0.203462 0.2037313
 0.2039523 0.2041419 0.2043208 0.2045061 0.2047066 0.204926 0.205171 0.2054583 0.2058124 0.206251
 0.2067652 0.2073238 0.2079015 0.2084961 0.2091154 0.2097676 0.2104751 0.2112823 0.2122312 0.2133352
 0.2145799 0.2159321 0.2173349 0.2186997 0.2199224 0.2209211 0.2216638 0.2221604 0.2224359 0.2225184
 0.2224441 0.2222513 0.2219646 0.2215938 0.2211474 0.2206356 0.2200657 0.2194464 0.2187907 0.2181101
 0.217412 0.2167073 0.2160106 0.2153283 0.214655 0.2139849 0.2133212 0.2126729 0.2120496 0.2114576
 0.2108945 0.2103466 0.2097965 0.2092354 0.208665 0.2080817 0.207458 0.2067505 0.2059334 0.2050121
 0.2039964 0.2028774 0.2016464 0.2003216 0.1989381 0.1975129 0.1960346 0.1944837 0.1928543 0.1911478
 0.1893496 0.1874308 0.1853933 0.1833085 0.181289 0.179421 0.177727 0.1761779 0.1747211 0.1733104
 0.1719348 0.1706161 0.1693761 0.168214 0.167116 0.1660711 0.1650753 0.1641306 0.1632478 0.1624445
 0.1617365 0.1611248 0.1605936 0.1601276 0.1597217 0.1593716 0.1590751 0.1588567 0.1587585 0.1587811
 0.1588534 0.158883 0.1588235 0.158691 0.1585384 0.1584149 0.1583346 0.1582797 0.1582288 0.1581624
 0.1580366 0.1577701 0.1572601 0.1564167 0.1552052 0.1536709 0.1519161 0.1500638 0.1482466 0.1465902
 0.1451721 0.1440115 0.1431028 0.1424249 0.1419238 0.141531 0.1412162 0.1410105 0.1409773 0.1411397
 0.1414088 0.1416178 0.1416771 0.1416758 0.1418002 0.1421776 0.1428055 0.143576 0.1443471 0.145019
 0.1455521 0.14593 0.1461549 0.1462731 0.1463391 0.14635 0.1462623 0.1460581 0.145758 0.1453972
 0.1450057 0.1445841 0.1441018 0.1435393 0.142902 0.1421852 0.1413752 0.1404715 0.1394539 0.1382794
 0.1370026 0.1358551 0.1351278 0.1349921 0.1354294 0.1362651 0.1372802 0.1383399 0.1393652 0.1401677
 0.1405086 0.1404704 0.1406363 0.1416764 0.1437119 0.1461767 0.1483197 0.1497526 0.1504862 0.1506213
 0.1501999 0.1492581 0.1478096 0.1458138 0.1432931 0.140395 0.1372765 0.1340703 0.1309787 0.1282197
 0.1258954 0.1240159 0.1225691 0.1215907 0.1212157 0.121066 0.1192116 0.1131901 0.1038114 0.09682503
 0.09806278 0.1068738 0.1165957 0.1215881 0.1217118 0.1199872 0.1184905 0.1175208 0.1169604 0.1169675
 0.1177025 0.1190369 0.1205621 0.1218303 0.1226338 0.1230057 0.1229414 0.1221278 0.1198405 0.1151901
 0.1078446 0.0986661 0.089421 0.0817361 0.07634963 0.07313292 0.07147325 0.07064426 0.07014178 0.06989773
 0.07018562 0.07128164 0.07321742 0.07583912 0.07897837 0.08242154 0.08578134 0.08863495 0.09084757 0.09259887
 0.09404967 0.0951274 0.09567343 0.09566486 0.09523435 0.09455834 0.09377916 0.09297425 0.09211883 0.0911003
 0.08987902 0.08865802 0.0877749 0.08737765 0.08731157 0.08734389 0.08736508 0.0873556 0.08730698 0.08722553
 0.08713637 0.08708447 0.08716145 0.08746114 0.08795807 0.08848536 0.08886598 0.08904482 0.08909434 0.0890735
 0.08886719 0.08828147 0.08738724 0.08657515 0.08606176 0.08552852 0.08454535 0.08323836 0.08223256 0.08195846
 0.08225274 0.08263586 0.08276695 0.0825965 0.08229712 0.08217807 0.08250135 0.08317751 0.08372141 0.083697
</values></Ydata></ScRf><Data_Parameters_AB><parameter name="DPF">1</parameter><parameter name="NPT">3497</parameter><parameter name="FXV">3996</parameter><parameter name="LXV">500</parameter><parameter name="CSF">1</parameter><parameter name="MXY">0.13227878510952</parameter><parameter name="MNY">-0.0472041890025139</parameter><parameter name="DAT">01/06/2022</parameter><parameter name="TIM">11:56:17.910 (GMT+2)</parameter><parameter name="DXU">WN</parameter></Data_Parameters_AB><AB__Qtest><MainReport name="Quality Test Report"><Header><Line><Legend>Test result ok/not ok [1/0]: </Legend><Value>0</Value></Line><Line><Legend>Method file: </Legend><Value>C:\Users\Public\Documents\Bruker\OPUS_8.2.28\QT\IRBT_v3_default.QT</Value></Line></Header><Matrix><Line><Legend></Legend><Legend>min</Legend><Legend>max</Legend><Legend>measured</Legend></Line><Line><Value>Absorption (X-Range 1):</Value><Value>0.400000</Value><Value>2.000000</Value><Value>0.122675</Value></Line><Line><Value>Noise (X-Range 4):</Value><Value></Value><Value>0.000300</Value><Value>0.000048</Value></Line><Line><Value>Signal/Noise (X-Range 2):</Value><Value>200.000000</Value><Value></Value><Value>38.367308</Value></Line><Line><Value>Signal/Noise (X-Range 3):</Value><Value>40.000000</Value><Value></Value><Value>20.559589</Value></Line><Line><Value>Water vapour (X-Range 5):</Value><Value></Value><Value>0.000300</Value><Value>0.000082</Value></Line><Line><Value>Signal/Water (X-Range 2):</Value><Value>100.000000</Value><Value></Value><Value>22.362756</Value></Line><Line><Value>Signal/Water (X-Range 3):</Value><Value>20.000000</Value><Value></Value><Value>11.983355</Value></Line><Line><Value>Fringes (X-Range 6):</Value><Value></Value><Value>0.000100</Value><Value>0.000066</Value></Line></Matrix></MainReport></AB__Qtest><Data_Parameters_ScSm><parameter name="DPF">1</parameter><parameter name="NPT">1814</parameter><parameter name="FXV">3996.33169228125</parameter><parameter name="LXV">499.541461535156</parameter><parameter name="CSF">1</parameter><parameter name="MXY">0.253048896789551</parameter><parameter name="MNY">0.0310672707855701</parameter><parameter name="DAT">01/06/2022</parameter><parameter name="TIM">11:56:17.910 (GMT+2)</parameter><parameter name="DXU">WN</parameter></Data_Parameters_ScSm><Data_Parameters_ScRf><parameter name="DPF">1</parameter><parameter name="NPT">1820</parameter><parameter name="FXV">4004.04661832813</parameter><parameter name="LXV">495.683998511719</parameter><parameter name="CSF">1</parameter><parameter name="MXY">0.26510414481163</parameter><parameter name="MNY">0.0283024981617928</parameter><parameter name="DAT">01/06/2022</parameter><parameter name="TIM">11:55:50.825 (GMT+2)</parameter><parameter name="DXU">WN</parameter></Data_Parameters_ScRf><Optic_Parameters_Rf><parameter name="APR">0</parameter><parameter name="APT">Open</parameter><parameter name="BMS">KBr</parameter><parameter name="DTC">RT-DLaTGS_IR-Biotyper [Microplate reader]</parameter><parameter name="HPF">0</parameter><parameter name="LPF">10.0</parameter><parameter name="LPV">4000</parameter><parameter name="PGR">0</parameter><parameter name="RCH">Module port</parameter><parameter name="RDX">0</parameter><parameter name="SRC">MIR</parameter><parameter name="VEL">10.0</parameter><parameter name="SON">Off</parameter></Optic_Parameters_Rf><Acquisition_Parameters_Rf><parameter name="ADT">1</parameter><parameter name="AQM">DD</parameter><parameter name="CFE">0</parameter><parameter name="COR">0</parameter><parameter name="DEL">0</parameter><parameter name="DLY">0</parameter><parameter name="HFW">8000</parameter><parameter name="LFW">0</parameter><parameter name="NSR">32</parameter><parameter name="PLF">AB</parameter><parameter name="RES">6</parameter><parameter name="RGN">-1</parameter><parameter name="STR">0</parameter><parameter name="TCL">MakeCompatibleScalar (0, {WSV=1.000000, ARV=0});</parameter><parameter name="TDL">37</parameter><parameter name="RPO">0</parameter></Acquisition_Parameters_Rf><FT_-_Parameters_Rf><parameter name="APF">B3</parameter><parameter name="HFQ">500</parameter><parameter name="LFQ">4000</parameter><parameter name="NLI">0</parameter><parameter name="PHR">24</parameter><parameter name="PHZ">ML</parameter><parameter name="SPZ">NO</parameter><parameter name="ZFF">1</parameter></FT_-_Parameters_Rf><Optic_Parameters_><parameter name="APR">0</parameter><parameter name="APT">Open</parameter><parameter name="BMS">KBr</parameter><parameter name="CHN">Module port</parameter><parameter name="DTC">RT-DLaTGS_IR-Biotyper [Microplate reader]</parameter><parameter name="HPF">0</parameter><parameter name="LPF">10.0</parameter><parameter name="LPV">4000</parameter><parameter name="PGN">0</parameter><parameter name="RDX">0</parameter><parameter name="SRC">MIR</parameter><parameter name="VEL">10.0</parameter><parameter name="SON">Off</parameter></Optic_Parameters_><FT_-_Parameters_><parameter name="APF">B3</parameter><parameter name="HFQ">500</parameter><parameter name="LFQ">4000</parameter><parameter name="NLI">0</parameter><parameter name="PHR">24</parameter><parameter name="PHZ">ML</parameter><parameter name="SPZ">NO</parameter><parameter name="ZFF">1</parameter></FT_-_Parameters_><Acquisition_Parameters_><parameter name="ADT">1</parameter><parameter name="AQM">DD</parameter><parameter name="CFE">0</parameter><parameter name="COR">0</parameter><parameter name="DEL">0</parameter><parameter name="DLY">0</parameter><parameter name="HFW">8000</parameter><parameter name="LFW">0</parameter><parameter name="NSS">32</parameter><parameter name="PLF">AB</parameter><parameter name="RES">6</parameter><parameter name="SOT">0</parameter><parameter name="TCL">MakeCompatibleScalar (0, {WSV=1.000000, ARV=0});</parameter><parameter name="TDL">37</parameter><parameter name="SPO">0</parameter><parameter name="SGN">-1</parameter></Acquisition_Parameters_><Instrument_Parameters_Rf><parameter name="HFL">15800.168544</parameter><parameter name="LFL">0</parameter><parameter name="LWN">15800.168544</parameter><parameter name="ABP">32197</parameter><parameter name="SSP">1</parameter><parameter name="ARG">2</parameter><parameter name="ASG">2</parameter><parameter name="ASS">32</parameter><parameter name="GFW">16</parameter><parameter name="GBW">16</parameter><parameter name="BFW">0</parameter><parameter name="BBW">0</parameter><parameter name="PKA">7311</parameter><parameter name="PKL">4990</parameter><parameter name="PRA">7478</parameter><parameter name="PRL">5001</parameter><parameter name="P2A">1</parameter><parameter name="P2L">1</parameter><parameter name="P2R">1</parameter><parameter name="P2K">1</parameter><parameter name="DAQ">0</parameter><parameter name="AG2">1</parameter><parameter name="SSM">1</parameter><parameter name="RSN">25961</parameter><parameter name="CRR">0</parameter><parameter name="SRT">1654084550.825</parameter><parameter name="DUR">19.6389923095703</parameter><parameter name="TSC">29</parameter><parameter name="MVD">0.459511309862137</parameter><parameter name="AN1">0.225790393130096</parameter><parameter name="AN2">0</parameter><parameter name="VSN">2.485 Apr  4 2017</parameter><parameter name="SRN">0085</parameter><parameter name="CAM">0</parameter><parameter name="INS">IR-Biotyper</parameter><parameter name="FOC">69</parameter><parameter name="RDY">1</parameter><parameter name="ARS">32</parameter></Instrument_Parameters_Rf><Sample_Parameters_><parameter name="BLD"></parameter><parameter name="CNM">Admin</parameter><parameter name="CPY"></parameter><parameter name="DPM"></parameter><parameter name="EXP">IRBT_v3_32Scans.XPM</parameter><parameter name="LCT"></parameter><parameter name="SFM">Microplate, HTS-XT</parameter><parameter name="SNM">220601-1028(v.3)_RTF49M (D_15)_G8_0842c692-b154-4ca1-9e10-e6cad68cb18d.0</parameter><parameter name="XPP">C:\Users\Public\Documents\Bruker\OPUS_8.2.28\XPM</parameter><parameter name="IST">OK</parameter><parameter name="CPG">1252</parameter><parameter name="UID">fa60a2d8-ea81-4328-947f-8f6f80e7d994</parameter></Sample_Parameters_><Instrument_Parameters_><parameter name="HFL">15800.168544</parameter><parameter name="LFL">0</parameter><parameter name="LWN">15800.168544</parameter><parameter name="ABP">32197</parameter><parameter name="SSP">1</parameter><parameter name="ASG">2</parameter><parameter name="ARG">2</parameter><parameter name="ASS">32</parameter><parameter name="GFW">16</parameter><parameter name="GBW">16</parameter><parameter name="BFW">0</parameter><parameter name="BBW">0</parameter><parameter name="PKA">7167</parameter><parameter name="PKL">4988</parameter><parameter name="PRA">7421</parameter><parameter name="PRL">4993</parameter><parameter name="P2A">1</parameter><parameter name="P2L">1</parameter><parameter name="P2R">1</parameter><parameter name="P2K">1</parameter><parameter name="DAQ">0</parameter><parameter name="AG2">1</parameter><parameter name="SSM">1</parameter><parameter name="RSN">13606</parameter><parameter name="CRR">0</parameter><parameter name="SRT">1654084577.91</parameter><parameter name="DUR">19.6389923095703</parameter><parameter name="TSC">29</parameter><parameter name="MVD">0.2647565305233</parameter><parameter name="AN1">0.225800354702015</parameter><parameter name="AN2">0</parameter><parameter name="VSN">2.485 Apr  4 2017</parameter><parameter name="SRN">0085</parameter><parameter name="CAM">0</parameter><parameter name="INS">IR-Biotyper</parameter><parameter name="FOC">69</parameter><parameter name="RDY">1</parameter></Instrument_Parameters_><History/></OPUSDataFile>
