<?xml version="1.0" encoding="UTF-8" ?>
<OPUSDataFile><AB><Ydata ylabel="Absorbance Units"><values byteorder="INTEL" format="FLOAT32" numvalues="3497"> 0.113209 0.1131402 0.113088 0.1130524 0.1130337 0.1130321 0.1130488 0.1130833 0.1131328 0.113194
 0.1132475 0.1132898 0.1132961 0.1132705 0.1132073 0.1131182 0.1130192 0.1129197 0.1128372 0.1127725
 0.1127327 0.1127123 0.1127115 0.1127207 0.1127377 0.1127503 0.1127553 0.112744 0.1127138 0.1126661
 0.1126 0.1125267 0.1124469 0.112376 0.1123145 0.1122707 0.1122422 0.11222 0.1122007 0.1121656
 0.1121176 0.1120513 0.1119781 0.1119146 0.1118682 0.1118586 0.1118733 0.1119134 0.1119514 0.1119711
 0.1119619 0.1119103 0.1118408 0.1117553 0.1116848 0.1116379 0.1116096 0.1116022 0.1115803 0.1115419
 0.1114685 0.111362 0.1112452 0.1111214 0.1110252 0.1109531 0.1109114 0.1108918 0.1108769 0.1108621
 0.1108313 0.110785 0.1107155 0.1106317 0.1105335 0.1104444 0.1103748 0.11035 0.1103864 0.1104761
 0.1106277 0.1107892 0.1109565 0.1110689 0.1111195 0.1110739 0.1109297 0.1106921 0.1103651 0.1100006
 0.1096093 0.1092842 0.1090315 0.1089329 0.1089642 0.1091157 0.1093445 0.1095715 0.1097801 0.1099147
 0.1099904 0.1099976 0.1099663 0.109909 0.1098527 0.1098131 0.1097918 0.1097961 0.1098008 0.1098034
 0.1097809 0.1097293 0.1096548 0.1095576 0.1094634 0.109372 0.1092866 0.1092027 0.1090915 0.108953
 0.108767 0.1085477 0.1083163 0.1080918 0.1079201 0.107798 0.1077444 0.1077374 0.1077621 0.107814
 0.107888 0.1079779 0.108092 0.1081725 0.1082116 0.1081365 0.1079271 0.107587 0.1071037 0.1066307
 0.1061752 0.1060223 0.1061702 0.1066551 0.1074234 0.1081291 0.1087679 0.1091334 0.1092731 0.1092025
 0.1089619 0.1086194 0.1082175 0.1078254 0.1074905 0.1072791 0.1071974 0.1072864 0.1074635 0.1077151
 0.1079394 0.1080993 0.1081788 0.1081643 0.1081008 0.1079921 0.1078655 0.107723 0.1075624 0.1073846
 0.1071997 0.107013 0.1068652 0.10676 0.1067377 0.1067912 0.1069271 0.1071275 0.1073697 0.1076268
 0.1078609 0.1080448 0.1081398 0.1081451 0.1080412 0.1078659 0.1076233 0.10737 0.107122 0.106913
 0.106754 0.1066385 0.1065668 0.1065329 0.1065364 0.1065953 0.1067096 0.1068807 0.1071034 0.1073428
 0.1075932 0.1078133 0.108001 0.1081295 0.1082017 0.1082071 0.108159 0.1080641 0.1079486 0.1078339
 0.1077467 0.1077106 0.1077304 0.1078193 0.1079493 0.108121 0.108282 0.1084243 0.1085033 0.1085112
 0.1084448 0.1083027 0.1081227 0.1079077 0.1077122 0.1075371 0.1074181 0.1073465 0.1073091 0.1072936
 0.1072587 0.1072062 0.1071165 0.1070054 0.1068873 0.1067655 0.1066576 0.1065307 0.1063733 0.1061507
 0.1058339 0.1054589 0.1050147 0.1046156 0.1042809 0.1040841 0.104042 0.1041084 0.1042812 0.1045229
 0.1048332 0.1052157 0.105659 0.1060866 0.106483 0.1067354 0.1068586 0.1068223 0.1066742 0.1064818
 0.10629 0.1061982 0.1061793 0.106255 0.1063556 0.1064379 0.1064857 0.1064731 0.1064409 0.106391
 0.1063811 0.1064242 0.1065421 0.1067439 0.1069783 0.1072434 0.1074511 0.1075984 0.1076309 0.1075562
 0.1073929 0.1071646 0.106974 0.1068416 0.1068932 0.1070858 0.1074127 0.1077974 0.1081235 0.1083939
 0.108556 0.1086792 0.1087915 0.1089398 0.1091634 0.1094266 0.1097354 0.1100129 0.1102426 0.1103981
 0.1104685 0.1105108 0.1105266 0.1106307 0.1108267 0.1111855 0.1116892 0.1122418 0.1128212 0.1132755
 0.1136202 0.1138187 0.1138976 0.1138876 0.1138105 0.1136959 0.1135876 0.1135249 0.1135651 0.1137634
 0.1141139 0.1146387 0.1152714 0.1159939 0.1167794 0.1176207 0.1185041 0.1194311 0.1203488 0.121254
 0.122111 0.1229197 0.1236829 0.1244 0.1250677 0.1256839 0.1262337 0.1267239 0.1271631 0.1275641
 0.1279529 0.1283435 0.1287522 0.1292232 0.129792 0.1305183 0.1314767 0.1325952 0.1338884 0.1351751
 0.136393 0.1374957 0.1384528 0.1393384 0.140157 0.1409747 0.1417973 0.142634 0.1434828 0.1442981
 0.1450778 0.1457757 0.1464124 0.1470364 0.1476958 0.1485647 0.1496288 0.1509835 0.152487 0.1539825
 0.1553968 0.1565747 0.1576045 0.1584857 0.1593398 0.1602281 0.1611865 0.1622526 0.1633523 0.1644785
 0.1655644 0.1665946 0.1676049 0.1685953 0.1696572 0.1707924 0.1720308 0.1733606 0.1747052 0.1760561
 0.177332 0.1785453 0.179688 0.1807735 0.181824 0.1828444 0.1838461 0.1848414 0.1858451 0.1868643
 0.1879134 0.1889729 0.1900332 0.1910983 0.1921547 0.1932766 0.1944778 0.1958043 0.1972758 0.1987783
 0.2003072 0.2016968 0.2029441 0.2040222 0.2049442 0.2057992 0.2065976 0.2074346 0.2083026 0.2092353
 0.2102075 0.2111839 0.2121523 0.213067 0.2139686 0.2148656 0.2158352 0.2169407 0.2181865 0.2196177
 0.2211038 0.2226208 0.2240448 0.2253377 0.2264961 0.2275094 0.2284477 0.2293142 0.2301902 0.2310788
 0.2320281 0.2330342 0.2340868 0.2351799 0.236278 0.2373862 0.2385005 0.2396284 0.2407905 0.2419702
 0.2431596 0.244327 0.2454347 0.2464807 0.2474435 0.2483615 0.2492444 0.2501301 0.2510362 0.2519632
 0.2529173 0.2538705 0.2548192 0.2557507 0.2566627 0.2575748 0.2584879 0.2594221 0.2603754 0.2613393
 0.2623111 0.263272 0.2642248 0.2651677 0.266105 0.2670459 0.2679887 0.2689369 0.2698828 0.2708212
 0.2717438 0.2726415 0.2735177 0.2743675 0.2752134 0.2760603 0.2769309 0.2778331 0.2787636 0.2797244
 0.2806944 0.2816721 0.2826415 0.2836018 0.2845411 0.2854583 0.2863385 0.2871821 0.287981 0.2887397
 0.2894646 0.2901633 0.2908525 0.2915419 0.2922528 0.2929887 0.2937646 0.2945671 0.2953928 0.2962272
 0.2970595 0.2978962 0.2987379 0.2995886 0.3004542 0.301303 0.3021319 0.3029113 0.3036367 0.3043388
 0.30502 0.3057412 0.3064999 0.3073052 0.3081441 0.3089604 0.3097473 0.3104493 0.3110827 0.3116477
 0.3121764 0.3127159 0.3132801 0.3139089 0.3145736 0.3152713 0.3159619 0.3166205 0.3172466 0.3178304
 0.3183995 0.3189599 0.3195189 0.3200792 0.3206331 0.3211793 0.3217284 0.3222812 0.3228581 0.3234589
 0.3240898 0.3247507 0.3254438 0.3261697 0.3269341 0.3277293 0.3285455 0.3293679 0.3301708 0.3309469
 0.3316792 0.3323672 0.3330078 0.3335946 0.3341245 0.3345913 0.3349889 0.3353311 0.3356158 0.3358786
 0.3361221 0.3363877 0.3366788 0.3370249 0.3374271 0.3378925 0.3384198 0.3389995 0.3396282 0.3402871
 0.3409679 0.3416375 0.3422844 0.3428658 0.3433859 0.343823 0.3442129 0.3445774 0.3449608 0.3454067
 0.345915 0.3465105 0.3471285 0.3477592 0.3483262 0.3488053 0.3491904 0.3494703 0.349721 0.3499475
 0.3502136 0.3505207 0.3508353 0.3511509 0.3513867 0.3515498 0.3516263 0.3516415 0.3516664 0.3517173
 0.3518689 0.3521074 0.3524511 0.3528646 0.3533205 0.3537883 0.3542323 0.3546606 0.3550576 0.3554792
 0.3559387 0.3564842 0.3571389 0.3578626 0.3586618 0.3594159 0.3601159 0.3606705 0.3610771 0.3613556
 0.3615139 0.3616387 0.3617305 0.361839 0.3619556 0.3620722 0.3621987 0.3623427 0.3625376 0.362842
 0.3632573 0.3638276 0.3644785 0.3651814 0.3658471 0.3664127 0.3668809 0.3672231 0.3675364 0.3678355
 0.3682018 0.3686555 0.3691795 0.3697776 0.3703582 0.3709165 0.371364 0.371702 0.3719049 0.3719869
 0.3719999 0.3719655 0.3719779 0.3720492 0.372257 0.3725856 0.3730563 0.3736187 0.3742373 0.3748497
 0.3753973 0.3758585 0.3761955 0.3764566 0.3766426 0.376829 0.3770338 0.3772985 0.3776323 0.3780473
 0.3785445 0.3791476 0.3798579 0.380695 0.3816521 0.3826773 0.3837492 0.3847316 0.3856095 0.3862513
 0.3866844 0.3868866 0.3869328 0.3869192 0.386916 0.387045 0.3872997 0.3877351 0.3882508 0.3888247
 0.3893304 0.3897179 0.3899252 0.3899182 0.3897415 0.3893884 0.3889766 0.3885145 0.3881044 0.3877507
 0.3874742 0.3872707 0.3871014 0.3869649 0.3868319 0.38671 0.3866087 0.3865339 0.3865098 0.3865225
 0.3865742 0.3866165 0.386611 0.3864869 0.3861785 0.3856548 0.3848648 0.3838773 0.3826874 0.3814352
 0.3801481 0.3789382 0.3778301 0.376847 0.3759963 0.3752263 0.3745342 0.3738344 0.3731242 0.3723384
 0.3714866 0.3705816 0.3696441 0.3687531 0.3679094 0.3671649 0.3664804 0.3658225 0.3651474 0.3643855
 0.3635453 0.3625939 0.3616076 0.3606053 0.3596859 0.3588916 0.3582636 0.3578349 0.3575239 0.3573355
 0.357094 0.3567845 0.35628 0.3555749 0.3547079 0.3536912 0.3526785 0.3516755 0.3507982 0.3500294
 0.3493749 0.3488119 0.3482909 0.3478041 0.3473167 0.3468325 0.3463438 0.3458532 0.3453622 0.3448655
 0.3443621 0.3438426 0.3433022 0.3427401 0.3421524 0.3415574 0.340956 0.340375 0.3398173 0.339291
 0.3387963 0.3383111 0.3378333 0.3373313 0.336806 0.3362448 0.3356543 0.3350496 0.3344372 0.3338413
 0.3332593 0.3327007 0.3321538 0.3316105 0.3310587 0.3304859 0.3298874 0.3292565 0.3285973 0.3279083
 0.3272003 0.3264741 0.3257462 0.3250183 0.3243087 0.3236194 0.3229614 0.3223353 0.3217337 0.3211548
 0.3205729 0.3199867 0.3193728 0.3187366 0.3180816 0.3174187 0.3167762 0.3161562 0.3155804 0.3150315
 0.3145017 0.3139684 0.313406 0.3128223 0.3122044 0.3116032 0.3110322 0.3105372 0.3101416 0.3098131
 0.3095599 0.3092693 0.3089326 0.3084525 0.3078239 0.3070596 0.3061687 0.3052645 0.3043568 0.3035641
 0.3028776 0.3023382 0.3019139 0.3015566 0.3012285 0.3008438 0.300393 0.2998208 0.2991687 0.298442
 0.2977068 0.2970026 0.2963573 0.2957975 0.2952947 0.294847 0.2944267 0.2940238 0.2936643 0.2933477
 0.293128 0.2930081 0.2929945 0.2930807 0.2931896 0.2933089 0.2933249 0.2932392 0.2929889 0.2926025
 0.2921099 0.2915493 0.2909995 0.29047 0.2900094 0.2895913 0.2892092 0.2888453 0.2884796 0.2881377
 0.2878232 0.2875651 0.2873794 0.2872358 0.2871361 0.2870166 0.2868687 0.2866875 0.2864721 0.2862928
 0.2861517 0.2861019 0.2861335 0.2862159 0.2863359 0.2864258 0.2864896 0.2864992 0.2864734 0.286432
 0.2863838 0.286354 0.2863209 0.2862846 0.2861961 0.2860307 0.2857486 0.2853195 0.2847687 0.2840827
 0.2833681 0.2826349 0.282001 0.2814826 0.2811033 0.2808655 0.280671 0.2805122 0.2802574 0.2799103
 0.2794201 0.2788102 0.2781365 0.2774222 0.2767551 0.2761332 0.2755974 0.2751224 0.2746962 0.2742947
 0.2738932 0.2734833 0.2730516 0.2726056 0.2721414 0.2716841 0.2712374 0.2708304 0.2704726 0.270151
 0.2698694 0.2695518 0.2691943 0.2687278 0.2681555 0.2675051 0.2667903 0.2661137 0.2654743 0.2649308
 0.2644556 0.2640098 0.2635739 0.2630865 0.2625721 0.2620276 0.2615012 0.2610334 0.2606463 0.2603676
 0.2601872 0.2601062 0.2601183 0.2602203 0.26042 0.2607208 0.2611104 0.2615918 0.2621012 0.2626357
 0.2630919 0.2634647 0.2636586 0.2636761 0.2634794 0.2630848 0.262527 0.261831 0.2610725 0.2602718
 0.2594964 0.2587567 0.2580895 0.2574995 0.2570014 0.2565987 0.256298 0.2560973 0.256 0.2559912
 0.2560696 0.2562136 0.2564175 0.2566822 0.2570037 0.2574343 0.2579766 0.258715 0.2596515 0.2608335
 0.2622501 0.2638604 0.2656445 0.2675042 0.2694298 0.2713432 0.273255 0.2751451 0.2770335 0.2789354
 0.2808661 0.2828419 0.2848744 0.2869723 0.2891497 0.2914151 0.2937713 0.2962275 0.2987476 0.3013348
 0.3039021 0.3064447 0.3088495 0.3111096 0.3131289 0.3149048 0.3163844 0.31757 0.3184463 0.3190213
 0.3193077 0.3193333 0.3191568 0.3188401 0.3185039 0.3182233 0.3181381 0.3182823 0.318741 0.319484
 0.3205214 0.3218042 0.3233119 0.3250268 0.3269391 0.3290515 0.3313652 0.3338676 0.3365597 0.3394048
 0.3424013 0.3454855 0.3486516 0.3517993 0.354921 0.3579124 0.360779 0.3634805 0.3660375 0.3684868
 0.3708296 0.3731102 0.3752539 0.377231 0.3788486 0.3799802 0.380347 0.3797615 0.3780322 0.3749915
 0.3707675 0.3652934 0.3590707 0.3521368 0.3451384 0.3381452 0.3316282 0.3256231 0.3202701 0.3155631
 0.3113939 0.3077456 0.3044525 0.3015099 0.2988149 0.2963647 0.2941085 0.2920265 0.2900661 0.2881996
 0.2863682 0.28457 0.2827751 0.2810186 0.2793078 0.2776878 0.2761786 0.2748046 0.2735769 0.2725016
 0.2715802 0.2708212 0.2702243 0.2698139 0.2695914 0.2695868 0.2697991 0.2702191 0.2708323 0.2715409
 0.2723172 0.2729967 0.2735681 0.2739037 0.2740437 0.2739832 0.2738096 0.2736194 0.2735049 0.2735765
 0.2738896 0.2745121 0.2754463 0.2767144 0.2782803 0.2801398 0.2822579 0.2846292 0.287228 0.290062
 0.2929975 0.2960335 0.2987373 0.30107 0.3023148 0.302444 0.3008678 0.2976834 0.2929052 0.286774
 0.2798972 0.2725157 0.265352 0.2584957 0.2523729 0.2469043 0.2421799 0.2380491 0.2344501 0.2312621
 0.228422 0.2258621 0.223554 0.2214557 0.2195567 0.2178259 0.2162592 0.2148333 0.2135468 0.2123709
 0.2113031 0.2103023 0.2093658 0.2084556 0.2075728 0.2067004 0.2058449 0.2050131 0.2042138 0.203468
 0.2027759 0.2021527 0.2015781 0.201045 0.2005199 0.1999785 0.1994076 0.1987881 0.1981513 0.197497
 0.1968784 0.1963071 0.1958062 0.1953834 0.1950059 0.1946727 0.1943284 0.1939718 0.1935829 0.1931668
 0.1927526 0.1923427 0.1919668 0.1916129 0.191266 0.19091 0.1905035 0.1900504 0.1895319 0.1889773
 0.1884024 0.1878413 0.1873199 0.1868555 0.1864651 0.1861397 0.1858856 0.1856657 0.1854777 0.1852688
 0.1850324 0.184735 0.184373 0.1839594 0.1834964 0.1830301 0.1825627 0.1821336 0.1817401 0.1813922
 0.1810837 0.1808036 0.1805468 0.1802986 0.180057 0.1798127 0.1795677 0.1793182 0.1790731 0.1788348
 0.178616 0.1784249 0.1782608 0.1781309 0.1780042 0.1778791 0.1777115 0.1774942 0.1772172 0.1768778
 0.1765212 0.1761502 0.1758245 0.1755422 0.1753196 0.1751466 0.1749886 0.1748384 0.1746544 0.1744443
 0.1741991 0.1739391 0.1736873 0.173458 0.1732777 0.1731344 0.1730354 0.1729407 0.1728374 0.1726872
 0.1724722 0.1721916 0.1718371 0.1714508 0.1710351 0.1706407 0.1702718 0.1699506 0.169677 0.1694382
 0.1692315 0.1690315 0.168837 0.1686298 0.1684105 0.1681708 0.1679133 0.1676374 0.1673503 0.1670593
 0.1667745 0.1665084 0.1662639 0.1660495 0.1658536 0.1656748 0.1654967 0.1653129 0.1651195 0.164913
 0.1647045 0.1644946 0.1642957 0.1641091 0.163937 0.1637794 0.1636324 0.1634961 0.1633702 0.1632553
 0.1631548 0.1630664 0.1629865 0.1629078 0.1628146 0.1627006 0.1625486 0.162363 0.1621389 0.1618905
 0.161625 0.1613537 0.1610842 0.1608186 0.1605586 0.1603054 0.1600583 0.1598255 0.1596078 0.1594119
 0.1592388 0.1590823 0.1589416 0.1587999 0.1586565 0.1584979 0.1583252 0.1581357 0.1579319 0.1577188
 0.1574983 0.1572765 0.1570542 0.1568352 0.1566198 0.1564094 0.1562044 0.1560048 0.1558124 0.1556275
 0.1554528 0.1552894 0.1551379 0.1549994 0.1548679 0.1547433 0.1546149 0.1544817 0.1543362 0.1541783
 0.1540114 0.1538368 0.1536671 0.1535026 0.1533536 0.1532169 0.1530889 0.1529636 0.1528268 0.1526766
 0.1525028 0.1523117 0.1521048 0.1518905 0.1516753 0.151462 0.151254 0.1510507 0.1508524 0.1506599
 0.1504737 0.1502913 0.150113 0.149932 0.1497475 0.14956 0.14937 0.1491905 0.1490221 0.1488757
 0.1487485 0.1486338 0.1485276 0.1484134 0.1482913 0.1481527 0.1480016 0.1478406 0.1476723 0.1475007
 0.1473253 0.1471463 0.1469653 0.1467818 0.1466025 0.1464291 0.146267 0.1461187 0.145979 0.1458484
 0.1457137 0.1455736 0.1454217 0.1452579 0.1450894 0.1449171 0.1447517 0.1445921 0.1444392 0.1442908
 0.1441401 0.1439868 0.1438263 0.143661 0.1434921 0.143323 0.1431575 0.1429992 0.1428523 0.1427174
 0.1425973 0.1424864 0.1423843 0.1422821 0.1421776 0.1420668 0.1419485 0.1418238 0.1416928 0.1415553
 0.1414112 0.1412595 0.1411009 0.1409397 0.1407771 0.1406214 0.1404724 0.1403345 0.140206 0.1400852
 0.1399706 0.1398589 0.1397498 0.1396417 0.1395358 0.1394322 0.139333 0.1392393 0.1391516 0.1390704
 0.1389942 0.1389225 0.1388551 0.1387917 0.1387335 0.1386805 0.1386296 0.1385807 0.1385265 0.1384673
 0.1383997 0.1383245 0.1382429 0.1381539 0.138055 0.1379446 0.1378166 0.1376738 0.1375159 0.1373495
 0.1371818 0.137016 0.1368577 0.1367037 0.136554 0.136405 0.1362549 0.1361039 0.1359518 0.1358
 0.1356487 0.1354977 0.135347 0.1351969 0.1350475 0.1349016 0.1347592 0.1346232 0.134493 0.1343676
 0.1342453 0.1341206 0.1339921 0.1338532 0.1337057 0.1335476 0.1333852 0.1332228 0.1330675 0.1329266
 0.1327999 0.1326917 0.1325895 0.1324917 0.132382 0.1322554 0.1321081 0.1319373 0.131756 0.1315649
 0.1313808 0.1312045 0.131043 0.1308957 0.1307608 0.130638 0.1305244 0.1304194 0.1303201 0.1302241
 0.1301255 0.1300218 0.1299062 0.12978 0.1296409 0.1294958 0.1293479 0.1292059 0.1290756 0.1289596
 0.1288618 0.128775 0.1286991 0.1286231 0.1285453 0.1284606 0.1283684 0.1282709 0.1281683 0.1280634
 0.1279562 0.1278461 0.1277331 0.1276166 0.1274977 0.1273787 0.1272611 0.1271493 0.1270438 0.1269476
 0.1268591 0.1267783 0.1267019 0.1266276 0.1265536 0.1264783 0.126401 0.1263216 0.1262377 0.1261493
 0.1260523 0.1259458 0.1258294 0.1257028 0.1255725 0.125439 0.1253131 0.1251951 0.1250931 0.1250066
 0.1249366 0.1248808 0.1248331 0.1247901 0.1247416 0.1246859 0.1246147 0.1245313 0.1244346 0.124333
 0.1242318 0.1241375 0.1240566 0.1239846 0.1239233 0.1238588 0.1237881 0.1237031 0.1236006 0.1234904
 0.1233725 0.123265 0.1231687 0.1230875 0.1230196 0.122946 0.1228633 0.1227435 0.1225857 0.1223717
 0.1221051 0.1217841 0.1214144 0.1210045 0.1205563 0.120078 0.1195616 0.1190071 0.1183973 0.117724
 0.1169734 0.1161364 0.1152177 0.1142141 0.1131465 0.1120163 0.1108474 0.109641 0.1084268 0.1072069
 0.1060416 0.1049381 0.1039934 0.1032174 0.102713 0.1024875 0.1026229 0.1031129 0.1040103 0.1052355
 0.1067226 0.1083118 0.1098051 0.1111062 0.1120664 0.112704 0.1129819 0.1129691 0.1126713 0.1121864
 0.1115245 0.110828 0.1101155 0.1095172 0.1090506 0.1087248 0.1085405 0.1084439 0.1084349 0.1084986
 0.1086354 0.1088425 0.109113 0.1094224 0.1097628 0.1101029 0.1104426 0.1107653 0.1110807 0.1113916
 0.1117108 0.112051 0.1124118 0.1128013 0.1131968 0.1135943 0.1139659 0.114303 0.1145963 0.1148413
 0.115052 0.1152284 0.1153947 0.1155522 0.1157179 0.1158912 0.1160698 0.1162512 0.1164203 0.116576
 0.1167067 0.1168143 0.1168972 0.1169582 0.1170008 0.117027 0.1170399 0.1170424 0.1170369 0.1170282
 0.1170192 0.1170143 0.1170164 0.1170261 0.1170449 0.1170689 0.1170983 0.1171268 0.117154 0.1171736
 0.1171852 0.1171825 0.1171656 0.117131 0.1170799 0.117016 0.1169418 0.1168677 0.1167947 0.116731
 0.1166738 0.1166225 0.1165733 0.1165209 0.1164658 0.1164055 0.1163446 0.1162849 0.1162297 0.1161813
 0.1161386 0.116102 0.1160688 0.1160383 0.11601 0.1159837 0.1159604 0.1159401 0.1159217 0.1159047
 0.1158846 0.1158618 0.115834 0.1158027 0.115772 0.1157429 0.1157201 0.1157026 0.1156908 0.1156835
 0.1156795 0.1156796 0.1156851 0.1156939 0.1157075 0.1157164 0.1157183 0.1157041 0.1156696 0.1156186
 0.1155499 0.1154781 0.1154045 0.1153404 0.1152865 0.1152433 0.1152103 0.1151827 0.11516 0.1151378
 0.1151155 0.1150881 0.1150557 0.1150146 0.1149671 0.1149147 0.11486 0.1148074 0.1147562 0.1147073
 0.1146599 0.1146122 0.1145698 0.1145339 0.1145105 0.1145034 0.1145035 0.1145114 0.1145065 0.1144866
 0.1144423 0.114373 0.1142921 0.1142006 0.1141178 0.1140428 0.1139805 0.1139282 0.1138774 0.1138275
 0.1137717 0.1137136 0.1136558 0.1136028 0.1135617 0.1135312 0.1135144 0.1135034 0.113495 0.1134818
 0.1134594 0.1134275 0.1133846 0.1133349 0.1132786 0.1132199 0.1131591 0.1131002 0.1130436 0.1129935
 0.1129498 0.1129131 0.1128825 0.1128525 0.1128223 0.1127856 0.1127432 0.1126936 0.1126394 0.1125839
 0.1125293 0.1124802 0.112436 0.1123987 0.1123647 0.1123329 0.1122988 0.1122604 0.1122152 0.1121618
 0.1121007 0.1120314 0.111958 0.1118807 0.1118058 0.1117337 0.111669 0.1116116 0.1115614 0.111518
 0.1114791 0.1114445 0.1114116 0.1113791 0.1113422 0.1112993 0.1112441 0.1111792 0.1111036 0.1110245
 0.1109473 0.1108765 0.1108174 0.1107656 0.1107211 0.110677 0.1106307 0.1105816 0.1105286 0.1104752
 0.110422 0.1103686 0.110315 0.1102567 0.1101937 0.110124 0.1100484 0.1099706 0.1098913 0.1098152
 0.1097418 0.1096727 0.1096069 0.1095438 0.1094819 0.10942 0.1093554 0.1092854 0.1092082 0.1091205
 0.109027 0.1089274 0.1088311 0.1087408 0.1086609 0.1085935 0.1085325 0.1084777 0.1084202 0.1083594
 0.1082928 0.1082206 0.1081464 0.1080704 0.1079962 0.1079234 0.1078522 0.1077822 0.1077119 0.1076414
 0.1075698 0.1074976 0.1074251 0.107352 0.1072786 0.1072041 0.1071279 0.10705 0.1069698 0.1068884
 0.106806 0.1067229 0.1066393 0.1065532 0.1064647 0.1063701 0.1062694 0.1061613 0.1060462 0.1059277
 0.1058071 0.1056928 0.1055857 0.1054945 0.1054183 0.1053604 0.1053169 0.1052841 0.1052566 0.1052267
 0.1051896 0.1051385 0.1050723 0.1049874 0.1048887 0.1047764 0.1046591 0.1045389 0.104423 0.1043132
 0.1042123 0.1041209 0.1040384 0.1039646 0.1038957 0.103831 0.1037618 0.1036876 0.1035987 0.1034965
 0.1033795 0.1032518 0.103123 0.102997 0.1028858 0.1027888 0.1027109 0.102647 0.1025951 0.102549
 0.1025052 0.1024579 0.1024042 0.1023398 0.1022625 0.1021728 0.1020695 0.1019592 0.1018423 0.1017256
 0.1016096 0.1014945 0.1013801 0.101263 0.1011437 0.1010244 0.1009067 0.1007988 0.1007007 0.1006178
 0.1005465 0.1004835 0.1004245 0.1003622 0.1002957 0.1002213 0.1001422 0.1000587 0.09997537 0.09989376
 0.09981807 0.09974986 0.09969108 0.09964305 0.09960154 0.09956674 0.09952909 0.09948802 0.09943675 0.09937535
 0.09930564 0.09922845 0.09915043 0.09907227 0.09900032 0.09893444 0.09887806 0.09882942 0.09878787 0.09874936
 0.09870897 0.09866247 0.09860361 0.09853306 0.09844773 0.09835567 0.09825861 0.09816632 0.09808268 0.0980091
 0.0979476 0.09788925 0.09783331 0.09777237 0.09770572 0.09763666 0.09756557 0.09750038 0.09744079 0.09738865
 0.09734275 0.09729914 0.09725694 0.09721233 0.09716409 0.09710856 0.09704424 0.09696661 0.09687839 0.09677819
 0.09667595 0.09657649 0.09648959 0.09642223 0.09637219 0.09634221 0.09631845 0.09629905 0.0962719 0.09623478
 0.09618742 0.09612947 0.09606943 0.09600756 0.0959487 0.09589182 0.09583156 0.0957668 0.09568923 0.09560028
 0.09549845 0.09538817 0.09527596 0.09516766 0.09507317 0.0949967 0.09494702 0.09492038 0.09491981 0.09493095
 0.0949498 0.09496079 0.09495804 0.09493581 0.0948909 0.09482961 0.09475153 0.09467097 0.09458882 0.09451777
 0.094458 0.09441061 0.0943743 0.09433929 0.09430502 0.09426328 0.09421568 0.0941625 0.09410519 0.09404715
 0.09398761 0.09392694 0.09386434 0.09379874 0.09373109 0.09366124 0.09359148 0.09352253 0.09345683 0.09339535
 0.093339 0.09328825 0.09324231 0.09320104 0.09316488 0.09313388 0.09310748 0.09308513 0.09305509 0.09301555
 0.09294569 0.09284676 0.09270963 0.0925437 0.09236781 0.09219535 0.09206307 0.09197141 0.09194232 0.09195321
 0.09199336 0.09203752 0.09206413 0.09206811 0.09203923 0.091991 0.09192488 0.09185445 0.0917838 0.09171259
 0.09164183 0.0915636 0.09147738 0.09137857 0.09126712 0.0911429 0.09100723 0.09086867 0.09073187 0.09062242
 0.09054249 0.09051622 0.09053135 0.09057797 0.09063898 0.09068493 0.0907129 0.09070856 0.09067817 0.09062135
 0.09054504 0.09045017 0.09034959 0.09024508 0.09015638 0.09008807 0.09005 0.09004533 0.09006402 0.09010582
 0.09015464 0.09020983 0.09026141 0.09030938 0.09034897 0.09038052 0.090403 0.09041652 0.09042083 0.09041598
 0.09040052 0.0903784 0.09035277 0.09033114 0.09032311 0.09032863 0.09035274 0.09038568 0.09042295 0.09046327
 0.0905029 0.09055507 0.09062209 0.09071222 0.0908286 0.0909568 0.09109654 0.0912208 0.09132863 0.09140499
 0.09145217 0.09148162 0.09149796 0.09153045 0.09157674 0.0916479 0.09173302 0.09181315 0.09188762 0.09194379
 0.09199534 0.09205179 0.09212046 0.09221324 0.0923176 0.09243216 0.092541 0.09263688 0.0927202 0.09278621
 0.09286052 0.09294229 0.09308723 0.09329955 0.09361844 0.09404339 0.09453052 0.09507501 0.09561133 0.09614802
 0.09668693 0.09724554 0.09787632 0.09858868 0.09942966 0.1003911 0.1014863 0.102691 0.1039881 0.1053543
 0.1067626 0.1082239 0.1097288 0.1113222 0.1130261 0.1148219 0.1167279 0.1186019 0.1204289 0.1220962
 0.1235906 0.1249341 0.1261283 0.1272252 0.1282233 0.1291269 0.1299375 0.1306582 0.1313047 0.1319242
 0.1325309 0.1331826 0.133868 0.1345989 0.1353519 0.1361023 0.1368524 0.1375915 0.138343 0.1391159
 0.1399235 0.1407732 0.141662 0.1425839 0.1435754 0.1446306 0.1458802 0.1473349 0.1490741 0.1510943
 0.153188 0.1553413 0.1573272 0.1591795 0.1609413 0.1626521 0.1644555 0.1663594 0.1684421 0.1707126
 0.1731893 0.1759547 0.1790582 0.1826793 0.1869598 0.1919903 0.1979412 0.2044575 0.2115334 0.2185396
 0.2253227 0.2316125 0.2373297 0.2425835 0.2473701 0.2519209 0.2562518 0.2607164 0.2653475 0.2706381
 0.2765366 0.2831405 0.2902019 0.2969575 0.3033659 0.3088862 0.313814 0.3183575 0.3227291 0.3272531
 0.3319182 0.3368287 0.3418773 0.3470338 0.352236 0.357475 0.3626322 0.3676907 0.3725061 0.3770416
 0.3813611 0.3854648 0.3894699 0.3933763 0.3970256 0.4004012 0.4032566 0.4056294 0.4075626 0.4091316
 0.4106134 0.412001 0.4134507 0.4148279 0.4159679 0.4168708 0.4174343 0.4178189 0.4181276 0.4183969
 0.4186963 0.4189194 0.4190418 0.4190009 0.4187689 0.4183792 0.4178307 0.4171739 0.4164137 0.4155639
 0.4146244 0.4135678 0.4123926 0.4110738 0.4096114 0.4079953 0.4062199 0.404263 0.4021196 0.39976
 0.397205 0.3944672 0.3915796 0.3885941 0.3854854 0.3822627 0.3788607 0.3752258 0.3714141 0.3673989
 0.363398 0.3594583 0.3557053 0.3521756 0.3488096 0.3456049 0.3425171 0.3395457 0.3367527 0.3341414
 0.331771 0.3296316 0.3277016 0.3259734 0.324408 0.3230124 0.321782 0.3207266 0.3198565 0.3191838
 0.318721 0.3184871 0.318499 0.3187686 0.3193032 0.3201182 0.3212115 0.3226354 0.3244 0.3265495
 0.3291021 0.3319874 0.3352066 0.3385946 0.342143 0.3457213 0.3493208 0.3528267 0.3562004 0.3591806
 0.3617337 0.3635753 0.3647886 0.3653874 0.3655272 0.3654472 0.3652473 0.3651362 0.365101 0.3652003
 0.3653841 0.3656131 0.3659653 0.3664154 0.367237 0.3684944 0.3703469 0.3728915 0.3756011 0.3784449
 0.3809009 0.3829493 0.3847114 0.3862039 0.3876476 0.3890322 0.3904134 0.3917741 0.3930852 0.3943476
 0.3955673 0.396705 0.3977721 0.3985395 0.3987986 0.3982995 0.3967135 0.3942019 0.3907315 0.3865827
 0.3818337 0.376712 0.3712502 0.3657774 0.3603406 0.3552001 0.3503922 0.3459035 0.3417334 0.3377379
 0.3339169 0.3302199 0.3266609 0.3232987 0.3201273 0.3171729 0.3143875 0.3116836 0.3090096 0.3062432
 0.3033745 0.3003497 0.2971685 0.2938372 0.2902814 0.2864704 0.2823285 0.2777435 0.2730524 0.2682614
 0.2639549 0.2602717 0.2571299 0.254553 0.2521007 0.2497525 0.2472865 0.2447156 0.2421155 0.2395088
 0.2370679 0.2347768 0.2326663 0.2307236 0.2289131 0.2272872 0.2259052 0.2248285 0.2241653 0.2238856
 0.2240126 0.2244705 0.2252236 0.2262329 0.2274741 0.2289427 0.2306238 0.2325751 0.2347885 0.2374408
 0.24055 0.2442162 0.2484412 0.2528222 0.2573188 0.2613094 0.2648179 0.2676553 0.2698812 0.2716018
 0.2728406 0.2736886 0.2741806 0.2743828 0.2743958 0.2743323 0.2743251 0.2745341 0.2749462 0.2756501
 0.2763924 0.2770948 0.2776143 0.2778772 0.2779722 0.2778984 0.2777726 0.2776071 0.2774516 0.2773091
 0.2771677 0.2770253 0.2768535 0.2766531 0.2764131 0.2761383 0.275839 0.2755197 0.2751977 0.2748701
 0.2745389 0.2742027 0.2738525 0.2735137 0.2731932 0.2729419 0.2727868 0.2727657 0.2729039 0.2731921
 0.273636 0.2742017 0.2748843 0.2756655 0.2765447 0.2774931 0.2785088 0.2794896 0.2804275 0.2811916
 0.2817843 0.2821509 0.2823041 0.2822584 0.282024 0.2816288 0.2810829 0.2804111 0.2796276 0.2787579
 0.2778087 0.2767982 0.2757103 0.2745443 0.2732751 0.2718884 0.2703916 0.2687738 0.2671022 0.2653809
 0.2636999 0.2620697 0.2605268 0.2590735 0.257688 0.256369 0.2550947 0.2538677 0.2526928 0.2515716
 0.2505153 0.2495151 0.2485605 0.2476319 0.2466966 0.2457317 0.2446991 0.2435853 0.2423616 0.2410457
 0.2396293 0.2381694 0.236681 0.2352211 0.2338117 0.2324568 0.2311651 0.2298901 0.2286284 0.2273393
 0.2260204 0.2246897 0.2233522 0.2220788 0.2208722 0.2197883 0.2188183 0.2179615 0.2172079 0.2165319
 0.2159314 0.2153912 0.2149135 0.2144951 0.2141379 0.2138432 0.2136094 0.2134378 0.2133202 0.2132544
 0.2132336 0.2132531 0.2133231 0.2134427 0.2136361 0.2139061 0.2142584 0.2146934 0.2151799 0.2157165
 0.2162733 0.216856 0.2174813 0.2181624 0.2189566 0.2198712 0.2209581 0.2222021 0.2236115 0.2251426
 0.2267617 0.2283955 0.2299922 0.2314488 0.2327075 0.2336627 0.234259 0.2344531 0.2342101 0.2335927
 0.2325954 0.2313531 0.2298752 0.228301 0.226639 0.2249934 0.2233672 0.2218221 0.2203568 0.2189957
 0.2177344 0.2165705 0.2154975 0.2144987 0.2135701 0.2126953 0.2118788 0.2111181 0.210423 0.2098029
 0.2092574 0.2087921 0.2083919 0.2080524 0.207762 0.2075149 0.2073155 0.2071634 0.2070651 0.2070221
 0.2070263 0.2070775 0.2071544 0.2072554 0.2073538 0.2074481 0.207514 0.207554 0.2075605 0.2075429
 0.2075183 0.2074988 0.2075125 0.2075657 0.2076777 0.2078455 0.2080743 0.2083551 0.2086853 0.2090552
 0.2094607 0.2098957 0.2103576 0.2108445 0.2113561 0.2118893 0.2124446 0.2130103 0.213586 0.214152
 0.2147075 0.2152349 0.2157345 0.2161992 0.2166305 0.2170315 0.2174022 0.2177456 0.2180584 0.2183374
 0.2185775 0.2187717 0.2189151 0.2190025 0.2190272 0.2189861 0.2188685 0.2186708 0.2183799 0.2179917
 0.2174983 0.2168964 0.2161914 0.2153821 0.2144891 0.2135135 0.2124844 0.2114035 0.2102982 0.2091689
 0.2080334 0.2068908 0.2057473 0.204602 0.2034543 0.2023067 0.2011619 0.2000277 0.1989142 0.1978285
 0.1967815 0.1957718 0.1948028 0.1938664 0.1929597 0.1920797 0.1912241 0.1903978 0.1896013 0.1888391
 0.1881121 0.187421 0.1867657 0.1861513 0.1855788 0.1850651 0.1846122 0.1842421 0.1839536 0.1837566
 0.183645 0.1836085 0.1836407 0.183724 0.1838586 0.184036 0.1842628 0.184541 0.1848793 0.1852816
 0.1857591 0.1863149 0.1869638 0.18771 0.1885639 0.1895299 0.1906011 0.1917791 0.1930355 0.1943688
 0.1957357 0.1971335 0.198517 0.1998858 0.2012132 0.2025055 0.2037711 0.2050201 0.2062852 0.2075666
 0.2088857 0.2102222 0.2115637 0.2128807 0.2141432 0.215335 0.2164355 0.2174491 0.2183716 0.219214
 0.219978 0.2206741 0.2213032 0.2218817 0.2224106 0.2229142 0.223394 0.2238773 0.2243662 0.2248924
 0.2254586 0.2260993 0.2268154 0.2276302 0.2285419 0.2295574 0.2306764 0.2319013 0.2332314 0.2346708
 0.2362066 0.2378346 0.2395259 0.2412654 0.2430228 0.2447824 0.2465265 0.2482471 0.2499364 0.2515918
 0.2532103 0.254791 0.2563381 0.257852 0.2593441 0.2608148 0.2622701 0.2637072 0.26511 0.266471
 0.2677509 0.2689452 0.2700176 0.270979 0.271827 0.2725867 0.2732874 0.2739498 0.2746045 0.2752539
 0.2759105 0.2765617 0.2772068 0.277828 0.2784209 0.2789706 0.279473 0.2799239 0.2803208 0.2806784
 0.2809969 0.2813127 0.281628 0.2819861 0.2823857 0.2828418 0.2833436 0.2838568 0.2843678 0.2848208
 0.2852129 0.2855114 0.2857229 0.2858439 0.2858776 0.2858263 0.2856902 0.2854678 0.2851661 0.2847857
 0.2843383 0.2838265 0.283263 0.2826485 0.2820044 0.2813319 0.2806615 0.2799952 0.2793563 0.2787457
 0.2781721 0.2776356 0.2771407 0.2766868 0.2762765 0.2759044 0.2755605 0.2752339 0.2749006 0.2745521
 0.2741652 0.273745 0.273284 0.2728021 0.2723072 0.2718208 0.2713547 0.270916 0.2705106 0.2701322
 0.2697814 0.2694453 0.2691234 0.2687937 0.268455 0.2680777 0.267661 0.267188 0.2666609 0.2660876
 0.2654701 0.2648236 0.2641446 0.2634326 0.262681 0.2618766 0.2610172 0.2600928 0.2591097 0.258069
 0.2569805 0.2558512 0.2546858 0.2534881 0.252259 0.2509967 0.2497157 0.2484146 0.2471284 0.2458607
 0.2446423 0.243476 0.2423588 0.2412893 0.240237 0.2392005 0.2381541 0.2371006 0.2360372 0.2349672
 0.2339005 0.232834 0.2317702 0.2306963 0.2295988 0.2284626 0.227268 0.2260095 0.2246759 0.2232751
 0.2218064 0.2202826 0.2187071 0.2170893 0.215432 0.2137385 0.21201 0.2102417 0.2084334 0.2065818
 0.2046875 0.2027673 0.200825 0.198899 0.1969927 0.1951417 0.1933435 0.1916103 0.1899363 0.1883155
 0.1867451 0.185218 0.1837355 0.1822967 0.1809025 0.1795551 0.178249 0.1769845 0.1757486 0.1745385
 0.1733406 0.1721514 0.1709651 0.1697798 0.1686011 0.167429 0.1662756 0.1651415 0.1640334 0.1629501
 0.1618848 0.1608368 0.1597965 0.158769 0.1577621 0.1567835 0.1558548 0.1549724 0.1541449 0.1533542
 0.1525865 0.1518291 0.1510652 0.1503054 0.1495478 0.1488135 0.1481104 0.1474433 0.1468167 0.146216
 0.1456398 0.1450782 0.1445299 0.1440054 0.1435057 0.1430495 0.1426369 0.1422755 0.1419641 0.1417008
 0.1414855 0.1413189 0.1411989 0.1411257 0.1410868 0.1410689 0.1410522 0.1410134 0.1409403 0.1408153
 0.1406444 0.140423 0.1401712 0.1398921 0.1396092 0.139327 0.1390632 0.1388207 0.1386095 0.1384303
 0.1382893 0.1381867 0.1381255 0.1381049 0.1381199 0.138169 0.1382419 0.138339 0.1384556 0.1385928
 0.1387518 0.1389308 0.1391277 0.1393414 0.1395678 0.1398141 0.1400824 0.140383 0.1407225 0.1411008
 0.1415211 0.1419728 0.1424552 0.142955 0.1434721 0.1439837 0.144489 0.1449453 0.1453501 0.1456545
 0.1458586 0.1459385 0.1459008 0.1457597 0.1455262 0.145238 0.1449063 0.1445698 0.1442383 0.1439404
 0.1436832 0.1434839 0.1433444 0.1432718 0.1432615 0.1433144 0.1434209 0.1435805 0.1437759 0.1440058
 0.1442439 0.1444872 0.1447133 0.1449199 0.145105 0.145269 0.145426 0.1455769 0.1457338 0.1458968
 0.1460721 0.1462609 0.146471 0.1467013 0.1469566 0.1472264 0.1475005 0.1477632 0.1479932 0.1481884
 0.1483348 0.1484559 0.148556 0.1486655 0.1487976 0.1489571 0.149151 0.1493539 0.1495639 0.1497578
 0.1499326 0.1500922 0.150237 0.1503869 0.1505427 0.1507216 0.150923 0.1511554 0.1514138 0.1516907
 0.1519748 0.1522378 0.1524752 0.1526608 0.152816 0.1529458 0.1530887 0.1532739 0.1535205 0.1538514
 0.1542473 0.1547112 0.1552039 0.1557188 0.1562218 0.1567071 0.1571575 0.1575704 0.1579539 0.1583089
 0.1586727 0.1590489 0.1594863 0.1599851 0.1605742 0.1612462 0.1619965 0.1628121 0.163668 0.1645449
 0.1654113 0.1662349 0.1669767 0.1676017 0.1680689 0.168378 0.1685058 0.1685122 0.1684026 0.1682661
 0.1681228 0.1680299 0.1680015 0.1680344 0.168131 0.1682501 0.1683893 0.1685101 0.168613 0.1686877
 0.1687388 0.1687822 0.1688227 0.1688835 0.1689664 0.1690876 0.1692438 0.1694396 0.169665 0.1699125
 0.1701725 0.1704334 0.1707004 0.1709704 0.1712601 0.1715756 0.1719212 0.1723012 0.1727014 0.1731211
 0.1735434 0.173967 0.1743775 0.1747743 0.1751448 0.1754905 0.1758191 0.1761382 0.1764882 0.1768788
 0.1773622 0.1779424 0.1786561 0.1794937 0.1804636 0.1815346 0.1826846 0.1838692 0.1850514 0.1862007
 0.1872939 0.1883144 0.1892561 0.1900923 0.1908157 0.1914117 0.1918712 0.1922409 0.1925221 0.1927919
 0.1930539 0.1933354 0.1936336 0.1939261 0.1942139 0.1944888 0.1947591 0.1950496 0.1953597 0.1957061
 0.1960687 0.1964285 0.196759 0.1970237 0.1972132 0.1973044 0.1973143 0.1972426 0.1971156 0.1969416
 0.1967385 0.1965101 0.1962753 0.196035 0.1958218 0.1956382 0.1955108 0.195441 0.1954338 0.1954889
 0.1956062 0.1957848 0.1960233 0.1963149 0.1966382 0.1969839 0.1973207 0.1976453 0.1979398 0.1982016
 0.1984198 0.1985985 0.1987268 0.1988446 0.19896 0.1991384 0.1994197 0.1997702 0.2002081 0.2005796
 0.2008578 0.2009965 0.2009849 0.2008839 0.2006962 0.200474 0.200218 0.1999555 0.1996861 0.199423
 0.1991653 0.1989157 0.1986769 0.1984549 0.1982553 0.198093 0.1979619 0.1978642 0.1977845 0.197707
 0.1976393 0.1975757 0.1975457 0.1975618 0.1976288 0.1977546 0.1979104 0.1980924 0.1982844 0.1984836
 0.1986978 0.198927 0.199163 0.1994028 0.199611 0.1997852 0.1998926 0.1999358 0.1999036 0.1998077
 0.199664 0.1994935 0.1993372 0.1992039 0.1991264 0.1990819 0.1990639 0.1990529 0.1990284 0.1990144
 0.199009 0.1990593 0.1991759 0.1993902 0.1997119 0.200129 0.2006449 0.2011854 0.2017465 0.2022433
 0.2026779 0.2030457 0.2033566 0.2036689 0.2039775 0.2043003 0.2046164 0.2048841 0.2050969 0.2052209
 0.2052732 0.2052571 0.2051962 0.2051082 0.2050122 0.2049224 0.2048504 0.2048032 0.2047863 0.2048014
 0.2048566 0.2049538 0.205097 0.2052886 0.2055021 0.205736 0.2059427 0.2061214 0.2062493 0.2063304
 0.2063752 0.2063866 0.2063773 0.2063543 0.206334 0.2063375 0.2064039 0.2065523 0.2068252 0.2072109
 0.2077236 0.2083158 0.2089771 0.2096318 0.2102583 0.2107738 0.2111515 0.2113608 0.2113848 0.2112816
 0.2110526 0.210785 0.2104837 0.2101835 0.2098821 0.2095587 0.2092105 0.2088108 0.2083627 0.2078628
 0.2073168 0.2067388 0.2061274 0.2054897 0.2048152 0.2040923 0.2033222 0.2024934 0.2016396 0.2007706
 0.1999298 0.1991388 0.1984068 0.1977454 0.1971229 0.1965384 0.1959463 0.1953421 0.1946936 0.193999
 0.1932569 0.1924685 0.1916503 0.1907999 0.1899133 0.1889847 0.1879875 0.1869266 0.185795 0.1846129
 0.1834076 0.1822021 0.1810287 0.1799132 0.1788823 0.1779626 0.1771822 0.1765274 0.1760124 0.1755612
 0.1751612 0.1747372 0.1742701 0.173758 0.1731961 0.1726361 0.1720807</values></Ydata></AB><ScSm><Ydata ylabel="Single channel"><values byteorder="INTEL" format="FLOAT32" numvalues="1814"> 0.046952 0.04696648 0.04702159 0.04713295 0.04728144 0.04742338 0.0475235 0.04757756 0.04759711 0.04758244
 0.04753445 0.04749015 0.04751284 0.04763096 0.04780047 0.0479354 0.0479758 0.04793967 0.04791372 0.0479684
 0.04806307 0.04805453 0.04783037 0.04743688 0.04705214 0.04682349 0.04677511 0.04690576 0.04727359 0.04783113
 0.04824176 0.04811878 0.04750822 0.04691049 0.04672745 0.04687715 0.04702477 0.04697191 0.04672087 0.04639337
 0.04625869 0.04666565 0.04770248 0.04890825 0.04943408 0.04857913 0.04629154 0.04332821 0.04097664 0.04036832
 0.04168411 0.04391641 0.04562299 0.0460792 0.04563164 0.04497435 0.04439551 0.04386477 0.04352143 0.043701
 0.04447714 0.04535269 0.04551841 0.04454336 0.04288034 0.04154281 0.04117953 0.04166467 0.04263783 0.04390709
 0.04490586 0.04436054 0.04152763 0.03780203 0.03612175 0.03818372 0.04263618 0.04639797 0.04740514 0.0457915
 0.04302023 0.04065597 0.0397635 0.04062354 0.04268061 0.04500209 0.04684378 0.04770032 0.0471849 0.0453523
 0.04302752 0.04141603 0.0413654 0.04302479 0.0458112 0.04846483 0.04961692 0.04879231 0.04672872 0.04459701
 0.04322474 0.04307811 0.04437373 0.04686328 0.04982259 0.05246609 0.05426328 0.05499591 0.05480793 0.05411212
 0.05327316 0.05254669 0.05230127 0.05279537 0.05358484 0.05368498 0.05263818 0.05111814 0.05023544 0.05038779
 0.0509382 0.05099093 0.05030087 0.04915317 0.04748875 0.04485413 0.04144512 0.03842048 0.03675167 0.03646898
 0.03733061 0.03920999 0.04130185 0.04206883 0.04091875 0.03929201 0.03924681 0.04126375 0.043984 0.04586096
 0.04659235 0.04702414 0.04805791 0.04973164 0.05109747 0.05093382 0.04894968 0.04647983 0.04555166 0.04690039
 0.04925898 0.05091961 0.05153977 0.0519893 0.05281652 0.05339656 0.05258036 0.05005956 0.04711706 0.04584589
 0.04733142 0.05056586 0.05317653 0.05318916 0.0503591 0.0462256 0.04290466 0.04162537 0.04239015 0.04476947
 0.04838302 0.05248984 0.05578931 0.05714864 0.05643514 0.05444617 0.05199804 0.04917613 0.04576498 0.04248903
 0.0411731 0.04302542 0.04710197 0.05108909 0.05336962 0.05384236 0.05304102 0.05114837 0.04811487 0.04456481
 0.04211285 0.04213168 0.04411042 0.04592076 0.04603823 0.04493983 0.0440423 0.04392903 0.04410794 0.04407495
 0.04402858 0.04451183 0.04563011 0.04681849 0.04738912 0.04716753 0.04653259 0.04596732 0.04562004 0.04520303
 0.04439294 0.04345649 0.04323996 0.04425285 0.0459791 0.04740817 0.04805336 0.04814574 0.04797854 0.04739013
 0.04600424 0.04394216 0.04213131 0.04162981 0.04260805 0.04423524 0.045551 0.0461603 0.04615345 0.04577121
 0.04524047 0.04469225 0.04418383 0.04385818 0.04392344 0.04436346 0.04485281 0.0450808 0.04501029 0.04474775
 0.04433079 0.04375302 0.04310504 0.04258763 0.04237326 0.04247406 0.04275683 0.0430631 0.043271 0.04327804
 0.04303584 0.04262251 0.04219384 0.04184271 0.04157189 0.04139269 0.04135418 0.04145435 0.04159709 0.04167286
 0.04164401 0.04153256 0.04136264 0.0411441 0.04089411 0.04065083 0.04046644 0.04037955 0.04037575 0.04038892
 0.0403706 0.04033939 0.04032584 0.04029675 0.04018759 0.03999429 0.03978467 0.03962617 0.03953531 0.0394869
 0.039439 0.03934344 0.03915654 0.03887406 0.03856946 0.03836715 0.03834442 0.03847131 0.03865788 0.03882561
 0.03892165 0.03891995 0.03884352 0.03874873 0.03866221 0.03855844 0.03841083 0.03824411 0.03812749 0.03811854
 0.03820824 0.0383258 0.03840391 0.03842507 0.03840391 0.0383599 0.03831789 0.03829625 0.03827898 0.03823059
 0.03814721 0.03806818 0.0380328 0.03804061 0.03805304 0.03803037 0.0379735 0.03792473 0.03791884 0.03794592
 0.03797225 0.03797942 0.03796973 0.03794648 0.03790088 0.03781763 0.03769735 0.03757235 0.03748476 0.03744582
 0.03743181 0.03741976 0.0374085 0.03740291 0.0373949 0.03736807 0.03731631 0.03725164 0.03718959 0.0371283
 0.03705154 0.03695484 0.03685737 0.03678258 0.03673479 0.03669787 0.03665134 0.0365863 0.03650854 0.03642763
 0.03634572 0.03625847 0.0361625 0.03605904 0.03595639 0.03586961 0.03580892 0.03576408 0.03570751 0.03561877
 0.03550391 0.03538818 0.03529073 0.03520986 0.03513471 0.03506557 0.03501346 0.03498235 0.03496331 0.03494639
 0.03492817 0.03490833 0.03489146 0.0348936 0.03493463 0.03501744 0.03512129 0.03522104 0.03530906 0.03539479
 0.03548777 0.03558816 0.03569277 0.03580463 0.03593396 0.036088 0.03625684 0.03641291 0.03653483 0.03663269
 0.0367387 0.03687131 0.03702045 0.03716909 0.03731252 0.03745085 0.03757871 0.03769367 0.03780448 0.03792059
 0.03804026 0.03815725 0.03827352 0.03839591 0.03852542 0.03866011 0.038807 0.03898012 0.03918345 0.03940022
 0.03960175 0.03976815 0.03990566 0.0400464 0.04022605 0.0404555 0.04071303 0.04096366 0.04118719 0.0413907
 0.0415957 0.04181272 0.04203269 0.0422473 0.04246939 0.04272077 0.04300332 0.0432948 0.04357243 0.04383059
 0.04407724 0.04432349 0.04457802 0.04484448 0.04512133 0.04540424 0.045687 0.04596122 0.04621959 0.04646102
 0.04669218 0.04692595 0.04717655 0.04744582 0.04771065 0.04793844 0.04812592 0.0483098 0.04852356 0.04875446
 0.04896355 0.04914053 0.04931475 0.04951274 0.04972824 0.04994022 0.05014214 0.05034369 0.05055322 0.05076447
 0.05095536 0.05110105 0.05119715 0.05127045 0.05135875 0.05148076 0.05163304 0.05180946 0.05200713 0.05221334
 0.05240268 0.05255307 0.0526591 0.05273309 0.05280215 0.05289818 0.0530374 0.05320832 0.05338352 0.05353753
 0.05365586 0.05374559 0.05384291 0.0539899 0.05419352 0.05442384 0.05465859 0.05490656 0.05517662 0.05544938
 0.05570204 0.05594558 0.05621088 0.05650213 0.0567864 0.05703004 0.0572256 0.05738106 0.05750835 0.05763414
 0.05779925 0.05802526 0.05828892 0.05854224 0.05875085 0.05890531 0.05900814 0.05906619 0.0590944 0.05911791
 0.05916597 0.0592617 0.05941522 0.05962609 0.05988906 0.06018912 0.06049084 0.06074569 0.0609184 0.06100022
 0.06099293 0.06089245 0.06069873 0.06043201 0.06012064 0.05977051 0.05935764 0.05885355 0.05824913 0.05755144
 0.0567685 0.05590837 0.05499223 0.05406275 0.05317743 0.05239473 0.05176663 0.05134002 0.05115382 0.05122026
 0.05150079 0.05190021 0.0522895 0.05254187 0.05256254 0.05230603 0.05178224 0.05104678 0.05017516 0.04923599
 0.04828018 0.04734285 0.04644628 0.04560601 0.04484795 0.04422476 0.04381355 0.0437042 0.04399665 0.04478996
 0.04612887 0.04792973 0.04996836 0.05197192 0.05374698 0.05523741 0.05648673 0.05756845 0.05854318 0.05944637
 0.06029078 0.06107755 0.06180812 0.06248456 0.06310102 0.06364103 0.0640825 0.0644033 0.06458861 0.06464132
 0.06458782 0.0644747 0.06435859 0.06428629 0.06426506 0.06424386 0.06413095 0.06384005 0.06332885 0.06260562
 0.06171529 0.06074327 0.05986246 0.05937742 0.05966204 0.06095971 0.06318899 0.06594819 0.06873322 0.07117809
 0.07314432 0.07466383 0.0758426 0.07679239 0.07759641 0.07830252 0.07893622 0.07951499 0.08005208 0.08055592
 0.0810325 0.08148807 0.08192812 0.08235553 0.08277063 0.08317255 0.08356107 0.08393896 0.08431253 0.08468837
 0.08506769 0.08544499 0.08581477 0.08617693 0.08653165 0.08687311 0.08719645 0.08750831 0.08782223 0.0881454
 0.08847725 0.08881618 0.08915695 0.08948585 0.08979096 0.09007567 0.090353 0.09062819 0.09089648 0.0911562
 0.09141479 0.0916801 0.09195247 0.09222712 0.09250014 0.09276925 0.09303134 0.09328225 0.09351952 0.09374492
 0.0939645 0.09418555 0.09441188 0.09464166 0.09487228 0.09510741 0.09535591 0.09562144 0.09589574 0.09616528
 0.09642247 0.09666784 0.09690452 0.09713528 0.09736511 0.0976011 0.09784773 0.09810425 0.09836602 0.09862625
 0.09887747 0.0991156 0.09934342 0.09956727 0.09979099 0.1000145 0.1002361 0.1004546 0.1006705 0.1008884
 0.101115 0.1013526 0.1015949 0.1018313 0.102054 0.1022619 0.1024617 0.1026652 0.1028811 0.1031077
 0.1033365 0.103562 0.1037858 0.1040117 0.1042403 0.1044706 0.1047024 0.1049364 0.1051725 0.1054098
 0.1056475 0.1058852 0.1061213 0.106352 0.1065745 0.1067903 0.1070036 0.1072159 0.1074256 0.1076326
 0.1078405 0.1080527 0.1082697 0.1084921 0.1087209 0.1089541 0.1091857 0.1094116 0.1096332 0.1098532
 0.1100701 0.1102812 0.1104886 0.1106994 0.1109163 0.1111372 0.1113603 0.1115877 0.1118193 0.1120488
 0.1122693 0.1124807 0.1126912 0.1129077 0.1131292 0.1133497 0.113567 0.113784 0.1140023 0.1142205
 0.1144373 0.114651 0.114859 0.1150621 0.115265 0.1154711 0.1156803 0.1158933 0.1161111 0.116333
 0.1165582 0.1167876 0.1170188 0.1172437 0.1174551 0.1176531 0.1178446 0.1180401 0.1182454 0.1184548
 0.1186554 0.1188423 0.119022 0.1192032 0.1193911 0.1195889 0.1197973 0.1200114 0.120225 0.1204347
 0.1206417 0.1208501 0.1210629 0.1212801 0.1215004 0.1217239 0.1219489 0.1221705 0.1223884 0.122609
 0.1228368 0.1230691 0.1232998 0.123523 0.1237367 0.1239496 0.1241755 0.1244181 0.1246673 0.1249118
 0.1251459 0.1253676 0.1255802 0.1257927 0.1260127 0.1262413 0.1264748 0.1267057 0.1269244 0.127129
 0.127329 0.1275353 0.1277509 0.1279708 0.1281874 0.1283977 0.1286068 0.1288193 0.1290303 0.129235
 0.1294387 0.1296468 0.1298562 0.1300649 0.1302777 0.1304978 0.1307242 0.1309552 0.1311839 0.1314001
 0.1316025 0.1317998 0.1319986 0.1322016 0.132412 0.1326257 0.1328326 0.1330338 0.1332388 0.1334404
 0.1335953 0.1336016 0.1332391 0.1320949 0.1295453 0.1248733 0.1175584 0.1076141 0.09570026 0.08288915
 0.07026951 0.05866271 0.04854362 0.04011134 0.03340152 0.02835494 0.02485663 0.02280672 0.02219681 0.02318441
 0.02617382 0.03158104 0.0389296 0.04603253 0.04982438 0.04877201 0.0443413 0.03966791 0.03694826 0.03635467
 0.03694887 0.03791412 0.03898827 0.04032674 0.04219919 0.04469097 0.04768363 0.05116671 0.05539749 0.06057175
 0.0664182 0.07230706 0.07779305 0.08296941 0.08825802 0.09390689 0.09973176 0.1052988 0.1102732 0.1145911
 0.1183898 0.1218505 0.1250945 0.128174 0.1311113 0.1338986 0.1364389 0.1385223 0.1399257 0.1405829
 0.1406634 0.1404778 0.1402988 0.1402565 0.1403666 0.1406062 0.1409541 0.1413944 0.1419177 0.1425139
 0.1431611 0.1438287 0.1444933 0.1451426 0.1457665 0.1463549 0.1469006 0.1473984 0.1478444 0.148241
 0.1486008 0.1489431 0.1492828 0.1496202 0.1499426 0.1502404 0.1505179 0.1507829 0.151035 0.1512703
 0.1514884 0.1516904 0.1518793 0.1520643 0.1522535 0.1524434 0.1526259 0.1528049 0.1529936 0.1531961
 0.1534029 0.1536045 0.153801 0.1539988 0.1541989 0.1543896 0.1545575 0.1547053 0.1548538 0.1550205
 0.1552056 0.1554005 0.155597 0.155787 0.1559635 0.1561297 0.1562988 0.1564814 0.1566744 0.1568656
 0.1570488 0.1572326 0.1574287 0.1576348 0.1578401 0.1580414 0.1582428 0.1584449 0.1586459 0.1588471
 0.1590438 0.1592222 0.159377 0.1595259 0.1596947 0.1598942 0.1601126 0.1603301 0.1605364 0.1607353
 0.1609329 0.1611293 0.161321 0.1615044 0.1616801 0.1618627 0.1620758 0.162324 0.1625834 0.1628333
 0.1630765 0.1633185 0.163555 0.163786 0.1640147 0.1642253 0.1643945 0.1645333 0.1646992 0.1649508
 0.1652898 0.1656518 0.1659643 0.1662104 0.166426 0.1666527 0.166912 0.1671906 0.1674183 0.1675154
 0.1675126 0.1675764 0.1678545 0.1683258 0.1688423 0.1692805 0.1696167 0.1698942 0.1701578 0.1704085
 0.170601 0.1706939 0.1707206 0.1708059 0.1710757 0.1715319 0.1720448 0.172485 0.1728202 0.1730758
 0.1732772 0.1734498 0.1735791 0.1735573 0.1733029 0.1729808 0.1729645 0.1734739 0.1743259 0.175129
 0.1756666 0.1760069 0.1762899 0.1765548 0.1767772 0.1768931 0.1767064 0.1760032 0.1749597 0.1742618
 0.1745401 0.1757373 0.1772116 0.1783794 0.179086 0.1794706 0.1797182 0.1799349 0.180067 0.1798988
 0.1792932 0.1785197 0.1781935 0.1787095 0.179801 0.1808234 0.1814103 0.1816741 0.1818744 0.1821226
 0.1823041 0.1820453 0.1809308 0.1791175 0.1776429 0.1776955 0.1794509 0.1818588 0.183684 0.1845683
 0.1849301 0.1850521 0.1846622 0.1834211 0.1814391 0.1792261 0.1775161 0.1771591 0.1785659 0.1810087
 0.1830279 0.1838715 0.1841384 0.1848033 0.186051 0.1872898 0.1879179 0.1877869 0.1870864 0.1860093
 0.1846636 0.1833843 0.1829197 0.183901 0.186074 0.1883884 0.1899695 0.19078 0.1911655 0.1908415
 0.1886828 0.1840734 0.1786129 0.175692 0.1775054 0.1827555 0.1880502 0.191245 0.1926223 0.1933046
 0.1937395 0.193572 0.1918488 0.1875423 0.1811726 0.1758234 0.1750589 0.1794054 0.1857586 0.1902774
 0.190999 0.1880529 0.1829811 0.1782873 0.1764201 0.178284 0.1828332 0.1881125 0.1924393 0.1948636
 0.1951575 0.193733 0.1916171 0.1901985 0.1902206 0.190677 0.1895649 0.1864054 0.1830386 0.1809413
 0.1789783 0.1755495 0.1721133 0.1722316 0.1769273 0.1829566 0.1864312 0.1867507 0.1859432 0.1849764
 0.1821143 0.1754263 0.1664316 0.1601823 0.160834 0.1673381 0.1743703 0.1775157 0.1767631 0.17499
 0.1740894 0.1730509 0.1694497 0.1626437 0.1553767 0.1515249 0.1520686 0.1542548 0.154908 0.1530231
 0.1487405 0.1422756 0.1356226 0.1332371 0.1382758 0.1486958 0.1588241 0.1640195 0.162411 0.1539055
 0.1407339 0.1286876 0.1243422 0.1292415 0.1380543 0.1434598 0.1419874 0.1347174 0.1241208 0.1122477
 0.1016153 0.09560011 0.09642649 0.1029137 0.1106352 0.1142807 0.1106061 0.1007982 0.09045599 0.0855865
 0.08730952 0.09118754 0.09223177 0.08941934 0.08506683 0.08170277 0.08052213 0.08131734 0.08278275 0.08367973
 0.08382814 0.08293155 0.07925192 0.07170862 0.06293793 0.05764644 0.0576912 0.06103981 0.06554639 0.07090467
 0.07621197 0.07862344 0.07654272 0.07265149 0.07166877 0.07535167 0.08095908 0.08459651 0.08509932 0.08431619
 0.08425667 0.08491089 0.08525963 0.08567421 0.08798791 0.09295744 0.09886611 0.103373 0.10589 0.1073979
 0.1087148 0.1098517 0.1105801 0.1108024 0.1105307 0.1099654 0.1094281 0.1089822 0.1083475 0.1072717
 0.105564 0.1026131 0.09755921 0.09067659 0.08419213 0.08063149 0.08026437 0.08123815 0.08221999 0.0831888
 0.08312063 0.07924803 0.07061768 0.06109707 0.05659002 0.05935211 0.06631821 0.07266089 0.07554567 0.07442608
 0.06958531 0.06214067 0.05515231 0.05273846 0.05681793 0.06536157 0.07461915 0.08229925 0.08782125 0.09064412
 0.09006139 0.08661841 0.08262345 0.08085658 0.08294181 0.0886288 0.09578657 0.10082 0.1004148 0.09491561
 0.09001061 0.09252229 0.1030846 0.1149094 0.1213819 0.1228201 0.1237258 0.1257546 0.1268973 0.1265882
 0.1277277 0.1326824 0.1397218 0.1446747 0.1445999 0.1389633 0.1291502 0.1186285 0.1120894 0.1118481
 0.1154011 0.1182785 0.1184437 0.1160777 0.1108955 0.1032052 0.09678753 0.09667137 0.1032908 0.1116457
 0.1170126 0.1193032 0.1210388 0.1229399 0.1230077 0.1195391 0.1139654 0.109992 0.1099462 0.1127287
 0.1156649 0.1172935 0.117454 0.1157637 0.1118377 0.1070352 0.1044561 0.1063068 0.1116776 0.1174207
 0.1209729 0.1219687 0.1215283 0.1207662 0.1200215 0.1189454 0.1172619 0.1157632 0.1161592 0.1192409
 0.1235708 0.1269243 0.1288272 0.130729 0.1337318 0.1370687 0.1390476 0.138927 0.1376498 0.1370353
 0.1383166 0.1411496 0.1438539 0.1448262 0.1440515 0.1432594 0.1443345 0.1475082 0.1513205 0.1542566
 0.1559788 0.1570121 0.1578458 0.1585061 0.1585388 0.1573466 0.1550315 0.1529054 0.1525789 0.1543714
 0.156998 0.1588783 0.1593966 0.1588699 0.1577504 0.1561877 0.1542609 0.15235 0.1510847 0.1509056
 0.1517652 0.1532708 0.1550061 0.1566868 0.1581535 0.1593555 0.1603264 0.1611228 0.1617876 0.1623536
 0.1628296 0.1631783 0.1633602 0.1634218 0.1634908 0.1636506 0.1638486 0.1639673 0.1639496 0.1637949
 0.1634631 0.1628768 0.1620297 0.1610108 0.1598853 0.1586324 0.1572803 0.1560761 0.1554224 0.1555783
 0.1564272 0.157558 0.1585588 0.1592247 0.1595511 0.1596296 0.1595779 0.1595036 0.1594736 0.1595061
 0.1595991 0.1597618 0.1600151 0.1603687 0.1608101 0.1613209 0.1618938 0.1625256 0.1631965 0.1638657
 0.1644849 0.1650165 0.1654533 0.1658217 0.1661519 0.1664351 0.1666216 0.1666656 0.1665622 0.166342
 0.1660416 0.1656836 0.1652702 0.1647856 0.1642095 0.1635301 0.1627317 0.1617763 0.1606283 0.159312
 0.1579165 0.1565246 0.1551568 0.1537968 0.1524392 0.1510831 0.1497032 0.1482663 0.1467766 0.1452853
 0.1438509 0.1424992 0.1412202 0.1399916 0.1387936 0.1376054 0.1364007 0.1351529 0.1338416 0.1324486
 0.130947 0.1292873 0.1273974 0.1252079 0.1226826 0.1198259 0.116673 0.1132902 0.1097805 0.1062682
 0.102864 0.09964426 0.0966626 0.09397709 0.09165741 0.08976083 0.08830473 0.08726972 0.0866279 0.08636376
 0.08647327 0.08695115 0.08777492 0.08889221 0.09021729 0.09163816 0.09303579 0.09432085 0.09547114 0.09653299
 0.09757617 0.09864089 0.09972005 0.100783 0.1018092 0.1027946 0.1037279 0.1045788 0.1053216 0.1059592
 0.1065104 0.1069862 0.1073936 0.1077527 0.108097 0.1084509 0.1088131 0.1091613 0.1094745 0.1097513
 0.1100072 0.1102673 0.110565 0.1109366 0.1114033 0.1119602 0.1125884 0.1132749 0.1140207 0.1148343
 0.1157178 0.116666 0.1176827 0.1187885 0.1199975 0.121292 0.1226344 0.1239986 0.1253743 0.126742
 0.128057 0.1292631 0.1303283 0.1312704 0.1321427 0.1329919 0.1338341 0.1346648 0.1354807 0.1362898
 0.1371077 0.1379405 0.1387694 0.1395578 0.1402757 0.1409118 0.1414676 0.1419522 0.1423801 0.1427661
 0.1431206 0.1434543 0.1437796 0.1441057 0.1444308 0.1447442 0.1450389 0.1453196 0.1455891 0.145829
 0.1460112 0.1461275 0.1461884 0.1461886 0.1460976 0.1458919 0.1455773 0.1451687 0.1446608 0.1440313
 0.1432707 0.1423975 0.1414404 0.1404104 0.1393024 0.1381172 0.136865 0.135556 0.1342092 0.1328681
 0.1315847 0.1303854 0.1292587 0.1281734 0.1271024 0.1260378 0.1249881 0.1239644 0.1229726 0.1220183
 0.1211021 0.1202085 0.119314 0.1184113 0.1175166 0.1166611 0.1158862 0.115236 0.1147386 0.1143938
 0.114182 0.1140734 0.1140362 0.1140483 0.1140982 0.1141632 0.1141968 0.1141523 0.114018 0.1138243
 0.1136201 0.1134416 0.1132973 0.1131776 0.1130623 0.1129146 0.1126814 0.1123144 0.1117824 0.1110591
 0.1101202 0.1089691 0.1076552 0.1062647 0.1048978 0.1036422 0.1025512 0.1016412 0.1009076 0.1003328
 0.09988533 0.09952627 0.09922609 0.09898124 0.09881502 0.09873959 0.09870648 0.09862895 0.09847672 0.09831791
 0.09824777 0.09830428 0.09845647 0.09863479 0.09876975 0.09883961 0.09888618 0.09896582 0.09909299 0.09923413
 0.09933172 0.09933372 0.09922615 0.09903814 0.09880662 0.09855086 0.09827483 0.09796286 0.09758046 0.09710896
 0.09656428 0.09596382 0.09530354 0.09457207 0.09375189 0.09282394 0.09182975 0.09091797 0.09027743 0.09001666
 0.0901047 0.09039555 0.09072217 0.09100232 0.09122079 0.09129788 0.09110434 0.0907145 0.09053851 0.09102516
 0.09221719 0.09369391 0.09495405 0.09576169 0.09611902 0.09606579 0.09562896 0.09487234 0.09385041 0.09255201
 0.09097548 0.08919497 0.08729906 0.08535673 0.08346969 0.08175512 0.08027259 0.07903032 0.07802492 0.07729287
 0.07693706 0.07673085 0.07546589 0.07159157 0.0656027 0.06110871 0.06180504 0.06732121 0.07347084 0.07667632
 0.07682326 0.07580249 0.07492186 0.07437703 0.07409657 0.07416786 0.07467567 0.07553142 0.07647406 0.07722544
 0.07767799 0.07787609 0.07780806 0.07724798 0.07573386 0.07273303 0.06806941 0.06229674 0.05650544 0.05168388
 0.04828472 0.04624647 0.0451961 0.04465855 0.04429356 0.04405746 0.04413954 0.04473677 0.04588717 0.04749154
 0.04942221 0.05152984 0.05357868 0.05532133 0.0566834 0.05777241 0.0586754 0.05934241 0.05968192 0.05967768
 0.05939463 0.05893751 0.05841407 0.05788809 0.05734076 0.0566956 0.05592142 0.05512329 0.05448513 0.05409757
 0.0538961 0.05378392 0.0537325 0.0537369 0.05376276 0.05377695 0.05378272 0.05382303 0.05397484 0.05429855
 0.05475956 0.05523884 0.05563562 0.05593106 0.05615924 0.0563289 0.05636084 0.05615513 0.05577943 0.05548138
 0.05537854 0.05524786 0.05481276 0.0541677 0.05372574 0.0537686 0.0541916 0.05467174 0.05495926 0.05500578
 0.05494201 0.05499976 0.05535974 0.05595502</values></Ydata></ScSm><ScRf><Ydata ylabel="Single channel"><values byteorder="INTEL" format="FLOAT32" numvalues="1820"> 0.06068107 0.06083897 0.0609275 0.06095047 0.06093819 0.06093897 0.06100112 0.06114513 0.06134661 0.06154651
 0.06168832 0.06175399 0.06175753 0.06171121 0.06162874 0.06156265 0.06159276 0.06175008 0.06197012 0.06213611
 0.06217052 0.06210238 0.06205187 0.06211397 0.06223075 0.06220743 0.06189783 0.06137387 0.06087679 0.0605916
 0.06053156 0.06068561 0.06113964 0.0618484 0.06237584 0.06220545 0.06138855 0.06058398 0.06032698 0.06051312
 0.06069964 0.06062076 0.06027623 0.05982856 0.05964068 0.06017899 0.06155708 0.06315609 0.06384625 0.06270225
 0.0596666 0.05575332 0.05266577 0.05188248 0.05362131 0.05654737 0.05877227 0.05935744 0.0587661 0.05791079
 0.05716617 0.05648199 0.05602683 0.05623469 0.05721023 0.058314 0.05849232 0.05718623 0.05499582 0.05324646
 0.05277383 0.05340421 0.05467084 0.05632389 0.05760772 0.05685085 0.05311139 0.04825849 0.0461401 0.04892527
 0.05478539 0.05967289 0.06091959 0.05874733 0.05510256 0.05203822 0.05092299 0.05207998 0.05475144 0.05772485
 0.06005882 0.06111838 0.06041104 0.05801775 0.05501649 0.05296362 0.05294057 0.0551258 0.05875061 0.06216934
 0.06361064 0.06248578 0.05978005 0.05701428 0.05524294 0.05505709 0.05674084 0.05998071 0.06383783 0.06728335
 0.06961646 0.07054831 0.07027406 0.06935009 0.06827008 0.067369 0.06710379 0.06777641 0.06879038 0.06887725
 0.06747265 0.06547355 0.06431949 0.06450796 0.06519908 0.0652369 0.06431971 0.06281983 0.06064379 0.05719484
 0.0527477 0.04883156 0.04670272 0.04637798 0.04753804 0.05002613 0.05278761 0.05380546 0.05230924 0.05018665
 0.05011679 0.05271287 0.05620528 0.05859929 0.05952391 0.0600906 0.06146567 0.06367714 0.06546767 0.06524107
 0.06264173 0.05944312 0.05829348 0.06011603 0.06322291 0.06539612 0.06622952 0.06687675 0.06803066 0.06884375
 0.06781409 0.06457298 0.06083127 0.05931527 0.06139073 0.06569441 0.06912296 0.06912409 0.06541342 0.0600394
 0.05578916 0.05425945 0.05543704 0.05876903 0.06377251 0.06946227 0.07409504 0.07614428 0.0754028 0.07290921
 0.06975916 0.0660876 0.0616236 0.05737472 0.05584965 0.05869671 0.06459799 0.07036269 0.07377382 0.07470033
 0.07386433 0.07147588 0.06743202 0.06263913 0.05945615 0.05986559 0.06308389 0.0659977 0.06642298 0.06510097
 0.06410483 0.06425717 0.06481537 0.0650567 0.0653168 0.06641933 0.06849553 0.07066402 0.07187712 0.07186984
 0.0712173 0.07066859 0.07046348 0.07014954 0.06922229 0.06813166 0.0682335 0.07029893 0.0734477 0.07605056
 0.07736556 0.07781149 0.07787211 0.07724978 0.07529336 0.07221553 0.06959672 0.06921104 0.0713071 0.07444879
 0.07700928 0.07834475 0.07864515 0.07834052 0.07780549 0.07724084 0.07674415 0.07657634 0.07709279 0.07823943
 0.07943535 0.08015339 0.08035257 0.08022229 0.07980926 0.07908972 0.07823595 0.07762375 0.07756609 0.078081
 0.07892936 0.07982802 0.08055153 0.08089857 0.08076423 0.08029076 0.07978518 0.07944053 0.07926337 0.07926412
 0.07952826 0.08004658 0.08062586 0.08104914 0.08124796 0.08127895 0.0812071 0.08106132 0.08086604 0.08068314
 0.08061872 0.08075352 0.08104081 0.08133018 0.08154291 0.08175371 0.08202754 0.08225709 0.08227339 0.08207527
 0.08184549 0.08175352 0.08181827 0.08195366 0.08206584 0.08207113 0.08188435 0.08149168 0.08105288 0.08084257
 0.08103032 0.08155803 0.08223979 0.08289799 0.08339469 0.08365509 0.08372082 0.08370572 0.08366157 0.08354224
 0.08331517 0.0830633 0.0829578 0.08312994 0.08355465 0.08406278 0.08447883 0.08472978 0.08483778 0.08488078
 0.08496508 0.08514418 0.08533707 0.08540408 0.08532561 0.08523841 0.08527317 0.08540703 0.08550128 0.08546314
 0.08535218 0.08532023 0.08545189 0.0856887 0.0859151 0.08608644 0.08624943 0.08645117 0.08664726 0.08671875
 0.08660185 0.08638373 0.08622138 0.0861758 0.08619089 0.08623016 0.08634379 0.08656493 0.08681151 0.08695515
 0.08696552 0.08693735 0.08697006 0.08705233 0.08708303 0.08698922 0.08680105 0.0866181 0.08652672 0.0865483
 0.08663911 0.08672278 0.08673596 0.08666407 0.086542 0.08641854 0.08632211 0.08626862 0.08629459 0.08644587
 0.08670382 0.08694039 0.08699471 0.08681914 0.08653527 0.08632527 0.08626674 0.08627913 0.08622409 0.08604062
 0.08578027 0.08553493 0.08535517 0.08523267 0.0851336 0.08503834 0.08496614 0.08497091 0.08508884 0.08526769
 0.08537056 0.08528861 0.08504728 0.08477674 0.08458906 0.08450732 0.08448995 0.08448529 0.08447479 0.08448879
 0.08456171 0.08465952 0.08469207 0.08461804 0.08449963 0.08443905 0.08449924 0.08468342 0.08492965 0.08511689
 0.08514403 0.08503172 0.08490603 0.08486742 0.0849117 0.084984 0.08505931 0.08514598 0.08524621 0.0853511
 0.08546783 0.08562529 0.08584438 0.08610684 0.08635581 0.08653315 0.086631 0.08671175 0.08686534 0.08713335
 0.08747339 0.08779828 0.08804899 0.08823273 0.08839698 0.08857244 0.08875275 0.08893454 0.08915315 0.08944855
 0.0898055 0.09016123 0.09047393 0.09075642 0.09104024 0.09133328 0.09162509 0.0919228 0.09226517 0.09268521
 0.09315084 0.093561 0.09382623 0.09395416 0.09404656 0.09422079 0.09453075 0.09492715 0.0952786 0.09547371
 0.09553644 0.09561078 0.09580171 0.09606814 0.09631124 0.09652902 0.09681948 0.09723763 0.09770733 0.0980947
 0.09834025 0.09850107 0.09867463 0.09889378 0.09910086 0.09922671 0.0992818 0.0993449 0.09946819 0.09963785
 0.09984194 0.1001218 0.1005113 0.1009581 0.1013559 0.1016409 0.1018254 0.1019544 0.1020617 0.1021535
 0.1022125 0.1022306 0.1022453 0.10231 0.1024204 0.1025105 0.1025419 0.1025571 0.1026245 0.1027692
 0.1029832 0.1032607 0.1035822 0.1038926 0.1041524 0.1044051 0.1047352 0.1051406 0.1054969 0.105686
 0.105721 0.1057056 0.1057071 0.1057315 0.1057978 0.1059586 0.1062352 0.1065815 0.1069353 0.107275
 0.1076112 0.1079442 0.1082439 0.1084631 0.10857 0.1085768 0.1085425 0.1085487 0.1086623 0.1089022
 0.109226 0.1095572 0.1098333 0.1100254 0.1101165 0.1100995 0.1100208 0.1099901 0.1100958 0.110304
 0.1104722 0.110468 0.1102545 0.1098647 0.1093369 0.1087022 0.1080146 0.1073589 0.1068155 0.1064263
 0.1062029 0.1061658 0.1063576 0.1067987 0.1074321 0.1081375 0.1088007 0.1093398 0.1096659 0.1096779
 0.109338 0.1087255 0.1079856 0.1072419 0.1065637 0.1059654 0.1054066 0.1048363 0.1042902 0.103934
 0.1039797 0.1045527 0.1056282 0.1070548 0.1086112 0.1100757 0.111304 0.1122773 0.1130722 0.1137768
 0.1144361 0.1150723 0.1157179 0.11639 0.1170486 0.1176247 0.1180952 0.1185017 0.118893 0.119277
 0.1196277 0.1199181 0.120148 0.1203513 0.1205601 0.1207509 0.1208527 0.1208281 0.1207196 0.1205969
 0.1204794 0.1203263 0.1200837 0.1197267 0.1192899 0.1188914 0.1187164 0.1189391 0.1196226 0.1206819
 0.1219477 0.1232689 0.1245499 0.1257073 0.1266466 0.1273138 0.1277491 0.1280553 0.1283226 0.1285974
 0.1288977 0.1292216 0.1295474 0.1298487 0.1301191 0.1303807 0.1306696 0.1310031 0.1313545 0.131669
 0.1319181 0.1321368 0.1323963 0.1327371 0.1331294 0.133507 0.1338408 0.1341618 0.1344987 0.1348176
 0.1350588 0.1352185 0.1353608 0.1355576 0.1358439 0.136214 0.1366175 0.1369718 0.1372186 0.1373764
 0.1375163 0.1376907 0.1379026 0.138134 0.1383757 0.1386265 0.1388856 0.1391576 0.1394562 0.1397806
 0.140091 0.1403292 0.1404783 0.1405907 0.1407413 0.1409566 0.1411986 0.1414156 0.1416002 0.1417995
 0.1420668 0.1424008 0.142734 0.1429887 0.1431444 0.1432492 0.1433678 0.1435322 0.1437357 0.143958
 0.144183 0.1443996 0.1446032 0.1448004 0.145004 0.1452194 0.1454376 0.1456448 0.1458385 0.1460306
 0.1462335 0.146449 0.1466741 0.1469153 0.1471853 0.1474792 0.1477624 0.1479946 0.1481633 0.1482887
 0.1484016 0.1485259 0.148677 0.1488624 0.1490778 0.1493077 0.1495343 0.1497464 0.1499423 0.1501282
 0.1503129 0.1505037 0.1507032 0.1509112 0.1511295 0.1513616 0.1516063 0.1518508 0.1520775 0.1522793
 0.1524667 0.1526574 0.1528609 0.1530696 0.1532666 0.1534433 0.1536078 0.1537768 0.1539598 0.1541552
 0.1543556 0.1545518 0.154738 0.154919 0.1551089 0.1553158 0.1555326 0.1557463 0.1559503 0.1561463
 0.1563394 0.1565337 0.1567317 0.1569347 0.1571407 0.1573441 0.1575395 0.1577284 0.1579181 0.158113
 0.1583108 0.1585059 0.1586947 0.1588792 0.1590661 0.1592625 0.1594684 0.1596776 0.1598839 0.1600851
 0.1602818 0.1604742 0.1606635 0.1608551 0.1610588 0.1612815 0.1615168 0.1617481 0.1619627 0.1621622
 0.1623601 0.1625716 0.1628031 0.1630459 0.1632834 0.1635043 0.1637084 0.1639039 0.1640985 0.1642925
 0.1644786 0.1646536 0.1648243 0.164997 0.165171 0.1653458 0.1655253 0.1657109 0.1659009 0.1660962
 0.1662979 0.166503 0.1667086 0.1669146 0.1671176 0.1673143 0.1675095 0.1677119 0.1679226 0.1681356
 0.1683443 0.1685454 0.1687418 0.1689411 0.1691459 0.1693514 0.1695578 0.1697714 0.1699915 0.1702081
 0.1704154 0.1706161 0.1708153 0.1710183 0.171229 0.1714461 0.1716655 0.1718831 0.1720923 0.1722884
 0.1724785 0.172673 0.172873 0.1730766 0.1732888 0.1735103 0.1737318 0.1739487 0.1741634 0.1743743
 0.1745792 0.1747853 0.1749991 0.1752182 0.1754417 0.17567 0.1758934 0.176103 0.1763055 0.1765128
 0.1767271 0.1769454 0.1771599 0.1773472 0.1774625 0.1773952 0.1768576 0.1752737 0.1717762 0.1653969
 0.1554655 0.1420423 0.1260388 0.1088869 0.09202284 0.07653053 0.06304462 0.05183218 0.04293193 0.03625019
 0.03162345 0.02891346 0.02810465 0.02940517 0.03335967 0.04052901 0.05027221 0.0596636 0.06462996 0.06316851
 0.05726245 0.05107179 0.04747394 0.04667102 0.04742984 0.0486958 0.05013201 0.05192912 0.05442233 0.05771745
 0.0616685 0.06627564 0.0718805 0.07873034 0.08645518 0.09422177 0.1014511 0.1082788 0.1152689 0.1227444
 0.1304496 0.1378012 0.1443554 0.1500301 0.1550089 0.1595352 0.1637769 0.1678118 0.1716724 0.1753442
 0.1786914 0.1814284 0.1832534 0.1840748 0.1841218 0.1838192 0.1835365 0.1834404 0.1835406 0.1838045
 0.1842116 0.1847487 0.1854027 0.1861566 0.1869804 0.1878352 0.1886883 0.1895171 0.1903062 0.1910494
 0.1917453 0.1923872 0.1929676 0.1934911 0.193971 0.1944152 0.1948261 0.1952078 0.1955662 0.1959079
 0.1962398 0.1965645 0.1968733 0.1971528 0.1973974 0.1976134 0.197814 0.1980125 0.1982186 0.1984374
 0.1986693 0.1989061 0.1991316 0.1993357 0.1995266 0.1997217 0.1999284 0.2001408 0.2003498 0.2005485
 0.2007346 0.2009139 0.2010977 0.2012917 0.2014926 0.2016952 0.2018964 0.2020927 0.2022821 0.2024688
 0.2026606 0.2028606 0.2030634 0.2032615 0.2034567 0.2036625 0.2038868 0.2041171 0.204333 0.2045306
 0.2047218 0.2049183 0.2051256 0.205345 0.2055667 0.2057672 0.20593 0.2060667 0.2062138 0.206403
 0.2066331 0.2068728 0.2070959 0.2073038 0.2075095 0.2077127 0.2079016 0.2080692 0.2082228 0.2083894
 0.2086018 0.2088633 0.2091384 0.209392 0.2096211 0.2098405 0.2100625 0.2102966 0.2105377 0.2107508
 0.210901 0.2110084 0.2111526 0.2114092 0.2117774 0.2121733 0.2125048 0.2127502 0.2129535 0.2131673
 0.2134208 0.2136971 0.2139032 0.2139314 0.2138193 0.2137873 0.2140394 0.2145639 0.215176 0.215706
 0.2161023 0.2164004 0.2166497 0.2168596 0.2169902 0.217004 0.2169505 0.2169872 0.2172661 0.2177734
 0.2183281 0.2187658 0.2190675 0.2192911 0.2194774 0.219648 0.2197677 0.2196846 0.2192845 0.2187761
 0.2186428 0.2191738 0.220138 0.2210356 0.2215986 0.2219286 0.2222112 0.2224851 0.2227018 0.222772
 0.2224546 0.2214908 0.2201132 0.2191889 0.2195038 0.2209679 0.2227616 0.2241543 0.2249647 0.2253804
 0.2256398 0.2258722 0.2259945 0.2257191 0.2248716 0.2238068 0.2233171 0.2239024 0.2252126 0.2264268
 0.2270911 0.2273606 0.2275634 0.2278307 0.22801 0.2276251 0.226148 0.2237808 0.2218451 0.2218496
 0.224012 0.2269959 0.2292352 0.2302808 0.2306696 0.2307627 0.2302106 0.2285761 0.2259984 0.2231328
 0.2209202 0.2204374 0.2221916 0.2252472 0.2277522 0.2287542 0.2290083 0.2297536 0.231243 0.2327428
 0.233487 0.2332764 0.2323486 0.2309504 0.2292169 0.2275616 0.2269148 0.2280633 0.2306964 0.2335141
 0.2354313 0.2364029 0.2368551 0.236411 0.2336394 0.2277725 0.2208458 0.21713 0.2193636 0.2258944
 0.2324576 0.2363705 0.2380025 0.2387706 0.2392309 0.2389314 0.236688 0.2312382 0.2232503 0.2165754
 0.2156349 0.2210434 0.2289084 0.23446 0.235282 0.2315539 0.2252092 0.2193714 0.2170705 0.2194025
 0.2250542 0.2316018 0.2369635 0.2399655 0.2403255 0.2385507 0.2359204 0.2341718 0.2342277 0.2348296
 0.2335048 0.2296859 0.2256535 0.223202 0.2208848 0.216703 0.212481 0.2126679 0.218544 0.2260685
 0.2304165 0.2308747 0.2299758 0.2288944 0.2254458 0.2172338 0.2061822 0.1986351 0.199811 0.2083825
 0.2176576 0.2221317 0.2218657 0.2205335 0.2205258 0.2205086 0.2172944 0.2099923 0.2021523 0.1988019
 0.2011144 0.2053612 0.2073391 0.2057371 0.2007161 0.1925622 0.1840574 0.1813606 0.1888414 0.2037499
 0.2183482 0.2262776 0.2249158 0.214027 0.1966599 0.1810077 0.1764411 0.1851303 0.1994103 0.2088167
 0.2084009 0.1996691 0.1861244 0.1708358 0.1578276 0.1525791 0.1587774 0.1745543 0.1924412 0.2030779
 0.2004222 0.1864756 0.1717055 0.167528 0.1759105 0.1879788 0.1939214 0.1918782 0.1866086 0.1833912
 0.1849733 0.1909976 0.1983793 0.2042256 0.2081497 0.2090358 0.2019552 0.1840941 0.1626006 0.1498631
 0.1506554 0.1597377 0.1717538 0.1860195 0.2000124 0.2061037 0.2001548 0.1893378 0.185998 0.1945456
 0.2076914 0.2153541 0.214637 0.2103324 0.2075679 0.2063712 0.2042095 0.201866 0.2036654 0.2114784
 0.2214369 0.2282592 0.2307575 0.2313334 0.2319142 0.2324958 0.2325364 0.2318453 0.2304947 0.2289549
 0.2279535 0.2276589 0.2275243 0.2271134 0.2260774 0.2229065 0.215269 0.2032887 0.1915992 0.1856602
 0.1859734 0.1884924 0.1906441 0.1928253 0.192782 0.184023 0.1643902 0.1431006 0.1340309 0.1423028
 0.1604729 0.1770291 0.1852061 0.1835706 0.172607 0.1549427 0.1380732 0.1319735 0.1409478 0.1595036
 0.1782267 0.1918802 0.1999274 0.2020094 0.1970044 0.1862665 0.174875 0.1687091 0.1708916 0.1804439
 0.1925878 0.1999365 0.1961288 0.1821867 0.1692799 0.1704409 0.186869 0.2058881 0.2151926 0.2152862
 0.214392 0.2156713 0.2157128 0.2135735 0.214337 0.2221795 0.2342415 0.2434514 0.2447372 0.2370218
 0.2225326 0.2072817 0.1995011 0.2030105 0.212801 0.2204146 0.2220862 0.2182547 0.208598 0.1940976
 0.1822642 0.1826236 0.1956902 0.2117388 0.2218495 0.2260343 0.2291759 0.232625 0.2325498 0.2257251
 0.2149015 0.2071095 0.2067163 0.2116232 0.2168537 0.2198012 0.2202771 0.2175573 0.2108271 0.2025623
 0.1985595 0.2029092 0.2137417 0.2249348 0.2315569 0.2329552 0.2313576 0.2289805 0.2265169 0.2232908
 0.2187499 0.2144022 0.213511 0.2176048 0.2240522 0.2287804 0.2309413 0.2331747 0.2374555 0.2423686
 0.2448312 0.2434569 0.2398702 0.2372866 0.237938 0.2413089 0.2445232 0.2447929 0.2420649 0.2393181
 0.2398207 0.2440135 0.2494495 0.2535814 0.2558383 0.2570895 0.2581461 0.2590503 0.2590423 0.2571296
 0.253495 0.2503254 0.250268 0.2538041 0.2587891 0.2626719 0.2645626 0.2650828 0.2649499 0.2642295
 0.2627588 0.2608328 0.2592195 0.2585467 0.2588465 0.2597189 0.2607495 0.2616887 0.2624148 0.2629071
 0.2632203 0.2634095 0.2635096 0.2635777 0.2636609 0.263707 0.2636194 0.2634417 0.2633845 0.2635941
 0.2639688 0.2642722 0.2643521 0.2641555 0.2636087 0.2626385 0.2613145 0.2598327 0.2583044 0.2566725
 0.2549528 0.2535263 0.2530417 0.2539199 0.2559551 0.2584403 0.2606632 0.2622682 0.2632487 0.2637571
 0.2639726 0.2640475 0.2640685 0.2640417 0.2639315 0.263718 0.2634139 0.2630447 0.2626338 0.2622148
 0.2618357 0.2615294 0.2612773 0.2610151 0.2606795 0.2602479 0.2597451 0.2592192 0.2587004 0.2581662
 0.2575493 0.2567903 0.2558867 0.2548992 0.2539208 0.2530307 0.2522473 0.2515166 0.2507632 0.2499502
 0.2490663 0.2480773 0.2469563 0.2457724 0.2446834 0.2438017 0.2430989 0.2424596 0.2417839 0.2410204
 0.2401536 0.2392003 0.2381992 0.2371757 0.2361224 0.2350163 0.2338387 0.2325772 0.2312258 0.2297867
 0.2282655 0.2266734 0.2250378 0.2233918 0.2217295 0.2199749 0.2180013 0.2156763 0.2128867 0.209548
 0.2056302 0.2011929 0.1963933 0.1914471 0.1865656 0.1819116 0.1775985 0.1737155 0.170345 0.1675622
 0.1654276 0.1639833 0.1632494 0.1632254 0.1638956 0.1652279 0.1671595 0.1695849 0.172361 0.1753255
 0.1783127 0.1811696 0.1837943 0.1861789 0.1883976 0.1905174 0.1925255 0.19436 0.1959904 0.1974283
 0.1986755 0.1997115 0.2005398 0.2012074 0.201769 0.2022552 0.2026804 0.2030579 0.2033972 0.2036972
 0.2039508 0.2041572 0.2043275 0.204481 0.2046397 0.2048273 0.2050666 0.2053751 0.2057634 0.2062345
 0.206775 0.2073547 0.2079456 0.2085428 0.2091582 0.2098044 0.210501 0.2112879 0.212214 0.2133069
 0.2145542 0.2159068 0.2172949 0.218641 0.2198643 0.2208864 0.2216512 0.2221483 0.2224129 0.2224952
 0.222432 0.2222426 0.2219439 0.2215578 0.2211032 0.2205872 0.2200135 0.2193973 0.2187591 0.2181045
 0.2174235 0.2167162 0.2160044 0.2153129 0.214647 0.2139964 0.2133519 0.2127144 0.2120895 0.2114819
 0.2108922 0.2103156 0.2097435 0.2091698 0.2085948 0.2080136 0.2073967 0.2066961 0.2058806 0.204958
 0.2039508 0.202859 0.2016596 0.2003385 0.1989121 0.1974185 0.1958935 0.1943502 0.1927717 0.1911174
 0.1893392 0.1874095 0.1853576 0.1832783 0.1812846 0.1794426 0.1777523 0.1761786 0.1746867 0.1732559
 0.1718822 0.1705731 0.169337 0.1681766 0.1670885 0.1660626 0.1650847 0.164147 0.1632574 0.162439
 0.1617164 0.1610947 0.1605504 0.1600571 0.159613 0.1592371 0.1589495 0.1587713 0.1587197 0.1587762
 0.1588721 0.1589284 0.158903 0.1588015 0.1586614 0.1585293 0.1584354 0.1583822 0.1583515 0.158302
 0.1581605 0.1578334 0.1572352 0.1563124 0.1550624 0.1535364 0.1518157 0.1499918 0.1481772 0.1465
 0.1450591 0.1438985 0.1430196 0.1423827 0.1419034 0.1414993 0.1411572 0.1409398 0.1409231 0.1411093
 0.1413817 0.1415717 0.1416128 0.1416116 0.1417501 0.142141 0.1427736 0.1435377 0.1442898 0.1449341
 0.1454461 0.1458249 0.1460702 0.1462054 0.1462652 0.1462542 0.1461554 0.1459646 0.1456902 0.1453495
 0.1449697 0.1445586 0.1440856 0.1435246 0.1428804 0.1421582 0.1413537 0.1404704 0.1394891 0.1383651
 0.1371391 0.1360161 0.1352675 0.1350712 0.135434 0.1362042 0.137177 0.1382289 0.1392811 0.1401245
 0.1404926 0.1404597 0.1406227 0.1416639 0.1437049 0.1461792 0.1483392 0.1497924 0.1505334 0.1506536
 0.1502062 0.1492459 0.1477887 0.1457817 0.1432413 0.1403253 0.1372037 0.134012 0.1309464 0.1282168
 0.1259193 0.1240632 0.1226362 0.121668 0.121285 0.1211087 0.1192176 0.1131593 0.1037564 0.09677662
 0.09805986 0.1069332 0.1166967 0.1216921 0.1217905 0.1200299 0.1184992 0.1175112 0.1169601 0.1169972
 0.1177519 0.1190625 0.1205206 0.1217209 0.1225049 0.1229163 0.1229184 0.1221569 0.1198876 0.1152276
 0.1078668 0.09868568 0.0894478 0.08176304 0.07636485 0.07313643 0.07146883 0.07062244 0.07008828 0.06981764
 0.07010539 0.07122698 0.07320116 0.07586974 0.07906301 0.08255087 0.08592196 0.08874959 0.09091915 0.09262823
 0.09404115 0.09509388 0.09564802 0.09568511 0.09531128 0.09467278 0.09390619 0.09309745 0.09222537 0.09118036
 0.08993325 0.08869369 0.08779467 0.08738187 0.08731115 0.08735902 0.08740789 0.08742005 0.0873768 0.08728543
 0.08717725 0.08710836 0.08718445 0.08750035 0.0880088 0.08851998 0.08886091 0.08900034 0.08902326 0.08898567
 0.0887773 0.08822173 0.08739384 0.08665908 0.08619818 0.08567227 0.08465075 0.08326818 0.0821631 0.08178942
 0.08201447 0.08238015 0.08254287 0.08242945 0.08218412 0.08209757 0.08243114 0.08311227 0.08367617 0.08369075
</values></Ydata></ScRf><Data_Parameters_AB><parameter name="DPF">1</parameter><parameter name="NPT">3497</parameter><parameter name="FXV">3996</parameter><parameter name="LXV">500</parameter><parameter name="CSF">1</parameter><parameter name="MXY">0.419041782617569</parameter><parameter name="MNY">0.0900453329086304</parameter><parameter name="DAT">01/06/2022</parameter><parameter name="TIM">12:16:28.920 (GMT+2)</parameter><parameter name="DXU">WN</parameter></Data_Parameters_AB><AB__Qtest><MainReport name="Quality Test Report"><Header><Line><Legend>Test result ok/not ok [1/0]: </Legend><Value>0</Value></Line><Line><Legend>Method file: </Legend><Value>C:\Users\Public\Documents\Bruker\OPUS_8.2.28\QT\IRBT_v3_default.QT</Value></Line></Header><Matrix><Line><Legend></Legend><Legend>min</Legend><Legend>max</Legend><Legend>measured</Legend></Line><Line><Value>Absorption (X-Range 1):</Value><Value>0.400000</Value><Value>2.000000</Value><Value>0.328996</Value></Line><Line><Value>Noise (X-Range 4):</Value><Value></Value><Value>0.000300</Value><Value>0.000077</Value></Line><Line><Value>Signal/Noise (X-Range 2):</Value><Value>200.000000</Value><Value></Value><Value>133.110320</Value></Line><Line><Value>Signal/Noise (X-Range 3):</Value><Value>40.000000</Value><Value></Value><Value>46.843153</Value></Line><Line><Value>Water vapour (X-Range 5):</Value><Value></Value><Value>0.000300</Value><Value>0.000103</Value></Line><Line><Value>Signal/Water (X-Range 2):</Value><Value>100.000000</Value><Value></Value><Value>100.228667</Value></Line><Line><Value>Signal/Water (X-Range 3):</Value><Value>20.000000</Value><Value></Value><Value>35.271696</Value></Line><Line><Value>Fringes (X-Range 6):</Value><Value></Value><Value>0.000100</Value><Value>0.000080</Value></Line></Matrix></MainReport></AB__Qtest><Data_Parameters_ScSm><parameter name="DPF">1</parameter><parameter name="NPT">1814</parameter><parameter name="FXV">3996.33169228125</parameter><parameter name="LXV">499.541461535156</parameter><parameter name="CSF">1</parameter><parameter name="MXY">0.195157468318939</parameter><parameter name="MNY">0.0221968069672585</parameter><parameter name="DAT">01/06/2022</parameter><parameter name="TIM">12:16:28.920 (GMT+2)</parameter><parameter name="DXU">WN</parameter></Data_Parameters_ScSm><Data_Parameters_ScRf><parameter name="DPF">1</parameter><parameter name="NPT">1820</parameter><parameter name="FXV">4004.04661832813</parameter><parameter name="LXV">495.683998511719</parameter><parameter name="CSF">1</parameter><parameter name="MXY">0.265082776546478</parameter><parameter name="MNY">0.0281046461313963</parameter><parameter name="DAT">01/06/2022</parameter><parameter name="TIM">12:16:02.240 (GMT+2)</parameter><parameter name="DXU">WN</parameter></Data_Parameters_ScRf><Optic_Parameters_Rf><parameter name="APR">0</parameter><parameter name="APT">Open</parameter><parameter name="BMS">KBr</parameter><parameter name="DTC">RT-DLaTGS_IR-Biotyper [Microplate reader]</parameter><parameter name="HPF">0</parameter><parameter name="LPF">10.0</parameter><parameter name="LPV">4000</parameter><parameter name="PGR">0</parameter><parameter name="RCH">Module port</parameter><parameter name="RDX">0</parameter><parameter name="SRC">MIR</parameter><parameter name="VEL">10.0</parameter><parameter name="SON">Off</parameter></Optic_Parameters_Rf><Acquisition_Parameters_Rf><parameter name="ADT">1</parameter><parameter name="AQM">DD</parameter><parameter name="CFE">0</parameter><parameter name="COR">0</parameter><parameter name="DEL">0</parameter><parameter name="DLY">0</parameter><parameter name="HFW">8000</parameter><parameter name="LFW">0</parameter><parameter name="NSR">32</parameter><parameter name="PLF">AB</parameter><parameter name="RES">6</parameter><parameter name="RGN">-1</parameter><parameter name="STR">0</parameter><parameter name="TCL">MakeCompatibleScalar (0, {WSV=1.000000, ARV=0});</parameter><parameter name="TDL">37</parameter><parameter name="RPO">0</parameter></Acquisition_Parameters_Rf><FT_-_Parameters_Rf><parameter name="APF">B3</parameter><parameter name="HFQ">500</parameter><parameter name="LFQ">4000</parameter><parameter name="NLI">0</parameter><parameter name="PHR">24</parameter><parameter name="PHZ">ML</parameter><parameter name="SPZ">NO</parameter><parameter name="ZFF">1</parameter></FT_-_Parameters_Rf><Optic_Parameters_><parameter name="APR">0</parameter><parameter name="APT">Open</parameter><parameter name="BMS">KBr</parameter><parameter name="CHN">Module port</parameter><parameter name="DTC">RT-DLaTGS_IR-Biotyper [Microplate reader]</parameter><parameter name="HPF">0</parameter><parameter name="LPF">10.0</parameter><parameter name="LPV">4000</parameter><parameter name="PGN">0</parameter><parameter name="RDX">0</parameter><parameter name="SRC">MIR</parameter><parameter name="VEL">10.0</parameter><parameter name="SON">Off</parameter></Optic_Parameters_><FT_-_Parameters_><parameter name="APF">B3</parameter><parameter name="HFQ">500</parameter><parameter name="LFQ">4000</parameter><parameter name="NLI">0</parameter><parameter name="PHR">24</parameter><parameter name="PHZ">ML</parameter><parameter name="SPZ">NO</parameter><parameter name="ZFF">1</parameter></FT_-_Parameters_><Acquisition_Parameters_><parameter name="ADT">1</parameter><parameter name="AQM">DD</parameter><parameter name="CFE">0</parameter><parameter name="COR">0</parameter><parameter name="DEL">0</parameter><parameter name="DLY">0</parameter><parameter name="HFW">8000</parameter><parameter name="LFW">0</parameter><parameter name="NSS">32</parameter><parameter name="PLF">AB</parameter><parameter name="RES">6</parameter><parameter name="SOT">0</parameter><parameter name="TCL">MakeCompatibleScalar (0, {WSV=1.000000, ARV=0});</parameter><parameter name="TDL">37</parameter><parameter name="SPO">0</parameter><parameter name="SGN">-1</parameter></Acquisition_Parameters_><Instrument_Parameters_Rf><parameter name="HFL">15800.168544</parameter><parameter name="LFL">0</parameter><parameter name="LWN">15800.168544</parameter><parameter name="ABP">32197</parameter><parameter name="SSP">1</parameter><parameter name="ARG">2</parameter><parameter name="ASG">2</parameter><parameter name="ASS">32</parameter><parameter name="GFW">16</parameter><parameter name="GBW">16</parameter><parameter name="BFW">0</parameter><parameter name="BBW">0</parameter><parameter name="PKA">7317</parameter><parameter name="PKL">4990</parameter><parameter name="PRA">7481</parameter><parameter name="PRL">5001</parameter><parameter name="P2A">1</parameter><parameter name="P2L">1</parameter><parameter name="P2R">1</parameter><parameter name="P2K">1</parameter><parameter name="DAQ">0</parameter><parameter name="AG2">1</parameter><parameter name="SSM">1</parameter><parameter name="RSN">26005</parameter><parameter name="CRR">0</parameter><parameter name="SRT">1654085762.24</parameter><parameter name="DUR">19.6389923095703</parameter><parameter name="TSC">28.9</parameter><parameter name="MVD">0.77201920747757</parameter><parameter name="AN1">0.225840509866351</parameter><parameter name="AN2">0</parameter><parameter name="VSN">2.485 Apr  4 2017</parameter><parameter name="SRN">0085</parameter><parameter name="CAM">0</parameter><parameter name="INS">IR-Biotyper</parameter><parameter name="FOC">69</parameter><parameter name="RDY">1</parameter><parameter name="ARS">32</parameter></Instrument_Parameters_Rf><Sample_Parameters_><parameter name="BLD"></parameter><parameter name="CNM">Admin</parameter><parameter name="CPY"></parameter><parameter name="DPM"></parameter><parameter name="EXP">IRBT_v3_32Scans.XPM</parameter><parameter name="LCT"></parameter><parameter name="SFM">Microplate, HTS-XT</parameter><parameter name="SNM">220601-1028(v.3)_RTF49M (D_14)_E11_3b31a98b-85f4-432b-9fe7-9ce958eb5fe3.0</parameter><parameter name="XPP">C:\Users\Public\Documents\Bruker\OPUS_8.2.28\XPM</parameter><parameter name="IST">OK</parameter><parameter name="CPG">1252</parameter><parameter name="UID">470e1481-67f3-4ea0-8180-da20cc97ede0</parameter></Sample_Parameters_><Instrument_Parameters_><parameter name="HFL">15800.168544</parameter><parameter name="LFL">0</parameter><parameter name="LWN">15800.168544</parameter><parameter name="ABP">32197</parameter><parameter name="SSP">1</parameter><parameter name="ASG">4</parameter><parameter name="ARG">2</parameter><parameter name="ASS">32</parameter><parameter name="GFW">16</parameter><parameter name="GBW">16</parameter><parameter name="BFW">0</parameter><parameter name="BBW">0</parameter><parameter name="PKA">4773</parameter><parameter name="PKL">4988</parameter><parameter name="PRA">4956</parameter><parameter name="PRL">4993</parameter><parameter name="P2A">1</parameter><parameter name="P2L">1</parameter><parameter name="P2R">1</parameter><parameter name="P2K">1</parameter><parameter name="DAQ">0</parameter><parameter name="AG2">1</parameter><parameter name="SSM">1</parameter><parameter name="RSN">13628</parameter><parameter name="CRR">0</parameter><parameter name="SRT">1654085788.92</parameter><parameter name="DUR">19.6389923095703</parameter><parameter name="TSC">28.9</parameter><parameter name="MVD">0.280394583940506</parameter><parameter name="AN1">0.225836505711222</parameter><parameter name="AN2">0</parameter><parameter name="VSN">2.485 Apr  4 2017</parameter><parameter name="SRN">0085</parameter><parameter name="CAM">0</parameter><parameter name="INS">IR-Biotyper</parameter><parameter name="FOC">69</parameter><parameter name="RDY">1</parameter></Instrument_Parameters_><History/></OPUSDataFile>
