<?xml version="1.0" encoding="UTF-8" ?>
<OPUSDataFile><AB><Ydata ylabel="Absorbance Units"><values byteorder="INTEL" format="FLOAT32" numvalues="3497"> -0.05449032 -0.05458507 -0.05465267 -0.05469357 -0.05469925 -0.05466931 -0.05462044 -0.05455406 -0.05449249 -0.05443619
 -0.05439974 -0.05438127 -0.0543831 -0.05440095 -0.05442612 -0.05445573 -0.05447991 -0.05450178 -0.05452031 -0.05454121
 -0.05456999 -0.05460569 -0.05465091 -0.05469757 -0.05474335 -0.05478229 -0.05481224 -0.05483188 -0.05484086 -0.05483744
 -0.05482136 -0.05479147 -0.05474769 -0.0546965 -0.05463908 -0.05459245 -0.05455783 -0.05455244 -0.05457383 -0.05462458
 -0.05469717 -0.05477605 -0.05485383 -0.05490964 -0.05494549 -0.05495237 -0.05494425 -0.05492824 -0.05491782 -0.05492492
 -0.05494601 -0.05498599 -0.05502358 -0.055055 -0.05506129 -0.05503695 -0.05498594 -0.05490677 -0.05482417 -0.05473943
 -0.05467831 -0.05464109 -0.05463861 -0.05466834 -0.05472191 -0.05479514 -0.05486869 -0.05494014 -0.05499297 -0.05502984
 -0.05504605 -0.05504957 -0.05504797 -0.05504631 -0.0550543 -0.05506298 -0.05507242 -0.0550658 -0.05503394 -0.0549794
 -0.05489626 -0.0548166 -0.05474324 -0.05471143 -0.0547256 -0.05479938 -0.05493385 -0.05511772 -0.05534856 -0.05559311
 -0.05584532 -0.05605143 -0.0562075 -0.05626442 -0.05623604 -0.05612621 -0.05596104 -0.05578823 -0.05561747 -0.05548206
 -0.05537217 -0.05529175 -0.05522683 -0.05516935 -0.05511538 -0.05505895 -0.05501157 -0.05497373 -0.05496226 -0.05498104
 -0.05503312 -0.05512069 -0.05522312 -0.0553394 -0.05543978 -0.05552431 -0.05558706 -0.05563199 -0.05568149 -0.05573741
 -0.05582125 -0.05592593 -0.05604769 -0.05617283 -0.05627565 -0.05635002 -0.05637534 -0.05636102 -0.05630711 -0.05622529
 -0.05612054 -0.05600592 -0.05588317 -0.05577945 -0.05569998 -0.05567425 -0.05571 -0.05581069 -0.05598125 -0.05617268
 -0.05638295 -0.05649749 -0.05651447 -0.05637885 -0.05611055 -0.05581476 -0.05550154 -0.0552664 -0.05509994 -0.05502538
 -0.05503369 -0.05512411 -0.05527866 -0.05548342 -0.0557021 -0.05590246 -0.05605516 -0.05612681 -0.05613532 -0.05607412
 -0.05598866 -0.05589134 -0.05580263 -0.05572908 -0.05566994 -0.05562531 -0.05559977 -0.05559359 -0.05561264 -0.0556562
 -0.0557147 -0.0557855 -0.05584636 -0.05589648 -0.05592014 -0.05592019 -0.05589618 -0.05585023 -0.05578498 -0.05570396
 -0.05560946 -0.05551298 -0.05542323 -0.05535297 -0.05531277 -0.05530586 -0.05533815 -0.0553997 -0.05549102 -0.05559316
 -0.05570405 -0.05580302 -0.05588803 -0.05594093 -0.05596047 -0.05593584 -0.05586758 -0.05576247 -0.05562306 -0.05546895
 -0.0553028 -0.05514401 -0.05499591 -0.05487613 -0.05478767 -0.05474599 -0.05474566 -0.05479122 -0.05486179 -0.05494476
 -0.0550143 -0.05504958 -0.05504537 -0.05498941 -0.05490671 -0.0547985 -0.05470145 -0.05462258 -0.05458252 -0.05458557
 -0.05462608 -0.05470419 -0.05479723 -0.05490362 -0.05499479 -0.05507039 -0.05511174 -0.05512368 -0.05511405 -0.05508976
 -0.05507383 -0.05506652 -0.05508034 -0.05510902 -0.05514904 -0.05519756 -0.05524759 -0.05530918 -0.05538405 -0.0554883
 -0.05563146 -0.05581205 -0.05603776 -0.05627108 -0.05650999 -0.05670153 -0.05683894 -0.05689773 -0.05687573 -0.05676902
 -0.05657863 -0.05631815 -0.05599543 -0.05567073 -0.05535232 -0.05510818 -0.05493379 -0.05485639 -0.05485711 -0.05492058
 -0.05501593 -0.0550961 -0.05514942 -0.05514135 -0.05509939 -0.05502895 -0.05495775 -0.05490176 -0.05486208 -0.05484565
 -0.0548298 -0.05481256 -0.05476854 -0.05469299 -0.05458992 -0.05445869 -0.05433553 -0.05422238 -0.05415653 -0.054136
 -0.05416911 -0.05424466 -0.05432507 -0.05439499 -0.05438652 -0.05431289 -0.05415708 -0.05396188 -0.05378026 -0.05362442
 -0.05353336 -0.05347314 -0.05343811 -0.05338603 -0.05329152 -0.05315826 -0.05297431 -0.05279265 -0.05262148 -0.05249712
 -0.05242852 -0.05239071 -0.0523836 -0.05233721 -0.05224946 -0.05207768 -0.05183219 -0.05156807 -0.05129606 -0.05109591
 -0.05095574 -0.05088508 -0.05086764 -0.05087737 -0.05090605 -0.0509348 -0.05095478 -0.05095325 -0.05092152 -0.0508489
 -0.05073891 -0.05059182 -0.05040653 -0.05018669 -0.04990937 -0.04956841 -0.04916447 -0.04869316 -0.04820208 -0.04769388
 -0.04721244 -0.04675876 -0.04634558 -0.04597301 -0.04564777 -0.04537087 -0.04515287 -0.04498893 -0.04487436 -0.04479733
 -0.04473466 -0.04467628 -0.04460274 -0.04450053 -0.04435567 -0.04414547 -0.04384579 -0.04346751 -0.04299915 -0.04249818
 -0.04198007 -0.04147696 -0.04100009 -0.040545 -0.04011249 -0.03969542 -0.03929315 -0.03890793 -0.03854031 -0.03820287
 -0.03789608 -0.03763382 -0.03740818 -0.03720071 -0.03698792 -0.03669158 -0.03630702 -0.03576893 -0.03513723 -0.03446191
 -0.03379531 -0.03321536 -0.03270492 -0.03228274 -0.03189917 -0.03153771 -0.03116219 -0.03075419 -0.03031974 -0.0298548
 -0.02938569 -0.02891681 -0.02844784 -0.02797988 -0.02748002 -0.02694708 -0.02635793 -0.02571727 -0.02504974 -0.02436283
 -0.02370324 -0.02307105 -0.02249147 -0.02195851 -0.02147428 -0.0210288 -0.02061267 -0.02021049 -0.0198049 -0.01938706
 -0.01894359 -0.01848222 -0.01800528 -0.01751115 -0.01700524 -0.01645647 -0.01585828 -0.01519639 -0.01446229 -0.01371582
 -0.01295966 -0.01227303 -0.01165733 -0.01112264 -0.01066261 -0.01023228 -0.009826808 -0.009399957 -0.008955415 -0.008476821
 -0.007976731 -0.007471545 -0.006970442 -0.006497684 -0.006041387 -0.00560618 -0.005157486 -0.004674153 -0.004135051 -0.003515735
 -0.002850446 -0.002138662 -0.001438692 -0.0007635963 -0.000139183 0.0004273584 0.0009498568 0.00142808 0.00189655 0.002356915
 0.002839289 0.003342791 0.003874069 0.004430497 0.005003512 0.005592924 0.006194811 0.006807845 0.007430686 0.008054112
 0.008665839 0.009257332 0.009812316 0.01033983 0.01083737 0.01132655 0.01181776 0.01231915 0.01283975 0.01335894
 0.01387567 0.01436234 0.0148131 0.01523375 0.015623 0.01602647 0.01644627 0.01692239 0.01745144 0.01802438
 0.0186333 0.01923628 0.01983264 0.02039663 0.02093686 0.02145854 0.02196798 0.0224787 0.02298554 0.02349008
 0.02398171 0.02445162 0.02490156 0.0253253 0.02574633 0.02616867 0.02661877 0.02710497 0.02762759 0.02818985
 0.02876667 0.02935669 0.02993417 0.03049814 0.0310367 0.03155028 0.03203695 0.03249804 0.03293732 0.03335768
 0.03376824 0.03417359 0.03458716 0.03501141 0.0354577 0.03591924 0.03639608 0.03687423 0.03734309 0.03779891
 0.03823384 0.03866291 0.03908975 0.03952312 0.03996845 0.04040939 0.04084453 0.04125962 0.04165233 0.04204403
 0.04243618 0.0428653 0.04332982 0.04383442 0.04437049 0.04490087 0.0454188 0.04588171 0.04629624 0.04665077
 0.0469658 0.04726455 0.04756325 0.04789038 0.04823902 0.04861622 0.04900143 0.04938529 0.04976065 0.05012168
 0.05047468 0.05082035 0.05116168 0.05149914 0.05183439 0.05216734 0.05250602 0.05285066 0.05320291 0.05356198
 0.05391967 0.05427798 0.05464087 0.05501334 0.05541509 0.05584288 0.05630343 0.05678196 0.05726099 0.05772815
 0.05816345 0.05856598 0.05892869 0.0592557 0.05954706 0.05980702 0.06003546 0.06024236 0.060428 0.06061062
 0.06079216 0.06098962 0.06120474 0.0614424 0.06170266 0.06198102 0.06227763 0.06259237 0.06292587 0.0632835
 0.06366094 0.06405072 0.06444228 0.06480904 0.06514799 0.06543777 0.06569661 0.06593107 0.06616817 0.06643195
 0.06672566 0.06706403 0.06741458 0.06777245 0.06810065 0.06838686 0.06863196 0.06883132 0.06902181 0.06920636
 0.06940476 0.0696168 0.06980707 0.069972 0.07005969 0.07007671 0.07002281 0.06991731 0.06981892 0.06974153
 0.06974749 0.06982633 0.06999591 0.07022389 0.07048633 0.07075343 0.07099225 0.07120555 0.07137846 0.07155173
 0.07173376 0.07196289 0.07225504 0.07259322 0.072983 0.07335157 0.07369405 0.07394507 0.07410251 0.07416835
 0.07414863 0.07410312 0.07403543 0.07399713 0.07398119 0.07399163 0.07402322 0.07406301 0.07411931 0.07420013
 0.07430886 0.07446034 0.07462811 0.0748025 0.07494869 0.07504085 0.07508608 0.07507288 0.07505354 0.07503688
 0.07506444 0.07514751 0.07527004 0.07543375 0.07557961 0.07570473 0.07575907 0.07574472 0.07566031 0.07551567
 0.0753575 0.07519623 0.07509095 0.07504088 0.07507801 0.07518376 0.07535032 0.07554494 0.07573293 0.07588755
 0.07597386 0.07599894 0.07594908 0.07586913 0.07576792 0.07569242 0.07565592 0.07567669 0.07575957 0.0759066
 0.07611798 0.07640261 0.07676072 0.07719202 0.07769157 0.0782132 0.07874402 0.07919331 0.07955375 0.07974605
 0.07979033 0.07967916 0.0794648 0.07921709 0.07898654 0.07886048 0.0788351 0.07895038 0.07913523 0.07937341
 0.07957792 0.07971337 0.07974117 0.07963914 0.07943753 0.07913281 0.07879642 0.07843364 0.07810434 0.07781114
 0.07756396 0.07736003 0.07717209 0.07700043 0.0768296 0.07666843 0.0765383 0.07644429 0.07641546 0.07643268
 0.07648932 0.07654075 0.0765402 0.07645016 0.07622088 0.07586356 0.07535923 0.07477163 0.07411251 0.07345466
 0.07281704 0.07224036 0.07173486 0.0713055 0.07095491 0.07066033 0.07042029 0.07018663 0.06995723 0.06968837
 0.06938677 0.06906241 0.06872895 0.06844173 0.06819633 0.06801952 0.06787748 0.06773122 0.06755203 0.06728482
 0.06694756 0.06652477 0.06607641 0.06562456 0.06522645 0.06491051 0.06468949 0.06457984 0.06453118 0.06454497
 0.06452405 0.0644605 0.06427654 0.06396864 0.06354654 0.06301783 0.06247051 0.06191107 0.06142331 0.06099956
 0.06066066 0.06039136 0.06016758 0.05998014 0.05980447 0.05963699 0.05946681 0.05928722 0.05909114 0.05887101
 0.05861891 0.05834023 0.0580314 0.0577155 0.05739632 0.05709593 0.05682006 0.05656539 0.05633329 0.0560989
 0.05586102 0.0556031 0.05532626 0.05503841 0.05474183 0.05445377 0.05417374 0.05390931 0.05365836 0.05342006
 0.05319222 0.05297248 0.05275562 0.05253666 0.05230713 0.05205802 0.05178828 0.05149162 0.05118245 0.05086304
 0.05055094 0.05025283 0.0499668 0.04969561 0.0494173 0.04912999 0.04881907 0.04848387 0.04813673 0.04777913
 0.04743385 0.04709935 0.04677964 0.04646998 0.04615512 0.04583469 0.04549826 0.04515283 0.04480477 0.04446021
 0.04412949 0.04381207 0.04350943 0.04322468 0.04295578 0.04272059 0.04252484 0.04238205 0.04230305 0.04225692
 0.04224674 0.04219479 0.04209464 0.04188225 0.04155421 0.04112435 0.04059971 0.04006911 0.03954106 0.03911324
 0.03877973 0.03858024 0.03848563 0.03845525 0.03844903 0.0383817 0.03823989 0.03796261 0.0375937 0.03713694
 0.03666549 0.03622386 0.03583837 0.03553897 0.0352819 0.03506255 0.03484013 0.03460088 0.03437607 0.03416463
 0.03403822 0.03400062 0.03407284 0.03424861 0.03445692 0.0346845 0.03481568 0.03484902 0.03470948 0.03442308
 0.03400515 0.03349935 0.03298452 0.03248379 0.03206245 0.03169831 0.03139885 0.03112774 0.03086124 0.03060019
 0.03033521 0.03009354 0.02988455 0.02970256 0.0295522 0.02939019 0.02921153 0.02900373 0.02876589 0.02854597
 0.02834647 0.02821536 0.0281468 0.02813173 0.02816013 0.02818969 0.02821966 0.0282258 0.0282156 0.02819197
 0.02815766 0.02812081 0.02807036 0.0280057 0.02789973 0.02773994 0.02749995 0.02716072 0.02673738 0.02621924
 0.02568447 0.0251397 0.02467677 0.02430808 0.02405395 0.0239163 0.02382234 0.02376646 0.02365299 0.02348469
 0.02322518 0.0228905 0.02251729 0.02212179 0.02176351 0.0214432 0.02119293 0.02099542 0.02084638 0.02072089
 0.02059831 0.02046109 0.02029055 0.02009283 0.01986024 0.01962736 0.0193997 0.0192129 0.01907783 0.01898312
 0.01893234 0.01886022 0.01876321 0.01858793 0.01833688 0.01803339 0.01768675 0.01737011 0.0170805 0.01685205
 0.0166626 0.01647458 0.01627314 0.01600776 0.01569821 0.01534077 0.01497679 0.01463885 0.0143524 0.01414424
 0.01400958 0.01395443 0.013962 0.01402942 0.01414326 0.01430205 0.01448973 0.01470616 0.01491949 0.01512804
 0.01528164 0.01537765 0.01536678 0.015252 0.01502177 0.01469077 0.01430346 0.01387921 0.01348884 0.0131389
 0.01287574 0.0126877 0.01258051 0.01253753 0.01254612 0.01259821 0.01268581 0.01280635 0.01295918 0.01313454
 0.0133317 0.01353325 0.01373535 0.01393181 0.01411919 0.0143265 0.01455494 0.01486448 0.01525735 0.01577985
 0.01642603 0.01718489 0.01804184 0.01893703 0.01985959 0.02075021 0.02161215 0.02242165 0.02319297 0.02393225
 0.02465593 0.02537831 0.02611341 0.02687164 0.027665 0.02850013 0.0293844 0.03032261 0.03130928 0.03234713
 0.03340976 0.03449693 0.03556155 0.03660105 0.037559 0.03843248 0.03917046 0.03977115 0.04019584 0.04044704
 0.04050641 0.04039291 0.04013221 0.0397708 0.03939203 0.0390504 0.03884936 0.03880223 0.03896724 0.03929636
 0.03978328 0.04036767 0.04101854 0.0417254 0.04247306 0.0432992 0.04420613 0.04523696 0.04639636 0.04771329
 0.04918979 0.05084268 0.05267236 0.05468426 0.05688023 0.05927045 0.06186594 0.06471154 0.06782319 0.07127381
 0.07504732 0.07918543 0.0835669 0.088132 0.09256975 0.0966847 0.09998612 0.1021687 0.1028241 0.1016555
 0.09874761 0.09396105 0.08800066 0.08090749 0.07363994 0.06629997 0.05958595 0.05355081 0.04840431 0.04413734
 0.0405973 0.03775639 0.03535951 0.03339088 0.03165768 0.03015337 0.02876743 0.02749334 0.02626991 0.02509582
 0.02394283 0.02282212 0.02173232 0.02068879 0.01970086 0.01877569 0.01791884 0.01713049 0.01641114 0.01576279
 0.01518516 0.01468433 0.01426039 0.01392402 0.0136758 0.01353031 0.01348717 0.01354437 0.01369447 0.01388929
 0.0141142 0.01428372 0.0143927 0.01437579 0.01425697 0.0140389 0.01377197 0.01351401 0.01331746 0.01324561
 0.01333047 0.01360902 0.01408994 0.01478131 0.01569769 0.01683151 0.01825967 0.01998223 0.02214932 0.02478319
 0.02793965 0.03163188 0.03550227 0.03950327 0.04275684 0.04519942 0.04590534 0.04495876 0.04212443 0.03769255
 0.03226702 0.02615555 0.02020765 0.01453223 0.00964006 0.005421899 0.001972984 -0.00089586 -0.003270622 -0.005288562
 -0.007028072 -0.008550133 -0.009885335 -0.01106185 -0.01208729 -0.01298745 -0.01376486 -0.01444858 -0.01504041 -0.0155719
 -0.01604464 -0.01648713 -0.01689992 -0.01730111 -0.01768956 -0.01807101 -0.01844257 -0.01880003 -0.01914009 -0.01945359
 -0.01974206 -0.02000067 -0.02024108 -0.02046961 -0.0207024 -0.02095271 -0.02122377 -0.02152482 -0.02183454 -0.02215188
 -0.02244361 -0.02270225 -0.02291389 -0.02307343 -0.02320515 -0.02330983 -0.02342834 -0.02356158 -0.02372445 -0.02391324
 -0.02410644 -0.02430221 -0.02447839 -0.02464289 -0.02480472 -0.02497387 -0.02517644 -0.02540858 -0.02568037 -0.02597266
 -0.02627371 -0.02656353 -0.02682596 -0.02705219 -0.02723316 -0.02737281 -0.02746772 -0.0275369 -0.02758081 -0.02763127
 -0.02769191 -0.02778647 -0.02791738 -0.02807751 -0.02826558 -0.02845345 -0.02864041 -0.02880741 -0.02895726 -0.02909207
 -0.02921388 -0.02933008 -0.02943945 -0.02954248 -0.02963948 -0.02972999 -0.02981756 -0.02990611 -0.02999504 -0.03008725
 -0.03017359 -0.03025068 -0.03031257 -0.03035387 -0.03038723 -0.03041192 -0.03045432 -0.03051787 -0.03061658 -0.03075229
 -0.03091008 -0.03108858 -0.03125818 -0.03141873 -0.03155431 -0.03166853 -0.03176823 -0.03185696 -0.03194929 -0.03204341
 -0.03214439 -0.032245 -0.03233787 -0.03241724 -0.0324726 -0.03250996 -0.03252611 -0.03254117 -0.03256178 -0.03260696
 -0.03268584 -0.03279746 -0.03294523 -0.0331107 -0.03329221 -0.03347455 -0.03365637 -0.03383446 -0.03400867 -0.03417732
 -0.03433983 -0.03448993 -0.03462815 -0.0347527 -0.03486628 -0.03497592 -0.03508263 -0.03519297 -0.03530321 -0.03541118
 -0.03551323 -0.03560375 -0.03568551 -0.03575765 -0.03582658 -0.0358956 -0.03596608 -0.03603996 -0.03611254 -0.03618282
 -0.0362497 -0.03631221 -0.03637787 -0.03644707 -0.03652827 -0.03662157 -0.03672604 -0.03684027 -0.03695256 -0.03706123
 -0.03715186 -0.03722546 -0.03727574 -0.03730869 -0.03733168 -0.03735283 -0.03738702 -0.03743632 -0.03751015 -0.03760059
 -0.03770636 -0.03781689 -0.03792621 -0.03803208 -0.03813158 -0.03823014 -0.03832839 -0.03843041 -0.03853716 -0.03864694
 -0.03875979 -0.03887185 -0.03898296 -0.039091 -0.03919592 -0.03929654 -0.0393926 -0.03948227 -0.03956539 -0.03964001
 -0.0397075 -0.03976886 -0.03982738 -0.03988782 -0.03995287 -0.04002758 -0.04011048 -0.04020317 -0.04030005 -0.0403993
 -0.04049582 -0.04058719 -0.04067307 -0.04075253 -0.04082923 -0.0409035 -0.04097842 -0.04105434 -0.04113093 -0.04120814
 -0.04128368 -0.04135758 -0.0414292 -0.04149906 -0.04156891 -0.04163992 -0.04171602 -0.04179889 -0.041894 -0.04200165
 -0.04212597 -0.04226247 -0.04240994 -0.04255963 -0.04270601 -0.04284153 -0.04296058 -0.043063 -0.04314623 -0.04321823
 -0.04327921 -0.04334163 -0.04340706 -0.04348458 -0.04357531 -0.04367615 -0.04378662 -0.04389267 -0.04399391 -0.04408026
 -0.04415366 -0.04421766 -0.04427433 -0.04433282 -0.04439122 -0.04445037 -0.04450723 -0.04455607 -0.04460039 -0.04463938
 -0.04468305 -0.04473844 -0.04480994 -0.0449042 -0.04501056 -0.04512901 -0.04524111 -0.04534256 -0.04542422 -0.04548306
 -0.04552714 -0.04555643 -0.04558736 -0.04562064 -0.04566721 -0.04572648 -0.04579795 -0.04588019 -0.04596623 -0.04605538
 -0.04614179 -0.04622598 -0.04630655 -0.0463833 -0.04645587 -0.04652266 -0.04658148 -0.04663284 -0.04667499 -0.04671383
 -0.04675091 -0.04679357 -0.04684515 -0.04690636 -0.0469789 -0.04705579 -0.04713641 -0.04721455 -0.04728949 -0.04736165
 -0.04743107 -0.0475002 -0.04756879 -0.04763563 -0.04770033 -0.04775994 -0.04781521 -0.04786677 -0.04791569 -0.04796485
 -0.04801382 -0.04806346 -0.04811234 -0.04815863 -0.04820357 -0.04824651 -0.04829193 -0.04834168 -0.04839901 -0.04846631
 -0.04854042 -0.04862197 -0.04870231 -0.04878052 -0.04884909 -0.04890716 -0.04895432 -0.04899063 -0.04902087 -0.04904544
 -0.04906993 -0.04909481 -0.04912499 -0.0491614 -0.04920967 -0.04926987 -0.04934594 -0.04943455 -0.04953358 -0.04963728
 -0.04973903 -0.04983555 -0.04992152 -0.04999954 -0.05006876 -0.0501348 -0.05019924 -0.05026612 -0.05033686 -0.05041187
 -0.05049167 -0.05057327 -0.05065657 -0.05073712 -0.05081472 -0.05088675 -0.05095353 -0.05101718 -0.05107822 -0.05114056
 -0.05120378 -0.05126896 -0.05133448 -0.05139734 -0.05145679 -0.05150979 -0.05155814 -0.05160205 -0.05164475 -0.05168877
 -0.05173551 -0.05178675 -0.05184085 -0.05189791 -0.05195504 -0.05201144 -0.05206645 -0.05211951 -0.05217376 -0.05222928
 -0.05229097 -0.052359 -0.05243364 -0.05251423 -0.05259423 -0.05267311 -0.05274404 -0.0528085 -0.05286716 -0.05292254
 -0.05298105 -0.0530425 -0.05311051 -0.05318084 -0.05325078 -0.05331609 -0.05337199 -0.05341947 -0.05345666 -0.05348982
 -0.05352049 -0.0535538 -0.05359174 -0.05363331 -0.05367891 -0.05372444 -0.05376942 -0.05381442 -0.05385951 -0.05390943
 -0.05396404 -0.05402411 -0.05408843 -0.05415103 -0.0542112 -0.05426294 -0.05430755 -0.05434476 -0.05437624 -0.05440447
 -0.05443021 -0.05445478 -0.05447944 -0.054505 -0.05453385 -0.05456766 -0.05460675 -0.05465246 -0.05470048 -0.05475023
 -0.0547974 -0.05484083 -0.05488218 -0.05492131 -0.05496346 -0.05500882 -0.05505797 -0.05511039 -0.05516056 -0.05520829
 -0.05524952 -0.05528507 -0.0553156 -0.05534158 -0.0553643 -0.0553841 -0.05540119 -0.05541822 -0.05543751 -0.05546267
 -0.05549797 -0.05554199 -0.05559644 -0.05565422 -0.0557135 -0.05576819 -0.05581605 -0.05585683 -0.05588968 -0.05591959
 -0.05594667 -0.0559789 -0.05601669 -0.05606635 -0.05612755 -0.05619913 -0.05627993 -0.05636259 -0.05644755 -0.05653113
 -0.05661736 -0.05671242 -0.05682197 -0.0569573 -0.05712193 -0.05732376 -0.05756404 -0.0578449 -0.05817049 -0.05854155
 -0.05896813 -0.0594543 -0.06000465 -0.06062435 -0.06129511 -0.06201798 -0.06275246 -0.06349549 -0.06421206 -0.06490022
 -0.06553683 -0.06611869 -0.06660462 -0.06698758 -0.06720537 -0.06725816 -0.0671102 -0.06677375 -0.06624855 -0.06557138
 -0.06478434 -0.06395553 -0.06317273 -0.06248179 -0.06195001 -0.0615747 -0.06137462 -0.06132562 -0.0614272 -0.06164289
 -0.06197209 -0.06234428 -0.06275447 -0.06310561 -0.06338714 -0.06355743 -0.06361443 -0.06359392 -0.06349912 -0.06337716
 -0.06322878 -0.06308245 -0.06293628 -0.06279986 -0.06266928 -0.0625398 -0.06241035 -0.06227621 -0.06214013 -0.06200504
 -0.06186784 -0.06172996 -0.06157881 -0.06140698 -0.06121118 -0.06098408 -0.06074677 -0.06050044 -0.06027592 -0.06007897
 -0.05992205 -0.05980806 -0.05972274 -0.05966535 -0.05961072 -0.05955849 -0.05949663 -0.05942708 -0.05935492 -0.05928108
 -0.05921217 -0.0591463 -0.0590819 -0.05901847 -0.05895319 -0.05889 -0.05883194 -0.05878282 -0.05874771 -0.05872435
 -0.05871374 -0.05871028 -0.0587119 -0.0587164 -0.05872278 -0.05873109 -0.05874163 -0.05875101 -0.05875911 -0.05876054
 -0.05875502 -0.05874208 -0.0587223 -0.05870233 -0.05868303 -0.05867289 -0.0586716 -0.05868315 -0.05870549 -0.05873623
 -0.05877301 -0.05881082 -0.05884882 -0.05888386 -0.058917 -0.05894795 -0.05897823 -0.05900878 -0.05903983 -0.05907204
 -0.05910356 -0.05913443 -0.05916107 -0.05918298 -0.05919717 -0.05920311 -0.05920208 -0.05919413 -0.05918458 -0.05917364
 -0.05916563 -0.05916005 -0.05915642 -0.05915395 -0.05914939 -0.05914285 -0.05913239 -0.05911988 -0.05910688 -0.05909663
 -0.05909343 -0.05909918 -0.05911813 -0.0591462 -0.05918405 -0.05922171 -0.05925583 -0.05927899 -0.05928731 -0.05928512
 -0.05927147 -0.05925943 -0.05925016 -0.05925306 -0.05926872 -0.05929494 -0.05933101 -0.05936662 -0.05940139 -0.0594272
 -0.05944549 -0.0594566 -0.05946318 -0.05947191 -0.05948361 -0.05950357 -0.05952876 -0.05955819 -0.05958784 -0.05961351
 -0.05963513 -0.0596507 -0.05966426 -0.05967693 -0.05969142 -0.05970912 -0.05972859 -0.05975 -0.05977027 -0.05978907
 -0.05980499 -0.05981793 -0.05982963 -0.05984033 -0.05985382 -0.05987008 -0.05989116 -0.05991637 -0.05994427 -0.05997406
 -0.06000276 -0.06003092 -0.06005792 -0.06008496 -0.06011361 -0.0601434 -0.06017493 -0.06020606 -0.06023572 -0.06026253
 -0.06028539 -0.0603053 -0.06032213 -0.06033786 -0.06035281 -0.06036821 -0.06038428 -0.06040077 -0.06041767 -0.06043381
 -0.06044918 -0.06046312 -0.06047603 -0.06049 -0.06050559 -0.06052651 -0.06055202 -0.06058289 -0.06061662 -0.06064939
 -0.0606793 -0.06070191 -0.0607186 -0.06072865 -0.06073486 -0.06073871 -0.06074154 -0.06074392 -0.06074758 -0.0607524
 -0.06076315 -0.06078066 -0.06080797 -0.0608459 -0.06088994 -0.0609399 -0.06098747 -0.06103254 -0.06107172 -0.0611055
 -0.0611355 -0.06116176 -0.06118518 -0.06120563 -0.06122275 -0.0612376 -0.06125174 -0.06126626 -0.06128379 -0.06130267
 -0.06132299 -0.06134136 -0.06135522 -0.06136497 -0.06136866 -0.06137392 -0.06138159 -0.06140171 -0.06143669 -0.06148872
 -0.06155916 -0.06163682 -0.06172119 -0.06179477 -0.06185703 -0.06189725 -0.06191672 -0.06191784 -0.06190301 -0.06188245
 -0.06185778 -0.06183814 -0.06182377 -0.06181922 -0.06182384 -0.06183864 -0.06186292 -0.06189659 -0.0619385 -0.06198854
 -0.06204383 -0.06210398 -0.06216394 -0.06222247 -0.06227547 -0.06232177 -0.06236148 -0.06239426 -0.06242374 -0.06245011
 -0.06247612 -0.06250175 -0.06252714 -0.06255224 -0.06257662 -0.06260071 -0.06262587 -0.0626525 -0.06268244 -0.06271531
 -0.06275166 -0.06279007 -0.06282938 -0.06286769 -0.06290312 -0.06293444 -0.06296003 -0.06298096 -0.06299683 -0.06301072
 -0.06302327 -0.0630371 -0.06305286 -0.0630711 -0.06309186 -0.06311637 -0.0631447 -0.06317967 -0.06322131 -0.06327032
 -0.06332595 -0.06338369 -0.06344257 -0.06349605 -0.06354447 -0.06358491 -0.06361903 -0.06364839 -0.0636745 -0.06370001
 -0.06372529 -0.06375153 -0.06377867 -0.06380659 -0.06383664 -0.06386905 -0.06390612 -0.06394904 -0.06399642 -0.06404907
 -0.06409898 -0.06414552 -0.06418056 -0.06420346 -0.06421484 -0.06421518 -0.06421339 -0.06420997 -0.06421288 -0.06422152
 -0.06423784 -0.06426067 -0.06428812 -0.06431904 -0.06435047 -0.06438193 -0.06441122 -0.06443959 -0.06446698 -0.06449591
 -0.06452807 -0.06456443 -0.06460658 -0.0646512 -0.06469816 -0.06474232 -0.06478259 -0.06481669 -0.06484391 -0.06486741
 -0.06488731 -0.06490982 -0.0649351 -0.06496619 -0.06500252 -0.06504146 -0.06508221 -0.06511991 -0.06515452 -0.06518326
 -0.0652069 -0.06522553 -0.06523988 -0.06525072 -0.06525908 -0.0652656 -0.06527256 -0.06528113 -0.06529424 -0.06531367
 -0.06533975 -0.06537358 -0.06541123 -0.06545261 -0.06549159 -0.06552738 -0.06555706 -0.06558032 -0.06559893 -0.06561308
 -0.06562617 -0.06563827 -0.06565133 -0.06566516 -0.06568006 -0.06569561 -0.06571088 -0.06572565 -0.06573887 -0.06575117
 -0.06576265 -0.06577471 -0.06578891 -0.06580503 -0.06582417 -0.06584281 -0.06586008 -0.06587205 -0.06587701 -0.06587517
 -0.06586573 -0.06585357 -0.06583899 -0.06582738 -0.06581908 -0.06581749 -0.06582259 -0.06583431 -0.06585189 -0.06586992
 -0.06588741 -0.06589652 -0.0658988 -0.06589303 -0.06588417 -0.06588101 -0.06588637 -0.06590973 -0.06594477 -0.0659913
 -0.06603678 -0.06607284 -0.06609406 -0.06609375 -0.06608093 -0.06605574 -0.06603166 -0.06601166 -0.06600123 -0.06600178
 -0.06601071 -0.06602797 -0.06604992 -0.06607646 -0.06610609 -0.06613861 -0.06617234 -0.06620644 -0.06623654 -0.06626199
 -0.06627826 -0.06628645 -0.06628612 -0.06627941 -0.06626921 -0.06625609 -0.06624172 -0.06622551 -0.06620689 -0.06618774
 -0.06616811 -0.06615204 -0.06614099 -0.06613602 -0.06613826 -0.06614323 -0.06615085 -0.06615401 -0.06615219 -0.06614162
 -0.06612243 -0.06609771 -0.06606814 -0.06604041 -0.0660148 -0.06599612 -0.06598378 -0.0659788 -0.06598033 -0.06598764
 -0.06599911 -0.06601299 -0.0660262 -0.06603549 -0.06603865 -0.06603276 -0.06601925 -0.06599751 -0.06597136 -0.06594151
 -0.065912 -0.06588353 -0.06586006 -0.06584222 -0.06583171 -0.06582878 -0.06583059 -0.06583705 -0.06584633 -0.06585914
 -0.06588046 -0.06591057 -0.06595513 -0.06601015 -0.0660697 -0.06612506 -0.06615627 -0.06615953 -0.0661175 -0.06604223
 -0.0659359 -0.06581815 -0.0657024 -0.0655994 -0.06551878 -0.06545722 -0.06541684 -0.06538695 -0.06536569 -0.06534645
 -0.06532771 -0.0653114 -0.06529745 -0.06529081 -0.06529161 -0.06530242 -0.06532241 -0.06534702 -0.06537357 -0.06538795
 -0.06538798 -0.06535812 -0.06530298 -0.06522243 -0.06512562 -0.06502499 -0.06492598 -0.06483803 -0.06476308 -0.06470522
 -0.06466402 -0.06464162 -0.06463129 -0.06463295 -0.06463408 -0.0646325 -0.06461788 -0.06458828 -0.064542 -0.06447861
 -0.06440233 -0.0643135 -0.06421892 -0.06411923 -0.06402249 -0.06392924 -0.06384609 -0.06377329 -0.06371535 -0.06367135
 -0.06364319 -0.06362582 -0.0636147 -0.06360166 -0.06357633 -0.06353733 -0.06347808 -0.0634091 -0.06333314 -0.06325949
 -0.06319312 -0.06313086 -0.06307381 -0.06301205 -0.06294414 -0.06286637 -0.06277806 -0.06268635 -0.06259155 -0.06250028
 -0.06241124 -0.06231676 -0.06221435 -0.06208635 -0.06193627 -0.06176284 -0.06157548 -0.06139388 -0.0612197 -0.06106619
 -0.06092395 -0.06078883 -0.06065283 -0.06050694 -0.06035605 -0.0601985 -0.06004616 -0.05990329 -0.0597732 -0.05965988
 -0.05954718 -0.05943575 -0.05928987 -0.0591067 -0.05886531 -0.05856619 -0.05824004 -0.05788973 -0.05755555 -0.05723275
 -0.05692177 -0.05661387 -0.0562828 -0.05592581 -0.05552225 -0.05508045 -0.05460014 -0.05409865 -0.05359125 -0.05309374
 -0.05262388 -0.05217938 -0.05176892 -0.05136503 -0.05096178 -0.05053499 -0.05007419 -0.04959603 -0.04909975 -0.04861712
 -0.04815109 -0.0477078 -0.04728731 -0.04688464 -0.0464998 -0.04613305 -0.04578182 -0.04543664 -0.04508988 -0.04471322
 -0.04430332 -0.04383473 -0.04332188 -0.04277174 -0.04220449 -0.04164557 -0.04109653 -0.04056766 -0.04004989 -0.03954031
 -0.03903668 -0.0385371 -0.03804475 -0.03756351 -0.03707438 -0.03658061 -0.03601449 -0.03537119 -0.03459257 -0.03367899
 -0.03270061 -0.03166518 -0.03067886 -0.02973061 -0.02882299 -0.02794121 -0.02703986 -0.02611784 -0.02515254 -0.02414487
 -0.02309506 -0.02197987 -0.02078994 -0.01946541 -0.01796545 -0.01624314 -0.01424082 -0.01204274 -0.009638895 -0.007222749
 -0.004836784 -0.002585729 -0.0004964583 0.001450672 0.003252859 0.004979638 0.006636 0.008336973 0.01009395 0.01207434
 0.01426134 0.0166922 0.01928289 0.02177652 0.02415895 0.02624754 0.02814236 0.0299146 0.0316343 0.03341004
 0.03523558 0.03714183 0.03909983 0.04109978 0.04313497 0.04520927 0.04728061 0.04934548 0.05134182 0.05325453
 0.05510704 0.05689927 0.05867652 0.06043846 0.06211367 0.06369486 0.06507361 0.06626575 0.06728581 0.06816723
 0.06902901 0.06987178 0.07077248 0.07167023 0.07249736 0.07324112 0.07384453 0.07437186 0.07485878 0.07532486
 0.07580104 0.07624007 0.07663283 0.07694333 0.07715777 0.07728447 0.07732095 0.07729448 0.07720675 0.07708437
 0.07692843 0.07674791 0.07654167 0.07630108 0.07602639 0.07571241 0.07536472 0.07499415 0.0746141 0.07425643
 0.07393414 0.07368369 0.07349975 0.07339074 0.07334726 0.07335873 0.07344133 0.07359831 0.07385018 0.07421155
 0.07465906 0.07519266 0.07577564 0.0763994 0.07707287 0.07779495 0.07859819 0.07948393 0.08046572 0.08154263
 0.08271015 0.08396742 0.08530915 0.08673324 0.0882303 0.08979896 0.0914285 0.09312724 0.09490012 0.09676221
 0.09873024 0.1008157 0.10303 0.1053846 0.1078821 0.1105504 0.1133927 0.1164601 0.1197652 0.1233402
 0.1272018 0.1312763 0.1355662 0.1398773 0.1441982 0.1482895 0.1521316 0.1554463 0.1582053 0.1600943
 0.1611405 0.1612312 0.160485 0.1590901 0.1571689 0.1549684 0.1526025 0.1502689 0.1480568 0.1461088
 0.1443923 0.1429507 0.1416439 0.1404439 0.1392013 0.1378634 0.1364258 0.1348604 0.1333763 0.1319931
 0.130788 0.1297636 0.1288251 0.1279727 0.1271756 0.1264466 0.1258391 0.1253601 0.1250757 0.1249522
 0.1250007 0.1250542 0.1249426 0.1243171 0.1226947 0.1200258 0.115999 0.1110979 0.1055017 0.0994961
 0.09321156 0.08680617 0.08029322 0.07402548 0.06805108 0.06265237 0.05787147 0.0536362 0.04994218 0.04654076
 0.04342673 0.04045813 0.03765072 0.03501861 0.03256983 0.03034691 0.02832718 0.02648634 0.02479004 0.02317549
 0.02162081 0.02008245 0.0185422 0.01698313 0.01536367 0.01365732 0.01184259 0.00986919 0.007907934 0.005971808
 0.00430124 0.002959443 0.001866911 0.00102951 0.000238331 -0.000516504 -0.001327059 -0.00218721 -0.003057696 -0.003928356
 -0.004720605 -0.005439751 -0.006066372 -0.006601441 -0.007048249 -0.007378725 -0.007552693 -0.007543627 -0.0072976 -0.006834051
 -0.006144903 -0.005269941 -0.004227206 -0.003043829 -0.001732566 -0.0003102653 0.001213147 0.00285175 0.00460181 0.006520179
 0.008616318 0.01086235 0.01325534 0.01553493 0.01768722 0.01945819 0.02086813 0.02190229 0.0225825 0.02297415
 0.02308413 0.02294733 0.02259417 0.02207024 0.02144573 0.02079598 0.02022336 0.0198285 0.01966915 0.01983569
 0.02020946 0.0207783 0.02139738 0.02201532 0.02263357 0.02323966 0.02389971 0.02461977 0.0254305 0.02633343
 0.0272928 0.02830565 0.02932216 0.03034755 0.03138286 0.03244139 0.03357461 0.03477896 0.03608488 0.03745013
 0.03881983 0.04016555 0.04141788 0.04261909 0.04377201 0.04493925 0.04616037 0.04745036 0.04883039 0.05026745
 0.05175867 0.05327062 0.05479811 0.05631998 0.0578367 0.05929236 0.06068372 0.06189693 0.06292758 0.06368653
 0.06418052 0.06440389 0.06436292 0.0640788 0.06354699 0.06276599 0.06173345 0.06043797 0.05889892 0.05712558
 0.05515818 0.05302802 0.05076938 0.04841194 0.04595885 0.04341809 0.0407822 0.03804021 0.03524583 0.03239504
 0.02961919 0.02693072 0.02441645 0.02208155 0.01989178 0.01784276 0.01586502 0.01396344 0.01212976 0.0103769
 0.008750669 0.007248584 0.005894135 0.00466316 0.003529263 0.002466928 0.001436136 0.0004261297 -0.0005862794 -0.001596066
 -0.002608156 -0.003609671 -0.004597541 -0.005559963 -0.00649316 -0.007392063 -0.008254617 -0.009084738 -0.009882662 -0.01065192
 -0.01139273 -0.01209042 -0.01274292 -0.01331824 -0.01381647 -0.01421983 -0.01453441 -0.01477225 -0.01493933 -0.01505581
 -0.01512412 -0.01515607 -0.01515476 -0.01512665 -0.01507784 -0.01501358 -0.0149426 -0.01486906 -0.01480542 -0.01475569
 -0.01473407 -0.01474477 -0.01479644 -0.0148917 -0.01502994 -0.01521182 -0.01542925 -0.01568183 -0.01596151 -0.01626795
 -0.01659586 -0.01694369 -0.01730145 -0.01766387 -0.01800789 -0.01832665 -0.01859125 -0.01880074 -0.01893829 -0.01901251
 -0.01902498 -0.01898909 -0.01891463 -0.01881501 -0.01869878 -0.01857819 -0.01845903 -0.01835064 -0.01825645 -0.01818102
 -0.0181258 -0.01809119 -0.01807764 -0.01808153 -0.01810269 -0.01813397 -0.01817501 -0.01821915 -0.01826681 -0.01831681
 -0.01837091 -0.01843395 -0.01850941 -0.01860726 -0.01873192 -0.01889576 -0.01909975 -0.01935178 -0.0196451 -0.01997859
 -0.02034076 -0.02072596 -0.02112314 -0.02152789 -0.02192961 -0.02232555 -0.02270545 -0.02306713 -0.02340543 -0.02371941
 -0.02400946 -0.02427556 -0.02451698 -0.02473352 -0.02492165 -0.02508157 -0.02521259 -0.0253155 -0.0253932 -0.02544549
 -0.02547375 -0.02547642 -0.02545106 -0.02539784 -0.02531497 -0.02520625 -0.02507369 -0.0249218 -0.02475416 -0.02457126
 -0.02437422 -0.0241619 -0.02393292 -0.02369328 -0.02344231 -0.02319579 -0.02295499 -0.02273465 -0.02253579 -0.02236132
 -0.02221078 -0.02207698 -0.02195929 -0.02184983 -0.02174922 -0.02165516 -0.02156973 -0.02149707 -0.02143826 -0.0213981
 -0.02137367 -0.02136424 -0.02136441 -0.0213686 -0.02137632 -0.02138359 -0.02139935 -0.02142506 -0.02147228 -0.0215451
 -0.02164652 -0.02177909 -0.02193245 -0.02210625 -0.02228613 -0.02247113 -0.0226578 -0.02284678 -0.02304873 -0.02326414
 -0.02350277 -0.0237615 -0.02403462 -0.02431673 -0.02459104 -0.0248552 -0.02509643 -0.0253179 -0.02551725 -0.02570157
 -0.0258751 -0.02604578 -0.02621917 -0.02640028 -0.02659305 -0.02679645 -0.02701188 -0.02723275 -0.02745876 -0.02768061
 -0.02789751 -0.02810038 -0.0282886 -0.02845588 -0.0286021 -0.02872464 -0.02882385 -0.02890041 -0.02895496 -0.02899003
 -0.02900673 -0.02900878 -0.02899775 -0.02897772 -0.02895051 -0.02892032 -0.02888698 -0.02885357 -0.0288133 -0.02876544
 -0.02869614 -0.02860032 -0.02846645 -0.02828931 -0.02806892 -0.0278034 -0.02750223 -0.02716565 -0.02680709 -0.02642726
 -0.02604387 -0.02565794 -0.02528828 -0.02493444 -0.02460391 -0.02429302 -0.02399172 -0.02369598 -0.02338925 -0.02307241
 -0.02273741 -0.02239198 -0.02204108 -0.02169498 -0.02136451 -0.0210545 -0.0207719 -0.02051375 -0.02028038 -0.0200689
 -0.0198782 -0.01970884 -0.01956168 -0.0194309 -0.01931695 -0.0192033 -0.01908897 -0.01895946 -0.01881455 -0.0186511
 -0.01846951 -0.01827117 -0.01805583 -0.01782304 -0.01757261 -0.01730426 -0.01701687 -0.01670896 -0.01637783 -0.0160187
 -0.01563237 -0.01521568 -0.01477739 -0.01432098 -0.01385572 -0.01338728 -0.01291622 -0.01244478 -0.01196644 -0.0114806
 -0.0109806 -0.0104657 -0.009930835 -0.009375636 -0.008796031 -0.008192159 -0.007565295 -0.0069181 -0.006267359 -0.005620564
 -0.005015576 -0.004460815 -0.004000589 -0.003631648 -0.003374442 -0.003206578 -0.003112675 -0.003060899 -0.003019408 -0.002964864
 -0.002872921 -0.002738699 -0.002552262 -0.002325 -0.002056829 -0.001764701 -0.001451925 -0.001128096 -0.0007953641 -0.0004508551
 -9.464599E-05 0.0002819177 0.000679201 0.001103983 0.001555868 0.002035774 0.002542042 0.003069378 0.00361438 0.00416744
 0.004721064 0.005260637 0.005771559 0.006231482 0.006624662 0.006927123 0.007139031 0.00724896 0.007278568 0.007231931
 0.007134962 0.006995368 0.006830523 0.006643378 0.00645304 0.006260686 0.006093951 0.005954657 0.005866474 0.005829867
 0.005851183 0.005928424 0.00605097 0.00621506 0.006399869 0.006602228 0.006801908 0.007000458 0.00719022 0.00737697
 0.00756601 0.007759024 0.007962279 0.008166378 0.008370522 0.008555773 0.00871574 0.008830647 0.008893211 0.008893968
 0.008828486 0.008703155 0.008517361 0.008286254 0.008010696 0.007705697 0.007372081 0.007024387 0.006663322 0.006301499
 0.005938399 0.00557878 0.005221275 0.004864288 0.00450754 0.004150787 0.003791356 0.003427958 0.003051628 0.002654643
 0.002228291 0.001763626 0.001261124 0.0007182568 0.0001397576 -0.0004728056 -0.001119607 -0.001800455 -0.002516167 -0.003267633
 -0.004046675 -0.004853072 -0.00567096 -0.006499511 -0.007323769 -0.008143445 -0.008950099 -0.00974289 -0.01051494 -0.01126279
 -0.01197331 -0.01264403 -0.01326137 -0.01383217 -0.01435721 -0.01485074 -0.01532719 -0.01579236 -0.01625703 -0.01671177
 -0.01715554 -0.01757828 -0.0179753 -0.0183483 -0.01869586 -0.01902704 -0.01934234 -0.01965299 -0.01995973 -0.02027312
 -0.02059321 -0.02091927 -0.02124894 -0.02156336 -0.02185989 -0.02211562 -0.02233258 -0.02250328 -0.02263413 -0.0227337
 -0.02280738 -0.0228663 -0.02291204 -0.02294982 -0.02297997 -0.02300328 -0.02302275 -0.02303945 -0.02305705 -0.02307761
 -0.02309937 -0.02312259 -0.02314324 -0.02316012 -0.02317832 -0.02319786 -0.02323096 -0.02327782 -0.02333952 -0.0234141
 -0.02348603 -0.02355347 -0.02359977 -0.02362552 -0.02362393 -0.02359615 -0.02354098 -0.02346005 -0.02335382 -0.02322724
 -0.02308402 -0.02293107 -0.02277393 -0.02261647 -0.02246208 -0.02231066 -0.02216274 -0.02201796 -0.02187592 -0.02173894
 -0.02160721 -0.02148321 -0.02136725 -0.02125752 -0.02115385 -0.02105106 -0.02094966 -0.02085102 -0.02075717 -0.02067886
 -0.02061605 -0.02057567 -0.02055298 -0.02054179 -0.02053842 -0.02053401 -0.02053047 -0.02052674 -0.02052429 -0.0205255
 -0.02052505 -0.0205216 -0.02050927 -0.02048572 -0.02044915 -0.02039966 -0.02033124 -0.02024399 -0.02012453 -0.01997167
 -0.01978023 -0.01955065 -0.01929959 -0.01902898 -0.01876364 -0.01850205 -0.01825145 -0.01800656 -0.01775457 -0.0174944
 -0.01721524 -0.01692493 -0.01662869 -0.01633632 -0.01606026 -0.01580273 -0.01557077 -0.01535709 -0.01516151 -0.01497209
 -0.01478485 -0.01459317 -0.01439267 -0.01419563 -0.01400129 -0.01383826 -0.01370895 -0.01362707 -0.01359216 -0.01357766
 -0.01357989 -0.01355376 -0.01350025 -0.01339854 -0.01325587 -0.01308351 -0.0128857 -0.01267777 -0.01245704 -0.01222495
 -0.01198172 -0.01172487 -0.01146507 -0.01120795 -0.01096377 -0.01074154 -0.01053466 -0.01034548 -0.01015462 -0.009957966
 -0.009745245 -0.009513326 -0.009269701 -0.009014552 -0.008758239 -0.008501044 -0.008243033 -0.007983998 -0.00772122 -0.00745628
 -0.007195208 -0.006939975 -0.006700963 -0.006475936 -0.006266688 -0.006066933 -0.005868487 -0.00566701 -0.005454028 -0.005231732
 -0.004997822 -0.004759492 -0.004519585 -0.004282961 -0.004053631 -0.00382486 -0.00359822 -0.003352928 -0.003086505 -0.002782477
 -0.002438125 -0.002070556 -0.001681359 -0.001318421 -0.0009827869 -0.0007061502 -0.0004820094 -0.0002960465 -0.0001409574 1.480636E-05
 0.000169686 0.0003359767 0.0005085853 0.0006844403 0.0008621721 0.001040181 0.001215179 0.001384408 0.00154589 0.001693658
 0.001844863 0.002000252 0.002190309 0.002424115 0.002706319 0.003042832 0.003393957 0.003757864 0.004084402 0.004371782
 0.004608401 0.004798635 0.004979344 0.005155523 0.005373633 0.005629226 0.005935223 0.006279571 0.006642786 0.007017729
 0.00738552 0.007744271 0.0080879 0.008408436 0.008699461 0.008953073 0.009159962 0.009332454 0.009469615 0.009596621
 0.009720122 0.009847737 0.009982402 0.01011603 0.01024755 0.01038413 0.01052641 0.01069733 0.01089609 0.01112577
 0.01138045 0.01163131 0.01187525 0.01208427 0.01226633 0.01242379 0.01256678 0.01271397 0.01286315 0.01301994
 0.01317717 0.01332744 0.0134799 0.0136342 0.01380966 0.01401528 0.01425029 0.01451902 0.01479932 0.01508854
 0.01537204 0.0156481 0.01591399 0.01616944 0.01640788 0.01662997 0.01683678 0.01703446 0.01725379 0.01750252
 0.01782414 0.01821566 0.01869591 0.01924818 0.0198586 0.02050581 0.0211635 0.0218163 0.0224467 0.02304337
 0.02360212 0.02409553 0.02451932 0.02482798 0.02500793 0.02504596 0.02493085 0.02472691 0.0244359 0.02415936
 0.02390224 0.02373201 0.02364782 0.02366691 0.02378324 0.02397875 0.02424219 0.02452973 0.02483084 0.02509917
 0.02533678 0.02552404 0.02567462 0.02579488 0.02589804 0.02599508 0.02609531 0.02620671 0.02633115 0.02647418
 0.02661974 0.02676755 0.02689073 0.02698467 0.02703744 0.02704643 0.0270266 0.02697899 0.0269408 0.02691518
 0.02694989 0.02704485 0.0272282 0.02749048 0.02781721 0.02819688 0.02859711 0.02901234 0.02942146 0.0298197
 0.03019104 0.03054435 0.03086917 0.03121586 0.03160367 0.03208165 0.0326965 0.03335058 0.03404414 0.0346073
 0.0350007 0.03524639 0.0353388 0.03538304 0.03538384 0.03538159 0.03537486 0.03535962 0.03533607 0.03530572
 0.0352671 0.03522009 0.0351543 0.03504592 0.03488912 0.03465881 0.03437044 0.03402507 0.03365552 0.03328386
 0.03294003 0.032648 0.03241045 0.03223794 0.03210516 0.03200787 0.0319283 0.03186134 0.03181521 0.03179103
 0.03178342 0.03179177 0.03177087 0.0317185 0.03159209 0.03139625 0.03113226 0.03080967 0.03045879 0.03009003
 0.02973915 0.02941685 0.02915829 0.02895945 0.02883804 0.02875928 0.02870706 0.02864146 0.02853414 0.02837737
 0.02815712 0.02789886 0.02760221 0.02731017 0.02702832 0.02679269 0.0266082 0.02647646 0.02639771 0.02636666
 0.02638559 0.02648212 0.02665619 0.02692775 0.0272827 0.02768476 0.02811954 0.02853552 0.02892926 0.02927717
 0.02956881 0.02978444 0.02991709 0.02994221 0.0299036 0.02980753 0.02972683 0.02969663 0.02972476 0.0298301
 0.02994265 0.03005433 0.03011214 0.03010713 0.03006192 0.02997752 0.02990884 0.02985648 0.02984499 0.02986895
 0.02991026 0.02996436 0.03000302 0.03003241 0.03005109 0.03007021 0.03011035 0.03016878 0.03025376 0.03034981
 0.0304471 0.03053674 0.03061248 0.03066655 0.03069672 0.03068955 0.0306376 0.03055463 0.03043722 0.03033592
 0.03025565 0.03022516 0.03024607 0.03029257 0.03036258 0.03042147 0.03047185 0.03051111 0.03054396 0.03058679
 0.03063888 0.03071071 0.03078944 0.03086346 0.03091028 0.03089665 0.0308203 0.0306583 0.03045035 0.03020858
 0.02997389 0.02976968 0.02959134 0.02944343 0.0293075 0.02917824 0.02906856 0.0289789 0.02892605 0.02891089
 0.02891479 0.02893534 0.02893647 0.02891702 0.0288512 0.0287411 0.02857691 0.02836867 0.02813283 0.02788277
 0.02765216 0.02743529 0.02724254 0.02705375 0.02685185 0.02663852 0.02640377 0.02617665 0.02596418 0.02579344
 0.02567232 0.02561665 0.02563052 0.02571972 0.02588696 0.02610537 0.02637355</values></Ydata></AB><ScSm><Ydata ylabel="Single channel"><values byteorder="INTEL" format="FLOAT32" numvalues="1814"> 0.06908822 0.06910117 0.06918013 0.06934589 0.06956938 0.06978472 0.06993395 0.07000427 0.07001351 0.06997157
 0.06989068 0.06983016 0.06987898 0.07006787 0.07032064 0.07050681 0.0705432 0.07046514 0.07040715 0.07047553
 0.07060793 0.07058799 0.07024704 0.06965688 0.06908609 0.06875272 0.06868587 0.06887635 0.0694076 0.0702109
 0.07079123 0.07058144 0.06965742 0.06876513 0.06849645 0.06872082 0.06893528 0.06884528 0.06845808 0.0679597
 0.06775402 0.06835805 0.06989723 0.07168259 0.07245454 0.0711778 0.06778201 0.06339543 0.05992572 0.05903776
 0.06098341 0.06426436 0.0667548 0.06739837 0.06671888 0.06574584 0.06490244 0.06413499 0.0636358 0.06389085
 0.06501064 0.0662704 0.0664844 0.06502441 0.06256477 0.06059753 0.06006647 0.06077817 0.06220709 0.06407332
 0.0655288 0.06468849 0.06048026 0.05499773 0.05257482 0.05566806 0.06223631 0.067734 0.06915715 0.06674235
 0.06266017 0.05920968 0.05794037 0.05923663 0.06225682 0.06563027 0.06828535 0.06949828 0.06870772 0.06600109
 0.06259792 0.06026451 0.06022858 0.06269063 0.06677967 0.07063984 0.07227573 0.07102078 0.06797772 0.06485596
 0.06284873 0.06263198 0.06452937 0.06818043 0.07251704 0.07637843 0.07898597 0.08002953 0.07973333 0.07870966
 0.07749198 0.07644881 0.07610925 0.07683834 0.07797886 0.07809775 0.0765429 0.07430996 0.07301714 0.07323145
 0.07401344 0.0740601 0.07302651 0.07133316 0.06888464 0.06501588 0.06002949 0.05563336 0.05323638 0.05286139
 0.05414969 0.0569201 0.05998798 0.0610983 0.0593999 0.05702017 0.05696393 0.05990782 0.06385248 0.0665523
 0.06759086 0.06821802 0.06974514 0.0722075 0.0741997 0.0739342 0.07100829 0.06740261 0.06608563 0.06810462
 0.07157837 0.07401153 0.07492644 0.07560794 0.07684989 0.07772453 0.07654789 0.0728824 0.06862518 0.06684162
 0.06909429 0.07387671 0.07770668 0.07770918 0.07355336 0.067523 0.06273268 0.0609719 0.06222444 0.06585777
 0.07132109 0.07752166 0.08253227 0.08467167 0.083735 0.08089668 0.07736701 0.07327312 0.06829934 0.06354861
 0.06177275 0.06477538 0.0711112 0.07728934 0.08088757 0.08176468 0.08071475 0.07798413 0.0734822 0.06819033
 0.06462901 0.0649111 0.06820017 0.07117385 0.07149659 0.06995316 0.06875383 0.06877945 0.0692399 0.06935671
 0.06946982 0.07044514 0.07243203 0.0745175 0.07561055 0.07544107 0.0746136 0.0738996 0.07353532 0.07304988
 0.0719212 0.07060162 0.07048226 0.07237799 0.07541648 0.07793485 0.07915208 0.07946789 0.07936372 0.07855002
 0.076391 0.07311085 0.0702886 0.06969246 0.07157491 0.07451445 0.07689525 0.07806723 0.07820085 0.07771276
 0.07698154 0.07621896 0.07552555 0.07515758 0.0754692 0.07641234 0.07741268 0.077944 0.07796455 0.07766967
 0.07711485 0.07627238 0.07529269 0.07452865 0.07428765 0.07459877 0.07523608 0.07592355 0.07644235 0.07660487
 0.07631914 0.07572015 0.07508554 0.07458279 0.07421829 0.07401793 0.07407815 0.07439476 0.07478198 0.07503097
 0.07507552 0.07496756 0.07476372 0.07448603 0.07415729 0.07383766 0.07362416 0.07359114 0.07370368 0.07383047
 0.07388961 0.07393098 0.07401224 0.07405953 0.07394665 0.07367468 0.07338265 0.0731965 0.07313117 0.073125
 0.07310295 0.07298851 0.07270557 0.07224507 0.07174807 0.07145368 0.07150657 0.07184653 0.0723021 0.07272363
 0.07300876 0.07310526 0.07305069 0.07294302 0.07282875 0.07266486 0.07241139 0.07212637 0.07195164 0.07200272
 0.07226086 0.07258119 0.07281914 0.07292719 0.07293385 0.0728949 0.07287951 0.07292721 0.07298791 0.07296554
 0.07284285 0.07271414 0.07267885 0.07273713 0.07279989 0.07278772 0.07271519 0.07267195 0.07271981 0.0728313
 0.07293905 0.07301563 0.0730833 0.07316117 0.07321915 0.07319357 0.07306135 0.07288823 0.07276948 0.07273026
 0.07272673 0.07273684 0.07279359 0.07291622 0.07305639 0.07314077 0.07314996 0.07313265 0.0731396 0.07315986
 0.07313775 0.07304664 0.07292354 0.0728284 0.07278965 0.07279487 0.07281468 0.07282434 0.07280957 0.07276551
 0.07269549 0.07260709 0.07250449 0.07239194 0.07229388 0.07225679 0.07230465 0.07239221 0.07242694 0.07235071
 0.0721924 0.07203462 0.07193251 0.07187051 0.07179736 0.0716905 0.07157376 0.07147966 0.07141647 0.07137445
 0.07134245 0.0713117 0.07128392 0.07128857 0.07136893 0.07152756 0.0716977 0.07179697 0.07180791 0.07178505
 0.07178766 0.07182943 0.07189159 0.07195941 0.07203937 0.0721499 0.07229214 0.07242863 0.07251196 0.07254235
 0.07257468 0.07266132 0.07281099 0.07300317 0.07320781 0.07338442 0.07350044 0.07356901 0.07364374 0.07376167
 0.07390889 0.07405168 0.0741809 0.07431267 0.07446195 0.07463418 0.07483675 0.07508144 0.07537097 0.07568675
 0.07598935 0.07623668 0.07641818 0.07657818 0.07679115 0.07709934 0.07747576 0.07785084 0.07817319 0.07844482
 0.07870251 0.07897098 0.07924552 0.07952437 0.07983588 0.08020833 0.08062448 0.08103582 0.0814179 0.08178601
 0.08216013 0.0825403 0.08291899 0.08329882 0.08369139 0.08410375 0.08452462 0.08492443 0.08527735 0.08558613
 0.08588062 0.08619489 0.0865473 0.08692817 0.08729482 0.08759764 0.08783502 0.08806903 0.08836006 0.08869532
 0.08901273 0.08928947 0.08956878 0.08989326 0.09024797 0.09058905 0.09090418 0.09122045 0.091561 0.09191077
 0.09222487 0.09246664 0.09264149 0.09279458 0.09297221 0.09319328 0.09346387 0.09379809 0.09419643 0.09461339
 0.09497876 0.09525418 0.09545109 0.09560373 0.09574918 0.09592323 0.09614347 0.0963937 0.09663866 0.0968481
 0.09700391 0.09711073 0.09721313 0.09737311 0.09761085 0.0978917 0.09818548 0.09850575 0.09886794 0.09924213
 0.09958699 0.09991448 0.1002756 0.1006774 0.1010537 0.1013364 0.1015232 0.1016571 0.1017721 0.1018975
 0.102085 0.102378 0.1027572 0.1031517 0.1035056 0.1038115 0.1040836 0.1043272 0.1045379 0.1047152
 0.1048679 0.1050099 0.1051557 0.1053239 0.1055386 0.1058105 0.1061114 0.1063827 0.1065766 0.1066764
 0.1066758 0.1065678 0.1063715 0.1061465 0.1059452 0.1057499 0.1054814 0.1050709 0.1045067 0.1038096
 0.1029914 0.102056 0.1010324 0.09998806 0.09900628 0.09815665 0.0974941 0.09708188 0.09699561 0.0972796
 0.09788753 0.09867012 0.09942536 0.09996551 0.1001592 0.0999499 0.09936113 0.09847815 0.09740511 0.09622493
 0.09498332 0.09368615 0.09230177 0.09078623 0.08913639 0.08743121 0.08583222 0.08457763 0.08400014 0.0844963
 0.08634844 0.08947136 0.09333481 0.09720558 0.100529 0.1031273 0.1051148 0.1067031 0.1080758 0.1093425
 0.11053 0.1116163 0.1125901 0.1134731 0.1142859 0.1150176 0.1156373 0.1161193 0.116459 0.1166777
 0.1168119 0.1168922 0.1169388 0.1169734 0.1170079 0.1170072 0.1168816 0.1165291 0.1158809 0.1149017
 0.1135581 0.111835 0.109882 0.1082092 0.1076492 0.1089079 0.1120127 0.1162176 0.1204899 0.1240998
 0.1268251 0.128782 0.1301906 0.1312508 0.1321071 0.1328484 0.1335218 0.1341475 0.1347305 0.1352757
 0.1357946 0.1363018 0.136809 0.13732 0.1378245 0.138302 0.1387413 0.1391567 0.1395812 0.1400393
 0.1405247 0.1410069 0.1414647 0.1419094 0.1423599 0.1428045 0.1432102 0.1435692 0.1439126 0.1442783
 0.1446825 0.1451189 0.1455604 0.1459669 0.1463114 0.1466055 0.146889 0.1471938 0.147525 0.1478701
 0.1482159 0.1485544 0.1488837 0.1492118 0.149554 0.1499138 0.1502683 0.1505834 0.1508493 0.1510924
 0.1513498 0.1516363 0.1519371 0.1522284 0.1525049 0.1527891 0.1531097 0.1534704 0.1538412 0.1541832
 0.154479 0.1547433 0.1550063 0.1552891 0.1555922 0.1559044 0.1562171 0.1565263 0.156828 0.1571198
 0.1574061 0.157695 0.1579883 0.1582779 0.1585562 0.1588282 0.159108 0.1594033 0.1597123 0.1600353
 0.1603761 0.1607268 0.1610622 0.1613591 0.1616155 0.1618457 0.1620656 0.1622889 0.1625275 0.1627885
 0.1630692 0.1633597 0.1636502 0.1639353 0.1642149 0.1644932 0.1647758 0.1650655 0.1653598 0.1656538
 0.1659479 0.1662492 0.1665632 0.1668837 0.1671953 0.1674863 0.1677568 0.1680179 0.1682841 0.1685644
 0.1688565 0.1691509 0.1694413 0.1697278 0.1700105 0.1702862 0.170556 0.1708291 0.1711145 0.1714091
 0.171698 0.1719697 0.1722282 0.1724859 0.1727488 0.1730149 0.1732844 0.173562 0.1738478 0.1741342
 0.1744143 0.1746876 0.1749588 0.1752333 0.1755136 0.1757967 0.1760767 0.1763491 0.1766137 0.1768722
 0.1771274 0.1773826 0.1776424 0.1779104 0.1781863 0.1784637 0.1787389 0.1790154 0.1792974 0.1795818
 0.1798641 0.1801453 0.1804265 0.1807054 0.1809808 0.181255 0.18153 0.1818084 0.1820944 0.1823886
 0.1826848 0.1829766 0.183261 0.183536 0.1838019 0.1840632 0.1843245 0.1845876 0.1848524 0.1851177
 0.1853814 0.1856426 0.1859021 0.1861599 0.1864182 0.1866827 0.1869553 0.187231 0.1875073 0.1877876
 0.1880712 0.1883515 0.1886267 0.1889016 0.1891797 0.1894614 0.1897453 0.1900285 0.1903122 0.1906036
 0.1909025 0.1911963 0.191478 0.1917559 0.1920398 0.1923293 0.1926184 0.1929012 0.1931744 0.1934436
 0.1937175 0.1939932 0.1942629 0.1945304 0.1948048 0.1950873 0.195374 0.1956615 0.1959439 0.1962163
 0.196483 0.1967523 0.1970284 0.1973142 0.1976061 0.1978897 0.1981574 0.1984213 0.1986931 0.1989687
 0.1992432 0.199518 0.1997892 0.2000555 0.2003281 0.2006135 0.2009011 0.2011821 0.201455 0.2017037
 0.2018771 0.2018426 0.2012728 0.199521 0.1956096 0.1884399 0.1772474 0.1620957 0.1440139 0.1246207
 0.1055387 0.08799168 0.07269613 0.05995713 0.04982863 0.04221898 0.03695121 0.03386672 0.03294414 0.03442211
 0.03892184 0.04707789 0.05816028 0.06884813 0.07451323 0.07287285 0.06617722 0.05915979 0.05509483 0.05420474
 0.05507776 0.05651609 0.0581482 0.06019866 0.06304409 0.06679428 0.07127914 0.07650358 0.08286177 0.0906385
 0.09941991 0.1082684 0.1165261 0.1243308 0.1323053 0.1408152 0.1495835 0.1579561 0.1654227 0.1718839
 0.1775555 0.1827236 0.1875753 0.1921853 0.1965834 0.2007583 0.2045635 0.207678 0.2097619 0.2107163
 0.2108024 0.210493 0.2101952 0.2100976 0.2102222 0.2105442 0.2110425 0.2116961 0.2124817 0.2133701
 0.2143206 0.2152934 0.2162649 0.2172177 0.218127 0.2189716 0.2197467 0.2204582 0.221115 0.2217259
 0.2222942 0.2228165 0.2232943 0.2237393 0.224164 0.2245755 0.2249777 0.2253681 0.2257344 0.2260657
 0.2263639 0.2266409 0.2269081 0.2271738 0.2274405 0.2277043 0.2279621 0.2282172 0.2284755 0.2287372
 0.2289974 0.2292528 0.2295054 0.2297616 0.2300242 0.2302863 0.2305377 0.2307776 0.2310136 0.231251
 0.2314924 0.2317418 0.2319988 0.2322522 0.2324899 0.2327148 0.2329431 0.2331878 0.2334463 0.2337047
 0.2339547 0.2342032 0.2344605 0.2347259 0.2349944 0.2352677 0.2355462 0.2358239 0.2361007 0.2363836
 0.2366641 0.2369136 0.2371181 0.2373032 0.2375135 0.2377708 0.2380569 0.2383356 0.2385906 0.2388381
 0.2391006 0.239378 0.2396502 0.2398957 0.2401108 0.2403242 0.2405785 0.2408839 0.2412096 0.2415308
 0.2418518 0.2421751 0.2424898 0.2427965 0.2431008 0.2433769 0.2435857 0.2437421 0.2439338 0.2442518
 0.2446995 0.2451799 0.2455846 0.2458911 0.2461563 0.2464424 0.2467761 0.2471285 0.2473896 0.2474457
 0.2473568 0.2473859 0.2477561 0.2484257 0.2491605 0.2497717 0.2502272 0.2505909 0.2509206 0.2512155
 0.2514211 0.2514896 0.251469 0.2515337 0.2518656 0.2524667 0.2531409 0.2536994 0.254112 0.2544325
 0.2546939 0.2549133 0.2550565 0.2549655 0.2545238 0.253976 0.2538738 0.2545444 0.2557202 0.2568208
 0.2575271 0.2579479 0.2582992 0.2586339 0.2589003 0.2589936 0.2586299 0.2575105 0.2559119 0.2548494
 0.2552388 0.2569719 0.2590879 0.2607317 0.261693 0.2621925 0.2625046 0.2627736 0.262906 0.2625852
 0.2616245 0.2604302 0.259897 0.2605846 0.262091 0.2634849 0.264257 0.2645866 0.2648415 0.2651637
 0.2653788 0.2649471 0.2632654 0.2605594 0.2583426 0.2583562 0.2608625 0.2643251 0.2669313 0.2681544
 0.2686145 0.2687357 0.2681195 0.2662568 0.2632949 0.2599777 0.2573911 0.2567921 0.2587819 0.2622876
 0.2651735 0.2663437 0.2666674 0.2675586 0.2692904 0.271015 0.2718608 0.2716036 0.2705117 0.2688697
 0.2668434 0.2649204 0.2641764 0.2655127 0.2685568 0.2717967 0.273981 0.2750694 0.2755637 0.2750366
 0.2718415 0.265087 0.257104 0.2528079 0.2553608 0.2628632 0.2703963 0.2748684 0.2767155 0.2775801
 0.2781009 0.2777441 0.2751313 0.2688019 0.2595292 0.2517599 0.2506046 0.2567861 0.26582 0.2721944
 0.2731109 0.2687703 0.2613947 0.254582 0.2518398 0.2544551 0.2609225 0.2684337 0.2745694 0.2779687
 0.2783173 0.2762157 0.2731336 0.2710518 0.2710283 0.2716344 0.2700348 0.2655655 0.2608374 0.2579132
 0.2551335 0.250203 0.2452169 0.2452809 0.2518661 0.2603456 0.2651843 0.2655439 0.2643143 0.2628612
 0.2587199 0.2491666 0.2363798 0.227557 0.228618 0.2380595 0.2482862 0.253029 0.2523249 0.2503306
 0.2497785 0.2492102 0.2450877 0.2364338 0.2272065 0.2229963 0.2251059 0.2293831 0.2311498 0.228962
 0.2230186 0.2136289 0.2038356 0.2004144 0.2081693 0.2240554 0.239554 0.2476981 0.2456624 0.233256
 0.2138278 0.1962226 0.1905056 0.1989894 0.2134341 0.2226152 0.2212607 0.2110507 0.1957824 0.1786999
 0.1639325 0.1570412 0.1617006 0.1759309 0.192189 0.2011967 0.1970991 0.181949 0.1659357 0.160071
 0.1662858 0.1761623 0.1803626 0.177078 0.1707705 0.166333 0.166205 0.1700221 0.1750621 0.1787628
 0.1807794 0.1802883 0.173247 0.1572862 0.1383989 0.1270466 0.1272726 0.1346015 0.144413 0.1560842
 0.1675583 0.1725251 0.167535 0.1585427 0.1558399 0.163133 0.1743611 0.1810853 0.1808175 0.1774834
 0.1753213 0.1743518 0.1724702 0.1703326 0.1715569 0.1777208 0.1855859 0.1906966 0.1920218 0.1915674
 0.1909669 0.1902474 0.1889887 0.1870486 0.1844714 0.1816033 0.1789946 0.1767443 0.1743713 0.1714697
 0.1677619 0.162302 0.1537912 0.142785 0.1328927 0.1280594 0.1285531 0.1313058 0.1341767 0.1370938
 0.1381906 0.1327315 0.1192201 0.1044193 0.09847905 0.1051924 0.1191703 0.131967 0.1385074 0.1375809
 0.1294521 0.1161743 0.1037092 0.1000732 0.108982 0.1265005 0.1453532 0.1610183 0.1722008 0.1777107
 0.1762103 0.1689568 0.1606351 0.1567066 0.160228 0.1705214 0.1832855 0.1915806 0.1892523 0.1771592
 0.1660406 0.1685544 0.1858626 0.2055508 0.2155751 0.2164932 0.2164344 0.2184546 0.2190659 0.2172694
 0.2181074 0.2257022 0.2371191 0.2452534 0.2451146 0.2357981 0.2196697 0.2027226 0.1930731 0.194594
 0.2026419 0.2091847 0.2106074 0.2072463 0.1985985 0.185289 0.174198 0.1743322 0.1863178 0.2010567
 0.2101 0.2133902 0.2155067 0.2177766 0.2167074 0.2093495 0.1982564 0.1899312 0.1884387 0.1918703
 0.1956058 0.1971682 0.1963685 0.1926562 0.1854381 0.1769911 0.1724465 0.1754135 0.1843299 0.1939604
 0.2000849 0.2021519 0.2020609 0.2016514 0.2014097 0.2006402 0.1988062 0.197255 0.1989261 0.2051565
 0.213446 0.2199773 0.2239734 0.2279354 0.2337048 0.2398787 0.2434802 0.2432068 0.240706 0.2391974
 0.2409271 0.2453742 0.2496046 0.2507552 0.2487509 0.24662 0.2476931 0.252414 0.258271 0.2626523
 0.2649914 0.2662235 0.2672277 0.2680808 0.268025 0.2660607 0.2623955 0.2592997 0.2595145 0.2635379
 0.2691368 0.2736265 0.2760062 0.2768362 0.2768208 0.2760474 0.2743993 0.2722386 0.2704086 0.2695918
 0.2698361 0.2707272 0.2718234 0.2728457 0.2736575 0.274247 0.2746896 0.27506 0.2754089 0.2758037
 0.2762889 0.2767996 0.2772181 0.2775532 0.2779727 0.2785913 0.2792917 0.2798275 0.2800482 0.2799226
 0.2794005 0.2784055 0.2769824 0.2753115 0.2735136 0.271558 0.2694916 0.2677283 0.2669528 0.2676171
 0.2695231 0.2719419 0.2741262 0.2756949 0.2766308 0.2770894 0.2772632 0.2773184 0.277345 0.2773477
 0.2773001 0.2772 0.2770664 0.2769023 0.2766984 0.2764795 0.2763166 0.2762657 0.2763029 0.276335
 0.2762698 0.2760719 0.2757735 0.2754441 0.2751311 0.2748104 0.274402 0.273837 0.2731076 0.2722619
 0.2713727 0.2705067 0.2696903 0.2688937 0.2680613 0.2671569 0.2661557 0.2650057 0.2636597 0.2621718
 0.2607063 0.2594039 0.2582655 0.2571889 0.2560781 0.2548845 0.2535893 0.252197 0.250738 0.2492516
 0.2477618 0.2462729 0.2447765 0.2432604 0.241709 0.2400985 0.2384005 0.2366036 0.234727 0.2327989
 0.2308131 0.2287006 0.2263372 0.2235804 0.2203076 0.2164402 0.211963 0.2069513 0.2015738 0.1960472
 0.1905726 0.1853053 0.1803739 0.1759148 0.1720779 0.1689878 0.1666964 0.1651808 0.1643858 0.164265
 0.1647923 0.1659474 0.167683 0.1698953 0.1724254 0.175089 0.1777053 0.1801233 0.1822633 0.1841518
 0.1859011 0.1876288 0.1893794 0.1911145 0.192771 0.1943081 0.1956941 0.1968804 0.1978274 0.1985417
 0.1990646 0.1994366 0.1996916 0.1998656 0.1999861 0.200061 0.2000952 0.2001156 0.200172 0.2003156
 0.2005748 0.2009515 0.2014366 0.2020231 0.2027038 0.2034685 0.2043025 0.2051857 0.2060981 0.2070395
 0.2080331 0.2091096 0.2103023 0.2116597 0.2132362 0.215057 0.2170943 0.2192748 0.2214993 0.2236601
 0.2256523 0.2273825 0.2287892 0.229867 0.2306586 0.2312163 0.2315807 0.2317841 0.2318542 0.2318114
 0.2316782 0.2314769 0.231209 0.2308503 0.2303782 0.2297955 0.2291275 0.2284095 0.2276755 0.226949
 0.2262403 0.2255527 0.2248886 0.224256 0.2236701 0.2231345 0.22262 0.2220806 0.2214937 0.2208685
 0.2202141 0.2195148 0.2187336 0.2178354 0.2168099 0.2156761 0.2144585 0.2131648 0.211791 0.2103374
 0.2088133 0.2072345 0.2056144 0.2039498 0.2022243 0.2004248 0.1985373 0.1965351 0.1944104 0.1922226
 0.1900769 0.1880453 0.1861282 0.1842912 0.1825144 0.1808035 0.1791706 0.1776137 0.1761195 0.1746859
 0.1733295 0.1720656 0.1708898 0.1697845 0.1687396 0.1677705 0.1669155 0.1661997 0.1655996 0.1650614
 0.1645514 0.1640711 0.1636382 0.1632784 0.1630201 0.1628624 0.1627544 0.1626232 0.1624204 0.1621417
 0.1618204 0.1615038 0.1612236 0.1609846 0.160771 0.1605458 0.1602412 0.1597688 0.1590426 0.1579997
 0.1566221 0.1549475 0.1530485 0.1510134 0.1489611 0.1470441 0.1453939 0.1440632 0.1430312 0.1422386
 0.1416131 0.141097 0.1406819 0.1404114 0.1403298 0.1404049 0.1404988 0.140459 0.1402719 0.1400957
 0.1401164 0.1403995 0.1408829 0.1414495 0.1419859 0.1424201 0.1427361 0.1429483 0.1430706 0.1431097
 0.1430645 0.142926 0.1426958 0.1423923 0.1420303 0.1416173 0.1411636 0.1406621 0.1400776 0.1393934
 0.1386341 0.1378169 0.1369268 0.1359442 0.1348424 0.1335852 0.1322192 0.1309566 0.1300881 0.1297956
 0.1300436 0.1306111 0.1312512 0.1318641 0.1324524 0.1328926 0.1329542 0.1327088 0.1327574 0.1337868
 0.1358783 0.138385 0.1404941 0.1417951 0.1423146 0.1422143 0.1416126 0.1405796 0.139115 0.1371599
 0.1347279 0.131955 0.1289898 0.125965 0.1230729 0.1205045 0.118325 0.1165094 0.1150302 0.1139315
 0.1133573 0.1129756 0.1110285 0.1052574 0.09638843 0.08970864 0.09063706 0.09863041 0.1075418 0.1121226
 0.1122204 0.1106242 0.109251 0.1083827 0.1079302 0.1080492 0.1088707 0.1102428 0.1117605 0.1130148
 0.1138491 0.1143074 0.1143451 0.1136317 0.1115121 0.1072071 0.1004317 0.09198278 0.08348367 0.07641912
 0.07146288 0.06851703 0.06703781 0.06634168 0.06592983 0.06572407 0.06599124 0.06701225 0.06882608 0.07127342
 0.07417357 0.07731469 0.08033229 0.08284714 0.08478374 0.08635938 0.08771269 0.08872359 0.08922839 0.0892355
 0.08888344 0.08831261 0.08762128 0.08686211 0.08601971 0.08502366 0.08386649 0.08273108 0.08190568 0.08151288
 0.08140835 0.08138761 0.08137512 0.08137405 0.08136794 0.08133203 0.08126573 0.08121001 0.08126965 0.0815497
 0.08201894 0.08250509 0.08285294 0.08303667 0.08312351 0.08314823 0.08300185 0.08251969 0.08177066 0.08109931
 0.08067751 0.08018792 0.07924341 0.0780038 0.0770769 0.07685409 0.07717271 0.07759058 0.07778314 0.07768121
 0.07743412 0.07733323 0.07762274 0.07822049</values></Ydata></ScSm><ScRf><Ydata ylabel="Single channel"><values byteorder="INTEL" format="FLOAT32" numvalues="1820"> 0.06070873 0.06087288 0.06096084 0.06097479 0.06094684 0.0609336 0.06099295 0.06114641 0.06136039 0.06156554
 0.06170331 0.06176182 0.06176231 0.06171906 0.06164235 0.06158032 0.06161088 0.06176545 0.06198065 0.06214278
 0.06217955 0.06212247 0.06208643 0.06215635 0.06226881 0.06223306 0.061911 0.06137872 0.06087599 0.06058597
 0.06052386 0.06068132 0.06114257 0.0618578 0.06239017 0.06222752 0.06142312 0.0606298 0.06037476 0.0605533
 0.0607308 0.06064912 0.0603085 0.05986723 0.05968508 0.06022734 0.06160541 0.06319694 0.0638718 0.06270944
 0.05965865 0.05573691 0.05264802 0.05186877 0.05361268 0.05654025 0.05876337 0.0593493 0.05876562 0.05792232
 0.0571872 0.05650504 0.05604385 0.05624062 0.05720475 0.05830044 0.0584742 0.05716507 0.05497249 0.05322348
 0.05275577 0.05339651 0.05467811 0.05634755 0.05764443 0.05689383 0.05315371 0.04829417 0.04616302 0.04893121
 0.05477826 0.05966602 0.06092535 0.05876467 0.05511833 0.05204142 0.05091466 0.05206918 0.05474677 0.05773152
 0.0600784 0.061147 0.06044056 0.05804235 0.05503701 0.0529839 0.05296129 0.05514449 0.05876633 0.0621858
 0.06363387 0.06251775 0.05981446 0.05704048 0.05525548 0.05506063 0.0567449 0.05999086 0.06385253 0.06729746
 0.06962566 0.0705511 0.07027164 0.06934555 0.06826638 0.06736623 0.06709784 0.06776197 0.06876612 0.06884819
 0.06744704 0.0654574 0.06431331 0.06450763 0.06519939 0.06523397 0.06431086 0.06280426 0.06062543 0.05718142
 0.05274316 0.04883142 0.04670105 0.04637695 0.04754581 0.0500468 0.05281803 0.05384161 0.05235106 0.05023529
 0.0501708 0.05276906 0.05626132 0.05865348 0.05957344 0.06013249 0.06149971 0.06370644 0.0654957 0.06526881
 0.06266796 0.05946723 0.05831867 0.06014831 0.06326371 0.06543665 0.06625773 0.06689183 0.06804515 0.06886874
 0.06784697 0.0646034 0.0608543 0.05933347 0.06140535 0.06570095 0.06911808 0.06911385 0.06541055 0.06005172
 0.0558129 0.05428461 0.05545742 0.05878709 0.06379613 0.06949687 0.07413776 0.07618693 0.07543981 0.07294052
 0.06978591 0.06611079 0.06164724 0.05740345 0.05588088 0.05872134 0.06461194 0.07037319 0.07379081 0.0747241
 0.07388484 0.07148348 0.06742704 0.06263089 0.0594538 0.05987111 0.06309295 0.06600466 0.06642413 0.06509612
 0.06409783 0.0642539 0.06481893 0.06506495 0.06532587 0.06642915 0.06850928 0.07068183 0.0718935 0.07187939
 0.07122003 0.07066733 0.07045975 0.07014474 0.06921989 0.06813402 0.06823918 0.07030609 0.07345872 0.07607152
 0.07740174 0.07786284 0.07793114 0.07730457 0.07533485 0.07224131 0.06960839 0.06921221 0.07130489 0.07445262
 0.07702404 0.07836598 0.07866244 0.07834592 0.07779896 0.07722864 0.07673338 0.07657119 0.07709429 0.07824599
 0.07944455 0.08016568 0.08037192 0.08024932 0.07983497 0.07910191 0.07823329 0.07761918 0.07757434 0.07810594
 0.07896516 0.0798689 0.08059654 0.08094703 0.08081084 0.08032752 0.07980671 0.07944593 0.07925485 0.07924674
 0.07950963 0.08003268 0.08061595 0.08103742 0.08123235 0.08126698 0.08120976 0.08107997 0.0808886 0.08069511
 0.08061514 0.08073781 0.08101647 0.08129863 0.08150738 0.08172017 0.08200187 0.08224362 0.08227517 0.08209295
 0.08187589 0.08179053 0.0818557 0.0819874 0.08209354 0.08209077 0.08189522 0.08149739 0.08106072 0.08085644
 0.08104526 0.08156481 0.0822351 0.08288796 0.08338796 0.08365415 0.08372124 0.08370237 0.0836543 0.08353525
 0.08331238 0.08306439 0.08295853 0.08312614 0.08354666 0.08405579 0.08447771 0.08473457 0.08484504 0.08488829
 0.08497424 0.08515898 0.08536195 0.0854415 0.08537443 0.08529462 0.08533144 0.08546133 0.08554626 0.08549783
 0.08538134 0.0853498 0.08548261 0.08571466 0.08592877 0.08608541 0.0862401 0.08644675 0.08666116 0.08675767
 0.08666266 0.08645562 0.08629196 0.08623749 0.08624279 0.08627388 0.08637795 0.08658484 0.08681425 0.08694425
 0.08695037 0.0869277 0.08696914 0.08705296 0.08707231 0.08696087 0.08676405 0.08659035 0.08651877 0.08655557
 0.0866494 0.08672753 0.08673375 0.08665857 0.08653969 0.08642527 0.08633804 0.08628671 0.08630601 0.08644846
 0.08670624 0.08695684 0.08703329 0.08687407 0.08659168 0.08637223 0.08630483 0.08631682 0.08626935 0.08609548
 0.08584054 0.08559357 0.08540702 0.08527689 0.08517224 0.08507413 0.08500154 0.08500704 0.08512361 0.08529686
 0.08539306 0.08530983 0.08507483 0.08481298 0.08462965 0.08454695 0.08452669 0.08451824 0.08450121 0.08450746
 0.08457731 0.08467867 0.08471453 0.08463688 0.0845117 0.0844501 0.08451506 0.0846999 0.08493698 0.08511138
 0.08513089 0.08501805 0.08489681 0.08486788 0.08492747 0.08501556 0.08509929 0.08518442 0.08527754 0.08537577
 0.08548981 0.08564983 0.08587574 0.0861454 0.08639753 0.0865732 0.08666618 0.0867392 0.08688198 0.08714093
 0.08748163 0.08781782 0.08808063 0.08826873 0.08843418 0.08861934 0.08881918 0.08901678 0.08923341 0.08950885
 0.08983918 0.09017222 0.09046908 0.09074013 0.09101515 0.09130469 0.09160343 0.09191804 0.09227704 0.09270087
 0.09315498 0.09354769 0.09380123 0.09392973 0.09403577 0.09423232 0.09456429 0.09497391 0.09532855 0.09552222
 0.09558403 0.09565923 0.09585218 0.09612092 0.09636461 0.09657964 0.09686647 0.09728575 0.09776244 0.09815392
 0.09838919 0.09852418 0.09866928 0.09887342 0.09908488 0.09922801 0.0993019 0.09937595 0.0994973 0.09965335
 0.09984057 0.1001107 0.1005008 0.100953 0.1013559 0.1016478 0.1018445 0.1019877 0.1021058 0.1022059
 0.1022761 0.1023075 0.1023288 0.1023875 0.102484 0.1025645 0.102598 0.1026226 0.1026965 0.1028395
 0.1030474 0.1033208 0.1036415 0.1039507 0.1042048 0.1044468 0.1047634 0.1051549 0.1054986 0.1056798
 0.1057178 0.1057194 0.1057443 0.105782 0.1058398 0.1059732 0.1062164 0.1065379 0.1068855 0.1072377
 0.1075956 0.1079489 0.108263 0.1084917 0.1086013 0.1086005 0.1085529 0.1085509 0.108666 0.1089099
 0.1092329 0.1095605 0.1098376 0.1100367 0.1101344 0.1101171 0.1100307 0.1099899 0.1100877 0.1102916
 0.1104583 0.1104552 0.1102469 0.1098676 0.1093545 0.108733 0.1080492 0.1073837 0.1068209 0.1064129
 0.1061789 0.1061402 0.1063362 0.1067833 0.1074203 0.1081229 0.1087771 0.1093077 0.1096346 0.1096594
 0.1093367 0.1087349 0.107995 0.1072451 0.1065596 0.105957 0.1054034 0.1048564 0.1043502 0.1040317
 0.1040894 0.1046425 0.1056819 0.1070757 0.108612 0.1100678 0.1112929 0.1122627 0.1130538 0.1137617
 0.1144393 0.1151047 0.1157738 0.1164491 0.117091 0.1176464 0.1181103 0.1185276 0.1189339 0.1193222
 0.1196643 0.1199416 0.1201618 0.1203606 0.1205699 0.1207668 0.1208809 0.1208718 0.1207746 0.1206515
 0.12052 0.1203453 0.1200802 0.119705 0.1192572 0.1188541 0.1186769 0.1188961 0.1195763 0.1206356
 0.1219045 0.1232296 0.1245157 0.1256828 0.1266364 0.127316 0.1277537 0.1280519 0.1283113 0.1285889
 0.128899 0.1292271 0.1295477 0.1298459 0.1301276 0.1304132 0.1307249 0.1310682 0.1314153 0.1317197
 0.1319603 0.1321736 0.1324297 0.13277 0.1331645 0.1335416 0.133866 0.1341712 0.1344969 0.1348169
 0.1350678 0.1352364 0.1353815 0.1355756 0.1358537 0.136209 0.1365944 0.1369353 0.137179 0.1373432
 0.1374958 0.1376874 0.1379203 0.1381743 0.1384363 0.1386977 0.1389504 0.139201 0.1394754 0.139786
 0.140098 0.1403491 0.1405133 0.1406315 0.140771 0.1409631 0.141185 0.1413969 0.1415903 0.1417999
 0.1420677 0.1423924 0.1427182 0.1429805 0.1431599 0.1432904 0.1434186 0.1435692 0.1437456 0.1439443
 0.1441583 0.1443744 0.1445818 0.1447834 0.1449915 0.1452118 0.145437 0.1456562 0.1458671 0.146076
 0.1462874 0.1464986 0.1467098 0.1469358 0.1471979 0.1474944 0.1477878 0.1480327 0.1482143 0.1483544
 0.1484847 0.1486235 0.1487765 0.1489447 0.1491272 0.1493193 0.1495151 0.1497112 0.1499101 0.1501175
 0.1503356 0.150558 0.1507739 0.1509787 0.1511807 0.1513947 0.1516273 0.1518687 0.152101 0.1523137
 0.1525095 0.1526992 0.1528929 0.1530927 0.153288 0.153466 0.153628 0.1537907 0.153969 0.1541633
 0.1543649 0.1545655 0.1547615 0.1549535 0.1551453 0.1553385 0.1555312 0.1557235 0.1559208 0.1561289
 0.1563437 0.1565513 0.1567408 0.1569182 0.1571028 0.1573084 0.1575304 0.1577531 0.1579648 0.1581636
 0.1583535 0.1585388 0.1587215 0.1589047 0.1590949 0.1592953 0.1595009 0.1597032 0.1598991 0.1600914
 0.160285 0.1604832 0.1606871 0.1608956 0.1611082 0.1613244 0.161541 0.1617553 0.161969 0.1621828
 0.1623912 0.1625905 0.1627879 0.1629957 0.1632187 0.1634523 0.1636875 0.1639148 0.1641266 0.1643186
 0.1644908 0.1646512 0.1648145 0.1649904 0.1651753 0.1653601 0.1655386 0.1657096 0.1658787 0.166057
 0.1662496 0.1664491 0.166648 0.1668487 0.1670556 0.1672671 0.1674793 0.1676898 0.1678978 0.1681053
 0.1683153 0.1685264 0.1687357 0.1689431 0.1691484 0.1693498 0.1695495 0.1697529 0.1699587 0.1701625
 0.170367 0.1705773 0.1707916 0.1710056 0.1712184 0.1714276 0.1716317 0.171833 0.172034 0.1722352
 0.172442 0.1726599 0.1728833 0.1731029 0.1733193 0.1735362 0.1737522 0.1739686 0.1741881 0.1744045
 0.1746095 0.1748068 0.1750063 0.1752118 0.1754248 0.1756454 0.1758678 0.1760889 0.1763116 0.1765323
 0.1767419 0.1769437 0.1771471 0.1773399 0.1774698 0.1774091 0.1768611 0.1752605 0.1717604 0.165402
 0.1555059 0.1421172 0.1261405 0.1090093 0.09215795 0.07666405 0.06316112 0.0519267 0.04301388 0.03633438
 0.03171888 0.02902034 0.02821865 0.02952121 0.03347237 0.04063274 0.05036318 0.05974213 0.06470076 0.06323978
 0.05734463 0.05117452 0.04760126 0.04681896 0.04759045 0.04886391 0.05030753 0.05211215 0.05460673 0.05788979
 0.06181411 0.06638703 0.07196193 0.07879578 0.08652191 0.09430222 0.1015461 0.1083773 0.1153561 0.122813
 0.1305027 0.1378482 0.1444051 0.1500882 0.1550777 0.1596129 0.163857 0.1678824 0.1717191 0.1753582
 0.1786764 0.1814012 0.1832364 0.1840854 0.184163 0.1838771 0.1835889 0.1834727 0.1835537 0.1838098
 0.1842197 0.184764 0.1854251 0.1861834 0.1870081 0.1878628 0.1887192 0.1895556 0.1903515 0.1910937
 0.1917802 0.192411 0.1929832 0.1934969 0.1939603 0.1943894 0.1948007 0.1951995 0.1955763 0.195922
 0.1962433 0.196554 0.196856 0.1971378 0.1973886 0.1976099 0.1978169 0.1980274 0.1982467 0.198465
 0.1986738 0.1988776 0.1990864 0.1993027 0.1995195 0.1997278 0.1999263 0.2001236 0.2003271 0.2005313
 0.2007242 0.2009051 0.2010849 0.2012719 0.201467 0.2016705 0.2018797 0.2020853 0.2022783 0.202462
 0.2026467 0.2028378 0.2030332 0.2032298 0.2034294 0.2036379 0.2038584 0.2040866 0.2043143 0.2045344
 0.2047422 0.2049394 0.2051391 0.2053533 0.2055722 0.2057695 0.2059328 0.2060804 0.2062464 0.2064518
 0.2066889 0.2069268 0.2071381 0.2073184 0.2074821 0.2076477 0.207827 0.208019 0.2082155 0.208422
 0.2086575 0.2089217 0.209186 0.2094299 0.2096599 0.2098844 0.2101038 0.2103272 0.21056 0.210774
 0.2109308 0.2110427 0.2111859 0.2114365 0.2117941 0.2121745 0.2124881 0.2127215 0.2129283 0.2131612
 0.2134375 0.2137268 0.2139325 0.2139536 0.2138376 0.2138112 0.2140758 0.214607 0.2152071 0.2157086
 0.2160777 0.2163662 0.2166232 0.2168452 0.2169805 0.21699 0.2169292 0.216963 0.2172472 0.2177679
 0.2183421 0.2188034 0.2191304 0.2193761 0.2195733 0.2197352 0.2198257 0.2197055 0.2192801 0.2187702
 0.2186556 0.2192128 0.2202004 0.2211134 0.2216821 0.2220095 0.2222868 0.2225589 0.2227787 0.2228524
 0.2225292 0.2215451 0.2201361 0.2191827 0.2194836 0.2209509 0.2227556 0.2241565 0.2249693 0.2253833
 0.2256366 0.2258551 0.2259572 0.2256664 0.2248218 0.22378 0.2233185 0.2239187 0.2252268 0.2264323
 0.2270911 0.2273579 0.2275597 0.2278325 0.228025 0.2276523 0.2261777 0.2238069 0.2218726 0.2218881
 0.2240647 0.227057 0.2292946 0.2303281 0.2306966 0.230768 0.2302044 0.2285782 0.2260245 0.2231809
 0.220972 0.2204726 0.2221995 0.2252281 0.2277159 0.2287185 0.22899 0.2297579 0.2312639 0.2327742
 0.2335272 0.2333207 0.2323835 0.2309628 0.2292083 0.2275499 0.2269197 0.2280908 0.2307361 0.233548
 0.2354427 0.2363814 0.2367998 0.2363333 0.233558 0.2277022 0.2207897 0.2170862 0.2193365 0.2258928
 0.2324809 0.2364044 0.2380336 0.2388002 0.2392677 0.2389746 0.2367257 0.231261 0.2232584 0.2165719
 0.2156229 0.2210303 0.2289079 0.2344827 0.235326 0.2316054 0.2252488 0.2193827 0.21705 0.2193655
 0.2250282 0.231607 0.2369992 0.2400135 0.2403664 0.2385743 0.2359247 0.2341591 0.2342044 0.2348064
 0.2334916 0.2296869 0.225667 0.2232237 0.22091 0.2167276 0.212505 0.2126969 0.2185844 0.2261212
 0.2304746 0.2309259 0.2300075 0.2289012 0.2254347 0.2172211 0.2061826 0.1986526 0.1998383 0.2084089
 0.2176754 0.222139 0.2218645 0.2205285 0.2205234 0.2205141 0.2173098 0.2100179 0.2021894 0.198851
 0.2011707 0.205416 0.2073863 0.2057768 0.2007515 0.1925965 0.1840939 0.1814028 0.1888912 0.2038074
 0.2184136 0.2263488 0.2249854 0.2140837 0.1966965 0.1810282 0.176457 0.1851503 0.1994338 0.2088366
 0.2084121 0.199672 0.186121 0.1708281 0.1578197 0.152577 0.1587859 0.1745742 0.1924724 0.2031198
 0.2004706 0.1865213 0.1717394 0.1675487 0.1759294 0.1880157 0.1939935 0.1919879 0.1867406 0.1835197
 0.1850732 0.1910533 0.1983907 0.2042075 0.2081243 0.2090197 0.2019527 0.1840987 0.1626048 0.1498644
 0.1506538 0.1597304 0.1717381 0.1859999 0.2000016 0.2061118 0.200179 0.1893628 0.1860077 0.1945359
 0.207677 0.2153618 0.2146843 0.2104117 0.2076506 0.2064309 0.2042394 0.2018769 0.2036738 0.2114986
 0.2214777 0.2283159 0.2308087 0.2313564 0.2319064 0.2324775 0.2325306 0.231859 0.2305213 0.2289857
 0.227984 0.2276868 0.2275449 0.2271204 0.2260689 0.2228905 0.2152561 0.2032792 0.1915839 0.185636
 0.1859523 0.1884884 0.1906562 0.1928393 0.1927876 0.1840248 0.1644007 0.1431258 0.1340662 0.1423411
 0.1605118 0.1770672 0.1852362 0.183584 0.1726041 0.1549359 0.1380753 0.1319866 0.1409638 0.1595128
 0.1782242 0.1918669 0.199908 0.2019883 0.1969821 0.1862428 0.1748551 0.168703 0.1709063 0.180477
 0.1926293 0.1999762 0.1961616 0.1822115 0.1692939 0.1704367 0.1868418 0.2058437 0.2151447 0.2152451
 0.2143624 0.2156589 0.2157228 0.2135987 0.2143529 0.2221633 0.2341966 0.2434064 0.2447212 0.2370432
 0.2225784 0.2073298 0.1995326 0.2030178 0.2127927 0.2204103 0.2221029 0.2182939 0.2086453 0.1941313
 0.1822693 0.182601 0.195656 0.2117131 0.2218447 0.2260499 0.2292027 0.2326503 0.2325634 0.2257233
 0.2148894 0.2070976 0.2067123 0.2116267 0.2168594 0.2198035 0.2202719 0.2175454 0.2108165 0.2025623
 0.1985687 0.202915 0.2137349 0.224921 0.2315512 0.2329684 0.2313866 0.2290084 0.2265255 0.2232769
 0.2187285 0.2143891 0.2135073 0.2176028 0.2240536 0.2287982 0.2309827 0.2332298 0.2375056 0.2424023
 0.2448503 0.24347 0.2398868 0.2373184 0.237996 0.2413946 0.2446221 0.2448821 0.2421295 0.2393611
 0.2398608 0.2440694 0.2495239 0.2536599 0.2559042 0.257138 0.2581851 0.2590897 0.2590832 0.2571617
 0.2535051 0.2503105 0.2502387 0.2537759 0.2587721 0.2626689 0.2645711 0.2650968 0.2649627 0.2642364
 0.2627584 0.2608255 0.2592055 0.2585257 0.25882 0.2596896 0.260718 0.2616526 0.2623763 0.262879
 0.2632187 0.2634388 0.2635544 0.2636127 0.263671 0.263702 0.263628 0.2634879 0.2634671 0.2636876
 0.2640385 0.2642892 0.2643052 0.2640588 0.2634965 0.2625444 0.2612503 0.259785 0.2582501 0.2566008
 0.2548761 0.2534681 0.2530133 0.2539105 0.2559441 0.2584167 0.260632 0.2622429 0.2632357 0.2637467
 0.2639486 0.2640063 0.2640249 0.2640153 0.263932 0.2637439 0.2634592 0.2631015 0.2626925 0.2622632
 0.2618591 0.2615156 0.261227 0.260947 0.2606194 0.2602112 0.2597313 0.2592181 0.2586985 0.258149
 0.2575085 0.2567335 0.2558372 0.2548782 0.2539303 0.2530534 0.2522649 0.251527 0.2507753 0.2499646
 0.249068 0.2480533 0.2469112 0.2457215 0.2446412 0.2437831 0.2431198 0.2425187 0.2418525 0.2410628
 0.2401553 0.2391695 0.2381465 0.2371016 0.2360214 0.2348882 0.2336965 0.2324408 0.2311075 0.229686
 0.22818 0.2266056 0.2249872 0.2233493 0.2216857 0.2199309 0.2179691 0.2156712 0.212917 0.2096067
 0.2056991 0.2012582 0.1964545 0.1915077 0.1866202 0.1819481 0.1776121 0.1737179 0.170357 0.1675951
 0.1654728 0.1640202 0.1632647 0.1632227 0.1638911 0.1652398 0.1672007 0.1696582 0.1724586 0.1754318
 0.1784083 0.1812383 0.1838317 0.1861933 0.188399 0.19051 0.1925116 0.1943444 0.1959756 0.1974119
 0.1986561 0.1996949 0.2005356 0.2012254 0.2018173 0.2023332 0.202769 0.2031249 0.203417 0.2036659
 0.2038851 0.2040843 0.2042739 0.2044635 0.2046601 0.2048733 0.2051185 0.2054144 0.2057792 0.2062232
 0.2067396 0.2073044 0.2078952 0.208502 0.2091215 0.209757 0.2104352 0.2112105 0.2121359 0.213233
 0.2144856 0.2158469 0.2172449 0.2185912 0.2198015 0.2208153 0.2216004 0.2221425 0.2224415 0.2225235
 0.222442 0.2222508 0.221977 0.2216246 0.221194 0.2206883 0.2201129 0.2194806 0.2188114 0.2181182
 0.2174031 0.2166718 0.2159427 0.2152328 0.2145444 0.2138726 0.2132215 0.2126052 0.2120293 0.2114781
 0.2109236 0.2103499 0.2097655 0.2091912 0.2086369 0.2080825 0.2074782 0.2067706 0.2059374 0.2049944
 0.2039648 0.2028521 0.2016486 0.2003577 0.1989954 0.1975733 0.1960866 0.1945238 0.1928836 0.1911705
 0.1893729 0.1874626 0.1854413 0.1833764 0.1813724 0.1795072 0.1777992 0.176221 0.1747281 0.1732915
 0.1719148 0.170616 0.1693957 0.1682367 0.1671289 0.166076 0.1650832 0.1641529 0.1632868 0.1624845
 0.1617468 0.1610822 0.1605039 0.160018 0.1596171 0.1592851 0.159017 0.1588353 0.1587661 0.1587902
 0.1588382 0.1588445 0.1587876 0.1586789 0.1585431 0.1584136 0.1583209 0.1582716 0.1582416 0.158181
 0.1580236 0.1576976 0.1571325 0.1562656 0.1550675 0.153566 0.1518401 0.1500022 0.1481889 0.1465299
 0.1451011 0.1439228 0.142996 0.142302 0.1417833 0.1413776 0.1410723 0.1409051 0.1409166 0.1410958
 0.1413425 0.141512 0.1415467 0.1415491 0.1416952 0.1420956 0.1427414 0.1435268 0.1443084 0.1449833
 0.1455199 0.1459152 0.1461671 0.1462952 0.1463301 0.1462755 0.1461261 0.1459094 0.1456654 0.1454019
 0.1450934 0.1447002 0.144194 0.1435843 0.1429018 0.1421548 0.1413381 0.1404567 0.1394851 0.1383608
 0.1371132 0.1359577 0.1351906 0.1350076 0.1354122 0.136227 0.1372141 0.1382418 0.1392636 0.1401097
 0.140509 0.1404939 0.1406404 0.1416563 0.1436948 0.1461855 0.1483542 0.1497935 0.1505059 0.1505973
 0.1501261 0.1491416 0.147661 0.1456494 0.1431404 0.1402833 0.137217 0.1340514 0.1309794 0.1282227
 0.1258918 0.1240084 0.1225661 0.1215911 0.1211984 0.1210069 0.1191131 0.1130891 0.1037528 0.09682926
 0.09811728 0.1069489 0.1166655 0.1216397 0.1217424 0.119999 0.11849 0.1175166 0.1169539 0.1169463
 0.1176484 0.1189405 0.1204315 0.1216951 0.1225418 0.1230001 0.1230273 0.1222603 0.1199505 0.1152252
 0.1077958 0.0985688 0.08932902 0.081688 0.07635611 0.07318991 0.07157031 0.07075499 0.07022444 0.06992073
 0.0701486 0.07120869 0.07314187 0.0757976 0.07899887 0.0824993 0.08587233 0.08868533 0.09082921 0.09251658
 0.09392882 0.0950054 0.09558938 0.09563924 0.09525995 0.09461643 0.09385467 0.09304854 0.09216647 0.0911122
 0.08987974 0.08868276 0.08783335 0.0874487 0.08736297 0.0873483 0.08731277 0.08726883 0.0872338 0.08720174
 0.08715542 0.08711548 0.08719306 0.08751281 0.08804615 0.08859134 0.08894743 0.08907282 0.08907141 0.08901997
 0.08880553 0.08824044 0.0874063 0.08668157 0.08623634 0.08570582 0.08465838 0.08326201 0.08218327 0.08186464
 0.08213457 0.08250357 0.08262324 0.08244183 0.08214083 0.08204275 0.0824112 0.08314467 0.08374595 0.08377298
</values></Ydata></ScRf><Data_Parameters_AB><parameter name="DPF">1</parameter><parameter name="NPT">3497</parameter><parameter name="FXV">3996</parameter><parameter name="LXV">500</parameter><parameter name="CSF">1</parameter><parameter name="MXY">0.161231219768524</parameter><parameter name="MNY">-0.0672581642866135</parameter><parameter name="DAT">01/06/2022</parameter><parameter name="TIM">12:07:14.730 (GMT+2)</parameter><parameter name="DXU">WN</parameter></Data_Parameters_AB><AB__Qtest><MainReport name="Quality Test Report"><Header><Line><Legend>Test result ok/not ok [1/0]: </Legend><Value>0</Value></Line><Line><Legend>Method file: </Legend><Value>C:\Users\Public\Documents\Bruker\OPUS_8.2.28\QT\IRBT_v3_default.QT</Value></Line></Header><Matrix><Line><Legend></Legend><Legend>min</Legend><Legend>max</Legend><Legend>measured</Legend></Line><Line><Value>Absorption (X-Range 1):</Value><Value>0.400000</Value><Value>2.000000</Value><Value>0.157715</Value></Line><Line><Value>Noise (X-Range 4):</Value><Value></Value><Value>0.000300</Value><Value>0.000048</Value></Line><Line><Value>Signal/Noise (X-Range 2):</Value><Value>200.000000</Value><Value></Value><Value>55.471761</Value></Line><Line><Value>Signal/Noise (X-Range 3):</Value><Value>40.000000</Value><Value></Value><Value>29.915133</Value></Line><Line><Value>Water vapour (X-Range 5):</Value><Value></Value><Value>0.000300</Value><Value>0.000081</Value></Line><Line><Value>Signal/Water (X-Range 2):</Value><Value>100.000000</Value><Value></Value><Value>32.935696</Value></Line><Line><Value>Signal/Water (X-Range 3):</Value><Value>20.000000</Value><Value></Value><Value>17.761753</Value></Line><Line><Value>Fringes (X-Range 6):</Value><Value></Value><Value>0.000100</Value><Value>0.000083</Value></Line></Matrix></MainReport></AB__Qtest><Data_Parameters_ScSm><parameter name="DPF">1</parameter><parameter name="NPT">1814</parameter><parameter name="FXV">3996.33169228125</parameter><parameter name="LXV">499.541461535156</parameter><parameter name="CSF">1</parameter><parameter name="MXY">0.280048161745071</parameter><parameter name="MNY">0.0329441353678703</parameter><parameter name="DAT">01/06/2022</parameter><parameter name="TIM">12:07:14.730 (GMT+2)</parameter><parameter name="DXU">WN</parameter></Data_Parameters_ScSm><Data_Parameters_ScRf><parameter name="DPF">1</parameter><parameter name="NPT">1820</parameter><parameter name="FXV">4004.04661832813</parameter><parameter name="LXV">495.683998511719</parameter><parameter name="CSF">1</parameter><parameter name="MXY">0.265096843242645</parameter><parameter name="MNY">0.0282186456024647</parameter><parameter name="DAT">01/06/2022</parameter><parameter name="TIM">12:06:48.338 (GMT+2)</parameter><parameter name="DXU">WN</parameter></Data_Parameters_ScRf><Optic_Parameters_Rf><parameter name="APR">0</parameter><parameter name="APT">Open</parameter><parameter name="BMS">KBr</parameter><parameter name="DTC">RT-DLaTGS_IR-Biotyper [Microplate reader]</parameter><parameter name="HPF">0</parameter><parameter name="LPF">10.0</parameter><parameter name="LPV">4000</parameter><parameter name="PGR">0</parameter><parameter name="RCH">Module port</parameter><parameter name="RDX">0</parameter><parameter name="SRC">MIR</parameter><parameter name="VEL">10.0</parameter><parameter name="SON">Off</parameter></Optic_Parameters_Rf><Acquisition_Parameters_Rf><parameter name="ADT">1</parameter><parameter name="AQM">DD</parameter><parameter name="CFE">0</parameter><parameter name="COR">0</parameter><parameter name="DEL">0</parameter><parameter name="DLY">0</parameter><parameter name="HFW">8000</parameter><parameter name="LFW">0</parameter><parameter name="NSR">32</parameter><parameter name="PLF">AB</parameter><parameter name="RES">6</parameter><parameter name="RGN">-1</parameter><parameter name="STR">0</parameter><parameter name="TCL">MakeCompatibleScalar (0, {WSV=1.000000, ARV=0});</parameter><parameter name="TDL">37</parameter><parameter name="RPO">0</parameter></Acquisition_Parameters_Rf><FT_-_Parameters_Rf><parameter name="APF">B3</parameter><parameter name="HFQ">500</parameter><parameter name="LFQ">4000</parameter><parameter name="NLI">0</parameter><parameter name="PHR">24</parameter><parameter name="PHZ">ML</parameter><parameter name="SPZ">NO</parameter><parameter name="ZFF">1</parameter></FT_-_Parameters_Rf><Optic_Parameters_><parameter name="APR">0</parameter><parameter name="APT">Open</parameter><parameter name="BMS">KBr</parameter><parameter name="CHN">Module port</parameter><parameter name="DTC">RT-DLaTGS_IR-Biotyper [Microplate reader]</parameter><parameter name="HPF">0</parameter><parameter name="LPF">10.0</parameter><parameter name="LPV">4000</parameter><parameter name="PGN">0</parameter><parameter name="RDX">0</parameter><parameter name="SRC">MIR</parameter><parameter name="VEL">10.0</parameter><parameter name="SON">Off</parameter></Optic_Parameters_><FT_-_Parameters_><parameter name="APF">B3</parameter><parameter name="HFQ">500</parameter><parameter name="LFQ">4000</parameter><parameter name="NLI">0</parameter><parameter name="PHR">24</parameter><parameter name="PHZ">ML</parameter><parameter name="SPZ">NO</parameter><parameter name="ZFF">1</parameter></FT_-_Parameters_><Acquisition_Parameters_><parameter name="ADT">1</parameter><parameter name="AQM">DD</parameter><parameter name="CFE">0</parameter><parameter name="COR">0</parameter><parameter name="DEL">0</parameter><parameter name="DLY">0</parameter><parameter name="HFW">8000</parameter><parameter name="LFW">0</parameter><parameter name="NSS">32</parameter><parameter name="PLF">AB</parameter><parameter name="RES">6</parameter><parameter name="SOT">0</parameter><parameter name="TCL">MakeCompatibleScalar (0, {WSV=1.000000, ARV=0});</parameter><parameter name="TDL">37</parameter><parameter name="SPO">0</parameter><parameter name="SGN">-1</parameter></Acquisition_Parameters_><Instrument_Parameters_Rf><parameter name="HFL">15800.168544</parameter><parameter name="LFL">0</parameter><parameter name="LWN">15800.168544</parameter><parameter name="ABP">32197</parameter><parameter name="SSP">1</parameter><parameter name="ARG">2</parameter><parameter name="ASG">2</parameter><parameter name="ASS">32</parameter><parameter name="GFW">16</parameter><parameter name="GBW">16</parameter><parameter name="BFW">0</parameter><parameter name="BBW">0</parameter><parameter name="PKA">7313</parameter><parameter name="PKL">4990</parameter><parameter name="PRA">7480</parameter><parameter name="PRL">5001</parameter><parameter name="P2A">1</parameter><parameter name="P2L">1</parameter><parameter name="P2R">1</parameter><parameter name="P2K">1</parameter><parameter name="DAQ">0</parameter><parameter name="AG2">1</parameter><parameter name="SSM">1</parameter><parameter name="RSN">25985</parameter><parameter name="CRR">0</parameter><parameter name="SRT">1654085208.339</parameter><parameter name="DUR">19.6389923095703</parameter><parameter name="TSC">29</parameter><parameter name="MVD">0.944833278656006</parameter><parameter name="AN1">0.22582040808672</parameter><parameter name="AN2">0</parameter><parameter name="VSN">2.485 Apr  4 2017</parameter><parameter name="SRN">0085</parameter><parameter name="CAM">0</parameter><parameter name="INS">IR-Biotyper</parameter><parameter name="FOC">69</parameter><parameter name="RDY">1</parameter><parameter name="ARS">32</parameter></Instrument_Parameters_Rf><Sample_Parameters_><parameter name="BLD"></parameter><parameter name="CNM">Admin</parameter><parameter name="CPY"></parameter><parameter name="DPM"></parameter><parameter name="EXP">IRBT_v3_32Scans.XPM</parameter><parameter name="LCT"></parameter><parameter name="SFM">Microplate, HTS-XT</parameter><parameter name="SNM">220601-1028(v.3)_RTF49M (D_12)_C10_9c9e4d41-4aa7-4371-95d0-36330bc42953.0</parameter><parameter name="XPP">C:\Users\Public\Documents\Bruker\OPUS_8.2.28\XPM</parameter><parameter name="IST">OK</parameter><parameter name="CPG">1252</parameter><parameter name="UID">2575dda3-a1e3-4671-872d-5bb70484272e</parameter></Sample_Parameters_><Instrument_Parameters_><parameter name="HFL">15800.168544</parameter><parameter name="LFL">0</parameter><parameter name="LWN">15800.168544</parameter><parameter name="ABP">32197</parameter><parameter name="SSP">1</parameter><parameter name="ASG">2</parameter><parameter name="ARG">2</parameter><parameter name="ASS">32</parameter><parameter name="GFW">16</parameter><parameter name="GBW">16</parameter><parameter name="BFW">0</parameter><parameter name="BBW">0</parameter><parameter name="PKA">7624</parameter><parameter name="PKL">4988</parameter><parameter name="PRA">7845</parameter><parameter name="PRL">4993</parameter><parameter name="P2A">1</parameter><parameter name="P2L">1</parameter><parameter name="P2R">1</parameter><parameter name="P2K">1</parameter><parameter name="DAQ">0</parameter><parameter name="AG2">1</parameter><parameter name="SSM">1</parameter><parameter name="RSN">13618</parameter><parameter name="CRR">0</parameter><parameter name="SRT">1654085234.731</parameter><parameter name="DUR">19.6389923095703</parameter><parameter name="TSC">28.9</parameter><parameter name="MVD">0.673856914043427</parameter><parameter name="AN1">0.225809473131286</parameter><parameter name="AN2">0</parameter><parameter name="VSN">2.485 Apr  4 2017</parameter><parameter name="SRN">0085</parameter><parameter name="CAM">0</parameter><parameter name="INS">IR-Biotyper</parameter><parameter name="FOC">69</parameter><parameter name="RDY">1</parameter></Instrument_Parameters_><History/></OPUSDataFile>
