<?xml version="1.0" encoding="UTF-8" ?>
<OPUSDataFile><AB><Ydata ylabel="Absorbance Units"><values byteorder="INTEL" format="FLOAT32" numvalues="3497"> -0.1111499 -0.111176 -0.1112076 -0.1112456 -0.1112775 -0.1113027 -0.1113142 -0.1113118 -0.111292 -0.1112561
 -0.1112091 -0.1111542 -0.1111055 -0.1110651 -0.1110455 -0.1110449 -0.1110667 -0.1111056 -0.1111583 -0.111217
 -0.1112757 -0.1113253 -0.1113589 -0.1113736 -0.1113644 -0.1113414 -0.1113051 -0.1112707 -0.111241 -0.1112226
 -0.1112168 -0.1112194 -0.1112301 -0.1112432 -0.1112585 -0.1112736 -0.1112892 -0.1113068 -0.1113275 -0.1113563
 -0.1113935 -0.111444 -0.1115042 -0.1115724 -0.1116414 -0.1117025 -0.1117506 -0.1117779 -0.1117868 -0.1117759
 -0.1117513 -0.1117154 -0.1116701 -0.1116165 -0.1115555 -0.1114864 -0.1114195 -0.1113549 -0.1113115 -0.1112903
 -0.1113018 -0.1113447 -0.111406 -0.1114823 -0.1115452 -0.1115949 -0.1116156 -0.1116132 -0.1115943 -0.1115641
 -0.1115354 -0.111509 -0.111491 -0.1114791 -0.1114739 -0.1114709 -0.1114689 -0.1114617 -0.1114468 -0.1114207
 -0.1113805 -0.111333 -0.1112775 -0.111231 -0.111195 -0.1111873 -0.1112092 -0.1112702 -0.1113694 -0.1114997
 -0.1116568 -0.1118116 -0.1119572 -0.1120504 -0.1120934 -0.1120644 -0.1119824 -0.1118675 -0.1117389 -0.1116291
 -0.1115418 -0.1114944 -0.1114721 -0.1114739 -0.1114778 -0.1114733 -0.1114556 -0.111418 -0.1113803 -0.1113441
 -0.1113294 -0.1113396 -0.1113711 -0.111424 -0.111478 -0.1115328 -0.1115785 -0.1116172 -0.1116592 -0.1117052
 -0.1117665 -0.1118374 -0.1119111 -0.1119788 -0.1120195 -0.1120369 -0.1120232 -0.1119968 -0.1119725 -0.1119548
 -0.1119554 -0.1119542 -0.111945 -0.111918 -0.1118639 -0.1118108 -0.1117596 -0.1117519 -0.1117939 -0.1118922
 -0.1120483 -0.1121779 -0.1122755 -0.1122329 -0.112065 -0.1118149 -0.111504 -0.1112402 -0.1110228 -0.1109058
 -0.1108758 -0.1109402 -0.1110694 -0.1112379 -0.1114046 -0.1115249 -0.1115836 -0.1115488 -0.1114616 -0.1113263
 -0.1111963 -0.1110908 -0.1110185 -0.1109862 -0.1109721 -0.110974 -0.1109807 -0.1109913 -0.111016 -0.1110552
 -0.11112 -0.1112077 -0.1113093 -0.1114185 -0.1115061 -0.1115685 -0.111579 -0.1115439 -0.1114586 -0.1113378
 -0.1111953 -0.1110484 -0.1109144 -0.1108076 -0.1107413 -0.1107198 -0.110751 -0.1108214 -0.1109331 -0.1110528
 -0.1111768 -0.1112715 -0.1113323 -0.1113471 -0.1113146 -0.111245 -0.1111395 -0.1110183 -0.1108823 -0.1107479
 -0.1106146 -0.1104885 -0.1103696 -0.1102595 -0.1101611 -0.1100799 -0.1100185 -0.1099848 -0.1099723 -0.1099816
 -0.1099968 -0.1100086 -0.1100079 -0.1099857 -0.1099517 -0.1099055 -0.1098629 -0.1098277 -0.1098023 -0.1097882
 -0.1097765 -0.1097668 -0.1097524 -0.1097334 -0.1097107 -0.1096853 -0.1096636 -0.1096464 -0.1096406 -0.1096456
 -0.1096642 -0.1096941 -0.1097338 -0.1097793 -0.1098253 -0.1098685 -0.1099018 -0.1099317 -0.1099563 -0.109995
 -0.110055 -0.1101497 -0.1102891 -0.1104532 -0.110645 -0.110812 -0.1109492 -0.1110158 -0.1110089 -0.1109175
 -0.1107428 -0.1105023 -0.1102037 -0.1099068 -0.1096201 -0.1094118 -0.109279 -0.1092553 -0.1093192 -0.1094568
 -0.109626 -0.1097655 -0.1098593 -0.1098601 -0.1098079 -0.1097124 -0.1096101 -0.1095233 -0.1094502 -0.1093973
 -0.1093416 -0.1092795 -0.1091976 -0.1090924 -0.1089751 -0.1088461 -0.1087296 -0.1086268 -0.1085609 -0.1085315
 -0.1085528 -0.1086177 -0.1087117 -0.108816 -0.1088715 -0.1088724 -0.1087698 -0.1085972 -0.1083751 -0.1081387
 -0.1079304 -0.1077539 -0.1076283 -0.1075297 -0.1074548 -0.107375 -0.1072791 -0.1071632 -0.1070225 -0.1068773
 -0.1067293 -0.1065958 -0.1064784 -0.1063725 -0.1062772 -0.1061723 -0.1060587 -0.1059303 -0.1057919 -0.10566
 -0.1055369 -0.1054373 -0.1053605 -0.1053122 -0.1052898 -0.1052952 -0.1053177 -0.1053524 -0.1053784 -0.1053819
 -0.105349 -0.1052684 -0.1051436 -0.1049736 -0.1047622 -0.1045096 -0.1042213 -0.1038967 -0.1035541 -0.1031945
 -0.1028378 -0.1024851 -0.1021518 -0.1018391 -0.1015639 -0.101325 -0.1011297 -0.1009699 -0.1008277 -0.1006968
 -0.1005529 -0.1004047 -0.1002534 -0.1001082 -0.0999869 -0.09986576 -0.09974097 -0.09957293 -0.09933502 -0.09904233
 -0.09868821 -0.09831992 -0.09794692 -0.0975895 -0.09725229 -0.09693135 -0.0966267 -0.09633412 -0.09605408 -0.09579742
 -0.09556548 -0.09537632 -0.09522571 -0.09511118 -0.09501579 -0.09489247 -0.09472807 -0.09446439 -0.09412903 -0.09372839
 -0.09330545 -0.09290607 -0.09254117 -0.09223561 -0.09197069 -0.09174775 -0.09153529 -0.09132349 -0.09109688 -0.09084849
 -0.09058962 -0.09032134 -0.0900482 -0.08977122 -0.08946924 -0.08914157 -0.08877444 -0.08837163 -0.08795684 -0.08753392
 -0.0871342 -0.08675375 -0.08639807 -0.08606136 -0.08573429 -0.08541562 -0.0851003 -0.08478743 -0.08447467 -0.08416114
 -0.08384459 -0.08352873 -0.08321539 -0.08290423 -0.08259842 -0.08228166 -0.08195154 -0.08159396 -0.08120445 -0.08080203
 -0.08038713 -0.07999618 -0.0796301 -0.07930053 -0.07900476 -0.07872698 -0.07846403 -0.07819308 -0.07791493 -0.07761788
 -0.07730958 -0.07699777 -0.07669242 -0.07641237 -0.07615626 -0.075936 -0.07572645 -0.07552064 -0.07527977 -0.07498074
 -0.07461908 -0.07418006 -0.07371251 -0.0732213 -0.07275885 -0.07233425 -0.07195786 -0.07163217 -0.07132538 -0.07103577
 -0.07072762 -0.07040218 -0.07005367 -0.06968513 -0.06930844 -0.06892188 -0.06852609 -0.06811957 -0.06769583 -0.06726465
 -0.06683441 -0.06641915 -0.06603797 -0.06568925 -0.06538147 -0.06509617 -0.06482774 -0.06456071 -0.06428711 -0.06400989
 -0.06372727 -0.06345119 -0.06318405 -0.06292258 -0.06266741 -0.06239441 -0.0621027 -0.06177617 -0.06141784 -0.06104515
 -0.06066246 -0.0603014 -0.0599576 -0.0596372 -0.05932877 -0.05901036 -0.05868069 -0.05832324 -0.05795677 -0.05759062
 -0.05724781 -0.05695053 -0.05669595 -0.05649581 -0.0563118 -0.05613748 -0.05593077 -0.05567931 -0.05537682 -0.05501809
 -0.05463345 -0.05422428 -0.05382629 -0.05344082 -0.05308596 -0.05276063 -0.05246421 -0.05219446 -0.05194133 -0.05170299
 -0.05146908 -0.05123881 -0.05100543 -0.05076975 -0.05052922 -0.0502876 -0.05004701 -0.0498123 -0.04958902 -0.04937374
 -0.049169 -0.04895984 -0.04874161 -0.04850678 -0.0482501 -0.04798815 -0.04772169 -0.04747202 -0.04724161 -0.04702351
 -0.0468167 -0.04658997 -0.04634318 -0.04605927 -0.04574435 -0.04541665 -0.04508395 -0.0447804 -0.04450531 -0.04427678
 -0.04408261 -0.04391443 -0.04375931 -0.04359946 -0.04343498 -0.04325827 -0.0430808 -0.04290645 -0.04274189 -0.04259178
 -0.04245045 -0.04231828 -0.04218522 -0.04204997 -0.04190637 -0.04175376 -0.04159113 -0.04141855 -0.0412396 -0.04105433
 -0.04086528 -0.04067124 -0.04046769 -0.04025381 -0.04002312 -0.03977935 -0.03952552 -0.03926873 -0.03902067 -0.03878466
 -0.03856938 -0.03837164 -0.03819155 -0.0380269 -0.03787533 -0.0377412 -0.03762554 -0.03753117 -0.03746054 -0.03740415
 -0.037362 -0.0373174 -0.03726896 -0.03720825 -0.03713497 -0.03704894 -0.03694963 -0.03683173 -0.03669471 -0.03653086
 -0.03634508 -0.03614616 -0.03594346 -0.03576221 -0.03560309 -0.0354824 -0.03538406 -0.0352999 -0.03521122 -0.03509884
 -0.03496633 -0.03480502 -0.03464393 -0.03448983 -0.03436709 -0.0342859 -0.03423526 -0.03421762 -0.03419556 -0.03416589
 -0.03411068 -0.03403 -0.03395041 -0.03387477 -0.03384271 -0.033851 -0.03390769 -0.03400175 -0.0341045 -0.03420621
 -0.03427099 -0.03430019 -0.03427652 -0.03421617 -0.03412656 -0.03402855 -0.03394114 -0.03386815 -0.03382139 -0.03377796
 -0.03373412 -0.03366587 -0.03356346 -0.03343733 -0.03328434 -0.03314675 -0.03302763 -0.03295994 -0.03294462 -0.03297463
 -0.03304693 -0.03312854 -0.03321915 -0.0332988 -0.03337234 -0.03344657 -0.03352078 -0.03360103 -0.03367398 -0.0337222
 -0.03373736 -0.03369717 -0.03362239 -0.03351494 -0.03341239 -0.03333642 -0.03329757 -0.03331072 -0.03334347 -0.03339338
 -0.03342152 -0.03341964 -0.0333865 -0.03331972 -0.03325516 -0.03319462 -0.03317331 -0.03319006 -0.03324814 -0.03334185
 -0.03344484 -0.03355221 -0.03363359 -0.03369055 -0.03370951 -0.03369982 -0.03366712 -0.0336256 -0.03359134 -0.03357479
 -0.03359125 -0.03363445 -0.03370964 -0.0337919 -0.03387564 -0.0339361 -0.03396548 -0.0339582 -0.03391149 -0.03383335
 -0.03372417 -0.03359008 -0.03343144 -0.03325425 -0.03306047 -0.03287075 -0.03268992 -0.03255408 -0.03246535 -0.03245348
 -0.03250828 -0.03262825 -0.03278841 -0.03295334 -0.03309908 -0.03318255 -0.0332083 -0.03315711 -0.03307082 -0.03296025
 -0.03287526 -0.03283709 -0.03286431 -0.03296954 -0.03312957 -0.03334538 -0.03357406 -0.03381211 -0.03402858 -0.03422211
 -0.03438989 -0.03453341 -0.03466787 -0.03479346 -0.03492026 -0.03504439 -0.03515853 -0.03525924 -0.03533255 -0.03538485
 -0.03541502 -0.03544297 -0.03548704 -0.03556771 -0.03570914 -0.0359091 -0.03617907 -0.03648731 -0.03682816 -0.03716587
 -0.0374899 -0.03778788 -0.03805547 -0.0382986 -0.03851747 -0.03871569 -0.03889349 -0.03905559 -0.03920334 -0.03935397
 -0.03950789 -0.03967861 -0.03986058 -0.04004257 -0.04021972 -0.04037177 -0.04050754 -0.04062836 -0.04075238 -0.04090116
 -0.04108095 -0.04130859 -0.04156556 -0.04185205 -0.04213253 -0.0423961 -0.04261375 -0.04277321 -0.04288037 -0.04292965
 -0.04297096 -0.043007 -0.04309651 -0.04324224 -0.04345819 -0.04374027 -0.04404789 -0.04437599 -0.04467459 -0.04494643
 -0.04517316 -0.04536241 -0.04552221 -0.04565809 -0.04578128 -0.04589677 -0.04601227 -0.04613585 -0.04627589 -0.04643659
 -0.04662482 -0.04683146 -0.04705703 -0.04728343 -0.04750654 -0.0477144 -0.04790369 -0.04807661 -0.04823263 -0.04838172
 -0.04852437 -0.04866993 -0.04881867 -0.04897654 -0.04914311 -0.04931971 -0.04950446 -0.04969205 -0.04988034 -0.0500609
 -0.05023512 -0.05040013 -0.05056171 -0.05072527 -0.05089436 -0.05107569 -0.05126252 -0.05145487 -0.05164018 -0.05181244
 -0.05197078 -0.05211077 -0.05225262 -0.05239778 -0.05257025 -0.05277327 -0.05300747 -0.05327285 -0.05354463 -0.05382145
 -0.05407901 -0.05431877 -0.05453597 -0.05473372 -0.05492038 -0.05509704 -0.0552703 -0.05543979 -0.05560736 -0.05577363
 -0.05594005 -0.05610658 -0.05627546 -0.05644022 -0.05660028 -0.05674237 -0.05686096 -0.05695043 -0.05700438 -0.05704444
 -0.05706994 -0.05712404 -0.05721085 -0.05735864 -0.05756893 -0.05782619 -0.0581268 -0.05842233 -0.05870967 -0.05894408
 -0.05912977 -0.05925346 -0.05932963 -0.05938168 -0.05942895 -0.05951434 -0.05964381 -0.05984788 -0.0601017 -0.06040244
 -0.06070721 -0.06099078 -0.06123381 -0.06141764 -0.06156457 -0.06167518 -0.06177799 -0.06188045 -0.06197653 -0.06206784
 -0.06212318 -0.06214096 -0.06211014 -0.06203373 -0.06194571 -0.06185257 -0.06181073 -0.06182047 -0.06191713 -0.06208711
 -0.06232011 -0.06259445 -0.06286941 -0.06313492 -0.06335901 -0.06355537 -0.06372228 -0.06388005 -0.06404273 -0.06420899
 -0.06438466 -0.06455045 -0.06470107 -0.06483183 -0.06493892 -0.06504079 -0.06513904 -0.06524538 -0.06536055 -0.06546949
 -0.06557096 -0.06564343 -0.06568894 -0.06570745 -0.06570418 -0.0656981 -0.06569142 -0.06570013 -0.06572048 -0.0657537
 -0.06579526 -0.0658382 -0.06588672 -0.06593852 -0.0660089 -0.06610503 -0.06623902 -0.06642093 -0.06663872 -0.06689578
 -0.06715532 -0.06741305 -0.06763426 -0.06781378 -0.06794973 -0.06804172 -0.06812236 -0.0681937 -0.06829261 -0.06841703
 -0.06857511 -0.06875943 -0.06894757 -0.06913444 -0.06929462 -0.06943252 -0.06954252 -0.06963424 -0.06971684 -0.06979638
 -0.06988111 -0.06997212 -0.07007249 -0.07018042 -0.07029718 -0.07041533 -0.07053433 -0.07064239 -0.07073656 -0.07081611
 -0.07087933 -0.07094616 -0.07101765 -0.0711152 -0.07123813 -0.07138142 -0.07154141 -0.07169147 -0.07183246 -0.07195073
 -0.07205545 -0.07216224 -0.07227778 -0.07242417 -0.07259288 -0.07278608 -0.07298432 -0.07317288 -0.0733381 -0.07346672
 -0.07355934 -0.0736123 -0.07363293 -0.07362249 -0.07358618 -0.07352452 -0.0734441 -0.07334455 -0.07324468 -0.0731454
 -0.07307927 -0.07304764 -0.07307827 -0.07316834 -0.07331682 -0.07351507 -0.0737319 -0.07395853 -0.07415751 -0.07432629
 -0.07444265 -0.0745108 -0.07452584 -0.07449636 -0.07442667 -0.07432647 -0.07420194 -0.07406001 -0.07390425 -0.07373971
 -0.07356722 -0.07339532 -0.07322505 -0.07306635 -0.07292124 -0.07278487 -0.07265727 -0.07251064 -0.07234328 -0.07212377
 -0.07185404 -0.07152797 -0.07115378 -0.07075758 -0.07034869 -0.0699639 -0.06960584 -0.06929791 -0.0690322 -0.06881042
 -0.06861889 -0.06844733 -0.06828532 -0.06812312 -0.06795985 -0.06779132 -0.06762616 -0.06746423 -0.06732094 -0.06719813
 -0.06711173 -0.06706385 -0.06706122 -0.06710448 -0.06718549 -0.06730326 -0.06744119 -0.06759838 -0.06776099 -0.06792878
 -0.06809437 -0.06825627 -0.06840807 -0.06854604 -0.06866069 -0.06875001 -0.06880559 -0.06883394 -0.06883507 -0.06882313
 -0.06880627 -0.0687933 -0.06879222 -0.06879509 -0.06880313 -0.06879889 -0.06877877 -0.06873646 -0.06866939 -0.06859408
 -0.06851114 -0.068452 -0.0684182 -0.06843878 -0.06851278 -0.0686505 -0.06884573 -0.06908286 -0.06935079 -0.06961455
 -0.06986506 -0.07006754 -0.07022704 -0.07032904 -0.07040207 -0.07045808 -0.07054215 -0.0706821 -0.07091086 -0.07125343
 -0.07170088 -0.07226291 -0.07288759 -0.07357112 -0.07424852 -0.07491259 -0.07551885 -0.07606386 -0.07653759 -0.07694098
 -0.07729039 -0.0775881 -0.07785749 -0.07809889 -0.07832622 -0.07853791 -0.07873653 -0.07892157 -0.07909279 -0.07925142
 -0.07939937 -0.07953602 -0.07966218 -0.07977467 -0.0798718 -0.07995158 -0.08001211 -0.08005569 -0.08008199 -0.0800963
 -0.08009942 -0.08009575 -0.0800864 -0.08006752 -0.08003909 -0.07998727 -0.07991197 -0.07980841 -0.07968117 -0.07955787
 -0.07944663 -0.07939675 -0.07940786 -0.0795089 -0.07968358 -0.07991906 -0.08019347 -0.08047397 -0.08074869 -0.0809947
 -0.08121391 -0.08139969 -0.08156194 -0.08170216 -0.08183216 -0.0819557 -0.08207896 -0.08220486 -0.08232714 -0.08244591
 -0.08254895 -0.08263517 -0.08270966 -0.08277439 -0.08286579 -0.08298723 -0.08318337 -0.0834488 -0.08379115 -0.08419111
 -0.08460346 -0.08501022 -0.08535258 -0.08563802 -0.08584517 -0.08600754 -0.08614618 -0.08628878 -0.08646301 -0.08666358
 -0.08689892 -0.08714188 -0.08738642 -0.08761365 -0.08781797 -0.08799803 -0.08815279 -0.08828592 -0.08839757 -0.08849035
 -0.08856469 -0.08862787 -0.0886813 -0.0887389 -0.08880077 -0.08887638 -0.08896143 -0.08905042 -0.08913687 -0.08920492
 -0.08925475 -0.08927691 -0.08928335 -0.08927984 -0.08928069 -0.08929823 -0.08933324 -0.08939213 -0.08945878 -0.08953089
 -0.08959105 -0.08963453 -0.08965887 -0.08966212 -0.0896576 -0.08964597 -0.08964135 -0.08964384 -0.08965403 -0.08967046
 -0.08968173 -0.08968834 -0.08968451 -0.08967554 -0.08967228 -0.08968005 -0.08971597 -0.08977623 -0.08986581 -0.08997129
 -0.09008352 -0.09018926 -0.09027708 -0.09034242 -0.09037932 -0.09039268 -0.09038096 -0.09035798 -0.09032483 -0.09030009
 -0.09028632 -0.09029331 -0.09032232 -0.0903633 -0.09041537 -0.0904597 -0.09049661 -0.09051942 -0.09053066 -0.09053808
 -0.09054248 -0.09055073 -0.09056051 -0.09057021 -0.09057893 -0.09058388 -0.09058766 -0.09059198 -0.09059798 -0.0906082
 -0.09061807 -0.09062674 -0.09062848 -0.09062044 -0.09060455 -0.0905796 -0.09055585 -0.0905344 -0.09052258 -0.09052125
 -0.09052566 -0.09053534 -0.09053946 -0.0905384 -0.09052901 -0.0905138 -0.09050184 -0.09049503 -0.09050472 -0.09052809
 -0.09056713 -0.09061325 -0.09065703 -0.09068907 -0.09069587 -0.09067766 -0.09062669 -0.09056 -0.09048028 -0.09041215
 -0.0903639 -0.09034821 -0.09037109 -0.09042303 -0.09050489 -0.09059385 -0.09068847 -0.09076896 -0.09083476 -0.09087918
 -0.09090341 -0.09091337 -0.09091078 -0.0909064 -0.09090059 -0.09090029 -0.0909039 -0.09091181 -0.09092196 -0.09093149
 -0.09093986 -0.0909453 -0.09094869 -0.09095008 -0.09095023 -0.09094945 -0.09094837 -0.09094714 -0.09094675 -0.0909475
 -0.09094929 -0.0909524 -0.09095378 -0.09095328 -0.09094647 -0.09093321 -0.09091181 -0.09088266 -0.09084788 -0.09080815
 -0.09076726 -0.0907262 -0.09068944 -0.09065839 -0.09063812 -0.09062866 -0.09063295 -0.09064822 -0.09067343 -0.09070466
 -0.09073935 -0.09077406 -0.0908072 -0.0908347 -0.09085528 -0.09086522 -0.09086312 -0.09084994 -0.09082506 -0.09079533
 -0.09076107 -0.09073085 -0.09070501 -0.09068999 -0.09068562 -0.090694 -0.09071385 -0.09074105 -0.09077343 -0.09080227
 -0.0908272 -0.09084278 -0.09085134 -0.09085402 -0.09085238 -0.09084903 -0.09084242 -0.09083235 -0.09081721 -0.09079571
 -0.09076902 -0.09073685 -0.09070203 -0.09066474 -0.09062888 -0.09059463 -0.0905682 -0.09055004 -0.09054551 -0.09055462
 -0.0905749 -0.09060511 -0.09063397 -0.09066048 -0.09067333 -0.09067426 -0.0906614 -0.0906393 -0.09061629 -0.09059501
 -0.09058413 -0.09057985 -0.09058262 -0.09058551 -0.09058322 -0.09057445 -0.09055577 -0.09053394 -0.09051035 -0.0904902
 -0.09047576 -0.09046338 -0.09045318 -0.09043881 -0.09041962 -0.09039632 -0.09036912 -0.09034511 -0.09032435 -0.09031089
 -0.09030342 -0.09029809 -0.09029362 -0.09028377 -0.09026936 -0.09024839 -0.09022374 -0.09019864 -0.0901751 -0.09015702
 -0.0901428 -0.09013321 -0.0901243 -0.09011433 -0.09010108 -0.09008294 -0.09006173 -0.09003733 -0.09001304 -0.08998939
 -0.08996756 -0.08994778 -0.08992806 -0.08990831 -0.08988617 -0.08986178 -0.08983526 -0.08980709 -0.08977992 -0.08975372
 -0.0897303 -0.08970809 -0.08968497 -0.08965898 -0.08962578 -0.08958628 -0.08953851 -0.08948795 -0.08943684 -0.08939212
 -0.08935799 -0.08933677 -0.08933122 -0.08933617 -0.08935212 -0.08936762 -0.08938152 -0.08938295 -0.08937081 -0.08934245
 -0.08929796 -0.08924466 -0.08918333 -0.08912433 -0.08906776 -0.08901961 -0.0889793 -0.08894841 -0.08892578 -0.08891048
 -0.08890009 -0.08889132 -0.08888085 -0.0888637 -0.08883962 -0.08880542 -0.0887672 -0.08872624 -0.08869037 -0.08866313
 -0.08864552 -0.08863961 -0.0886369 -0.08863684 -0.08862963 -0.08861427 -0.08858859 -0.08855265 -0.08851257 -0.08846885
 -0.08842867 -0.08839173 -0.08836055 -0.08833405 -0.08831024 -0.08828835 -0.08826543 -0.08824222 -0.08821806 -0.08819516
 -0.0881756 -0.08816065 -0.08815274 -0.08814903 -0.08814959 -0.08814857 -0.08814404 -0.08813229 -0.08811171 -0.08808349
 -0.08804727 -0.08800725 -0.08796369 -0.0879211 -0.08787968 -0.08784285 -0.08781046 -0.08778249 -0.08775818 -0.08773357
 -0.08770824 -0.0876783 -0.08764473 -0.08760754 -0.08756834 -0.08752981 -0.08749203 -0.08745604 -0.08742147 -0.08738767
 -0.08735678 -0.08732929 -0.08730846 -0.08729653 -0.0872903 -0.08729074 -0.08728692 -0.0872775 -0.08725411 -0.08721548
 -0.087166 -0.08710604 -0.08704878 -0.0869946 -0.0869525 -0.08692109 -0.08689842 -0.08688222 -0.08686392 -0.08684301
 -0.08681334 -0.08677769 -0.08673722 -0.08669534 -0.08665668 -0.08662112 -0.08659102 -0.08656196 -0.08653235 -0.08649909
 -0.08645997 -0.08641757 -0.08637159 -0.08632737 -0.08628569 -0.08624952 -0.08621937 -0.08619347 -0.08617168 -0.08614801
 -0.08612223 -0.0860891 -0.08604948 -0.08600451 -0.08595591 -0.08591022 -0.08586739 -0.08583125 -0.0857989 -0.08576778
 -0.08573522 -0.08569683 -0.08565331 -0.08560311 -0.08554978 -0.08549455 -0.08544046 -0.085389 -0.08534085 -0.08529656
 -0.08525531 -0.08521707 -0.08518133 -0.08514807 -0.08511663 -0.08508697 -0.08505674 -0.08502588 -0.08499268 -0.08495787
 -0.0849243 -0.08489301 -0.08486962 -0.08485296 -0.08484422 -0.08483936 -0.08483302 -0.08482146 -0.08479796 -0.08476318
 -0.0847142 -0.08465698 -0.08459309 -0.08452953 -0.08446938 -0.084415 -0.08436812 -0.08432541 -0.0842867 -0.08424872
 -0.08421108 -0.08417367 -0.08413648 -0.08409917 -0.08406167 -0.08402261 -0.08398272 -0.08394461 -0.08391021 -0.08388709
 -0.08387665 -0.08388598 -0.08391479 -0.0839658 -0.08403791 -0.08413123 -0.08424388 -0.08437512 -0.08452169 -0.08468171
 -0.08485337 -0.08503457 -0.08522957 -0.08543771 -0.08567025 -0.08592878 -0.08622152 -0.08655027 -0.08690519 -0.08728544
 -0.08764858 -0.08799001 -0.08824427 -0.08840903 -0.0884333 -0.08832644 -0.08808751 -0.0877376 -0.08731956 -0.08685658
 -0.08640303 -0.08597099 -0.08559544 -0.08527356 -0.08501349 -0.08481116 -0.08466505 -0.08457743 -0.08454964 -0.08457993
 -0.08467282 -0.08479907 -0.08495893 -0.08509584 -0.08520421 -0.08525459 -0.08524552 -0.08519037 -0.08509056 -0.08496543
 -0.08481678 -0.08466404 -0.08450889 -0.08436956 -0.08424152 -0.08412538 -0.08401181 -0.0838854 -0.08374315 -0.08357367
 -0.08338409 -0.08317372 -0.08295729 -0.08274045 -0.08253977 -0.08236329 -0.0822161 -0.08210326 -0.08201147 -0.08194053
 -0.08187053 -0.08179958 -0.08171465 -0.08161499 -0.08149739 -0.08136241 -0.08121488 -0.08105645 -0.0808982 -0.08074199
 -0.08060039 -0.08047325 -0.08036739 -0.08027945 -0.08020782 -0.08014756 -0.08009284 -0.08003992 -0.07998375 -0.0799239
 -0.07985858 -0.07978938 -0.07971645 -0.07964127 -0.07956415 -0.07948622 -0.0794074 -0.07933085 -0.07925676 -0.07918913
 -0.07912819 -0.07907455 -0.07902797 -0.07898562 -0.07894724 -0.07891005 -0.07887375 -0.07883602 -0.07879633 -0.07875209
 -0.0787035 -0.07864925 -0.07859124 -0.07853102 -0.07847048 -0.07841203 -0.07835512 -0.07830034 -0.07824581 -0.07819089
 -0.07813454 -0.07807627 -0.07801639 -0.07795468 -0.07789327 -0.07783224 -0.07777499 -0.07772174 -0.0776752 -0.07763518
 -0.07760003 -0.07756878 -0.07753497 -0.0774978 -0.07745047 -0.07739446 -0.07732886 -0.07725786 -0.07718777 -0.0771215
 -0.07706596 -0.07701845 -0.07698025 -0.07694463 -0.07690846 -0.07686694 -0.07681707 -0.07675899 -0.07669161 -0.07661891
 -0.07654087 -0.07646435 -0.07638989 -0.07632399 -0.07626707 -0.07621916 -0.07617972 -0.07614144 -0.07610368 -0.07605853
 -0.07600692 -0.07594754 -0.07588264 -0.07581688 -0.07575183 -0.07569262 -0.07563855 -0.07559142 -0.07554831 -0.0755077
 -0.07546695 -0.0754237 -0.07537854 -0.07533067 -0.07528332 -0.07523727 -0.07519402 -0.07515425 -0.07511579 -0.0750785
 -0.07504006 -0.07500034 -0.07496051 -0.07492075 -0.07488383 -0.07484952 -0.07481794 -0.07478841 -0.07475846 -0.07472794
 -0.07469525 -0.07466075 -0.07462448 -0.07458632 -0.07454617 -0.07450391 -0.07445924 -0.07441275 -0.07436483 -0.0743153
 -0.0742645 -0.07421058 -0.07415293 -0.07409125 -0.07402491 -0.07395773 -0.07388998 -0.07382546 -0.07376445 -0.073707
 -0.07365306 -0.0736015 -0.0735526 -0.07350783 -0.07346717 -0.0734318 -0.07340055 -0.07337111 -0.07334265 -0.07331223
 -0.07328086 -0.07324875 -0.0732164 -0.07318523 -0.07315238 -0.073117 -0.07307564 -0.07302578 -0.07296984 -0.07290682
 -0.0728455 -0.07278701 -0.07273891 -0.0727025 -0.0726766 -0.07266125 -0.07264765 -0.0726353 -0.0726153 -0.07258783
 -0.07254925 -0.07250047 -0.07244263 -0.07237698 -0.07230663 -0.07223372 -0.07216247 -0.07209629 -0.07204083 -0.07199799
 -0.07197264 -0.07196007 -0.07196091 -0.0719637 -0.07196461 -0.07195411 -0.07192788 -0.07188723 -0.07183073 -0.07176857
 -0.07170159 -0.07163782 -0.07157781 -0.0715212 -0.07146773 -0.0714127 -0.07135642 -0.07129803 -0.07123874 -0.07118288
 -0.07113077 -0.07108608 -0.07104685 -0.07101158 -0.07097816 -0.07094286 -0.07090643 -0.07086794 -0.0708294 -0.07079215
 -0.07075578 -0.07072077 -0.07068511 -0.07064831 -0.07060931 -0.07056794 -0.07052313 -0.07047485 -0.07042066 -0.07036038
 -0.07029519 -0.07022553 -0.0701588 -0.07009528 -0.07004103 -0.06999441 -0.06995237 -0.06991325 -0.0698704 -0.06982566
 -0.06977864 -0.06973288 -0.06969361 -0.06965981 -0.06963377 -0.06960946 -0.06958381 -0.06955365 -0.06951583 -0.06947435
 -0.06942941 -0.06938598 -0.06934536 -0.06930748 -0.06927262 -0.06923819 -0.06920405 -0.06916899 -0.06913296 -0.06909487
 -0.06905448 -0.0690096 -0.06896021 -0.06890497 -0.06884432 -0.06877867 -0.06870854 -0.06863453 -0.06855825 -0.0684811
 -0.06840658 -0.06833798 -0.0682779 -0.06822972 -0.06819082 -0.06816193 -0.0681363 -0.06811234 -0.06808494 -0.06805249
 -0.06801551 -0.06797361 -0.0679314 -0.06788912 -0.06785084 -0.06781651 -0.06778584 -0.06775817 -0.06772891 -0.06769735
 -0.06765797 -0.06761116 -0.06755439 -0.06749012 -0.06742088 -0.0673504 -0.06728461 -0.06722467 -0.06717462 -0.06713092
 -0.06709298 -0.06705656 -0.06701927 -0.06698112 -0.06694166 -0.06690155 -0.06686141 -0.0668173 -0.06676891 -0.0667122
 -0.06664677 -0.06657655 -0.06650203 -0.06643227 -0.06636722 -0.06631131 -0.066263 -0.06621875 -0.066177 -0.06613151
 -0.06608246 -0.06602676 -0.06596656 -0.06590293 -0.06583869 -0.06577657 -0.06571852 -0.06566685 -0.06562086 -0.06558155
 -0.06554473 -0.0655099 -0.06547156 -0.06542827 -0.06537911 -0.06532338 -0.06526619 -0.06520785 -0.06515133 -0.06509644
 -0.0650388 -0.06497823 -0.06491067 -0.0648376 -0.0647631 -0.06468832 -0.06461946 -0.0645542 -0.06449147 -0.06442825
 -0.06435908 -0.06428602 -0.06420764 -0.06413076 -0.0640594 -0.06399695 -0.06394739 -0.06390492 -0.06386968 -0.06383161
 -0.06378842 -0.06373699 -0.0636761 -0.06361187 -0.06354465 -0.06347895 -0.06341461 -0.06334712 -0.06327615 -0.06319626
 -0.06310906 -0.06301803 -0.06292561 -0.06284074 -0.06276337 -0.06269809 -0.06264275 -0.06259663 -0.06255737 -0.06252319
 -0.06249083 -0.0624587 -0.06242178 -0.06237759 -0.06232329 -0.06225666 -0.06218142 -0.0620972 -0.0620123 -0.06192771
 -0.06184841 -0.06177496 -0.06170383 -0.0616347 -0.06156055 -0.06148193 -0.06139926 -0.06131449 -0.06123646 -0.06116559
 -0.06110838 -0.06106203 -0.06102484 -0.06099324 -0.06096182 -0.0609286 -0.06088985 -0.06084524 -0.06079304 -0.06073541
 -0.06067244 -0.06060772 -0.06054279 -0.06047747 -0.06041257 -0.06034317 -0.06026871 -0.06018617 -0.06009518 -0.05999911
 -0.05989825 -0.05979821 -0.0596992 -0.05960524 -0.05951666 -0.05943714 -0.05936665 -0.05930797 -0.05925862 -0.05921657
 -0.0591763 -0.05912992 -0.05907325 -0.05899825 -0.05890822 -0.05880102 -0.05868701 -0.05856982 -0.05845774 -0.05835472
 -0.05826067 -0.05817656 -0.05809861 -0.0580263 -0.05795896 -0.05789652 -0.05783944 -0.05778769 -0.05773993 -0.05769594
 -0.05765352 -0.05761227 -0.05756994 -0.05752519 -0.05747347 -0.05741296 -0.05733716 -0.05724756 -0.05714214 -0.05702654
 -0.05690516 -0.0567822 -0.05666231 -0.05654469 -0.05643065 -0.05631628 -0.05620036 -0.05608169 -0.05595882 -0.0558383
 -0.05572024 -0.05561535 -0.05552454 -0.05545185 -0.05539706 -0.05535302 -0.05531862 -0.05528199 -0.05524249 -0.05519053
 -0.05512698 -0.05504864 -0.0549581 -0.05485864 -0.05475253 -0.05464431 -0.05453466 -0.05442543 -0.05431781 -0.05421253
 -0.0541122 -0.05401831 -0.05393173 -0.05385384 -0.05378059 -0.05371206 -0.05364086 -0.0535663 -0.0534812 -0.05338491
 -0.05327443 -0.05314988 -0.05301612 -0.05287423 -0.05273492 -0.05259887 -0.05247519 -0.052363 -0.05226505 -0.052179
 -0.05210258 -0.0520316 -0.05196025 -0.05188352 -0.0517938 -0.05169116 -0.05157135 -0.05144318 -0.05130895 -0.05117761
 -0.05105338 -0.05093589 -0.0508265 -0.05071855 -0.05061125 -0.05050113 -0.05038771 -0.05027436 -0.05016133 -0.05005425
 -0.04995262 -0.04985539 -0.04976023 -0.04965567 -0.04954064 -0.04940453 -0.04925151 -0.04908441 -0.04890797 -0.04873054
 -0.04855288 -0.04837863 -0.04820742 -0.0480391 -0.04787637 -0.04772003 -0.04757339 -0.04743814 -0.04731366 -0.04720121
 -0.04709279 -0.04698855 -0.04687207 -0.04674216 -0.04658606 -0.0464038 -0.04620496 -0.04599125 -0.04578217 -0.04557694
 -0.04538266 -0.04519651 -0.04501383 -0.04483289 -0.04464752 -0.04445853 -0.04426343 -0.04406647 -0.0438703 -0.04367982
 -0.0435007 -0.04332979 -0.04317017 -0.04300549 -0.04283174 -0.04263537 -0.04241029 -0.04216687 -0.04190493 -0.04164172
 -0.04137903 -0.0411154 -0.04085061 -0.04057592 -0.04029168 -0.03999832 -0.0396956 -0.03938384 -0.03905977 -0.03871256
 -0.03834265 -0.03794205 -0.03752235 -0.03709653 -0.03667314 -0.03626831 -0.03587556 -0.03549528 -0.03512108 -0.03474836
 -0.03438056 -0.03401797 -0.03366371 -0.03332139 -0.03297457 -0.03262445 -0.03222889 -0.03178442 -0.03126613 -0.03067468
 -0.03005954 -0.0294245 -0.02882782 -0.0282629 -0.02772802 -0.02721629 -0.02670492 -0.02619443 -0.02567652 -0.02515004
 -0.02461527 -0.02405576 -0.02346117 -0.02280142 -0.02205031 -0.0211996 -0.02022466 -0.01918483 -0.01808597 -0.01701193
 -0.01598566 -0.01503096 -0.01415697 -0.01334178 -0.01258501 -0.01185631 -0.01115365 -0.01043348 -0.009691888 -0.008868826
 -0.007971914 -0.006995834 -0.005971476 -0.004998742 -0.004079483 -0.003275756 -0.002550223 -0.001872718 -0.001220937 -0.0005564804
 0.0001140188 0.0007985659 0.001483661 0.002162931 0.002835043 0.003499614 0.004150484 0.004787374 0.005398627 0.005981315
 0.006541437 0.007079313 0.007600083 0.00810336 0.00856506 0.008983948 0.009336037 0.009626334 0.009865599 0.01006189
 0.0102472 0.01042204 0.0106063 0.01078809 0.01095678 0.01110809 0.01123057 0.01133356 0.01142154 0.01149692
 0.01156385 0.01161523 0.01164937 0.01166204 0.01165109 0.01162014 0.01156866 0.01150659 0.01143436 0.01136645
 0.01130344 0.01125206 0.01121107 0.01117102 0.01113052 0.01107669 0.01101141 0.01093131 0.01084434 0.010764
 0.01070029 0.01067539 0.0106895 0.01075101 0.01085707 0.01100417 0.01120403 0.01146106 0.01178511 0.01218562
 0.01264146 0.01315095 0.01368866 0.01424852 0.01483667 0.01545279 0.01611111 0.01681199 0.01754876 0.01832019
 0.01911026 0.0199199 0.0207454 0.02158881 0.02245477 0.02334438 0.02426171 0.02520823 0.02618822 0.02720123
 0.02824955 0.02932855 0.03043643 0.03156711 0.03271807 0.03388226 0.03505795 0.03623577 0.03741425 0.03858246
 0.03973959 0.04087012 0.04197278 0.04303322 0.04405113 0.04503995 0.04600249 0.04697798 0.04796039 0.04894536
 0.04991203 0.05078582 0.05156457 0.05220222 0.05271866 0.05312776 0.05343535 0.0536538 0.05378105 0.05381694
 0.05376776 0.05364467 0.05341997 0.05310435 0.05259025 0.05185355 0.05082502 0.04946611 0.04797689 0.04636952
 0.044832 0.04337142 0.04192798 0.04049607 0.03899343 0.03742726 0.03579492 0.03410419 0.03238832 0.03062811
 0.02881193 0.02688469 0.02473906 0.02239308 0.01976206 0.01707727 0.01448838 0.01212966 0.01015722 0.008421379
 0.006906709 0.005472681 0.00407254 0.00269632 0.001332171 2.669895E-05 -0.001215725 -0.002385 -0.003480857 -0.004530234
 -0.005533959 -0.006510346 -0.007457357 -0.008373288 -0.009256472 -0.01010075 -0.01090544 -0.01166567 -0.01238231 -0.01305287
 -0.0136833 -0.01427656 -0.01484487 -0.01539469 -0.01594579 -0.01651023 -0.01709863 -0.01772904 -0.01834901 -0.01895548
 -0.01947081 -0.01987484 -0.02019182 -0.02041959 -0.02062748 -0.02081878 -0.02102659 -0.02124901 -0.02147555 -0.02170279
 -0.02190573 -0.02208611 -0.02223758 -0.02236125 -0.02245897 -0.02252483 -0.02254982 -0.0225312 -0.02245956 -0.02234381
 -0.02218739 -0.02199822 -0.02178263 -0.02153943 -0.0212702 -0.02097012 -0.02064003 -0.02026709 -0.01985222 -0.0193622
 -0.01879389 -0.01812359 -0.01735055 -0.01653414 -0.01568091 -0.01489038 -0.01415865 -0.0135154 -0.01295099 -0.01244646
 -0.01200103 -0.01160512 -0.01125766 -0.0109592 -0.01069088 -0.01043868 -0.01016903 -0.009848038 -0.009470357 -0.009012318
 -0.008525203 -0.008023644 -0.007537891 -0.007083953 -0.006639082 -0.006202609 -0.005749381 -0.005276009 -0.004782858 -0.004269903
 -0.00375515 -0.003238776 -0.002729741 -0.00222443 -0.001708626 -0.001175913 -0.0005953406 3.330301E-05 0.0007311718 0.001481745
 0.002268675 0.003077059 0.003878173 0.004683382 0.00549131 0.006316556 0.007172261 0.008044601 0.008935437 0.009814148
 0.01067154 0.01150008 0.01229428 0.01307872 0.01385544 0.01464116 0.01543669 0.01620323 0.01693613 0.0175656
 0.01809125 0.018476 0.01872228 0.01882178 0.01877004 0.01855374 0.01816578 0.01758576 0.01681896 0.01585713
 0.01472651 0.01343959 0.01203221 0.01052616 0.008943788 0.007297714 0.005597709 0.003842103 0.002069885 0.0002802444
 -0.001443701 -0.003093826 -0.004616791 -0.006009407 -0.007296252 -0.008480433 -0.009610662 -0.01068444 -0.01171298 -0.01268838
 -0.01358624 -0.01440694 -0.01513563 -0.01578508 -0.01636846 -0.01689874 -0.01739634 -0.0178662 -0.01831877 -0.01875446
 -0.0191753 -0.01958346 -0.01997992 -0.02036686 -0.02074501 -0.02111518 -0.02147717 -0.02183513 -0.02218951 -0.02254328
 -0.02289666 -0.02323536 -0.0235575 -0.02383351 -0.02406362 -0.02423244 -0.02434522 -0.02441282 -0.02443903 -0.02443906
 -0.02441203 -0.0243631 -0.02429079 -0.02419428 -0.02407565 -0.02393401 -0.02377862 -0.02361151 -0.02344944 -0.02329816
 -0.02317222 -0.02307731 -0.02301545 -0.02298838 -0.02299065 -0.02302167 -0.0230806 -0.02316734 -0.02328445 -0.02343144
 -0.02360299 -0.02379653 -0.02399458 -0.02419331 -0.02436972 -0.0245217 -0.02463142 -0.02470208 -0.02472955 -0.02472143
 -0.02468454 -0.02462552 -0.02455228 -0.024467 -0.02437327 -0.02427015 -0.02415803 -0.02403579 -0.02390252 -0.02376125
 -0.0236112 -0.02346373 -0.02331936 -0.02319406 -0.02308878 -0.02301329 -0.02296716 -0.02294654 -0.0229494 -0.02296154
 -0.0229814 -0.0229947 -0.02300329 -0.02300305 -0.023 -0.0230019 -0.02301455 -0.02304868 -0.0231045 -0.02318688
 -0.02329038 -0.0234143 -0.02355047 -0.02369685 -0.0238429 -0.02398636 -0.02411626 -0.02423028 -0.02432297 -0.02439307
 -0.02444398 -0.02447577 -0.02449591 -0.02450476 -0.02450893 -0.02450838 -0.02450669 -0.02450287 -0.02449589 -0.02448338
 -0.02445921 -0.02442115 -0.02436198 -0.02428254 -0.02417945 -0.02405882 -0.023923 -0.02378168 -0.02364049 -0.02350693
 -0.02338595 -0.02327762 -0.02318373 -0.02309826 -0.02302078 -0.02294439 -0.02286824 -0.02278906 -0.02270658 -0.02262186
 -0.02253515 -0.02245039 -0.02236781 -0.022291 -0.0222198 -0.02215539 -0.02209789 -0.02204789 -0.02200638 -0.02197527
 -0.02195543 -0.02194904 -0.02195527 -0.02197478 -0.02200456 -0.02204366 -0.02208776 -0.02213504 -0.02218273 -0.02222957
 -0.02227539 -0.02232007 -0.02236328 -0.02240515 -0.02244311 -0.02247699 -0.02250627 -0.02253127 -0.02255708 -0.02258412
 -0.02261828 -0.0226585 -0.0227042 -0.02275352 -0.02280094 -0.02284663 -0.0228875 -0.02292656 -0.0229662 -0.02300887
 -0.02305854 -0.02311256 -0.0231715 -0.0232292 -0.0232831 -0.02333032 -0.02336913 -0.02340105 -0.02342612 -0.02344565
 -0.02345975 -0.02346918 -0.02347396 -0.0234776 -0.02348018 -0.02348365 -0.02348711 -0.02348541 -0.02347782 -0.02345817
 -0.02342795 -0.02338795 -0.02333953 -0.023286 -0.02322648 -0.02316075 -0.02308923 -0.02301148 -0.02293023 -0.02284778
 -0.02276268 -0.02267625 -0.0225809 -0.02247485 -0.02235267 -0.02221226 -0.02205701 -0.02188652 -0.02171062 -0.02152987
 -0.0213534 -0.02118138 -0.02101712 -0.02086 -0.02070726 -0.02055855 -0.02041107 -0.02026498 -0.02011967 -0.01997446
 -0.01982779 -0.01967936 -0.01952733 -0.0193742 -0.01922146 -0.01907117 -0.01892589 -0.01878306 -0.01864231 -0.01850106
 -0.01835791 -0.01821478 -0.01807179 -0.01793076 -0.01779197 -0.01765568 -0.01752188 -0.01739327 -0.01726983 -0.01715235
 -0.01703949 -0.01692253 -0.01679989 -0.01665984 -0.01650341 -0.01632689 -0.01613289 -0.01592441 -0.01570348 -0.01547367
 -0.0152365 -0.01499441 -0.0147482 -0.01449852 -0.0142474 -0.01399411 -0.01374731 -0.01350882 -0.01328727 -0.01308634
 -0.0128979 -0.01272251 -0.01253974 -0.01234812 -0.01214112 -0.01191932 -0.01169509 -0.01146928 -0.01125392 -0.01104807
 -0.01085447 -0.01067124 -0.01049601 -0.01032475 -0.01014939 -0.009966456 -0.009766422 -0.009553506 -0.009326588 -0.00909494
 -0.008864287 -0.008638956 -0.008422362 -0.008214843 -0.008017316 -0.007828602 -0.007649735 -0.007471631 -0.007293723 -0.007104895
 -0.00690417 -0.006693545 -0.006473442 -0.006253327 -0.006032687 -0.00581189 -0.005590058 -0.005362415 -0.005131474 -0.004900531
 -0.004674574 -0.004463774 -0.004272708 -0.004111545 -0.003981813 -0.003890238 -0.003830287 -0.003801737 -0.003792348 -0.003796231
 -0.003808781 -0.003826321 -0.003854143 -0.003893258 -0.003944069 -0.004007616 -0.004073658 -0.00414172 -0.004198706 -0.004243929
 -0.004264863 -0.004261473 -0.004225978 -0.004161546 -0.004076342 -0.003975258 -0.003877429 -0.003781392 -0.003694989 -0.003610721
 -0.003520247 -0.003423347 -0.003312703 -0.003203501 -0.003100181 -0.003024266 -0.00298648 -0.00299743 -0.003065873 -0.003177191
 -0.003333011 -0.003499775 -0.003673726 -0.003831631 -0.003971183 -0.004095944 -0.004206364 -0.004313515 -0.004416835 -0.00451634
 -0.004611671 -0.004700995 -0.00478528 -0.004867407 -0.004945558 -0.005017499 -0.00508197 -0.005133231 -0.005180439 -0.005227584
 -0.005289304 -0.005377141 -0.005495164 -0.005650082 -0.005832613 -0.00604203 -0.006267347 -0.006505804 -0.00675409 -0.007010666
 -0.007283393 -0.007572566 -0.007890328 -0.008236673 -0.008609425 -0.009005778 -0.009402909 -0.009798156 -0.01016675 -0.01051069
 -0.01082203 -0.01110567 -0.01136728 -0.01161034 -0.01184212 -0.01206334 -0.0122776 -0.01248321 -0.01268005 -0.01286682
 -0.01304256 -0.01320804 -0.01336356 -0.01350845 -0.01364281 -0.01376433 -0.01387209 -0.01397153 -0.01406276 -0.01415808
 -0.01425768 -0.01436318 -0.01447279 -0.01457231 -0.01466111 -0.01472767 -0.01477543 -0.01480831 -0.01482937 -0.01484768
 -0.01486095 -0.01487073 -0.01487173 -0.01485872 -0.01483096 -0.01478408 -0.01472725 -0.01466219 -0.01460097 -0.01454914
 -0.01450576 -0.01447334 -0.01443704 -0.01439508 -0.01433922 -0.01426832 -0.01419113 -0.01410807 -0.01402825 -0.01395059
 -0.01387009 -0.01378528 -0.01368586 -0.01357384 -0.01344802 -0.01331476 -0.01318493 -0.01306545 -0.01297169 -0.01290287
 -0.01286742 -0.01285073 -0.01284835 -0.01284029 -0.01281564 -0.01276653 -0.01268627 -0.01258332 -0.01245711 -0.01232267
 -0.01218152 -0.0120466 -0.01191901 -0.01180597 -0.01170764 -0.01162409 -0.01155496 -0.01149737 -0.01145145 -0.0114165
 -0.01139259 -0.01137988 -0.01137747 -0.01138378 -0.01139766 -0.01141766 -0.0114408 -0.01146511 -0.01148424 -0.01149355
 -0.01148895 -0.01146628 -0.0114289 -0.01137675 -0.0113144 -0.01124348 -0.01116223 -0.01107085 -0.01096506 -0.01084444
 -0.01070904 -0.01055901 -0.01039919 -0.01023011 -0.01005844 -0.009884465 -0.009713068 -0.009544129 -0.009379253 -0.009219571
 -0.009067222 -0.008925417 -0.008800327 -0.008691552 -0.008603141 -0.008526723 -0.008459029 -0.008390129 -0.008314051 -0.00822793
 -0.00812929 -0.008019626 -0.007898921 -0.007767988 -0.007626572 -0.007478518 -0.007323838 -0.007172057 -0.007023665 -0.006887735
 -0.006764086 -0.006655063 -0.006559852 -0.006475905 -0.006402749 -0.006337916 -0.006280812 -0.006230265 -0.006182782 -0.006134278
 -0.006078437 -0.006007022 -0.005918296 -0.005806104 -0.005679775 -0.005540571 -0.005401987 -0.005269283 -0.005146948 -0.00503803
 -0.004935802 -0.004840188 -0.004741508 -0.00463896 -0.004527059 -0.004405635 -0.004274331 -0.004133533 -0.003986265 -0.003833276
 -0.003679524 -0.003525773 -0.003377539 -0.003233577 -0.003094855 -0.002957694 -0.002815835 -0.002671024 -0.002519057 -0.002373933
 -0.002243635 -0.002138881 -0.002071985 -0.002026035 -0.00200182 -0.001967063 -0.001913011 -0.001832014 -0.001719698 -0.001596885
 -0.00146508 -0.001335703 -0.00120879 -0.001070372 -0.0009200109 -0.0007461607 -0.0005528745 -0.0003529383 -0.0001520603 2.49344E-05
 0.0001771308 0.0002890561 0.0003667264 0.000410542 0.0004309368 0.0004370742 0.0004403173 0.0004505756 0.0004761907 0.0005244188
 0.0005952658 0.0006919011 0.0008043166 0.0009310364 0.00106377 0.001200495 0.001343749 0.001493766 0.001649651 0.001810971
 0.00195948 0.002094362 0.002198756 0.002276122 0.002334413 0.002377927 0.002425166 0.002475405 0.002535366 0.002604573
 0.002684022 0.002776545 0.002886693 0.003012005 0.003153802 0.003303846 0.003457721 0.003613418 0.003769259 0.003925798
 0.004084553 0.004235516 0.004378136 0.004498893 0.004596262 0.004669181 0.004717771 0.004751755 0.004771908 0.004789073
 0.004804005 0.004826052 0.004855725 0.004900157 0.004957916 0.005030592 0.005113607 0.005202299 0.005289324 0.005364744
 0.005426514 0.005466633 0.005497891 0.005523308 0.005557382 0.005608878 0.005669685 0.005740902 0.005805289 0.005858395
 0.005909197 0.005957339 0.006027136 0.006119372 0.006231964 0.006362661 0.006486388 0.0066037 0.006703688 0.006790431
 0.006871732 0.006949391 0.007031525 0.007116893 0.007207905 0.007300677 0.007392748 0.007479114 0.007553386 0.007620057
 0.007677074 0.007739285 0.007811633 0.007901944 0.00801384 0.00814434 0.008293421 0.008459202 0.008641766 0.008835741
 0.00904068 0.009240901 0.009436058 0.009616596 0.009783684 0.009939731 0.01008328 0.01021078 0.01032055 0.01040399
 0.01046877 0.01052151 0.01057203 0.01063594 0.01070957 0.0107967 0.01088706 0.01097531 0.01105943 0.0111377
 0.01120961 0.01127579 0.01132953 0.0113698 0.0113929 0.01139805 0.01138912 0.01136643 0.01134292 0.01132063
 0.01132672 0.01136184 0.01144677 0.01157441 0.01173262 0.01191477 0.01209782 0.01228581 0.01247651 0.01267039
 0.01286965 0.0130663 0.01325077 0.01343313 0.01361174 0.0138125 0.0140523 0.01430758 0.01458255 0.01481442
 0.01498973 0.01511067 0.0151748 0.01521522 0.01523341 0.01524423 0.01524872 0.01526351 0.01528943 0.01534455
 0.01541985 0.01549711 0.01556361 0.01557779 0.01554458 0.01545058 0.01531204 0.01514266 0.01495015 0.01474228
 0.01452964 0.01431543 0.01412202 0.01395881 0.01383495 0.01375716 0.0137106 0.01369496 0.01369028 0.01369498
 0.01369164 0.01367932 0.01364564 0.01359138 0.01352146 0.01343725 0.0133507 0.01325807 0.01315288 0.01303182
 0.01288129 0.01270777 0.01251765 0.01231033 0.01209047 0.01184743 0.01156328 0.01127068 0.01097014 0.01073274
 0.01059081 0.01055531 0.01064684 0.01078916 0.01097676 0.01112535 0.01122505 0.01124897 0.0111958 0.01110923
 0.01099495 0.01093648 0.01093176 0.0110196 0.01117914 0.01135899 0.01154503 0.01167122 0.01175675 0.01179966
 0.01182888 0.01187997 0.01195731 0.01208122 0.01222944 0.01240053 0.01255773 0.01268843 0.01276519 0.01277288
 0.01273444 0.01264562 0.01257573 0.01253133 0.01255265 0.01264181 0.01277072 0.01293596 0.01308784 0.0132257
 0.01332057 0.01337445 0.01337602 0.01333334 0.01325636 0.01315873 0.01306843 0.01298828 0.01293406 0.01289815
 0.01287729 0.01287315 0.01288658 0.01291614 0.01296574 0.01301379 0.01305448 0.01308041 0.01308656 0.01309728
 0.01311517 0.01314652 0.01319169 0.01321948 0.0132292 0.01320168 0.01314166 0.01306655 0.01298157 0.0129145
 0.01286612 0.01285462 0.01287171 0.01291547 0.01296912 0.01301012 0.01303698 0.01303646 0.01302785 0.01302384
 0.01301568 0.01301072 0.01296313 0.01285736 0.01269428 0.01246334 0.01224248 0.01203821 0.01190764 0.01185414
 0.01184395 0.01187247 0.01187046 0.01183724 0.01173248 0.01156224 0.01132076 0.01102631 0.01071341 0.01040916
 0.01017734 0.01002073 0.009975556 0.01000945 0.01011094 0.0102468 0.01039539 0.01054072 0.01067344 0.01078171
 0.01086107 0.01090478 0.01090901 0.0108874 0.01083954 0.0107986 0.01076646</values></Ydata></AB><ScSm><Ydata ylabel="Single channel"><values byteorder="INTEL" format="FLOAT32" numvalues="1814"> 0.0789061 0.07891749 0.07900202 0.07918513 0.0794321 0.07966498 0.07981932 0.07988982 0.07990831 0.07988769
 0.07982729 0.07977337 0.07981702 0.08000176 0.08025886 0.08045353 0.08049546 0.08042186 0.08037755 0.08047248
 0.08063009 0.08061062 0.08023506 0.07958952 0.07896908 0.07860661 0.0785288 0.07872815 0.07930557 0.08019311
 0.08084641 0.08063494 0.07963268 0.07865234 0.07834379 0.07857233 0.07879689 0.07869606 0.07826923 0.07771477
 0.07748308 0.0781533 0.07986297 0.08184012 0.08268267 0.08124414 0.07745311 0.07256941 0.06871733 0.06774632
 0.06992769 0.07358515 0.07635344 0.07706547 0.07630873 0.07522459 0.07428104 0.07342467 0.072877 0.07317588
 0.07443343 0.07583529 0.07606144 0.07441616 0.071656 0.0694509 0.06885994 0.06966949 0.07128753 0.07338701
 0.07499983 0.07400796 0.06923154 0.06305687 0.06036295 0.06388105 0.0712812 0.0774525 0.07904758 0.0763527
 0.07179736 0.06794162 0.06651358 0.06794778 0.07130918 0.07506824 0.07802578 0.0793698 0.07847473 0.0754474
 0.07165638 0.06906656 0.06903328 0.07177314 0.07631892 0.08060703 0.0824164 0.0810098 0.07762243 0.07415839
 0.07194093 0.07171895 0.07385036 0.07792765 0.08275668 0.08704829 0.08994228 0.09109698 0.09076466 0.0896298
 0.08828437 0.08713205 0.0867575 0.08756515 0.0888205 0.08892931 0.08717621 0.08468199 0.08324979 0.08350192
 0.08438423 0.08444661 0.08330883 0.08143097 0.07868578 0.07432463 0.06870797 0.06376845 0.06107799 0.06064793
 0.06208317 0.06520009 0.06867507 0.06996672 0.06810534 0.06546323 0.06539875 0.06867275 0.0730635 0.07607371
 0.07723834 0.07794461 0.07964931 0.08238744 0.08458777 0.08426031 0.08097318 0.07695323 0.07550624 0.07777154
 0.081631 0.08431527 0.08532098 0.08608884 0.08748348 0.0884496 0.08711397 0.0830133 0.0782818 0.07633112
 0.07887885 0.08422635 0.08849142 0.0884807 0.0838374 0.07711422 0.07178272 0.06983357 0.07125065 0.07533634
 0.0814752 0.08843394 0.09405079 0.09645201 0.09541737 0.09226104 0.0883316 0.08376925 0.07822997 0.07296348
 0.07105193 0.07449336 0.08164569 0.08859795 0.09265459 0.09367217 0.09253858 0.08951299 0.08447881 0.07854877
 0.07458774 0.07498693 0.0787822 0.08220482 0.08262797 0.08095846 0.07969154 0.07980131 0.08038314 0.08056897
 0.08076338 0.08195125 0.08428884 0.08672905 0.08803473 0.08790404 0.08702318 0.08626615 0.08590117 0.08539645
 0.08417043 0.08275473 0.08273281 0.08500561 0.08855135 0.09147613 0.09291419 0.09334072 0.09330451 0.0924622
 0.09007882 0.08641554 0.08328887 0.08271958 0.08497825 0.08842298 0.09120837 0.09260616 0.09282214 0.09233349
 0.09156904 0.09076853 0.09004912 0.0897072 0.09014492 0.09129816 0.09250595 0.09317434 0.093265 0.09299783
 0.09242371 0.09150721 0.09043264 0.08962025 0.08942819 0.08988236 0.09070954 0.09158047 0.09224048 0.09248108
 0.0922073 0.0915806 0.09092084 0.09041987 0.09008463 0.08994285 0.09010045 0.09054691 0.09106573 0.0914187
 0.09153363 0.09147257 0.09130055 0.09104259 0.09072663 0.09042564 0.09025436 0.0902964 0.090505 0.09072503
 0.09086654 0.09099372 0.09117103 0.09130083 0.09122668 0.09095298 0.0906561 0.09049563 0.09049006 0.09056071
 0.09061477 0.09055918 0.09029932 0.08982118 0.08929448 0.08900715 0.08913302 0.08960429 0.09022412 0.09081589
 0.09124827 0.09144679 0.09145081 0.09137915 0.09129237 0.09114566 0.09089857 0.09062494 0.09049273 0.09063378
 0.09102045 0.09147896 0.0918368 0.09203379 0.09210075 0.09210918 0.09215311 0.09228526 0.09243823 0.09248462
 0.09240059 0.09230606 0.0923235 0.09244158 0.09253762 0.09251867 0.09242813 0.09240182 0.09251942 0.09272939
 0.09292974 0.09308487 0.09323755 0.0934241 0.09359756 0.09364948 0.09352852 0.09332315 0.09318127 0.0931578
 0.0931996 0.09326921 0.09340136 0.09361579 0.09384195 0.09397814 0.09400262 0.09399056 0.09401758 0.09407002
 0.0940678 0.09396476 0.09380203 0.09366518 0.09361312 0.093648 0.09372722 0.09379187 0.09379919 0.09374351
 0.09365042 0.09354859 0.09344959 0.09336266 0.0933269 0.09340049 0.0935885 0.09379072 0.09385913 0.09372802
 0.09347944 0.09326762 0.09317827 0.09316528 0.09312039 0.09298771 0.09279978 0.09262052 0.09248361 0.09238695
 0.09231663 0.09226333 0.09223637 0.09227385 0.09241196 0.09261905 0.09278233 0.09279917 0.09267965 0.09253246
 0.0924564 0.09247002 0.09253205 0.09259713 0.09265706 0.09274584 0.09288922 0.09304448 0.09312868 0.09312081
 0.09309546 0.09314267 0.09329512 0.0935329 0.09380078 0.0940127 0.09410285 0.09409872 0.09410312 0.09418751
 0.09433427 0.09448931 0.09463239 0.09477909 0.09494421 0.09513159 0.09535137 0.09562494 0.09596343 0.09634227
 0.09669974 0.09697267 0.09715229 0.09730914 0.0975466 0.09791434 0.09836677 0.09880741 0.09917063 0.09946353
 0.09973671 0.1000231 0.1003171 0.1006154 0.1009529 0.1013674 0.1018425 0.1023171 0.1027508 0.1031524
 0.1035492 0.103955 0.1043707 0.1048021 0.1052661 0.1057751 0.1063051 0.1067895 0.1071688 0.1074503
 0.1077078 0.1080275 0.1084521 0.1089476 0.1094111 0.1097457 0.1099609 0.1101737 0.110479 0.1108473
 0.1111885 0.1114907 0.111838 0.1122897 0.1127943 0.1132455 0.1135953 0.1138887 0.1141977 0.1145384
 0.114856 0.1150903 0.11525 0.1154057 0.1156119 0.1158678 0.1161675 0.1165421 0.117011 0.1175188
 0.1179692 0.1183111 0.1185586 0.1187494 0.1189162 0.1190836 0.1192554 0.119418 0.1195735 0.1197414
 0.1199151 0.1200565 0.1201589 0.120277 0.1204671 0.120732 0.12105 0.1214182 0.121828 0.1222332
 0.1225952 0.1229504 0.1233721 0.1238553 0.1242887 0.1245715 0.1247167 0.1248072 0.124893 0.124989
 0.1251387 0.1254064 0.1258004 0.1262544 0.1266967 0.1271051 0.127489 0.1278499 0.1281719 0.1284325
 0.1286149 0.1287224 0.1287898 0.1288778 0.1290448 0.1293101 0.1296354 0.1299486 0.130191 0.130337
 0.1303739 0.1302977 0.1301503 0.1300279 0.1300033 0.1300382 0.1300037 0.1297909 0.1293802 0.1288048
 0.128091 0.1272584 0.1263607 0.1254975 0.1247772 0.1242722 0.1240143 0.1240289 0.1243499 0.1249782
 0.1258268 0.1267382 0.1275623 0.1281965 0.1285556 0.1285564 0.1281713 0.1274751 0.1266082 0.1257047
 0.1248595 0.1241201 0.1234772 0.1228958 0.122403 0.1221383 0.1222939 0.123004 0.1242853 0.1260356
 0.1280543 0.1300895 0.1319278 0.1334768 0.1347678 0.1358828 0.1368884 0.1378309 0.1387519 0.1396682
 0.1405441 0.1413216 0.1419836 0.1425643 0.1430987 0.1435863 0.1440027 0.1443262 0.1445572 0.1447274
 0.1448807 0.1450319 0.1451588 0.1452438 0.1453015 0.1453488 0.1453635 0.1452891 0.1450728 0.144702
 0.1442319 0.1438045 0.1436344 0.1439406 0.1448427 0.1462871 0.1480707 0.1499498 0.1517345 0.153302
 0.1545737 0.1555256 0.1562108 0.1567332 0.1571878 0.1576291 0.158076 0.158525 0.15896 0.1593702
 0.1597607 0.1601493 0.1605555 0.1609853 0.1614182 0.161815 0.1621569 0.1624753 0.1628316 0.1632611
 0.1637375 0.1641978 0.1646077 0.1649911 0.1653845 0.1657775 0.1661264 0.1664194 0.1666971 0.1670087
 0.1673773 0.1677984 0.1682396 0.1686416 0.1689575 0.1691968 0.169417 0.1696687 0.1699623 0.1702812
 0.1706074 0.1709301 0.1712465 0.1715649 0.1719029 0.1722651 0.1726204 0.1729176 0.1731369 0.1733145
 0.1735082 0.1737472 0.1740188 0.1742945 0.174562 0.1748379 0.1751517 0.1755086 0.1758697 0.1761788
 0.1764116 0.1765943 0.1767758 0.1769889 0.1772387 0.1775136 0.1777964 0.1780686 0.17832 0.1785581
 0.1788029 0.1790662 0.1793417 0.1796159 0.1798824 0.180143 0.1804002 0.1806543 0.1809101 0.1811835
 0.1814905 0.1818255 0.1821555 0.182443 0.1826765 0.1828721 0.1830539 0.1832394 0.1834386 0.1836553
 0.1838867 0.1841265 0.184372 0.1846249 0.184885 0.1851454 0.1853975 0.1856391 0.1858755 0.1861141
 0.1863617 0.1866246 0.1869023 0.1871819 0.1874473 0.1876929 0.1879252 0.1881532 0.188382 0.1886132
 0.1888447 0.1890719 0.1892935 0.1895144 0.1897399 0.1899704 0.190202 0.1904295 0.1906496 0.1908644
 0.1910813 0.191307 0.1915415 0.1917786 0.1920121 0.192242 0.192472 0.1927007 0.1929222 0.1931374
 0.1933561 0.1935839 0.1938168 0.1940504 0.1942858 0.1945223 0.1947535 0.1949727 0.1951809 0.1953859
 0.1955964 0.1958155 0.1960415 0.1962728 0.1965086 0.1967435 0.1969694 0.1971842 0.1973929 0.1976039
 0.1978263 0.1980663 0.1983181 0.1985664 0.198801 0.1990267 0.1992569 0.1995021 0.199761 0.2000196
 0.2002642 0.2004953 0.2007243 0.2009574 0.2011892 0.2014086 0.2016091 0.201796 0.201984 0.2021823
 0.202387 0.202592 0.2027973 0.2030027 0.2032046 0.2034051 0.2036125 0.2038307 0.2040557 0.2042813
 0.2045039 0.2047229 0.2049384 0.2051499 0.2053619 0.2055864 0.2058277 0.206069 0.2062912 0.2064988
 0.2067105 0.2069339 0.2071638 0.2073946 0.2076235 0.2078533 0.2080892 0.2083277 0.208557 0.2087755
 0.2089933 0.2092144 0.2094345 0.2096514 0.2098633 0.2100665 0.2102679 0.2104831 0.2107149 0.2109523
 0.2111889 0.2114229 0.2116509 0.2118732 0.212094 0.2123111 0.2125224 0.2127338 0.2129485 0.2131633
 0.2133848 0.2136255 0.2138809 0.2141334 0.2143722 0.2145943 0.2148009 0.2150031 0.2152074 0.2153918
 0.215497 0.2153819 0.2147025 0.2127868 0.2086256 0.2010707 0.1892922 0.1733091 0.1541718 0.1335879
 0.1132941 0.09460707 0.07829688 0.06469178 0.05385497 0.04569745 0.04004006 0.03672183 0.03572381 0.03729947
 0.04211089 0.05083536 0.06268568 0.07409965 0.08012833 0.07834667 0.07117166 0.06365483 0.05928295 0.05829713
 0.05920251 0.06072389 0.06245787 0.06463876 0.06766769 0.07165753 0.07641469 0.08193148 0.088626 0.09681249
 0.1060628 0.1153814 0.1240618 0.1322422 0.1405735 0.149433 0.1585288 0.1671926 0.1749147 0.1815964
 0.1874435 0.1927355 0.1976714 0.2023481 0.2068102 0.2110452 0.2148975 0.2180362 0.2201118 0.2210199
 0.2210286 0.2206313 0.2202561 0.2200978 0.2201705 0.2204404 0.2208833 0.2214788 0.2222041 0.2230327
 0.2239309 0.2248657 0.2258133 0.2267486 0.2276389 0.2284593 0.2292053 0.2298856 0.2305089 0.2310786
 0.2315923 0.2320492 0.23246 0.2328442 0.2332158 0.2335784 0.2339299 0.2342646 0.2345738 0.2348519
 0.2350995 0.2353217 0.2355292 0.2357349 0.2359433 0.2361465 0.2363388 0.2365241 0.2367103 0.2369027
 0.2371047 0.2373155 0.2375259 0.2377264 0.2379167 0.2381026 0.2382876 0.238473 0.2386589 0.2388415
 0.2390169 0.2391884 0.2393636 0.2395428 0.2397196 0.239893 0.2400712 0.2402632 0.2404668 0.2406708
 0.2408687 0.2410662 0.2412693 0.2414726 0.2416698 0.2418664 0.2420718 0.2422859 0.242503 0.2427189
 0.2429209 0.2430875 0.2432118 0.2433205 0.2434605 0.2436623 0.2439136 0.244169 0.2443919 0.2445819
 0.244758 0.2449293 0.2450907 0.2452371 0.2453783 0.2455435 0.2457606 0.2460211 0.246285 0.2465314
 0.2467724 0.2470159 0.2472535 0.2474845 0.2477088 0.2478961 0.2480108 0.2480765 0.2481851 0.2484233
 0.2487919 0.2491989 0.2495419 0.2497923 0.2499927 0.2501981 0.2504424 0.2507104 0.2509026 0.2509056
 0.2507649 0.2507196 0.2509816 0.251523 0.2521356 0.2526446 0.2530153 0.2533013 0.2535501 0.2537536
 0.2538597 0.2538346 0.2537411 0.2537521 0.2540324 0.2545694 0.2551659 0.2556361 0.2559487 0.2561607
 0.2563194 0.2564548 0.2565305 0.2563791 0.2558791 0.2552685 0.2550834 0.2556397 0.2566794 0.2576488
 0.2582472 0.2585794 0.2588461 0.2590926 0.2592733 0.259295 0.2588849 0.2577444 0.2561284 0.2550141
 0.2552947 0.2568792 0.2588471 0.2603654 0.2612184 0.2616146 0.261826 0.2619998 0.2620483 0.2616639
 0.2606645 0.2594411 0.258857 0.2594526 0.2608404 0.2621201 0.2627965 0.2630401 0.2632081 0.2634428
 0.2635751 0.2630775 0.2613662 0.2586694 0.256456 0.2563996 0.2587405 0.2619941 0.2644216 0.2655213
 0.2658834 0.2659061 0.2652117 0.2633325 0.2604222 0.257183 0.254639 0.2539971 0.2558467 0.2591628
 0.261889 0.2629642 0.2632157 0.2639986 0.2655803 0.2671526 0.2678806 0.267551 0.2664256 0.2647754
 0.2627501 0.2608142 0.2600089 0.2612125 0.2640727 0.2671319 0.2691764 0.2701595 0.2705648 0.2699867
 0.2668458 0.2602879 0.2525562 0.2483693 0.2507573 0.2578949 0.2650625 0.2692863 0.270974 0.2717048
 0.2721153 0.2717173 0.2691861 0.263091 0.2541461 0.2466204 0.2454422 0.2513181 0.2599347 0.2659929
 0.266818 0.2626233 0.2555458 0.2490162 0.2463664 0.24881 0.2549071 0.2619873 0.2677546 0.2709222
 0.2711973 0.2691528 0.2661826 0.2641629 0.2640918 0.2646071 0.263023 0.2587278 0.2542121 0.251418
 0.2487367 0.243983 0.2391876 0.2392435 0.2455386 0.253626 0.2582192 0.2585461 0.2573865 0.2560331
 0.2521033 0.2429787 0.2307536 0.2223424 0.2234293 0.2325671 0.2424702 0.2471514 0.2466824 0.245057
 0.2448607 0.2446381 0.2409521 0.2328702 0.2242405 0.2204649 0.2227614 0.2270745 0.2288767 0.226787
 0.221005 0.2118489 0.2023245 0.1990634 0.2067321 0.2223227 0.2375163 0.2455467 0.2436857 0.2317374
 0.2129548 0.1959978 0.1907299 0.1993925 0.2138848 0.2232199 0.2222539 0.2126037 0.1979311 0.1814235
 0.1672652 0.1611192 0.166734 0.182126 0.199641 0.2097849 0.2064792 0.1917751 0.1762252 0.1712961
 0.1789531 0.1903126 0.1955856 0.1929544 0.1871887 0.1834943 0.1844946 0.1897896 0.1963923 0.201524
 0.2048294 0.2052669 0.1981193 0.1806774 0.1598168 0.1474758 0.1482485 0.1570318 0.1685832 0.182219
 0.1955837 0.2014279 0.1957789 0.1854616 0.1822838 0.1904953 0.2031476 0.2105932 0.2100304 0.2059959
 0.2033477 0.202089 0.1997987 0.1972366 0.1985528 0.2055524 0.2145392 0.2204469 0.2221269 0.2218879
 0.2215984 0.2212734 0.2204037 0.2188132 0.2165743 0.214124 0.2121311 0.2107482 0.2094836 0.2079629
 0.2059091 0.2020324 0.1943226 0.1829085 0.1718515 0.165953 0.1656986 0.1675615 0.1692506 0.1710719
 0.171047 0.1635104 0.1466075 0.1284633 0.1212761 0.129537 0.1466876 0.1625639 0.1711156 0.1709097
 0.1621674 0.1471508 0.1328075 0.1285687 0.1386043 0.1577919 0.1772067 0.1918156 0.2009875 0.2042081
 0.2002672 0.1904689 0.1798747 0.1744176 0.1773138 0.18763 0.2005465 0.2085622 0.2051769 0.1913867
 0.1785836 0.1801364 0.1973202 0.2171435 0.2269534 0.2272597 0.2265371 0.2280612 0.2283116 0.2262633
 0.2270818 0.2350393 0.2472252 0.2564148 0.2574155 0.2491161 0.2337893 0.2175691 0.2088541 0.2115785
 0.2207318 0.2277958 0.2289857 0.2247573 0.2147662 0.1999231 0.1876961 0.1876299 0.2002702 0.2158919
 0.2255506 0.2292276 0.2317861 0.2346072 0.233951 0.2266651 0.2154506 0.2071851 0.2061189 0.2101662
 0.2144426 0.2164237 0.2160003 0.2125687 0.2053928 0.1968213 0.1923358 0.1958113 0.2055218 0.2157663
 0.2219888 0.2236527 0.2228811 0.2217139 0.220713 0.2191472 0.2164205 0.2139218 0.214747 0.2203366
 0.2281047 0.2340608 0.2373749 0.2406525 0.2458454 0.2515453 0.2546835 0.253883 0.2507859 0.2486514
 0.2497652 0.2536307 0.2573317 0.2580213 0.2556287 0.2531677 0.2539482 0.2584084 0.2640527 0.268285
 0.2705293 0.2716879 0.2726098 0.2733656 0.2732198 0.2712013 0.2675139 0.2643752 0.2644633 0.2682589
 0.2735695 0.2777693 0.2798988 0.2805397 0.2804116 0.2796113 0.2780125 0.275934 0.2741556 0.2733098
 0.2734371 0.2741586 0.2750831 0.2759651 0.2766657 0.2771458 0.2774543 0.2776538 0.2777927 0.2779369
 0.2781329 0.2783251 0.2784123 0.2784192 0.2785204 0.2788316 0.2792469 0.2795482 0.2796056 0.2793785
 0.2787887 0.2777444 0.2762948 0.2746232 0.2728438 0.270927 0.2689412 0.2673182 0.2667256 0.2675654
 0.2695977 0.2720875 0.2743087 0.2759058 0.2768777 0.2773795 0.2775872 0.2776531 0.2776736 0.2776676
 0.2776011 0.2774419 0.2771909 0.2768705 0.2765059 0.2761296 0.275787 0.2755095 0.2752787 0.2750337
 0.2747188 0.2743198 0.2738595 0.2733709 0.2728696 0.2723361 0.271715 0.2709472 0.2700182 0.2689856
 0.2679502 0.2669934 0.2661289 0.2653023 0.2644386 0.2634928 0.26245 0.2612896 0.2599997 0.2586444
 0.2573664 0.2562767 0.2553611 0.2545143 0.2536337 0.2526614 0.2515789 0.2504014 0.2491643 0.2478945
 0.2465971 0.2452634 0.2438795 0.2424261 0.240884 0.2392454 0.2375199 0.2357325 0.2339111 0.2320697
 0.2301851 0.2281794 0.2259293 0.2233054 0.2202004 0.2165324 0.2122645 0.2074562 0.2022828 0.1969797
 0.1917631 0.1867954 0.1821939 0.1780526 0.1744567 0.1714788 0.1691675 0.167553 0.1666622 0.1665101
 0.1670796 0.1683199 0.1701519 0.172466 0.1751236 0.1779685 0.1808305 0.18354 0.1859854 0.1881733
 0.1902081 0.1921885 0.1941212 0.1959377 0.1975823 0.1990526 0.2003567 0.2014747 0.2023889 0.2031194
 0.2037034 0.2041637 0.2045192 0.204798 0.2050226 0.2052001 0.2053398 0.2054698 0.2056313 0.2058598
 0.2061639 0.2065217 0.2069098 0.2073339 0.2078197 0.2083808 0.2090028 0.2096514 0.2102959 0.2109356
 0.2116028 0.2123411 0.2131912 0.2141931 0.2153812 0.2167697 0.2183474 0.2200747 0.2218699 0.2236148
 0.2251928 0.2265245 0.2275719 0.2283299 0.2288219 0.2290937 0.2291986 0.229176 0.2290373 0.2287813
 0.2284221 0.2279862 0.2274857 0.2269167 0.2262815 0.2255942 0.2248686 0.2241193 0.2233655 0.2226194
 0.221882 0.2211546 0.2204425 0.2197469 0.2190652 0.2183978 0.2177426 0.2170874 0.2164163 0.215723
 0.2150166 0.2143067 0.2135769 0.2127812 0.2118791 0.2108625 0.2097394 0.2085105 0.2071792 0.2057643
 0.20429 0.2027685 0.2011979 0.1995675 0.1978715 0.1961116 0.1942752 0.1923235 0.1902372 0.1880735
 0.185947 0.1839511 0.1821113 0.1803993 0.1787722 0.1772058 0.1757048 0.1742819 0.1729355 0.1716543
 0.170431 0.1692617 0.1681444 0.1670825 0.166084 0.1651595 0.1643255 0.1635968 0.1629692 0.1624253
 0.1619565 0.1615655 0.1612558 0.161035 0.1609124 0.1608738 0.1608672 0.1608275 0.1607123 0.1605211
 0.1602924 0.1600768 0.1598992 0.1597523 0.1596165 0.1594612 0.1592241 0.1588175 0.1581624 0.1572113
 0.1559465 0.1543809 0.1525709 0.150627 0.1486946 0.1469031 0.1453284 0.1440132 0.1429909 0.1422551
 0.141729 0.1413125 0.1409634 0.1407207 0.1406556 0.1407848 0.1410068 0.1411482 0.1411217 0.1410258
 0.1410599 0.1413606 0.141926 0.1426469 0.1433803 0.1440184 0.1445082 0.1448277 0.1449788 0.1450031
 0.1449563 0.1448579 0.144697 0.1444685 0.1441782 0.1438301 0.1434268 0.1429634 0.1424271 0.1418212
 0.1411601 0.1404303 0.1396017 0.138673 0.1376471 0.1364989 0.135258 0.1341052 0.13331 0.1330686
 0.1334005 0.1341506 0.135096 0.1360911 0.137054 0.1378011 0.1380887 0.1379858 0.1380696 0.1390091
 0.1409194 0.1432375 0.1452326 0.1465296 0.1471325 0.1471448 0.1466329 0.1456493 0.1442009 0.1422359
 0.1397718 0.136955 0.133942 0.1308588 0.1278906 0.1252403 0.1230004 0.1211689 0.1197257 0.1187133
 0.118266 0.1180077 0.1160789 0.1101339 0.1009735 0.0941331 0.09522668 0.10363 0.1129246 0.11768
 0.1177701 0.1160963 0.1146425 0.1137083 0.1132072 0.1132872 0.1140675 0.1153992 0.1168882 0.1181191
 0.1189123 0.1193026 0.1192602 0.1184607 0.1162138 0.111687 0.1045815 0.095741 0.08685919 0.07948037
 0.07431728 0.07127145 0.06974211 0.06897238 0.06844868 0.06814957 0.06840107 0.06948759 0.07141292 0.07399264
 0.07704646 0.08036982 0.0835909 0.08629733 0.08836198 0.08997203 0.09130134 0.09230971 0.0928731 0.0929545
 0.09262178 0.092004 0.09124802 0.09044811 0.08958362 0.0885556 0.08734755 0.08616486 0.08532397 0.08494957
 0.08487128 0.08485746 0.08482678 0.08479565 0.08476427 0.08471596 0.08465099 0.08461273 0.08470888 0.08503464
 0.08553552 0.08602367 0.08634846 0.0864976 0.08655006 0.08655092 0.08639435 0.08590209 0.08512367 0.08440174
 0.08392807 0.08340813 0.08246221 0.08123846 0.08032284 0.0800866 0.08035621 0.08069146 0.08078572 0.08060002
 0.08031213 0.08022673 0.08057886 0.08125226</values></Ydata></ScSm><ScRf><Ydata ylabel="Single channel"><values byteorder="INTEL" format="FLOAT32" numvalues="1820"> 0.06078748 0.06094466 0.06104734 0.06108979 0.06108975 0.0610913 0.06114696 0.06128214 0.06147373 0.06166296
 0.06179676 0.06186301 0.06187939 0.06185476 0.06179266 0.06173583 0.06176221 0.06190862 0.0621172 0.06227546
 0.06230951 0.06224983 0.06221145 0.06228059 0.06239694 0.0623722 0.06206599 0.06154782 0.06105313 0.06076763
 0.0607117 0.06087622 0.06133766 0.06204277 0.06256507 0.06240688 0.06162057 0.06084266 0.0605901 0.06076564
 0.06094636 0.0608758 0.06054964 0.06012183 0.05994364 0.06046701 0.06180109 0.06334586 0.06400702 0.06288689
 0.0599271 0.05611105 0.05309843 0.05233493 0.05403517 0.0568925 0.05905875 0.0596192 0.05903314 0.0581966
 0.05747594 0.05682121 0.05639457 0.05661334 0.05757258 0.05864632 0.05880927 0.05751982 0.0553692 0.05365879
 0.05320704 0.05383774 0.05508813 0.05671418 0.05797397 0.05721775 0.05351397 0.04871034 0.04661134 0.04936007
 0.05514935 0.05998477 0.06123659 0.0591221 0.05555309 0.05254772 0.0514554 0.05259575 0.05522159 0.05814068
 0.06043108 0.06146872 0.06076486 0.05839907 0.05543867 0.05341875 0.05339755 0.05554298 0.05909894 0.06245348
 0.06386957 0.06276779 0.06011349 0.05740114 0.05567101 0.05550691 0.05718201 0.06037448 0.06415366 0.06751674
 0.06979313 0.07071108 0.07046027 0.06957555 0.06852895 0.06764209 0.06736463 0.06800187 0.06898133 0.06906915
 0.06771316 0.06578292 0.06467541 0.06487069 0.06554857 0.06558446 0.06468797 0.06322092 0.06108152 0.05767802
 0.05328535 0.04941437 0.04730303 0.04697197 0.0481192 0.05059898 0.05336299 0.05440339 0.05294817 0.05085865
 0.05078217 0.05332985 0.05676431 0.0591247 0.06004445 0.06061134 0.0619658 0.0641316 0.0658737 0.06562826
 0.06305265 0.05989598 0.05876477 0.06056654 0.0636373 0.06578671 0.06660563 0.06722808 0.06834775 0.06914546
 0.0681451 0.06497136 0.061295 0.05979762 0.06183066 0.06605901 0.06943016 0.06943193 0.06578405 0.06050023
 0.05631991 0.05481348 0.05597034 0.05924757 0.06416763 0.06975843 0.0743047 0.07630794 0.07557177 0.07312711
 0.07005459 0.06647952 0.06212445 0.05797334 0.05648986 0.05929285 0.06508826 0.0707463 0.07409601 0.07501125
 0.07419543 0.07184398 0.06785128 0.06311715 0.05997461 0.06037772 0.06355015 0.06642433 0.06685239 0.06556581
 0.06460176 0.06476246 0.06531245 0.06554505 0.065799 0.06688432 0.0689203 0.07103698 0.07221639 0.0722124
 0.07158853 0.0710645 0.07086331 0.07054487 0.06962764 0.06855866 0.06865886 0.07067326 0.07374078 0.0762784
 0.07756964 0.07802159 0.07809685 0.07749778 0.07558991 0.07258514 0.070027 0.06964678 0.0716895 0.07475539
 0.07725371 0.07855261 0.07883918 0.07853717 0.07801299 0.07746294 0.07698666 0.07684036 0.07736041 0.07847773
 0.07962162 0.08029254 0.08046867 0.08033824 0.07993704 0.07923551 0.07840701 0.07782452 0.0777884 0.07830434
 0.07913478 0.08001003 0.08071654 0.08105513 0.08091606 0.08043609 0.07992203 0.0795738 0.07940491 0.07942209
 0.07969676 0.08020862 0.08076695 0.08116741 0.0813531 0.08138364 0.08131766 0.08117365 0.08097109 0.0807765
 0.08070324 0.08083279 0.08111404 0.08139472 0.08159831 0.08180197 0.08207352 0.08231085 0.08234774 0.0821764
 0.0819667 0.08188044 0.0819398 0.08206611 0.08216916 0.08216733 0.08198137 0.08160275 0.08118614 0.08099119
 0.08117545 0.08168134 0.08233389 0.08296807 0.08345264 0.08371116 0.08377956 0.08376816 0.0837296 0.08362061
 0.08341032 0.0831778 0.08308341 0.08324933 0.0836543 0.08414288 0.08454745 0.08479193 0.08489446 0.08493459
 0.08502048 0.08520318 0.08539942 0.08547131 0.08540201 0.08532719 0.08537215 0.08550856 0.08559667 0.08554743
 0.08542532 0.08538473 0.08551003 0.08573991 0.08595638 0.08611751 0.08627831 0.0864916 0.08670866 0.08680002
 0.08669477 0.08647967 0.08631471 0.08626418 0.08627442 0.08630978 0.08642033 0.08664057 0.08689068 0.08704139
 0.08705758 0.08702978 0.08705698 0.08712941 0.08714879 0.08704813 0.0868644 0.08669737 0.08662449 0.0866563
 0.0867442 0.08681415 0.08681045 0.08672924 0.08661366 0.08651107 0.08643859 0.08640012 0.08642718 0.08656815
 0.08681144 0.08703704 0.08708733 0.08690974 0.08661952 0.08640167 0.08634402 0.0863708 0.08633691 0.08617025
 0.08591489 0.08566044 0.08546038 0.08531518 0.08520184 0.08510561 0.08504125 0.08505306 0.08516959 0.08533736
 0.08542515 0.08533362 0.0850957 0.0848407 0.08467127 0.08460164 0.08459105 0.08459376 0.08459046 0.08460432
 0.08466809 0.08475621 0.0847869 0.08471826 0.0846051 0.08454135 0.08458571 0.08474489 0.08496737 0.08514158
 0.08516765 0.08506133 0.08494435 0.08491609 0.08497263 0.08505753 0.08514141 0.08522829 0.0853205 0.08541515
 0.08552696 0.08568888 0.08592068 0.08619975 0.08646416 0.08665075 0.08674754 0.08681718 0.08695647 0.08721588
 0.08755548 0.08788283 0.088134 0.08831982 0.08849612 0.08869437 0.0888954 0.0890787 0.08927391 0.0895317
 0.08985464 0.0901922 0.0905022 0.09078698 0.09106877 0.09135804 0.09165534 0.09197135 0.0923332 0.09275793
 0.09320878 0.09359431 0.09384046 0.09396543 0.09407168 0.09426893 0.09460118 0.09501263 0.09537037 0.09556489
 0.09562357 0.09569401 0.09588493 0.09615728 0.09640992 0.0966354 0.0969293 0.09735031 0.09782559 0.09821674
 0.09845536 0.09859613 0.09874514 0.09894729 0.09914993 0.09927994 0.09934163 0.0994112 0.09954105 0.09971709
 0.09992495 0.1002029 0.1005839 0.1010192 0.1014091 0.1016956 0.1018912 0.1020344 0.1021508 0.1022449
 0.1023054 0.1023289 0.1023488 0.1024122 0.1025164 0.1026023 0.1026345 0.1026545 0.1027317 0.1028909
 0.1031164 0.1033929 0.1037017 0.1039989 0.1042529 0.1045011 0.1048166 0.1051963 0.1055293 0.1057128
 0.1057632 0.1057731 0.1057946 0.105823 0.1058748 0.1060089 0.1062576 0.1065862 0.1069387 0.1072908
 0.1076452 0.1079963 0.1083134 0.1085484 0.1086632 0.1086645 0.1086141 0.1086018 0.1086997 0.1089267
 0.109241 0.1095685 0.1098499 0.1100571 0.1101702 0.1101769 0.110117 0.1100964 0.1102043 0.1104114
 0.1105803 0.1105795 0.1103685 0.1099783 0.1094501 0.1088172 0.1081299 0.107466 0.1069043 0.1064922
 0.1062514 0.1062105 0.1064131 0.1068719 0.1075199 0.10823 0.1088853 0.1094064 0.1097152 0.1097234
 0.1093948 0.1087985 0.1080701 0.1073301 0.1066452 0.1060285 0.1054476 0.1048662 0.1043261 0.1039828
 0.1040332 0.104597 0.1056549 0.1070608 0.1085956 0.1100413 0.1112616 0.1122418 0.1130547 0.1137827
 0.1144686 0.1151297 0.1157878 0.1164542 0.1170993 0.1176728 0.1181609 0.1185963 0.1190115 0.1194044
 0.1197493 0.120024 0.1202326 0.1204138 0.1206061 0.1207911 0.1208993 0.1208899 0.1207991 0.1206893
 0.120576 0.1204195 0.1201668 0.1197938 0.1193384 0.1189234 0.1187368 0.1189528 0.1196334 0.1206913
 0.1219555 0.1232797 0.1245759 0.1257603 0.1267249 0.1274012 0.1278279 0.1281191 0.1283766 0.1286493
 0.12895 0.1292723 0.1295948 0.1298936 0.1301643 0.1304305 0.130728 0.1310699 0.1314234 0.1317324
 0.1319752 0.1321941 0.1324604 0.1328074 0.1332004 0.1335736 0.1338984 0.134206 0.1345303 0.1348474
 0.135101 0.1352803 0.1354401 0.1356454 0.1359267 0.1362769 0.1366534 0.1369866 0.1372262 0.1373907
 0.1375469 0.1377427 0.1379776 0.1382309 0.13849 0.1387494 0.1390031 0.1392553 0.1395256 0.1398257
 0.140129 0.1403826 0.1405618 0.1407009 0.1408587 0.1410611 0.1412864 0.1414985 0.1416883 0.1418884
 0.1421458 0.1424714 0.1428124 0.1430887 0.1432606 0.1433581 0.1434474 0.1435786 0.1437639 0.1439865
 0.1442191 0.1444384 0.1446363 0.1448237 0.1450194 0.1452323 0.1454563 0.1456794 0.1458949 0.1461046
 0.1463141 0.1465288 0.1467546 0.1470014 0.1472771 0.1475706 0.1478474 0.1480742 0.1482452 0.148381
 0.1485079 0.1486467 0.1488108 0.1490029 0.1492123 0.1494235 0.1496263 0.14982 0.1500106 0.1502045
 0.1504015 0.1505972 0.1507923 0.1509939 0.1512103 0.1514456 0.1516956 0.1519446 0.1521715 0.1523654
 0.1525351 0.1527025 0.1528855 0.1530861 0.153289 0.1534784 0.1536562 0.1538388 0.1540352 0.1542377
 0.1544356 0.1546281 0.15482 0.1550124 0.1552028 0.1553922 0.1555862 0.1557878 0.1559935 0.1561971
 0.1563953 0.1565876 0.1567753 0.1569634 0.1571579 0.1573594 0.1575627 0.1577667 0.157975 0.1581868
 0.1583933 0.1585876 0.1587744 0.158967 0.159173 0.1593857 0.1595909 0.1597815 0.1599628 0.160146
 0.1603393 0.1605446 0.1607569 0.160969 0.1611804 0.161394 0.1616081 0.1618173 0.1620231 0.1622328
 0.1624487 0.1626665 0.162882 0.1630943 0.1633054 0.163519 0.1637367 0.163954 0.1641633 0.1643588
 0.1645393 0.1647091 0.1648753 0.1650417 0.1652089 0.165381 0.1655647 0.165759 0.1659555 0.1661494
 0.1663431 0.1665401 0.1667426 0.166951 0.1671615 0.1673689 0.1675713 0.1677686 0.1679608 0.1681524
 0.1683507 0.1685569 0.1687675 0.1689807 0.169194 0.1694019 0.1696039 0.1698081 0.1700207 0.1702401
 0.1704616 0.1706794 0.1708907 0.1711 0.1713129 0.1715252 0.1717286 0.1719239 0.1721177 0.1723138
 0.1725153 0.1727253 0.1729414 0.1731608 0.1733864 0.1736182 0.1738477 0.1740694 0.1742846 0.1744925
 0.174692 0.1748891 0.1750897 0.175293 0.1754997 0.1757123 0.1759273 0.1761421 0.1763612 0.176585
 0.1768049 0.1770173 0.177222 0.1774046 0.1775209 0.1774554 0.1769252 0.1753773 0.1719742 0.165757
 0.1560322 0.1428177 0.1269894 0.1099675 0.09319408 0.07775848 0.06429192 0.05305824 0.04410584 0.03736314
 0.03268885 0.0299566 0.02915236 0.03048079 0.03448086 0.04170636 0.05150857 0.0609513 0.06594719 0.06448442
 0.05855366 0.05233435 0.04871813 0.04790936 0.0486736 0.04995613 0.05141768 0.05324413 0.05576747 0.05909109
 0.0630642 0.06768113 0.07327993 0.08010876 0.08780578 0.09555125 0.1027734 0.1095988 0.1165723 0.1240048
 0.131644 0.1389194 0.1453967 0.1509945 0.1558934 0.1603357 0.1644906 0.1684372 0.1722105 0.1757981
 0.1790652 0.1817296 0.1834983 0.1842875 0.1843248 0.1840255 0.1837509 0.1836648 0.1837748 0.1840473
 0.1844619 0.1850047 0.1856589 0.186402 0.1872029 0.1880285 0.188855 0.1896646 0.1904405 0.1911722
 0.1918552 0.1924828 0.1930489 0.1935579 0.194021 0.1944488 0.194852 0.1952409 0.195616 0.1959697
 0.1963004 0.1966149 0.1969183 0.1972071 0.1974723 0.1977083 0.1979222 0.1981309 0.1983447 0.1985576
 0.1987592 0.1989502 0.1991402 0.199337 0.1995419 0.1997501 0.1999539 0.2001497 0.2003401 0.2005299
 0.2007224 0.2009191 0.2011191 0.2013192 0.2015194 0.2017232 0.2019311 0.2021369 0.2023349 0.2025255
 0.2027133 0.2029047 0.2031026 0.2033029 0.2034993 0.203695 0.2039005 0.204119 0.204342 0.2045594
 0.2047657 0.204962 0.2051581 0.2053652 0.2055786 0.2057774 0.2059485 0.2061032 0.2062668 0.2064559
 0.2066675 0.2068864 0.2071023 0.2073152 0.207525 0.2077256 0.2079125 0.2080886 0.2082628 0.2084521
 0.2086746 0.2089274 0.2091849 0.20943 0.2096691 0.2099089 0.2101457 0.2103812 0.2106177 0.2108332
 0.2109948 0.2111102 0.211248 0.2114885 0.2118437 0.212234 0.2125606 0.2127977 0.2129942 0.2132059
 0.2134562 0.2137227 0.2139199 0.2139552 0.2138695 0.2138691 0.2141388 0.2146571 0.2152454 0.2157521
 0.2161416 0.2164483 0.216704 0.2169051 0.2170199 0.2170303 0.2169902 0.2170398 0.2173129 0.2177999
 0.2183408 0.2187867 0.2191142 0.2193639 0.2195611 0.2197231 0.2198245 0.2197315 0.2193415 0.218858
 0.2187475 0.2192876 0.2202509 0.2211468 0.2217097 0.222037 0.2223133 0.2225827 0.2228013 0.2228797
 0.2225762 0.2216337 0.2202793 0.2193641 0.2196593 0.2210795 0.2228281 0.2241954 0.2250015 0.2254174
 0.2256662 0.2258791 0.2259924 0.2257389 0.2249446 0.2239362 0.2234682 0.224027 0.2252858 0.226458
 0.2271079 0.2273901 0.2276217 0.2279175 0.2281129 0.2277422 0.2263036 0.2240016 0.2221184 0.2221162
 0.2242121 0.2271159 0.2293053 0.2303346 0.2307205 0.2308201 0.230303 0.2287448 0.2262671 0.2234862
 0.2213073 0.2207899 0.2224513 0.225398 0.2278349 0.2288374 0.2291331 0.2299071 0.231387 0.2328589
 0.2335861 0.2333741 0.2324467 0.2310489 0.2293342 0.2277271 0.2271346 0.228303 0.2309063 0.2336677
 0.2355314 0.236457 0.2368667 0.2364076 0.2337005 0.2280021 0.2212861 0.2176988 0.2199002 0.2262823
 0.2326942 0.2365222 0.2381278 0.2388994 0.2393831 0.2391282 0.2369603 0.2316327 0.2237969 0.2172285
 0.2162737 0.2215531 0.2292601 0.2347165 0.2355528 0.2319439 0.2257704 0.2200696 0.2178018 0.220057
 0.2255729 0.2319822 0.2372322 0.2401613 0.2405013 0.2387657 0.2362085 0.2345157 0.2345808 0.2351774
 0.2338969 0.2301894 0.2262802 0.2239054 0.221628 0.2174913 0.2133079 0.2134647 0.219225 0.2266195
 0.2309058 0.2313756 0.2305079 0.2294519 0.2260633 0.21799 0.207121 0.1996887 0.2008253 0.2092336
 0.2183421 0.2227437 0.2225005 0.2212186 0.2212341 0.2212232 0.2180603 0.2108975 0.2032444 0.2000244
 0.2023417 0.2065004 0.2083852 0.2067425 0.2017411 0.1936594 0.1852509 0.182599 0.1899916 0.2046823
 0.2190376 0.2268168 0.2254584 0.2147323 0.1976434 0.1822697 0.1778297 0.1864245 0.2004813 0.2097138
 0.2092807 0.2006595 0.1872661 0.1721244 0.1592496 0.1540771 0.1602193 0.1757974 0.1934496 0.2039667
 0.2013871 0.1876662 0.1731278 0.1690403 0.1773311 0.1892215 0.1950376 0.1929847 0.1877884 0.1846363
 0.1861884 0.1920698 0.199265 0.2049606 0.2087857 0.2096229 0.2025951 0.1849302 0.1637084 0.1511897
 0.1520895 0.1611813 0.1731017 0.1871543 0.2009064 0.2068964 0.2010481 0.190394 0.18708 0.1954701
 0.2084144 0.215993 0.215335 0.2111328 0.2084151 0.207201 0.2050058 0.202628 0.2043555 0.2120422
 0.2218674 0.2286051 0.2310633 0.2316015 0.2321287 0.2326539 0.2326494 0.2319319 0.2305784 0.2290485
 0.2280452 0.2277239 0.2275424 0.227073 0.2259839 0.2228139 0.2152852 0.2035137 0.1920456 0.1862524
 0.1866343 0.1892046 0.1914119 0.193622 0.1935949 0.184935 0.1655432 0.1445438 0.1356383 0.1438654
 0.1618538 0.1782263 0.1863095 0.1847056 0.1739031 0.1564841 0.1398233 0.1337699 0.142621 0.1610041
 0.1796144 0.1932192 0.2012454 0.2033498 0.1984526 0.1878982 0.1766985 0.1706616 0.1728673 0.1823303
 0.1943217 0.2015679 0.1978122 0.1840486 0.1712601 0.172302 0.1884075 0.2071183 0.216286 0.2163662
 0.2154628 0.2167342 0.216845 0.2148253 0.2156016 0.2232491 0.2350011 0.2439801 0.2452346 0.2376864
 0.2234869 0.2085147 0.2008409 0.2042196 0.2137537 0.2211664 0.2227798 0.2190213 0.2095467 0.1952895
 0.1836264 0.1839431 0.1967681 0.212544 0.2224884 0.2265926 0.2296413 0.2329687 0.232841 0.226122
 0.2155222 0.207928 0.2075936 0.2124261 0.2175344 0.2203853 0.2208218 0.2181364 0.2115181 0.2033934
 0.1994559 0.2037167 0.2143304 0.2252904 0.2317798 0.2331802 0.23167 0.2293895 0.2270012 0.2238623
 0.219453 0.2152344 0.2143706 0.2183591 0.2246592 0.2293019 0.2314323 0.2336027 0.2377518 0.2425323
 0.2449556 0.2436618 0.2402138 0.2377291 0.2383767 0.2416614 0.244794 0.2450638 0.2424133 0.2397389
 0.2402266 0.2443094 0.2496028 0.2536228 0.255815 0.2570333 0.2580745 0.2589799 0.2590069 0.2571936
 0.2537231 0.2507097 0.2506965 0.254132 0.2589461 0.2626914 0.2645192 0.2650253 0.2648959 0.2641963
 0.2627771 0.260925 0.2593758 0.2587303 0.2590216 0.2598676 0.260864 0.2617572 0.2624239 0.2628591
 0.2631403 0.2633319 0.2634543 0.2635386 0.2636173 0.2636494 0.2635612 0.2634041 0.2633707 0.263584
 0.2639379 0.2642103 0.264264 0.2640534 0.263509 0.2625607 0.2612724 0.2598209 0.2582961 0.2566392
 0.2548908 0.2534567 0.2529824 0.2538656 0.2558874 0.2583492 0.2605538 0.2621548 0.2631478 0.2636768
 0.2639031 0.2639658 0.2639571 0.2639036 0.2637849 0.2635791 0.2632887 0.2629362 0.2625505 0.262163
 0.2618058 0.2614972 0.2612223 0.2609362 0.2605914 0.2601655 0.2596695 0.2591389 0.2586042 0.2580557
 0.2574394 0.256696 0.2558099 0.2548284 0.2538441 0.2529452 0.2521568 0.2514244 0.2506692 0.249849
 0.2489478 0.247939 0.2468129 0.2456462 0.244587 0.243735 0.2430576 0.2424365 0.2417676 0.241001
 0.2401247 0.239155 0.2381296 0.2370767 0.2359949 0.2348691 0.2336901 0.232445 0.2311127 0.2296817
 0.2281604 0.2265678 0.2249315 0.223282 0.2216185 0.2198708 0.2179114 0.2156042 0.2128367 0.2095241
 0.2056235 0.2011747 0.1963321 0.1913365 0.1864289 0.1817765 0.1774754 0.1736012 0.1702358 0.1674585
 0.1653332 0.1639058 0.1632004 0.1632171 0.163931 0.1652914 0.1672238 0.1696337 0.1724012 0.1753719
 0.1783667 0.1812177 0.1838198 0.1861702 0.1883499 0.1904336 0.1924148 0.1942338 0.1958585 0.1972983
 0.1985548 0.1996074 0.2004547 0.2011388 0.2017181 0.2022262 0.2026647 0.203028 0.2033274 0.2035882
 0.2038265 0.2040398 0.2042207 0.2043771 0.2045385 0.2047392 0.2049969 0.2053144 0.2057005 0.2061679
 0.2067046 0.2072729 0.2078479 0.2084348 0.2090444 0.2096814 0.2103684 0.2111575 0.2121028 0.2132247
 0.2144987 0.2158651 0.2172483 0.2185743 0.2197749 0.2207872 0.2215614 0.2220762 0.2223469 0.2224202
 0.2223517 0.2221788 0.2219141 0.2215601 0.2211208 0.2206013 0.2200118 0.2193737 0.2187084 0.2180198
 0.2173038 0.2165746 0.215865 0.2151924 0.2145402 0.2138842 0.2132279 0.2125968 0.2120031 0.2114338
 0.2108729 0.2103176 0.2097687 0.209218 0.2086475 0.2080331 0.2073492 0.2065809 0.2057348 0.2048254
 0.2038487 0.2027794 0.2015975 0.2003086 0.1989361 0.1974968 0.1959902 0.1944071 0.1927456 0.1910129
 0.1892057 0.1873016 0.1852922 0.1832291 0.1812159 0.1793451 0.1776469 0.1760932 0.1746345 0.1732376
 0.1718995 0.1706296 0.1694212 0.1682531 0.1671154 0.1660191 0.1649812 0.1640131 0.1631216 0.1623156
 0.1616059 0.1609944 0.1604656 0.1599996 0.1595917 0.1592485 0.1589776 0.1587968 0.1587318 0.1587767
 0.1588681 0.1589205 0.1588831 0.1587624 0.1586093 0.1584812 0.1584035 0.1583645 0.1583378 0.1582858
 0.1581472 0.1578438 0.1572969 0.1564346 0.1552177 0.1536787 0.1519172 0.1500558 0.1482164 0.1465144
 0.1450407 0.1438487 0.142954 0.1423193 0.1418502 0.1414528 0.1411062 0.1408734 0.140843 0.1410351
 0.1413374 0.1415655 0.1416332 0.1416366 0.1417554 0.1421097 0.1427086 0.143465 0.1442447 0.1449423
 0.145511 0.1459268 0.1461792 0.1463051 0.1463594 0.1463503 0.1462501 0.1460521 0.1457734 0.1454319
 0.1450423 0.1446081 0.1441162 0.1435592 0.1429339 0.142218 0.1413967 0.1404895 0.1394929 0.1383623
 0.1371362 0.1360226 0.1352918 0.1351173 0.1355086 0.1363184 0.1373304 0.1383985 0.1394332 0.1402376
 0.1405671 0.1405106 0.140668 0.14172 0.1437839 0.1462804 0.1484461 0.1498845 0.1505989 0.1506886
 0.1502123 0.1492387 0.1477995 0.1458427 0.1433714 0.1405298 0.1374768 0.1343348 0.1312908 0.1285585
 0.1262485 0.1243863 0.1229688 0.1220233 0.121664 0.1215021 0.1196214 0.1135876 0.104226 0.09727015
 0.09851496 0.1072887 0.1169463 0.1218826 0.1219799 0.1202599 0.1187906 0.1178585 0.117331 0.1173519
 0.1180654 0.1193325 0.1207613 0.1219504 0.1227297 0.1231236 0.1230808 0.122248 0.1199016 0.1151896
 0.1078174 0.09865234 0.08943489 0.08176473 0.0763749 0.07315122 0.07149316 0.07066865 0.0701621 0.06990947
 0.07019601 0.07129675 0.07323906 0.07588142 0.07906252 0.08253965 0.08588596 0.08868033 0.09082759 0.09253766
 0.09397403 0.09506048 0.09564073 0.09569077 0.09533337 0.09473292 0.09401965 0.0932522 0.09238651 0.09131449
 0.09003285 0.08878036 0.0878963 0.08750521 0.08743189 0.08743647 0.08741933 0.08739068 0.08736584 0.08733171
 0.0872682 0.087208 0.08727568 0.08759058 0.08810913 0.08863152 0.0889797 0.08913176 0.08918353 0.08917722
 0.08896962 0.08837543 0.08749982 0.08673495 0.08625463 0.08570789 0.08467719 0.08331774 0.08226644 0.08195543
 0.08222927 0.08261503 0.08276563 0.08262136 0.08235241 0.08226564 0.0826108 0.08328928 0.08382712 0.08380961
</values></Ydata></ScRf><Data_Parameters_AB><parameter name="DPF">1</parameter><parameter name="NPT">3497</parameter><parameter name="FXV">3996</parameter><parameter name="LXV">500</parameter><parameter name="CSF">1</parameter><parameter name="MXY">0.0538169369101524</parameter><parameter name="MNY">-0.112275540828705</parameter><parameter name="DAT">31/05/2022</parameter><parameter name="TIM">14:13:51.532 (GMT+2)</parameter><parameter name="DXU">WN</parameter></Data_Parameters_AB><AB__Qtest><MainReport name="Quality Test Report"><Header><Line><Legend>Test result ok/not ok [1/0]: </Legend><Value>0</Value></Line><Line><Legend>Method file: </Legend><Value>C:\Users\Public\Documents\Bruker\OPUS_8.2.28\QT\IRBT_v3_default.QT</Value></Line></Header><Matrix><Line><Legend></Legend><Legend>min</Legend><Legend>max</Legend><Legend>measured</Legend></Line><Line><Value>Absorption (X-Range 1):</Value><Value>0.400000</Value><Value>2.000000</Value><Value>0.094785</Value></Line><Line><Value>Noise (X-Range 4):</Value><Value></Value><Value>0.000300</Value><Value>0.000042</Value></Line><Line><Value>Signal/Noise (X-Range 2):</Value><Value>200.000000</Value><Value></Value><Value>25.666753</Value></Line><Line><Value>Signal/Noise (X-Range 3):</Value><Value>40.000000</Value><Value></Value><Value>14.785704</Value></Line><Line><Value>Water vapour (X-Range 5):</Value><Value></Value><Value>0.000300</Value><Value>0.000046</Value></Line><Line><Value>Signal/Water (X-Range 2):</Value><Value>100.000000</Value><Value></Value><Value>23.400389</Value></Line><Line><Value>Signal/Water (X-Range 3):</Value><Value>20.000000</Value><Value></Value><Value>13.480132</Value></Line><Line><Value>Fringes (X-Range 6):</Value><Value></Value><Value>0.000100</Value><Value>0.000057</Value></Line></Matrix></MainReport></AB__Qtest><Data_Parameters_ScSm><parameter name="DPF">1</parameter><parameter name="NPT">1814</parameter><parameter name="FXV">3996.33169228125</parameter><parameter name="LXV">499.541461535156</parameter><parameter name="CSF">1</parameter><parameter name="MXY">0.280539721250534</parameter><parameter name="MNY">0.0357238128781319</parameter><parameter name="DAT">31/05/2022</parameter><parameter name="TIM">14:13:51.532 (GMT+2)</parameter><parameter name="DXU">WN</parameter></Data_Parameters_ScSm><Data_Parameters_ScRf><parameter name="DPF">1</parameter><parameter name="NPT">1820</parameter><parameter name="FXV">4004.04661832813</parameter><parameter name="LXV">495.683998511719</parameter><parameter name="CSF">1</parameter><parameter name="MXY">0.26502525806427</parameter><parameter name="MNY">0.0291523598134518</parameter><parameter name="DAT">31/05/2022</parameter><parameter name="TIM">14:13:24.448 (GMT+2)</parameter><parameter name="DXU">WN</parameter></Data_Parameters_ScRf><Optic_Parameters_Rf><parameter name="APR">0</parameter><parameter name="APT">Open</parameter><parameter name="BMS">KBr</parameter><parameter name="DTC">RT-DLaTGS_IR-Biotyper [Microplate reader]</parameter><parameter name="HPF">0</parameter><parameter name="LPF">10.0</parameter><parameter name="LPV">4000</parameter><parameter name="PGR">0</parameter><parameter name="RCH">Module port</parameter><parameter name="RDX">0</parameter><parameter name="SRC">MIR</parameter><parameter name="VEL">10.0</parameter><parameter name="SON">Off</parameter></Optic_Parameters_Rf><Acquisition_Parameters_Rf><parameter name="ADT">1</parameter><parameter name="AQM">DD</parameter><parameter name="CFE">0</parameter><parameter name="COR">0</parameter><parameter name="DEL">0</parameter><parameter name="DLY">0</parameter><parameter name="HFW">8000</parameter><parameter name="LFW">0</parameter><parameter name="NSR">32</parameter><parameter name="PLF">AB</parameter><parameter name="RES">6</parameter><parameter name="RGN">-1</parameter><parameter name="STR">0</parameter><parameter name="TCL">MakeCompatibleScalar (0, {WSV=1.000000, ARV=0});</parameter><parameter name="TDL">37</parameter><parameter name="RPO">0</parameter></Acquisition_Parameters_Rf><FT_-_Parameters_Rf><parameter name="APF">B3</parameter><parameter name="HFQ">500</parameter><parameter name="LFQ">4000</parameter><parameter name="NLI">0</parameter><parameter name="PHR">24</parameter><parameter name="PHZ">ML</parameter><parameter name="SPZ">NO</parameter><parameter name="ZFF">1</parameter></FT_-_Parameters_Rf><Optic_Parameters_><parameter name="APR">0</parameter><parameter name="APT">Open</parameter><parameter name="BMS">KBr</parameter><parameter name="CHN">Module port</parameter><parameter name="DTC">RT-DLaTGS_IR-Biotyper [Microplate reader]</parameter><parameter name="HPF">0</parameter><parameter name="LPF">10.0</parameter><parameter name="LPV">4000</parameter><parameter name="PGN">0</parameter><parameter name="RDX">0</parameter><parameter name="SRC">MIR</parameter><parameter name="VEL">10.0</parameter><parameter name="SON">Off</parameter></Optic_Parameters_><FT_-_Parameters_><parameter name="APF">B3</parameter><parameter name="HFQ">500</parameter><parameter name="LFQ">4000</parameter><parameter name="NLI">0</parameter><parameter name="PHR">24</parameter><parameter name="PHZ">ML</parameter><parameter name="SPZ">NO</parameter><parameter name="ZFF">1</parameter></FT_-_Parameters_><Acquisition_Parameters_><parameter name="ADT">1</parameter><parameter name="AQM">DD</parameter><parameter name="CFE">0</parameter><parameter name="COR">0</parameter><parameter name="DEL">0</parameter><parameter name="DLY">0</parameter><parameter name="HFW">8000</parameter><parameter name="LFW">0</parameter><parameter name="NSS">32</parameter><parameter name="PLF">AB</parameter><parameter name="RES">6</parameter><parameter name="SOT">0</parameter><parameter name="TCL">MakeCompatibleScalar (0, {WSV=1.000000, ARV=0});</parameter><parameter name="TDL">37</parameter><parameter name="SPO">0</parameter><parameter name="SGN">-1</parameter></Acquisition_Parameters_><Instrument_Parameters_Rf><parameter name="HFL">15800.168544</parameter><parameter name="LFL">0</parameter><parameter name="LWN">15800.168544</parameter><parameter name="ABP">32197</parameter><parameter name="SSP">1</parameter><parameter name="ARG">2</parameter><parameter name="ASG">2</parameter><parameter name="ASS">32</parameter><parameter name="GFW">16</parameter><parameter name="GBW">16</parameter><parameter name="BFW">0</parameter><parameter name="BBW">0</parameter><parameter name="PKA">7264</parameter><parameter name="PKL">4996</parameter><parameter name="PRA">7449</parameter><parameter name="PRL">5001</parameter><parameter name="P2A">1</parameter><parameter name="P2L">1</parameter><parameter name="P2R">1</parameter><parameter name="P2K">1</parameter><parameter name="DAQ">0</parameter><parameter name="AG2">1</parameter><parameter name="SSM">1</parameter><parameter name="RSN">25767</parameter><parameter name="CRR">0</parameter><parameter name="SRT">1654006404.449</parameter><parameter name="DUR">19.6389923095703</parameter><parameter name="TSC">29.1</parameter><parameter name="MVD">0.23267225921154</parameter><parameter name="AN1">0.225810293507839</parameter><parameter name="AN2">0</parameter><parameter name="VSN">2.485 Apr  4 2017</parameter><parameter name="SRN">0085</parameter><parameter name="CAM">0</parameter><parameter name="INS">IR-Biotyper</parameter><parameter name="FOC">69</parameter><parameter name="RDY">1</parameter><parameter name="ARS">32</parameter></Instrument_Parameters_Rf><Sample_Parameters_><parameter name="BLD"></parameter><parameter name="CNM">Admin</parameter><parameter name="CPY"></parameter><parameter name="DPM"></parameter><parameter name="EXP">IRBT_v3_32Scans.XPM</parameter><parameter name="LCT"></parameter><parameter name="SFM">Microplate, HTS-XT</parameter><parameter name="SNM">220531-1301_RTF49M (D_3)_G8_5bdce3d7-c9e1-44c0-b940-dfb288d65a91.0</parameter><parameter name="XPP">C:\Users\Public\Documents\Bruker\OPUS_8.2.28\XPM</parameter><parameter name="IST">OK</parameter><parameter name="CPG">1252</parameter><parameter name="UID">2910473f-7d59-4b6b-9db1-7d3bdb8be178</parameter></Sample_Parameters_><Instrument_Parameters_><parameter name="HFL">15800.168544</parameter><parameter name="LFL">0</parameter><parameter name="LWN">15800.168544</parameter><parameter name="ABP">32197</parameter><parameter name="SSP">1</parameter><parameter name="ASG">2</parameter><parameter name="ARG">2</parameter><parameter name="ASS">32</parameter><parameter name="GFW">16</parameter><parameter name="GBW">16</parameter><parameter name="BFW">0</parameter><parameter name="BBW">0</parameter><parameter name="PKA">8175</parameter><parameter name="PKL">4988</parameter><parameter name="PRA">8492</parameter><parameter name="PRL">4993</parameter><parameter name="P2A">1</parameter><parameter name="P2L">1</parameter><parameter name="P2R">1</parameter><parameter name="P2K">1</parameter><parameter name="DAQ">0</parameter><parameter name="AG2">1</parameter><parameter name="SSM">1</parameter><parameter name="RSN">13509</parameter><parameter name="CRR">0</parameter><parameter name="SRT">1654006431.533</parameter><parameter name="DUR">19.6389923095703</parameter><parameter name="TSC">29.1</parameter><parameter name="MVD">0.341360181570053</parameter><parameter name="AN1">0.225833201509442</parameter><parameter name="AN2">0</parameter><parameter name="VSN">2.485 Apr  4 2017</parameter><parameter name="SRN">0085</parameter><parameter name="CAM">0</parameter><parameter name="INS">IR-Biotyper</parameter><parameter name="FOC">69</parameter><parameter name="RDY">1</parameter></Instrument_Parameters_><History/></OPUSDataFile>
