<?xml version="1.0" encoding="UTF-8" ?>
<OPUSDataFile><AB><Ydata ylabel="Absorbance Units"><values byteorder="INTEL" format="FLOAT32" numvalues="3497"> -0.1047031 -0.104676 -0.1046593 -0.1046531 -0.104657 -0.104671 -0.1046794 -0.1046819 -0.1046716 -0.1046508
 -0.1046288 -0.1046059 -0.104589 -0.1045737 -0.1045527 -0.1045245 -0.1044809 -0.10443 -0.1043768 -0.1043304
 -0.1043018 -0.1042881 -0.1042928 -0.1043049 -0.1043207 -0.104335 -0.1043454 -0.1043523 -0.1043555 -0.1043533
 -0.1043452 -0.1043297 -0.1043066 -0.1042845 -0.1042642 -0.1042608 -0.104274 -0.1043098 -0.1043646 -0.104429
 -0.1044985 -0.104557 -0.1046032 -0.1046268 -0.1046315 -0.1046169 -0.1045898 -0.1045559 -0.1045182 -0.1044813
 -0.1044396 -0.1043928 -0.1043325 -0.1042549 -0.1041638 -0.104057 -0.1039561 -0.1038624 -0.1038002 -0.1037712
 -0.1037828 -0.1038336 -0.1039078 -0.1040021 -0.1040891 -0.1041675 -0.1042173 -0.1042414 -0.1042349 -0.1042048
 -0.1041583 -0.1041062 -0.1040638 -0.1040378 -0.1040423 -0.1040664 -0.1041123 -0.1041543 -0.1041831 -0.1041838
 -0.1041473 -0.1040884 -0.1040057 -0.1039312 -0.1038674 -0.1038412 -0.1038541 -0.1039166 -0.1040273 -0.1041715
 -0.104343 -0.1044972 -0.1046278 -0.1046826 -0.1046711 -0.1045844 -0.1044471 -0.1042968 -0.1041476 -0.1040338
 -0.1039498 -0.103905 -0.1038815 -0.1038732 -0.1038623 -0.1038387 -0.1038029 -0.1037505 -0.1037004 -0.103655
 -0.1036294 -0.1036266 -0.1036398 -0.103669 -0.1036934 -0.1037126 -0.1037176 -0.1037108 -0.1037031 -0.103697
 -0.1037086 -0.103736 -0.1037841 -0.103845 -0.1039085 -0.1039665 -0.1040041 -0.1040223 -0.1040162 -0.1039918
 -0.1039509 -0.1038985 -0.1038345 -0.1037714 -0.1037094 -0.1036735 -0.1036669 -0.1037143 -0.1038207 -0.1039762
 -0.1041813 -0.1043379 -0.1044406 -0.1043799 -0.1041731 -0.103878 -0.1035159 -0.1032027 -0.1029352 -0.1027644
 -0.1026764 -0.102675 -0.1027361 -0.1028378 -0.1029484 -0.1030342 -0.10308 -0.1030617 -0.1029999 -0.102894
 -0.1027768 -0.1026582 -0.1025519 -0.1024623 -0.1023897 -0.1023343 -0.1023012 -0.1022908 -0.1023115 -0.1023631
 -0.1024448 -0.1025538 -0.1026731 -0.1027976 -0.1028986 -0.1029724 -0.1029934 -0.1029658 -0.102882 -0.1027573
 -0.1026035 -0.102443 -0.1022968 -0.1021829 -0.1021188 -0.1021073 -0.1021577 -0.1022487 -0.1023807 -0.102514
 -0.1026423 -0.1027364 -0.1027912 -0.1028061 -0.1027806 -0.1027229 -0.1026332 -0.1025123 -0.102361 -0.102183
 -0.1019826 -0.101777 -0.1015728 -0.1013951 -0.101247 -0.1011478 -0.1010903 -0.1010775 -0.101091 -0.101118
 -0.1011402 -0.1011415 -0.1011194 -0.1010662 -0.1009969 -0.1009125 -0.1008334 -0.1007628 -0.100716 -0.1006952
 -0.100705 -0.1007461 -0.1008079 -0.1008891 -0.1009649 -0.1010339 -0.1010727 -0.1010852 -0.1010724 -0.1010408
 -0.1010094 -0.100978 -0.1009564 -0.1009382 -0.100918 -0.1008937 -0.1008573 -0.1008226 -0.1007918 -0.1007885
 -0.1008241 -0.1009082 -0.1010517 -0.1012255 -0.1014312 -0.1016094 -0.1017535 -0.1018255 -0.1018222 -0.1017388
 -0.1015766 -0.1013527 -0.1010735 -0.1007904 -0.1005112 -0.1002958 -0.1001421 -0.1000805 -0.1000921 -0.1001643
 -0.1002619 -0.1003316 -0.1003638 -0.1003204 -0.1002411 -0.1001383 -0.1000444 -0.09998139 -0.0999394 -0.09992414
 -0.09990039 -0.09986168 -0.09979016 -0.09968045 -0.09955636 -0.09941879 -0.09930394 -0.09921274 -0.09916139 -0.09914856
 -0.09917458 -0.09923539 -0.09931935 -0.09941434 -0.09948325 -0.09951621 -0.09947114 -0.09936451 -0.09919605 -0.09899405
 -0.09878402 -0.09858123 -0.09840443 -0.09825 -0.09812251 -0.0980083 -0.09790328 -0.09780379 -0.09770709 -0.09762314
 -0.0975533 -0.09749979 -0.09746329 -0.09742288 -0.0973772 -0.0972988 -0.09719051 -0.09705831 -0.09690913 -0.09677632
 -0.09666038 -0.09658031 -0.09653168 -0.09651622 -0.09652679 -0.09655865 -0.09659564 -0.09662431 -0.09662653 -0.09658265
 -0.09650154 -0.09637839 -0.0962403 -0.09609823 -0.09594761 -0.09579226 -0.09560348 -0.09537707 -0.09510828 -0.09479591
 -0.09446461 -0.09411608 -0.09378194 -0.09346392 -0.0931904 -0.09296023 -0.0927865 -0.09266138 -0.09257107 -0.092508
 -0.09244882 -0.09239815 -0.09235284 -0.09231757 -0.09230451 -0.09228667 -0.09225709 -0.09217305 -0.09200595 -0.09176933
 -0.09145455 -0.09111433 -0.09075742 -0.09041845 -0.09010325 -0.08982271 -0.08957817 -0.08936526 -0.08918359 -0.08902522
 -0.08889026 -0.08877788 -0.08868534 -0.08860574 -0.08852582 -0.08840568 -0.08823601 -0.08796937 -0.08763479 -0.08724593
 -0.08684252 -0.08647038 -0.08613613 -0.08586125 -0.08562686 -0.08543254 -0.08525125 -0.08507428 -0.08488864 -0.08468815
 -0.08448384 -0.0842763 -0.08407599 -0.08388426 -0.08368654 -0.08348152 -0.08324017 -0.08296346 -0.08264362 -0.08228689
 -0.08191533 -0.08153471 -0.08117215 -0.08082952 -0.08052383 -0.08025193 -0.08001889 -0.07981438 -0.07963215 -0.07946015
 -0.07928886 -0.07911232 -0.07892709 -0.07872538 -0.07850643 -0.07825386 -0.07796291 -0.07763211 -0.07725728 -0.07687716
 -0.07649379 -0.07614995 -0.07584628 -0.07558455 -0.07536144 -0.07515158 -0.07495338 -0.07474573 -0.07453144 -0.07430626
 -0.07407659 -0.07385255 -0.07363892 -0.07344903 -0.07327632 -0.07312511 -0.07297027 -0.07279971 -0.07258686 -0.07231089
 -0.07198431 -0.07160043 -0.07120492 -0.07080583 -0.07043329 -0.07009376 -0.0697846 -0.06950656 -0.06924108 -0.06898735
 -0.068731 -0.06847209 -0.06820516 -0.06793002 -0.06764252 -0.06734299 -0.06702822 -0.06670345 -0.06637574 -0.06605354
 -0.06575306 -0.06547371 -0.06522401 -0.06499057 -0.06476764 -0.06454398 -0.0643108 -0.06407252 -0.06382735 -0.06358749
 -0.06335615 -0.06313454 -0.06292446 -0.06271195 -0.06249619 -0.06226396 -0.06201518 -0.06175385 -0.06148176 -0.06121566
 -0.06095617 -0.0607159 -0.06049199 -0.06028384 -0.0600861 -0.05988851 -0.0596865 -0.05946821 -0.0592357 -0.05898396
 -0.05872476 -0.05846369 -0.05821137 -0.05797664 -0.05775372 -0.05754473 -0.05733281 -0.05711407 -0.05688266 -0.05663631
 -0.05638401 -0.05612626 -0.05586978 -0.05561465 -0.05535813 -0.05510032 -0.0548402 -0.05457963 -0.05432642 -0.0540826
 -0.05385896 -0.05365434 -0.05347306 -0.05330924 -0.05315754 -0.05301047 -0.05285854 -0.05269884 -0.05252598 -0.05234198
 -0.05214668 -0.05194126 -0.05172573 -0.05150231 -0.05126999 -0.05104015 -0.05081362 -0.05060444 -0.05041425 -0.05023982
 -0.05008036 -0.04991127 -0.04973152 -0.04951967 -0.04927991 -0.0490186 -0.04874379 -0.04848305 -0.04823963 -0.04803536
 -0.04786394 -0.04772676 -0.04761443 -0.04751796 -0.04743241 -0.04735261 -0.04727397 -0.04719524 -0.04710557 -0.04700153
 -0.04687509 -0.04672224 -0.04655034 -0.04635875 -0.04616461 -0.04596916 -0.04578467 -0.04561152 -0.04545199 -0.04530513
 -0.04516455 -0.04502788 -0.04488062 -0.04472146 -0.04453693 -0.04433181 -0.04410716 -0.04387319 -0.043645 -0.04342867
 -0.04323762 -0.04306737 -0.04292019 -0.04278644 -0.04266129 -0.04254205 -0.04242545 -0.04231831 -0.04222169 -0.04214027
 -0.04207617 -0.04201915 -0.04196913 -0.04190456 -0.04182454 -0.04171574 -0.04157964 -0.04142372 -0.04125117 -0.04108131
 -0.04091543 -0.04076806 -0.04063726 -0.04052694 -0.04043222 -0.04034958 -0.04027019 -0.04018533 -0.04008536 -0.03995894
 -0.03980874 -0.03962806 -0.03944211 -0.0392549 -0.03909775 -0.03898044 -0.0389065 -0.0388808 -0.03887159 -0.03887701
 -0.03886696 -0.03884062 -0.03880246 -0.03875456 -0.03871973 -0.03869637 -0.03869 -0.03869446 -0.03869328 -0.03868302
 -0.03864706 -0.03858902 -0.03850577 -0.03840522 -0.03829398 -0.03817817 -0.03806585 -0.03795331 -0.03784323 -0.0377215
 -0.0375833 -0.03742256 -0.03723311 -0.037038 -0.03683699 -0.03667269 -0.03654881 -0.03648944 -0.03649503 -0.0365481
 -0.03664525 -0.03674637 -0.03685048 -0.03693095 -0.03699117 -0.03702884 -0.03704486 -0.03704143 -0.03701456 -0.03695719
 -0.0368727 -0.03675627 -0.03662951 -0.03650329 -0.03640224 -0.0363448 -0.03632864 -0.03636279 -0.03641212 -0.03647245
 -0.03650587 -0.03650464 -0.03646306 -0.03637853 -0.03628085 -0.03617167 -0.03608963 -0.0360347 -0.03602345 -0.03605045
 -0.03609876 -0.03616068 -0.03620236 -0.0362221 -0.03619681 -0.0361364 -0.03604259 -0.0359332 -0.03582602 -0.0357363
 -0.03568197 -0.03566433 -0.03569268 -0.03574783 -0.03582944 -0.03590342 -0.03596332 -0.03597999 -0.03594713 -0.03585983
 -0.0357161 -0.03553563 -0.03531956 -0.03509603 -0.03486656 -0.03465591 -0.03446578 -0.03431804 -0.03421349 -0.03416866
 -0.03417761 -0.03423954 -0.0343385 -0.03445257 -0.03456423 -0.03464519 -0.0346929 -0.034692 -0.03466215 -0.03460509
 -0.03455235 -0.03451424 -0.03451364 -0.03455967 -0.03465087 -0.03479063 -0.03495352 -0.03513826 -0.035315 -0.03548236
 -0.03562719 -0.03575055 -0.03585896 -0.03595374 -0.03604588 -0.0361339 -0.03621938 -0.03629886 -0.03636413 -0.03641665
 -0.03645074 -0.03648124 -0.03651767 -0.03658362 -0.03670091 -0.03687724 -0.03712928 -0.03742868 -0.03777485 -0.0381193
 -0.03845052 -0.03873988 -0.0389791 -0.03917644 -0.03933092 -0.03946896 -0.03959186 -0.03972078 -0.0398556 -0.0400033
 -0.04016143 -0.04032125 -0.04047979 -0.04062085 -0.04074771 -0.04085677 -0.04095944 -0.04107196 -0.04120112 -0.04136471
 -0.04155077 -0.04176029 -0.04196811 -0.04216191 -0.04232518 -0.04244665 -0.04253247 -0.04257889 -0.04261191 -0.04263328
 -0.04267516 -0.04274069 -0.04284864 -0.04299985 -0.0431864 -0.04340611 -0.04363226 -0.04386311 -0.04407479 -0.04426899
 -0.04443797 -0.04458569 -0.0447169 -0.04483497 -0.04494722 -0.0450551 -0.04516265 -0.04527086 -0.04538104 -0.04549572
 -0.04561678 -0.04574478 -0.04588164 -0.04602084 -0.0461617 -0.04629621 -0.04642224 -0.04654212 -0.04665553 -0.04677143
 -0.04689022 -0.04701146 -0.04713447 -0.04725009 -0.04735964 -0.04746471 -0.04756936 -0.0476893 -0.04782463 -0.04798566
 -0.04816473 -0.04835483 -0.04854853 -0.04873359 -0.04891068 -0.04907568 -0.04923347 -0.04938633 -0.04953464 -0.0496796
 -0.04981805 -0.04994892 -0.05007312 -0.05019016 -0.05030523 -0.05041885 -0.05053319 -0.05064835 -0.05076094 -0.05087085
 -0.05097554 -0.05107607 -0.0511766 -0.05127908 -0.05139255 -0.05151738 -0.05166006 -0.05181688 -0.05198614 -0.05216106
 -0.05233351 -0.05249936 -0.05265199 -0.05279295 -0.05292157 -0.05303889 -0.05314607 -0.05323922 -0.05331663 -0.05338086
 -0.05342981 -0.05348486 -0.05354708 -0.05364392 -0.05377683 -0.05395081 -0.05416343 -0.0543875 -0.05461878 -0.05481805
 -0.05498591 -0.05510061 -0.05517207 -0.0552096 -0.05522867 -0.05525885 -0.05530748 -0.05539825 -0.05551926 -0.05567238
 -0.05583473 -0.05599345 -0.05613881 -0.0562615 -0.05637231 -0.05647219 -0.05657092 -0.05667229 -0.05676483 -0.05684871
 -0.0569005 -0.05691897 -0.05689586 -0.05683317 -0.05675285 -0.05665975 -0.05659373 -0.05655637 -0.05657712 -0.05664811
 -0.05676826 -0.05692331 -0.05708897 -0.05725814 -0.05741062 -0.05755369 -0.05768633 -0.05781667 -0.05795238 -0.05808458
 -0.05821363 -0.05832294 -0.05840622 -0.058466 -0.05849962 -0.05852933 -0.05855735 -0.0585951 -0.05864333 -0.05868717
 -0.05872561 -0.05874013 -0.05873289 -0.05870658 -0.05866555 -0.05862751 -0.05859319 -0.05857404 -0.05856647 -0.05856932
 -0.05858049 -0.05859515 -0.05861859 -0.058651 -0.05870494 -0.05878688 -0.05890628 -0.05907132 -0.05927191 -0.05951158
 -0.05975535 -0.06000004 -0.0602054 -0.06036617 -0.06047024 -0.06051659 -0.06053448 -0.06052674 -0.06053958 -0.06057283
 -0.06065132 -0.06076769 -0.06091005 -0.06106905 -0.0612154 -0.06134688 -0.06144437 -0.06151607 -0.06156199 -0.06159603
 -0.06162875 -0.06167087 -0.06173301 -0.06181277 -0.06191501 -0.06202038 -0.06212634 -0.06221036 -0.06226647 -0.06229565
 -0.06229543 -0.06229792 -0.06230482 -0.06234822 -0.06242731 -0.06253784 -0.062675 -0.06280524 -0.06292877 -0.06302571
 -0.06310582 -0.06318349 -0.06326519 -0.06337269 -0.06349572 -0.06363333 -0.06376814 -0.06388353 -0.0639764 -0.06403754
 -0.06407969 -0.06410608 -0.06412479 -0.06414039 -0.06414597 -0.06414125 -0.0641183 -0.0640753 -0.06402066 -0.06395467
 -0.06390185 -0.06386346 -0.06386307 -0.06389921 -0.06397647 -0.06408919 -0.06421992 -0.06436224 -0.06449164 -0.06460536
 -0.06468751 -0.06473891 -0.06475431 -0.06473565 -0.06468196 -0.06459801 -0.06448431 -0.06435133 -0.0642016 -0.06404898
 -0.06389703 -0.06375666 -0.06363087 -0.06352107 -0.06342878 -0.06333993 -0.06325391 -0.06314325 -0.06300686 -0.06282224
 -0.06259204 -0.06231998 -0.06201281 -0.06169791 -0.06137918 -0.06108159 -0.06080149 -0.06054438 -0.06030434 -0.06007527
 -0.05985664 -0.05964528 -0.05944428 -0.05925555 -0.05907772 -0.05891151 -0.05875183 -0.0585966 -0.05844723 -0.05830255
 -0.0581728 -0.05805891 -0.05796878 -0.05790303 -0.05785769 -0.05783221 -0.05781697 -0.0578124 -0.05781618 -0.05783
 -0.05786035 -0.05790546 -0.0579668 -0.05803562 -0.05809855 -0.0581463 -0.05815959 -0.05814226 -0.0580872 -0.05801284
 -0.05792759 -0.05784519 -0.05777629 -0.05771274 -0.05765644 -0.05758795 -0.05750338 -0.05739552 -0.05726203 -0.05711467
 -0.05695387 -0.05680194 -0.05666022 -0.05655273 -0.05647983 -0.05645788 -0.05648268 -0.05654948 -0.05664848 -0.05675299
 -0.05685522 -0.05692634 -0.05697196 -0.05698164 -0.05698043 -0.05697966 -0.05701841 -0.0571203 -0.05731683 -0.05763065
 -0.0580564 -0.05860429 -0.05922496 -0.0599152 -0.06061104 -0.06130547 -0.06195439 -0.06255449 -0.06308929 -0.06355881
 -0.06396285 -0.06430294 -0.06458795 -0.06482104 -0.06501836 -0.06518385 -0.0653355 -0.06547592 -0.06561841 -0.06576192
 -0.06591178 -0.06606186 -0.06620998 -0.06634726 -0.06646767 -0.06656679 -0.06664038 -0.06669147 -0.06671933 -0.06673098
 -0.06672729 -0.06671521 -0.06669582 -0.06667112 -0.06664146 -0.0665993 -0.06654424 -0.06646722 -0.06637048 -0.0662635
 -0.06615247 -0.06606761 -0.06601191 -0.06601126 -0.06605846 -0.06615482 -0.06628685 -0.066439 -0.06660017 -0.06675548
 -0.0668999 -0.06702555 -0.0671343 -0.06722427 -0.06730188 -0.06736924 -0.06742719 -0.06747758 -0.06750985 -0.06752279
 -0.06751032 -0.0674714 -0.067431 -0.06739207 -0.06741002 -0.06748711 -0.06767005 -0.06795041 -0.06832415 -0.06877135
 -0.06923879 -0.06971036 -0.07012837 -0.07049827 -0.07079905 -0.07105473 -0.07127921 -0.0714905 -0.07170713 -0.07192399
 -0.07214575 -0.07235464 -0.07254586 -0.07271087 -0.07284587 -0.07295771 -0.07304624 -0.07312349 -0.07319027 -0.07325295
 -0.07331158 -0.07336624 -0.07341698 -0.07346405 -0.07350808 -0.0735523 -0.0735961 -0.07364032 -0.07368226 -0.07371704
 -0.07374383 -0.07375794 -0.07376453 -0.0737656 -0.07376845 -0.07377911 -0.07379808 -0.07382872 -0.07386255 -0.07389843
 -0.0739267 -0.07394478 -0.07395088 -0.0739438 -0.07393143 -0.07391414 -0.07390223 -0.07389584 -0.07389737 -0.07390557
 -0.07391209 -0.07391651 -0.07391112 -0.07389957 -0.07388693 -0.07387858 -0.07388841 -0.07391522 -0.07396588 -0.07402967
 -0.07410049 -0.07416666 -0.07421824 -0.0742525 -0.07426488 -0.07426035 -0.0742387 -0.07420791 -0.07416848 -0.07413225
 -0.07410017 -0.07408585 -0.07409044 -0.07411692 -0.07416467 -0.07421963 -0.07428035 -0.07432895 -0.07436623 -0.07438552
 -0.07438945 -0.07438175 -0.07436439 -0.07434262 -0.07431757 -0.07429259 -0.07426871 -0.07424856 -0.07423065 -0.07421581
 -0.07419889 -0.07417792 -0.07414924 -0.07411002 -0.07406568 -0.07401568 -0.07397236 -0.07393724 -0.07391786 -0.07391515
 -0.07392317 -0.07394134 -0.07395633 -0.073968 -0.07396836 -0.07395919 -0.07394351 -0.07392371 -0.07390822 -0.07389733
 -0.07389643 -0.07390242 -0.07391386 -0.07392676 -0.0739364 -0.07394236 -0.07394207 -0.07393948 -0.07393568 -0.07393356
 -0.07393474 -0.07393785 -0.07394297 -0.07394814 -0.073953 -0.07395779 -0.07396252 -0.07396668 -0.07397018 -0.07397074
 -0.07396851 -0.0739634 -0.07395633 -0.07395126 -0.07394885 -0.07395348 -0.07396387 -0.07398058 -0.07399958 -0.07401656
 -0.07402623 -0.07402166 -0.07400177 -0.07396156 -0.07390995 -0.07384766 -0.07378964 -0.07374056 -0.07370936 -0.07369989
 -0.07370722 -0.07373199 -0.07376073 -0.07379252 -0.07381757 -0.07383569 -0.07384724 -0.07385255 -0.07385495 -0.07385336
 -0.07384468 -0.07382774 -0.07379621 -0.07375297 -0.07369953 -0.07364152 -0.07358786 -0.07354014 -0.07350411 -0.07347598
 -0.0734544 -0.07343826 -0.07342591 -0.07342058 -0.07342383 -0.07343367 -0.07345132 -0.07346571 -0.07347574 -0.07347188
 -0.07345305 -0.07342176 -0.07337849 -0.07333567 -0.07329392 -0.07326433 -0.073246 -0.07324129 -0.0732482 -0.07326223
 -0.07328206 -0.07330306 -0.07332461 -0.0733446 -0.07336092 -0.0733714 -0.07337295 -0.07336228 -0.07333992 -0.0733041
 -0.07326101 -0.07321143 -0.07316352 -0.07311913 -0.07308272 -0.07305548 -0.07303555 -0.07302309 -0.07301132 -0.07299992
 -0.07298259 -0.07295962 -0.07293068 -0.07289676 -0.07286232 -0.07282787 -0.07279727 -0.07277024 -0.07274783 -0.07273013
 -0.07271764 -0.07271041 -0.07270918 -0.07271224 -0.0727194 -0.07272677 -0.07273287 -0.07273397 -0.07272829 -0.07271548
 -0.07269458 -0.07266993 -0.07264174 -0.07261576 -0.07259254 -0.07257371 -0.07255924 -0.07254566 -0.07253268 -0.07251602
 -0.07249594 -0.07247117 -0.07244245 -0.07241108 -0.072378 -0.07234564 -0.07231472 -0.07228749 -0.07226358 -0.07224389
 -0.07222635 -0.07220998 -0.07219295 -0.07217383 -0.07215327 -0.07213099 -0.07210872 -0.07208704 -0.07206555 -0.07204449
 -0.07202098 -0.07199477 -0.07196424 -0.07192943 -0.07189354 -0.07185699 -0.07182521 -0.07179781 -0.07177617 -0.07175869
 -0.07174098 -0.07172266 -0.07169994 -0.07167556 -0.0716517 -0.07163088 -0.07161749 -0.07160911 -0.0716061 -0.07160367
 -0.07159892 -0.071592 -0.07158171 -0.0715722 -0.07156473 -0.07155856 -0.0715544 -0.07154484 -0.07152933 -0.07150323
 -0.07146648 -0.07142226 -0.07137089 -0.07131705 -0.07126039 -0.07120146 -0.07114014 -0.07107595 -0.07100986 -0.07094336
 -0.07087784 -0.07081558 -0.07075839 -0.0707086 -0.07066815 -0.07063989 -0.07062183 -0.07061538 -0.07061193 -0.07060953
 -0.07059959 -0.07057899 -0.07054895 -0.07050852 -0.07046667 -0.07042406 -0.07038689 -0.07035534 -0.07032818 -0.07030507
 -0.07028251 -0.0702606 -0.07023808 -0.07021521 -0.07019217 -0.07016902 -0.07014573 -0.070123 -0.07010181 -0.07008266
 -0.07006712 -0.07005323 -0.07004073 -0.07002601 -0.07000676 -0.0699831 -0.06995388 -0.06992339 -0.06989273 -0.06986272
 -0.0698342 -0.06980161 -0.06976453 -0.06972007 -0.0696683 -0.06961748 -0.06956826 -0.06953128 -0.06950504 -0.06948821
 -0.0694778 -0.06946298 -0.06944382 -0.06941411 -0.06937809 -0.0693394 -0.06930126 -0.06926918 -0.06924192 -0.06922033
 -0.06920261 -0.06918759 -0.06917612 -0.06916855 -0.06916428 -0.06916417 -0.06916171 -0.06915634 -0.06914105 -0.06911495
 -0.0690781 -0.06903063 -0.06898022 -0.06892733 -0.06887961 -0.0688367 -0.06880107 -0.06877131 -0.0687445 -0.0687191
 -0.06868994 -0.06865752 -0.0686197 -0.06857922 -0.06853811 -0.06849851 -0.0684633 -0.06843086 -0.06840152 -0.06837207
 -0.06834093 -0.06830875 -0.06827489 -0.06824342 -0.0682149 -0.06819177 -0.0681745 -0.06816053 -0.06814965 -0.06813489
 -0.06811582 -0.06808522 -0.06804341 -0.06798776 -0.06791993 -0.06784345 -0.06776056 -0.06767755 -0.06759629 -0.06752214
 -0.06745624 -0.06740185 -0.06735881 -0.06732847 -0.06730855 -0.0672989 -0.06729534 -0.06729693 -0.06729876 -0.06729976
 -0.06729583 -0.06728613 -0.06726912 -0.06724444 -0.0672136 -0.06717668 -0.06713578 -0.06709094 -0.06704286 -0.06699157
 -0.06693743 -0.06688083 -0.06682326 -0.06676498 -0.06670742 -0.06665035 -0.06659375 -0.06653796 -0.06648262 -0.06643027
 -0.06638186 -0.06634194 -0.06631331 -0.06629743 -0.06629702 -0.0663046 -0.06632037 -0.06632975 -0.06633054 -0.0663136
 -0.06627738 -0.06622736 -0.06616389 -0.06610047 -0.06603739 -0.06598255 -0.06593511 -0.06589427 -0.06585991 -0.06583042
 -0.06580813 -0.06579675 -0.06579975 -0.0658244 -0.06587173 -0.0659466 -0.0660454 -0.06616768 -0.066308 -0.06646267
 -0.06663158 -0.06681272 -0.06701263 -0.06723275 -0.06747657 -0.06774636 -0.06803031 -0.06832841 -0.06861719 -0.06889546
 -0.06914356 -0.0693615 -0.06954474 -0.06969188 -0.06979746 -0.06985103 -0.06981567 -0.0696815 -0.06939573 -0.06898758
 -0.06846634 -0.06789543 -0.06734944 -0.06686084 -0.06648214 -0.06620616 -0.06604365 -0.06597787 -0.06600795 -0.06610973
 -0.06628449 -0.06647494 -0.066677 -0.06681254 -0.06687184 -0.06684216 -0.06672307 -0.06658062 -0.06641809 -0.06629565
 -0.06620924 -0.06617024 -0.06616743 -0.06617016 -0.06616866 -0.06612267 -0.06603689 -0.06589767 -0.065722 -0.06552372
 -0.06531424 -0.06510782 -0.06490523 -0.06470989 -0.06452243 -0.06434333 -0.06417479 -0.06401814 -0.06387033 -0.06373127
 -0.06359658 -0.06346547 -0.0633411 -0.06322363 -0.06312037 -0.06303105 -0.0629552 -0.06289113 -0.06282865 -0.06276722
 -0.06269868 -0.06262575 -0.06255033 -0.06247557 -0.06240864 -0.06234745 -0.06229416 -0.06224091 -0.06218224 -0.0621133
 -0.06202773 -0.06193295 -0.06182839 -0.06172888 -0.06163835 -0.06156381 -0.06150827 -0.06146336 -0.06142898 -0.06139209
 -0.06135205 -0.06130578 -0.06125393 -0.06120416 -0.06115666 -0.06111699 -0.06108325 -0.06105178 -0.06102091 -0.06098425
 -0.0609429 -0.06089585 -0.06084451 -0.06079071 -0.06073353 -0.06067244 -0.06060799 -0.06053928 -0.06047086 -0.06040405
 -0.06034264 -0.06028841 -0.06023957 -0.06019628 -0.060155 -0.06011531 -0.06007683 -0.06003952 -0.06000546 -0.05997457
 -0.05994705 -0.05992231 -0.05989726 -0.05987103 -0.05983873 -0.05980056 -0.05975387 -0.05970095 -0.05964407 -0.05958585
 -0.05953068 -0.05947839 -0.05943085 -0.05938525 -0.05934054 -0.0592947 -0.05924644 -0.05919619 -0.0591436 -0.05909063
 -0.0590375 -0.05898575 -0.05893565 -0.05888702 -0.0588399 -0.05879375 -0.05874872 -0.0587068 -0.05866789 -0.05863335
 -0.0586013 -0.05856611 -0.05852568 -0.05847073 -0.05840432 -0.0583254 -0.0582425 -0.05816532 -0.05809852 -0.05805132
 -0.05801724 -0.05799671 -0.05797828 -0.05795713 -0.05792905 -0.05789103 -0.05784814 -0.05780065 -0.05775394 -0.05770877
 -0.05766555 -0.05762431 -0.05758337 -0.05754271 -0.05750208 -0.05746113 -0.05741793 -0.05737148 -0.0573164 -0.05725343
 -0.05718029 -0.05710159 -0.05702366 -0.0569508 -0.05689196 -0.05684449 -0.05681055 -0.0567825 -0.05675619 -0.05672844
 -0.05669603 -0.05666299 -0.05662992 -0.0565994 -0.05657256 -0.0565458 -0.05651892 -0.05648826 -0.05645355 -0.05641708
 -0.05637906 -0.05634334 -0.05630944 -0.0562764 -0.05624345 -0.05620688 -0.05616721 -0.05612361 -0.05607754 -0.05603139
 -0.05598522 -0.05594031 -0.0558955 -0.05585004 -0.05580385 -0.05575641 -0.05570884 -0.05566145 -0.05561509 -0.05557
 -0.05552676 -0.05548529 -0.05544753 -0.05541363 -0.05538523 -0.05536244 -0.0553441 -0.05532985 -0.05531453 -0.05529752
 -0.0552722 -0.05523876 -0.05519366 -0.0551389 -0.05507725 -0.05501131 -0.05494722 -0.05488513 -0.05482825 -0.05477408
 -0.05472116 -0.05466909 -0.05461615 -0.05456657 -0.0545216 -0.05448426 -0.05445662 -0.05443448 -0.05441807 -0.05439887
 -0.05437585 -0.0543455 -0.05430748 -0.05426603 -0.05422147 -0.05417956 -0.05413999 -0.05410362 -0.05406975 -0.05403595
 -0.05400234 -0.05396798 -0.05393338 -0.05389969 -0.05386546 -0.05383013 -0.05379028 -0.05374239 -0.05368595 -0.05361791
 -0.0535453 -0.0534689 -0.05339956 -0.05334066 -0.05329677 -0.05327015 -0.05325513 -0.05325178 -0.05324978 -0.0532485
 -0.05324059 -0.05322586 -0.05320076 -0.05316534 -0.05311793 -0.05305906 -0.05298909 -0.05291 -0.05282616 -0.05274092
 -0.05266178 -0.05259138 -0.05253655 -0.05249627 -0.05247329 -0.05246162 -0.05245952 -0.05245904 -0.05245677 -0.05244742
 -0.05242845 -0.05239978 -0.05236053 -0.05231494 -0.05226319 -0.05221087 -0.05215836 -0.05210744 -0.05205796 -0.05200681
 -0.05195403 -0.05189769 -0.05183919 -0.05178317 -0.05173047 -0.0516865 -0.05164892 -0.05161668 -0.05158608 -0.05155164
 -0.05151286 -0.0514668 -0.05141626 -0.05136195 -0.05130645 -0.05125108 -0.05119663 -0.05114346 -0.0510922 -0.05104288
 -0.05099699 -0.05095467 -0.0509174 -0.05088532 -0.05085717 -0.05083266 -0.05080697 -0.05077987 -0.05074695 -0.05070907
 -0.05066704 -0.05062207 -0.05057807 -0.05053474 -0.05049376 -0.05045343 -0.05041217 -0.05036907 -0.05032238 -0.05027326
 -0.05022158 -0.05016977 -0.05011895 -0.05006994 -0.05002368 -0.0499777 -0.04993181 -0.04988313 -0.04983096 -0.04977788
 -0.04972396 -0.0496744 -0.04962914 -0.0495873 -0.04954808 -0.04950497 -0.04945848 -0.04940654 -0.04935154 -0.04929892
 -0.04924966 -0.049209 -0.04917438 -0.04914525 -0.04911775 -0.04908831 -0.04905466 -0.0490141 -0.04896719 -0.04891307
 -0.0488547 -0.04879264 -0.0487296 -0.04866616 -0.04860374 -0.04854243 -0.04848451 -0.0484301 -0.0483828 -0.04834259
 -0.04830918 -0.0482817 -0.04825388 -0.04822482 -0.04818717 -0.04814169 -0.04808611 -0.04802296 -0.04795546 -0.04788628
 -0.04782044 -0.0477582 -0.04770216 -0.04764959 -0.04759967 -0.04754996 -0.04749883 -0.04744673 -0.04739347 -0.04733964
 -0.04728556 -0.04722973 -0.04717185 -0.04711254 -0.04705173 -0.04699472 -0.04694171 -0.04689652 -0.04685834 -0.04682334
 -0.04679011 -0.04675033 -0.0467044 -0.04664817 -0.04658509 -0.04651913 -0.04645431 -0.04639829 -0.04635058 -0.04631498
 -0.04628479 -0.04625741 -0.04622644 -0.04618745 -0.04614189 -0.04608876 -0.04603323 -0.04597667 -0.04591858 -0.04585933
 -0.04579479 -0.0457246 -0.04565019 -0.04557192 -0.04549751 -0.04542703 -0.04536505 -0.04531001 -0.04525781 -0.0452072
 -0.04515184 -0.04509364 -0.04503266 -0.04497221 -0.0449176 -0.04486797 -0.04482548 -0.04478514 -0.04474397 -0.04470032
 -0.04465182 -0.04460233 -0.04455284 -0.04450463 -0.04445887 -0.04441054 -0.0443593 -0.04429987 -0.04423174 -0.04415587
 -0.04407252 -0.04398768 -0.04390174 -0.0438205 -0.04374372 -0.04367353 -0.04360912 -0.04354906 -0.04349335 -0.04344117
 -0.04339316 -0.04335082 -0.04331159 -0.04327498 -0.0432348 -0.04318643 -0.0431281 -0.0430561 -0.04297813 -0.04289513
 -0.04281605 -0.04274344 -0.04267805 -0.04262076 -0.04256586 -0.04251305 -0.04245687 -0.04239723 -0.04233356 -0.04226653
 -0.04220111 -0.04213781 -0.04208216 -0.04203255 -0.04198815 -0.04194531 -0.04189615 -0.04183992 -0.04177081 -0.04169404
 -0.04161204 -0.0415301 -0.041453 -0.04138099 -0.04131588 -0.04125447 -0.04119625 -0.04113853 -0.04108055 -0.04102183
 -0.04096215 -0.04090231 -0.04084237 -0.04078261 -0.04072296 -0.0406621 -0.04059983 -0.04053383 -0.04046412 -0.04038922
 -0.04031006 -0.04022821 -0.04014517 -0.04006502 -0.03998721 -0.03991323 -0.03984051 -0.03976689 -0.03969163 -0.03961306
 -0.03953312 -0.0394525 -0.03937161 -0.03929133 -0.03920827 -0.03912185 -0.03902984 -0.03893142 -0.03883017 -0.03872618
 -0.03862536 -0.03852794 -0.03843749 -0.03835361 -0.03827504 -0.03820053 -0.03812372 -0.03804392 -0.03795479 -0.03785907
 -0.0377584 -0.03765711 -0.0375628 -0.03747499 -0.03739724 -0.03732388 -0.03725197 -0.03717848 -0.0371008 -0.03701995
 -0.03693633 -0.03684792 -0.0367547 -0.03665274 -0.03654094 -0.03642303 -0.03629898 -0.03617917 -0.03606392 -0.03595788
 -0.03586017 -0.03576553 -0.03567297 -0.03557469 -0.03547157 -0.03536202 -0.03524741 -0.03513007 -0.03500961 -0.03488599
 -0.03476001 -0.03463079 -0.03450422 -0.03438334 -0.03427405 -0.0341815 -0.03410141 -0.03403535 -0.03397003 -0.03390367
 -0.03382286 -0.03372552 -0.03360473 -0.03345942 -0.03329678 -0.0331175 -0.03294025 -0.0327651 -0.03260157 -0.03244733
 -0.03229656 -0.03214763 -0.03199209 -0.03183151 -0.03166475 -0.0314944 -0.03132407 -0.03115393 -0.03098555 -0.03081808
 -0.03065186 -0.03048457 -0.0303167 -0.0301404 -0.0299535 -0.0297497 -0.02952539 -0.02929025 -0.02904428 -0.02880358
 -0.0285697 -0.0283448 -0.02812874 -0.02791381 -0.02769964 -0.02748023 -0.02725522 -0.02702024 -0.02677402 -0.02650957
 -0.02622817 -0.02592684 -0.02561313 -0.02529663 -0.02498202 -0.02467937 -0.02438362 -0.02409423 -0.02380687 -0.02351763
 -0.02323149 -0.02294858 -0.02267655 -0.02241923 -0.0221677 -0.02192418 -0.02165176 -0.02134789 -0.02098058 -0.02054982
 -0.02008691 -0.01959545 -0.01912425 -0.01866823 -0.01822809 -0.01779806 -0.01735936 -0.01691405 -0.01645793 -0.01599312
 -0.01552567 -0.01504274 -0.01453977 -0.01398801 -0.01336546 -0.01265821 -0.01184244 -0.01096299 -0.01002142 -0.009091291
 -0.008191273 -0.007348824 -0.006572537 -0.005849149 -0.005178976 -0.004536496 -0.003919809 -0.003284888 -0.002627485 -0.001883581
 -0.001061326 -0.0001549688 0.0008019916 0.001701113 0.002540543 0.003252558 0.003879642 0.004456017 0.00501081 0.005590628
 0.006193073 0.006832879 0.007493169 0.008168898 0.008850197 0.009534515 0.01020855 0.01087004 0.01150377 0.01210566
 0.01268363 0.01323778 0.01378118 0.01431384 0.01481862 0.01529359 0.01571149 0.01607502 0.01638281 0.0166396
 0.01685986 0.01704472 0.01720272 0.01733508 0.01744608 0.01753933 0.01762153 0.01768985 0.01774537 0.01778175
 0.017795 0.01778606 0.01775392 0.01770266 0.01763402 0.01754433 0.01743379 0.01729424 0.01712452 0.01692914
 0.0167087 0.01648692 0.01626424 0.01605435 0.01585519 0.01566202 0.01547603 0.01529602 0.01512977 0.01499267
 0.01489155 0.01484638 0.01485019 0.01490471 0.01499798 0.0151197 0.01527072 0.01544862 0.0156569 0.01589935
 0.01616278 0.01644524 0.01673492 0.01702797 0.01733595 0.01765915 0.01801441 0.01840233 0.01882357 0.01927696
 0.01975085 0.02024447 0.02074817 0.02126173 0.02177938 0.02230139 0.02282482 0.02335215 0.02388562 0.02442767
 0.02498222 0.02554883 0.02612859 0.0267199 0.02732242 0.02793437 0.02855554 0.0291828 0.02981604 0.03044955
 0.03108334 0.03170596 0.03231674 0.03290159 0.03345996 0.03399087 0.03449518 0.03498438 0.03545506 0.03589793
 0.03630385 0.03663532 0.03689393 0.0370621 0.03715212 0.03717571 0.03714016 0.03705692 0.03693071 0.03676848
 0.03657187 0.03634926 0.03607732 0.03575815 0.03533399 0.03478782 0.0341056 0.03326996 0.03240144 0.03150996
 0.0306644 0.02986703 0.02905838 0.02823626 0.02735566 0.02642301 0.02544903 0.0244402 0.02342833 0.02240335
 0.02136826 0.02028751 0.01910271 0.01780616 0.01633293 0.01479819 0.01326302 0.01182039 0.01055938 0.009417196
 0.008393982 0.007417542 0.006464362 0.005532822 0.004616942 0.003747387 0.002927241 0.002161902 0.001451465 0.0007749949
 0.0001318012 -0.000493394 -0.001098439 -0.001679643 -0.002234822 -0.002753166 -0.003237908 -0.003689194 -0.004114958 -0.0045274
 -0.004931957 -0.005339161 -0.005750697 -0.006169441 -0.006600906 -0.007048936 -0.007515885 -0.008011789 -0.008497058 -0.00896873
 -0.00936949 -0.009684597 -0.009929913 -0.01010359 -0.01025652 -0.01039119 -0.01053773 -0.01069563 -0.01086955 -0.01105683
 -0.01124599 -0.01143499 -0.01161203 -0.01177446 -0.0119119 -0.01201953 -0.01208415 -0.01210678 -0.01208127 -0.0120173
 -0.01192025 -0.01179675 -0.01165219 -0.01148734 -0.01130367 -0.01110043 -0.01087927 -0.01063046 -0.01035534 -0.01002425
 -0.009634512 -0.009163973 -0.008611879 -0.008025927 -0.007411437 -0.006849529 -0.006336248 -0.005892088 -0.005507042 -0.005156213
 -0.004837824 -0.004535135 -0.004251684 -0.003989494 -0.003741226 -0.003505297 -0.003258036 -0.002978761 -0.00266039 -0.002283502
 -0.001889076 -0.001487724 -0.001108489 -0.0007655992 -0.000441571 -0.000136903 0.0001747571 0.00049646 0.0008349812 0.0011907
 0.001549335 0.001910165 0.002259247 0.002598658 0.00293181 0.003263479 0.003612387 0.003980224 0.004383491 0.004812839
 0.00526134 0.005719123 0.006168264 0.006617062 0.007064088 0.007524481 0.008008877 0.008514898 0.009047504 0.00958626
 0.01012706 0.01065587 0.01116854 0.01166973 0.01215949 0.01264351 0.01312199 0.01357533 0.0140012 0.01436439
 0.0146648 0.0148839 0.01502337 0.01508071 0.01505381 0.01493756 0.01472712 0.01441097 0.01399039 0.01345844
 0.0128299 0.01211116 0.01132246 0.01047725 0.009583113 0.008646789 0.007664719 0.006633468 0.005570444 0.004473255
 0.003393761 0.002336566 0.001339986 0.0004062692 -0.0004743513 -0.001303565 -0.002107306 -0.002883814 -0.003636802 -0.004360924
 -0.005037937 -0.005667388 -0.006236718 -0.006754015 -0.007225543 -0.007661705 -0.008076676 -0.008476648 -0.008871539 -0.009261638
 -0.009650518 -0.01003359 -0.0104107 -0.01077469 -0.01112377 -0.01145319 -0.01176127 -0.01205097 -0.01232224 -0.01258094
 -0.01282741 -0.01305807 -0.01327218 -0.01345768 -0.01361514 -0.01374118 -0.01383855 -0.01391626 -0.01397436 -0.01401828
 -0.01404498 -0.01405085 -0.01403629 -0.01399843 -0.01394421 -0.01387697 -0.01380587 -0.01373684 -0.01367484 -0.01362327
 -0.01358285 -0.01355411 -0.01353822 -0.01353502 -0.01354899 -0.01358069 -0.01363144 -0.01370139 -0.01378166 -0.0138715
 -0.01395868 -0.01404308 -0.01411807 -0.01418344 -0.01423527 -0.01427253 -0.01429031 -0.01428907 -0.01426666 -0.01422605
 -0.01416961 -0.01410042 -0.01402113 -0.01393534 -0.01384441 -0.01375522 -0.01366966 -0.01359638 -0.01353795 -0.0134993
 -0.01348203 -0.01348536 -0.01350987 -0.01354755 -0.01359802 -0.01364772 -0.01369614 -0.01373275 -0.0137587 -0.0137755
 -0.01378538 -0.01379753 -0.01381256 -0.01383714 -0.01386952 -0.01391005 -0.01395613 -0.01400492 -0.01405439 -0.01410174
 -0.01414691 -0.01418875 -0.01422922 -0.0142691 -0.01430871 -0.01434886 -0.01438631 -0.01442071 -0.01444926 -0.01447153
 -0.01448736 -0.0144967 -0.01449848 -0.01449242 -0.01447438 -0.01444432 -0.01439925 -0.01434092 -0.01427337 -0.01419987
 -0.0141309 -0.01406749 -0.01401804 -0.01397681 -0.01394181 -0.01390351 -0.01385228 -0.01378636 -0.01369956 -0.01360245
 -0.01349717 -0.01339407 -0.01329778 -0.01320556 -0.01311827 -0.01302727 -0.01293119 -0.01283188 -0.01272928 -0.01263564
 -0.01255125 -0.01248287 -0.01242909 -0.01238388 -0.01234602 -0.01230682 -0.01226812 -0.01222987 -0.01219479 -0.01216824
 -0.01214983 -0.01214174 -0.01214126 -0.01214643 -0.0121566 -0.01217033 -0.01218958 -0.01221456 -0.01224777 -0.01228992
 -0.01234239 -0.01240578 -0.01247891 -0.01256211 -0.01264929 -0.01274013 -0.01282688 -0.01290935 -0.01298369 -0.01305043
 -0.01311107 -0.0131664 -0.01322016 -0.0132729 -0.01332824 -0.01338548 -0.0134456 -0.01350632 -0.01356495 -0.01362064
 -0.01367033 -0.01371878 -0.01376703 -0.01382193 -0.01388759 -0.01396299 -0.01405053 -0.01413775 -0.01422337 -0.01429406
 -0.01434767 -0.01438331 -0.01440067 -0.01441005 -0.01441176 -0.01441202 -0.01440985 -0.01440096 -0.01438531 -0.01435961
 -0.01432666 -0.01429252 -0.01425821 -0.01423002 -0.01420305 -0.01417438 -0.01413808 -0.01408738 -0.0140214 -0.01393751
 -0.01383721 -0.01372066 -0.01358834 -0.01343965 -0.01327882 -0.01310534 -0.01293098 -0.01275671 -0.01259401 -0.01244377
 -0.0123053 -0.01217791 -0.01204857 -0.01191695 -0.01177306 -0.01161994 -0.01146388 -0.01130872 -0.01116925 -0.01104314
 -0.0109348 -0.01083617 -0.01073864 -0.01063749 -0.01052448 -0.0104021 -0.01026879 -0.01013013 -0.009987524 -0.009846928
 -0.009710071 -0.009581428 -0.009462754 -0.009351451 -0.009247903 -0.009143676 -0.009038241 -0.008926423 -0.008808159 -0.008682846
 -0.008550271 -0.008408234 -0.008256946 -0.008095306 -0.007925286 -0.007751672 -0.007575538 -0.007401827 -0.007228499 -0.007054776
 -0.006879373 -0.006700085 -0.006518996 -0.006336202 -0.006155359 -0.005977441 -0.005807132 -0.005645865 -0.005496871 -0.005361892
 -0.005235914 -0.005119228 -0.00499967 -0.004876441 -0.004742086 -0.004596706 -0.00444249 -0.004280587 -0.004119375 -0.003960979
 -0.003818802 -0.003693385 -0.003595869 -0.003518594 -0.003455449 -0.003392654 -0.003309042 -0.003199738 -0.003050016 -0.002870246
 -0.00266058 -0.002437281 -0.002206568 -0.001981048 -0.001765804 -0.001565746 -0.001383874 -0.001212564 -0.001052022 -0.0008871685
 -0.0007169574 -0.0005335722 -0.0003371131 -0.0001307143 8.48623E-05 0.000302849 0.0005226719 0.0007383365 0.0009498944 0.001154207
 0.001352144 0.001544968 0.001730349 0.001907987 0.002069347 0.002207108 0.002314452 0.002383195 0.002417476 0.002415475
 0.002388478 0.002338502 0.002277344 0.002206524 0.002140006 0.002079109 0.002038453 0.002019257 0.002025814 0.002057564
 0.002102073 0.002157356 0.002202191 0.002236707 0.00224821 0.002242246 0.002226342 0.00220768 0.002204648 0.00221701
 0.002253376 0.002307192 0.00237489 0.002453376 0.002540814 0.00263194 0.002728479 0.002808355 0.002867216 0.002881087
 0.002841831 0.002755497 0.002619594 0.002466954 0.002299572 0.00214436 0.002001928 0.001879511 0.00177584 0.001685703
 0.001606549 0.001525195 0.001439441 0.001335437 0.001215099 0.001074907 0.0009191406 0.0007526048 0.0005764774 0.000393646
 0.0002037349 6.802087E-06 -0.0001957939 -0.0004028187 -0.0006160816 -0.000834605 -0.001066546 -0.0013131 -0.001581535 -0.001873443
 -0.002187177 -0.002523086 -0.002867426 -0.003219179 -0.003557432 -0.003881992 -0.004180867 -0.004456622 -0.004714557 -0.004955754
 -0.005187236 -0.005405572 -0.005606163 -0.005789623 -0.005951819 -0.006103175 -0.006251718 -0.006405281 -0.006573567 -0.00675124
 -0.006939054 -0.007128534 -0.007316946 -0.007501095 -0.007680842 -0.007848884 -0.00800534 -0.008133772 -0.008232933 -0.008293304
 -0.008315267 -0.008311488 -0.008284885 -0.008264978 -0.008252806 -0.008270746 -0.00831323 -0.008377209 -0.008454712 -0.008527361
 -0.008594809 -0.008647871 -0.008691806 -0.008730282 -0.008761191 -0.008785513 -0.008796524 -0.008789077 -0.008769076 -0.008735279
 -0.008703218 -0.008676596 -0.008660068 -0.008655557 -0.008654878 -0.008657583 -0.008657346 -0.008653961 -0.008645301 -0.008631129
 -0.008608195 -0.008576639 -0.00853477 -0.00848408 -0.008427651 -0.008367396 -0.008308356 -0.008251925 -0.008202308 -0.008159295
 -0.008124999 -0.008096061 -0.00807154 -0.008046724 -0.008019577 -0.007986178 -0.007945727 -0.007892027 -0.007823645 -0.007736658
 -0.007629008 -0.007512752 -0.007388029 -0.007281615 -0.007194568 -0.007144051 -0.007128191 -0.0071395 -0.007174226 -0.007211613
 -0.007249527 -0.007270698 -0.00727609 -0.007258087 -0.007222168 -0.007171099 -0.007114001 -0.007060301 -0.007016484 -0.006991122
 -0.006981282 -0.006989993 -0.007004293 -0.007022312 -0.007027396 -0.007015417 -0.006978833 -0.006914883 -0.00683322 -0.006734001
 -0.006634974 -0.006536769 -0.006447324 -0.006365903 -0.006289391 -0.006217287 -0.006145739 -0.006074899 -0.006003548 -0.005931269
 -0.005856778 -0.005779419 -0.005698063 -0.005611404 -0.005518336 -0.00541626 -0.005302262 -0.005177922 -0.00504108 -0.004902415
 -0.004764006 -0.004637361 -0.004526266 -0.004430463 -0.004351291 -0.004278063 -0.004210141 -0.004137847 -0.004060845 -0.00397612
 -0.003883928 -0.003784944 -0.003679792 -0.00357123 -0.003460608 -0.00335334 -0.00325031 -0.003156921 -0.003070531 -0.002990408
 -0.002912083 -0.002829349 -0.00274456 -0.002655241 -0.002571913 -0.002499341 -0.002442568 -0.002406445 -0.002381418 -0.002367026
 -0.002350803 -0.002330414 -0.002304443 -0.002272459 -0.002238242 -0.002201815 -0.002160966 -0.002115268 -0.002059647 -0.001994355
 -0.001918471 -0.001831532 -0.001732753 -0.001619059 -0.0014828 -0.001324433 -0.001136886 -0.0009347654 -0.0007254365 -0.000534274
 -0.000382181 -0.0002791645 -0.0002418069 -0.0002445658 -0.0002871223 -0.0003272675 -0.0003552371 -0.0003490425 -0.0003025423 -0.0002238016
 -0.0001124127 1.13553E-05 0.0001464674 0.0002742964 0.0003944658 0.0004952505 0.0005780985 0.0006430774 0.000693022 0.0007367674
 0.0007755712 0.0008162176 0.0008588026 0.0009051866 0.0009583132 0.001020893 0.001097711 0.001194126 0.001308362 0.001443979
 0.001586235 0.001732977 0.00186451 0.001974839 0.002060594 0.002118419 0.002168949 0.00221338 0.002271961 0.00234526
 0.002429341 0.002523103 0.00261343 0.00270176 0.002789105 0.002876323 0.002968234 0.003060929 0.003147662 0.003227434
 0.003293802 0.003353226 0.003410655 0.003468657 0.003533057 0.003595591 0.003653873 0.003701062 0.00373226 0.003754354
 0.003766327 0.003784751 0.003811691 0.003859602 0.003930266 0.004019018 0.004125385 0.004230695 0.004334639 0.004426206
 0.004507776 0.004585878 0.004662021 0.004745056 0.004833292 0.00492745 0.005025487 0.005126015 0.005223867 0.00531487
 0.005390435 0.005440294 0.005469991 0.005474906 0.005480013 0.005493781 0.005527665 0.005590159 0.005657238 0.005727521
 0.005773419 0.005791344 0.005786954 0.005760891 0.00574396 0.005737435 0.005766827 0.005829385 0.005926309 0.006050698
 0.006181384 0.006313833 0.006426248 0.006522511 0.006598743 0.006660488 0.006712956 0.006757152 0.006793945 0.00682833
 0.006861086 0.006903074 0.006959322 0.007030527 0.007119039 0.007215251 0.007317588 0.007424149 0.007534547 0.007650584
 0.0077722 0.007891911 0.008009654 0.008121343 0.008228705 0.008339792 0.008453925 0.008574056 0.008696526 0.008813786
 0.008925917 0.009029706 0.009126349 0.00921805 0.009298988 0.009366049 0.009413661 0.009435919 0.009439374 0.009422841
 0.009402079 0.009379301 0.009372157 0.009384006 0.009422124 0.009488831 0.009561392 0.009638517 0.00968393 0.009699082
 0.009685025 0.009648873 0.009630675 0.009631407 0.009676593 0.009759974 0.009879335 0.01003132 0.0102122 0.01041371
 0.01062926 0.01084227 0.01103618 0.01120969 0.01135265 0.01148875 0.01162484 0.0117741 0.01194497 0.0121174
 0.01228963 0.01244665 0.01258727 0.01269781 0.01277737 0.01280046 0.01276804 0.01267956 0.01254185 0.01239321
 0.01223514 0.01209413 0.01196443 0.01184318 0.01173273 0.01163505 0.01155417 0.01149903 0.01145976 0.01143282
 0.01140722 0.01137527 0.0113356 0.01128653 0.01122635 0.01115301 0.01107362 0.01098683 0.01091776 0.01086915
 0.01084865 0.0108564 0.01086011 0.01085801 0.01081821 0.0107441 0.01063765 0.01050352 0.01035778 0.01020356
 0.01005346 0.009914257 0.009801828 0.00972042 0.009682564 0.009683123 0.009722484 0.009794814 0.009902828 0.0100208
 0.0101492 0.01022777 0.01023977 0.01016036 0.009974255 0.009751465 0.009495044 0.009292183 0.009147189 0.009071904
 0.009063248 0.009088628 0.009145521 0.009205626 0.009265808 0.009298151 0.009306441 0.009279718 0.009237644 0.009206119
 0.00920022 0.00925169 0.009350194 0.009502905 0.009681549 0.009876403 0.01005614 0.01020744 0.01031234 0.01035919
 0.01036954 0.01034165 0.01032395 0.01032199 0.01034902 0.01040578 0.01045833 0.01050591 0.01052781 0.01052889
 0.01052686 0.01052557 0.01054816 0.01059378 0.01067502 0.01078143 0.01090954 0.01102911 0.01110532 0.01111791
 0.01102547 0.01087148 0.01065748 0.01046008 0.01031359 0.01023635 0.01024826 0.01029621 0.01037657 0.01043282
 0.01045782 0.01043839 0.01037364 0.0102941 0.0102023 0.01014114 0.01010659 0.01010014 0.01010994 0.01009118
 0.01004545 0.009948889 0.009821356 0.009688493 0.009553662 0.009436995 0.009316471 0.009177625 0.009016856 0.008817636
 0.008622804 0.008438233 0.008323302 0.008295802 0.008380664 0.008591906 0.008879663 0.009245479 0.009572634 0.0098548
 0.01000526 0.01002805 0.009952986 0.009791939 0.009633537 0.009475016 0.009356441 0.009261436 0.009169974 0.009072763
 0.008941062 0.008785215 0.008599441 0.008414518 0.008250096 0.008135932 0.008102001 0.008129613 0.008229478 0.008331903
 0.008421082 0.008451587 0.008407398 0.008317271 0.00818012 0.008058999 0.007957435</values></Ydata></AB><ScSm><Ydata ylabel="Single channel"><values byteorder="INTEL" format="FLOAT32" numvalues="1814"> 0.07774457 0.07774951 0.07782768 0.07800576 0.07824889 0.07848164 0.0786406 0.07871236 0.07871597 0.07866211
 0.07856499 0.0784898 0.07853388 0.0787317 0.07900167 0.07920216 0.07924277 0.07916284 0.0791098 0.0791973
 0.07935196 0.0793331 0.07895758 0.07831028 0.07768987 0.07733177 0.07725835 0.07745346 0.07801381 0.07887784
 0.07951416 0.07930046 0.07830714 0.07733674 0.07703274 0.07726074 0.07748275 0.07738088 0.07695791 0.07641214
 0.07618675 0.07684975 0.07853422 0.08047841 0.08130156 0.07987498 0.07612766 0.07129991 0.06748636 0.0665132
 0.06865205 0.07225519 0.07499446 0.07571721 0.07499357 0.07393811 0.07300717 0.0721506 0.07159282 0.07186811
 0.07308771 0.07444985 0.07465726 0.07302883 0.07031107 0.06814584 0.06757073 0.06837029 0.0699597 0.07201993
 0.07360448 0.07263297 0.06794181 0.06187172 0.05921825 0.06267062 0.06994171 0.07600494 0.07756383 0.07489697
 0.07039611 0.06658579 0.06517252 0.06658537 0.06989905 0.07360113 0.07650958 0.07782939 0.07694855 0.07397111
 0.07024139 0.06769276 0.06765866 0.07034986 0.07481344 0.07902351 0.08080172 0.07942401 0.0760991 0.07269245
 0.07050328 0.07027107 0.07235257 0.07635064 0.08109106 0.08530337 0.08814099 0.08927034 0.0889401 0.08782062
 0.08649367 0.08535968 0.08499457 0.08579272 0.08703134 0.08714619 0.08543271 0.08298437 0.08156761 0.08179793
 0.08264841 0.08269954 0.08157732 0.07973205 0.07703939 0.07276469 0.06725924 0.06241595 0.05977548 0.05934938
 0.06075139 0.06380301 0.06720595 0.06846456 0.06662571 0.06402037 0.06394999 0.06716259 0.07147351 0.07442801
 0.07556903 0.07625774 0.07792436 0.08060859 0.08277507 0.08246868 0.07925448 0.07531083 0.07388623 0.07610533
 0.0798881 0.08251263 0.08348839 0.08423858 0.08561677 0.08658448 0.08529773 0.0812972 0.07667257 0.07476804
 0.07726984 0.08251718 0.08670748 0.08670853 0.0821646 0.0755744 0.07034473 0.06843554 0.0698363 0.07386218
 0.0799058 0.08675471 0.09228669 0.09466105 0.09365831 0.09056734 0.08671567 0.0822446 0.07681409 0.07164742
 0.0697756 0.07317156 0.08022618 0.08709019 0.09110717 0.09213502 0.09104759 0.08809654 0.08316302 0.07734317
 0.07346334 0.07388289 0.07765076 0.08104793 0.08148125 0.07984561 0.07860596 0.07872613 0.07931435 0.07951564
 0.07973226 0.08093561 0.08327262 0.08570151 0.08700104 0.08688323 0.08603722 0.085329 0.0850141 0.08455191
 0.08335936 0.08196945 0.08196589 0.0842512 0.08780804 0.0907453 0.09219682 0.09263919 0.09262682 0.09182112
 0.08948366 0.08586384 0.08276701 0.08221471 0.08448967 0.08795834 0.09077127 0.09219429 0.09243748 0.09198633
 0.09126836 0.09051269 0.08982834 0.0895132 0.08997688 0.09116007 0.09239956 0.0930969 0.09321509 0.0929791
 0.0924392 0.09155312 0.09050272 0.08971362 0.08954853 0.09003289 0.09089398 0.09180602 0.09251182 0.09279093
 0.09253941 0.09192392 0.09127721 0.09079711 0.09048671 0.0903681 0.09054602 0.09101201 0.09155238 0.09193093
 0.09207653 0.09205064 0.09191414 0.0916829 0.09137648 0.09107083 0.09089552 0.09094723 0.09117909 0.09142787
 0.09159921 0.09175861 0.09197119 0.09213541 0.09208837 0.09183125 0.09154477 0.091397 0.09140939 0.09149617
 0.09155483 0.09149033 0.09121522 0.09072509 0.09019545 0.08991475 0.09005495 0.09054661 0.09119063 0.09180556
 0.09225485 0.09246292 0.09247205 0.09240238 0.09231299 0.09215999 0.09190828 0.09163529 0.09150641 0.09165071
 0.09204394 0.09251692 0.09289317 0.09310102 0.09316531 0.09316459 0.09320463 0.09333974 0.09349217 0.09352645
 0.09342432 0.09331818 0.09333439 0.09345345 0.09354368 0.09351167 0.09340693 0.09337088 0.09348403 0.09368967
 0.09387781 0.09400813 0.09412637 0.09427787 0.09442616 0.09446946 0.09435453 0.0941586 0.0940162 0.09397553
 0.09398584 0.09401784 0.09411566 0.09430446 0.09451233 0.09463362 0.09464809 0.09463684 0.09467617 0.09474271
 0.09474327 0.09462577 0.09443544 0.09426578 0.09418061 0.09418328 0.09423279 0.09427429 0.0942677 0.09420468
 0.0941035 0.09398612 0.09386394 0.09375444 0.09370728 0.09378322 0.09397752 0.09417544 0.09422316 0.09406522
 0.09380302 0.09360184 0.09353791 0.09354283 0.09349385 0.09333937 0.09312709 0.09293316 0.09279422 0.09270227
 0.09263387 0.09257457 0.09253701 0.09256484 0.09269473 0.0928934 0.09304976 0.09306286 0.09293734 0.09277293
 0.09266813 0.09265333 0.09269956 0.09276063 0.09281629 0.0928928 0.09302236 0.09317376 0.0932636 0.09325601
 0.09321042 0.093216 0.0933205 0.09352478 0.09378499 0.09400725 0.09410436 0.09408741 0.09406043 0.09410767
 0.09422255 0.09435638 0.094491 0.09463758 0.09479801 0.09496484 0.09515068 0.09538889 0.0956973 0.09604885
 0.09637965 0.0966289 0.09678795 0.09692273 0.09713495 0.09748101 0.09792317 0.09836289 0.0987232 0.09900209
 0.09925193 0.09951355 0.09978388 0.1000544 0.1003552 0.1007266 0.1011583 0.1015937 0.1019954 0.102375
 0.1027593 0.1031552 0.1035564 0.1039681 0.1044143 0.1049125 0.1054345 0.1059023 0.1062505 0.1064941
 0.106721 0.1070238 0.1074373 0.1079146 0.1083437 0.1086271 0.1087831 0.1089416 0.1092065 0.1095486
 0.1098739 0.1101672 0.1105079 0.1109486 0.1114334 0.1118566 0.112174 0.1124336 0.1127093 0.1130175
 0.1133031 0.1135062 0.113635 0.1137564 0.1139205 0.1141279 0.1143816 0.1147207 0.1151658 0.1156579
 0.1160957 0.1164226 0.1166506 0.1168206 0.1169702 0.1171224 0.1172755 0.1174155 0.117549 0.1176971
 0.1178477 0.1179593 0.1180289 0.1181162 0.1182769 0.1185121 0.1188033 0.1191527 0.119551 0.1199453
 0.1202924 0.1206286 0.121029 0.1214879 0.1218926 0.1221426 0.1222552 0.1223189 0.1223869 0.1224701
 0.1226028 0.1228404 0.1231905 0.1235969 0.1240034 0.1243979 0.1247893 0.1251682 0.1255017 0.1257522
 0.1259 0.1259603 0.1259857 0.1260485 0.1262095 0.1264812 0.1268145 0.1271295 0.1273698 0.1275175
 0.1275623 0.1274942 0.1273496 0.1272276 0.1272118 0.1272723 0.1272798 0.1271149 0.1267426 0.1261881
 0.1254826 0.1246576 0.1237736 0.1229258 0.1222118 0.1216945 0.1213994 0.1213493 0.1215826 0.1221126
 0.1228677 0.1237022 0.1244697 0.1250642 0.125393 0.1253669 0.1249576 0.1242421 0.1233629 0.1224527
 0.1215988 0.1208377 0.1201534 0.1195147 0.1189558 0.1186199 0.1187 0.1193323 0.1205359 0.1222105
 0.1241601 0.1261381 0.1279315 0.1294455 0.1307122 0.1318129 0.1328035 0.1337165 0.1345937 0.1354649
 0.1363043 0.137052 0.1376862 0.1382424 0.1387591 0.1392348 0.1396419 0.1399594 0.1401923 0.1403752
 0.1405444 0.1406968 0.1407937 0.1408162 0.1407949 0.1407657 0.1407167 0.1405929 0.1403411 0.1399444
 0.1394478 0.1389808 0.1387535 0.1389907 0.139823 0.1412067 0.1429459 0.1448002 0.1465768 0.1481429
 0.1494083 0.1503428 0.1509991 0.1514817 0.1518866 0.1522746 0.1526758 0.1530932 0.153508 0.1538997
 0.1542658 0.154623 0.1549947 0.1553923 0.1557978 0.1561714 0.1564909 0.1567845 0.1571138 0.1575174
 0.1579722 0.1584146 0.1588075 0.1591734 0.1595474 0.1599131 0.1602198 0.1604571 0.1606784 0.1609486
 0.161296 0.1617069 0.1621347 0.1625175 0.1628194 0.1630591 0.163286 0.1635311 0.1637953 0.1640716
 0.1643577 0.1646481 0.1649348 0.1652226 0.1655343 0.1658811 0.1662303 0.1665206 0.166723 0.1668757
 0.1670489 0.1672781 0.1675425 0.1677994 0.1680341 0.1682766 0.1685711 0.1689247 0.1692886 0.1695954
 0.1698166 0.1699799 0.170138 0.1703263 0.1705503 0.1707972 0.1710506 0.1712997 0.171542 0.1717823
 0.172024 0.1722654 0.1725029 0.1727362 0.1729668 0.1731973 0.1734316 0.1736731 0.1739257 0.1741998
 0.1745088 0.1748474 0.1751764 0.1754462 0.175639 0.1757819 0.1759199 0.1760831 0.1762761 0.1764887
 0.1767099 0.176934 0.17716 0.1773878 0.1776169 0.1778481 0.1780837 0.178324 0.1785646 0.1788003
 0.1790332 0.179275 0.179535 0.1798057 0.1800639 0.1802907 0.1804882 0.1806773 0.1808792 0.1810976
 0.1813183 0.1815282 0.181732 0.1819444 0.182169 0.1823944 0.1826101 0.1828176 0.1830241 0.1832329
 0.1834443 0.1836591 0.183877 0.1840937 0.1843052 0.1845137 0.184726 0.1849439 0.1851622 0.185377
 0.1855905 0.1858061 0.1860238 0.1862444 0.1864712 0.1867027 0.186929 0.18714 0.1873378 0.1875357
 0.1877435 0.1879565 0.188165 0.1883704 0.1885835 0.1888059 0.1890284 0.1892454 0.1894607 0.1896777
 0.1898955 0.1901134 0.1903315 0.1905479 0.1907614 0.1909753 0.1911942 0.1914197 0.1916496 0.1918799
 0.1921088 0.1923389 0.192572 0.1928038 0.1930262 0.1932331 0.1934234 0.1936034 0.1937847 0.1939722
 0.1941604 0.1943451 0.1945305 0.1947193 0.1949084 0.1950998 0.1953019 0.195519 0.1957444 0.1959672
 0.196181 0.1963897 0.1966023 0.1968217 0.197043 0.197265 0.1974905 0.1977159 0.1979342 0.1981447
 0.1983505 0.1985521 0.1987526 0.1989579 0.1991679 0.1993791 0.1995949 0.1998184 0.2000434 0.2002639
 0.2004813 0.2006974 0.2009126 0.2011304 0.2013511 0.201567 0.2017736 0.201974 0.202169 0.2023601
 0.2025572 0.202769 0.2029946 0.2032303 0.2034709 0.2037028 0.2039177 0.2041239 0.2043307 0.2045346
 0.2047347 0.2049392 0.2051509 0.2053674 0.2055916 0.205823 0.2060522 0.2062745 0.2064868 0.2066688
 0.2067709 0.2066666 0.206028 0.2042002 0.2001954 0.1929039 0.1815431 0.166155 0.1477598 0.1279919
 0.1085074 0.09056409 0.07490279 0.06184182 0.05144087 0.04361033 0.03817658 0.03498681 0.03402377 0.03552971
 0.04013932 0.04850293 0.05986624 0.07081352 0.07659809 0.07489124 0.06800887 0.06079832 0.05660769 0.05566727
 0.05653956 0.058001 0.05966667 0.06176047 0.06466426 0.06848635 0.07304524 0.07833861 0.08477031 0.09263995
 0.1015283 0.1104698 0.1187854 0.1266215 0.1346225 0.1431581 0.1519363 0.1602943 0.1677309 0.1741558
 0.1797789 0.1848748 0.189631 0.1941347 0.1984294 0.2025101 0.206232 0.2092758 0.2112994 0.2121949
 0.2122146 0.2118331 0.2114677 0.2113104 0.2113748 0.2116275 0.2120503 0.2126312 0.2133494 0.2141721
 0.2150565 0.215965 0.216875 0.2177686 0.2186227 0.2194188 0.2201512 0.2208195 0.2214245 0.2219695
 0.2224595 0.2229003 0.2233049 0.2236901 0.2240635 0.2244233 0.2247682 0.2250974 0.2254027 0.225672
 0.225901 0.2260994 0.2262868 0.2264807 0.2266846 0.2268904 0.2270926 0.2272935 0.2274947 0.2276928
 0.2278846 0.2280696 0.2282468 0.2284181 0.2285897 0.2287665 0.2289477 0.2291302 0.2293129 0.2294949
 0.2296752 0.2298535 0.2300302 0.2302058 0.2303828 0.2305635 0.2307466 0.23093 0.2311135 0.2312958
 0.2314759 0.2316616 0.2318619 0.2320721 0.2322784 0.2324768 0.2326742 0.2328755 0.2330815 0.2332914
 0.2334924 0.233662 0.2337927 0.2339088 0.2340486 0.2342321 0.2344472 0.2346651 0.2348669 0.235055
 0.2352381 0.235418 0.2355919 0.2357562 0.2359108 0.2360742 0.2362791 0.236533 0.2368006 0.2370448
 0.2372631 0.2374709 0.2376787 0.2378951 0.2381188 0.2383195 0.2384608 0.2385557 0.2386785 0.2389066
 0.2392426 0.2396043 0.2399045 0.2401349 0.2403492 0.240591 0.2408659 0.2411381 0.2413116 0.2412898
 0.2411301 0.2410735 0.2413306 0.2418736 0.2424917 0.2430039 0.24337 0.2436432 0.2438772 0.244072
 0.244179 0.2441606 0.2440723 0.2440815 0.2443509 0.2448698 0.2454468 0.2459033 0.246212 0.2464282
 0.2465912 0.2467231 0.2467886 0.2466327 0.2461436 0.2455523 0.2453786 0.2459326 0.2469646 0.2479275
 0.2485178 0.2488386 0.2490968 0.2493442 0.2495319 0.2495609 0.2491625 0.2480484 0.2464688 0.2453738
 0.2456312 0.2471564 0.2490638 0.2505515 0.2514063 0.2518162 0.2520329 0.2522027 0.252256 0.2519059
 0.2509712 0.2498178 0.2492732 0.2498605 0.2512073 0.2524469 0.2531067 0.2533556 0.2535355 0.2537759
 0.2539103 0.253435 0.2517948 0.2492104 0.2470942 0.2470585 0.2493367 0.2524943 0.2548422 0.2558915
 0.2562259 0.2562519 0.2556078 0.2538184 0.2510091 0.2478603 0.245385 0.2447696 0.2465855 0.249829
 0.2524984 0.2535613 0.2538198 0.2545887 0.256129 0.257659 0.2583709 0.2580584 0.256977 0.2553973
 0.2534745 0.2516543 0.2509235 0.2521136 0.2548861 0.2578465 0.2598301 0.2607884 0.2611822 0.2606172
 0.2575703 0.2512243 0.2437539 0.2397206 0.2420494 0.2489721 0.2559269 0.2600448 0.2617245 0.2624865
 0.2629279 0.2625613 0.2601073 0.2541937 0.245522 0.2382316 0.2371023 0.2428255 0.2512205 0.2571378
 0.2579668 0.2539056 0.2470331 0.2406905 0.2381219 0.2405115 0.2464638 0.2533797 0.2590185 0.262121
 0.2624007 0.2604185 0.257538 0.2555936 0.255562 0.2561162 0.2546309 0.250489 0.2461016 0.2433757
 0.2407807 0.2361989 0.2315772 0.2316486 0.2377711 0.2456454 0.2501429 0.2505112 0.2494498 0.2482084
 0.2444552 0.2356317 0.2237771 0.2156258 0.2167101 0.2256184 0.2352625 0.2398229 0.2393763 0.2378132
 0.2376511 0.2374689 0.2339114 0.2260624 0.2176662 0.2139852 0.2162142 0.2204207 0.2222101 0.2202362
 0.2146799 0.2058415 0.196649 0.1935655 0.2011403 0.2164452 0.2313692 0.2393033 0.2375743 0.22599
 0.2077327 0.1912651 0.1862272 0.1948142 0.2091054 0.2183444 0.2174854 0.2081082 0.1938046 0.1777008
 0.1638959 0.1579471 0.1635489 0.1787739 0.1961097 0.2062066 0.2030522 0.1886361 0.173346 0.1685054
 0.1760911 0.1873676 0.1926664 0.1901548 0.1845093 0.1808707 0.1818521 0.1870747 0.1935894 0.1986456
 0.2018894 0.2022949 0.1952121 0.1779762 0.1573804 0.1452037 0.1459685 0.1546357 0.1660463 0.179541
 0.1927901 0.1986187 0.1930982 0.1829817 0.1799501 0.1882052 0.2008619 0.2083511 0.2078755 0.2039206
 0.2013153 0.200092 0.1978757 0.1954332 0.1968843 0.2040216 0.2131814 0.219331 0.2213113 0.2213937
 0.2214318 0.2214553 0.220968 0.2197891 0.2179804 0.2159774 0.2144554 0.213567 0.212805 0.2117769
 0.2101894 0.2067077 0.1992489 0.1879346 0.1769572 0.1712772 0.1713872 0.1736352 0.1756586 0.1777725
 0.1778971 0.170118 0.1524854 0.1334316 0.1256433 0.1338134 0.1511453 0.1670929 0.1754063 0.174666
 0.1651795 0.1493043 0.1341107 0.1291492 0.1386297 0.1573716 0.176361 0.1905226 0.1992492 0.20208
 0.1978426 0.1878382 0.1770805 0.1714257 0.1740253 0.1839429 0.1964395 0.2041563 0.2007159 0.1870864
 0.1744253 0.1758321 0.1925622 0.2118938 0.2214337 0.2216823 0.2209471 0.222444 0.2227199 0.2207532
 0.2215906 0.2294211 0.2414081 0.2504843 0.2515652 0.2435584 0.2286835 0.2129521 0.204609 0.2075196
 0.2167501 0.2238992 0.2252072 0.2210994 0.2112538 0.1966207 0.1846029 0.1846136 0.1971774 0.2127025
 0.2223751 0.2261786 0.228903 0.2318951 0.2314426 0.2244236 0.2135273 0.2055896 0.2048364 0.2091943
 0.2138029 0.2161375 0.2160613 0.2129375 0.2060176 0.1976741 0.1934324 0.1971868 0.2071728 0.21761
 0.2238682 0.2253751 0.2242631 0.2226096 0.2210194 0.2188007 0.2153996 0.2122412 0.2124343 0.2174211
 0.2246363 0.2301222 0.2330526 0.2360031 0.240904 0.246361 0.2493375 0.2484698 0.2453735 0.243244
 0.2443011 0.2480324 0.2515734 0.2521509 0.2497195 0.2472477 0.2479811 0.2523444 0.2578879 0.2620645
 0.2643047 0.2654924 0.2664688 0.2673051 0.2672562 0.265333 0.2617226 0.2586195 0.2586692 0.2623354
 0.2674517 0.271451 0.2734258 0.2739763 0.2738133 0.2730181 0.2714508 0.2694202 0.2677026 0.2669395
 0.2671826 0.2680455 0.2691052 0.2700836 0.2708369 0.2713494 0.271695 0.2719375 0.2721037 0.2722388
 0.2723863 0.272502 0.2724977 0.2724057 0.2724065 0.2726235 0.2729587 0.2731944 0.2731932 0.2729102
 0.2722792 0.271233 0.269836 0.2682623 0.2665989 0.2647907 0.2628899 0.2613164 0.2607287 0.261533
 0.2635136 0.2659647 0.2681693 0.2697568 0.2707096 0.2711864 0.2713779 0.2714381 0.2714483 0.2714174
 0.2713243 0.2711624 0.270946 0.2706864 0.2703825 0.2700458 0.26972 0.2694539 0.2692524 0.269066
 0.2688258 0.2684876 0.2680547 0.2675728 0.2670887 0.2665969 0.2660296 0.265312 0.2644296 0.2634435
 0.262448 0.2615171 0.2606707 0.259871 0.2590531 0.2581668 0.2571806 0.2560562 0.2547716 0.2533962
 0.2520937 0.2510008 0.2501163 0.2493253 0.2485009 0.2475677 0.2465112 0.2453653 0.244178 0.2429715
 0.2417365 0.2404562 0.239118 0.237707 0.2362088 0.2346186 0.2329455 0.2312076 0.2294281 0.2276243
 0.2257841 0.2238399 0.2216713 0.2191422 0.2161363 0.2125717 0.2084217 0.2037534 0.1987339 0.19358
 0.1884949 0.1836414 0.1791453 0.1751071 0.1716148 0.1687434 0.1665407 0.1650238 0.1641945 0.1640528
 0.1645997 0.1658235 0.1676702 0.1700184 0.1726945 0.1755164 0.1783183 0.1809613 0.1833664 0.1855492
 0.1875937 0.1895709 0.1914814 0.1932748 0.1949083 0.1963692 0.1976475 0.1987182 0.1995693 0.2002316
 0.2007658 0.2012259 0.2016356 0.2019906 0.2022781 0.2024989 0.2026683 0.2028043 0.2029335 0.2031002
 0.203343 0.2036653 0.2040474 0.204481 0.2049749 0.2055325 0.2061405 0.2067787 0.2074382 0.2081324
 0.2088839 0.2097051 0.2106098 0.2116374 0.2128404 0.2142433 0.2158235 0.2175183 0.2192372 0.2208802
 0.2223594 0.2236087 0.224585 0.2252813 0.2257315 0.2259856 0.2260827 0.2260476 0.2258959 0.2256353
 0.2252681 0.224799 0.2242447 0.2236399 0.2230178 0.22238 0.2217047 0.2209914 0.2202712 0.2195669
 0.2188735 0.2181879 0.2175247 0.2168953 0.2162919 0.2156974 0.2150982 0.2144893 0.213875 0.2132608
 0.2126414 0.2119947 0.211286 0.2104845 0.2095838 0.2085986 0.2075306 0.2063573 0.2050673 0.2036872
 0.2022571 0.200791 0.1992703 0.1976679 0.1959752 0.1942037 0.192357 0.1904148 0.1883695 0.1862706
 0.1842096 0.1822628 0.1804611 0.1787942 0.1772266 0.1757259 0.1742863 0.1729171 0.1716173 0.1703783
 0.169198 0.1680716 0.1669824 0.1659222 0.1649115 0.1639876 0.1631768 0.1624783 0.1618698 0.1613289
 0.1608492 0.1604367 0.1601064 0.1598821 0.1597793 0.1597744 0.1598059 0.1598086 0.1597439 0.1596099
 0.159441 0.1592838 0.1591591 0.1590557 0.1589517 0.1588115 0.1585661 0.1581323 0.1574529 0.1565026
 0.1552702 0.1537578 0.1520027 0.1500961 0.1481829 0.1464217 0.1449226 0.1437225 0.1428043 0.1421137
 0.1415708 0.1411092 0.1407204 0.1404542 0.1403732 0.1404845 0.1406884 0.1408257 0.1408242 0.1407835
 0.1408862 0.1412435 0.1418353 0.1425507 0.1432605 0.1438768 0.1443636 0.1447079 0.1449119 0.1450071
 0.1450268 0.1449657 0.1448043 0.1445554 0.1442503 0.1439058 0.1435219 0.1430833 0.1425594 0.1419349
 0.141229 0.1404625 0.1396324 0.1387201 0.1376912 0.1365196 0.1352766 0.1341695 0.1334405 0.1332377
 0.1335671 0.1342985 0.1352372 0.136245 0.137233 0.1380076 0.1383191 0.1382394 0.1383553 0.1393379
 0.1412909 0.1436399 0.1456582 0.1469823 0.1476178 0.1476565 0.1471547 0.146169 0.1447181 0.1427574
 0.140303 0.1374944 0.1344791 0.1313776 0.1283793 0.1257022 0.1234532 0.1216314 0.1202048 0.1192043
 0.1187654 0.1185205 0.1166075 0.1106647 0.1014894 0.0946446 0.09577498 0.1042493 0.1136085 0.118394
 0.1184901 0.1168262 0.115402 0.1145108 0.1140464 0.1141388 0.114902 0.1161943 0.1176335 0.1188185
 0.1195896 0.1199942 0.11999 0.1192201 0.1169689 0.112402 0.1052326 0.09631729 0.08736104 0.07991411
 0.07468137 0.0715533 0.06994408 0.0691416 0.06866089 0.0684493 0.06876582 0.0698601 0.07176217 0.07433629
 0.07742417 0.08080776 0.08408921 0.08683971 0.08893307 0.0905658 0.09191238 0.09291985 0.09345339 0.09348206
 0.09309343 0.09243744 0.09167467 0.09089883 0.09007038 0.0890625 0.08784346 0.08662918 0.08576328 0.08539206
 0.08534524 0.08537126 0.08536503 0.08533192 0.08527876 0.085205 0.08512197 0.08507264 0.08516338 0.08549884
 0.08603484 0.08657476 0.08694738 0.08713443 0.08722101 0.08723806 0.08704491 0.08645666 0.0855732 0.08480336
 0.08435556 0.08388829 0.08295792 0.08168967 0.08070446 0.08042896 0.08071032 0.08108024 0.08119463 0.08100842
 0.08071835 0.08063983 0.08100144 0.08168352</values></Ydata></ScSm><ScRf><Ydata ylabel="Single channel"><values byteorder="INTEL" format="FLOAT32" numvalues="1820"> 0.06080065 0.06095853 0.06105169 0.06108594 0.06108797 0.06109883 0.06116186 0.06129865 0.06148913 0.0616771
 0.06180815 0.06186892 0.06187879 0.06184961 0.06178699 0.061734 0.06176671 0.06191812 0.06212778 0.0622848
 0.06231912 0.06226224 0.06222565 0.06229138 0.06239917 0.06236565 0.0620565 0.06154424 0.06106233 0.06079049
 0.06074318 0.06091033 0.06137282 0.06208115 0.06260655 0.06244605 0.06165132 0.06086334 0.06060287 0.06077377
 0.06095423 0.06088759 0.06056407 0.06013114 0.05994198 0.06045815 0.06179437 0.06334619 0.06401046 0.06288324
 0.05990516 0.05606556 0.05303562 0.05226916 0.05397849 0.05684938 0.05903056 0.05960886 0.05904163 0.05821766
 0.05749762 0.05683342 0.05639469 0.05660503 0.05756089 0.05863474 0.05879951 0.05751109 0.05535697 0.05363784
 0.05317856 0.05381116 0.0550731 0.05671085 0.05797263 0.0572066 0.05348618 0.04866674 0.04656027 0.04931436
 0.05511914 0.05997143 0.06123331 0.05911877 0.05553965 0.05251738 0.0514104 0.05255014 0.05519349 0.05813913
 0.06045081 0.06149607 0.06078678 0.05840789 0.05543299 0.05340258 0.05337819 0.05552791 0.05909246 0.06245462
 0.06387278 0.0627666 0.06010437 0.05738307 0.05564225 0.05546503 0.05713011 0.06032628 0.06412714 0.06751928
 0.06981433 0.07073241 0.07047044 0.06957563 0.06852654 0.06764537 0.06738053 0.06803305 0.06902072 0.06909972
 0.06771801 0.06575761 0.06462982 0.06481971 0.06550276 0.06554896 0.06466585 0.06321315 0.06108396 0.05768176
 0.05328238 0.04940253 0.0472846 0.04694861 0.0480907 0.05056614 0.05332837 0.05436795 0.05291095 0.05082214
 0.05075474 0.05331857 0.05676597 0.05912747 0.06003902 0.06059839 0.0619525 0.06412402 0.06587382 0.06563517
 0.0630623 0.05990029 0.05875553 0.06054205 0.06360389 0.06575394 0.06658134 0.06721656 0.0683478 0.06914918
 0.06814224 0.0649578 0.06127595 0.05978143 0.06182117 0.06605448 0.06942706 0.06942791 0.06577936 0.06049872
 0.05632669 0.0548289 0.05598702 0.05925738 0.0641717 0.06976763 0.07432956 0.0763493 0.07562034 0.07316972
 0.07008053 0.06648318 0.06210447 0.05793101 0.05643006 0.05922588 0.0650277 0.07070139 0.07406449 0.07498141
 0.07415713 0.07179759 0.06780612 0.06308381 0.0599602 0.06038497 0.06357662 0.06646292 0.06689537 0.06560816
 0.06464114 0.0647976 0.06534146 0.06556378 0.06580332 0.06687754 0.06891507 0.07104401 0.07223313 0.07222687
 0.07159281 0.07105944 0.07085171 0.0705262 0.06960184 0.06853178 0.06864174 0.07067347 0.07375698 0.07630221
 0.0775923 0.07803831 0.07810695 0.07750251 0.07559022 0.07258154 0.07002177 0.06964456 0.07169395 0.07476734
 0.07727386 0.07858309 0.07888015 0.07858564 0.07806718 0.07752282 0.07704657 0.07688699 0.07738467 0.07848662
 0.07963267 0.08031732 0.08050624 0.08038436 0.07999283 0.07930284 0.0784792 0.07788795 0.07783435 0.07833467
 0.07915463 0.08001998 0.08071607 0.08105145 0.08092435 0.08046867 0.07997728 0.07963489 0.07944942 0.0794358
 0.07968254 0.08018433 0.08075356 0.08117598 0.08138067 0.08141948 0.08135256 0.08120391 0.08099623 0.08079648
 0.0807188 0.08084759 0.0811341 0.08142424 0.0816361 0.08184388 0.08211885 0.08236423 0.08241308 0.08225027
 0.08203872 0.0819395 0.0819795 0.0820874 0.08218014 0.08217902 0.08200105 0.08163044 0.08121634 0.08101717
 0.08119345 0.0816936 0.08234722 0.08298738 0.08347581 0.08373149 0.08379254 0.08377527 0.08373658 0.08363257
 0.08342807 0.0832001 0.08311313 0.08329316 0.08371298 0.08420524 0.08459875 0.08482599 0.08491497 0.08494888
 0.08503664 0.0852287 0.08543545 0.08550823 0.08542519 0.08532792 0.08535235 0.08547814 0.08557013 0.08554047
 0.08544761 0.08543342 0.08557221 0.0858037 0.08601895 0.08618204 0.08634566 0.08655711 0.08676728 0.08685248
 0.08674638 0.0865324 0.0863627 0.08630051 0.08630122 0.08633743 0.08645496 0.08667524 0.08691119 0.08703974
 0.08703896 0.08700834 0.08704703 0.08713951 0.0871799 0.08709331 0.08691075 0.08673272 0.08664437 0.08666493
 0.08675006 0.08682659 0.08683581 0.08676359 0.08664039 0.08651331 0.08641615 0.08637003 0.08640739 0.08656412
 0.08681727 0.08704416 0.08709127 0.08691251 0.08662666 0.08641575 0.08636159 0.08638725 0.08635245 0.08618888
 0.0859395 0.08569197 0.08550102 0.08536851 0.08526844 0.08518013 0.08511488 0.08511881 0.08522622 0.08538995
 0.08548011 0.08539069 0.08514549 0.08487381 0.08468959 0.08461693 0.08461156 0.08461649 0.08460873 0.08461908
 0.08468778 0.08478604 0.08482203 0.08474942 0.08462939 0.0845656 0.08461821 0.0847862 0.08501175 0.08518656
 0.08521809 0.08512199 0.0850115 0.08497955 0.08502501 0.08509928 0.08517917 0.08527046 0.08537253 0.08547592
 0.08559102 0.08575231 0.08598164 0.08625357 0.08650503 0.0866818 0.08678178 0.08686189 0.08700146 0.0872446
 0.08756551 0.08788794 0.08814645 0.08833607 0.08850274 0.08868496 0.08887956 0.08907545 0.08929776 0.08958451
 0.08992786 0.0902738 0.09058177 0.09085771 0.0911289 0.09141116 0.09170648 0.09202015 0.09237268 0.09278253
 0.09322259 0.09360795 0.09386025 0.09398937 0.09409496 0.09428914 0.09461795 0.09502736 0.09538813 0.0955928
 0.09566325 0.09573708 0.09591886 0.09617655 0.09641975 0.09664325 0.09693454 0.09734566 0.09780894 0.0981987
 0.09845273 0.0986183 0.09878638 0.09899152 0.09918371 0.09930223 0.09936062 0.09943208 0.09955992 0.09972793
 0.09992921 0.1002091 0.1005996 0.101046 0.1014443 0.1017351 0.1019309 0.1020709 0.1021829 0.1022726
 0.1023269 0.1023408 0.1023503 0.1024085 0.1025161 0.1026132 0.1026588 0.1026857 0.1027555 0.1028974
 0.1031123 0.1033973 0.1037261 0.1040367 0.1042903 0.1045354 0.1048579 0.1052536 0.1055986 0.1057795
 0.1058157 0.1058127 0.1058314 0.1058656 0.1059255 0.1060664 0.1063186 0.1066436 0.1069827 0.1073168
 0.1076583 0.1080056 0.1083231 0.1085568 0.1086693 0.1086712 0.1086264 0.1086231 0.1087306 0.1089655
 0.109285 0.1096151 0.1098955 0.1100956 0.1101947 0.1101819 0.1101012 0.1100629 0.1101585 0.1103568
 0.1105186 0.1105158 0.1103132 0.1099398 0.1094256 0.1087954 0.1081029 0.1074358 0.1068789 0.106479
 0.1062521 0.1062215 0.1064287 0.1068868 0.1075283 0.1082268 0.108872 0.1093931 0.1097117 0.1097298
 0.1094044 0.1088071 0.1080796 0.1073456 0.1066714 0.1060692 0.1055042 0.1049364 0.1044044 0.1040622
 0.1041064 0.1046593 0.1057074 0.1071111 0.1086525 0.1101089 0.1113352 0.1123107 0.1131097 0.1138226
 0.1145001 0.1151619 0.1158273 0.1165022 0.1171497 0.1177138 0.1181831 0.1186012 0.1190091 0.119404
 0.1197555 0.1200381 0.1202545 0.1204409 0.1206359 0.1208248 0.1209416 0.1209444 0.120863 0.1207537
 0.1206309 0.1204609 0.1201989 0.1198245 0.1193745 0.1189692 0.1187929 0.1190126 0.1196858 0.1207306
 0.1219871 0.1233122 0.1246093 0.1257858 0.1267373 0.1274073 0.12784 0.1281434 0.1284107 0.1286879
 0.128988 0.1293069 0.1296277 0.1299326 0.1302162 0.130493 0.1307892 0.1311188 0.13146 0.1317672
 0.1320184 0.1322464 0.1325147 0.132859 0.1332518 0.1336288 0.1339563 0.1342623 0.1345836 0.1348978
 0.1351446 0.1353101 0.1354552 0.1356558 0.1359442 0.1363046 0.1366881 0.1370285 0.1372796 0.1374545
 0.1376102 0.1377929 0.1380106 0.138252 0.1385076 0.1387675 0.1390209 0.1392732 0.1395504 0.1398677
 0.1401919 0.1404572 0.14063 0.140749 0.140888 0.1410858 0.1413204 0.1415448 0.1417407 0.1419375
 0.1421809 0.1424798 0.1427887 0.1430466 0.1432299 0.1433646 0.143495 0.1436518 0.1438419 0.1440542
 0.1442698 0.1444744 0.1446672 0.1448612 0.1450724 0.1453047 0.1455442 0.1457697 0.1459689 0.1461481
 0.1463262 0.1465181 0.1467271 0.146959 0.1472295 0.1475409 0.1478555 0.1481165 0.1483006 0.1484341
 0.1485573 0.148692 0.1488443 0.1490188 0.149218 0.1494344 0.1496524 0.1498582 0.1500492 0.1502327
 0.1504174 0.1506083 0.1508072 0.1510164 0.1512387 0.1514757 0.1517241 0.1519708 0.1521982 0.1523983
 0.1525803 0.1527624 0.1529564 0.1531602 0.1533601 0.1535443 0.1537161 0.1538908 0.1540778 0.1542735
 0.1544705 0.1546648 0.1548552 0.1550423 0.1552305 0.1554258 0.1556293 0.1558352 0.156036 0.1562302
 0.1564229 0.156619 0.1568175 0.1570149 0.1572109 0.1574086 0.1576116 0.1578225 0.1580399 0.1582559
 0.1584608 0.1586525 0.158837 0.1590205 0.1592045 0.1593871 0.1595677 0.159749 0.1599349 0.1601275
 0.1603279 0.1605376 0.160756 0.1609803 0.1612086 0.1614405 0.1616731 0.1618997 0.1621138 0.1623131
 0.1625032 0.1626982 0.1629097 0.1631342 0.1633589 0.1635777 0.1637934 0.1640067 0.1642124 0.1644053
 0.164584 0.1647519 0.1649169 0.1650863 0.1652617 0.1654405 0.1656208 0.1658032 0.1659921 0.1661922
 0.1664 0.1666058 0.1668071 0.1670103 0.1672175 0.167424 0.1676275 0.1678294 0.1680285 0.1682229
 0.1684159 0.1686136 0.1688197 0.1690338 0.1692483 0.169453 0.1696477 0.1698425 0.1700453 0.1702553
 0.1704702 0.170687 0.1709016 0.1711138 0.1713247 0.1715304 0.1717277 0.1719231 0.1721267 0.1723419
 0.1725682 0.1728016 0.1730313 0.1732485 0.1734549 0.1736565 0.1738556 0.1740564 0.1742626 0.1744696
 0.1746729 0.1748779 0.1750896 0.1753037 0.1755188 0.1757394 0.1759657 0.1761953 0.17643 0.1766638
 0.1768797 0.1770695 0.1772411 0.1773992 0.1775154 0.1774739 0.1769744 0.1754422 0.1720289 0.1657812
 0.1560194 0.1427712 0.1269161 0.1098735 0.09308119 0.07762457 0.06413682 0.05288963 0.04393686 0.0372031
 0.03253591 0.02979732 0.02896896 0.03026535 0.03424706 0.04148419 0.05132144 0.06079699 0.06580127 0.0643213
 0.05836536 0.05213423 0.04852944 0.04774607 0.04852728 0.04980172 0.05123483 0.05303308 0.05554409 0.05886889
 0.06284451 0.06746003 0.07306105 0.07990615 0.08763309 0.09540971 0.1026511 0.1094794 0.116444 0.1238638
 0.1314952 0.1387729 0.1452593 0.1508662 0.155774 0.1602342 0.1644212 0.1684029 0.1721947 0.1757787
 0.1790382 0.1817134 0.1835116 0.1843281 0.1843741 0.1840682 0.1837831 0.1836867 0.183788 0.1840587
 0.1844826 0.1850415 0.1857105 0.1864624 0.1872655 0.1880874 0.1889061 0.1897059 0.1904721 0.1911968
 0.1918781 0.1925099 0.1930834 0.1935989 0.1940651 0.1944918 0.1948903 0.1952723 0.1956416 0.1959969
 0.1963373 0.1966592 0.1969547 0.1972243 0.1974791 0.197724 0.1979513 0.1981575 0.1983535 0.1985541
 0.1987652 0.1989825 0.1991984 0.1994086 0.1996127 0.1998112 0.2000074 0.2002115 0.2004301 0.2006521
 0.2008585 0.2010466 0.2012309 0.2014197 0.2016069 0.2017877 0.2019676 0.2021526 0.2023417 0.2025312
 0.2027219 0.202918 0.20312 0.2033218 0.2035207 0.2037254 0.2039445 0.204172 0.2043941 0.2046057
 0.2048098 0.2050079 0.2052032 0.2054038 0.2056099 0.2058067 0.2059807 0.2061406 0.2063147 0.2065246
 0.2067618 0.2069932 0.2071958 0.2073779 0.2075616 0.2077548 0.2079485 0.2081303 0.2082988 0.2084742
 0.2086872 0.2089429 0.2092142 0.2094778 0.2097356 0.2099882 0.2102237 0.2104389 0.2106411 0.210821
 0.2109599 0.2110758 0.2112375 0.211511 0.2118882 0.2122783 0.2125892 0.2128103 0.2130017 0.2132204
 0.213484 0.2137631 0.2139654 0.2139957 0.2139015 0.2139013 0.2141843 0.2147172 0.215304 0.2157886
 0.2161489 0.2164377 0.2166983 0.2169244 0.2170702 0.2171008 0.2170626 0.2171018 0.217366 0.217854
 0.218403 0.218852 0.2191692 0.2194011 0.2195874 0.2197515 0.2198603 0.2197704 0.2193798 0.218898
 0.2187936 0.2193393 0.2203044 0.2212027 0.2217747 0.2221142 0.2223944 0.2226519 0.2228474 0.2229043
 0.2225908 0.2216499 0.2202992 0.219382 0.2196713 0.2210881 0.2228346 0.2241944 0.2249886 0.2253989
 0.2256536 0.2258743 0.2259862 0.2257272 0.2249395 0.2239568 0.2235216 0.2241024 0.2253683 0.2265407
 0.227186 0.2274492 0.2276453 0.2279062 0.2280883 0.2277275 0.2263057 0.2240158 0.2221419 0.2221501
 0.2242519 0.2271491 0.2293226 0.2303385 0.2307184 0.2308141 0.2302918 0.2287317 0.2262577 0.2234796
 0.2212989 0.2207845 0.2224641 0.2254391 0.2278976 0.2289043 0.2291912 0.2299551 0.2314308 0.2329013
 0.2336252 0.233411 0.2324919 0.2311137 0.2294151 0.2278062 0.2271973 0.2283495 0.2309444 0.2337007
 0.235559 0.2364841 0.2369039 0.2364608 0.233762 0.2280545 0.2213158 0.2177054 0.2198918 0.2262633
 0.2326614 0.2364722 0.2380612 0.238816 0.2392809 0.2390108 0.2368399 0.2315194 0.2236899 0.2171229
 0.216173 0.2214684 0.2291996 0.2346757 0.235515 0.2318903 0.225695 0.2199858 0.2177331 0.2200188
 0.2255611 0.2319778 0.23722 0.2401461 0.2405022 0.2387926 0.2362466 0.2345418 0.2345884 0.2351792
 0.2339035 0.2301958 0.2262763 0.2238918 0.2216174 0.2174961 0.2133289 0.2134914 0.219244 0.2266246
 0.2309019 0.2313735 0.2305124 0.2294556 0.2260528 0.2179613 0.2070881 0.1996731 0.200834 0.2092516
 0.2183476 0.2227283 0.2224705 0.2211837 0.2212001 0.2211955 0.2180431 0.2108864 0.2032265 0.1999898
 0.2022918 0.2064411 0.2083181 0.2066648 0.2016518 0.1935592 0.185142 0.182489 0.1898964 0.2046177
 0.2190066 0.2268068 0.2254482 0.2147003 0.197575 0.1821636 0.1776999 0.1862931 0.2003665 0.2096225
 0.2092093 0.2005996 0.187207 0.1720521 0.1591488 0.1539423 0.1600654 0.1756568 0.1933518 0.2039156
 0.201354 0.1876092 0.1730224 0.1688941 0.1771701 0.1890688 0.1949032 0.1928672 0.1876805 0.1845335
 0.1860967 0.1919993 0.1992155 0.2049233 0.2087609 0.2096219 0.2026177 0.1849495 0.1636894 0.1511201
 0.1519844 0.161063 0.1729846 0.1870482 0.2008183 0.2068228 0.2009719 0.1902992 0.1869667 0.1953518
 0.2083031 0.2158897 0.2152341 0.2110314 0.2083182 0.2071196 0.2049469 0.2025861 0.2043145 0.2119875
 0.2217962 0.2285259 0.2309861 0.2315333 0.232077 0.2326288 0.2326542 0.2319539 0.2305955 0.2290458
 0.2280227 0.2276896 0.2275054 0.2270434 0.225974 0.2228313 0.2153245 0.2035559 0.1920688 0.1862449
 0.1865969 0.1891449 0.1913413 0.1935547 0.1935387 0.1848787 0.1654595 0.1444168 0.1354884 0.1437358
 0.1617727 0.1781867 0.1862864 0.1846789 0.1738585 0.1564087 0.139717 0.1336518 0.1425112 0.1609024
 0.179508 0.1931063 0.2011389 0.2032582 0.1983656 0.1877935 0.1765609 0.1704975 0.172703 0.1821927
 0.1942182 0.2014813 0.1977134 0.1839164 0.1710961 0.1721286 0.1882489 0.2069826 0.216167 0.2162581
 0.2153647 0.2166426 0.2167509 0.2147237 0.2154987 0.2231578 0.2349303 0.2439269 0.2451853 0.2376215
 0.2233921 0.2083915 0.2007107 0.2041112 0.2136818 0.2211218 0.2227385 0.2189582 0.2094444 0.1951452
 0.183458 0.1837804 0.1966316 0.2124342 0.2223988 0.226528 0.2296168 0.2329894 0.2328874 0.226159
 0.2155252 0.2079005 0.2075568 0.2123956 0.2175113 0.2203671 0.2208121 0.2181395 0.2115305 0.2034057
 0.1994616 0.203716 0.2143257 0.2252804 0.2317568 0.2331347 0.2315985 0.2292999 0.2269066 0.2237704
 0.2193658 0.2151568 0.2143129 0.218325 0.2246351 0.2292679 0.2313834 0.2335548 0.237725 0.2425318
 0.2449705 0.2436768 0.2402208 0.2377273 0.2383651 0.2416355 0.2447526 0.2450192 0.2423917 0.2397645
 0.2403034 0.2444185 0.249717 0.2537241 0.2558994 0.2571021 0.2581266 0.2590132 0.2590215 0.2571872
 0.253688 0.2506434 0.2506154 0.2540687 0.2589271 0.2627206 0.2645833 0.2651095 0.2649904 0.2642945
 0.2628731 0.2610113 0.2594415 0.2587638 0.2590161 0.2598246 0.260796 0.2616894 0.2623871 0.2628697
 0.2631876 0.2633878 0.2634976 0.2635709 0.2636592 0.2637228 0.263672 0.263537 0.2634987 0.2636832
 0.2639967 0.2642317 0.2642642 0.2640551 0.2635282 0.2625917 0.2612911 0.2598092 0.2582642 0.2566155
 0.2548914 0.2534733 0.2530026 0.2538914 0.2559286 0.2584056 0.2606128 0.2622021 0.2631737 0.2636795
 0.2638914 0.2639548 0.2639561 0.2639077 0.263785 0.2635754 0.2632895 0.2629406 0.262541 0.2621183
 0.2617231 0.2613991 0.261142 0.2608956 0.2605927 0.2601987 0.2597225 0.2591972 0.2586496 0.258074
 0.257431 0.2566772 0.2558021 0.2548447 0.2538842 0.2529998 0.2522155 0.2514799 0.2507189 0.249897
 0.2490058 0.2480161 0.2469047 0.2457366 0.2446608 0.2437862 0.2430893 0.2424601 0.2418004 0.2410538
 0.2401902 0.2392125 0.2381634 0.237091 0.2360086 0.2348997 0.2337396 0.2324995 0.2311549 0.2297054
 0.2281751 0.2265917 0.2249793 0.2233587 0.2217179 0.2199798 0.2180165 0.2156963 0.2129079 0.2095658
 0.2056348 0.2011702 0.1963312 0.1913402 0.186417 0.1817337 0.1774102 0.1735329 0.1701699 0.1673852
 0.1652462 0.1638115 0.1631063 0.163121 0.1638311 0.1652043 0.1671783 0.1696422 0.1724439 0.1754138
 0.1783833 0.1812033 0.1837851 0.1861382 0.1883468 0.1904752 0.1925011 0.1943522 0.1959868 0.1974104
 0.1986348 0.19966 0.2004991 0.20119 0.2017732 0.2022676 0.2026785 0.2030195 0.203314 0.2035771
 0.2038131 0.2040302 0.2042426 0.2044531 0.2046553 0.2048582 0.2050941 0.2054005 0.2057993 0.2062837
 0.2068157 0.20735 0.2078733 0.2084101 0.2089898 0.209626 0.210335 0.2111529 0.2121167 0.2132366
 0.214491 0.2158411 0.2172332 0.2185887 0.2198125 0.2208289 0.2216056 0.2221384 0.2224336 0.222514
 0.2224238 0.2222046 0.2218809 0.2214755 0.2210201 0.2205346 0.2200111 0.2194293 0.2187839 0.2180878
 0.2173584 0.2166127 0.2158732 0.2151645 0.2144957 0.2138548 0.2132279 0.2126157 0.2120227 0.2114434
 0.210869 0.2103001 0.2097427 0.2091951 0.2086408 0.2080489 0.2073827 0.2066186 0.2057612 0.204834
 0.2038502 0.2027941 0.2016339 0.2003529 0.1989644 0.1974969 0.195969 0.1943843 0.1927444 0.1910484
 0.1892731 0.1873782 0.1853571 0.1832805 0.1812661 0.1794019 0.1777048 0.1761392 0.1746589 0.1732363
 0.1718713 0.1705756 0.1693507 0.168191 0.1670979 0.1660724 0.1650968 0.1641469 0.1632255 0.1623686
 0.1616157 0.1609792 0.1604413 0.159979 0.159581 0.1592455 0.1589806 0.1588136 0.1587704 0.158827
 0.1589059 0.1589324 0.1588791 0.1587608 0.1586151 0.1584846 0.1583926 0.1583345 0.1582903 0.1582272
 0.1580878 0.1577924 0.1572551 0.1563984 0.1551839 0.1536452 0.1518779 0.1500057 0.1481653 0.14649
 0.1450672 0.1439209 0.1430357 0.1423697 0.1418522 0.141421 0.1410746 0.1408724 0.1408772 0.1410778
 0.1413489 0.141524 0.1415526 0.1415572 0.141718 0.1421334 0.1427843 0.1435633 0.144331 0.1449921
 0.1455199 0.1459082 0.1461493 0.1462643 0.1462936 0.1462518 0.146135 0.1459506 0.1457091 0.1454151
 0.1450768 0.1446892 0.1442212 0.1436527 0.1429916 0.1422419 0.1414047 0.1404929 0.1394891 0.1383419
 0.137093 0.1359584 0.135217 0.1350458 0.1354498 0.136271 0.1372859 0.1383508 0.1393841 0.1401932
 0.140532 0.1404886 0.1406622 0.1417257 0.1437829 0.1462515 0.1483839 0.1498051 0.1505287 0.1506495
 0.1502136 0.1492735 0.1478487 0.1458839 0.1433861 0.1405052 0.1374127 0.1342528 0.1312261 0.1285306
 0.1262411 0.124362 0.1229022 0.1219181 0.1215446 0.1213976 0.1195522 0.1135529 0.1042034 0.09723599
 0.0984716 0.1072648 0.1169657 0.1219341 0.1220182 0.1202372 0.1186901 0.1177039 0.117167 0.1172158
 0.1179748 0.1192878 0.1207467 0.1219349 0.122686 0.1230561 0.1230265 0.1222384 0.1199274 0.1152098
 0.1078006 0.09860153 0.08937602 0.08172271 0.07636502 0.07318364 0.07157296 0.07078718 0.07029267 0.07001887
 0.07026716 0.07133989 0.07327637 0.07592134 0.0790956 0.08255781 0.08589645 0.08869909 0.09086727 0.0926028
 0.09405868 0.09514797 0.09571176 0.09573181 0.09533447 0.09468435 0.09392205 0.09312955 0.09228074 0.09126399
 0.09005368 0.08885777 0.08798753 0.08756068 0.08743209 0.08740951 0.08740929 0.08740313 0.08735658 0.08725794
 0.08713973 0.08707432 0.08716867 0.08749705 0.08800015 0.08849967 0.08883394 0.08896662 0.08897713 0.08893012
 0.08873208 0.08821705 0.08745056 0.08676735 0.08632305 0.08579141 0.08478126 0.08344723 0.08240594 0.0820716
 0.08229068 0.08261508 0.08272694 0.08257317 0.08230457 0.08220702 0.08252856 0.08318595 0.08372422 0.08373722
</values></Ydata></ScRf><Data_Parameters_AB><parameter name="DPF">1</parameter><parameter name="NPT">3497</parameter><parameter name="FXV">3996</parameter><parameter name="LXV">500</parameter><parameter name="CSF">1</parameter><parameter name="MXY">0.037175714969635</parameter><parameter name="MNY">-0.104703098535538</parameter><parameter name="DAT">31/05/2022</parameter><parameter name="TIM">14:36:58.030 (GMT+2)</parameter><parameter name="DXU">WN</parameter></Data_Parameters_AB><AB__Qtest><MainReport name="Quality Test Report"><Header><Line><Legend>Test result ok/not ok [1/0]: </Legend><Value>0</Value></Line><Line><Legend>Method file: </Legend><Value>C:\Users\Public\Documents\Bruker\OPUS_8.2.28\QT\IRBT_v3_default.QT</Value></Line></Header><Matrix><Line><Legend></Legend><Legend>min</Legend><Legend>max</Legend><Legend>measured</Legend></Line><Line><Value>Absorption (X-Range 1):</Value><Value>0.400000</Value><Value>2.000000</Value><Value>0.076080</Value></Line><Line><Value>Noise (X-Range 4):</Value><Value></Value><Value>0.000300</Value><Value>0.000067</Value></Line><Line><Value>Signal/Noise (X-Range 2):</Value><Value>200.000000</Value><Value></Value><Value>16.190134</Value></Line><Line><Value>Signal/Noise (X-Range 3):</Value><Value>40.000000</Value><Value></Value><Value>8.164773</Value></Line><Line><Value>Water vapour (X-Range 5):</Value><Value></Value><Value>0.000300</Value><Value>0.000004</Value></Line><Line><Value>Signal/Water (X-Range 2):</Value><Value>100.000000</Value><Value></Value><Value>303.251862</Value></Line><Line><Value>Signal/Water (X-Range 3):</Value><Value>20.000000</Value><Value></Value><Value>152.931567</Value></Line><Line><Value>Fringes (X-Range 6):</Value><Value></Value><Value>0.000100</Value><Value>0.000070</Value></Line></Matrix></MainReport></AB__Qtest><Data_Parameters_ScSm><parameter name="DPF">1</parameter><parameter name="NPT">1814</parameter><parameter name="FXV">3996.33169228125</parameter><parameter name="LXV">499.541461535156</parameter><parameter name="CSF">1</parameter><parameter name="MXY">0.27397632598877</parameter><parameter name="MNY">0.0340237691998482</parameter><parameter name="DAT">31/05/2022</parameter><parameter name="TIM">14:36:58.030 (GMT+2)</parameter><parameter name="DXU">WN</parameter></Data_Parameters_ScSm><Data_Parameters_ScRf><parameter name="DPF">1</parameter><parameter name="NPT">1820</parameter><parameter name="FXV">4004.04661832813</parameter><parameter name="LXV">495.683998511719</parameter><parameter name="CSF">1</parameter><parameter name="MXY">0.265109479427338</parameter><parameter name="MNY">0.0289689619094133</parameter><parameter name="DAT">31/05/2022</parameter><parameter name="TIM">14:36:31.269 (GMT+2)</parameter><parameter name="DXU">WN</parameter></Data_Parameters_ScRf><Optic_Parameters_Rf><parameter name="APR">0</parameter><parameter name="APT">Open</parameter><parameter name="BMS">KBr</parameter><parameter name="DTC">RT-DLaTGS_IR-Biotyper [Microplate reader]</parameter><parameter name="HPF">0</parameter><parameter name="LPF">10.0</parameter><parameter name="LPV">4000</parameter><parameter name="PGR">0</parameter><parameter name="RCH">Module port</parameter><parameter name="RDX">0</parameter><parameter name="SRC">MIR</parameter><parameter name="VEL">10.0</parameter><parameter name="SON">Off</parameter></Optic_Parameters_Rf><Acquisition_Parameters_Rf><parameter name="ADT">1</parameter><parameter name="AQM">DD</parameter><parameter name="CFE">0</parameter><parameter name="COR">0</parameter><parameter name="DEL">0</parameter><parameter name="DLY">0</parameter><parameter name="HFW">8000</parameter><parameter name="LFW">0</parameter><parameter name="NSR">32</parameter><parameter name="PLF">AB</parameter><parameter name="RES">6</parameter><parameter name="RGN">-1</parameter><parameter name="STR">0</parameter><parameter name="TCL">MakeCompatibleScalar (0, {WSV=1.000000, ARV=0});</parameter><parameter name="TDL">37</parameter><parameter name="RPO">0</parameter></Acquisition_Parameters_Rf><FT_-_Parameters_Rf><parameter name="APF">B3</parameter><parameter name="HFQ">500</parameter><parameter name="LFQ">4000</parameter><parameter name="NLI">0</parameter><parameter name="PHR">24</parameter><parameter name="PHZ">ML</parameter><parameter name="SPZ">NO</parameter><parameter name="ZFF">1</parameter></FT_-_Parameters_Rf><Optic_Parameters_><parameter name="APR">0</parameter><parameter name="APT">Open</parameter><parameter name="BMS">KBr</parameter><parameter name="CHN">Module port</parameter><parameter name="DTC">RT-DLaTGS_IR-Biotyper [Microplate reader]</parameter><parameter name="HPF">0</parameter><parameter name="LPF">10.0</parameter><parameter name="LPV">4000</parameter><parameter name="PGN">0</parameter><parameter name="RDX">0</parameter><parameter name="SRC">MIR</parameter><parameter name="VEL">10.0</parameter><parameter name="SON">Off</parameter></Optic_Parameters_><FT_-_Parameters_><parameter name="APF">B3</parameter><parameter name="HFQ">500</parameter><parameter name="LFQ">4000</parameter><parameter name="NLI">0</parameter><parameter name="PHR">24</parameter><parameter name="PHZ">ML</parameter><parameter name="SPZ">NO</parameter><parameter name="ZFF">1</parameter></FT_-_Parameters_><Acquisition_Parameters_><parameter name="ADT">1</parameter><parameter name="AQM">DD</parameter><parameter name="CFE">0</parameter><parameter name="COR">0</parameter><parameter name="DEL">0</parameter><parameter name="DLY">0</parameter><parameter name="HFW">8000</parameter><parameter name="LFW">0</parameter><parameter name="NSS">32</parameter><parameter name="PLF">AB</parameter><parameter name="RES">6</parameter><parameter name="SOT">0</parameter><parameter name="TCL">MakeCompatibleScalar (0, {WSV=1.000000, ARV=0});</parameter><parameter name="TDL">37</parameter><parameter name="SPO">0</parameter><parameter name="SGN">-1</parameter></Acquisition_Parameters_><Instrument_Parameters_Rf><parameter name="HFL">15800.168544</parameter><parameter name="LFL">0</parameter><parameter name="LWN">15800.168544</parameter><parameter name="ABP">32197</parameter><parameter name="SSP">1</parameter><parameter name="ARG">2</parameter><parameter name="ASG">2</parameter><parameter name="ASS">32</parameter><parameter name="GFW">16</parameter><parameter name="GBW">16</parameter><parameter name="BFW">0</parameter><parameter name="BBW">0</parameter><parameter name="PKA">7263</parameter><parameter name="PKL">4996</parameter><parameter name="PRA">7452</parameter><parameter name="PRL">5001</parameter><parameter name="P2A">1</parameter><parameter name="P2L">1</parameter><parameter name="P2R">1</parameter><parameter name="P2K">1</parameter><parameter name="DAQ">0</parameter><parameter name="AG2">1</parameter><parameter name="SSM">1</parameter><parameter name="RSN">25817</parameter><parameter name="CRR">0</parameter><parameter name="SRT">1654007791.269</parameter><parameter name="DUR">19.6379852294922</parameter><parameter name="TSC">29.1</parameter><parameter name="MVD">0.195452377200127</parameter><parameter name="AN1">0.225815188532777</parameter><parameter name="AN2">0</parameter><parameter name="VSN">2.485 Apr  4 2017</parameter><parameter name="SRN">0085</parameter><parameter name="CAM">0</parameter><parameter name="INS">IR-Biotyper</parameter><parameter name="FOC">69</parameter><parameter name="RDY">1</parameter><parameter name="ARS">32</parameter></Instrument_Parameters_Rf><Sample_Parameters_><parameter name="BLD"></parameter><parameter name="CNM">Admin</parameter><parameter name="CPY"></parameter><parameter name="DPM"></parameter><parameter name="EXP">IRBT_v3_32Scans.XPM</parameter><parameter name="LCT"></parameter><parameter name="SFM">Microplate, HTS-XT</parameter><parameter name="SNM">220531-1301_RTF49M (D_4)_H11_56b951d8-6585-4a93-954c-001a111ca5db.0</parameter><parameter name="XPP">C:\Users\Public\Documents\Bruker\OPUS_8.2.28\XPM</parameter><parameter name="IST">OK</parameter><parameter name="CPG">1252</parameter><parameter name="UID">93f9b318-ce5e-460b-ba48-50b892be2e6b</parameter></Sample_Parameters_><Instrument_Parameters_><parameter name="HFL">15800.168544</parameter><parameter name="LFL">0</parameter><parameter name="LWN">15800.168544</parameter><parameter name="ABP">32197</parameter><parameter name="SSP">1</parameter><parameter name="ASG">2</parameter><parameter name="ARG">2</parameter><parameter name="ASS">32</parameter><parameter name="GFW">16</parameter><parameter name="GBW">16</parameter><parameter name="BFW">0</parameter><parameter name="BBW">0</parameter><parameter name="PKA">8004</parameter><parameter name="PKL">4988</parameter><parameter name="PRA">8316</parameter><parameter name="PRL">4993</parameter><parameter name="P2A">1</parameter><parameter name="P2L">1</parameter><parameter name="P2R">1</parameter><parameter name="P2K">1</parameter><parameter name="DAQ">0</parameter><parameter name="AG2">1</parameter><parameter name="SSM">1</parameter><parameter name="RSN">13534</parameter><parameter name="CRR">0</parameter><parameter name="SRT">1654007818.031</parameter><parameter name="DUR">19.6379852294922</parameter><parameter name="TSC">29.1</parameter><parameter name="MVD">0.269983768463135</parameter><parameter name="AN1">0.225821758341273</parameter><parameter name="AN2">0</parameter><parameter name="VSN">2.485 Apr  4 2017</parameter><parameter name="SRN">0085</parameter><parameter name="CAM">0</parameter><parameter name="INS">IR-Biotyper</parameter><parameter name="FOC">69</parameter><parameter name="RDY">1</parameter></Instrument_Parameters_><History/></OPUSDataFile>
