<?xml version="1.0" encoding="UTF-8" ?>
<OPUSDataFile><AB><Ydata ylabel="Absorbance Units"><values byteorder="INTEL" format="FLOAT32" numvalues="3497"> -0.06970163 -0.06977171 -0.06983966 -0.06990741 -0.0699454 -0.06995216 -0.06991896 -0.06984734 -0.06975292 -0.06963968
 -0.06953863 -0.06945179 -0.06940466 -0.06939212 -0.06941701 -0.06946874 -0.06953162 -0.06959815 -0.06965244 -0.06969599
 -0.06972332 -0.06974298 -0.06975722 -0.06977577 -0.06980351 -0.06984249 -0.06989632 -0.06995203 -0.07000939 -0.07004759
 -0.07006422 -0.0700506 -0.07000615 -0.06994567 -0.06987087 -0.06980762 -0.06975669 -0.0697363 -0.06974457 -0.06978572
 -0.06985512 -0.0699461 -0.07005003 -0.070151 -0.07024051 -0.07030047 -0.07033427 -0.07033469 -0.07032036 -0.07029902
 -0.07028538 -0.07029052 -0.0703038 -0.07032722 -0.07033528 -0.0703228 -0.07028303 -0.0702131 -0.07013576 -0.07005213
 -0.06999242 -0.06995708 -0.06996023 -0.06999906 -0.0700654 -0.07015404 -0.07024281 -0.07032705 -0.07038361 -0.0704136
 -0.07040496 -0.07037058 -0.07031798 -0.07026523 -0.07023192 -0.07021882 -0.07023776 -0.07026165 -0.07028455 -0.07027917
 -0.07023316 -0.07015567 -0.0700428 -0.06993332 -0.06983021 -0.06976751 -0.06974737 -0.06977837 -0.06985912 -0.06997365
 -0.07011741 -0.07025616 -0.07038469 -0.07046346 -0.07049604 -0.0704665 -0.07039224 -0.07029375 -0.07018807 -0.0701051
 -0.07004737 -0.07003062 -0.07003892 -0.07007033 -0.07010181 -0.07012177 -0.07012702 -0.07011101 -0.07009578 -0.0700841
 -0.07009251 -0.07012465 -0.07016651 -0.07021755 -0.07025007 -0.07026427 -0.07025675 -0.07023171 -0.07021403 -0.07020606
 -0.07023177 -0.07028577 -0.07036949 -0.07047099 -0.07057054 -0.07066087 -0.07072303 -0.07076291 -0.07077864 -0.07077792
 -0.07076526 -0.07074289 -0.07071047 -0.07067819 -0.07064521 -0.07063748 -0.0706583 -0.0707336 -0.07086867 -0.0710525
 -0.07128546 -0.07146582 -0.07158828 -0.07154383 -0.07135063 -0.07107181 -0.07072855 -0.07043909 -0.07019793 -0.07005186
 -0.06998437 -0.06999178 -0.07005094 -0.07013561 -0.07022231 -0.07028124 -0.07030683 -0.07028315 -0.07022954 -0.07014827
 -0.07006209 -0.06997867 -0.06990434 -0.06984182 -0.06978859 -0.06974435 -0.06971107 -0.06968884 -0.06968308 -0.06969383
 -0.06972283 -0.0697692 -0.0698285 -0.06989885 -0.06997199 -0.07004412 -0.07010272 -0.07014262 -0.0701478 -0.07011975
 -0.07004979 -0.06995355 -0.06983775 -0.06972527 -0.06963027 -0.06956909 -0.06955343 -0.06958181 -0.06965967 -0.06976323
 -0.06989109 -0.07001173 -0.07012156 -0.07020189 -0.07025133 -0.07026324 -0.07023747 -0.07017069 -0.07006378 -0.06991906
 -0.06974082 -0.06954444 -0.06933847 -0.06915157 -0.06899077 -0.0688844 -0.06882643 -0.06882592 -0.06885998 -0.06891423
 -0.06896629 -0.0689953 -0.06900471 -0.0689877 -0.06896635 -0.06894653 -0.06893724 -0.06894283 -0.06895249 -0.06896535
 -0.06897492 -0.06898059 -0.06898857 -0.06899907 -0.06901702 -0.0690411 -0.06906459 -0.06908618 -0.06909593 -0.06909623
 -0.06908741 -0.06907395 -0.06906484 -0.06906033 -0.06906582 -0.06907579 -0.06908602 -0.06909677 -0.06910281 -0.06912121
 -0.06915654 -0.069226 -0.06934018 -0.06948177 -0.06965476 -0.06980336 -0.06992216 -0.06996911 -0.06994084 -0.06983361
 -0.06964865 -0.06940569 -0.0691102 -0.06880782 -0.06850536 -0.06825476 -0.06805743 -0.06794611 -0.06791174 -0.06796119
 -0.06806342 -0.06818566 -0.0682965 -0.06834929 -0.06835669 -0.06830849 -0.06823812 -0.06815924 -0.06808395 -0.06802075
 -0.06795962 -0.06789988 -0.06783339 -0.06775801 -0.06768296 -0.06760861 -0.06754596 -0.0674952 -0.06745908 -0.06743752
 -0.06743248 -0.06744171 -0.06746078 -0.06748031 -0.06747278 -0.06743297 -0.06733258 -0.06718805 -0.06700728 -0.06680889
 -0.06661416 -0.06642611 -0.06625386 -0.06609094 -0.06593648 -0.06578621 -0.06563782 -0.06549394 -0.06535465 -0.06522302
 -0.06510027 -0.0649785 -0.06485762 -0.0647135 -0.06454524 -0.06433364 -0.06408284 -0.06381322 -0.06353073 -0.06327297
 -0.06303713 -0.06283472 -0.06266107 -0.06251283 -0.06238702 -0.06228174 -0.06218544 -0.06209156 -0.06197818 -0.06182985
 -0.06163493 -0.06138252 -0.06107919 -0.06072512 -0.06032407 -0.05987585 -0.0593888 -0.05886248 -0.05831902 -0.05775985
 -0.05720129 -0.05664411 -0.05609917 -0.05556884 -0.05507601 -0.05462247 -0.05423151 -0.05389533 -0.05360784 -0.05335429
 -0.05310446 -0.05284959 -0.05256826 -0.05225109 -0.05188595 -0.05145688 -0.05094445 -0.05036353 -0.04970789 -0.04902579
 -0.04833218 -0.04764617 -0.04697583 -0.04631315 -0.04565754 -0.04500762 -0.04436293 -0.0437347 -0.04312373 -0.04254681
 -0.04200369 -0.04150425 -0.04104085 -0.04059229 -0.04013975 -0.03961677 -0.03902141 -0.03830468 -0.03751136 -0.03667982
 -0.03584586 -0.03506365 -0.03432271 -0.03363485 -0.03297443 -0.03233357 -0.03169291 -0.03104435 -0.03038256 -0.02970415
 -0.02901632 -0.02831995 -0.02761649 -0.02690645 -0.02617594 -0.02542468 -0.02464773 -0.0238481 -0.02304797 -0.02224865
 -0.02146928 -0.02070467 -0.01994929 -0.01920054 -0.01844993 -0.01769937 -0.01694988 -0.01619769 -0.01543998 -0.01467326
 -0.01389113 -0.01310448 -0.01231721 -0.01153466 -0.0107639 -0.009982019 -0.009185797 -0.008356503 -0.007487958 -0.00660872
 -0.005719826 -0.004863538 -0.004040519 -0.003253724 -0.002499935 -0.001755038 -0.001017219 -0.000264836 0.0004991675 0.001279406
 0.002068309 0.002852477 0.003629612 0.004386419 0.0051373 0.005887766 0.006659477 0.007471678 0.008323012 0.009223354
 0.01014278 0.01107437 0.01199684 0.01290321 0.01379385 0.01466751 0.01553136 0.01638571 0.01724003 0.01809472
 0.01895664 0.01982511 0.02069733 0.02157324 0.02245018 0.02333049 0.02422117 0.02512015 0.0260296 0.02693942
 0.02783625 0.02871485 0.02956177 0.03038799 0.03119468 0.0319982 0.03280767 0.03362641 0.03446029 0.03529342
 0.03612454 0.03693441 0.0377188 0.03848275 0.0392255 0.03997773 0.04074062 0.04153416 0.04235593 0.04319395
 0.04404613 0.04489527 0.04574491 0.04659733 0.04745423 0.04832267 0.04919572 0.05006823 0.05093025 0.05176983
 0.05258354 0.05336271 0.05411763 0.05484764 0.05557432 0.05630439 0.05705051 0.0578187 0.05859882 0.05939078
 0.06018085 0.06096775 0.06175075 0.0625297 0.06330174 0.06406583 0.06481007 0.06553611 0.0662441 0.06693847
 0.06763379 0.06832931 0.06903145 0.06973536 0.07043564 0.07113256 0.07182429 0.07251234 0.07319853 0.0738792
 0.07455263 0.07521842 0.07587542 0.0765276 0.07717633 0.07781913 0.07845595 0.07908288 0.07969911 0.080316
 0.08093427 0.08157022 0.08222274 0.08289038 0.08356925 0.08424054 0.08490154 0.08553348 0.08613838 0.08670913
 0.08725458 0.08778318 0.08830442 0.08883283 0.08936608 0.08990853 0.09045056 0.09098635 0.09151945 0.09204773
 0.09258562 0.09313685 0.09370404 0.09428911 0.09488109 0.09547938 0.09607369 0.0966635 0.09723949 0.0978015
 0.09834246 0.09886485 0.0993761 0.09987959 0.1003912 0.1009078 0.1014315 0.1019555 0.1024694 0.1029721
 0.1034583 0.1039296 0.1043865 0.1048268 0.1052487 0.1056546 0.1060433 0.1064263 0.1068063 0.1071883
 0.1075745 0.1079531 0.1083235 0.1086738 0.109004 0.1093223 0.109631 0.109955 0.110295 0.1106693
 0.111072 0.1114968 0.1119346 0.112362 0.1127785 0.1131702 0.1135491 0.1139219 0.1142993 0.1146949
 0.1150986 0.1155138 0.115913 0.1162879 0.1166208 0.1169024 0.1171494 0.1173601 0.117576 0.1178006
 0.1180526 0.1183319 0.1186069 0.1188746 0.1190918 0.1192629 0.1193855 0.1194706 0.1195523 0.1196357
 0.1197503 0.1198912 0.1200655 0.1202631 0.1204777 0.1206966 0.1209079 0.1211084 0.1212882 0.1214691
 0.1216535 0.1218714 0.122134 0.1224329 0.1227734 0.1230983 0.1234039 0.1236386 0.1238009 0.1238971
 0.1239316 0.1239508 0.1239546 0.1239681 0.1239842 0.1239898 0.1239879 0.1239731 0.1239646 0.1239914
 0.1240572 0.124188 0.1243458 0.1245164 0.1246558 0.1247305 0.1247504 0.1247024 0.1246463 0.124592
 0.1245867 0.124642 0.1247506 0.1249148 0.1250826 0.1252513 0.12536 0.1254089 0.1253701 0.125254
 0.1250934 0.1249046 0.1247578 0.1246573 0.124653 0.1247245 0.1248691 0.1250496 0.1252279 0.1253755
 0.1254549 0.1254732 0.1254161 0.1253294 0.125222 0.1251427 0.125106 0.1251272 0.1252116 0.1253501
 0.1255421 0.1257911 0.1260974 0.1264742 0.1269181 0.1274052 0.1279218 0.1283865 0.1287872 0.1290347
 0.1291437 0.1290894 0.1289224 0.1287007 0.1284807 0.12835 0.1283149 0.1284234 0.1286077 0.1288575
 0.1290774 0.1292311 0.1292707 0.1291707 0.1289623 0.1286409 0.1282867 0.1279055 0.1275671 0.1272746
 0.1270472 0.1268818 0.1267523 0.1266558 0.1265602 0.1264702 0.1263818 0.1263041 0.1262586 0.1262406
 0.1262627 0.126289 0.1262951 0.1262287 0.1260405 0.1257149 0.1252171 0.1246046 0.1238786 0.123137
 0.1224013 0.1217388 0.1211656 0.1206891 0.1203132 0.1200043 0.1197604 0.1195286 0.1193062 0.1190446
 0.1187481 0.1184101 0.1180442 0.1176935 0.1173616 0.1170865 0.1168442 0.1166193 0.1163792 0.1160779
 0.1157136 0.1152598 0.1147606 0.1142226 0.1137127 0.1132546 0.1128928 0.1126496 0.1125007 0.1124543
 0.1124102 0.1123619 0.1122031 0.1119288 0.1115178 0.1109774 0.1103814 0.1097388 0.1091383 0.108576
 0.1080873 0.1076596 0.107281 0.1069433 0.106628 0.1063331 0.1060512 0.1057783 0.1055121 0.1052415
 0.104961 0.1046608 0.1043344 0.1039865 0.1036153 0.1032374 0.1028557 0.102477 0.1021029 0.1017224
 0.101335 0.1009313 0.1005123 0.1000881 0.09966125 0.09925096 0.09885632 0.09848538 0.09813336 0.09779368
 0.09746185 0.09712809 0.09678979 0.09644091 0.0960791 0.09570056 0.095305 0.09488956 0.09446154 0.09402136
 0.09358169 0.093146 0.09272011 0.09230669 0.09189717 0.09149133 0.09107721 0.09065422 0.09021976 0.08977432
 0.0893231 0.08886658 0.08840954 0.0879525 0.08749926 0.08705112 0.0866133 0.08618551 0.08577082 0.08536509
 0.08496514 0.08456709 0.08416397 0.08376422 0.08336534 0.08299418 0.08265897 0.08238202 0.08217668 0.08201747
 0.08190954 0.08177083 0.08159541 0.08130392 0.08089213 0.08035637 0.07970351 0.07901446 0.07830009 0.07766639
 0.07711166 0.07669441 0.07638834 0.07617007 0.07599659 0.07578745 0.07552031 0.07512648 0.07464206 0.07406107
 0.07345749 0.07287188 0.07233994 0.07189373 0.07149845 0.07115252 0.07081765 0.07048123 0.07017276 0.06989128
 0.0697043 0.06961535 0.06963678 0.06976158 0.06990682 0.07005911 0.07009528 0.07001592 0.06974859 0.06932247
 0.06876163 0.06811164 0.06745841 0.06682502 0.06627963 0.06579851 0.06538904 0.06501316 0.06464658 0.06428749
 0.06392601 0.06358501 0.06327298 0.06297985 0.06270888 0.06241841 0.06210287 0.06176004 0.06138955 0.06105228
 0.06075088 0.0605391 0.06040942 0.06034665 0.06033788 0.06032745 0.06031291 0.06025869 0.0601736 0.06005733
 0.05991546 0.0597583 0.05957631 0.05937007 0.05911549 0.05880014 0.0584066 0.0579185 0.0573598 0.05672398
 0.05608561 0.0554528 0.05490172 0.05444343 0.05408609 0.05383085 0.05360457 0.05340205 0.0531335 0.05280209
 0.05237659 0.05187357 0.05133376 0.05077431 0.0502589 0.04978867 0.04939817 0.04907012 0.0488007 0.0485663
 0.04834699 0.0481277 0.04789268 0.04764424 0.04737713 0.04710827 0.04684103 0.04658796 0.04635479 0.04612386
 0.04589603 0.04562654 0.04531282 0.04493047 0.04448248 0.0440052 0.04350597 0.04305237 0.04263968 0.04229224
 0.04198859 0.04168785 0.04137686 0.04100727 0.04059782 0.04014625 0.03968742 0.03925115 0.03885177 0.03850925
 0.03821185 0.03795919 0.03774153 0.03755433 0.03740342 0.03728979 0.03721433 0.03717924 0.03715716 0.03714681
 0.03709695 0.03700555 0.0368312 0.03657832 0.03624959 0.03585802 0.03545105 0.03504209 0.03468835 0.03439365
 0.03419176 0.03407607 0.03405359 0.03411181 0.03424543 0.03443679 0.03467706 0.03494637 0.03523593 0.03553122
 0.03582619 0.03611708 0.03640083 0.03668782 0.03697688 0.03730098 0.03766174 0.03811267 0.03865577 0.03933247
 0.04013712 0.04105861 0.04208218 0.04314745 0.04424296 0.04530733 0.04634425 0.04732953 0.0482785 0.0491991
 0.05010653 0.0510154 0.05193621 0.05287842 0.05384811 0.05485202 0.05588266 0.05694487 0.05800179 0.05905256
 0.06003567 0.06094548 0.06172887 0.06238208 0.062892 0.06326038 0.06351352 0.063655 0.06372085 0.06371243
 0.06365163 0.06354272 0.06340168 0.06324542 0.06310561 0.06300695 0.06299356 0.06307334 0.06327403 0.06357301
 0.06396828 0.06442807 0.06493805 0.06548498 0.06606186 0.06666868 0.06730589 0.06796463 0.06864534 0.06932537
 0.07000358 0.07064876 0.0712587 0.07179423 0.07225447 0.07260974 0.07286904 0.07304551 0.07316049 0.07327469
 0.07340222 0.07360695 0.07386024 0.07417594 0.07445478 0.07464378 0.07458777 0.07418971 0.07333016 0.07191758
 0.06999118 0.06751096 0.06470554 0.06158997 0.05846661 0.0553683 0.05250926 0.04990596 0.04761289 0.04562673
 0.04389068 0.04239675 0.04106537 0.03989273 0.03882394 0.03785548 0.03695314 0.03610959 0.03529648 0.03450968
 0.03372985 0.03296594 0.03221621 0.03149862 0.03082321 0.03020163 0.02964236 0.02914412 0.02870906 0.02832941
 0.02800378 0.02772834 0.02750131 0.02733521 0.02723043 0.02721651 0.02729369 0.02747251 0.02774342 0.02805068
 0.02837484 0.02860712 0.02873972 0.02868905 0.0284777 0.02810025 0.02759956 0.02702397 0.02641174 0.02581077
 0.02524479 0.02473908 0.02430912 0.02396421 0.02372144 0.02358374 0.02357907 0.02371147 0.02401149 0.02448707
 0.02511496 0.02589715 0.0266711 0.02742039 0.02784161 0.02791875 0.02737358 0.02624079 0.02448355 0.02220346
 0.0196346 0.01688317 0.01425724 0.01178464 0.009640608 0.007763113 0.00616458 0.004759956 0.00349848 0.002336611
 0.001240947 0.0002102718 -0.0007622167 -0.001669179 -0.002509085 -0.003284164 -0.003993511 -0.004650412 -0.005255414 -0.005830316
 -0.006376192 -0.006912815 -0.007439787 -0.00796432 -0.00848413 -0.008994542 -0.009492187 -0.009966815 -0.0104139 -0.01081967
 -0.01118386 -0.01149613 -0.0117713 -0.01201385 -0.01225189 -0.01250419 -0.01278643 -0.01311614 -0.01347082 -0.01385301
 -0.01421421 -0.01454513 -0.01481777 -0.01502452 -0.01518878 -0.0153109 -0.01544109 -0.0155807 -0.015753 -0.01595398
 -0.01616377 -0.0163801 -0.01657951 -0.01677054 -0.01696313 -0.01716815 -0.01741445 -0.01769662 -0.01802506 -0.0183755
 -0.01873241 -0.01906995 -0.01936694 -0.01961263 -0.01979435 -0.01992276 -0.01999404 -0.02004106 -0.02006647 -0.02011385
 -0.02018908 -0.02031557 -0.02049609 -0.02071393 -0.02096736 -0.02121977 -0.02147065 -0.02169883 -0.02190699 -0.02209588
 -0.02226665 -0.02242306 -0.02256426 -0.02268914 -0.02280023 -0.02289923 -0.0229917 -0.02308419 -0.02317717 -0.02327454
 -0.02336897 -0.02345792 -0.02353726 -0.02360293 -0.02366535 -0.02372436 -0.02379887 -0.02389167 -0.0240096 -0.02415389
 -0.02430843 -0.02447208 -0.0246201 -0.02475305 -0.02486254 -0.02495299 -0.02503864 -0.02512361 -0.02522838 -0.02535004
 -0.02549546 -0.02565295 -0.02581121 -0.02595758 -0.02607389 -0.0261621 -0.02621284 -0.02625006 -0.02627894 -0.02632924
 -0.02641245 -0.02653756 -0.02671112 -0.02691512 -0.02714928 -0.02738732 -0.02762733 -0.02785327 -0.02806465 -0.02825587
 -0.0284272 -0.02857729 -0.02870757 -0.0288223 -0.02892498 -0.02902754 -0.02913229 -0.02925103 -0.02937939 -0.02951775
 -0.02965784 -0.02979101 -0.0299155 -0.03002537 -0.0301295 -0.03022993 -0.03033526 -0.03044999 -0.03057111 -0.03069965
 -0.03082601 -0.0309489 -0.03106421 -0.03117134 -0.03127522 -0.03137609 -0.03147924 -0.03158388 -0.0316864 -0.03178491
 -0.03186819 -0.03193683 -0.03198457 -0.0320181 -0.03204588 -0.03207741 -0.03212985 -0.03220624 -0.0323176 -0.03245673
 -0.03262419 -0.03280643 -0.03299899 -0.03318734 -0.03336677 -0.03352601 -0.0336613 -0.03377151 -0.03385485 -0.0339244
 -0.03398068 -0.0340425 -0.03411059 -0.0341958 -0.03429727 -0.03441286 -0.03454063 -0.03467094 -0.0348024 -0.03492567
 -0.03504135 -0.03514542 -0.03524116 -0.0353308 -0.03541864 -0.03550977 -0.03560602 -0.03571073 -0.03582196 -0.03593993
 -0.03606158 -0.03618606 -0.03631123 -0.0364368 -0.03655982 -0.03668017 -0.03679259 -0.03689662 -0.03698972 -0.03707205
 -0.03714974 -0.03722362 -0.03730376 -0.03738979 -0.03748565 -0.03758974 -0.037699 -0.03781343 -0.03793124 -0.0380539
 -0.03818379 -0.03831894 -0.03845985 -0.03859974 -0.03873445 -0.03885889 -0.03896837 -0.0390661 -0.03915066 -0.03923253
 -0.03931329 -0.03940247 -0.0395021 -0.03961175 -0.03973193 -0.03985112 -0.03996871 -0.04007222 -0.04016222 -0.04023773
 -0.04030117 -0.04036346 -0.04042593 -0.04049897 -0.04058053 -0.04067199 -0.04076966 -0.04086883 -0.04096743 -0.04106142
 -0.04115104 -0.04123503 -0.04131499 -0.04139101 -0.04146588 -0.04154019 -0.04161736 -0.04169844 -0.04178388 -0.04187438
 -0.04196462 -0.04205436 -0.04213719 -0.04221295 -0.04228135 -0.04234307 -0.04240428 -0.0424652 -0.04253059 -0.0425992
 -0.0426699 -0.04274142 -0.04280998 -0.04287677 -0.04294128 -0.04300661 -0.04307599 -0.04315032 -0.04323276 -0.04331759
 -0.04340438 -0.04348287 -0.04354936 -0.04359911 -0.04362886 -0.04364705 -0.04365344 -0.04366409 -0.04368032 -0.04371191
 -0.0437591 -0.04381968 -0.0438929 -0.04397095 -0.04405348 -0.04413502 -0.04421531 -0.04429095 -0.04436135 -0.04442326
 -0.04447749 -0.04452271 -0.0445631 -0.04460194 -0.04464344 -0.04469236 -0.04474777 -0.04481151 -0.04487765 -0.04494485
 -0.04500809 -0.0450656 -0.04511749 -0.0451632 -0.0452069 -0.04524883 -0.0452936 -0.04534139 -0.04539385 -0.04545069
 -0.04550985 -0.04557112 -0.04563208 -0.04569381 -0.04575825 -0.04582695 -0.04590478 -0.04599079 -0.04608665 -0.04618822
 -0.04629209 -0.04639488 -0.0464926 -0.04658577 -0.0466736 -0.04675734 -0.04683756 -0.04691349 -0.04698501 -0.0470516
 -0.04711283 -0.04717184 -0.04722879 -0.04728741 -0.04734782 -0.04741023 -0.04747449 -0.04753908 -0.04760434 -0.04767124
 -0.04774024 -0.04781368 -0.04789076 -0.04797135 -0.04805341 -0.0481339 -0.04821127 -0.0482825 -0.04834797 -0.04840656
 -0.0484606 -0.04851058 -0.04855959 -0.04860878 -0.04865973 -0.04871312 -0.04876865 -0.04882628 -0.04888645 -0.04894915
 -0.04901578 -0.04908636 -0.04916041 -0.04923766 -0.04931557 -0.04939401 -0.04947122 -0.04954712 -0.04962074 -0.04969164
 -0.04975801 -0.0498206 -0.04987914 -0.04993621 -0.04999502 -0.05005527 -0.05011955 -0.05018064 -0.05023604 -0.05027912
 -0.05030538 -0.05031972 -0.05032085 -0.05032328 -0.05032879 -0.05034817 -0.05038287 -0.05043162 -0.05049426 -0.05056058
 -0.05062994 -0.0506919 -0.0507468 -0.05079045 -0.05082466 -0.05085267 -0.05087679 -0.05090362 -0.05093444 -0.05097444
 -0.0510226 -0.0510806 -0.05114437 -0.05121239 -0.05127864 -0.05133973 -0.05139242 -0.05143399 -0.05146763 -0.05149288
 -0.05151697 -0.05154089 -0.05156923 -0.05160266 -0.05164034 -0.05168222 -0.05172528 -0.05176952 -0.05181393 -0.05185859
 -0.0519038 -0.0519488 -0.05199152 -0.05203084 -0.0520625 -0.05208792 -0.05210609 -0.05212217 -0.05214109 -0.05216692
 -0.05220553 -0.05225394 -0.05231377 -0.05237554 -0.05243669 -0.05248906 -0.0525296 -0.05255838 -0.05257431 -0.05258469
 -0.05258995 -0.05259768 -0.05260826 -0.05262472 -0.0526471 -0.05267664 -0.05271386 -0.05276225 -0.05282209 -0.05289674
 -0.05298487 -0.05308506 -0.05319646 -0.05331545 -0.05344669 -0.05359123 -0.05376088 -0.05396313 -0.05421074 -0.05451237
 -0.05487349 -0.0552987 -0.05578529 -0.05633359 -0.05694026 -0.05760617 -0.05831978 -0.05908253 -0.05984664 -0.06060909
 -0.06127505 -0.06184023 -0.06222043 -0.06242431 -0.06245213 -0.06232041 -0.06208958 -0.06175667 -0.06134215 -0.06084386
 -0.06025129 -0.05960918 -0.05895473 -0.05834267 -0.05782876 -0.05743102 -0.05717624 -0.05705364 -0.05706992 -0.05719137
 -0.05741903 -0.05768342 -0.057978 -0.0582225 -0.05840705 -0.0585146 -0.05854429 -0.05853478 -0.05848771 -0.05843389
 -0.05837157 -0.05830839 -0.05823945 -0.05815255 -0.05804412 -0.05789593 -0.0577178 -0.05751368 -0.05730224 -0.05710795
 -0.05693433 -0.0567967 -0.05667653 -0.05656928 -0.05645641 -0.05632808 -0.0561845 -0.05602228 -0.05585435 -0.0556819
 -0.05551726 -0.0553619 -0.05522028 -0.05509264 -0.05497356 -0.05486251 -0.05475128 -0.0546406 -0.05452986 -0.05442119
 -0.0543218 -0.05423238 -0.05415864 -0.05409881 -0.05405286 -0.05401842 -0.05399282 -0.05397475 -0.05396295 -0.05395497
 -0.05395029 -0.05394327 -0.05393225 -0.05391142 -0.05387821 -0.05383444 -0.05377892 -0.05372301 -0.05366738 -0.05362425
 -0.05359427 -0.05358156 -0.05358569 -0.05360242 -0.05363106 -0.05366553 -0.05370564 -0.05374772 -0.05379148 -0.05383493
 -0.05387675 -0.05391458 -0.05394567 -0.05396592 -0.05397392 -0.05396601 -0.05394622 -0.05391441 -0.05387887 -0.05384259
 -0.05381066 -0.05378558 -0.05376548 -0.05375063 -0.05373702 -0.05372421 -0.05371093 -0.05369709 -0.05368435 -0.0536729
 -0.05366583 -0.0536631 -0.05366656 -0.05367497 -0.0536853 -0.05369572 -0.05369977 -0.05369828 -0.05368882 -0.05367523
 -0.05366108 -0.05364852 -0.05364157 -0.05363689 -0.05363404 -0.05362901 -0.05361925 -0.05360682 -0.05359092 -0.05357859
 -0.05357097 -0.05357186 -0.05358212 -0.05359824 -0.05362007 -0.0536404 -0.053659 -0.05367157 -0.05367834 -0.05367855
 -0.05367237 -0.05365987 -0.05364146 -0.05361753 -0.05358977 -0.05356061 -0.05353269 -0.05351001 -0.05349392 -0.05348712
 -0.05348873 -0.05349937 -0.05351657 -0.05354012 -0.0535657 -0.05359295 -0.05361495 -0.05363076 -0.05363393 -0.05362334
 -0.05360036 -0.05356497 -0.05352945 -0.05349461 -0.05347515 -0.05347027 -0.0534837 -0.05351217 -0.05354601 -0.05358244
 -0.05360927 -0.05362739 -0.05363201 -0.05362711 -0.05361517 -0.05360019 -0.05358621 -0.0535753 -0.05356984 -0.05356989
 -0.05357609 -0.05358765 -0.0536046 -0.05362569 -0.05365096 -0.05367761 -0.05370549 -0.05373112 -0.05375428 -0.05377455
 -0.05379209 -0.05380927 -0.05382589 -0.05384206 -0.05385693 -0.05386691 -0.05387254 -0.05387286 -0.05387007 -0.05386796
 -0.05386671 -0.05386915 -0.05387143 -0.05387115 -0.05386619 -0.05385317 -0.05383719 -0.05381852 -0.05380533 -0.05380026
 -0.05380564 -0.05382297 -0.05384719 -0.05387812 -0.05390941 -0.05394067 -0.05396832 -0.05399228 -0.05401081 -0.05402403
 -0.05403128 -0.0540335 -0.05403342 -0.0540325 -0.0540361 -0.05404384 -0.05405833 -0.05407652 -0.0540957 -0.05411402
 -0.05412813 -0.05414054 -0.05415131 -0.05416432 -0.05418179 -0.05420292 -0.05422867 -0.05425366 -0.05427716 -0.05429496
 -0.05430624 -0.05431269 -0.05431433 -0.0543168 -0.05432023 -0.0543279 -0.05433918 -0.05435161 -0.05436468 -0.0543747
 -0.05438261 -0.05438869 -0.05439452 -0.05440321 -0.05441489 -0.05443092 -0.0544511 -0.05447535 -0.05450461 -0.05453926
 -0.05458038 -0.05462905 -0.05468325 -0.05474344 -0.05480363 -0.05486339 -0.05491482 -0.05495709 -0.05498465 -0.05499708
 -0.05499584 -0.05498152 -0.05496321 -0.05494173 -0.05492735 -0.05491961 -0.05492255 -0.05493443 -0.05495301 -0.05497681
 -0.0550021 -0.0550288 -0.05505536 -0.05508204 -0.05510886 -0.05513503 -0.05516009 -0.05518363 -0.05520481 -0.0552261
 -0.05524773 -0.05527313 -0.05530336 -0.05533746 -0.05537581 -0.0554124 -0.05544687 -0.05547471 -0.05549605 -0.05551272
 -0.0555254 -0.05553969 -0.05555579 -0.05557764 -0.05560472 -0.05563779 -0.05567605 -0.05571884 -0.05576449 -0.0558114
 -0.05585635 -0.0558964 -0.05592862 -0.05594958 -0.05596137 -0.05596266 -0.05596162 -0.05595982 -0.05596477 -0.05597851
 -0.0560018 -0.05603531 -0.05607424 -0.05611839 -0.05616279 -0.05620723 -0.05624787 -0.05628474 -0.05631592 -0.05634224
 -0.05636576 -0.05638747 -0.0564115 -0.05643674 -0.05646364 -0.05648956 -0.05651068 -0.05652747 -0.05653777 -0.05654677
 -0.05655673 -0.05657209 -0.056596 -0.05662708 -0.05666633 -0.05670781 -0.05675087 -0.05678977 -0.05682384 -0.05684933
 -0.05686593 -0.05687274 -0.05686998 -0.0568614 -0.05684797 -0.05683827 -0.056833 -0.05684027 -0.05685863 -0.05688914
 -0.0569282 -0.05696996 -0.05701159 -0.05704664 -0.0570756 -0.05709606 -0.05711142 -0.05712267 -0.0571337 -0.05714669
 -0.05716234 -0.05718209 -0.05720142 -0.05722003 -0.0572323 -0.05723719 -0.0572356 -0.05722741 -0.0572192 -0.05721113
 -0.05720662 -0.05720503 -0.05720319 -0.05720085 -0.05719467 -0.05718612 -0.05717734 -0.0571697 -0.05716754 -0.05716923
 -0.05717496 -0.05718166 -0.05718589 -0.0571884 -0.05718766 -0.05718857 -0.05719329 -0.05720313 -0.05722021 -0.05723745
 -0.05725413 -0.0572628 -0.05726193 -0.05725405 -0.05723909 -0.05722547 -0.05721339 -0.05720678 -0.05720508 -0.05720602
 -0.05720938 -0.05721285 -0.05721723 -0.0572235 -0.05723242 -0.0572464 -0.05726443 -0.05728697 -0.05731071 -0.05733323
 -0.05735112 -0.05736109 -0.05736323 -0.05735616 -0.05734339 -0.05732547 -0.0573057 -0.05728468 -0.05726512 -0.05724735
 -0.05723376 -0.05722458 -0.05721927 -0.0572177 -0.05721655 -0.05721595 -0.05721509 -0.05721463 -0.05721737 -0.05722292
 -0.05723199 -0.05724294 -0.05725281 -0.05726117 -0.05726603 -0.05726802 -0.0572675 -0.05726348 -0.05725566 -0.05724253
 -0.05722275 -0.05719819 -0.05716856 -0.05713857 -0.05710916 -0.05708262 -0.05705956 -0.05703828 -0.05701873 -0.0569986
 -0.05697791 -0.05695767 -0.05693814 -0.05692206 -0.05690913 -0.05689957 -0.05689287 -0.05688734 -0.05688351 -0.0568815
 -0.05688215 -0.05688744 -0.05689543 -0.05690622 -0.05691421 -0.05691642 -0.05690756 -0.05688404 -0.0568458 -0.05679071
 -0.05672678 -0.05665413 -0.05658626 -0.0565248 -0.05647917 -0.05645037 -0.0564361 -0.05643595 -0.05644056 -0.05644987
 -0.0564593 -0.05646936 -0.05648054 -0.05649167 -0.05650063 -0.05650403 -0.05649407 -0.05646965 -0.0564242 -0.05636366
 -0.05628948 -0.05621205 -0.05613832 -0.05607487 -0.05602765 -0.05599329 -0.05597341 -0.05595684 -0.05594175 -0.05591976
 -0.05588911 -0.05585049 -0.05580365 -0.05575548 -0.05570642 -0.05566502 -0.05563132 -0.05561022 -0.05560009 -0.05559698
 -0.05559812 -0.05559308 -0.05558161 -0.05555796 -0.05552384 -0.05547957 -0.05542562 -0.05536173 -0.05529069 -0.05521252
 -0.05513533 -0.05506239 -0.05500027 -0.05495279 -0.05491705 -0.05489426 -0.05487353 -0.05485414 -0.05482339 -0.05478024
 -0.05471821 -0.05463745 -0.05454458 -0.05444099 -0.05434118 -0.0542453 -0.05416211 -0.05408996 -0.05402857 -0.05397678
 -0.05393292 -0.05389456 -0.05385938 -0.05382082 -0.05377156 -0.05370859 -0.05362519 -0.05353024 -0.0534251 -0.05332089
 -0.05322276 -0.05312957 -0.05304303 -0.05295309 -0.05285839 -0.05275467 -0.0526412 -0.05252605 -0.05240962 -0.05230095
 -0.05219868 -0.05209623 -0.0519903 -0.05186045 -0.05170875 -0.05152829 -0.05132809 -0.05112416 -0.05091902 -0.0507253
 -0.05053522 -0.05034535 -0.05015066 -0.04994425 -0.04973297 -0.0495171 -0.04930705 -0.04910671 -0.04891956 -0.04874809
 -0.04858625 -0.048435 -0.04827485 -0.04810457 -0.04790475 -0.04767533 -0.04742707 -0.04716228 -0.04690692 -0.04665918
 -0.04642491 -0.04619953 -0.04597215 -0.0457411 -0.04549767 -0.04524261 -0.04497295 -0.04469089 -0.04439623 -0.04409497
 -0.04379177 -0.04348782 -0.04318891 -0.04287757 -0.04255121 -0.04218844 -0.04178142 -0.04133759 -0.04085553 -0.04035779
 -0.0398463 -0.03932739 -0.03880136 -0.03827085 -0.03773639 -0.03720706 -0.03667865 -0.03614043 -0.03557987 -0.03495282
 -0.03425429 -0.03344351 -0.03254746 -0.0315822 -0.03058425 -0.02960091 -0.02863444 -0.02770318 -0.02679141 -0.02589422
 -0.02500774 -0.02412923 -0.02326109 -0.0224081 -0.02154303 -0.02066881 -0.01970467 -0.01864412 -0.01743433 -0.01607655
 -0.01467164 -0.01322759 -0.01186701 -0.0105745 -0.009340455 -0.008146484 -0.006929719 -0.00568911 -0.004393231 -0.003045945
 -0.001648165 -0.0001787599 0.001368544 0.00305492 0.004920046 0.007016255 0.009402202 0.01200247 0.01483078 0.01769573
 0.02055816 0.02329876 0.02588996 0.02833235 0.03062129 0.03281935 0.03493167 0.03708739 0.03930043 0.04176942
 0.04447573 0.04746907 0.05065188 0.05373062 0.05668537 0.05929945 0.06168527 0.06391758 0.0660772 0.06828626
 0.07053975 0.07287361 0.07525715 0.07768109 0.08013653 0.08262821 0.08510518 0.08756252 0.08992936 0.09218802
 0.09436835 0.09647013 0.09855445 0.1006216 0.1026062 0.1045002 0.1061898 0.1076909 0.1090165 0.1102014
 0.1113691 0.112517 0.1137174 0.114905 0.1159996 0.1169966 0.117841 0.118609 0.1193477 0.1200744
 0.1208247 0.1215362 0.1221956 0.1227584 0.1232071 0.1235548 0.1237991 0.123973 0.1240789 0.1241402
 0.1241579 0.1241388 0.1240827 0.1239902 0.1238619 0.123699 0.1235046 0.123285 0.1230525 0.1228322
 0.122642 0.1225209 0.1224716 0.1225116 0.1226358 0.1228387 0.1231393 0.1235432 0.1240725 0.1247438
 0.1255282 0.1264251 0.1273915 0.1284172 0.1295131 0.1306781 0.1319456 0.1333169 0.1347946 0.1363772
 0.1380482 0.1398083 0.1416536 0.1435831 0.1455939 0.1476807 0.1498294 0.1520405 0.1543064 0.1566355
 0.159034 0.1615082 0.1640657 0.1667049 0.1694283 0.1722276 0.175101 0.1780414 0.1810482 0.1841111
 0.1872329 0.19037 0.1935209 0.1966137 0.1996452 0.2025894 0.2054487 0.2082526 0.2109858 0.2135943
 0.216041 0.218161 0.2199699 0.2214071 0.2225364 0.2234359 0.2241282 0.2246731 0.2250527 0.2252705
 0.2253131 0.2251879 0.2248337 0.2242573 0.2232875 0.221875 0.219969 0.2175132 0.2148936 0.2121409
 0.2094987 0.2069752 0.2043953 0.2017515 0.1989011 0.1958639 0.1926729 0.1893453 0.1859763 0.1825191
 0.1789557 0.1751426 0.1708293 0.1659907 0.1603715 0.1544244 0.1483964 0.1426284 0.1374562 0.1326314
 0.1281407 0.1237524 0.1193774 0.1150854 0.1108669 0.1068689 0.1031099 0.09956746 0.09623966 0.09299194
 0.08982269 0.08666437 0.08353341 0.08048268 0.07752682 0.0747491 0.07213596 0.06970333 0.06742062 0.06524768
 0.06316355 0.06113533 0.05913953 0.05716475 0.05514331 0.05304382 0.05079893 0.04833497 0.04582433 0.04326222
 0.04098492 0.03906999 0.0374846 0.03624424 0.03508951 0.03400814 0.03285219 0.03162833 0.03036363 0.02907304
 0.02785755 0.02670936 0.02565407 0.02467958 0.02375877 0.02291668 0.02217342 0.02157061 0.02117043 0.02096748
 0.02098614 0.02118293 0.02154078 0.02203253 0.02264149 0.02337016 0.0242098 0.02520276 0.02634624 0.02774249
 0.02940175 0.03138736 0.03370107 0.03614643 0.03870184 0.04104085 0.04317332 0.04498484 0.0465064 0.04778573
 0.04883483 0.0496975 0.05039003 0.05093903 0.05140511 0.05184633 0.05235979 0.05304879 0.05392745 0.05506755
 0.05630857 0.05760748 0.05885457 0.05999788 0.06109043 0.06212953 0.06319693 0.06430172 0.06546902 0.06670022
 0.06795961 0.06924512 0.07051682 0.07178213 0.07305691 0.07436038 0.07576884 0.0772899 0.07899228 0.08083887
 0.08280464 0.08484717 0.08689693 0.08897101 0.09105749 0.09318732 0.09538496 0.0976266 0.09991618 0.102199
 0.104459 0.106682 0.1088595 0.111023 0.1131766 0.1153199 0.1174526 0.1194672 0.1213548 0.1229685
 0.1243095 0.1253101 0.1259756 0.1262928 0.1262531 0.12583 0.1250153 0.123776 0.1221338 0.1200896
 0.1176964 0.1149902 0.1120233 0.1088343 0.105444 0.1018674 0.09811295 0.09417125 0.09012432 0.08596871
 0.08188793 0.07789891 0.07413247 0.07059634 0.06725896 0.0641148 0.06107872 0.05815719 0.05534313 0.05265285
 0.05014689 0.04782011 0.04569851 0.04375087 0.04194035 0.04023667 0.03859149 0.03698855 0.0353998 0.03382041
 0.03223836 0.03066306 0.02909209 0.02754912 0.0260396 0.02457948 0.02317432 0.02181382 0.02049777 0.01921199
 0.01795565 0.01675124 0.01560234 0.01456435 0.0136369 0.01284934 0.01219095 0.01163908 0.01118446 0.01079249
 0.01046329 0.01018173 0.00995088 0.009770312 0.009637554 0.009554096 0.009505977 0.009490732 0.009480907 0.009468757
 0.009423523 0.00933619 0.009188439 0.008974864 0.008695315 0.008348422 0.007947643 0.007493648 0.007004255 0.006480193
 0.005934483 0.00536794 0.004790632 0.004205859 0.003629589 0.003067363 0.002540244 0.002051773 0.00161722 0.00123736
 0.0009187523 0.0006612636 0.0004679022 0.0003344503 0.0002621495 0.0002371696 0.0002567043 0.0003020112 0.0003681353 0.000442123
 0.0005209279 0.0005994321 0.0006768457 0.0007504945 0.0008201972 0.0008822595 0.0009365151 0.0009796392 0.001011975 0.001034068
 0.001046208 0.001051586 0.001046186 0.001025059 0.0009766648 0.0008807447 0.0007258267 0.0004882978 0.0001697685 -0.0002400566
 -0.0007237905 -0.001277292 -0.00187733 -0.002515951 -0.003171204 -0.003837217 -0.004494995 -0.005140736 -0.005762129 -0.00635734
 -0.006922374 -0.007456902 -0.007959616 -0.008430224 -0.008864358 -0.009261332 -0.00961433 -0.009923427 -0.01018445 -0.01039971
 -0.0105719 -0.01070535 -0.01080858 -0.01088435 -0.01094013 -0.01097406 -0.0109875 -0.01097682 -0.01093958 -0.01087613
 -0.01078469 -0.01067211 -0.01053859 -0.01039597 -0.01024541 -0.01010119 -0.009964655 -0.009848121 -0.009752402 -0.009684486
 -0.009644319 -0.009632329 -0.009647529 -0.009684359 -0.009741133 -0.009808669 -0.009885769 -0.009964589 -0.01004555 -0.01012532
 -0.01020615 -0.01028851 -0.01037706 -0.01047504 -0.01058807 -0.01072069 -0.01087415 -0.01105109 -0.0112464 -0.01145986
 -0.01168402 -0.01191763 -0.01215551 -0.01239692 -0.01263979 -0.01288391 -0.01313259 -0.01338628 -0.01365285 -0.01393201
 -0.01422653 -0.01453417 -0.01484728 -0.01516502 -0.01548014 -0.015796 -0.01611527 -0.01644042 -0.01677748 -0.01712164
 -0.0174721 -0.01782076 -0.01816186 -0.0184938 -0.01881315 -0.01912671 -0.01943545 -0.01974585 -0.02006006 -0.02037537
 -0.02069234 -0.02100022 -0.0212984 -0.02157709 -0.02183615 -0.0220726 -0.02228663 -0.02247798 -0.02264671 -0.02279225
 -0.02291602 -0.02302042 -0.02310905 -0.02318951 -0.0232635 -0.02333827 -0.0234074 -0.02347063 -0.02351358 -0.02352868
 -0.02350351 -0.02342992 -0.02330794 -0.02313451 -0.02292015 -0.02266619 -0.02238099 -0.02206586 -0.02172208 -0.02134972
 -0.02095219 -0.02053034 -0.02009827 -0.01965776 -0.01922832 -0.01881016 -0.01841567 -0.01804144 -0.01768622 -0.01734385
 -0.01700296 -0.01665915 -0.01630132 -0.01593124 -0.01554522 -0.01515083 -0.01475026 -0.01435362 -0.01396466 -0.01359309
 -0.01324263 -0.01291688 -0.01261828 -0.01233895 -0.01207877 -0.01182553 -0.01157836 -0.01133277 -0.01108867 -0.01084588
 -0.01060314 -0.01035229 -0.01009054 -0.009802372 -0.009485908 -0.009128104 -0.008729305 -0.008283094 -0.00779356 -0.00726094
 -0.006695757 -0.006105258 -0.005502904 -0.004898461 -0.004300402 -0.003715205 -0.003143089 -0.00258635 -0.002038378 -0.0014992
 -0.000957412 -0.0004117198 0.0001456408 0.0007154467 0.001292808 0.001877323 0.002460474 0.003043066 0.003627155 0.004213626
 0.004808725 0.005409321 0.006011399 0.006609251 0.007190714 0.007752089 0.008283386 0.008784587 0.00925071 0.009688163
 0.01009689 0.01049117 0.01087494 0.01126566 0.01166753 0.01209841 0.01256134 0.01307349 0.01363771 0.01425861
 0.01493708 0.0156576 0.01641906 0.0172004 0.01800125 0.01880995 0.0196256 0.02043965 0.02124825 0.02203797
 0.02280292 0.02352847 0.02420473 0.02481668 0.02534784 0.02577922 0.02609921 0.02629165 0.02636602 0.02631799
 0.02617622 0.02594504 0.02565916 0.02532376 0.02497358 0.02461227 0.02427189 0.02395472 0.0236853 0.02346451
 0.02330716 0.02321298 0.0231879 0.02323035 0.02333768 0.02350738 0.02373237 0.02400854 0.02432802 0.02468023
 0.02505223 0.02542518 0.02578026 0.02609786 0.02636186 0.02655767 0.02667633 0.02670723 0.02664459 0.02648837
 0.02623506 0.02590434 0.0254968 0.02504158 0.02454067 0.02401483 0.02346494 0.02290429 0.02233383 0.02176714
 0.02120507 0.02065862 0.02012777 0.01961803 0.01912906 0.01866417 0.01821909 0.01779283 0.01737219 0.01694826
 0.01650099 0.0160178 0.01547804 0.01487062 0.01418158 0.01340299 0.01253719 0.01158131 0.01055359 0.00945554
 0.008303465 0.007098679 0.005847716 0.004551292 0.003222479 0.00186383 0.000501395 -0.0008628283 -0.002206478 -0.003529198
 -0.004819955 -0.006075972 -0.007287731 -0.00845104 -0.009555199 -0.01060189 -0.01158709 -0.01251931 -0.01340143 -0.01424437
 -0.01505264 -0.01583653 -0.01659983 -0.01734882 -0.0180857 -0.01881067 -0.01952409 -0.02022452 -0.02091186 -0.02158569
 -0.02224573 -0.02288572 -0.02350441 -0.02408883 -0.02463806 -0.02514121 -0.02559823 -0.02600332 -0.0263569 -0.02665578
 -0.02690398 -0.02710346 -0.02726372 -0.02739344 -0.02750138 -0.02759611 -0.02768021 -0.02775701 -0.02782572 -0.02788658
 -0.02793927 -0.02798332 -0.0280215 -0.02805336 -0.02808863 -0.0281278 -0.0281833 -0.02825533 -0.02834474 -0.02844978
 -0.02855678 -0.02866399 -0.02875623 -0.02883372 -0.02888932 -0.02892381 -0.02893507 -0.02892457 -0.02889293 -0.02884274
 -0.02877653 -0.02869641 -0.02860459 -0.02850155 -0.02838794 -0.02826401 -0.02812973 -0.02798635 -0.02783373 -0.02767513
 -0.02751057 -0.02734599 -0.02718177 -0.02702303 -0.02687006 -0.02672688 -0.02659485 -0.02648635 -0.02640392 -0.02636748
 -0.02637481 -0.02643299 -0.02653129 -0.02665265 -0.02678709 -0.02691192 -0.02702793 -0.02712684 -0.02721523 -0.02729665
 -0.0273704 -0.0274396 -0.02749216 -0.02752669 -0.02752612 -0.02748676 -0.02739795 -0.02725697 -0.02706733 -0.02682872
 -0.02655509 -0.02624711 -0.02591686 -0.02556442 -0.02519511 -0.02480971 -0.02441364 -0.02400985 -0.02360939 -0.02321531
 -0.02283997 -0.02248187 -0.02214576 -0.02182445 -0.02151295 -0.0212051 -0.0208937 -0.02058156 -0.02026717 -0.01995797
 -0.01965624 -0.01936542 -0.01908591 -0.01882328 -0.01857713 -0.01836345 -0.01818355 -0.01804738 -0.01795458 -0.0178847
 -0.01783444 -0.01776455 -0.01767591 -0.01754958 -0.01739381 -0.01722386 -0.01704464 -0.01687689 -0.0167121 -0.01654839
 -0.01637379 -0.01617242 -0.01594842 -0.01569653 -0.01543406 -0.01516982 -0.01490702 -0.01465236 -0.0143859 -0.0141045
 -0.01379328 -0.01344745 -0.01308237 -0.01269806 -0.01232666 -0.01196941 -0.01164217 -0.01134272 -0.01105793 -0.01078404
 -0.01049533 -0.01019232 -0.009861522 -0.009509536 -0.009143073 -0.008768351 -0.008398445 -0.008032421 -0.007674903 -0.007320955
 -0.006967847 -0.006614529 -0.006259024 -0.005904607 -0.005552086 -0.005203157 -0.004858823 -0.004516589 -0.004176348 -0.003835025
 -0.003492235 -0.003149261 -0.002806168 -0.002465251 -0.002125829 -0.001782134 -0.001433711 -0.001072763 -0.0007045633 -0.0003393658
 1.392481E-05 0.0003288253 0.0006086356 0.0008411729 0.001048513 0.001246355 0.001457081 0.001703742 0.001987783 0.002319755
 0.002679332 0.003064935 0.003447576 0.003821381 0.004164147 0.004471092 0.004739102 0.004966914 0.00516759 0.005341961
 0.005509024 0.00567073 0.005852826 0.006057087 0.006308954 0.006602671 0.006937253 0.007298659 0.00765519 0.008002583
 0.008316352 0.0086113 0.008893495 0.009175465 0.009472086 0.009774843 0.01008513 0.01038752 0.01067542 0.0109479
 0.01120209 0.01144949 0.01169153 0.011935 0.01218117 0.01242173 0.01265614 0.0128674 0.01305565 0.01321464
 0.01334711 0.01346361 0.01356624 0.01366675 0.01376646 0.0138718 0.01398825 0.01412592 0.01429026 0.0144932
 0.01472883 0.01499931 0.0152897 0.0155948 0.01589897 0.01619731 0.01647431 0.01672505 0.01694429 0.0171284
 0.01729655 0.0174496 0.01761112 0.01778197 0.01796179 0.01815042 0.01834387 0.01854652 0.01878012 0.0190464
 0.01936697 0.01972996 0.02012237 0.02052883 0.02091861 0.02128973 0.02162562 0.02193889 0.0222311 0.0225209
 0.02281881 0.02313246 0.02347086 0.02381584 0.02416679 0.02449694 0.02480019 0.0250795 0.02533342 0.02558991
 0.02585022 0.02613021 0.02642931 0.02674656 0.02708181 0.02743442 0.0278042 0.02819137 0.02859311 0.02900486
 0.0294207 0.02983304 0.03022859 0.03059382 0.0309102 0.03115843 0.03133468 0.03142671 0.03145736 0.03142754
 0.03137435 0.03130317 0.03125679 0.03124097 0.03129391 0.031421 0.03161729 0.03188197 0.03215561 0.03243615
 0.03267683 0.03288617 0.03308396 0.03328107 0.03352649 0.03381721 0.03417505 0.03458134 0.03502024 0.03546827
 0.03588957 0.0362868 0.03663367 0.03699733 0.03739198 0.03791802 0.03863661 0.03949572 0.04052175 0.04148851
 0.04235668 0.04305917 0.04358084 0.04400124 0.04432362 0.04458964 0.04479736 0.04493617 0.04500631 0.04500281
 0.04493119 0.04480777 0.04463552 0.04443047 0.04418914 0.04391471 0.04359884 0.04323098 0.04281422 0.04233895
 0.04183903 0.04132525 0.0408368 0.0403943 0.03999752 0.03965373 0.0393342 0.03903504 0.03874098 0.03844973
 0.03816293 0.03788058 0.03760572 0.03733869 0.03708564 0.03684507 0.03661494 0.03638788 0.03613551 0.03585843
 0.03553402 0.03519178 0.0348665 0.03458441 0.03440259 0.03428433 0.03423044 0.03417299 0.0340723 0.03390567
 0.03365022 0.03332999 0.03294175 0.03253466 0.03211164 0.0317413 0.03143041 0.03122082 0.03111458 0.03108861
 0.0311397 0.03122251 0.03133689 0.03145938 0.03159149 0.03172487 0.03186308 0.03200869 0.03216772 0.03235295
 0.03256188 0.03279988 0.03305329 0.03331473 0.0335703 0.03381204 0.03402785 0.03421124 0.03435782 0.03446119
 0.03454529 0.03461141 0.03469178 0.03479169 0.0348959 0.03500363 0.03506701 0.0350868 0.03505716 0.03498468
 0.03490638 0.03482144 0.03474694 0.03467731 0.0346046 0.03453339 0.03446614 0.03441136 0.03437991 0.0343756
 0.03440553 0.03446828 0.03457236 0.03468661 0.0348108 0.03487955 0.03487427 0.03476783 0.03454461 0.03426715
 0.03393735 0.03364389 0.03339157 0.03321644 0.03311643 0.03307639 0.03309128 0.03312562 0.03317578 0.0332078
 0.03322714 0.03322855 0.03322113 0.03322281 0.0332236 0.03322366 0.03319944 0.0331285 0.03301045 0.03283356
 0.03262375 0.03238784 0.03214487 0.03190285 0.03165989 0.03141853 0.03116143 0.03088785 0.03057344 0.03021685
 0.02981928 0.02938398 0.02895435 0.02853305 0.02815994 0.02782985 0.0275452 0.02730105 0.02708662 0.02690054
 0.02673759 0.02659285 0.02645704 0.02633256 0.02621564 0.02611842 0.02605243 0.02600256 0.02597232 0.02591825
 0.02582541 0.02569249 0.0255106 0.02533914 0.02518357 0.02507787 0.02502422</values></Ydata></AB><ScSm><Ydata ylabel="Single channel"><values byteorder="INTEL" format="FLOAT32" numvalues="1814"> 0.07137413 0.0713928 0.07147594 0.07164244 0.07186215 0.07207026 0.07221287 0.07228289 0.07230232 0.07227927
 0.07221699 0.07216455 0.07220876 0.07238898 0.07264003 0.072834 0.07288101 0.0728092 0.0727526 0.0728215
 0.07295831 0.07295147 0.07263505 0.07207601 0.07153156 0.07121183 0.07114703 0.07133172 0.07184994 0.07263599
 0.07320671 0.07300687 0.07210885 0.07124024 0.07097885 0.07119755 0.07140505 0.07131067 0.07091837 0.07041548
 0.07021177 0.07082243 0.0723611 0.07413198 0.07488373 0.07359399 0.07019562 0.06581242 0.06235047 0.06147532
 0.06343413 0.06672169 0.06921402 0.06986335 0.06919514 0.06823117 0.0673918 0.066632 0.06615122 0.06642801
 0.06755835 0.06881152 0.06900712 0.0675239 0.06504136 0.06305945 0.06253076 0.06326301 0.06472173 0.066612
 0.0680638 0.06716974 0.06286366 0.05729286 0.05485597 0.0580204 0.06469198 0.07026568 0.07171813 0.06929547
 0.0651811 0.0616907 0.06039757 0.06169945 0.06474489 0.06814411 0.07081459 0.07202969 0.07122818 0.06850306
 0.06508338 0.0627398 0.06269789 0.06515723 0.06924689 0.07310515 0.07473037 0.07346229 0.0704181 0.06731257
 0.06533293 0.06514989 0.06708293 0.07076009 0.07510108 0.07894852 0.08154131 0.08258262 0.0822949 0.08127969
 0.08006331 0.07901795 0.07868197 0.07942112 0.08056706 0.08067843 0.07911015 0.07687217 0.07558697 0.07581189
 0.07659726 0.07664348 0.0756171 0.07393411 0.07147256 0.0675513 0.06249444 0.05804428 0.05561727 0.05522717
 0.05652583 0.05935221 0.06250855 0.06369482 0.06203203 0.0596618 0.05961775 0.0625872 0.06656235 0.069286
 0.07033578 0.07096136 0.07247702 0.07491882 0.07687764 0.07656647 0.07359883 0.06997904 0.06868017 0.07072408
 0.07420079 0.0766138 0.07750699 0.07817771 0.07940964 0.0802599 0.07904492 0.07534163 0.07105908 0.06926141
 0.07150129 0.07626412 0.0800658 0.0800327 0.07583562 0.06975941 0.06492036 0.06311202 0.06432336 0.06792031
 0.07334004 0.07947759 0.0844084 0.08646944 0.08547369 0.08259831 0.07904527 0.07493811 0.06996612 0.06522584
 0.06343641 0.06636386 0.07255971 0.07857222 0.08202806 0.08281098 0.08171256 0.078967 0.07447463 0.06920423
 0.06564605 0.06587583 0.06905194 0.07189713 0.0721312 0.07054669 0.06931122 0.06926589 0.0696249 0.06964043
 0.06966459 0.07054535 0.0724155 0.07437455 0.07536085 0.07511795 0.07423423 0.07345109 0.07299301 0.07241593
 0.07123712 0.06989941 0.06971897 0.0714433 0.07422057 0.07647587 0.07749182 0.07766557 0.07745911 0.0766032
 0.07450163 0.07135983 0.06864841 0.06801349 0.06968098 0.0723123 0.07439648 0.07533866 0.07531792 0.07473932
 0.07395978 0.073169 0.07244867 0.07202339 0.07220708 0.07294957 0.07373257 0.07408996 0.0739889 0.07360069
 0.07297301 0.0720906 0.07110427 0.07033816 0.07005647 0.07025868 0.07072333 0.07120952 0.07154283 0.07156876
 0.07120413 0.07056441 0.06989745 0.06935962 0.06896353 0.06872586 0.06871292 0.0689081 0.069153 0.06927676
 0.06922786 0.06905171 0.06879416 0.06846863 0.0680937 0.06772929 0.06746793 0.06737363 0.06740905 0.0674559
 0.06744579 0.06742811 0.06745316 0.06744607 0.06728491 0.06697109 0.06663813 0.06640622 0.06628861 0.06622525
 0.066145 0.06597978 0.06566681 0.06520347 0.06471528 0.06440987 0.06441213 0.06467101 0.06504028 0.06538858
 0.06561741 0.06567046 0.06557874 0.06543364 0.06527996 0.06508362 0.06481932 0.06454776 0.06438959 0.06443
 0.06463962 0.06489104 0.06506387 0.06512123 0.06509067 0.06502523 0.06499058 0.06502186 0.06506953 0.06504379
 0.0649289 0.0648071 0.06476025 0.06478214 0.06479573 0.0647417 0.0646454 0.06459207 0.06463318 0.06473613
 0.06483527 0.06490581 0.06496981 0.06504503 0.06510301 0.06508395 0.06496412 0.06480112 0.0646845 0.06464587
 0.06465122 0.06467495 0.06473547 0.06484795 0.06497797 0.06506605 0.06508932 0.06508198 0.06508641 0.06509533
 0.06506388 0.06497593 0.06487116 0.06480107 0.06478195 0.06479648 0.06481934 0.06483139 0.06482102 0.06478284
 0.06471659 0.06462716 0.06452481 0.06442672 0.06435933 0.06435008 0.06439908 0.06445862 0.06445923 0.0643687
 0.06422201 0.06408666 0.06399994 0.06394254 0.06387248 0.06377532 0.06367312 0.06359136 0.06353319 0.0634867
 0.06344234 0.06339949 0.06337088 0.06338603 0.06347255 0.06361815 0.06376229 0.06384401 0.06385694 0.06384568
 0.06385493 0.06389661 0.0639593 0.06403176 0.06411702 0.06422947 0.06437032 0.06450693 0.06459855 0.06464814
 0.06470542 0.06481305 0.06497188 0.06515791 0.06534281 0.06549594 0.06560022 0.065678 0.065777 0.06592034
 0.06608729 0.0662483 0.06639946 0.06655411 0.06671867 0.06689398 0.06709224 0.06733435 0.06762695 0.067948
 0.06825496 0.06850953 0.068707 0.0688896 0.06912136 0.06943659 0.06981124 0.070186 0.07051658 0.07080391
 0.07107992 0.07136687 0.07165905 0.07195027 0.07226276 0.0726257 0.07303219 0.07344238 0.07382847 0.07419579
 0.07456182 0.07493453 0.07531399 0.0757011 0.07609902 0.07650806 0.07691745 0.07730655 0.07766236 0.07799475
 0.07832809 0.07868227 0.07906457 0.07946432 0.07984635 0.08017082 0.08043984 0.08070929 0.08102937 0.08138392
 0.08171511 0.08200181 0.08228328 0.08260231 0.08295406 0.08330562 0.08364514 0.0839906 0.08435526 0.08471981
 0.08504246 0.08529468 0.08548941 0.0856738 0.08589143 0.0861558 0.08646359 0.08681637 0.08720899 0.08760697
 0.08796138 0.08824763 0.08847556 0.08867106 0.08886464 0.08908537 0.08934157 0.08961208 0.08986835 0.09009452
 0.09028232 0.09043486 0.09058836 0.09079928 0.09108821 0.09142055 0.09175998 0.09211262 0.09249391 0.09288145
 0.09324117 0.09358835 0.09397649 0.09441684 0.09484552 0.09518887 0.09543362 0.09561455 0.09576795 0.09592975
 0.09615219 0.09647533 0.09688374 0.09731948 0.09773622 0.09812316 0.09848506 0.09882133 0.09912452 0.09938637
 0.09960259 0.09977767 0.09992744 0.1000771 0.1002525 0.1004624 0.1006839 0.1008746 0.1010013 0.1010497
 0.1010074 0.1008612 0.1006274 0.1003626 0.100114 0.09986268 0.09953567 0.09907281 0.09846509 0.09773074
 0.09688082 0.09592394 0.09489673 0.09387766 0.09296732 0.09225191 0.09178327 0.09158984 0.09169023 0.09207399
 0.09266755 0.09333927 0.09394832 0.09438077 0.09454806 0.09438936 0.09390247 0.09316126 0.0922832 0.09137831
 0.09052427 0.08976123 0.08909021 0.08849415 0.08798808 0.08765066 0.08759998 0.08794998 0.08879541 0.09019931
 0.09213635 0.0944339 0.09680612 0.098987 0.1008469 0.1023957 0.1037086 0.1048671 0.1059406 0.1069693
 0.107947 0.1088405 0.1096331 0.1103394 0.1109789 0.111552 0.112042 0.1124273 0.1126929 0.1128438
 0.1129086 0.1129266 0.1129384 0.1129871 0.1131072 0.1132926 0.1134795 0.1135714 0.1134829 0.1131721
 0.1126562 0.1120314 0.1115004 0.1113714 0.1119704 0.1134655 0.1157264 0.1183654 0.1209448 0.1231716
 0.1249465 0.1263064 0.1273538 0.1282038 0.1289466 0.129633 0.1302868 0.1309191 0.131532 0.1321225
 0.1326897 0.1332383 0.1337765 0.1343093 0.1348293 0.1353195 0.1357723 0.1362056 0.1366515 0.1371284
 0.1376253 0.1381146 0.1385806 0.139032 0.139483 0.1399273 0.1403452 0.1407336 0.1411127 0.1415034
 0.1419125 0.1423364 0.1427619 0.1431654 0.143528 0.143856 0.144176 0.1445094 0.1448579 0.1452101
 0.1455557 0.1458913 0.1462215 0.1465568 0.1469084 0.1472766 0.1476405 0.1479685 0.1482477 0.1484984
 0.1487556 0.1490387 0.1493409 0.1496439 0.149941 0.1502466 0.1505815 0.1509466 0.1513152 0.1516543
 0.1519527 0.1522268 0.1525052 0.1528072 0.1531305 0.1534563 0.1537682 0.1540671 0.1543658 0.154673
 0.1549862 0.1552981 0.1556052 0.1559091 0.1562117 0.1565136 0.1568151 0.1571183 0.157428 0.1577515
 0.1580936 0.1584463 0.1587869 0.1590941 0.1593659 0.1596187 0.1598693 0.1601241 0.1603838 0.1606516
 0.1609321 0.1612265 0.1615305 0.1618363 0.162137 0.1624301 0.162719 0.1630114 0.163314 0.1636256
 0.1639411 0.1642595 0.1645831 0.164907 0.1652163 0.1655029 0.1657782 0.1660624 0.1663628 0.1666691
 0.1669669 0.1672527 0.1675346 0.1678204 0.1681104 0.1684006 0.168691 0.1689831 0.169274 0.1695572
 0.1698306 0.1700992 0.1703713 0.1706512 0.1709365 0.1712218 0.1715043 0.1717852 0.1720661 0.1723479
 0.1726317 0.1729166 0.1731991 0.1734763 0.1737503 0.1740264 0.1743064 0.1745841 0.1748498 0.175103
 0.1753564 0.1756223 0.1758975 0.1761688 0.1764275 0.1766763 0.1769248 0.1771838 0.1774589 0.1777467
 0.1780389 0.1783292 0.1786147 0.1788954 0.1791759 0.1794602 0.1797459 0.180028 0.1803056 0.1805818
 0.1808604 0.1811454 0.1814359 0.1817243 0.1820038 0.1822753 0.1825431 0.1828091 0.1830744 0.1833408
 0.1836069 0.1838685 0.1841232 0.1843731 0.1846262 0.1848925 0.1851717 0.1854533 0.1857327 0.1860167
 0.1863092 0.1866026 0.1868881 0.1871636 0.1874319 0.1877001 0.1879746 0.1882544 0.1885352 0.1888182
 0.189107 0.1893992 0.1896904 0.1899791 0.1902647 0.1905493 0.1908377 0.1911264 0.1914023 0.1916607
 0.1919129 0.192171 0.1924392 0.1927168 0.192998 0.1932757 0.193551 0.193829 0.1941058 0.1943759
 0.1946441 0.1949148 0.1951835 0.1954487 0.1957177 0.1959933 0.1962729 0.1965567 0.1968422 0.1971203
 0.1973892 0.1976542 0.1979155 0.1981754 0.1984455 0.1987293 0.1990132 0.1992844 0.1995368 0.1997554
 0.1999016 0.1998622 0.1993335 0.1977071 0.1940608 0.1873364 0.1767503 0.162282 0.1448568 0.126022
 0.1073756 0.09014592 0.07506131 0.06244011 0.05235169 0.044724 0.03940602 0.03627021 0.03532448 0.03682765
 0.04140747 0.049684 0.06088778 0.07165168 0.0773284 0.07565378 0.0689076 0.06183765 0.05772194 0.05679146
 0.05764522 0.05908658 0.06073583 0.06280863 0.06567457 0.06943619 0.07391535 0.07910898 0.08540484 0.09308571
 0.1017432 0.1104507 0.1185581 0.1261965 0.1339625 0.1421961 0.1506259 0.1586418 0.1657811 0.1719554
 0.1773558 0.1822452 0.1868088 0.1911279 0.1952347 0.199122 0.2026624 0.2055656 0.207514 0.2084063
 0.2084813 0.2081861 0.20791 0.2078263 0.207942 0.2082252 0.208663 0.2092487 0.2099652 0.2107834
 0.2116644 0.2125722 0.2134841 0.2143838 0.2152516 0.216068 0.2168194 0.2174994 0.2181122 0.2186709
 0.2191863 0.2196624 0.2201059 0.2205268 0.2209295 0.2213149 0.2216865 0.222043 0.2223726 0.2226662
 0.2229296 0.2231756 0.2234152 0.223657 0.2239067 0.2241633 0.2244197 0.2246673 0.2248989 0.2251149
 0.2253265 0.225547 0.2257794 0.226018 0.2262569 0.2264908 0.2267152 0.226933 0.2271537 0.2273836
 0.2276202 0.2278582 0.2280938 0.2283255 0.2285545 0.2287829 0.2290111 0.2292394 0.2294697 0.2297024
 0.2299341 0.2301649 0.2304 0.2306431 0.2308951 0.2311552 0.2314179 0.2316759 0.2319286 0.2321802
 0.2324228 0.2326388 0.2328249 0.2330034 0.2332073 0.2334555 0.2337378 0.2340214 0.2342792 0.2345118
 0.2347346 0.2349572 0.2351803 0.2353997 0.2356137 0.2358397 0.2361075 0.236419 0.2367374 0.2370363
 0.2373293 0.237636 0.2379529 0.2382689 0.2385693 0.2388202 0.2389918 0.2391144 0.2392818 0.2395797
 0.2400061 0.2404679 0.2408655 0.2411767 0.2414484 0.2417337 0.24206 0.2424074 0.2426763 0.2427539
 0.2426847 0.2427064 0.2430322 0.2436394 0.244324 0.2449102 0.2453549 0.2457026 0.2460015 0.2462559
 0.2464266 0.2464824 0.2464786 0.2465777 0.2469384 0.2475463 0.248208 0.2487455 0.2491341 0.2494298
 0.2496707 0.2498801 0.2500292 0.2499667 0.2495769 0.2490831 0.248997 0.2496194 0.2506979 0.2516996
 0.2523433 0.25274 0.2530858 0.2534202 0.2536922 0.2538041 0.2534887 0.2524624 0.2509808 0.2499894
 0.2503417 0.2519389 0.2538913 0.2554049 0.2562833 0.2567337 0.2570184 0.2572765 0.2574149 0.2571268
 0.2562354 0.2551278 0.2546444 0.255302 0.2567158 0.258015 0.2587299 0.2590339 0.2592735 0.2595828
 0.2597985 0.2594142 0.257862 0.2553475 0.2532803 0.2532872 0.2556187 0.2588448 0.2612731 0.2624106
 0.2628332 0.2629359 0.2623528 0.2606178 0.2578629 0.2547595 0.252312 0.2517216 0.2535867 0.2569079
 0.2596566 0.2607781 0.2610805 0.2619006 0.2635115 0.2651277 0.2659292 0.2656964 0.2646776 0.26314
 0.2612382 0.2594291 0.2587241 0.2599691 0.2628099 0.2658274 0.267857 0.2688712 0.2693416 0.2688555
 0.2658524 0.2594905 0.2519715 0.2479291 0.2503377 0.2574037 0.2645002 0.2687207 0.270467 0.2712741
 0.2717522 0.2714194 0.2689762 0.2630123 0.2542292 0.2468435 0.2457362 0.2516223 0.260236 0.2663127
 0.2671852 0.2630676 0.2560944 0.2496778 0.2471203 0.2496124 0.2557113 0.262766 0.268512 0.2716858
 0.2720036 0.270036 0.2671569 0.2652055 0.265161 0.2656881 0.2641448 0.2599227 0.2554701 0.2526988
 0.2500226 0.2452934 0.2405274 0.24056 0.2467602 0.2547351 0.2592598 0.259563 0.2583809 0.2569776
 0.252986 0.243829 0.2316199 0.2232317 0.2242793 0.2332983 0.2430589 0.2476365 0.2471118 0.2454426
 0.2451761 0.2448559 0.2410893 0.2329798 0.2243383 0.2204769 0.222564 0.2265746 0.2280445 0.2256452
 0.2196183 0.2102962 0.2006129 0.1970353 0.2040936 0.2188149 0.2330727 0.2403035 0.2379183 0.225808
 0.2071654 0.1903097 0.1846453 0.1922635 0.2054058 0.2136072 0.2120058 0.2021808 0.1876296 0.1713558
 0.1572436 0.1504906 0.1544584 0.1672376 0.1818413 0.1897584 0.1856417 0.1713863 0.1563301 0.1505392
 0.1557492 0.164261 0.1676001 0.1641959 0.1581489 0.1538597 0.153453 0.1565588 0.1607509 0.163758
 0.1652717 0.1645522 0.1580058 0.1435446 0.1265354 0.1163146 0.1164668 0.122939 0.1315257 0.1416374
 0.1515264 0.1557196 0.1512057 0.1431906 0.140686 0.146945 0.156667 0.1624684 0.1621743 0.159211
 0.1572584 0.156302 0.154488 0.1523958 0.1531938 0.1582615 0.1647741 0.1688519 0.1696064 0.168798
 0.1678594 0.1668169 0.1653067 0.1632215 0.1606245 0.1578286 0.1553108 0.1531802 0.1510862 0.1487609
 0.1460135 0.14199 0.1354013 0.1264392 0.1179284 0.113147 0.1124252 0.1133408 0.1142653 0.1153466
 0.1152632 0.1102446 0.09906317 0.08716914 0.08274005 0.08879812 0.1009723 0.1124539 0.1191258 0.1198843
 0.1147026 0.1050617 0.095932 0.09420708 0.1030437 0.1188297 0.1350957 0.1480775 0.1570756 0.161399
 0.1599384 0.1536719 0.1466029 0.1435097 0.1470893 0.1567153 0.1685272 0.1763196 0.1745861 0.1640822
 0.1544315 0.1570226 0.1729346 0.1910082 0.2003852 0.2015655 0.2018997 0.2041688 0.2052284 0.2041584
 0.2054909 0.2129501 0.2239051 0.2319314 0.2324385 0.2244729 0.2100757 0.1946764 0.1856959 0.1866896
 0.1934408 0.1986499 0.1990601 0.1950471 0.1862565 0.1733435 0.1625676 0.16204 0.172268 0.1850109
 0.1926593 0.1951683 0.1966472 0.1983023 0.1970558 0.1902962 0.1802421 0.172563 0.1707689 0.1731374
 0.1756301 0.1761691 0.1747164 0.1708806 0.1641491 0.1564157 0.1519999 0.153936 0.1608999 0.1685086
 0.1732832 0.1748498 0.1748617 0.1748675 0.175248 0.1753833 0.1747779 0.1745226 0.177071 0.1835291
 0.191731 0.198383 0.2028072 0.2071597 0.2130384 0.2192354 0.2231571 0.2236452 0.2221256 0.2214357
 0.2235774 0.2281067 0.2324388 0.2340482 0.2328647 0.2315453 0.2330128 0.237654 0.2432546 0.2475075
 0.2499015 0.25125 0.2523286 0.2532215 0.2532867 0.2516678 0.2485752 0.2460435 0.2465134 0.2504134
 0.2557325 0.2600649 0.2625212 0.2636099 0.2639539 0.2635992 0.2623987 0.2606477 0.2590985 0.2583755
 0.2585391 0.259241 0.2601121 0.2609217 0.2615493 0.2619761 0.262269 0.262513 0.2627884 0.2631916
 0.263782 0.264495 0.2652008 0.2658765 0.2666394 0.2675627 0.2685266 0.2693151 0.2697982 0.2699357
 0.2696628 0.2689111 0.267741 0.2663209 0.2647376 0.2629474 0.2610242 0.2594112 0.2587826 0.259555
 0.2615238 0.263998 0.2662722 0.2679731 0.2690609 0.2696645 0.269962 0.2701222 0.270255 0.270384
 0.270477 0.2705059 0.270474 0.2703989 0.2702941 0.2701828 0.2701121 0.2701247 0.2702161 0.2703331
 0.2704098 0.2704013 0.2702999 0.2701372 0.2699549 0.2697555 0.2694845 0.2690713 0.2684899 0.2677827
 0.267035 0.2663203 0.2656562 0.2650017 0.264301 0.2635203 0.2626268 0.261557 0.2602663 0.2588247
 0.2574048 0.2561348 0.2549953 0.2538796 0.25271 0.2514655 0.2501453 0.2487528 0.247299 0.2457922
 0.2442324 0.2426237 0.2409797 0.2393112 0.2376171 0.2358888 0.2341156 0.2322874 0.2303981 0.228443
 0.2263958 0.2241811 0.2216789 0.2187685 0.2153655 0.2114222 0.2069286 0.2019451 0.1966251 0.1911815
 0.1858206 0.1807034 0.1759456 0.1716392 0.1678717 0.1647272 0.162271 0.1605389 0.1595361 0.1592404
 0.1596124 0.160603 0.1621398 0.1641052 0.1663435 0.1686894 0.1709841 0.1730893 0.1749345 0.1765619
 0.1780967 0.179653 0.1812634 0.18289 0.1844835 0.1860126 0.1874425 0.1887153 0.1897757 0.1906074
 0.1912293 0.1916668 0.1919403 0.1920731 0.1920984 0.1920588 0.192001 0.1919733 0.1920309 0.1922342
 0.1926199 0.1931759 0.1938587 0.1946336 0.1954852 0.1963968 0.1973376 0.1982768 0.199205 0.2001419
 0.201127 0.2022127 0.2034695 0.2049756 0.2067785 0.2088723 0.2112189 0.2137658 0.2164295 0.2190871
 0.2216041 0.2238688 0.2258075 0.2273927 0.2286471 0.2296264 0.230389 0.2309774 0.2314182 0.231734
 0.2319503 0.2320833 0.2321278 0.2320655 0.2318799 0.2315561 0.2310895 0.2305102 0.2298796 0.2292457
 0.2286142 0.227973 0.2273259 0.2266973 0.2261137 0.225581 0.2250767 0.2245653 0.2240226 0.2234413
 0.222819 0.2221455 0.221395 0.2205308 0.2195291 0.2183964 0.2171567 0.2158304 0.2144299 0.212961
 0.2114257 0.2098342 0.208213 0.2065833 0.2049355 0.2032315 0.2014235 0.1994738 0.1973811 0.1951994
 0.1930149 0.1908999 0.1888856 0.1869639 0.185105 0.1832895 0.1815313 0.1798615 0.1782956 0.1768255
 0.1754358 0.1741131 0.1728469 0.1716326 0.1704783 0.1694152 0.1684926 0.1677386 0.1671223 0.166576
 0.1660562 0.1655672 0.1651373 0.1647978 0.164571 0.1644447 0.1643566 0.164221 0.1639792 0.1636311
 0.1632297 0.1628403 0.1624947 0.1621824 0.1618739 0.161534 0.1611143 0.1605477 0.1597541 0.1586585
 0.1572268 0.1554887 0.1535222 0.1514313 0.1493452 0.1474026 0.145703 0.1442861 0.1431536 0.1422801
 0.1416038 0.1410498 0.1405818 0.1402217 0.1400179 0.1399806 0.1400291 0.1400305 0.1399276 0.1398123
 0.1398415 0.140098 0.1405468 0.141086 0.1416154 0.1420718 0.1424212 0.1426346 0.1426998 0.1426446
 0.1425096 0.1423065 0.1420362 0.1417187 0.1413717 0.1409881 0.1405561 0.1400686 0.1395079 0.1388541
 0.1381032 0.1372585 0.1363271 0.1353184 0.1342124 0.1329675 0.1316312 0.1304156 0.1295937 0.1293238
 0.1295747 0.1301729 0.1309257 0.1317335 0.1325396 0.1331605 0.1333417 0.1331344 0.1330936 0.1338762
 0.135605 0.1377339 0.1395471 0.1406795 0.1411425 0.1410388 0.1404275 0.1393632 0.1378786 0.1359594
 0.1336398 0.1310458 0.1282873 0.1254334 0.1226212 0.1200436 0.1178303 0.1160203 0.1145897 0.1135377
 0.1129687 0.1125581 0.1106087 0.1049245 0.09619407 0.08953527 0.09021682 0.09775235 0.1062253 0.1105607
 0.1105953 0.1090222 0.1077063 0.1069195 0.1065451 0.106698 0.1074999 0.1088338 0.1103367 0.1116045
 0.112449 0.1128916 0.1129013 0.1121709 0.1100513 0.105769 0.09905967 0.09073135 0.08238292 0.07546053
 0.07061855 0.0677575 0.06633027 0.06565083 0.06523687 0.06504074 0.06534208 0.06640253 0.0682374 0.07068788
 0.0735883 0.07673529 0.07976666 0.08229875 0.08423023 0.08574684 0.08699927 0.08792513 0.08839486 0.0883867
 0.08799518 0.08736514 0.08663426 0.08587624 0.08506384 0.08410854 0.08299708 0.08191049 0.0811265 0.08075273
 0.08064213 0.08060738 0.08059721 0.0806258 0.0806703 0.08069465 0.08069046 0.08068904 0.08078119 0.08106677
 0.08152805 0.08201219 0.08237192 0.08258146 0.08271097 0.08279442 0.08270967 0.08227879 0.08157419 0.08095884
 0.08062468 0.08026169 0.07946022 0.0783291 0.07743818 0.07719212 0.07746997 0.07784879 0.07800062 0.07786982
 0.07763609 0.07759352 0.07794924 0.07858874</values></Ydata></ScSm><ScRf><Ydata ylabel="Single channel"><values byteorder="INTEL" format="FLOAT32" numvalues="1820"> 0.06051251 0.06066816 0.0607644 0.06079996 0.06079436 0.06079148 0.06084543 0.06098564 0.06119072 0.06139722
 0.06154288 0.06160872 0.06161383 0.06157637 0.06150989 0.06145867 0.061492 0.06163701 0.06183614 0.06198674
 0.06202299 0.0619734 0.06194457 0.06201727 0.06213317 0.06211054 0.06181393 0.06131237 0.0608365 0.06056619
 0.06051606 0.06067127 0.06110698 0.06178011 0.06228418 0.06213587 0.06138121 0.06063299 0.06038845 0.06055173
 0.06071756 0.06064362 0.06032426 0.05990312 0.0597244 0.06024008 0.06156306 0.06310013 0.06376712 0.06267407
 0.05976008 0.05599466 0.05301896 0.05226427 0.05394351 0.05676517 0.05890407 0.05945825 0.05888138 0.05805704
 0.05734654 0.05670186 0.05628495 0.05650874 0.05746643 0.05853767 0.05870629 0.05743274 0.05529787 0.05359036
 0.05312902 0.05374913 0.0549924 0.05660652 0.05784688 0.05707919 0.05338767 0.0486099 0.04651886 0.04923882
 0.05497922 0.05978314 0.06104472 0.05897277 0.05545 0.05247025 0.05137821 0.05250478 0.05511618 0.05802565
 0.06031115 0.06135184 0.06066649 0.05833419 0.05540556 0.05339342 0.05334678 0.05544275 0.05894455 0.06226049
 0.06366801 0.06258845 0.05997303 0.05729664 0.05558567 0.05541814 0.05706844 0.06022367 0.06396657 0.06730398
 0.06956671 0.07047962 0.07022859 0.06934569 0.06830124 0.06741475 0.06713316 0.06776219 0.06873629 0.06882931
 0.06748809 0.06557231 0.0644699 0.06466091 0.06533418 0.06537548 0.06449774 0.06305929 0.0609569 0.05760086
 0.05326072 0.04943202 0.0473425 0.0470167 0.04816019 0.050632 0.05339537 0.05445958 0.05305222 0.05100682
 0.05094258 0.05347212 0.05688254 0.05923048 0.06014475 0.06069624 0.06201311 0.06412301 0.06581446 0.06555486
 0.0630124 0.0599084 0.05880405 0.06058806 0.06362025 0.06574521 0.06656158 0.0671833 0.06828663 0.06906008
 0.06805205 0.06489979 0.0612568 0.05977178 0.06178083 0.06596675 0.06931157 0.06932446 0.06571822 0.06048008
 0.05632615 0.05482234 0.05596513 0.05921381 0.06408808 0.06962319 0.07412523 0.07611401 0.07539128 0.07296877
 0.06991233 0.06635413 0.06203412 0.05793235 0.05647778 0.05925819 0.06498966 0.07058442 0.07390364 0.07482225
 0.07402992 0.07171635 0.0677785 0.06310914 0.06001655 0.06043096 0.0635796 0.06642427 0.06684135 0.0655595
 0.06459817 0.06475103 0.06528842 0.06550992 0.06575149 0.06681818 0.06883307 0.07093692 0.0721178 0.07212538
 0.07151493 0.07100023 0.07080349 0.07048929 0.06958077 0.06851807 0.06860463 0.07057729 0.0735897 0.07608225
 0.07734702 0.07778297 0.07784741 0.07725435 0.07538673 0.07245162 0.06995519 0.06958748 0.07158806 0.0745901
 0.07703823 0.07831094 0.07858744 0.07828476 0.07776989 0.07723953 0.07678414 0.07664246 0.07714136 0.07822496
 0.07934789 0.08002069 0.08020768 0.08008007 0.07967371 0.078972 0.07815668 0.07759578 0.07757674 0.07809472
 0.07891044 0.07976095 0.08044352 0.0807691 0.08063279 0.08016766 0.07966942 0.07932705 0.07915135 0.07915454
 0.07941375 0.07990994 0.08045413 0.0808485 0.08104141 0.08108807 0.08103663 0.08090069 0.08070248 0.08051015
 0.08043344 0.08055234 0.08082248 0.08110091 0.0813125 0.08152637 0.08180164 0.0820341 0.08206135 0.0818803
 0.08166318 0.08157097 0.08162285 0.08173883 0.08183265 0.08182941 0.08165299 0.08129192 0.08089443 0.08071415
 0.08090587 0.08141384 0.08206621 0.08269788 0.08317474 0.08341935 0.08346963 0.08343926 0.08338676 0.08327665
 0.08308008 0.08286737 0.08278635 0.08295333 0.08334847 0.08381972 0.08420479 0.08443664 0.08454128 0.08459693
 0.08470172 0.08489671 0.08509623 0.08516714 0.08509819 0.0850247 0.08506665 0.08519512 0.08528075 0.08524595
 0.08515078 0.08512995 0.08525495 0.08547306 0.08568273 0.0858448 0.08600358 0.08620586 0.0864102 0.08649828
 0.08640239 0.08620311 0.08605128 0.08600567 0.08601295 0.0860403 0.08613908 0.086344 0.08657805 0.08671737
 0.08673011 0.08670432 0.08673361 0.08680592 0.08682542 0.08672793 0.08654961 0.08638766 0.08631861 0.08635433
 0.08644816 0.0865275 0.08653479 0.08645847 0.08633251 0.0862039 0.0861019 0.08604552 0.0860725 0.08622616
 0.08648536 0.08672353 0.0867826 0.08661292 0.08633021 0.08611537 0.08605206 0.08606587 0.08601801 0.08584198
 0.08558397 0.08533411 0.08514623 0.08501818 0.0849193 0.08482741 0.08475877 0.08476839 0.08489361 0.08507808
 0.08517861 0.08508532 0.08482871 0.08454439 0.08434655 0.08426031 0.084248 0.08425769 0.08426076 0.08427475
 0.08433338 0.0844169 0.08444956 0.08439019 0.0842879 0.08423059 0.08427568 0.08443187 0.08465013 0.08482257
 0.08485369 0.0847583 0.08464995 0.0846204 0.08466673 0.08474002 0.08481883 0.08491172 0.08502042 0.08513515
 0.08526166 0.0854283 0.08565461 0.08591774 0.08615706 0.08631861 0.08640425 0.08648099 0.08663414 0.08689994
 0.08723847 0.0875686 0.08783053 0.08802422 0.08819504 0.08838083 0.08857975 0.08877876 0.08899687 0.0892677
 0.08958603 0.08990665 0.09019905 0.09047428 0.09075537 0.0910476 0.09134553 0.09165658 0.0920081 0.09242128
 0.09286614 0.09325595 0.09351438 0.093651 0.09375907 0.09394537 0.09425953 0.09465609 0.09500948 0.09520995
 0.09527894 0.09535779 0.09555195 0.09582278 0.09607192 0.09629466 0.09658726 0.09700732 0.09748088 0.09786874
 0.09810244 0.09823805 0.09838329 0.0985833 0.09878534 0.09891832 0.09898785 0.09906535 0.09919477 0.09936
 0.09955532 0.09982944 0.1002171 0.1006638 0.1010644 0.10136 0.1015627 0.1017107 0.1018303 0.1019279
 0.1019913 0.1020137 0.1020268 0.1020791 0.1021704 0.102245 0.1022708 0.1022889 0.1023634 0.1025153
 0.1027339 0.1030136 0.1033395 0.1036621 0.1039402 0.1042051 0.1045283 0.1049079 0.1052358 0.1054113
 0.1054527 0.1054557 0.1054761 0.10551 0.1055705 0.105711 0.1059602 0.1062826 0.1066226 0.1069595
 0.1073023 0.1076505 0.1079717 0.1082118 0.1083311 0.108341 0.108308 0.1083185 0.1084348 0.1086706
 0.108987 0.109315 0.1095936 0.1097893 0.1098825 0.1098679 0.1097935 0.1097685 0.1098791 0.1100902
 0.1102595 0.1102578 0.1100518 0.109675 0.1091634 0.1085432 0.1078641 0.1072086 0.106658 0.1062579
 0.1060239 0.1059797 0.1061716 0.1066202 0.1072625 0.1079679 0.1086161 0.1091321 0.1094438 0.1094634
 0.1091506 0.1085699 0.1078524 0.1071167 0.1064329 0.1058206 0.1052479 0.104674 0.1041375 0.1037952
 0.1038426 0.1043963 0.1054394 0.1068373 0.1083774 0.1098351 0.1110609 0.1120348 0.1128344 0.113548
 0.1142227 0.1148799 0.1155427 0.1162176 0.1168651 0.1174292 0.1178984 0.1183129 0.1187129 0.119102
 0.1194563 0.1197499 0.1199798 0.1201792 0.1203832 0.1205698 0.1206662 0.1206345 0.1205216 0.1204002
 0.1202854 0.1201276 0.1198669 0.1194826 0.1190228 0.1186174 0.1184512 0.1186868 0.1193745 0.1204232
 0.1216673 0.1229671 0.1242391 0.125404 0.1263601 0.1270427 0.1274852 0.1277917 0.1280592 0.1283375
 0.1286369 0.1289457 0.1292453 0.1295259 0.129793 0.1300658 0.1303703 0.1307193 0.1310857 0.1314084
 0.1316512 0.1318518 0.1320961 0.1324361 0.1328393 0.1332273 0.1335607 0.1338687 0.1341875 0.1344948
 0.1347363 0.134905 0.135059 0.1352661 0.1355573 0.1359213 0.1363077 0.1366428 0.1368801 0.1370428
 0.137196 0.137384 0.1376078 0.1378529 0.1381093 0.1383691 0.1386252 0.1388837 0.1391638 0.139472
 0.1397774 0.1400283 0.1402041 0.1403415 0.140501 0.1407089 0.1409404 0.1411535 0.1413378 0.1415301
 0.1417802 0.1420952 0.1424192 0.142679 0.1428473 0.142958 0.1430687 0.1432177 0.1434102 0.1436295
 0.1438535 0.1440664 0.1442659 0.1444635 0.1446729 0.1448947 0.1451154 0.1453239 0.1455235 0.145726
 0.1459369 0.1461531 0.1463735 0.1466102 0.146881 0.1471836 0.1474804 0.1477231 0.147894 0.1480147
 0.1481216 0.1482431 0.1483973 0.1485899 0.1488101 0.1490364 0.1492515 0.1494512 0.149642 0.149834
 0.1500344 0.150245 0.1504614 0.1506767 0.1508875 0.1510969 0.1513107 0.1515284 0.1517429 0.1519497
 0.1521515 0.1523546 0.1525611 0.1527655 0.1529565 0.1531281 0.1532904 0.1534628 0.1536557 0.1538633
 0.1540718 0.1542696 0.1544539 0.1546327 0.1548192 0.1550184 0.155223 0.1554235 0.1556175 0.1558087
 0.1560021 0.1562003 0.1564031 0.1566071 0.1568078 0.157004 0.1571986 0.1573971 0.1576015 0.157809
 0.1580153 0.158217 0.1584104 0.1585941 0.1587731 0.1589549 0.1591447 0.1593463 0.1595601 0.159779
 0.1599908 0.160192 0.1603901 0.1605922 0.1607988 0.1610096 0.1612263 0.1614492 0.1616737 0.1618932
 0.1621045 0.1623114 0.1625209 0.1627367 0.1629568 0.1631788 0.1633997 0.1636153 0.1638221 0.1640174
 0.164198 0.1643648 0.1645278 0.1646971 0.1648727 0.1650496 0.1652265 0.1654056 0.1655904 0.1657847
 0.165988 0.1661923 0.1663919 0.1665902 0.1667917 0.1669959 0.1672005 0.1674048 0.1676078 0.1678105
 0.1680158 0.1682226 0.1684263 0.1686265 0.1688268 0.169029 0.1692317 0.1694353 0.1696417 0.169852
 0.1700641 0.1702737 0.1704807 0.1706931 0.1709158 0.1711394 0.1713515 0.1715523 0.171751 0.1719556
 0.1721725 0.1724002 0.1726239 0.17283 0.1730217 0.1732106 0.1734044 0.1736095 0.1738288 0.1740542
 0.1742765 0.1744965 0.1747158 0.174928 0.1751317 0.1753354 0.1755456 0.1757629 0.1759852 0.1762036
 0.176408 0.1766026 0.1767962 0.1769773 0.1771017 0.1770581 0.1765725 0.1751035 0.1718304 0.1658144
 0.15637 0.1434899 0.1279936 0.1112423 0.09464741 0.07930443 0.06587015 0.05463158 0.04565138 0.0388707
 0.03416304 0.03141209 0.0306055 0.03195056 0.03599843 0.04331309 0.05323027 0.06277035 0.06780663 0.06632559
 0.06034967 0.05409048 0.0504506 0.04962929 0.05038432 0.05165793 0.05311593 0.05495366 0.05750383 0.06085382
 0.06483245 0.06942805 0.07498987 0.08178218 0.08945289 0.09718196 0.1043868 0.1111756 0.1180763 0.1253952
 0.1328932 0.1400227 0.1463664 0.1518441 0.1566282 0.1609535 0.164988 0.168813 0.1724672 0.1759437
 0.1791143 0.181704 0.1834243 0.1841916 0.1842263 0.1839302 0.1836516 0.1835499 0.1836404 0.183901
 0.1843148 0.1848607 0.1855136 0.186249 0.1870382 0.1878517 0.188667 0.1894648 0.1902257 0.1909386
 0.1916022 0.1922132 0.1927662 0.1932652 0.1937238 0.1941536 0.1945583 0.1949356 0.1952828 0.1956055
 0.1959181 0.1962266 0.1965221 0.1967961 0.1970519 0.1972944 0.1975233 0.1977399 0.1979493 0.1981552
 0.1983592 0.1985662 0.1987808 0.1990011 0.1992174 0.1994182 0.1996019 0.1997815 0.1999739 0.2001814
 0.2003918 0.2005956 0.2007939 0.2009902 0.2011836 0.2013714 0.2015552 0.2017392 0.2019254 0.2021122
 0.2023004 0.2024958 0.2027008 0.2029078 0.2031103 0.2033162 0.2035365 0.2037665 0.2039916 0.2042052
 0.2044099 0.20461 0.2048114 0.2050209 0.2052319 0.2054231 0.2055817 0.2057241 0.2058868 0.2060937
 0.2063324 0.2065657 0.2067701 0.2069549 0.2071413 0.2073354 0.2075288 0.2077126 0.2078897 0.2080813
 0.2083121 0.2085773 0.2088414 0.2090806 0.2093046 0.2095283 0.2097521 0.2099768 0.2102038 0.210413
 0.2105756 0.2107024 0.2108582 0.211112 0.2114671 0.2118494 0.2121746 0.2124237 0.2126399 0.2128709
 0.2131369 0.2134137 0.2136148 0.2136512 0.2135694 0.2135754 0.2138469 0.2143567 0.2149243 0.2153973
 0.2157444 0.2160149 0.2162608 0.2164835 0.2166334 0.2166678 0.2166324 0.2166778 0.2169524 0.2174506
 0.2180053 0.2184557 0.2187728 0.2190069 0.2192 0.2193744 0.2194937 0.2194134 0.219033 0.218559
 0.2184516 0.2189817 0.2199294 0.2208198 0.2213901 0.221723 0.2219908 0.2222429 0.2224498 0.22253
 0.2222424 0.221329 0.2200112 0.2191255 0.2194299 0.220837 0.2225559 0.2238849 0.2246574 0.22506
 0.2253176 0.2255438 0.2256587 0.2254027 0.2246214 0.2236442 0.2232039 0.2237656 0.225006 0.2261584
 0.2267967 0.2270657 0.2272729 0.2275399 0.2277209 0.2273674 0.2259837 0.2237596 0.2219412 0.2219558
 0.2240169 0.2268648 0.2290106 0.230017 0.2303897 0.2304804 0.2299697 0.228444 0.2260189 0.2232898
 0.2211413 0.2206258 0.2222703 0.2252025 0.2276418 0.2286542 0.2289428 0.2296822 0.231116 0.2325535
 0.2332705 0.2330741 0.2321849 0.2308365 0.2291614 0.2275647 0.2269482 0.2280687 0.230619 0.2333401
 0.2351831 0.2361037 0.236519 0.2360835 0.2334363 0.227839 0.2212321 0.2177007 0.2198679 0.2261501
 0.232457 0.2362116 0.2377674 0.238495 0.2389486 0.2387045 0.236606 0.2313948 0.22368 0.2171822
 0.216217 0.2214255 0.2290557 0.2344743 0.2353237 0.2317686 0.22567 0.2200386 0.217806 0.2200461
 0.2255016 0.2318266 0.236997 0.2398781 0.2402173 0.2385226 0.2360181 0.2343518 0.2344038 0.2349789
 0.2337147 0.2300687 0.226224 0.2238817 0.2216241 0.2175322 0.2134068 0.2135746 0.2192676 0.2265598
 0.2307804 0.2312474 0.2304072 0.2293735 0.2260083 0.2179927 0.2072193 0.1998691 0.2010094 0.2093345
 0.2183334 0.2226707 0.2224261 0.2211695 0.2212007 0.2212041 0.2180951 0.2110432 0.2035191 0.2003832
 0.2027129 0.2068343 0.2086623 0.2069565 0.2019032 0.193812 0.1854438 0.1828359 0.1902148 0.2048208
 0.2190634 0.226758 0.2253825 0.2147269 0.1977817 0.182557 0.1781792 0.1867099 0.2006316 0.2097636
 0.2093351 0.2008141 0.1875533 0.1725157 0.1596889 0.154505 0.1605831 0.1760683 0.1936442 0.2041457
 0.2016203 0.1879895 0.1735177 0.1694236 0.1776295 0.1894063 0.1951458 0.1930842 0.1879275 0.1848173
 0.1863746 0.1922149 0.1993459 0.2049854 0.2087798 0.2096244 0.2026615 0.1851176 0.1640222 0.1515744
 0.1524769 0.1615283 0.173374 0.1873147 0.2009568 0.2069132 0.2011294 0.1905589 0.1872426 0.1955276
 0.208351 0.2158877 0.215279 0.2111561 0.2084901 0.2072956 0.2051102 0.202733 0.2044285 0.2120435
 0.2217861 0.2284628 0.2308833 0.2313912 0.2318943 0.2324161 0.2324317 0.2317398 0.2303943 0.2288445
 0.2277996 0.2274337 0.2272228 0.2267427 0.2256587 0.2225202 0.2150681 0.2034082 0.1920388 0.1862906
 0.1866734 0.1892381 0.1914478 0.1936599 0.1936459 0.1850472 0.1657726 0.1448955 0.1360525 0.1442645
 0.1621969 0.1785236 0.1866084 0.1850714 0.1743944 0.1571202 0.1405651 0.1345363 0.1433332 0.1616198
 0.1801299 0.1936567 0.2016481 0.2037758 0.1989481 0.1884688 0.177316 0.1712976 0.1735065 0.182951
 0.194894 0.2020917 0.1983411 0.1846377 0.1718836 0.1728497 0.1887863 0.2073441 0.2164568 0.2165594
 0.2156905 0.2169921 0.2171526 0.2151859 0.2159503 0.2234861 0.2350796 0.2439428 0.2451737 0.2376922
 0.2236218 0.2087849 0.2011779 0.2045186 0.2139505 0.2212682 0.2228305 0.2190726 0.2096655 0.1955404
 0.1840101 0.1843706 0.1971262 0.2127785 0.2226112 0.2266267 0.2295898 0.2328409 0.2326839 0.2260046
 0.2154846 0.2079539 0.2076367 0.2124531 0.2175351 0.2203573 0.2207699 0.2180929 0.2115378 0.2035073
 0.1996285 0.2038658 0.2143941 0.2252706 0.2317204 0.2331195 0.2316225 0.2293611 0.2270034 0.2239146
 0.2195784 0.2154388 0.2146149 0.218567 0.2247713 0.2293191 0.2313925 0.2335259 0.2376294 0.2423673
 0.2447934 0.2435663 0.2402149 0.2377948 0.2384346 0.2416517 0.2447149 0.244974 0.242383 0.2397858
 0.2402991 0.2443376 0.2495586 0.2535249 0.2556899 0.2568906 0.2579151 0.258812 0.2588525 0.2570823
 0.253672 0.2506998 0.2506763 0.2540552 0.2588046 0.2625097 0.2643244 0.2648293 0.2647001 0.2640061
 0.262608 0.2607911 0.2592711 0.2586243 0.2588779 0.2596691 0.2606216 0.261496 0.2621644 0.2626089
 0.2628995 0.2630988 0.2632236 0.2633024 0.2633761 0.2634205 0.2633709 0.2632658 0.2632707 0.2634884
 0.263811 0.2640313 0.2640336 0.2637951 0.2632612 0.2623557 0.2611127 0.2596761 0.2581288 0.2564363
 0.2546707 0.2532484 0.252801 0.2537057 0.2557374 0.258205 0.2604168 0.2620198 0.2629969 0.2634932
 0.2636897 0.2637462 0.2637536 0.2637153 0.2635927 0.263369 0.2630647 0.26271 0.262323 0.261919
 0.2615277 0.2611865 0.2609083 0.2606557 0.2603564 0.2599545 0.2594537 0.2589088 0.2583691 0.2578237
 0.2572056 0.2564523 0.2555615 0.2545945 0.253639 0.2527654 0.2519897 0.2512637 0.250514 0.2496942
 0.2487873 0.2477735 0.246647 0.2454792 0.2444122 0.2435491 0.2428663 0.2422534 0.2416061 0.2408647
 0.2400047 0.2390367 0.2380014 0.236934 0.2358383 0.2347005 0.2335075 0.232246 0.2309056 0.2294921
 0.2280179 0.226483 0.2248842 0.2232342 0.2215377 0.2197458 0.2177487 0.215415 0.2126262 0.2092919
 0.2053731 0.2009218 0.196099 0.1911342 0.1862449 0.1815856 0.1772628 0.173375 0.170021 0.1672807
 0.165204 0.1638155 0.1631202 0.1631099 0.1637718 0.1650883 0.167018 0.1694708 0.1722993 0.1753171
 0.178332 0.181181 0.1837719 0.1861193 0.188319 0.1904468 0.1924802 0.1943355 0.1959629 0.1973752
 0.1985974 0.1996308 0.2004744 0.2011554 0.2017209 0.2022086 0.2026345 0.2030077 0.2033404 0.2036356
 0.2038808 0.2040671 0.2042114 0.2043509 0.2045208 0.2047395 0.2050094 0.20533 0.2057091 0.2061531
 0.2066494 0.2071762 0.2077276 0.2083129 0.2089351 0.2095926 0.2103033 0.2111095 0.2120544 0.2131567
 0.2144016 0.2157452 0.2171259 0.2184666 0.2196774 0.2206769 0.2214216 0.2219149 0.2221888 0.2222827
 0.2222289 0.2220455 0.2217442 0.2213458 0.2208776 0.2203578 0.2197942 0.2191943 0.2185636 0.2178996
 0.2172013 0.216485 0.2157782 0.2150965 0.2144333 0.2137759 0.213128 0.2125072 0.2119211 0.2113549
 0.210787 0.2102092 0.2096259 0.2090436 0.208463 0.2078712 0.2072358 0.206515 0.2056837 0.2047464
 0.2037229 0.202626 0.2014571 0.2002126 0.1988856 0.1974637 0.1959411 0.1943342 0.1926734 0.1909693
 0.1891914 0.1872949 0.1852776 0.1832094 0.1811984 0.1793288 0.177624 0.176055 0.1745751 0.1731563
 0.1718011 0.1705204 0.16931 0.1681588 0.1670668 0.1660369 0.1650584 0.1641164 0.1632125 0.1623683
 0.1616112 0.1609577 0.1604067 0.159944 0.1595497 0.1592041 0.1589077 0.1587002 0.158631 0.1586897
 0.1587905 0.1588417 0.1588107 0.1587174 0.158595 0.1584666 0.1583437 0.1582345 0.1581442 0.1580543
 0.1579039 0.1576058 0.1570748 0.1562425 0.1550769 0.1536022 0.1518915 0.1500496 0.148208 0.146503
 0.1450328 0.1438445 0.1429476 0.1423005 0.1418087 0.1413911 0.1410492 0.1408513 0.1408595 0.1410619
 0.1413405 0.1415317 0.1415713 0.1415667 0.1417003 0.142088 0.1427226 0.1434945 0.1442575 0.1449175
 0.1454558 0.1458674 0.1461335 0.1462612 0.1462875 0.1462367 0.1461177 0.1459414 0.1457069 0.1454005
 0.1450236 0.144585 0.1440779 0.1434996 0.142862 0.142164 0.1413903 0.1405264 0.1395292 0.1383481
 0.1370531 0.1358905 0.1351467 0.1349868 0.1354046 0.1362411 0.1372732 0.1383533 0.1394011 0.1402353
 0.1406153 0.1406084 0.140781 0.141798 0.1437936 0.1462216 0.1483423 0.149767 0.150504 0.1506589
 0.1502821 0.1494106 0.148044 0.1461254 0.1436783 0.1408682 0.1378643 0.1347953 0.1318491 0.1292234
 0.1269956 0.1251647 0.1237312 0.1227465 0.1223419 0.1221382 0.1202416 0.1142416 0.1049407 0.09800364
 0.09918895 0.1078755 0.1174999 0.1224753 0.1226292 0.1209284 0.1194397 0.1184846 0.1179505 0.1179639
 0.1186441 0.1198575 0.1212406 0.1223996 0.1231393 0.1234592 0.1233104 0.1223593 0.1199049 0.1151148
 0.107703 0.09852973 0.08933048 0.08171462 0.07642022 0.0733063 0.07172285 0.07090247 0.07033406 0.06999536
 0.07022621 0.07133073 0.07331447 0.07598336 0.0791465 0.08258134 0.08590242 0.08870742 0.09088847 0.09263151
 0.09408166 0.0951561 0.09570746 0.09572875 0.09534626 0.09470589 0.09392307 0.09307528 0.09216109 0.09109731
 0.08986485 0.08866453 0.08780873 0.08742107 0.08734283 0.08734649 0.08732483 0.08726887 0.0871947 0.08712556
 0.08707936 0.08707905 0.08719574 0.08751285 0.08800918 0.08853233 0.08891621 0.08910656 0.0891718 0.0891678
 0.08898073 0.08842082 0.08755499 0.08675733 0.08623556 0.08568778 0.08470442 0.08340366 0.08238311 0.08206572
 0.08231349 0.08267605 0.08281498 0.08266205 0.08237696 0.08226782 0.08259082 0.08324845 0.08376969 0.08375004
</values></Ydata></ScRf><Data_Parameters_AB><parameter name="DPF">1</parameter><parameter name="NPT">3497</parameter><parameter name="FXV">3996</parameter><parameter name="LXV">500</parameter><parameter name="CSF">1</parameter><parameter name="MXY">0.225313112139702</parameter><parameter name="MNY">-0.0715882778167725</parameter><parameter name="DAT">02/06/2022</parameter><parameter name="TIM">11:30:12.283 (GMT+2)</parameter><parameter name="DXU">WN</parameter></Data_Parameters_AB><AB__Qtest><MainReport name="Quality Test Report"><Header><Line><Legend>Test result ok/not ok [1/0]: </Legend><Value>0</Value></Line><Line><Legend>Method file: </Legend><Value>C:\Users\Public\Documents\Bruker\OPUS_8.2.28\QT\IRBT_v3_default.QT</Value></Line></Header><Matrix><Line><Legend></Legend><Legend>min</Legend><Legend>max</Legend><Legend>measured</Legend></Line><Line><Value>Absorption (X-Range 1):</Value><Value>0.400000</Value><Value>2.000000</Value><Value>0.207193</Value></Line><Line><Value>Noise (X-Range 4):</Value><Value></Value><Value>0.000300</Value><Value>0.000053</Value></Line><Line><Value>Signal/Noise (X-Range 2):</Value><Value>200.000000</Value><Value></Value><Value>57.989763</Value></Line><Line><Value>Signal/Noise (X-Range 3):</Value><Value>40.000000</Value><Value></Value><Value>40.434318</Value></Line><Line><Value>Water vapour (X-Range 5):</Value><Value></Value><Value>0.000300</Value><Value>0.000059</Value></Line><Line><Value>Signal/Water (X-Range 2):</Value><Value>100.000000</Value><Value></Value><Value>52.369818</Value></Line><Line><Value>Signal/Water (X-Range 3):</Value><Value>20.000000</Value><Value></Value><Value>36.515719</Value></Line><Line><Value>Fringes (X-Range 6):</Value><Value></Value><Value>0.000100</Value><Value>0.000083</Value></Line></Matrix></MainReport></AB__Qtest><Data_Parameters_ScSm><parameter name="DPF">1</parameter><parameter name="NPT">1814</parameter><parameter name="FXV">3996.33169228125</parameter><parameter name="LXV">499.541461535156</parameter><parameter name="CSF">1</parameter><parameter name="MXY">0.272003591060638</parameter><parameter name="MNY">0.0353244803845882</parameter><parameter name="DAT">02/06/2022</parameter><parameter name="TIM">11:30:12.283 (GMT+2)</parameter><parameter name="DXU">WN</parameter></Data_Parameters_ScSm><Data_Parameters_ScRf><parameter name="DPF">1</parameter><parameter name="NPT">1820</parameter><parameter name="FXV">4004.04661832813</parameter><parameter name="LXV">495.683998511719</parameter><parameter name="CSF">1</parameter><parameter name="MXY">0.264829337596893</parameter><parameter name="MNY">0.0306055042892694</parameter><parameter name="DAT">02/06/2022</parameter><parameter name="TIM">11:29:46.433 (GMT+2)</parameter><parameter name="DXU">WN</parameter></Data_Parameters_ScRf><Optic_Parameters_Rf><parameter name="APR">0</parameter><parameter name="APT">Open</parameter><parameter name="BMS">KBr</parameter><parameter name="DTC">RT-DLaTGS_IR-Biotyper [Microplate reader]</parameter><parameter name="HPF">0</parameter><parameter name="LPF">10.0</parameter><parameter name="LPV">4000</parameter><parameter name="PGR">0</parameter><parameter name="RCH">Module port</parameter><parameter name="RDX">0</parameter><parameter name="SRC">MIR</parameter><parameter name="VEL">10.0</parameter><parameter name="SON">Off</parameter></Optic_Parameters_Rf><Acquisition_Parameters_Rf><parameter name="ADT">1</parameter><parameter name="AQM">DD</parameter><parameter name="CFE">0</parameter><parameter name="COR">0</parameter><parameter name="DEL">0</parameter><parameter name="DLY">0</parameter><parameter name="HFW">8000</parameter><parameter name="LFW">0</parameter><parameter name="NSR">32</parameter><parameter name="PLF">AB</parameter><parameter name="RES">6</parameter><parameter name="RGN">-1</parameter><parameter name="STR">0</parameter><parameter name="TCL">MakeCompatibleScalar (0, {WSV=1.000000, ARV=0});</parameter><parameter name="TDL">37</parameter><parameter name="RPO">0</parameter></Acquisition_Parameters_Rf><FT_-_Parameters_Rf><parameter name="APF">B3</parameter><parameter name="HFQ">500</parameter><parameter name="LFQ">4000</parameter><parameter name="NLI">0</parameter><parameter name="PHR">24</parameter><parameter name="PHZ">ML</parameter><parameter name="SPZ">NO</parameter><parameter name="ZFF">1</parameter></FT_-_Parameters_Rf><Optic_Parameters_><parameter name="APR">0</parameter><parameter name="APT">Open</parameter><parameter name="BMS">KBr</parameter><parameter name="CHN">Module port</parameter><parameter name="DTC">RT-DLaTGS_IR-Biotyper [Microplate reader]</parameter><parameter name="HPF">0</parameter><parameter name="LPF">10.0</parameter><parameter name="LPV">4000</parameter><parameter name="PGN">0</parameter><parameter name="RDX">0</parameter><parameter name="SRC">MIR</parameter><parameter name="VEL">10.0</parameter><parameter name="SON">Off</parameter></Optic_Parameters_><FT_-_Parameters_><parameter name="APF">B3</parameter><parameter name="HFQ">500</parameter><parameter name="LFQ">4000</parameter><parameter name="NLI">0</parameter><parameter name="PHR">24</parameter><parameter name="PHZ">ML</parameter><parameter name="SPZ">NO</parameter><parameter name="ZFF">1</parameter></FT_-_Parameters_><Acquisition_Parameters_><parameter name="ADT">1</parameter><parameter name="AQM">DD</parameter><parameter name="CFE">0</parameter><parameter name="COR">0</parameter><parameter name="DEL">0</parameter><parameter name="DLY">0</parameter><parameter name="HFW">8000</parameter><parameter name="LFW">0</parameter><parameter name="NSS">32</parameter><parameter name="PLF">AB</parameter><parameter name="RES">6</parameter><parameter name="SOT">0</parameter><parameter name="TCL">MakeCompatibleScalar (0, {WSV=1.000000, ARV=0});</parameter><parameter name="TDL">37</parameter><parameter name="SPO">0</parameter><parameter name="SGN">-1</parameter></Acquisition_Parameters_><Instrument_Parameters_Rf><parameter name="HFL">15800.168544</parameter><parameter name="LFL">0</parameter><parameter name="LWN">15800.168544</parameter><parameter name="ABP">32197</parameter><parameter name="SSP">1</parameter><parameter name="ARG">2</parameter><parameter name="ASG">2</parameter><parameter name="ASS">32</parameter><parameter name="GFW">16</parameter><parameter name="GBW">16</parameter><parameter name="BFW">0</parameter><parameter name="BBW">0</parameter><parameter name="PKA">7266</parameter><parameter name="PKL">4996</parameter><parameter name="PRA">7447</parameter><parameter name="PRL">5001</parameter><parameter name="P2A">1</parameter><parameter name="P2L">1</parameter><parameter name="P2R">1</parameter><parameter name="P2K">1</parameter><parameter name="DAQ">0</parameter><parameter name="AG2">1</parameter><parameter name="SSM">1</parameter><parameter name="RSN">26055</parameter><parameter name="CRR">0</parameter><parameter name="SRT">1654169386.433</parameter><parameter name="DUR">19.6369934082031</parameter><parameter name="TSC">28.2</parameter><parameter name="MVD">0.210702747106552</parameter><parameter name="AN1">0.225802905055831</parameter><parameter name="AN2">0</parameter><parameter name="VSN">2.485 Apr  4 2017</parameter><parameter name="SRN">0085</parameter><parameter name="CAM">0</parameter><parameter name="INS">IR-Biotyper</parameter><parameter name="FOC">69</parameter><parameter name="RDY">1</parameter><parameter name="ARS">32</parameter></Instrument_Parameters_Rf><Sample_Parameters_><parameter name="BLD"></parameter><parameter name="CNM">Admin</parameter><parameter name="CPY"></parameter><parameter name="DPM"></parameter><parameter name="EXP">IRBT_v3_32Scans.XPM</parameter><parameter name="LCT"></parameter><parameter name="SFM">Microplate, HTS-XT</parameter><parameter name="SNM">220602-1054_RTF49M (D_20)_E3_e23d050c-8205-4008-b569-eee38a5210fa.0</parameter><parameter name="XPP">C:\Users\Public\Documents\Bruker\OPUS_8.2.28\XPM</parameter><parameter name="IST">OK</parameter><parameter name="CPG">1252</parameter><parameter name="UID">f92720e1-037c-42a8-9e2b-9f6cd32a30ff</parameter></Sample_Parameters_><Instrument_Parameters_><parameter name="HFL">15800.168544</parameter><parameter name="LFL">0</parameter><parameter name="LWN">15800.168544</parameter><parameter name="ABP">32197</parameter><parameter name="SSP">1</parameter><parameter name="ASG">2</parameter><parameter name="ARG">2</parameter><parameter name="ASS">32</parameter><parameter name="GFW">16</parameter><parameter name="GBW">16</parameter><parameter name="BFW">0</parameter><parameter name="BBW">0</parameter><parameter name="PKA">7346</parameter><parameter name="PKL">4988</parameter><parameter name="PRA">7640</parameter><parameter name="PRL">4993</parameter><parameter name="P2A">1</parameter><parameter name="P2L">1</parameter><parameter name="P2R">1</parameter><parameter name="P2K">1</parameter><parameter name="DAQ">0</parameter><parameter name="AG2">1</parameter><parameter name="SSM">1</parameter><parameter name="RSN">13653</parameter><parameter name="CRR">0</parameter><parameter name="SRT">1654169412.284</parameter><parameter name="DUR">19.6379852294922</parameter><parameter name="TSC">28.2</parameter><parameter name="MVD">0.233521699905396</parameter><parameter name="AN1">0.225789615980033</parameter><parameter name="AN2">0</parameter><parameter name="VSN">2.485 Apr  4 2017</parameter><parameter name="SRN">0085</parameter><parameter name="CAM">0</parameter><parameter name="INS">IR-Biotyper</parameter><parameter name="FOC">69</parameter><parameter name="RDY">1</parameter></Instrument_Parameters_><History/></OPUSDataFile>
