<?xml version="1.0" encoding="UTF-8" ?>
<OPUSDataFile><AB><Ydata ylabel="Absorbance Units"><values byteorder="INTEL" format="FLOAT32" numvalues="3497"> -0.03854727 -0.03854482 -0.0385452 -0.03854896 -0.03854761 -0.03854073 -0.03852591 -0.03850366 -0.03847979 -0.03845521
 -0.03843864 -0.03842953 -0.03843138 -0.03844147 -0.03845514 -0.03847052 -0.03848122 -0.03849018 -0.03849737 -0.03850831
 -0.03852827 -0.03855736 -0.03859882 -0.03864465 -0.03869311 -0.03873632 -0.03877154 -0.0387971 -0.038812 -0.03881884
 -0.03881771 -0.03881131 -0.03879981 -0.03878725 -0.03877398 -0.03876561 -0.03876209 -0.03876677 -0.03877825 -0.03879388
 -0.03881114 -0.03882264 -0.03882715 -0.03881809 -0.03879895 -0.03876925 -0.03873806 -0.03871157 -0.03869855 -0.03870703
 -0.03873512 -0.03878697 -0.03884547 -0.0389083 -0.03895608 -0.03898377 -0.03899221 -0.03897966 -0.03896866 -0.03896037
 -0.03897236 -0.03900367 -0.03904561 -0.03909538 -0.03913057 -0.03915268 -0.03915436 -0.03914061 -0.03912036 -0.03909545
 -0.03907308 -0.03905275 -0.03903618 -0.03902395 -0.03901839 -0.03901513 -0.03901469 -0.03900479 -0.03897966 -0.03893701
 -0.03887098 -0.03880577 -0.03874227 -0.03871585 -0.03873034 -0.038806 -0.03894424 -0.039138 -0.03938475 -0.03965047
 -0.03992882 -0.04016397 -0.0403519 -0.04044255 -0.04044908 -0.04037264 -0.04024042 -0.04009919 -0.03996409 -0.03987481
 -0.03982385 -0.03982315 -0.03984536 -0.0398813 -0.03990088 -0.03988681 -0.0398393 -0.0397498 -0.03965423 -0.03955659
 -0.03948914 -0.03945733 -0.03945547 -0.03948361 -0.03951285 -0.03954321 -0.03956842 -0.03959282 -0.03964179 -0.03971628
 -0.03983774 -0.03999451 -0.0401729 -0.04035276 -0.04049138 -0.04058382 -0.04060115 -0.04056503 -0.04048278 -0.04037474
 -0.04025434 -0.04013243 -0.04001104 -0.03991764 -0.03985585 -0.03986548 -0.03995583 -0.04013817 -0.04042024 -0.0407337
 -0.0410759 -0.04126899 -0.04130985 -0.04110775 -0.04069488 -0.04024036 -0.03976117 -0.03941549 -0.03918537 -0.03910547
 -0.03915355 -0.03931414 -0.03955293 -0.03983172 -0.0401019 -0.04030915 -0.04043261 -0.04043189 -0.04035632 -0.04020945
 -0.04006043 -0.03993312 -0.03984129 -0.03979392 -0.03976789 -0.03976088 -0.03976631 -0.03978347 -0.03982712 -0.03989738
 -0.04000033 -0.04013222 -0.04027316 -0.04041656 -0.04052681 -0.04060026 -0.04060687 -0.0405539 -0.0404352 -0.04027253
 -0.04008669 -0.03990216 -0.03974778 -0.03963147 -0.03956854 -0.03954812 -0.03957072 -0.0396207 -0.03969407 -0.03978085
 -0.03987949 -0.0399795 -0.04008082 -0.04016089 -0.04021839 -0.04023086 -0.0401985 -0.04012257 -0.04000586 -0.03986721
 -0.03970915 -0.03955013 -0.03939335 -0.03925564 -0.03913989 -0.0390608 -0.03901364 -0.03900197 -0.03901014 -0.03902774
 -0.03903889 -0.03902949 -0.03899906 -0.03894125 -0.03887169 -0.03879187 -0.03872159 -0.03866456 -0.0386332 -0.03862986
 -0.03865417 -0.0387064 -0.03877408 -0.03885599 -0.03893069 -0.03899702 -0.03903495 -0.03904752 -0.03903399 -0.03900196
 -0.03897074 -0.03894487 -0.0389429 -0.03896096 -0.0390026 -0.03906043 -0.03912773 -0.03920487 -0.0392886 -0.03938655
 -0.03950343 -0.03963421 -0.03978201 -0.03992223 -0.0400509 -0.04015179 -0.04022208 -0.04026218 -0.04027236 -0.04022821
 -0.0401289 -0.03995233 -0.03970731 -0.0394441 -0.03917334 -0.03896946 -0.03882414 -0.03875854 -0.03874828 -0.03876013
 -0.03877489 -0.03874706 -0.03869328 -0.03860809 -0.03852313 -0.0384608 -0.03842238 -0.03841909 -0.0384229 -0.03843045
 -0.03840859 -0.03834869 -0.03824519 -0.03809357 -0.03792935 -0.03775418 -0.03761398 -0.0375101 -0.03746805 -0.03748489
 -0.03755733 -0.03767356 -0.03778836 -0.03788427 -0.0378833 -0.03779871 -0.0376072 -0.03735707 -0.03710565 -0.03686969
 -0.03669328 -0.03654595 -0.03642414 -0.0362924 -0.0361289 -0.03594019 -0.03571787 -0.03550473 -0.03530852 -0.03515158
 -0.03504105 -0.03494451 -0.03486113 -0.03472271 -0.03452782 -0.03424656 -0.0338907 -0.03353305 -0.03318273 -0.03292269
 -0.03273767 -0.03262902 -0.03258035 -0.03256261 -0.0325656 -0.0325705 -0.03255541 -0.03249883 -0.03237409 -0.03215127
 -0.03184561 -0.03144956 -0.03100945 -0.03054094 -0.03005289 -0.02955077 -0.0290244 -0.02847125 -0.02790685 -0.02733188
 -0.02676635 -0.0262109 -0.02567442 -0.0251582 -0.02467611 -0.02422947 -0.02383385 -0.02348397 -0.0231757 -0.02289869
 -0.02263411 -0.02236934 -0.02208832 -0.0217602 -0.02135663 -0.02084314 -0.02017176 -0.01939512 -0.01850803 -0.01762449
 -0.01678478 -0.01601549 -0.01533428 -0.01470055 -0.01411167 -0.01353466 -0.01296675 -0.01240136 -0.01183906 -0.01129606
 -0.01077235 -0.0102816 -0.009811481 -0.009323527 -0.008792894 -0.00811882 -0.007318562 -0.006354806 -0.005312296 -0.004296457
 -0.003337503 -0.00251854 -0.001780754 -0.001114067 -0.0004579849 0.0002231379 0.0009330657 0.001686496 0.002441473 0.003190489
 0.003914378 0.00460606 0.005300015 0.005997457 0.006752083 0.007564892 0.008449103 0.009397519 0.01036032 0.0113313
 0.01225485 0.01313621 0.01396082 0.01473743 0.01547427 0.01618144 0.01687269 0.01756275 0.01827235 0.01900124
 0.01976066 0.02052677 0.02128754 0.0220443 0.02278579 0.02356578 0.02439459 0.02530113 0.02629805 0.02731115
 0.02833698 0.02928517 0.03015466 0.03094865 0.03167438 0.0323914 0.03310177 0.03384894 0.03462323 0.03542317
 0.03623172 0.03701304 0.03776339 0.03845266 0.03911402 0.03975843 0.04044207 0.04121118 0.04207301 0.04305936
 0.04409021 0.04515128 0.04616741 0.04711563 0.04799352 0.04879535 0.04955625 0.05027795 0.05099875 0.05172017
 0.05246653 0.05323621 0.0540271 0.05483658 0.05565013 0.05647083 0.05729988 0.05814122 0.05900729 0.05988878
 0.06078133 0.06166773 0.06252782 0.06335922 0.06415117 0.06491777 0.06566299 0.06639628 0.06712306 0.06783874
 0.06854291 0.06923322 0.06990748 0.07058402 0.07126364 0.07197227 0.07271032 0.07347868 0.07427394 0.0750678
 0.07585873 0.07662342 0.07736661 0.07809024 0.07879826 0.07950023 0.08019562 0.08088692 0.08157498 0.08226015
 0.08294721 0.0836392 0.08433967 0.08505176 0.0857738 0.08650695 0.08724393 0.08798358 0.08871989 0.08945128
 0.09018156 0.09091083 0.09164472 0.09238293 0.09311415 0.09383648 0.09452787 0.09518934 0.09581274 0.09640291
 0.09696928 0.09751664 0.09805782 0.09859792 0.09914929 0.09971435 0.1003025 0.1009049 0.10152 0.1021356
 0.1027427 0.1033475 0.1039484 0.1045597 0.1051868 0.1058219 0.1064661 0.1070965 0.1077109 0.1083056
 0.1088811 0.1094545 0.110026 0.1106051 0.111188 0.1117634 0.1123276 0.1128619 0.113369 0.1138418
 0.1142922 0.1147331 0.1151742 0.1156333 0.1161024 0.1165842 0.1170604 0.1175212 0.1179639 0.1183832
 0.1187934 0.1191965 0.1196055 0.1200221 0.1204554 0.120906 0.1213809 0.1218797 0.1223943 0.1229232
 0.1234489 0.1239737 0.1244998 0.1250314 0.1255862 0.1261572 0.1267418 0.1273238 0.1278772 0.1283961
 0.1288619 0.1292852 0.1296663 0.1300183 0.1303474 0.1306602 0.1309596 0.1312495 0.131531 0.1318078
 0.1320805 0.1323537 0.1326276 0.1329105 0.1332029 0.1335191 0.13386 0.1342431 0.1346667 0.1351367
 0.1356435 0.1361651 0.1366861 0.1371629 0.1375913 0.1379399 0.1382311 0.1384697 0.1386935 0.138931
 0.1392017 0.1395285 0.1398892 0.1402858 0.1406757 0.1410479 0.1413884 0.1416909 0.1419814 0.142262
 0.1425465 0.1428345 0.1430869 0.1433011 0.1434319 0.1434888 0.1434899 0.1434537 0.143448 0.1434784
 0.143594 0.1437791 0.144035 0.1443384 0.1446661 0.1450025 0.1453263 0.1456436 0.1459462 0.1462669
 0.1466143 0.1470133 0.1474784 0.147973 0.1485002 0.1489704 0.1493763 0.1496602 0.149821 0.1498926
 0.1498822 0.1498739 0.149867 0.1499052 0.1499774 0.1500673 0.1501762 0.1502918 0.1504355 0.150638
 0.1509023 0.1512577 0.1516545 0.1520735 0.1524551 0.1527547 0.1529838 0.1531237 0.1532571 0.153399
 0.1536086 0.1539033 0.1542491 0.1546474 0.1550068 0.1553231 0.1555316 0.1556358 0.1556429 0.1555655
 0.155467 0.1553612 0.1553251 0.1553624 0.1555245 0.1557919 0.1561676 0.156605 0.1570628 0.1574913
 0.157837 0.1580937 0.1582333 0.1583093 0.1583278 0.1583566 0.1584127 0.1585309 0.1587188 0.1589899
 0.1593454 0.1598069 0.1603752 0.1610544 0.1618368 0.1626529 0.1634834 0.1641921 0.1647704 0.1651076
 0.1652357 0.1651547 0.1649352 0.1646788 0.1644444 0.1643433 0.1643618 0.1645432 0.1647948 0.1650915
 0.1653281 0.1654602 0.1654452 0.1652562 0.1649362 0.1644814 0.1639849 0.1634534 0.1629657 0.1625255
 0.1621526 0.1618437 0.1615705 0.161331 0.1610984 0.1608792 0.1606803 0.1605089 0.1603905 0.1603112
 0.1602733 0.160228 0.1601325 0.1599292 0.1595558 0.1590058 0.1582427 0.1573425 0.1563116 0.1552624
 0.1542205 0.1532608 0.1524009 0.1516529 0.1510216 0.1504727 0.1500042 0.1495508 0.149109 0.1486167
 0.1480806 0.1474998 0.1468931 0.1463256 0.1457995 0.1453634 0.1449806 0.1446206 0.1442403 0.1437716
 0.1432257 0.1425724 0.1418897 0.1412013 0.1405932 0.1401071 0.1397599 0.1395761 0.1394741 0.1394531
 0.1393803 0.1392434 0.1389585 0.1385219 0.1379629 0.1372899 0.1366057 0.1359148 0.1352977 0.134745
 0.1342697 0.1338588 0.1334891 0.1331549 0.1328374 0.1325345 0.1322386 0.1319456 0.1316509 0.1313499
 0.1310388 0.1307175 0.1303842 0.1300437 0.1296966 0.1293476 0.1289979 0.128648 0.128298 0.1279448
 0.1275881 0.127225 0.1268554 0.1264775 0.1260916 0.1256974 0.1252962 0.1248921 0.1244879 0.1240931
 0.123707 0.1233349 0.1229689 0.1226034 0.1222294 0.1218362 0.1214257 0.1209932 0.1205537 0.1201112
 0.1196779 0.1192597 0.11885 0.1184501 0.1180395 0.117616 0.1171685 0.1166964 0.1162129 0.1157197
 0.1152428 0.1147816 0.1143483 0.1139372 0.1135356 0.1131384 0.1127252 0.1123011 0.1118623 0.1114221
 0.1109945 0.1105849 0.1102035 0.1098452 0.1095068 0.1091962 0.1089121 0.1086766 0.1085004 0.1083668
 0.1082832 0.1081618 0.1079968 0.1076984 0.1072618 0.1066946 0.1060052 0.1052988 0.1045842 0.1039708
 0.1034508 0.1030622 0.1027792 0.1025656 0.1023891 0.1021803 0.1019258 0.1015741 0.101156 0.10067
 0.1001733 0.09969996 0.09926894 0.09890422 0.09856467 0.09824441 0.0979106 0.09754999 0.09720396 0.09687232
 0.09663529 0.09649713 0.09648206 0.09658352 0.0967278 0.0969011 0.09698323 0.09697314 0.09679448 0.09647438
 0.09603092 0.09550652 0.09498127 0.0944711 0.09403491 0.09364166 0.09328785 0.09293952 0.09256721 0.0921912
 0.09180614 0.09146135 0.09117374 0.09094273 0.09077632 0.09061996 0.09046811 0.09029605 0.09010219 0.08992892
 0.08977835 0.08969256 0.08966474 0.08967655 0.08971843 0.08974364 0.08975509 0.08973475 0.08969332 0.08964303
 0.08958418 0.08952719 0.08945344 0.089357 0.0892059 0.08898243 0.08866248 0.08822566 0.08769416 0.08705802
 0.08640452 0.08574118 0.08517109 0.08470788 0.08437851 0.08418534 0.08404706 0.08395656 0.08379588 0.08356682
 0.08321454 0.08275868 0.08223736 0.08167401 0.08114614 0.08065868 0.08026033 0.07993026 0.07966761 0.07943991
 0.079221 0.07899012 0.07872488 0.07843225 0.07810505 0.0777746 0.07744664 0.07714853 0.07688953 0.07665484
 0.07644693 0.07620811 0.07593518 0.07558621 0.0751639 0.07469739 0.07419497 0.0737268 0.07328823 0.07290545
 0.07255614 0.07219718 0.07181737 0.07136909 0.07087713 0.07034605 0.0698163 0.06932478 0.06888725 0.06852702
 0.06822954 0.0679948 0.06780748 0.06766218 0.0675582 0.06749549 0.06746973 0.06748248 0.06750418 0.06753341
 0.06751718 0.06745303 0.0672935 0.0670421 0.06669214 0.06625783 0.06578416 0.06529042 0.06484593 0.06446164
 0.06418984 0.06402481 0.06398343 0.06404651 0.06420627 0.06444038 0.06473567 0.0650739 0.06544673 0.06583805
 0.06624336 0.06664716 0.06704513 0.06743531 0.06781453 0.0682161 0.06864146 0.06915578 0.06976162 0.07051115
 0.07139869 0.07241803 0.0735544 0.07475019 0.0759935 0.07722453 0.07844361 0.07962263 0.08077131 0.08188929
 0.08298858 0.08407744 0.08516873 0.0862703 0.0873954 0.08855165 0.08974318 0.09097701 0.09222979 0.09350453
 0.09473909 0.09593003 0.09699766 0.0979369 0.09869938 0.09928632 0.09971109 0.09997991 0.1001396 0.1001932
 0.1001738 0.1000863 0.09995093 0.09979102 0.09964926 0.09956052 0.09958693 0.09973799 0.1000514 0.1004942
 0.1010613 0.1017113 0.1024235 0.1031876 0.1039948 0.1048563 0.1057741 0.1067465 0.1077752 0.108836
 0.1099278 0.1110128 0.112088 0.1131038 0.1140566 0.1148954 0.1156228 0.116217 0.1166926 0.1170741
 0.117376 0.1176432 0.1178592 0.118041 0.1181135 0.1180405 0.1176981 0.1170122 0.1158809 0.1142302
 0.1120834 0.1094029 0.1063829 0.1030306 0.09964167 0.09624447 0.09308814 0.09019098 0.08764231 0.08543849
 0.0835183 0.08187031 0.08038814 0.07906922 0.07784854 0.07672775 0.07568255 0.07470511 0.07377213 0.07287379
 0.07198386 0.0711128 0.07025523 0.06943993 0.06868313 0.06800079 0.06740758 0.06689009 0.06644887 0.0660638
 0.06572934 0.06544697 0.06521426 0.06505857 0.0649813 0.06501583 0.06516194 0.06542134 0.06578426 0.06618912
 0.06661759 0.06696326 0.06721751 0.06729683 0.06722043 0.06697621 0.0666066 0.06615419 0.0656652 0.06518993
 0.06476661 0.06442941 0.06420423 0.06411004 0.06415438 0.0643452 0.06467097 0.06513338 0.06570625 0.06639124
 0.0671242 0.06790356 0.06856832 0.06910396 0.06924315 0.06897276 0.06805241 0.06651642 0.06434608 0.06164224
 0.05864419 0.05546276 0.05241469 0.04953688 0.0470196 0.04480601 0.04292007 0.04127206 0.03981357 0.03848909
 0.03726162 0.03611843 0.03504881 0.03405374 0.0331327 0.03228263 0.03150376 0.0307871 0.03013226 0.02952436
 0.02896251 0.02843046 0.0279278 0.02744361 0.02697836 0.02652754 0.02609296 0.02567638 0.02528115 0.02491512
 0.02457795 0.02427583 0.02399703 0.02373656 0.02347497 0.0231979 0.02289797 0.02256391 0.02221489 0.02185028
 0.02150602 0.02118886 0.02092172 0.02071038 0.02054068 0.02041271 0.020285 0.02015596 0.0199964 0.01980909
 0.01960102 0.01937555 0.01915313 0.01892871 0.01870053 0.01845936 0.01818378 0.01787757 0.01753122 0.01716725
 0.01679991 0.01645389 0.01615014 0.01589561 0.01570161 0.0155538 0.01545341 0.01537225 0.01530689 0.01522675
 0.01512758 0.01499281 0.01482053 0.01461929 0.01439025 0.01415821 0.01392424 0.01370834 0.01350902 0.0133312
 0.01317189 0.01302586 0.01289018 0.01275708 0.01262471 0.01248677 0.01234495 0.01219703 0.01205014 0.01190722
 0.01177639 0.01166329 0.01156633 0.01148936 0.01141322 0.0113365 0.01123363 0.01110033 0.01093126 0.01072494
 0.0105088 0.01028462 0.01008887 0.009920557 0.009790469 0.009692397 0.009605505 0.009525021 0.009425007 0.009309348
 0.009170758 0.009021129 0.008872902 0.008735569 0.008625435 0.008536221 0.008473364 0.008412878 0.008346946 0.008253772
 0.008122725 0.007955753 0.007749072 0.007524237 0.007283101 0.007044442 0.006809877 0.006585483 0.006371438 0.006169036
 0.005978471 0.005802419 0.005640461 0.005492989 0.005357831 0.005229305 0.005105252 0.004978403 0.004849083 0.004713952
 0.004576333 0.004437914 0.004302005 0.004171788 0.004046964 0.003928755 0.00381383 0.003701462 0.003589156 0.00347617
 0.003362061 0.003246638 0.003130289 0.00301299 0.002896098 0.002779791 0.002667938 0.002561045 0.002465018 0.002380044
 0.002310871 0.002255735 0.002213684 0.002179265 0.002142716 0.002096868 0.002027609 0.001932166 0.001801076 0.001640469
 0.001449639 0.001240879 0.001018294 0.0007946615 0.0005741425 0.0003665513 0.0001747372 2.542499E-06 -0.000148572 -0.0002836415
 -0.00040273 -0.0005157156 -0.0006230051 -0.0007310752 -0.0008397175 -0.0009497194 -0.001061223 -0.001174918 -0.001292021 -0.001416805
 -0.001549258 -0.001692518 -0.001843043 -0.001998034 -0.002152507 -0.002300323 -0.002439946 -0.002567907 -0.002686608 -0.002796192
 -0.002899195 -0.002996389 -0.003089331 -0.003177771 -0.003267033 -0.003357248 -0.003457636 -0.003568993 -0.003695337 -0.003836476
 -0.003983979 -0.004136616 -0.004279825 -0.004413839 -0.004531091 -0.004634599 -0.004728833 -0.00481724 -0.004909369 -0.005005382
 -0.005110341 -0.005220799 -0.00533529 -0.005450832 -0.005564366 -0.005676649 -0.005787056 -0.005897644 -0.006009628 -0.006120874
 -0.006231754 -0.006336371 -0.006433925 -0.006521035 -0.006597115 -0.006667078 -0.006731328 -0.006799901 -0.006873162 -0.006958942
 -0.007056362 -0.00716596 -0.007285771 -0.00741086 -0.007538632 -0.007661869 -0.0077783 -0.007881376 -0.007971246 -0.00804408
 -0.008106075 -0.00815862 -0.008212152 -0.008272153 -0.008343554 -0.008430693 -0.008526898 -0.008632148 -0.008736513 -0.008838173
 -0.008935915 -0.009029294 -0.009123954 -0.009220007 -0.009317469 -0.009415429 -0.009505351 -0.009586939 -0.009653457 -0.0097071
 -0.00975046 -0.009786662 -0.009823215 -0.009862063 -0.009909274 -0.009964944 -0.01003173 -0.01010777 -0.01019333 -0.01028425
 -0.01037894 -0.01047343 -0.01056601 -0.01065516 -0.01074029 -0.0108208 -0.0108966 -0.01096684 -0.01103133 -0.01109257
 -0.0111508 -0.01121249 -0.01127768 -0.0113499 -0.01142768 -0.01150587 -0.01158308 -0.0116515 -0.0117128 -0.01176602
 -0.01181483 -0.01186454 -0.01191633 -0.01197445 -0.01203522 -0.01209786 -0.0121577 -0.01221186 -0.01225967 -0.01229959
 -0.01233542 -0.0123674 -0.01240051 -0.0124355 -0.01247532 -0.01252039 -0.01256983 -0.01262355 -0.01267764 -0.0127321
 -0.01278502 -0.01283756 -0.01289425 -0.01295656 -0.01303241 -0.01312016 -0.01322164 -0.01333115 -0.01344153 -0.01354784
 -0.01364152 -0.01372346 -0.01379058 -0.01384865 -0.01389927 -0.01394824 -0.01399779 -0.01405125 -0.01410983 -0.01417438
 -0.01424534 -0.01432148 -0.01440283 -0.01448678 -0.01457318 -0.01465959 -0.014746 -0.01483148 -0.01491616 -0.01500027
 -0.01508378 -0.01516689 -0.01524897 -0.01532902 -0.0154058 -0.01547708 -0.01554211 -0.01559858 -0.01564865 -0.01569188
 -0.01573455 -0.01577924 -0.0158316 -0.01589532 -0.01596721 -0.01604853 -0.01612759 -0.01620281 -0.01626692 -0.01631868
 -0.01636441 -0.01640449 -0.01645104 -0.01650397 -0.01656727 -0.01663945 -0.01671509 -0.0167933 -0.01686841 -0.01694063
 -0.01700788 -0.01707035 -0.01712767 -0.01717957 -0.01722539 -0.01726578 -0.0173002 -0.01733206 -0.01736217 -0.01739578
 -0.01743495 -0.01748225 -0.01753943 -0.01760242 -0.01767122 -0.01773911 -0.01780539 -0.01786782 -0.01792633 -0.01798333
 -0.01803882 -0.01809385 -0.01814778 -0.0181978 -0.01824341 -0.01828126 -0.018312 -0.01833482 -0.01835196 -0.01836598
 -0.01837979 -0.01839743 -0.01842035 -0.01845131 -0.01848899 -0.01853386 -0.01858304 -0.01863613 -0.0186891 -0.01874144
 -0.0187879 -0.01882764 -0.01885749 -0.01887679 -0.01889 -0.01889741 -0.01890937 -0.01892633 -0.01895705 -0.01900076
 -0.01905875 -0.01912862 -0.01920385 -0.01928146 -0.01935143 -0.01941318 -0.01946022 -0.01949681 -0.01952442 -0.01954841
 -0.01957417 -0.01960114 -0.01963167 -0.01965943 -0.01968264 -0.01969725 -0.01970119 -0.01969755 -0.01968601 -0.01967374
 -0.01966123 -0.0196553 -0.01965632 -0.01966902 -0.01969357 -0.01973335 -0.01978854 -0.01986193 -0.01995376 -0.02006631
 -0.02019972 -0.02035524 -0.02053342 -0.02073494 -0.02096204 -0.02121625 -0.02150258 -0.02182415 -0.02218773 -0.02259693
 -0.02305785 -0.02357339 -0.02414643 -0.02477822 -0.02546968 -0.02622184 -0.02702968 -0.02789417 -0.02879079 -0.02971785
 -0.03061566 -0.03147816 -0.03222085 -0.03283567 -0.03323745 -0.033418 -0.03330025 -0.03289255 -0.03215056 -0.03115088
 -0.02997011 -0.02873159 -0.02760358 -0.02663913 -0.02594118 -0.02548277 -0.02527983 -0.02528584 -0.02549462 -0.02584373
 -0.02633058 -0.02683835 -0.02735554 -0.02774691 -0.02799479 -0.02808747 -0.0280245 -0.02790652 -0.02773709 -0.027589
 -0.02745722 -0.02735252 -0.02726682 -0.0271792 -0.02708437 -0.02695833 -0.02680454 -0.02661677 -0.02640312 -0.02617144
 -0.0259233 -0.02566249 -0.02538837 -0.0250984 -0.02480424 -0.0245076 -0.0242254 -0.02396308 -0.02372435 -0.02351171
 -0.02331568 -0.02313568 -0.02296369 -0.02279929 -0.02264322 -0.02249586 -0.02236203 -0.02224169 -0.02213748 -0.02204834
 -0.02197234 -0.02190793 -0.02185077 -0.0217997 -0.02175078 -0.02170417 -0.02165832 -0.02161458 -0.02157344 -0.0215362
 -0.02150408 -0.02147622 -0.02145348 -0.02143089 -0.02140788 -0.02137808 -0.02134002 -0.02129283 -0.02123573 -0.02117761
 -0.02111894 -0.0210729 -0.02103967 -0.0210255 -0.02102862 -0.02104252 -0.02106456 -0.02108163 -0.02109371 -0.02109312
 -0.02108401 -0.02106906 -0.02105325 -0.0210438 -0.02104164 -0.02105077 -0.02106756 -0.0210916 -0.02111808 -0.02114519
 -0.02116984 -0.02119097 -0.02120701 -0.02121772 -0.02122104 -0.02121683 -0.02120261 -0.02117824 -0.02114455 -0.02110212
 -0.02105853 -0.02101462 -0.0209797 -0.02095287 -0.02093653 -0.02092799 -0.02092185 -0.02091714 -0.02090894 -0.02089993
 -0.02089126 -0.02088516 -0.02088504 -0.02088767 -0.02089305 -0.02089533 -0.02089152 -0.02088179 -0.02086441 -0.02084743
 -0.02083184 -0.02082394 -0.02082494 -0.02083072 -0.02084108 -0.02084675 -0.02084762 -0.02083986 -0.02082433 -0.02080421
 -0.02078011 -0.02075583 -0.02073136 -0.02070834 -0.02068709 -0.02066908 -0.0206538 -0.0206419 -0.02063064 -0.02061814
 -0.02060241 -0.02058066 -0.02055673 -0.02053012 -0.0205098 -0.02049772 -0.02050113 -0.02052228 -0.02055885 -0.02061152
 -0.02066764 -0.02072653 -0.02077325 -0.02080766 -0.02082397 -0.02082388 -0.02081452 -0.02079806 -0.02078657 -0.02077992
 -0.02078452 -0.02079758 -0.02081756 -0.02084153 -0.02086528 -0.02088787 -0.02090712 -0.02092332 -0.02093615 -0.02094582
 -0.02095224 -0.02095611 -0.02095736 -0.02095795 -0.02095831 -0.02095886 -0.02095988 -0.02095819 -0.02095362 -0.02094472
 -0.02093191 -0.0209209 -0.02091238 -0.02091429 -0.02092548 -0.0209468 -0.02097511 -0.02100311 -0.02102883 -0.02104507
 -0.02105306 -0.02105089 -0.02104199 -0.02102812 -0.02101308 -0.0209989 -0.02098979 -0.02098761 -0.02099548 -0.02101507
 -0.02104518 -0.02108655 -0.02113255 -0.02118277 -0.02122966 -0.02127274 -0.02130872 -0.02133765 -0.02135972 -0.02137515
 -0.02138483 -0.02138938 -0.02139107 -0.02139124 -0.02139445 -0.02140111 -0.02141475 -0.02143301 -0.02145492 -0.02147718
 -0.02149645 -0.02151201 -0.02152191 -0.02152877 -0.021533 -0.02153732 -0.02154273 -0.02154955 -0.02155813 -0.02156718
 -0.02157649 -0.02158631 -0.02159661 -0.02161014 -0.02162704 -0.02164988 -0.02167832 -0.02171165 -0.02174897 -0.02178675
 -0.02182401 -0.02185654 -0.02188401 -0.02190365 -0.02191664 -0.02192259 -0.02192489 -0.0219259 -0.02192897 -0.02193691
 -0.02195051 -0.02197127 -0.02199662 -0.02202652 -0.02205702 -0.02208746 -0.02211502 -0.02213916 -0.02216054 -0.02217914
 -0.02219787 -0.02221681 -0.02223766 -0.02226021 -0.02228365 -0.02230801 -0.02233296 -0.02235869 -0.02238585 -0.02241386
 -0.02244196 -0.0224699 -0.02249656 -0.02252365 -0.0225523 -0.02258359 -0.02261954 -0.0226563 -0.02269337 -0.02272521
 -0.02274957 -0.02276671 -0.02277559 -0.02278285 -0.02278893 -0.02280075 -0.0228188 -0.02284522 -0.02287979 -0.02291918
 -0.02296261 -0.02300324 -0.02304067 -0.02306936 -0.02309025 -0.02310255 -0.02310808 -0.0231095 -0.02310844 -0.02310779
 -0.02310866 -0.02311272 -0.02312125 -0.02313529 -0.02315611 -0.02318474 -0.0232205 -0.02326396 -0.02331126 -0.02336208
 -0.0234116 -0.02345907 -0.02350357 -0.02354495 -0.02358599 -0.02362673 -0.0236686 -0.02371114 -0.02375186 -0.02379046
 -0.02382427 -0.02385373 -0.02387859 -0.0238996 -0.02391794 -0.0239343 -0.02394982 -0.0239654 -0.02398212 -0.02400072
 -0.02402204 -0.02404603 -0.02407296 -0.02410225 -0.02413395 -0.02416684 -0.0242007 -0.02423469 -0.02426856 -0.02430353
 -0.02433965 -0.02437806 -0.02441855 -0.02445749 -0.02449414 -0.02452122 -0.02453895 -0.02454356 -0.02453752 -0.02452484
 -0.02450893 -0.02449768 -0.02449318 -0.0245016 -0.02452241 -0.02455811 -0.02460469 -0.02466183 -0.02472146 -0.02478134
 -0.02483152 -0.02486868 -0.02488748 -0.02488513 -0.02486869 -0.02483776 -0.0248091 -0.02478379 -0.02477242 -0.02477479
 -0.0247864 -0.02480605 -0.0248229 -0.02483715 -0.02484376 -0.02484419 -0.02483986 -0.02483173 -0.024822 -0.02481165
 -0.02480229 -0.02479586 -0.02479475 -0.02479954 -0.0248123 -0.02482902 -0.02484958 -0.02486626 -0.02487693 -0.02487637
 -0.02486237 -0.02483856 -0.02480446 -0.02477091 -0.02473857 -0.0247166 -0.02470505 -0.02470422 -0.02471328 -0.02472649
 -0.02474318 -0.02475749 -0.02476973 -0.02477738 -0.02478206 -0.02478518 -0.02478919 -0.02479813 -0.02481241 -0.02483516
 -0.02486134 -0.02489005 -0.02491268 -0.02492531 -0.02492309 -0.02490263 -0.02486845 -0.02481985 -0.02476786 -0.02471342
 -0.02466705 -0.02462955 -0.0246058 -0.02459584 -0.02459934 -0.02461587 -0.02464282 -0.02467899 -0.02471872 -0.02475965
 -0.02479239 -0.02481578 -0.02482231 -0.02481466 -0.02479256 -0.02476051 -0.02472224 -0.02468133 -0.02464055 -0.02460338
 -0.02457172 -0.02454833 -0.02453494 -0.02453002 -0.02453435 -0.02454094 -0.0245494 -0.02455094 -0.02454489 -0.02452676
 -0.02449672 -0.02445898 -0.02441472 -0.02437489 -0.02434004 -0.02431907 -0.02431023 -0.0243137 -0.02432681 -0.02434468
 -0.02436545 -0.02438504 -0.02440161 -0.0244123 -0.0244156 -0.02440911 -0.02439478 -0.02437224 -0.02434587 -0.02431683
 -0.02428815 -0.02426052 -0.02423599 -0.02421485 -0.0241989 -0.02418836 -0.02418148 -0.0241781 -0.02417467 -0.02417166
 -0.02417099 -0.02417343 -0.02418472 -0.02420252 -0.02422503 -0.02424591 -0.02425155 -0.02423977 -0.02419883 -0.02413873
 -0.02406296 -0.02398474 -0.02391486 -0.02385576 -0.02381295 -0.02377766 -0.02374873 -0.02371733 -0.02368061 -0.02363984
 -0.02359425 -0.02355205 -0.02351373 -0.02348669 -0.02347122 -0.02347148 -0.02348674 -0.02351448 -0.02355146 -0.02358261
 -0.02360455 -0.02359762 -0.0235663 -0.02350812 -0.02343298 -0.0233538 -0.02327529 -0.02320672 -0.02314818 -0.02310228
 -0.02306822 -0.02304727 -0.02303429 -0.02302928 -0.02302191 -0.02301048 -0.02298588 -0.02294665 -0.02288854 -0.022811
 -0.02271504 -0.02260108 -0.02247981 -0.02235272 -0.02223707 -0.02213286 -0.02204986 -0.02198581 -0.02193958 -0.02190873
 -0.0218892 -0.02187636 -0.02186429 -0.02184397 -0.02180393 -0.02174198 -0.02164953 -0.02154091 -0.0214191 -0.02130046
 -0.02119241 -0.02109502 -0.02101086 -0.02092835 -0.02084626 -0.02075716 -0.02066016 -0.02055789 -0.02045048 -0.02034165
 -0.02023041 -0.02011031 -0.01997961 -0.01982504 -0.01965005 -0.01945596 -0.01925073 -0.01905246 -0.01886153 -0.01868833
 -0.01852399 -0.0183634 -0.01820073 -0.01802828 -0.01785185 -0.01767116 -0.0174957 -0.01732923 -0.01717334 -0.01703106
 -0.01688897 -0.01674769 -0.01657614 -0.01637187 -0.01611596 -0.015809 -0.01548318 -0.01514161 -0.01482779 -0.01453692
 -0.01427127 -0.01402135 -0.0137605 -0.01348353 -0.01316634 -0.01281114 -0.01240901 -0.01196943 -0.01149686 -0.01100356
 -0.01050183 -0.009988544 -0.009471438 -0.008920083 -0.008326359 -0.007669534 -0.006937393 -0.006163863 -0.005350613 -0.004537572
 -0.003729116 -0.002917776 -0.002103271 -0.001275481 -0.0004373733 0.0003861882 0.00119556 0.001973751 0.002735036 0.003512847
 0.004319241 0.005203504 0.006145772 0.007143402 0.008164047 0.009168234 0.01015831 0.01112023 0.0120757 0.01303347
 0.01400023 0.01498029 0.01597235 0.01696994 0.01801458 0.01910333 0.0203463 0.02175364 0.02336636 0.02518053
 0.02700502 0.02883064 0.03048216 0.03198811 0.03339389 0.0347274 0.03609953 0.0375105 0.03901169 0.04059822
 0.04226986 0.04406466 0.04599607 0.04816876 0.05065404 0.05353171 0.05690235 0.06061361 0.06468032 0.06876636
 0.07279702 0.07659453 0.08011324 0.0833843 0.08640268 0.08928623 0.09204368 0.09488127 0.09781893 0.1011538
 0.1048524 0.1089623 0.1133319 0.1174852 0.1214039 0.1247678 0.1277628 0.1305282 0.1331959 0.135968
 0.1388461 0.1418967 0.1450745 0.1483714 0.1517621 0.1552532 0.1587487 0.1622378 0.1655964 0.1687954
 0.171865 0.1748045 0.1776792 0.1804878 0.1830934 0.1854833 0.1874643 0.1890618 0.1902923 0.1912042
 0.1919683 0.1925825 0.1931426 0.1935795 0.1938128 0.1938488 0.1936409 0.1932814 0.1928263 0.1923196
 0.1918078 0.1912611 0.1906836 0.1900258 0.1892789 0.1884029 0.187392 0.1862132 0.1848615 0.1833557
 0.1816981 0.1799843 0.1782158 0.1764482 0.1746716 0.1728627 0.1710197 0.1691191 0.1671796 0.165224
 0.1632837 0.1614168 0.1596372 0.1579844 0.1564477 0.1550281 0.1537257 0.1525355 0.1514796 0.1505674
 0.1497988 0.1491807 0.1486754 0.1482778 0.1479658 0.1477356 0.1476063 0.147579 0.1476858 0.1479258
 0.1483066 0.1488227 0.1494509 0.1501842 0.1509888 0.1518621 0.1527796 0.1537484 0.154765 0.1558458
 0.1570051 0.1582575 0.1596199 0.1610925 0.1626816 0.1643777 0.1661783 0.1680805 0.1700848 0.172182
 0.1743758 0.1766151 0.1788974 0.1811592 0.1833983 0.1856211 0.1878314 0.1900852 0.192363 0.1946021
 0.1967602 0.1986468 0.2002878 0.2016293 0.2027541 0.2037795 0.2047174 0.2056448 0.2064862 0.207203
 0.207764 0.2081222 0.2083533 0.2084583 0.208568 0.2087167 0.2089653 0.2093506 0.2096841 0.2099558
 0.2099616 0.2096933 0.2091625 0.2083755 0.2074009 0.2062393 0.2049293 0.2034669 0.2018673 0.200109
 0.1981729 0.1959898 0.1934411 0.1904966 0.1870063 0.1832035 0.1791989 0.1752095 0.1714278 0.1677411
 0.1641504 0.1605476 0.1568839 0.1532432 0.1496259 0.1461533 0.1428413 0.1396764 0.1366576 0.133695
 0.1307888 0.1279106 0.1250719 0.1223235 0.1196683 0.1171489 0.1147464 0.1124422 0.1102133 0.1080155
 0.1058389 0.1036606 0.1014659 0.09925194 0.09695951 0.09456178 0.0920032 0.0892129 0.08638074 0.08350738
 0.08093404 0.07874129 0.07688322 0.07537372 0.07395609 0.07261826 0.07122845 0.0697934 0.06834728 0.06690214
 0.06554624 0.06427015 0.06308535 0.06198428 0.06094187 0.05999067 0.05916414 0.05850632 0.05808967 0.05790026
 0.05796084 0.0582158 0.05864165 0.05920316 0.05987814 0.06067115 0.06156955 0.06263824 0.06387427 0.06542307
 0.06729965 0.06958596 0.07228425 0.0751274 0.07808851 0.0807519 0.08313555 0.08512393 0.08676027 0.08813548
 0.08926144 0.09020362 0.09097148 0.09158779 0.09211455 0.09260966 0.09317284 0.09391796 0.09483067 0.09597553
 0.09715243 0.09829434 0.09930817 0.1001382 0.1008758 0.1015264 0.1021767 0.1028385 0.1035105 0.1041928
 0.1048311 0.1054245 0.1059459 0.1064037 0.1068275 0.1072317 0.1076808 0.1081818 0.1087895 0.1094854
 0.1102664 0.1111093 0.1119796 0.1128871 0.1138267 0.114814 0.1158639 0.1169542 0.1180854 0.1192159
 0.1203323 0.121428 0.1224961 0.1235714 0.1246575 0.1257665 0.1268988 0.1279747 0.1289867 0.1298163
 0.1304656 0.1308863 0.1310866 0.1310734 0.1308435 0.130394 0.1297163 0.1287894 0.1276232 0.1262121
 0.1245921 0.1227857 0.1208296 0.1187513 0.1165608 0.1142662 0.1118723 0.1093706 0.1068246 0.1042333
 0.1017238 0.09930845 0.09706752 0.0950058 0.09310222 0.09135359 0.08971186 0.08817844 0.08673897 0.08539516
 0.08414984 0.08299375 0.08191002 0.08088191 0.0798757 0.07887866 0.07786331 0.0768251 0.07575029 0.07464411
 0.07350266 0.07234351 0.07116991 0.07000493 0.06885614 0.06773037 0.06663216 0.0655436 0.06446336 0.06337611
 0.0622809 0.06120384 0.06014908 0.05917995 0.05829758 0.05754383 0.05690996 0.05638679 0.05596639 0.05562396
 0.05535967 0.05516274 0.05503578 0.05497881 0.05499071 0.05507334 0.05521657 0.05541946 0.05565947 0.05593025
 0.05620724 0.05648255 0.05674567 0.05699351 0.05722442 0.05743862 0.05762589 0.05778568 0.05790697 0.05799104
 0.05805117 0.05809261 0.05815325 0.05823818 0.0583864 0.05859794 0.0588939 0.05926775 0.0597204 0.06023923
 0.06081387 0.06142362 0.06205484 0.06267377 0.06326406 0.0637839 0.06421543 0.06452832 0.06470948 0.06475608
 0.06466341 0.0644521 0.06412257 0.06370628 0.06320501 0.06265151 0.06204732 0.06141969 0.06076972 0.0601173
 0.05946404 0.05882613 0.05820499 0.05761288 0.05704812 0.05651429 0.05600683 0.05552194 0.0550558 0.05460412
 0.05416501 0.05373613 0.05331757 0.05290823 0.05251138 0.05212691 0.0517613 0.05141518 0.05109609 0.05080467
 0.05054831 0.05032746 0.05014792 0.05000952 0.04991116 0.04985161 0.04982232 0.04982278 0.04984557 0.04989332
 0.04996794 0.05007429 0.05022157 0.0504127 0.05065607 0.05094837 0.05129175 0.05167572 0.0520963 0.05254138
 0.05300561 0.05348115 0.05396526 0.05445281 0.05494336 0.05542808 0.05590658 0.05636534 0.05680357 0.05720929
 0.05758221 0.0579165 0.05821259 0.05847045 0.05869018 0.0588727 0.05901662 0.05911949 0.05917875 0.05918879
 0.05914833 0.059053 0.05890445 0.05870222 0.05844925 0.05814699 0.05779775 0.0574029 0.05696301 0.05647819
 0.05594987 0.05537725 0.05476908 0.05412519 0.05346465 0.05278854 0.0521182 0.0514541 0.05080625 0.05017303
 0.04954921 0.04893233 0.04830991 0.04768156 0.04703929 0.04638557 0.04572089 0.045048 0.04437065 0.0436898
 0.04300653 0.0423242 0.04164265 0.04097301 0.0403184 0.03969159 0.0390976 0.03853829 0.03801603 0.03752074
 0.03705173 0.03659913 0.0361622 0.03574135 0.03533722 0.03496027 0.03461176 0.03430522 0.034041 0.0338277
 0.03366484 0.03355498 0.03349899 0.033499 0.03355731 0.03367794 0.03386129 0.0341092 0.03442094 0.03479553
 0.03523618 0.03574301 0.03632245 0.03697657 0.03770798 0.03851847 0.03940202 0.04035925 0.04137291 0.04244224
 0.04353721 0.04465604 0.04576598 0.04686743 0.04794516 0.04900455 0.05005747 0.05111089 0.05219026 0.05329571
 0.05444279 0.05561886 0.0568179 0.05801895 0.05920324 0.06035371 0.06145554 0.06249939 0.06347989 0.06438606
 0.06521481 0.06595464 0.06660121 0.067161 0.06763228 0.06804505 0.06840087 0.06873452 0.06904759 0.06936771
 0.06969667 0.07005956 0.07045875 0.07091715 0.07143585 0.0720294 0.07269732 0.07344622 0.07427263 0.07517774
 0.07614961 0.07718176 0.0782543 0.07935511 0.0804666 0.08157891 0.08268271 0.0837736 0.08484771 0.08590399
 0.08693912 0.08795312 0.08893847 0.08989485 0.09080933 0.09168163 0.09250584 0.09328367 0.09402435 0.09472983
 0.09541305 0.09607431 0.09671969 0.09735169 0.09797689 0.09859907 0.09922796 0.09985832 0.1004925 0.1011136
 0.1017135 0.1022756 0.1027902 0.1032531 0.1036583 0.104021 0.1043397 0.1046493 0.1049524 0.1052879
 0.1056586 0.1060847 0.1065659 0.107096 0.1076718 0.1082688 0.108883 0.1094856 0.1100738 0.1106273
 0.1111415 0.1116032 0.111996 0.1122973 0.1124841 0.1125246 0.1124177 0.1121458 0.1117423 0.111213
 0.1105997 0.1099137 0.1091868 0.1084234 0.1076627 0.1069071 0.1062114 0.1055794 0.1050516 0.1046283
 0.1043093 0.10409 0.1039376 0.1038471 0.1037796 0.1037338 0.1036857 0.1036378 0.103584 0.1035262
 0.103465 0.1033992 0.1033279 0.1032495 0.1031636 0.1030659 0.1029566 0.1028243 0.1026658 0.1024741
 0.1022454 0.1019918 0.1017135 0.101429 0.1011397 0.1008484 0.1005545 0.1002491 0.0999315 0.09959469
 0.09923746 0.09885223 0.09843551 0.09797422 0.09746515 0.09689605 0.09626612 0.09556884 0.09480619 0.09397651
 0.09308571 0.09213638 0.09113495 0.09008487 0.08898925 0.08784842 0.08666991 0.08545313 0.08421745 0.08296439
 0.08171507 0.08047108 0.0792451 0.07803784 0.07686092 0.07571555 0.07461683 0.07356519 0.07257104 0.07163311
 0.07075399 0.06993037 0.06916007 0.06843274 0.06773762 0.06705591 0.06636806 0.065658 0.06490859 0.0641177
 0.0632789 0.06240023 0.06148275 0.06053337 0.05955451 0.05854402 0.05750256 0.05642017 0.05529592 0.05413029
 0.0529245 0.05170837 0.05048587 0.04930259 0.04815942 0.04708541 0.04607693 0.04513896 0.04426758 0.04345863
 0.04270686 0.04200586 0.04134524 0.04071466 0.04010282 0.03950006 0.03889869 0.03829329 0.03767958 0.03705448
 0.03642016 0.03577553 0.03512999 0.03448454 0.03384588 0.03321464 0.03259164 0.03197723 0.03137898 0.03079834
 0.03025157 0.02973839 0.02926731 0.02883482 0.02843522 0.02806567 0.02771767 0.02739067 0.02708068 0.02678741
 0.02650853 0.02624638 0.0260004 0.02577766 0.02558105 0.02541588 0.02528647 0.0251848 0.02511251 0.02504596
 0.02498295 0.02490036 0.02479569 0.02467149 0.02452877 0.02439796 0.02428034 0.02420158 0.02415776 0.02414489
 0.0241582 0.02418019 0.02421272 0.02425168 0.02429869 0.02435807 0.02441945 0.02447723 0.02451473 0.02451744
 0.0244825 0.02440076 0.02429147 0.02415617 0.02402204 0.02389476 0.02379184 0.0237164 0.02367569 0.02367038
 0.02370744 0.0237871 0.02391323 0.02408421 0.02428857 0.02452339 0.02476794 0.02502307 0.02527993 0.02554221
 0.0258149 0.02609594 0.02638612 0.02667857 0.02696606 0.02724685 0.02751692 0.02777906 0.02803463 0.02828155
 0.02851958 0.02874622 0.02895966 0.02916697 0.02936864 0.02957254 0.02977971 0.02998471 0.03018719 0.03037741
 0.0305564 0.03072887 0.03089707 0.03107558 0.03126224 0.03145954 0.03166137 0.03185471 0.03204037 0.03221088
 0.03237775 0.03254969 0.03273475 0.03294427 0.03316988 0.03341257 0.03365639 0.03389632 0.03412315 0.03433381
 0.03452556 0.03469736 0.0348509 0.03498581 0.0351136 0.035235 0.03536649 0.035508 0.03566581 0.03583828
 0.03602032 0.03621191 0.0364099 0.03661617 0.03683372 0.03706216 0.03730295 0.03755321 0.03781046 0.03807322
 0.03833993 0.03860932 0.03888249 0.0391503 0.03941219 0.03965118 0.0398625 0.04004169 0.04018437 0.04032002
 0.04044959 0.04062047 0.04083445 0.04111036 0.04144444 0.04180948 0.0422009 0.04258056 0.04295114 0.04330044
 0.04363418 0.04396011 0.04427751 0.04458952 0.04489192 0.04517906 0.04545619 0.04572184 0.04599245 0.04627588
 0.04658089 0.04691503 0.04726638 0.04763473 0.04800333 0.04836936 0.04872783 0.04907835 0.04941439 0.04973542
 0.05002584 0.05028728 0.05052582 0.05074979 0.05100429 0.05129397 0.05166203 0.05209559 0.05259286 0.05312991
 0.05367278 0.05420109 0.05468259 0.05510538 0.05545017 0.05571836 0.05590244 0.05602052 0.05607476 0.05608899
 0.05606797 0.05603061 0.05597903 0.05593411 0.05589723 0.05589289 0.05592216 0.05599728 0.056117 0.05627469
 0.05646738 0.05667799 0.05690261 0.05712029 0.05732877 0.0575112 0.05767268 0.05781203 0.05793867 0.05806239
 0.05818765 0.05832115 0.05846237 0.05861351 0.05877011 0.0589336 0.05908861 0.05923246 0.05935106 0.05943948
 0.05951343 0.05957268 0.05965427 0.05975973 0.05990404 0.06008477 0.06028276 0.06049582 0.06070107 0.06090249
 0.06109806 0.06129862 0.06152494 0.06178835 0.06211887 0.06250961 0.06297169 0.06347377 0.06399841 0.0645187
 0.0650139 0.06548338 0.06592269 0.06633551 0.06672305 0.06708038 0.0674049 0.06771134 0.06799952 0.06830557
 0.06863103 0.06898925 0.06937753 0.06977179 0.07016945 0.07054283 0.07089569 0.07122467 0.07153653 0.07184597
 0.07215264 0.07246616 0.07277346 0.07306623 0.07332886 0.07354522 0.07371468 0.07383083 0.07390423 0.07393739
 0.07393648 0.07390138 0.07384623 0.0737697 0.07371163 0.07367472 0.07369871 0.07378533 0.07394003 0.07416049
 0.07442456 0.07472893 0.07504434 0.0753703 0.07568596 0.07600138 0.07632865 0.07667573 0.07707107 0.07748583
 0.07790641 0.07828935 0.07858314 0.07881644 0.078963 0.07916222 0.07945964 0.07993726 0.080656 0.0814411
 0.08227903 0.08299972 0.08358127 0.08402449 0.08432923 0.08454912 0.0846872 0.084795 0.08487122 0.08493993
 0.08498984 0.08499432 0.08494899 0.08482274 0.08463817 0.08441513 0.08417647 0.0839614 0.08375914 0.08357514
 0.08339266 0.08319898 0.08300547 0.08281213 0.08263479 0.08247881 0.08234341 0.08222876 0.08213694 0.08206792
 0.08202927 0.08202118 0.08203164 0.08205798 0.08206638 0.08205367 0.08198421 0.08185877 0.08165621 0.08139019
 0.08107419 0.08073697 0.08042983 0.0801691 0.07999846 0.07990159 0.07988302 0.07991593 0.07999262 0.08007643
 0.08015904 0.08018824 0.08014487 0.08002859 0.07982736 0.07962975 0.07944237 0.07933644 0.0793154 0.07935542
 0.07945475 0.07958289 0.07974547 0.07996457 0.08023565 0.08056151 0.08091966 0.08125912 0.08156696 0.08179531
 0.08195573 0.08203908 0.08207004 0.08206274 0.08203988 0.08201829 0.0820041 0.08200365 0.08201447 0.08203415
 0.08207768 0.08214647 0.08225794 0.08241623 0.08259344 0.08278813 0.08294696 0.08307036 0.08314847 0.08318581
 0.08320604 0.08320572 0.08318292 0.08313742 0.08305993 0.08297176 0.08290266 0.08286887 0.08290853 0.08300095
 0.08314594 0.08331278 0.08348261 0.08364709 0.08380084 0.08393486 0.08405024 0.08411694 0.08413038 0.08406935
 0.08392885 0.08373559 0.08349095 0.08326821 0.08307046 0.08296041 0.08293051 0.0829715 0.08306963 0.08316806
 0.08326856 0.08334671 0.08341081 0.083472 0.08351254 0.08352031 0.08347022 0.08333008 0.08311635 0.08282351
 0.08249074 0.0821349 0.08176353 0.08138244 0.08098547 0.08056914 0.08015636 0.0797487 0.07936966 0.07902054
 0.07867834 0.07833953 0.07795151 0.07751375 0.07699251 0.07639817 0.07574388 0.07505134 0.07437877 0.07373811
 0.07318357 0.07269192 0.07226136 0.07185844 0.07144985 0.07103716 0.07060742 0.07018682 0.06978426 0.06940904
 0.06906735 0.0687493 0.06845427 0.06817379 0.06790701 0.06764799 0.06739634</values></Ydata></AB><ScSm><Ydata ylabel="Single channel"><values byteorder="INTEL" format="FLOAT32" numvalues="1814"> 0.06667113 0.06667461 0.06673908 0.06688735 0.06709196 0.06728919 0.06742489 0.06749092 0.06750755 0.06748113
 0.0674141 0.0673558 0.06739312 0.06756436 0.06780331 0.06798402 0.06802178 0.0679484 0.06789573 0.06796766
 0.06810059 0.0680805 0.06774388 0.06716464 0.06660639 0.06627961 0.06621048 0.06639028 0.06690251 0.06768461
 0.06826162 0.06808488 0.06721856 0.06636918 0.06610209 0.06629986 0.0664916 0.06639959 0.06602745 0.06554978
 0.0653543 0.06593771 0.06741817 0.06913225 0.06987208 0.06864563 0.06538425 0.06116931 0.05783413 0.05698171
 0.05885631 0.06201781 0.06442209 0.06505157 0.06440436 0.06346388 0.06263641 0.06187851 0.06138631 0.0616318
 0.06271674 0.06393643 0.06414611 0.06274056 0.0603687 0.05846862 0.05795358 0.05863944 0.06001572 0.06180796
 0.06320231 0.06239126 0.05834464 0.05307235 0.05074037 0.05371306 0.06002969 0.06531835 0.06668866 0.06436772
 0.06044257 0.05712179 0.05589437 0.05713459 0.06003965 0.06329157 0.06585359 0.06702599 0.06627125 0.06367628
 0.06041278 0.05817557 0.05814227 0.06050672 0.06443654 0.06814949 0.06972022 0.06849987 0.06555307 0.06253774
 0.06060898 0.06041054 0.06224328 0.06575695 0.06992815 0.07364552 0.076161 0.07717247 0.0768915 0.07590723
 0.07473597 0.07373402 0.07341011 0.07411461 0.07521345 0.07532462 0.07381962 0.07166053 0.07040943 0.07061256
 0.07136402 0.07141031 0.07042049 0.06879567 0.06643739 0.06270267 0.05788598 0.05363689 0.05131543 0.05094459
 0.05217944 0.05484829 0.05781307 0.05889747 0.0572693 0.05496981 0.05489987 0.05772471 0.06152374 0.0641277
 0.06512706 0.06572369 0.06718588 0.06955403 0.07147574 0.07122444 0.06840491 0.06491849 0.06362312 0.06553436
 0.0688515 0.07117699 0.07204746 0.07269296 0.07387339 0.07469694 0.07354988 0.07001643 0.06591712 0.06418943
 0.06633151 0.07090066 0.07455778 0.07454322 0.07053517 0.06471755 0.06007412 0.05832727 0.0594723 0.06290592
 0.06809407 0.07398405 0.07873002 0.08072561 0.07977735 0.07700977 0.07358333 0.06962577 0.06483499 0.06024669
 0.05846515 0.06120925 0.0671223 0.07289864 0.07623581 0.07699434 0.07593018 0.07328862 0.06899088 0.06395026
 0.06051842 0.06067823 0.06366265 0.06636798 0.066596 0.06506751 0.06385238 0.06378707 0.06414076 0.06418073
 0.06421004 0.06502652 0.06677392 0.0686156 0.0695447 0.06930715 0.06845562 0.06770094 0.06726915 0.06674052
 0.06563914 0.06436701 0.06418245 0.06582598 0.06850342 0.07069993 0.0717065 0.07189302 0.07170728 0.07089716
 0.06888696 0.06586279 0.06323235 0.06259143 0.06418359 0.06673831 0.06879738 0.0697701 0.06980916 0.06929214
 0.06856284 0.06781251 0.06712623 0.06672458 0.06692025 0.06767436 0.06848159 0.06887791 0.06882706 0.06849869
 0.0679347 0.06710688 0.0661552 0.06540418 0.06513081 0.06535364 0.06586292 0.06641157 0.066808 0.06688599
 0.06656245 0.06595996 0.06533378 0.06484099 0.06448475 0.0642723 0.06427443 0.06448974 0.0647685 0.06493519
 0.06492889 0.06479007 0.06456524 0.0642717 0.06393173 0.06360526 0.06338069 0.06331722 0.06337739 0.06344754
 0.06346229 0.06346793 0.06351203 0.0635255 0.06339519 0.06312141 0.06282727 0.06262673 0.0625376 0.06250829
 0.06247177 0.06235839 0.06209971 0.06168462 0.06123067 0.06094216 0.06094573 0.06119315 0.06154126 0.06186688
 0.06208626 0.06215333 0.06209382 0.061985 0.06186546 0.06170435 0.06147518 0.06122737 0.06107194 0.06109723
 0.06128626 0.06152264 0.06169134 0.06175758 0.06174909 0.0617127 0.06169966 0.06173195 0.06176142 0.06171197
 0.06157751 0.0614406 0.06138597 0.06141803 0.06146306 0.06144592 0.06137009 0.06131334 0.06133538 0.06141321
 0.06148363 0.06151946 0.06154008 0.06156465 0.06157428 0.06152337 0.06139368 0.06123193 0.06111044 0.06105325
 0.06103026 0.06101961 0.06103627 0.06109161 0.06115657 0.06118309 0.06115248 0.06109123 0.06103574 0.06098776
 0.06091728 0.0608087 0.06068645 0.06058922 0.06053115 0.0604943 0.06045096 0.06038788 0.06031046 0.06022798
 0.06014046 0.06004069 0.05992139 0.05978161 0.05963858 0.05953071 0.05948875 0.05949662 0.05949462 0.05943171
 0.05931125 0.05918188 0.05908622 0.05902404 0.05896734 0.05890217 0.05884209 0.05880382 0.05878703 0.05878098
 0.0587771 0.0587718 0.05877215 0.05880453 0.05890142 0.05906486 0.05924994 0.05939983 0.05949679 0.05956919
 0.05965223 0.05975616 0.05987202 0.05999399 0.06013082 0.06029705 0.06048766 0.06066536 0.06079244 0.06087821
 0.06097213 0.0611072 0.06127506 0.06145672 0.06164241 0.06181464 0.06194859 0.06204672 0.06214663 0.06227837
 0.06243227 0.06258155 0.06271979 0.06286088 0.06301454 0.06318013 0.06336258 0.06357926 0.06384349 0.06414314
 0.06443816 0.06468485 0.06487328 0.06504524 0.06526652 0.06557183 0.06593542 0.06629505 0.06660458 0.06686623
 0.0671159 0.06738037 0.06765743 0.06794176 0.06825179 0.0686091 0.06899977 0.06938308 0.06973828 0.0700807
 0.07043065 0.07078759 0.07114136 0.0714937 0.07185806 0.07224208 0.07263455 0.0730111 0.07335348 0.07366487
 0.07396771 0.07428963 0.07464661 0.07502662 0.07538575 0.07567842 0.07590717 0.07613125 0.07640708 0.07672695
 0.07703795 0.07731518 0.07758786 0.07788947 0.07821204 0.07852553 0.0788217 0.07911828 0.079428 0.07973845
 0.08002008 0.08024865 0.08042525 0.08057877 0.08074452 0.0809429 0.08118356 0.08147613 0.08181626 0.08216697
 0.08247708 0.08272058 0.08290546 0.08305402 0.08319426 0.08335932 0.08356974 0.08381513 0.08406469 0.08428726
 0.08445954 0.08458132 0.08469668 0.08487168 0.08513027 0.08543444 0.08574337 0.08606316 0.08641531 0.08678562
 0.08714281 0.08749302 0.08787332 0.08828671 0.08867788 0.08898861 0.08921224 0.08938106 0.08952913 0.08969263
 0.0899207 0.09024629 0.09064831 0.09106769 0.09146027 0.0918181 0.09214626 0.09244169 0.09269807 0.0929175
 0.09310938 0.09328208 0.09344182 0.09360075 0.09377846 0.09398383 0.09419384 0.09436165 0.09445003 0.09444829
 0.09435627 0.09417365 0.09391865 0.09363807 0.09336913 0.09308974 0.09272738 0.09222312 0.09157385 0.09080915
 0.08994803 0.08899526 0.08797428 0.08694886 0.08600885 0.08523984 0.08470556 0.08444914 0.08449274 0.08482021
 0.08535719 0.08597867 0.08654504 0.08693439 0.08705348 0.08684653 0.08631647 0.0855331 0.08460484 0.08363558
 0.08270066 0.08184096 0.08106493 0.08037133 0.0797925 0.07941672 0.07936154 0.07973064 0.0805948 0.08198082
 0.08383855 0.0860095 0.08825395 0.09034135 0.09213996 0.09363952 0.0949074 0.09602964 0.09707462 0.09807625
 0.09903013 0.0999096 0.1006946 0.1013857 0.1019933 0.102521 0.1029594 0.1032901 0.1034993 0.1035948
 0.103608 0.1035783 0.1035447 0.1035492 0.1036233 0.1037537 0.103868 0.1038658 0.1036684 0.1032512
 0.1026566 0.1020056 0.1015111 0.1014651 0.102156 0.103715 0.1059985 0.1086306 0.1111927 0.113402
 0.1151619 0.1165089 0.1175438 0.1183782 0.1191 0.1197615 0.1203873 0.1209851 0.1215532 0.1220893
 0.1225972 0.1230862 0.1235669 0.1240458 0.1245182 0.1249698 0.1253938 0.1258047 0.1262276 0.1266741
 0.1271303 0.1275723 0.1279928 0.1284093 0.1288368 0.1292625 0.1296583 0.1300175 0.1303623 0.1307185
 0.1310993 0.1315056 0.1319225 0.1323181 0.1326661 0.1329709 0.1332621 0.1335647 0.1338826 0.1342087
 0.1345381 0.1348697 0.1352016 0.1355332 0.1358704 0.1362167 0.1365598 0.136874 0.1371456 0.1373907
 0.1376408 0.1379143 0.1382047 0.1384956 0.1387822 0.1390783 0.1394008 0.1397479 0.1400952 0.1404151
 0.1406995 0.1409651 0.1412369 0.1415276 0.1418325 0.1421396 0.1424404 0.1427318 0.1430161 0.1433007
 0.1435929 0.1438915 0.144188 0.144476 0.1447569 0.1450369 0.1453201 0.1456046 0.1458881 0.1461771
 0.1464839 0.1468088 0.1471319 0.1474304 0.1477021 0.1479634 0.1482287 0.1485001 0.1487746 0.1490524
 0.1493361 0.1496247 0.1499125 0.1501956 0.150477 0.1507627 0.1510547 0.1513501 0.151646 0.1519413
 0.152235 0.1525277 0.152822 0.1531197 0.1534179 0.1537108 0.1539945 0.1542698 0.1545419 0.1548156
 0.1550883 0.1553536 0.1556117 0.1558726 0.1561444 0.1564221 0.1566928 0.1569489 0.1571933 0.157436
 0.1576872 0.157953 0.158233 0.1585203 0.1588031 0.1590719 0.1593257 0.1595727 0.1598236 0.160085
 0.1603545 0.1606244 0.1608894 0.1611521 0.1614173 0.1616845 0.1619493 0.1622076 0.1624571 0.1627
 0.1629439 0.1631949 0.163451 0.1637076 0.163965 0.1642255 0.1644876 0.1647482 0.1650069 0.165265
 0.1655243 0.1657858 0.1660485 0.1663089 0.1665659 0.1668203 0.1670737 0.1673295 0.1675912 0.1678588
 0.1681275 0.168393 0.1686528 0.1689061 0.1691574 0.1694136 0.1696749 0.169933 0.1701808 0.1704179
 0.1706488 0.1708807 0.1711205 0.171367 0.1716143 0.171861 0.1721111 0.1723675 0.1726305 0.1728981
 0.1731642 0.1734234 0.1736775 0.1739327 0.1741933 0.1744629 0.1747401 0.1750143 0.1752769 0.1755336
 0.1757954 0.1760632 0.1763317 0.1765977 0.1768575 0.1771093 0.1773579 0.1776099 0.1778665 0.1781305
 0.1784052 0.1786832 0.17895 0.1792014 0.1794456 0.1796915 0.1799433 0.1801986 0.1804496 0.1806943
 0.1809399 0.181189 0.181435 0.1816784 0.1819268 0.1821795 0.1824295 0.1826782 0.1829304 0.1831857
 0.1834447 0.1837075 0.1839655 0.1842141 0.1844617 0.1847124 0.1849568 0.1851907 0.185418 0.1856259
 0.1857658 0.1857135 0.1851692 0.1835478 0.1799657 0.1734202 0.1631973 0.1493314 0.1327517 0.1149463
 0.09741473 0.08128688 0.06722356 0.05550929 0.04619646 0.03919825 0.03434929 0.03150722 0.03065651 0.03201271
 0.03614002 0.04362395 0.05380562 0.06364278 0.06888013 0.06740651 0.06127239 0.05481775 0.05105807 0.05021588
 0.05100694 0.05232821 0.05382834 0.05571081 0.05832827 0.06178524 0.06591611 0.07071111 0.07653014 0.08364664
 0.09168957 0.09979343 0.1073462 0.1144764 0.1217629 0.1295424 0.1375582 0.145213 0.1520455 0.1579634
 0.1631542 0.1678735 0.1722978 0.1765027 0.1805143 0.1843147 0.1877664 0.190582 0.1924598 0.1933128
 0.1933769 0.193082 0.1928015 0.192708 0.1928166 0.1930987 0.1935366 0.1941191 0.1948288 0.195634
 0.1964896 0.1973556 0.1982126 0.1990514 0.1998585 0.2006191 0.2013245 0.201973 0.2025692 0.2031203
 0.2036258 0.2040799 0.2044888 0.2048722 0.205244 0.2056035 0.2059463 0.2062711 0.2065745 0.2068526
 0.2071072 0.2073449 0.2075727 0.2077951 0.208014 0.2082304 0.20845 0.2086807 0.2089231 0.2091667
 0.2093984 0.209614 0.2098207 0.2100315 0.2102537 0.2104807 0.2106998 0.2109053 0.211101 0.2112937
 0.2114925 0.2117057 0.2119309 0.2121528 0.2123599 0.212557 0.2127582 0.2129712 0.2131911 0.2134067
 0.2136142 0.2138256 0.2140552 0.2143018 0.2145541 0.2148082 0.2150641 0.2153174 0.2155645 0.2158066
 0.2160366 0.2162366 0.2164015 0.2165551 0.2167344 0.2169611 0.2172249 0.2174926 0.2177366 0.217957
 0.2181699 0.2183835 0.2185933 0.2187919 0.2189829 0.2191912 0.219447 0.2197483 0.220057 0.220344
 0.2206134 0.2208761 0.221133 0.2213888 0.2216468 0.2218855 0.2220762 0.2222315 0.2224174 0.2227043
 0.2230988 0.2235254 0.2238941 0.2241829 0.2244366 0.2247038 0.2250051 0.2253173 0.2255468 0.225592
 0.2255037 0.2255156 0.2258296 0.226412 0.2270572 0.2275985 0.2280067 0.2283347 0.2286325 0.2288994
 0.2290858 0.2291482 0.229135 0.2292115 0.2295409 0.2301109 0.2307296 0.2312247 0.23158 0.2318555
 0.232084 0.2322782 0.2324027 0.2323122 0.2319026 0.2314012 0.2313131 0.2319316 0.2330026 0.2339923
 0.2346136 0.2349719 0.2352686 0.2355601 0.2358107 0.2359261 0.235632 0.2346313 0.2331606 0.2321492
 0.2324523 0.2339946 0.2359109 0.2374143 0.2382959 0.2387428 0.2390034 0.2392195 0.2393202 0.2390235
 0.2381536 0.2370702 0.2365802 0.2371916 0.2385419 0.2397898 0.2404765 0.2407676 0.2409994 0.241299
 0.2414988 0.2410999 0.239554 0.237073 0.2350363 0.2350249 0.2372762 0.2403973 0.2427454 0.2438441
 0.2442543 0.2443575 0.24379 0.242088 0.2393828 0.2363492 0.2339799 0.2334273 0.2352413 0.2384407
 0.2410753 0.2421436 0.2424347 0.243234 0.2447922 0.246343 0.2470997 0.2468596 0.2458651 0.2443732
 0.242532 0.2407799 0.2400914 0.2412924 0.2440547 0.247006 0.2489996 0.2499884 0.2504267 0.2499314
 0.2470122 0.2408609 0.2335938 0.2296769 0.2319901 0.2388173 0.2456905 0.2497854 0.2514783 0.2522575
 0.252718 0.2523905 0.2500246 0.2442839 0.2358622 0.2287984 0.2277447 0.2333693 0.2415981 0.2474105
 0.2482521 0.2443036 0.2375884 0.2313807 0.228872 0.231232 0.2370898 0.2438963 0.2494613 0.2525503
 0.2528699 0.2509564 0.2481408 0.2462234 0.2461727 0.2467007 0.2452353 0.2411667 0.2368596 0.2341866
 0.2316406 0.2271357 0.2225769 0.2226071 0.228567 0.2362517 0.2406245 0.2409182 0.2397676 0.2384289
 0.234667 0.2259973 0.2143863 0.2063633 0.2073036 0.2158544 0.2251393 0.2294777 0.2288996 0.227164
 0.2267254 0.2262282 0.2224443 0.2144903 0.2059594 0.2019165 0.2035411 0.2070772 0.2082978 0.2059238
 0.2001895 0.1914113 0.1823027 0.1788881 0.1854334 0.1992058 0.2125942 0.2193884 0.217106 0.2056384
 0.187983 0.1719203 0.1662719 0.1730754 0.1851462 0.1926819 0.191075 0.1818001 0.1681767 0.1529869
 0.139698 0.1329757 0.135898 0.1467911 0.1593599 0.1659459 0.1617826 0.1485775 0.1346206 0.1288597
 0.1329247 0.1400854 0.1428057 0.139562 0.1338804 0.1296359 0.1287281 0.1308733 0.1339964 0.1361336
 0.1370343 0.1361755 0.1306167 0.1185623 0.1044287 0.09604701 0.09649576 0.1024298 0.1103546 0.1197858
 0.129131 0.1335162 0.1302538 0.1239516 0.1226477 0.1292841 0.1391164 0.145443 0.1462226 0.1445465
 0.1438025 0.1439768 0.1433216 0.1423884 0.1442194 0.1501659 0.1575284 0.1625549 0.1643502 0.1645788
 0.1646173 0.16451 0.1639247 0.1627561 0.1610538 0.159123 0.1574426 0.1561162 0.1547684 0.1531054
 0.1509206 0.147304 0.1408506 0.1317144 0.1229001 0.117951 0.1172563 0.1182147 0.1190537 0.1199482
 0.1195786 0.1139931 0.1017946 0.08855845 0.08281686 0.08782414 0.09912913 0.1097006 0.1153311 0.1150435
 0.1090194 0.0988066 0.08916415 0.0866199 0.09414162 0.1082852 0.122915 0.1344816 0.1423662 0.1459733
 0.1442893 0.1382111 0.1314231 0.1283225 0.1314084 0.1401522 0.1510395 0.1583298 0.1568726 0.1473186
 0.1385852 0.1412582 0.1563382 0.1734171 0.1823525 0.1835984 0.1840145 0.1861864 0.1871581 0.1860986
 0.1873379 0.1944247 0.2048512 0.2124935 0.2129863 0.2054388 0.1917868 0.1771435 0.1685112 0.1692891
 0.1755618 0.1804557 0.1808496 0.1770648 0.1687963 0.1566845 0.1465865 0.1461099 0.1557903 0.1679618
 0.1754883 0.1783023 0.1802628 0.1824982 0.1820494 0.1763732 0.1675476 0.1609928 0.1600984 0.1632464
 0.1665696 0.1680432 0.1675674 0.1646802 0.1588223 0.1518568 0.1481134 0.1506772 0.1582417 0.1663483
 0.1713912 0.1729111 0.1725647 0.1719585 0.1715252 0.1706736 0.168934 0.1674269 0.168628 0.1736733
 0.1804526 0.1857188 0.1887869 0.1917823 0.1963265 0.2013088 0.2042436 0.2040114 0.2019701 0.2008128
 0.2024172 0.206338 0.2101191 0.2113747 0.2100427 0.2086359 0.2099128 0.2142216 0.2194387 0.2233557
 0.2254804 0.2265847 0.2273984 0.2279855 0.2277178 0.225764 0.2223098 0.2192929 0.2190655 0.2220711
 0.2264036 0.2297492 0.2312389 0.2313633 0.2307529 0.2295159 0.2275943 0.2253474 0.223542 0.2227903
 0.2231389 0.224216 0.2256053 0.2270183 0.2282896 0.2293695 0.2302892 0.2310778 0.2317447 0.2323272
 0.2328675 0.2333346 0.2336623 0.2338937 0.2341972 0.2346752 0.2352198 0.2356206 0.2357555 0.2355931
 0.235072 0.2341153 0.2327635 0.2311715 0.2294363 0.227534 0.2255248 0.223781 0.2228845 0.2232045
 0.2245674 0.2263697 0.2280031 0.2291656 0.2298564 0.2302161 0.2304129 0.2305906 0.2308272 0.2311233
 0.2314427 0.2317666 0.2321029 0.2324529 0.2327944 0.2331118 0.2334315 0.2338022 0.2342404 0.2347067
 0.2351337 0.235472 0.2357164 0.235898 0.2360439 0.2361386 0.2361282 0.2359623 0.2356317 0.2351706
 0.2346368 0.2340816 0.2335195 0.2329113 0.2321876 0.2312948 0.2302039 0.2288839 0.2273143 0.2255489
 0.2237244 0.2219634 0.2202874 0.2186432 0.2169778 0.215258 0.2134554 0.2115571 0.2095872 0.207597
 0.2056321 0.2037147 0.2018493 0.20004 0.198296 0.1966183 0.1949849 0.1933561 0.1916933 0.1899631
 0.1881212 0.1860912 0.1837693 0.1810572 0.1778934 0.1742578 0.1701687 0.1656984 0.1609857 0.1562156
 0.1515746 0.1472099 0.1432124 0.139633 0.136515 0.133906 0.1318419 0.1303386 0.1294068 0.1290618
 0.1293118 0.1301368 0.1314703 0.1331937 0.1351555 0.1372015 0.139194 0.1410291 0.1426658 0.1441474
 0.1455785 0.1470609 0.1486338 0.1502662 0.1519023 0.1534983 0.1550072 0.1563531 0.1574566 0.1582902
 0.1588922 0.1593361 0.1596937 0.1600129 0.16031 0.1605813 0.1608226 0.1610416 0.1612616 0.1615157
 0.1618237 0.1621789 0.1625695 0.1630087 0.1635281 0.1641466 0.1648623 0.1656694 0.1665744 0.1675926
 0.1687303 0.1699843 0.1713656 0.1729097 0.1746429 0.176548 0.178575 0.1806666 0.1827543 0.1847472
 0.1865478 0.1880866 0.189346 0.1903639 0.1912121 0.1919589 0.1926441 0.1932807 0.1938741 0.1944398
 0.1950032 0.1955683 0.1960948 0.1965229 0.1968177 0.1969765 0.1970153 0.1969689 0.1968863 0.1968047
 0.1967378 0.1966915 0.1966703 0.1966658 0.1966585 0.1966309 0.1965715 0.19647 0.1963202 0.1961224
 0.1958782 0.1955811 0.1952085 0.194725 0.1941044 0.1933485 0.1924787 0.1915199 0.1904918 0.1893969
 0.1882104 0.1869021 0.1854703 0.1839402 0.1823347 0.1806622 0.178925 0.1771276 0.1752901 0.1734575
 0.1716831 0.169993 0.1683755 0.1668031 0.1652623 0.1637638 0.1623255 0.1609466 0.1596077 0.1582997
 0.1570375 0.1558411 0.1547214 0.1536826 0.1527235 0.1518402 0.1510398 0.1503382 0.1497309 0.1491844
 0.1486693 0.1481911 0.1477819 0.1474729 0.1472714 0.1471497 0.1470542 0.1469341 0.1467649 0.1465555
 0.146337 0.1461363 0.1459567 0.1457889 0.1456251 0.1454407 0.1451724 0.1447358 0.1440594 0.1430974
 0.1418359 0.1403065 0.1385848 0.1367702 0.1349689 0.1332803 0.131781 0.1305206 0.1295195 0.1287489
 0.1281327 0.1276032 0.1271542 0.126829 0.1266668 0.1266534 0.1266925 0.1266484 0.1264694 0.1262632
 0.1262093 0.1264031 0.1267965 0.1272579 0.127667 0.127974 0.1281931 0.1283519 0.128464 0.1285398
 0.1285827 0.12857 0.1284686 0.1282654 0.1279683 0.1275962 0.1271744 0.126716 0.1262074 0.1256314
 0.1249865 0.1242719 0.1234851 0.1226316 0.1216977 0.1206472 0.1195112 0.1184612 0.1177354 0.1174956
 0.1177447 0.1183311 0.1190441 0.1197499 0.120391 0.1208342 0.1208872 0.1206195 0.1205486 0.1212749
 0.1228881 0.1248466 0.1264682 0.1274334 0.1277911 0.1276592 0.1270899 0.1261237 0.1247806 0.1230285
 0.1208763 0.1184389 0.1158488 0.1132068 0.1106431 0.1082966 0.1062403 0.1045054 0.1031191 0.1021353
 0.1016547 0.1013396 0.09960516 0.09445695 0.08656648 0.08063002 0.08142674 0.08844694 0.09625055 0.1002217
 0.1002452 0.09878476 0.09753489 0.09675927 0.09638061 0.09650709 0.09722379 0.09839831 0.09969319 0.1007509
 0.1014235 0.101757 0.1017332 0.101061 0.09913744 0.095263 0.08920562 0.08168806 0.07413508 0.06784447
 0.06342065 0.06079167 0.05946875 0.05883005 0.05843672 0.05823593 0.05846876 0.05937714 0.06099238 0.06317048
 0.06574185 0.06852067 0.07120998 0.07349096 0.07526709 0.07668255 0.07785799 0.07873361 0.07918896 0.07919464
 0.07882552 0.07821511 0.07751076 0.0768072 0.07608823 0.0752558 0.07426886 0.07327154 0.0725196 0.07213988
 0.07202952 0.0720184 0.07203056 0.07205448 0.07206791 0.07204527 0.07198559 0.07193263 0.07198827 0.07224271
 0.07265706 0.07307709 0.07337913 0.07355776 0.07368249 0.07378562 0.07376692 0.0734687 0.07292661 0.07241644
 0.07208657 0.07169202 0.07093284 0.06995434 0.06926115 0.06917095 0.0695381 0.06998132 0.07021812 0.0701905
 0.07004406 0.07005808 0.07045689 0.07114467</values></Ydata></ScSm><ScRf><Ydata ylabel="Single channel"><values byteorder="INTEL" format="FLOAT32" numvalues="1820"> 0.0607179 0.06087402 0.06097163 0.06100922 0.06100835 0.0610121 0.06107045 0.06120808 0.06140102 0.061588
 0.0617151 0.06177347 0.06178465 0.06175782 0.06169404 0.06163417 0.06165659 0.06180043 0.06200989 0.06217128
 0.0622061 0.06214197 0.06209724 0.06216412 0.06228299 0.06226004 0.06195028 0.06142461 0.06092236 0.06062911
 0.06056176 0.06071191 0.06116445 0.06187257 0.06240269 0.06224266 0.06144281 0.06065385 0.0604032 0.06058636
 0.06076782 0.06068945 0.06035318 0.05991779 0.05974013 0.06028146 0.06165248 0.06323537 0.06390602 0.06274617
 0.05970192 0.05578612 0.05269878 0.05191496 0.05364954 0.05656605 0.05877732 0.05934919 0.05875091 0.05789903
 0.0571666 0.05649754 0.05605568 0.05627392 0.05725703 0.05836362 0.05853676 0.05721697 0.05501017 0.05325215
 0.05278534 0.05343226 0.05471564 0.05637769 0.05766079 0.05689454 0.05313966 0.04827043 0.04614104 0.04892422
 0.0547903 0.05968647 0.0609379 0.05876327 0.05511229 0.05204463 0.05093245 0.05209618 0.05477386 0.05775235
 0.06009198 0.06115654 0.06044935 0.05804992 0.05504044 0.05298273 0.05295995 0.05514901 0.05877938 0.06220452
 0.0636517 0.06252922 0.0598192 0.0570429 0.05525987 0.05506583 0.05674379 0.05997612 0.06382386 0.0672635
 0.06959908 0.07054238 0.07028593 0.06938156 0.06831615 0.06741846 0.06714508 0.06780509 0.06881075 0.06889708
 0.06749711 0.0655039 0.06435521 0.06454839 0.06524327 0.06528278 0.06436358 0.06285851 0.06067979 0.05723803
 0.05280718 0.04890421 0.04677361 0.04643438 0.04758065 0.0500656 0.05283382 0.05386317 0.05238108 0.05027474
 0.05021998 0.05282409 0.056314 0.058698 0.059613 0.06017704 0.06155636 0.06377346 0.06556527 0.06533226
 0.06271703 0.05949458 0.05832202 0.0601345 0.06324691 0.06543054 0.06626765 0.06691211 0.06806451 0.06888087
 0.06785729 0.06462446 0.06089361 0.05938699 0.06146319 0.06575677 0.06916991 0.06915805 0.06544092 0.06006647
 0.05581957 0.05429479 0.0554769 0.05881196 0.0638188 0.06951523 0.0741569 0.07621142 0.07546772 0.07296696
 0.06980961 0.06613264 0.06166555 0.05741664 0.05589486 0.0587483 0.06465906 0.0704347 0.07385293 0.07477649
 0.07392676 0.07152156 0.06747033 0.06268628 0.05952242 0.0599483 0.06317332 0.06608698 0.06650947 0.06518242
 0.06417908 0.06432547 0.06488237 0.06512687 0.06539188 0.06649911 0.06857944 0.07075049 0.0719614 0.07194498
 0.07127918 0.07071856 0.07050572 0.07018811 0.06926115 0.06817374 0.0682778 0.07034122 0.07348675 0.07609266
 0.07742145 0.07788778 0.07796484 0.07734564 0.07537787 0.07228063 0.06964216 0.06924255 0.07133462 0.07448283
 0.07705474 0.07839715 0.07869402 0.07837769 0.07783055 0.07725924 0.0767623 0.07660022 0.07712904 0.07829221
 0.07950179 0.08022569 0.08042464 0.08029079 0.07986937 0.07913622 0.07826965 0.07765281 0.07759991 0.07812471
 0.07898331 0.07988854 0.0806119 0.08095223 0.08080978 0.08033307 0.07983014 0.07948832 0.07930888 0.07930429
 0.07956669 0.08008926 0.08067381 0.0810969 0.08128873 0.08130987 0.08122894 0.08107354 0.08086537 0.08066944
 0.08060052 0.08074464 0.08105155 0.08136254 0.0815908 0.08180584 0.08207431 0.08229839 0.08231788 0.08212969
 0.08190711 0.08181401 0.08187178 0.08199892 0.08210318 0.08210181 0.08191371 0.08152982 0.08110857 0.08091505
 0.0811087 0.08163022 0.0823011 0.08295111 0.08344337 0.08369911 0.08375634 0.08372997 0.0836789 0.0835652
 0.08335599 0.08312165 0.08301909 0.08317907 0.08359098 0.08409862 0.08452427 0.08478326 0.08489116 0.08492813
 0.08500466 0.08517666 0.08536618 0.08543634 0.08536521 0.08528224 0.08531331 0.08543882 0.08552855 0.0854957
 0.08539788 0.08537893 0.0855167 0.08575169 0.0859726 0.08614087 0.08630819 0.08652207 0.08673221 0.08681177
 0.08669391 0.08646834 0.08629555 0.08623913 0.08624598 0.08628179 0.08639578 0.08661854 0.08686657 0.08701114
 0.08702242 0.08699659 0.08703227 0.08711218 0.08713046 0.08701969 0.08682254 0.08664507 0.08656814 0.08660277
 0.08669864 0.08677962 0.08678786 0.08671521 0.08659857 0.08648215 0.08638692 0.08632459 0.08633454 0.08647107
 0.08672391 0.08696814 0.08703969 0.08688323 0.08661233 0.08640626 0.08634713 0.08636162 0.08631373 0.08613765
 0.0858781 0.08562507 0.08543438 0.08530507 0.08520584 0.08511414 0.08504687 0.08505821 0.08518291 0.08536415
 0.08546264 0.08537209 0.08512095 0.08483936 0.08463958 0.08454937 0.08453272 0.08453575 0.08452974 0.08453885
 0.08460389 0.08470085 0.08473891 0.08466817 0.08454845 0.08448772 0.08455122 0.08473641 0.08497678 0.085155
 0.0851769 0.08506572 0.08494487 0.08491108 0.08495814 0.08502993 0.08510078 0.0851808 0.08527639 0.08538111
 0.08550036 0.08566058 0.0858831 0.08615195 0.08641106 0.08659972 0.08670378 0.08677956 0.08691874 0.08717449
 0.0875145 0.08784762 0.08810101 0.08827654 0.08843334 0.08861755 0.08882272 0.08902729 0.08924718 0.08951969
 0.08984467 0.0901767 0.09047786 0.0907526 0.09102778 0.09131899 0.09162399 0.09194347 0.09230123 0.09272476
 0.09318811 0.09359439 0.09385239 0.09397233 0.09406445 0.09424817 0.09456852 0.09496958 0.09532513 0.0955319
 0.09561191 0.09569905 0.09589271 0.09615536 0.09639323 0.09660468 0.09688701 0.09729934 0.09777074 0.09816512
 0.09841374 0.09856735 0.09872609 0.09892958 0.09912436 0.09924284 0.09929693 0.09936459 0.09949385 0.09966914
 0.09988233 0.1001767 0.1005779 0.1010236 0.1014115 0.1016956 0.101898 0.1020512 0.1021694 0.1022551
 0.102303 0.1023151 0.1023283 0.102394 0.102509 0.1026071 0.1026447 0.1026601 0.1027223 0.10286
 0.1030674 0.1033395 0.1036594 0.1039766 0.1042531 0.1045234 0.1048578 0.1052494 0.1055847 0.1057604
 0.1057953 0.105787 0.1057929 0.1058108 0.105857 0.1059898 0.1062405 0.106572 0.106926 0.1072792
 0.1076348 0.1079843 0.1082935 0.1085176 0.1086264 0.1086284 0.1085801 0.1085693 0.1086736 0.1089171
 0.1092536 0.1095992 0.1098859 0.1100812 0.110168 0.1101432 0.110058 0.110025 0.1101325 0.1103445
 0.1105158 0.1105133 0.1103028 0.1099214 0.1094072 0.1087833 0.1080939 0.107422 0.1068582 0.106455
 0.1062258 0.1061869 0.106381 0.1068305 0.1074748 0.1081849 0.1088434 0.1093761 0.109706 0.1097357
 0.1094186 0.1088209 0.1080833 0.1073339 0.1066468 0.1060403 0.1054818 0.1049277 0.104408 0.1040688
 0.1041064 0.1046501 0.1056958 0.107109 0.1086665 0.1101305 0.111346 0.1122989 0.1130799 0.1137863
 0.114462 0.1151193 0.1157792 0.1164548 0.1171118 0.1176908 0.1181741 0.1186003 0.1190088 0.1193965
 0.1197335 0.1199992 0.1202043 0.1203895 0.1205881 0.1207765 0.1208854 0.1208782 0.120794 0.1206924
 0.1205824 0.1204215 0.1201646 0.1197984 0.1193608 0.1189623 0.1187805 0.1189934 0.119675 0.1207413
 0.1220108 0.1233232 0.1245892 0.1257394 0.1266857 0.1273681 0.1278148 0.1281217 0.1283829 0.1286525
 0.1289483 0.1292628 0.1295773 0.1298777 0.1301641 0.13045 0.1307566 0.1310945 0.1314415 0.131751
 0.1319998 0.132222 0.1324857 0.1328307 0.1332296 0.1336138 0.1339451 0.1342492 0.1345624 0.1348649
 0.1351015 0.1352618 0.1354048 0.1356029 0.1358891 0.1362512 0.1366402 0.1369864 0.1372421 0.1374205
 0.1375799 0.1377686 0.1379958 0.1382463 0.138504 0.1387591 0.1390094 0.1392648 0.1395441 0.1398515
 0.1401519 0.1403888 0.1405411 0.1406555 0.140805 0.1410185 0.1412632 0.141491 0.1416923 0.1419046
 0.1421701 0.1424848 0.1427914 0.1430288 0.1431862 0.1433046 0.1434323 0.1435909 0.1437777 0.1439837
 0.1441996 0.144414 0.1446192 0.1448192 0.1450259 0.1452448 0.1454684 0.1456861 0.1458959 0.1461033
 0.1463124 0.1465236 0.1467393 0.1469733 0.1472433 0.1475456 0.1478427 0.1480881 0.1482658 0.1483977
 0.1485169 0.1486457 0.148796 0.1489745 0.1491784 0.1493946 0.1496097 0.1498182 0.1500212 0.1502193
 0.1504116 0.1506021 0.1508 0.1510102 0.1512299 0.1514558 0.151688 0.1519213 0.1521412 0.1523374
 0.1525166 0.1526975 0.1528941 0.1531033 0.1533087 0.1534974 0.1536738 0.1538543 0.1540469 0.1542444
 0.1544363 0.1546227 0.1548108 0.1550044 0.155201 0.1553967 0.1555913 0.1557861 0.1559815 0.1561789
 0.1563811 0.1565866 0.1567885 0.1569828 0.1571743 0.1573681 0.1575619 0.1577519 0.1579434 0.1581469
 0.1583659 0.1585913 0.1588084 0.1590093 0.1591974 0.1593805 0.1595636 0.1597491 0.1599405 0.1601412
 0.1603506 0.1605624 0.1607679 0.1609648 0.1611622 0.1613713 0.1615907 0.1618076 0.1620149 0.162218
 0.1624269 0.1626473 0.1628781 0.1631122 0.1633406 0.16356 0.1637729 0.1639803 0.1641795 0.1643668
 0.1645425 0.1647135 0.1648891 0.1650723 0.1652591 0.1654464 0.1656346 0.1658206 0.1660001 0.1661753
 0.1663533 0.1665384 0.1667306 0.1669279 0.1671269 0.1673266 0.1675321 0.1677462 0.1679623 0.1681732
 0.1683805 0.1685899 0.1688036 0.1690193 0.1692317 0.1694366 0.1696368 0.1698376 0.1700389 0.1702398
 0.1704462 0.170663 0.1708858 0.1711079 0.1713277 0.1715428 0.1717488 0.1719451 0.1721368 0.1723315
 0.1725373 0.1727568 0.1729827 0.1732066 0.1734265 0.1736393 0.1738394 0.1740318 0.1742304 0.1744427
 0.1746668 0.1748979 0.1751256 0.1753376 0.1755336 0.1757252 0.1759214 0.1761268 0.1763434 0.1765625
 0.176773 0.1769802 0.1771953 0.1774025 0.177545 0.1774937 0.1769547 0.175364 0.1718746 0.16553
 0.1556548 0.1422935 0.1263439 0.1092335 0.09239792 0.07691903 0.06342985 0.05220057 0.04327682 0.03657174
 0.0319263 0.02920328 0.02838612 0.02968415 0.03364596 0.04083332 0.05059941 0.06000996 0.0649866 0.06352763
 0.05762308 0.05144139 0.04786281 0.04708286 0.04785765 0.04912633 0.05055513 0.05234484 0.05483911 0.05814151
 0.06209484 0.06669069 0.07227227 0.07909536 0.0867998 0.09456021 0.1017985 0.1086395 0.1156302 0.1230847
 0.1307547 0.1380726 0.1446034 0.1502635 0.1552321 0.1597503 0.1639829 0.1680019 0.1718393 0.1754877
 0.1788185 0.1815455 0.1833616 0.1841743 0.1842196 0.1839277 0.1836654 0.183589 0.1836974 0.183956
 0.1843529 0.1848862 0.1855457 0.1863046 0.1871237 0.1879686 0.1888189 0.1896542 0.1904473 0.1911814
 0.1918581 0.1924835 0.1930581 0.1935825 0.1940606 0.194498 0.1949022 0.1952797 0.1956335 0.1959684
 0.1962945 0.1966164 0.1969257 0.1972122 0.1974741 0.1977152 0.1979425 0.1981668 0.1983952 0.1986233
 0.1988402 0.1990399 0.1992258 0.1994081 0.1995983 0.1998012 0.2000107 0.2002187 0.2004216 0.2006181
 0.2008062 0.200986 0.201162 0.2013405 0.2015288 0.2017317 0.2019459 0.2021616 0.2023694 0.2025647
 0.2027481 0.2029275 0.2031132 0.2033082 0.2035109 0.2037254 0.2039553 0.2041895 0.2044103 0.2046146
 0.2048139 0.2050164 0.2052249 0.2054404 0.205654 0.2058437 0.2059956 0.2061269 0.2062772 0.2064767
 0.2067197 0.2069704 0.2071974 0.2073993 0.2075932 0.2077865 0.2079704 0.2081338 0.2082821 0.2084457
 0.2086619 0.2089337 0.2092235 0.2094946 0.2097415 0.2099707 0.2101871 0.2104025 0.2106252 0.2108342
 0.2109975 0.2111242 0.211278 0.2115266 0.2118752 0.212254 0.2125787 0.2128249 0.2130314 0.2132515
 0.2135158 0.2138033 0.214014 0.2140394 0.2139236 0.2138949 0.2141569 0.2146872 0.2152914 0.2158048
 0.2161917 0.216497 0.2167634 0.2169869 0.2171211 0.2171319 0.2170739 0.2171061 0.2173786 0.2178775
 0.2184256 0.2188645 0.2191791 0.2194231 0.2196243 0.2197908 0.219887 0.2197743 0.2193558 0.2188486
 0.2187322 0.2192817 0.2202553 0.2211553 0.2217235 0.2220649 0.2223599 0.2226427 0.2228649 0.2229339
 0.2225986 0.2215975 0.2201765 0.2192252 0.2195394 0.221019 0.2228281 0.2242306 0.2250489 0.2254688
 0.2257217 0.2259359 0.2260391 0.2257573 0.2249215 0.2238792 0.2234088 0.2240012 0.2253092 0.2265188
 0.2271797 0.2274473 0.2276506 0.2279207 0.2281037 0.2277233 0.2262515 0.223884 0.2219346 0.221916
 0.2240649 0.2270608 0.229332 0.2304072 0.2308057 0.2308884 0.2303174 0.2286687 0.226087 0.2232237
 0.2210129 0.2205295 0.2222822 0.2253345 0.2278359 0.2288414 0.2291097 0.2298722 0.2313743 0.232884
 0.2336357 0.2334212 0.2324707 0.2310399 0.2292808 0.2276169 0.2269756 0.2281348 0.230776 0.2335947
 0.2355014 0.2364478 0.2368666 0.2364011 0.2336377 0.2278033 0.2209094 0.2172097 0.2194472 0.2259826
 0.2325544 0.2364731 0.2381075 0.2388848 0.239368 0.239097 0.2368719 0.2314198 0.2234078 0.2166944
 0.2157188 0.2211135 0.2289905 0.2345664 0.2354075 0.2316825 0.2253204 0.2194474 0.2171082 0.2194226
 0.2250927 0.231683 0.2370803 0.2400895 0.2404318 0.2386288 0.2359684 0.234197 0.2342514 0.2348794
 0.2335936 0.2298046 0.2257843 0.2233324 0.2210092 0.2168185 0.2125891 0.2127783 0.2186704 0.2262171
 0.2305764 0.2310234 0.2300978 0.2289949 0.2255459 0.2173516 0.2063204 0.1987831 0.1999554 0.2085133
 0.2177673 0.2222153 0.2219237 0.220574 0.2205613 0.2205496 0.2173489 0.2100697 0.202262 0.1989417
 0.2012641 0.2054977 0.2074589 0.205856 0.2008457 0.192694 0.184176 0.1814659 0.1889519 0.2038871
 0.2185192 0.226467 0.225092 0.2141611 0.1967476 0.1810734 0.1765143 0.1852169 0.199489 0.2088633
 0.2084133 0.1996694 0.1861371 0.1708673 0.1578645 0.1526061 0.1587943 0.1745762 0.1924875 0.2031597
 0.2005363 0.1866045 0.1718279 0.1676339 0.17601 0.1880938 0.1940668 0.1920491 0.1867856 0.1835555
 0.1851148 0.1911108 0.1984601 0.2042784 0.2081943 0.2090984 0.2020512 0.1842188 0.1627375 0.1499988
 0.1507844 0.1598574 0.1718615 0.1861158 0.2001014 0.2061866 0.2002273 0.1893964 0.1860446 0.1945877
 0.2077412 0.2154253 0.2147347 0.2104464 0.2076777 0.2064591 0.2042706 0.2019107 0.2037137 0.2115491
 0.2215373 0.2283798 0.2308761 0.2314313 0.231991 0.232568 0.2326182 0.2319354 0.2305837 0.2290397
 0.2280412 0.2277573 0.2276303 0.2272143 0.2261644 0.222984 0.215347 0.2033704 0.1916816 0.1857426
 0.1860604 0.1885893 0.1907533 0.1929455 0.1929107 0.1841591 0.1645338 0.1432486 0.1341755 0.1424339
 0.1605811 0.1771108 0.1852714 0.1836429 0.1727098 0.1550846 0.1382418 0.1321411 0.1410863 0.1596018
 0.1782935 0.1919315 0.1999725 0.202051 0.1970466 0.1863185 0.1749462 0.1688017 0.1709991 0.1805582
 0.1927046 0.2000547 0.1962464 0.1822986 0.1693777 0.1705168 0.1869236 0.2059323 0.2152386 0.2153389
 0.2144529 0.2157414 0.215785 0.2136265 0.2143492 0.2221547 0.2342152 0.2434623 0.2447947 0.2371053
 0.2226212 0.207373 0.1996025 0.2031243 0.2129222 0.2205363 0.2222019 0.218358 0.2086841 0.1941626
 0.1823068 0.1826475 0.1957054 0.2117619 0.2218997 0.2261224 0.2292942 0.2327509 0.232664 0.2258231
 0.2149877 0.2071867 0.2067838 0.2116834 0.2169148 0.2198697 0.2203498 0.2176249 0.2108854 0.2026134
 0.1986033 0.2029427 0.2137678 0.2249682 0.2316174 0.2330557 0.2314952 0.2291356 0.2266684 0.2234322
 0.2188869 0.2145335 0.2136227 0.217688 0.22412 0.2288578 0.2310411 0.233288 0.2375644 0.2424615
 0.2449055 0.2435146 0.2399161 0.2373288 0.2379848 0.2413657 0.2445925 0.2448742 0.2421553 0.2394161
 0.2399298 0.2441375 0.2495826 0.2537076 0.2559422 0.2571695 0.2582173 0.259132 0.2591401 0.2572271
 0.2535672 0.2503608 0.250277 0.253811 0.2588178 0.2627384 0.26467 0.2652194 0.2650965 0.2643704
 0.2628873 0.2609457 0.2593117 0.2586146 0.2588958 0.2597631 0.2607983 0.2617373 0.2624506 0.2629299
 0.2632519 0.2634803 0.2636327 0.2637379 0.2638279 0.2638584 0.2637534 0.2635695 0.2635115 0.263712
 0.264066 0.2643499 0.2644238 0.2642342 0.2636975 0.2627352 0.2614181 0.2599393 0.258402 0.2567486
 0.2550099 0.253583 0.253116 0.2540148 0.2560613 0.2585458 0.2607601 0.2623549 0.2633267 0.2638262
 0.2640295 0.2640898 0.2640976 0.2640618 0.2639482 0.2637382 0.263445 0.2630904 0.2626911 0.2622758
 0.2618951 0.2615907 0.2613522 0.2611178 0.2608163 0.2604049 0.2598858 0.2593051 0.2587221 0.258153
 0.2575472 0.2568308 0.2559739 0.2550154 0.2540402 0.2531328 0.252327 0.2515862 0.2508421 0.2500467
 0.2491724 0.2481828 0.24706 0.2458734 0.2447753 0.2438854 0.2431909 0.2425717 0.241904 0.2411232
 0.2402261 0.2392521 0.238253 0.2372522 0.2362307 0.2351536 0.2339938 0.23273 0.2313514 0.2298737
 0.2283301 0.2267433 0.2251237 0.2234822 0.2218101 0.2200435 0.2180657 0.2157459 0.2129671 0.2096406
 0.2057324 0.201297 0.1964881 0.1915237 0.1866225 0.1819534 0.1776304 0.1737404 0.1703652 0.1675825
 0.1654567 0.1640282 0.1633108 0.1632996 0.1639789 0.165316 0.1672479 0.1696743 0.1724603 0.1754426
 0.1784396 0.1812814 0.1838671 0.1862121 0.1884131 0.190537 0.1925535 0.194391 0.196025 0.1974758
 0.1987461 0.199811 0.2006647 0.2013433 0.2018981 0.2023672 0.2027739 0.2031358 0.2034621 0.2037489
 0.2039876 0.2041834 0.2043565 0.2045271 0.2047063 0.2049037 0.2051339 0.2054189 0.2057834 0.2062373
 0.2067606 0.2073181 0.2078913 0.2084837 0.2091013 0.2097507 0.2104584 0.2112738 0.2122402 0.2133676
 0.2146309 0.2159846 0.2173699 0.2187084 0.2199078 0.220894 0.2216389 0.2221511 0.2224509 0.2225621
 0.2225139 0.2223343 0.222044 0.2216595 0.2211939 0.2206564 0.2200581 0.2194167 0.2187477 0.2180572
 0.217351 0.2166452 0.2159572 0.2152911 0.2146375 0.2139901 0.2133559 0.2127418 0.2121388 0.2115319
 0.2109231 0.210329 0.209756 0.2091917 0.2086202 0.2080254 0.2073792 0.2066478 0.2058186 0.2049049
 0.2039167 0.20284 0.2016573 0.2003757 0.1990176 0.1975899 0.1960813 0.1944887 0.1928286 0.1911114
 0.1893147 0.1874032 0.1853849 0.183338 0.1813647 0.1795229 0.1778124 0.1762133 0.1747133 0.1733042
 0.1719744 0.170711 0.1694998 0.1683286 0.1671975 0.1661206 0.1651122 0.164175 0.1633048 0.1625065
 0.1617981 0.1611906 0.1606684 0.1602029 0.1597808 0.1594084 0.1591015 0.1588875 0.1587958 0.1588167
 0.1588849 0.1589216 0.1588846 0.1587778 0.1586372 0.1585068 0.1584114 0.1583485 0.1583034 0.1582461
 0.1581115 0.1578083 0.1572521 0.1563879 0.155196 0.1536967 0.1519492 0.1500564 0.1481709 0.1464571
 0.1450188 0.1438768 0.1430093 0.1423725 0.1418931 0.1414994 0.1411785 0.1409848 0.1409864 0.1411832
 0.1414573 0.141637 0.1416561 0.1416259 0.1417324 0.1420952 0.1427169 0.1434992 0.1442944 0.1449859
 0.1455276 0.1459114 0.1461444 0.14626 0.1462943 0.1462485 0.1461125 0.145901 0.1456371 0.1453331
 0.1449943 0.144607 0.1441351 0.1435615 0.1429034 0.1421725 0.1413683 0.1404914 0.1395071 0.1383572
 0.1370943 0.1359544 0.1352266 0.1350763 0.1354842 0.1362797 0.1372527 0.1382895 0.1393276 0.1401658
 0.1405307 0.140489 0.1406446 0.1416958 0.1437682 0.1462718 0.1484237 0.1498189 0.1504781 0.1505349
 0.1500685 0.149133 0.1477278 0.1457812 0.1432958 0.1404217 0.137328 0.1341545 0.1310999 0.1283688
 0.1260498 0.1241541 0.1226827 0.1216826 0.1212929 0.1211355 0.1192758 0.1132463 0.103863 0.09688985
 0.09816063 0.1070059 0.1167435 0.1217306 0.1218413 0.1201107 0.118619 0.1176596 0.1171144 0.1171472
 0.1179077 0.1192351 0.1207004 0.1218789 0.1226099 0.1229522 0.1228871 0.1220693 0.1197568 0.1150701
 0.1076989 0.098515 0.08927555 0.08159798 0.0762317 0.07307258 0.07150729 0.07076009 0.07026906 0.0699679
 0.07019361 0.07127623 0.07324474 0.07591377 0.0790948 0.08256519 0.08592749 0.08875491 0.09092309 0.0926272
 0.09403914 0.0950979 0.09565873 0.09569775 0.09531754 0.09465773 0.09385735 0.09302413 0.0921552 0.09113128
 0.08990252 0.08867565 0.08779122 0.08739146 0.0873228 0.08736661 0.08742149 0.0874512 0.08741321 0.08729562
 0.08714893 0.08706827 0.08716744 0.08751395 0.08804293 0.08857154 0.08892976 0.08907859 0.0891083 0.08909059
 0.08891612 0.08839413 0.08758496 0.08683597 0.08630784 0.08567042 0.08454621 0.08312868 0.08206703 0.08177155
 0.08205383 0.08242655 0.08254902 0.08237208 0.08207718 0.08198652 0.08235549 0.08306652 0.08362 0.08360057
</values></Ydata></ScRf><Data_Parameters_AB><parameter name="DPF">1</parameter><parameter name="NPT">3497</parameter><parameter name="FXV">3996</parameter><parameter name="LXV">500</parameter><parameter name="CSF">1</parameter><parameter name="MXY">0.209961578249931</parameter><parameter name="MNY">-0.0413098521530628</parameter><parameter name="DAT">01/06/2022</parameter><parameter name="TIM">11:40:51.569 (GMT+2)</parameter><parameter name="DXU">WN</parameter></Data_Parameters_AB><AB__Qtest><MainReport name="Quality Test Report"><Header><Line><Legend>Test result ok/not ok [1/0]: </Legend><Value>0</Value></Line><Line><Legend>Method file: </Legend><Value>C:\Users\Public\Documents\Bruker\OPUS_8.2.28\QT\IRBT_v3_default.QT</Value></Line></Header><Matrix><Line><Legend></Legend><Legend>min</Legend><Legend>max</Legend><Legend>measured</Legend></Line><Line><Value>Absorption (X-Range 1):</Value><Value>0.400000</Value><Value>2.000000</Value><Value>0.218774</Value></Line><Line><Value>Noise (X-Range 4):</Value><Value></Value><Value>0.000300</Value><Value>0.000052</Value></Line><Line><Value>Signal/Noise (X-Range 2):</Value><Value>200.000000</Value><Value></Value><Value>110.829269</Value></Line><Line><Value>Signal/Noise (X-Range 3):</Value><Value>40.000000</Value><Value></Value><Value>46.158622</Value></Line><Line><Value>Water vapour (X-Range 5):</Value><Value></Value><Value>0.000300</Value><Value>0.000077</Value></Line><Line><Value>Signal/Water (X-Range 2):</Value><Value>100.000000</Value><Value></Value><Value>75.221997</Value></Line><Line><Value>Signal/Water (X-Range 3):</Value><Value>20.000000</Value><Value></Value><Value>31.328762</Value></Line><Line><Value>Fringes (X-Range 6):</Value><Value></Value><Value>0.000100</Value><Value>0.000065</Value></Line></Matrix></MainReport></AB__Qtest><Data_Parameters_ScSm><parameter name="DPF">1</parameter><parameter name="NPT">1814</parameter><parameter name="FXV">3996.33169228125</parameter><parameter name="LXV">499.541461535156</parameter><parameter name="CSF">1</parameter><parameter name="MXY">0.25286990404129</parameter><parameter name="MNY">0.030656510964036</parameter><parameter name="DAT">01/06/2022</parameter><parameter name="TIM">11:40:51.569 (GMT+2)</parameter><parameter name="DXU">WN</parameter></Data_Parameters_ScSm><Data_Parameters_ScRf><parameter name="DPF">1</parameter><parameter name="NPT">1820</parameter><parameter name="FXV">4004.04661832813</parameter><parameter name="LXV">495.683998511719</parameter><parameter name="CSF">1</parameter><parameter name="MXY">0.265219390392303</parameter><parameter name="MNY">0.0283861234784126</parameter><parameter name="DAT">01/06/2022</parameter><parameter name="TIM">11:40:25.716 (GMT+2)</parameter><parameter name="DXU">WN</parameter></Data_Parameters_ScRf><Optic_Parameters_Rf><parameter name="APR">0</parameter><parameter name="APT">Open</parameter><parameter name="BMS">KBr</parameter><parameter name="DTC">RT-DLaTGS_IR-Biotyper [Microplate reader]</parameter><parameter name="HPF">0</parameter><parameter name="LPF">10.0</parameter><parameter name="LPV">4000</parameter><parameter name="PGR">0</parameter><parameter name="RCH">Module port</parameter><parameter name="RDX">0</parameter><parameter name="SRC">MIR</parameter><parameter name="VEL">10.0</parameter><parameter name="SON">Off</parameter></Optic_Parameters_Rf><Acquisition_Parameters_Rf><parameter name="ADT">1</parameter><parameter name="AQM">DD</parameter><parameter name="CFE">0</parameter><parameter name="COR">0</parameter><parameter name="DEL">0</parameter><parameter name="DLY">0</parameter><parameter name="HFW">8000</parameter><parameter name="LFW">0</parameter><parameter name="NSR">32</parameter><parameter name="PLF">AB</parameter><parameter name="RES">6</parameter><parameter name="RGN">-1</parameter><parameter name="STR">0</parameter><parameter name="TCL">MakeCompatibleScalar (0, {WSV=1.000000, ARV=0});</parameter><parameter name="TDL">37</parameter><parameter name="RPO">0</parameter></Acquisition_Parameters_Rf><FT_-_Parameters_Rf><parameter name="APF">B3</parameter><parameter name="HFQ">500</parameter><parameter name="LFQ">4000</parameter><parameter name="NLI">0</parameter><parameter name="PHR">24</parameter><parameter name="PHZ">ML</parameter><parameter name="SPZ">NO</parameter><parameter name="ZFF">1</parameter></FT_-_Parameters_Rf><Optic_Parameters_><parameter name="APR">0</parameter><parameter name="APT">Open</parameter><parameter name="BMS">KBr</parameter><parameter name="CHN">Module port</parameter><parameter name="DTC">RT-DLaTGS_IR-Biotyper [Microplate reader]</parameter><parameter name="HPF">0</parameter><parameter name="LPF">10.0</parameter><parameter name="LPV">4000</parameter><parameter name="PGN">0</parameter><parameter name="RDX">0</parameter><parameter name="SRC">MIR</parameter><parameter name="VEL">10.0</parameter><parameter name="SON">Off</parameter></Optic_Parameters_><FT_-_Parameters_><parameter name="APF">B3</parameter><parameter name="HFQ">500</parameter><parameter name="LFQ">4000</parameter><parameter name="NLI">0</parameter><parameter name="PHR">24</parameter><parameter name="PHZ">ML</parameter><parameter name="SPZ">NO</parameter><parameter name="ZFF">1</parameter></FT_-_Parameters_><Acquisition_Parameters_><parameter name="ADT">1</parameter><parameter name="AQM">DD</parameter><parameter name="CFE">0</parameter><parameter name="COR">0</parameter><parameter name="DEL">0</parameter><parameter name="DLY">0</parameter><parameter name="HFW">8000</parameter><parameter name="LFW">0</parameter><parameter name="NSS">32</parameter><parameter name="PLF">AB</parameter><parameter name="RES">6</parameter><parameter name="SOT">0</parameter><parameter name="TCL">MakeCompatibleScalar (0, {WSV=1.000000, ARV=0});</parameter><parameter name="TDL">37</parameter><parameter name="SPO">0</parameter><parameter name="SGN">-1</parameter></Acquisition_Parameters_><Instrument_Parameters_Rf><parameter name="HFL">15800.168544</parameter><parameter name="LFL">0</parameter><parameter name="LWN">15800.168544</parameter><parameter name="ABP">32197</parameter><parameter name="SSP">1</parameter><parameter name="ARG">2</parameter><parameter name="ASG">2</parameter><parameter name="ASS">32</parameter><parameter name="GFW">16</parameter><parameter name="GBW">16</parameter><parameter name="BFW">0</parameter><parameter name="BBW">0</parameter><parameter name="PKA">7308</parameter><parameter name="PKL">4996</parameter><parameter name="PRA">7479</parameter><parameter name="PRL">5001</parameter><parameter name="P2A">1</parameter><parameter name="P2L">1</parameter><parameter name="P2R">1</parameter><parameter name="P2K">1</parameter><parameter name="DAQ">0</parameter><parameter name="AG2">1</parameter><parameter name="SSM">1</parameter><parameter name="RSN">25927</parameter><parameter name="CRR">0</parameter><parameter name="SRT">1654083625.716</parameter><parameter name="DUR">19.6379852294922</parameter><parameter name="TSC">29</parameter><parameter name="MVD">0.448123335838318</parameter><parameter name="AN1">0.225801976491858</parameter><parameter name="AN2">0</parameter><parameter name="VSN">2.485 Apr  4 2017</parameter><parameter name="SRN">0085</parameter><parameter name="CAM">0</parameter><parameter name="INS">IR-Biotyper</parameter><parameter name="FOC">69</parameter><parameter name="RDY">1</parameter><parameter name="ARS">32</parameter></Instrument_Parameters_Rf><Sample_Parameters_><parameter name="BLD"></parameter><parameter name="CNM">Admin</parameter><parameter name="CPY"></parameter><parameter name="DPM"></parameter><parameter name="EXP">IRBT_v3_32Scans.XPM</parameter><parameter name="LCT"></parameter><parameter name="SFM">Microplate, HTS-XT</parameter><parameter name="SNM">220601-1028(v.3)_RTF49M (D_9)_F6_8449d589-048e-43c1-9303-c7a6d1063ab9.0</parameter><parameter name="XPP">C:\Users\Public\Documents\Bruker\OPUS_8.2.28\XPM</parameter><parameter name="IST">OK</parameter><parameter name="CPG">1252</parameter><parameter name="UID">556c0568-114c-42e0-bd32-79678439ec2d</parameter></Sample_Parameters_><Instrument_Parameters_><parameter name="HFL">15800.168544</parameter><parameter name="LFL">0</parameter><parameter name="LWN">15800.168544</parameter><parameter name="ABP">32197</parameter><parameter name="SSP">1</parameter><parameter name="ASG">2</parameter><parameter name="ARG">2</parameter><parameter name="ASS">32</parameter><parameter name="GFW">16</parameter><parameter name="GBW">16</parameter><parameter name="BFW">0</parameter><parameter name="BBW">0</parameter><parameter name="PKA">6773</parameter><parameter name="PKL">4988</parameter><parameter name="PRA">7028</parameter><parameter name="PRL">4993</parameter><parameter name="P2A">1</parameter><parameter name="P2L">1</parameter><parameter name="P2R">1</parameter><parameter name="P2K">1</parameter><parameter name="DAQ">0</parameter><parameter name="AG2">1</parameter><parameter name="SSM">1</parameter><parameter name="RSN">13589</parameter><parameter name="CRR">0</parameter><parameter name="SRT">1654083651.569</parameter><parameter name="DUR">19.6389923095703</parameter><parameter name="TSC">29</parameter><parameter name="MVD">0.50037682056427</parameter><parameter name="AN1">0.225828847489971</parameter><parameter name="AN2">0</parameter><parameter name="VSN">2.485 Apr  4 2017</parameter><parameter name="SRN">0085</parameter><parameter name="CAM">0</parameter><parameter name="INS">IR-Biotyper</parameter><parameter name="FOC">69</parameter><parameter name="RDY">1</parameter></Instrument_Parameters_><History/></OPUSDataFile>
