<?xml version="1.0" encoding="UTF-8" ?>
<OPUSDataFile><AB><Ydata ylabel="Absorbance Units"><values byteorder="INTEL" format="FLOAT32" numvalues="3497"> 0.03445154 0.03442442 0.03440832 0.03440298 0.03441344 0.03443992 0.03446894 0.03450012 0.03452481 0.03454414
 0.03456077 0.03457522 0.03459141 0.03460754 0.03462217 0.03463154 0.03462926 0.034612 0.03457187 0.03451274
 0.0344319 0.0343439 0.03425485 0.03417808 0.03412205 0.03408343 0.03406449 0.03405175 0.03404305 0.03403194
 0.03401738 0.03399945 0.03397809 0.03394888 0.0339115 0.03386011 0.03379583 0.03372199 0.03364085 0.03356234
 0.03348725 0.03342244 0.03336748 0.03332489 0.0332934 0.03327347 0.03326108 0.03325314 0.03324731 0.03323907
 0.03323714 0.03324213 0.0332683 0.03332164 0.03339799 0.03350056 0.03359997 0.0336941 0.03375534 0.03378203
 0.03377327 0.03373056 0.03367452 0.03360631 0.03354433 0.03348622 0.03343349 0.03338294 0.03332708 0.03326559
 0.03319382 0.03311476 0.03302851 0.03294248 0.03285997 0.03279479 0.0327544 0.03275094 0.03279466 0.03287356
 0.03299266 0.0331063 0.0332104 0.03325208 0.0332248 0.03310635 0.03289497 0.03261856 0.03228213 0.03195909
 0.03165708 0.03146425 0.03137522 0.03142735 0.03158927 0.03180603 0.0320483 0.0322358 0.0323741 0.03243327
 0.03244232 0.03241272 0.03237413 0.03234837 0.03234327 0.03237201 0.03241051 0.03245676 0.03248182 0.03247804
 0.03244742 0.03238742 0.03233061 0.03227875 0.03225487 0.03225736 0.03226718 0.03227979 0.03225493 0.03219511
 0.03208357 0.03193557 0.03177721 0.03162715 0.03153332 0.03149234 0.03152556 0.03160467 0.03171307 0.0318318
 0.0319455 0.0320464 0.03213396 0.03217957 0.03217934 0.03209332 0.03191064 0.03163096 0.03124598 0.03085306
 0.03045648 0.03026188 0.03026994 0.03053909 0.03103146 0.03152064 0.03199731 0.03230138 0.0324618 0.03247063
 0.03235513 0.03215174 0.03189434 0.031631 0.03140121 0.03125904 0.03120472 0.03126838 0.031382 0.03152814
 0.03164742 0.03171208 0.03174009 0.031728 0.03171566 0.03170929 0.03170284 0.03169652 0.03165744 0.0315859
 0.03148021 0.0313465 0.03122437 0.03111764 0.03106458 0.03105866 0.03110383 0.03119019 0.0313039 0.03143455
 0.03156786 0.03168689 0.03177365 0.03181611 0.03179922 0.03173072 0.03160581 0.03145217 0.03127285 0.03110536
 0.03095559 0.03085481 0.03080773 0.03082387 0.03090438 0.03102878 0.0311952 0.03137052 0.03155445 0.03172977
 0.03189667 0.03204865 0.03218142 0.03228022 0.03234294 0.03235507 0.03232807 0.03226664 0.03219106 0.03212068
 0.03206576 0.03204039 0.03203705 0.03205771 0.03208718 0.0321233 0.0321475 0.03215691 0.03213399 0.03207556
 0.03198261 0.03185467 0.03171818 0.03157511 0.03146164 0.03137745 0.03134052 0.03134438 0.03137414 0.03142246
 0.031462 0.03149193 0.03149827 0.03148312 0.03144587 0.03138166 0.03128901 0.03115491 0.03096977 0.0307311
 0.03042809 0.03009445 0.02972962 0.02940045 0.02911906 0.02892725 0.02883388 0.02882266 0.02889294 0.02903955
 0.02926221 0.02956419 0.02993572 0.03031102 0.03067832 0.03095065 0.0311354 0.03120244 0.03117642 0.03108377
 0.0309533 0.03083574 0.03073419 0.03067382 0.030632 0.0305993 0.03056886 0.03053106 0.03050422 0.03049007
 0.03051123 0.03057459 0.03067655 0.03082062 0.03096394 0.03110439 0.03118874 0.03121578 0.03116124 0.03103126
 0.03085107 0.03063786 0.03047384 0.03037168 0.03042254 0.03058944 0.030857 0.03116476 0.03141763 0.03161651
 0.03171808 0.03177516 0.03180643 0.03185567 0.031954 0.03208682 0.03226329 0.03242674 0.0325668 0.03265356
 0.0326784 0.03267292 0.0326376 0.03264758 0.03270521 0.03285819 0.03309595 0.03336485 0.03365263 0.03387509
 0.03404109 0.03413214 0.03415955 0.03413627 0.03406744 0.03395922 0.03383074 0.03369301 0.0335847 0.03353307
 0.03355834 0.03368022 0.03388404 0.03416895 0.03452481 0.0349514 0.03543111 0.03596504 0.03650382 0.03704436
 0.03754645 0.0380093 0.03842378 0.03879035 0.03910755 0.03937568 0.03959282 0.03976363 0.03989863 0.04000407
 0.04009556 0.04017863 0.04025962 0.04036263 0.04050368 0.04072389 0.04106637 0.04150523 0.04205677 0.04262055
 0.04316562 0.04365347 0.04406514 0.04443472 0.04476313 0.04508962 0.04541733 0.04575754 0.04610941 0.04645108
 0.04678097 0.04707118 0.04733213 0.04758483 0.04785709 0.04824451 0.04874375 0.04941746 0.05018623 0.05097002
 0.05171445 0.05232628 0.05283551 0.05322768 0.05356048 0.05385477 0.05415087 0.05446706 0.05481039 0.05518634
 0.05558482 0.05600418 0.05644811 0.05691637 0.05742784 0.05798252 0.05857915 0.05921225 0.05983771 0.06045184
 0.06101146 0.06152564 0.06199565 0.06243509 0.06287096 0.0633095 0.06377114 0.06425364 0.06476447 0.0652917
 0.06583245 0.06636851 0.06688754 0.06739441 0.06788111 0.06839116 0.06893278 0.06953135 0.07019768 0.07086983
 0.07154523 0.07213874 0.07264925 0.0730751 0.07342438 0.07376069 0.07408835 0.07446295 0.07487586 0.07533491
 0.07582238 0.0763071 0.07677991 0.07720932 0.07761242 0.07798626 0.07837179 0.07879511 0.07927958 0.07985273
 0.08047674 0.08115126 0.08181702 0.08245992 0.08305893 0.08360762 0.0841205 0.08459769 0.08506629 0.08552751
 0.08600264 0.08649075 0.08699404 0.08751042 0.08803089 0.0885564 0.08908535 0.08961901 0.09016178 0.09070717
 0.09124925 0.09177995 0.09228712 0.09277451 0.09324 0.09369172 0.09413601 0.09456455 0.09497882 0.09535728
 0.09569389 0.09598678 0.09623124 0.09646758 0.09669738 0.09698077 0.0973197 0.09774201 0.09824193 0.09878539
 0.09936328 0.09991358 0.1004392 0.1009119 0.1013491 0.1017722 0.1021934 0.1026447 0.1031128 0.1036022
 0.1040815 0.1045294 0.1049332 0.1052736 0.1055829 0.1058616 0.1061646 0.1065046 0.1069071 0.1073804
 0.1078995 0.108464 0.109024 0.1095774 0.1100865 0.1105526 0.1109683 0.111338 0.1116769 0.1119899
 0.1122978 0.1126043 0.1129269 0.1132655 0.1136297 0.1140106 0.1144048 0.1147998 0.1151835 0.1155603
 0.115925 0.1163008 0.1166963 0.1171141 0.1175615 0.1180008 0.1184278 0.1188148 0.1191573 0.1194915
 0.1198198 0.1202093 0.1206579 0.1211819 0.1217662 0.1223508 0.1229215 0.1234001 0.1237936 0.1240721
 0.1242648 0.1243983 0.1244998 0.1246094 0.1247284 0.1248719 0.125027 0.1251887 0.1253576 0.1255311
 0.1257203 0.1259281 0.1261552 0.1264028 0.1266643 0.126939 0.1272272 0.1275286 0.1278427 0.1281693
 0.1285042 0.1288502 0.1292181 0.1296121 0.1300543 0.1305356 0.1310544 0.1315859 0.1320945 0.1325632
 0.1329575 0.1332868 0.1335438 0.1337525 0.1339227 0.134067 0.1341926 0.1342993 0.1343868 0.1344628
 0.1345264 0.1346004 0.1346862 0.134805 0.1349576 0.13515 0.1353811 0.1356464 0.1359441 0.1362646
 0.1366026 0.1369377 0.1372625 0.1375491 0.1378006 0.138004 0.1381818 0.1383489 0.13853 0.1387517
 0.1390089 0.1393138 0.1396237 0.1399289 0.1401909 0.1403941 0.1405546 0.1406685 0.140794 0.1409365
 0.1411152 0.1413294 0.1415154 0.1416688 0.1417146 0.141664 0.1415271 0.1413303 0.1411615 0.1410339
 0.1410244 0.141114 0.1413139 0.1415869 0.1419005 0.1422274 0.1425354 0.1428251 0.143084 0.1433375
 0.1435906 0.1438649 0.1441706 0.1444914 0.1448306 0.145133 0.1453947 0.1455686 0.1456533 0.1456596
 0.1455934 0.1455155 0.145429 0.1453832 0.1453713 0.1453954 0.1454523 0.1455315 0.1456453 0.1458091
 0.1460269 0.1463186 0.14665 0.14701 0.1473493 0.1476364 0.1478639 0.1480149 0.1481315 0.1482187
 0.1483182 0.1484394 0.1485825 0.14875 0.1489055 0.1490471 0.149135 0.1491705 0.1491469 0.1490733
 0.148989 0.1489053 0.14888 0.1489124 0.1490345 0.1492257 0.1494751 0.1497493 0.1500113 0.1502357
 0.1503876 0.1504755 0.1504866 0.1504665 0.1504245 0.1504071 0.150428 0.1505013 0.1506312 0.1508163
 0.151056 0.1513636 0.1517396 0.1521928 0.1527184 0.1532725 0.1538413 0.1543293 0.1547294 0.1549599
 0.1550414 0.154967 0.1547877 0.1545703 0.1543671 0.1542635 0.1542665 0.1544227 0.1546699 0.1550016
 0.1553196 0.1555897 0.1557498 0.1557709 0.1556769 0.1554603 0.1552104 0.1549335 0.1547069 0.1545338
 0.1544232 0.1543715 0.154343 0.154338 0.1543379 0.1543506 0.154394 0.1544707 0.1546026 0.1547709
 0.1549663 0.1551464 0.1552681 0.1552897 0.1551613 0.154885 0.1544351 0.1538785 0.1532227 0.1525635
 0.1519235 0.1513665 0.1509081 0.1505541 0.1503084 0.1501288 0.1500128 0.1498902 0.149758 0.1495573
 0.1492954 0.1489762 0.148617 0.1482799 0.1479671 0.1477232 0.1475188 0.1473309 0.1471267 0.1468546
 0.1465234 0.1461117 0.1456741 0.1452274 0.1448308 0.1445119 0.1442879 0.1441762 0.1441294 0.1441493
 0.1441415 0.1440983 0.1439444 0.1436765 0.1433038 0.1428332 0.1423467 0.1418501 0.1414202 0.1410499
 0.1407586 0.1405322 0.140349 0.1401988 0.1400567 0.1399173 0.1397661 0.1396001 0.1394119 0.139203
 0.1389705 0.1387235 0.1384627 0.138203 0.1379475 0.137708 0.1374877 0.1372834 0.1370959 0.1369081
 0.1367194 0.1365181 0.1363049 0.1360869 0.1358657 0.1356553 0.1354546 0.1352682 0.1350932 0.1349251
 0.1347616 0.1345976 0.1344306 0.1342565 0.1340725 0.133874 0.133663 0.1334377 0.1332064 0.1329716
 0.1327388 0.1325109 0.1322827 0.1320544 0.1318157 0.1315653 0.1313 0.1310196 0.130733 0.1304412
 0.1301594 0.1298878 0.1296366 0.1294031 0.1291853 0.1289784 0.1287708 0.1285589 0.1283313 0.1280898
 0.12783 0.1275626 0.1272906 0.1270349 0.1268045 0.1266218 0.1264995 0.1264371 0.1264443 0.1264733
 0.1265232 0.1265154 0.1264424 0.1262559 0.1259534 0.1255619 0.1250874 0.1246102 0.1241357 0.123738
 0.1234126 0.1231876 0.1230455 0.1229649 0.1229194 0.1228575 0.1227636 0.1225927 0.1223667 0.1220794
 0.1217808 0.1214984 0.1212548 0.121073 0.1209191 0.1207904 0.1206506 0.1204879 0.1203279 0.1201695
 0.1200783 0.1200578 0.120131 0.1202928 0.1204853 0.1206983 0.1208397 0.1209097 0.1208543 0.1206924
 0.1204366 0.1201136 0.1197734 0.119428 0.1191139 0.1188221 0.1185562 0.1183104 0.1180774 0.1178733
 0.1177031 0.1175773 0.1175058 0.1174565 0.1174285 0.117374 0.1172857 0.1171682 0.1170215 0.1169103
 0.116837 0.1168526 0.1169491 0.1171079 0.1173154 0.117512 0.1176945 0.1178225 0.117907 0.1179469
 0.1179551 0.1179485 0.1179263 0.1178985 0.1178443 0.1177572 0.1176139 0.1173982 0.1171238 0.1167818
 0.1164391 0.1161021 0.1158445 0.1156772 0.1156058 0.1156312 0.115673 0.1157256 0.1156914 0.1155749
 0.1153468 0.1150265 0.1146668 0.1142857 0.1139561 0.1136748 0.1134733 0.1133295 0.1132312 0.1131563
 0.1130827 0.1129996 0.1128936 0.1127666 0.1126134 0.1124522 0.112284 0.1121371 0.1120182 0.1119326
 0.1118841 0.1118342 0.111781 0.1116841 0.1115453 0.1113821 0.111202 0.111065 0.1109678 0.110936
 0.11095 0.1109729 0.1109965 0.1109802 0.1109512 0.1109187 0.1109273 0.1110172 0.1112121 0.111539
 0.1119947 0.1125837 0.1133008 0.1141456 0.1151138 0.1162091 0.1173963 0.118677 0.1199617 0.1212457
 0.1224044 0.1234319 0.1242202 0.1247711 0.1250367 0.12503 0.1247692 0.124276 0.1236073 0.1227876
 0.1218791 0.1209058 0.1199163 0.1189333 0.1179872 0.1170996 0.116288 0.115571 0.1149601 0.1144617
 0.1140825 0.1138074 0.113636 0.1135469 0.1135362 0.1136132 0.113778 0.1140802 0.1145221 0.1151473
 0.1159494 0.116914 0.1180259 0.1192208 0.1204886 0.12177 0.1230687 0.1243634 0.1256641 0.1269754
 0.1283028 0.1296521 0.1310265 0.1324272 0.1338636 0.1353394 0.1368622 0.1384397 0.1400496 0.141696
 0.143313 0.1448966 0.1463663 0.1477167 0.1488998 0.1499158 0.1507625 0.1514428 0.1519714 0.1523502
 0.1525892 0.1526993 0.1527035 0.1526339 0.1525493 0.1524915 0.1525352 0.1526998 0.1530323 0.1535155
 0.1541553 0.1549224 0.1558049 0.1567901 0.1578716 0.1590478 0.1603193 0.1616735 0.1631112 0.1646016
 0.1661434 0.1676883 0.1692324 0.1707091 0.1721136 0.1733787 0.174507 0.175468 0.176277 0.1769562
 0.1775208 0.1780151 0.1784258 0.1787702 0.1789839 0.1790358 0.1788214 0.1782768 0.1773206 0.1758908
 0.174014 0.1716604 0.1690001 0.1660406 0.1630335 0.1600032 0.157156 0.1545071 0.1521263 0.1500109
 0.1481105 0.146417 0.1448521 0.1434157 0.142069 0.1408134 0.1396384 0.1385325 0.1374743 0.1364454
 0.1354112 0.1343712 0.1333062 0.1322453 0.1311954 0.1301954 0.1292629 0.1284196 0.1276761 0.1270348
 0.1264969 0.1260648 0.1257373 0.1255369 0.1254647 0.1255575 0.1258153 0.1262448 0.1268348 0.1275163
 0.1282677 0.1289637 0.1295963 0.13007 0.1304157 0.1306326 0.130784 0.130943 0.1311703 0.1315454
 0.1320914 0.1328532 0.1337986 0.1349363 0.1361871 0.1375379 0.138898 0.1402512 0.1415293 0.1427258
 0.1437739 0.1446709 0.145279 0.1455861 0.1453707 0.144626 0.1431774 0.1410641 0.1383249 0.1350549
 0.1315104 0.1277886 0.1241883 0.1207406 0.1176166 0.114772 0.1122305 0.1099275 0.1078281 0.1058979
 0.1041137 0.1024651 0.1009477 0.09954442 0.0982535 0.09705026 0.09593163 0.09488308 0.09390339 0.09298877
 0.09213872 0.09134492 0.09060536 0.08990126 0.08923105 0.08857662 0.08794123 0.08732258 0.08672834 0.08617292
 0.08565763 0.08519466 0.08476888 0.08437438 0.08398851 0.08359374 0.08318427 0.08274848 0.08230833 0.08186468
 0.08145097 0.08107428 0.08075117 0.08048663 0.0802634 0.08008121 0.07990109 0.07972168 0.07951784 0.07929248
 0.07905538 0.07880977 0.07857718 0.07835203 0.07813198 0.07790641 0.07765185 0.07736888 0.07704398 0.07669465
 0.07632893 0.07596976 0.07563278 0.07533411 0.07508533 0.07488905 0.0747519 0.07465404 0.07459656 0.07453778
 0.07447363 0.07436691 0.07421421 0.07401385 0.07376715 0.07350533 0.07323059 0.07297468 0.07273576 0.07252344
 0.07233369 0.07216006 0.07200067 0.07184866 0.07170467 0.07156669 0.07143601 0.07131269 0.07119924 0.07109669
 0.07100869 0.07093783 0.07088301 0.07084684 0.07081526 0.07078762 0.07074213 0.07067553 0.07057907 0.0704513
 0.07030983 0.07015605 0.07001887 0.06989779 0.06980354 0.06973127 0.06966571 0.06960323 0.06952387 0.06943201
 0.06932458 0.06921205 0.06910715 0.06901656 0.06895372 0.06891197 0.0688948 0.06888174 0.06886676 0.06882754
 0.06875501 0.068643 0.06848615 0.06830172 0.06808987 0.06787794 0.06766791 0.06747697 0.06730541 0.06715359
 0.06702049 0.06689849 0.06678684 0.06667864 0.06657304 0.06646429 0.06635175 0.06623067 0.06610322 0.06596909
 0.06583398 0.06570289 0.0655802 0.06547122 0.06537396 0.06528945 0.06521275 0.06514194 0.0650771 0.06501754
 0.06496704 0.06492651 0.06489321 0.06486731 0.06483634 0.06479986 0.0647499 0.06468803 0.06462344 0.06455854
 0.06451063 0.06447719 0.06446205 0.06445699 0.06444789 0.06442886 0.06438447 0.06431711 0.06422279 0.06410759
 0.06397431 0.06382719 0.06366772 0.06350247 0.06333209 0.06316882 0.06301514 0.06287947 0.0627642 0.06266304
 0.06257604 0.0624884 0.06239957 0.06230118 0.06219397 0.06208022 0.06196099 0.06184224 0.06172432 0.06161103
 0.06150277 0.06140181 0.06130912 0.0612276 0.06115573 0.06109488 0.06103771 0.0609808 0.06091546 0.06083519
 0.06074249 0.06063418 0.06052702 0.06042352 0.06033818 0.0602746 0.06022619 0.06019328 0.06015379 0.06010683
 0.06003776 0.05994796 0.05984255 0.05972409 0.05960739 0.05949237 0.05938737 0.05928886 0.05919392 0.05909933
 0.05899836 0.05889259 0.05877972 0.05866616 0.05855514 0.05845213 0.0583611 0.05828193 0.05821616 0.05815902
 0.05811029 0.05806339 0.0580178 0.0579657 0.0579065 0.05783337 0.05774612 0.05764377 0.05752731 0.05740454
 0.0572772 0.05715773 0.05704664 0.05695281 0.05687357 0.05680861 0.05675322 0.05670038 0.05664812 0.05659093
 0.0565319 0.05647115 0.05641263 0.05635918 0.05630907 0.05626314 0.05621551 0.05616472 0.05610912 0.05604783
 0.05598534 0.05592194 0.05586132 0.05580349 0.05574549 0.05568688 0.05562247 0.05555262 0.05547646 0.05539466
 0.05530907 0.0552192 0.05512469 0.05502556 0.05492019 0.05481313 0.05470658 0.05460938 0.05452863 0.05446791
 0.05443314 0.05441484 0.05441325 0.05441075 0.05440375 0.05438025 0.05433742 0.05427612 0.05419591 0.05410498
 0.0540038 0.05390209 0.05380055 0.05370979 0.0536302 0.05357061 0.05352863 0.05350322 0.05348834 0.0534712
 0.05344752 0.05340368 0.05334439 0.05326675 0.05318406 0.05310388 0.05303753 0.05299393 0.0529717 0.05297445
 0.05298825 0.05301153 0.05302925 0.05303867 0.05303537 0.0530184 0.05299453 0.05296411 0.05293585 0.05290953
 0.05288688 0.05286666 0.05284392 0.05281736 0.05278022 0.05273264 0.05267082 0.05259757 0.05251424 0.05242633
 0.05233961 0.05225833 0.05218847 0.05212717 0.05207615 0.05202599 0.05197404 0.05191376 0.05184214 0.05176301
 0.05167586 0.05159032 0.05150726 0.05143049 0.05136006 0.05129036 0.05122079 0.05114298 0.05105713 0.05095963
 0.05085189 0.05073599 0.05061402 0.05049117 0.05036914 0.0502528 0.05014246 0.05004046 0.04994588 0.04985858
 0.04977837 0.04970492 0.04963898 0.04958111 0.04953001 0.04948604 0.04944471 0.04940556 0.04936428 0.04932034
 0.0492742 0.04922591 0.04917915 0.04913378 0.04909038 0.04904778 0.04900029 0.04894713 0.04888167 0.04880651
 0.04872277 0.04863603 0.04855526 0.04848355 0.04842908 0.04838726 0.04835889 0.0483344 0.04830923 0.04827741
 0.04823489 0.04818426 0.04812467 0.04806352 0.04800192 0.04794337 0.04788852 0.04783412 0.04778004 0.04772294
 0.04766326 0.04760406 0.04754601 0.04749468 0.04744911 0.04740953 0.04737394 0.04733789 0.04730069 0.047259
 0.04721386 0.04716497 0.04711398 0.04706165 0.04701019 0.04696096 0.04691494 0.04687358 0.04683316 0.04679349
 0.04674893 0.04669807 0.0466422 0.04658083 0.04652445 0.04647357 0.04643755 0.04641589 0.04640726 0.04640977
 0.04641276 0.04641511 0.04640677 0.04638964 0.0463623 0.04632858 0.04629425 0.04626026 0.04623144 0.04620239
 0.04617143 0.04613176 0.04607801 0.0460124 0.04593233 0.04585114 0.04577091 0.04570427 0.04565435 0.0456198
 0.0456015 0.04558444 0.04556783 0.04553616 0.0454894 0.04542169 0.04533397 0.04522835 0.04510507 0.04496633
 0.04481117 0.044639 0.04444779 0.04423514 0.04399705 0.04372984 0.04342634 0.04308168 0.04268631 0.04223543
 0.0417187 0.04113198 0.0404674 0.03972125 0.03889579 0.03798781 0.03702527 0.03600816 0.03499338 0.03398421
 0.03305473 0.03221067 0.03153759 0.03104289 0.03081492 0.03085033 0.03119433 0.03181768 0.03269332 0.03375635
 0.03490822 0.03606725 0.03710666 0.03798802 0.03863682 0.03906749 0.03926437 0.03926414 0.03906914 0.03873819
 0.03827466 0.03778027 0.03726621 0.03684004 0.03651557 0.03630779 0.0362175 0.03618797 0.03621736 0.03626722
 0.03633991 0.03642802 0.03653545 0.03667201 0.03683836 0.03704395 0.03727953 0.03753526 0.03780237 0.03806369
 0.03832704 0.03859178 0.03886933 0.03917036 0.03948256 0.03980753 0.04011761 0.04040521 0.04066011 0.04087747
 0.04107239 0.04124533 0.04141621 0.04158602 0.04176003 0.04193724 0.04210692 0.04226818 0.04240972 0.04253346
 0.04263992 0.04273144 0.04281479 0.04288836 0.04295295 0.04300556 0.04304144 0.04306404 0.04307254 0.04307673
 0.04308205 0.04309283 0.0431137 0.04313732 0.04316323 0.04318255 0.04319303 0.04319586 0.04319051 0.04318568
 0.04318181 0.04318416 0.0431922 0.04320112 0.04320965 0.04320762 0.0431954 0.04316776 0.04312833 0.04308245
 0.04303407 0.04299258 0.042958 0.04293488 0.04291916 0.04290945 0.04290155 0.04289272 0.04288117 0.04286538
 0.04284605 0.04282269 0.04279855 0.04277398 0.04275198 0.04273303 0.04271634 0.0427019 0.04268782 0.04267441
 0.04266494 0.04266008 0.04266636 0.04268249 0.04270842 0.04274029 0.04276905 0.0427922 0.04280057 0.04279673
 0.04277924 0.04275349 0.04272324 0.04269209 0.04266304 0.04263726 0.04261554 0.04259939 0.04258918 0.04258666
 0.04259256 0.04260502 0.0426243 0.04264332 0.04266169 0.04267146 0.04267258 0.04266242 0.04264194 0.04261531
 0.04258357 0.04255283 0.042523 0.042497 0.04247394 0.04245359 0.04243545 0.04241902 0.04240351 0.0423886
 0.04237215 0.04235302 0.04232936 0.04229977 0.04226548 0.04222616 0.04218533 0.04214347 0.04210328 0.04206507
 0.04203029 0.04199905 0.04197352 0.0419539 0.0419434 0.04194192 0.04195098 0.04196933 0.04199384 0.04202227
 0.04204767 0.04206874 0.04207969 0.04208177 0.04207399 0.04205844 0.04203689 0.04200915 0.0419756 0.04193568
 0.04188831 0.0418375 0.04178336 0.04173295 0.04168767 0.04165041 0.04162193 0.04159861 0.04158026 0.04156145
 0.04154214 0.04152047 0.04149702 0.04147431 0.04145299 0.04143715 0.04142603 0.04142067 0.041418 0.04141346
 0.04140449 0.04138513 0.04135786 0.04132151 0.04128278 0.04124517 0.04121279 0.04118901 0.041171 0.04115918
 0.04114772 0.04113551 0.04112015 0.04110103 0.04108061 0.04105902 0.04103878 0.04101966 0.04099897 0.040976
 0.0409445 0.04090481 0.04085385 0.0407946 0.04073221 0.04067051 0.04061897 0.04057781 0.04055221 0.04053733
 0.04053137 0.04052893 0.04052586 0.04052153 0.04051452 0.04050646 0.04049803 0.04048771 0.04047559 0.0404585
 0.04043588 0.04040903 0.04037797 0.04034778 0.04031854 0.04029201 0.04026768 0.04024299 0.04021788 0.04019065
 0.0401619 0.04013245 0.04010225 0.04007158 0.04004027 0.04000758 0.03997527 0.03994429 0.03991679 0.03989516
 0.03987715 0.0398635 0.0398474 0.03982705 0.03979852 0.03976005 0.03971572 0.03966547 0.03961671 0.03956991
 0.03952799 0.03949088 0.0394574 0.03942772 0.03940257 0.03938207 0.03936781 0.03935798 0.03934935 0.03933907
 0.03931977 0.03929244 0.03925386 0.03921015 0.0391652 0.03912387 0.03909125 0.0390652 0.03904681 0.03903023
 0.03901376 0.03899536 0.0389741 0.03895188 0.03892896 0.03890539 0.03888125 0.03885262 0.03881938 0.03877854
 0.03873074 0.03867859 0.03862346 0.03857213 0.03852531 0.03848867 0.03846112 0.03844391 0.03843429 0.03842967
 0.03842714 0.03842344 0.03841666 0.03840481 0.0383871 0.03836267 0.03833169 0.03829372 0.03825079 0.03820281
 0.03815393 0.03810452 0.03805811 0.03801497 0.03797511 0.0379384 0.03790264 0.03786787 0.03783321 0.03779909
 0.03776689 0.03773677 0.03771016 0.03768637 0.03766531 0.0376451 0.03762371 0.03759877 0.03756721 0.03752887
 0.03748183 0.03743005 0.03737428 0.03731932 0.03726721 0.03721777 0.03717178 0.03712462 0.03707573 0.03702343
 0.03696747 0.03691341 0.03686157 0.03681814 0.03678255 0.03675412 0.03673119 0.03670648 0.03667945 0.03664415
 0.03660315 0.03655776 0.03651183 0.03647164 0.0364367 0.03641045 0.03638586 0.03635994 0.03632674 0.03628126
 0.03622876 0.03616819 0.03611282 0.03606534 0.03603164 0.03601357 0.03600299 0.03599955 0.03599314 0.03598363
 0.03596936 0.03595079 0.03593073 0.03590876 0.03588464 0.03585741 0.03582402 0.03578485 0.0357385 0.03568766
 0.0356347 0.03558303 0.03553655 0.03549676 0.03546629 0.03544312 0.03542739 0.03541568 0.03540712 0.03539919
 0.03539144 0.03538169 0.03536977 0.03535315 0.03533165 0.03530499 0.03527338 0.0352405 0.03520669 0.03517634
 0.03514906 0.03512591 0.03510565 0.03508556 0.03506449 0.03503858 0.03500862 0.03497333 0.03493597 0.03489867
 0.03486478 0.0348374 0.03481657 0.03480349 0.03479555 0.03479224 0.03479155 0.03479313 0.03479515 0.0347975
 0.03479766 0.03479545 0.03478929 0.03477915 0.03476464 0.03474563 0.03472093 0.03469037 0.0346524 0.03460725
 0.03455453 0.03449508 0.0344295 0.03436052 0.03429069 0.03422568 0.03417171 0.03413138 0.03411018 0.03410085
 0.03410242 0.03410559 0.03410617 0.03410572 0.03410323 0.03410592 0.03411523 0.03412852 0.034146 0.03415462
 0.03415397 0.03413597 0.03410171 0.03405534 0.03399869 0.03394166 0.03388504 0.03383652 0.03379481 0.0337616
 0.03373396 0.03370849 0.03368388 0.03365682 0.03363011 0.03360414 0.0335829 0.03356887 0.03356159 0.03356218
 0.03356567 0.0335715 0.03357486 0.03357505 0.03356979 0.03355888 0.03354086 0.03351558 0.03348005 0.03343413
 0.03337485 0.03330314 0.0332202 0.03312938 0.03303952 0.03295565 0.03289213 0.03284989 0.03283854 0.03284971
 0.03288045 0.03291946 0.03295816 0.03299203 0.03301622 0.03303323 0.03304291 0.03304758 0.03304819 0.03304245
 0.03303028 0.03300875 0.0329776 0.03293696 0.03288683 0.03282706 0.03275797 0.03268065 0.03259768 0.03252016
 0.03245194 0.03241146 0.0323961 0.03241185 0.03244878 0.03249661 0.03254646 0.03258685 0.03261204 0.03261475
 0.032594 0.03254501 0.03247938 0.0323968 0.03232043 0.0322544 0.0322165 0.03221052 0.03223507 0.03229073
 0.03236311 0.03245141 0.0325401 0.03262873 0.03270632 0.03277354 0.03282721 0.03286859 0.03289956 0.03292095
 0.03293426 0.03294252 0.03294896 0.03296019 0.03298441 0.03302271 0.03308035 0.03314879 0.03322438 0.0333054
 0.03338774 0.03348638 0.03360393 0.03375026 0.03392952 0.03412002 0.03432112 0.03449623 0.03464434 0.03475416
 0.03482895 0.03489066 0.03494256 0.03501335 0.03509847 0.03520063 0.03531198 0.03541513 0.03551393 0.03560329
 0.03569735 0.0358087 0.03594417 0.03611587 0.03631182 0.03653097 0.03675739 0.03698305 0.03721252 0.03744056
 0.03770417 0.03800418 0.03840164 0.03890179 0.03953155 0.04029016 0.04113052 0.04205159 0.04301747 0.04404312
 0.0451754 0.04643498 0.04791141 0.049603 0.05156277 0.05374391 0.05611641 0.05860516 0.06112893 0.0636363
 0.0660627 0.06841174 0.07066812 0.07285232 0.07498188 0.07700121 0.07891467 0.08059292 0.08201678 0.08312946
 0.08392222 0.08444187 0.08469103 0.08472721 0.08455218 0.0842034 0.08368278 0.08301895 0.08221366 0.08127958
 0.08023443 0.07910496 0.07794408 0.0768389 0.07581867 0.07495728 0.07421698 0.07359645 0.07305338 0.07256465
 0.07211836 0.07170574 0.07132582 0.07097597 0.0706626 0.0703819 0.07018193 0.07006495 0.07009955 0.0702865
 0.07059313 0.07101078 0.07144079 0.07188993 0.07233758 0.07279919 0.07331187 0.07388185 0.07453753 0.07528412
 0.0761309 0.0771093 0.07823765 0.07958839 0.08121563 0.08316598 0.08551158 0.08811826 0.09099101 0.09386117
 0.096667 0.09927385 0.1016458 0.1038149 0.105778 0.1076299 0.1093773 0.111173 0.1130319 0.1151731
 0.1175759 0.1202946 0.1232216 0.1260336 0.1287073 0.1310019 0.1330391 0.134896 0.1366638 0.138475
 0.1403329 0.1422837 0.1442952 0.1463618 0.1484635 0.1506017 0.1527213 0.1548147 0.1568162 0.1587089
 0.1605218 0.1622548 0.16396 0.1656374 0.1672179 0.1686943 0.1699579 0.1710249 0.1719114 0.1726524
 0.1733729 0.1740751 0.1748436 0.1756146 0.1763202 0.1769443 0.1774243 0.1778285 0.1781933 0.1785422
 0.1789092 0.1792444 0.1795381 0.1797528 0.1798719 0.1799157 0.1798808 0.1798251 0.1797526 0.1797185
 0.1797244 0.1797564 0.1798092 0.1798238 0.1798014 0.179717 0.1795758 0.179382 0.179137 0.1788468
 0.178509 0.178124 0.1776867 0.1771934 0.176636 0.1760067 0.175305 0.1745217 0.1736855 0.1727981
 0.171909 0.1710307 0.170187 0.169384 0.1686223 0.1679015 0.167238 0.1666328 0.1661146 0.1656826
 0.1653417 0.1650871 0.1648963 0.1647674 0.1646813 0.1646417 0.1646468 0.1647025 0.1648155 0.1649939
 0.1652468 0.1655838 0.1660136 0.1665438 0.1671788 0.1679268 0.1687894 0.1697824 0.1709113 0.1721778
 0.1735881 0.1750944 0.176695 0.1783149 0.1799504 0.1815628 0.1831514 0.1847052 0.1862103 0.1875917
 0.1888286 0.1898001 0.1905302 0.1909997 0.1912694 0.1914236 0.191502 0.1915847 0.1916642 0.1917626
 0.1918534 0.1919246 0.1919731 0.1919889 0.1920028 0.1920173 0.1920738 0.1921846 0.1923197 0.1924803
 0.1925875 0.192638 0.1926126 0.1925137 0.1923627 0.1921615 0.1919324 0.191674 0.1913979 0.1910945
 0.19076 0.1903569 0.1898407 0.1891428 0.1881591 0.1868968 0.1853073 0.1834872 0.1814821 0.1793208
 0.1770182 0.1746032 0.1720682 0.1695331 0.1670112 0.1646156 0.1623616 0.1602431 0.1582597 0.1563399
 0.1544832 0.152657 0.1508701 0.1491528 0.1475119 0.1459907 0.1445764 0.1432687 0.1420374 0.1408384
 0.1396452 0.1384157 0.1371298 0.1357675 0.1342941 0.1326839 0.1309283 0.1289819 0.1270211 0.1250627
 0.1233403 0.1219161 0.1207127 0.1197357 0.1187896 0.1178652 0.116884 0.1158521 0.1148141 0.1137783
 0.1128159 0.11192 0.1111004 0.1103569 0.1096839 0.1091091 0.1086728 0.1083956 0.1083256 0.1084366
 0.1087273 0.1091632 0.1097225 0.1104 0.111186 0.1120949 0.1131197 0.1143198 0.1156893 0.1173914
 0.1194399 0.1219762 0.1250054 0.1282868 0.1317867 0.1350159 0.1379817 0.1404708 0.142525 0.1441766
 0.1454485 0.1463977 0.147056 0.1474814 0.1477398 0.1479159 0.1480793 0.1483231 0.1486332 0.1490497
 0.1494536 0.1498038 0.150051 0.1501631 0.1501993 0.1501621 0.1501188 0.150077 0.1500629 0.1500779
 0.1501044 0.1501408 0.1501597 0.1501627 0.1501436 0.1501074 0.1500682 0.1500281 0.1500024 0.1499823
 0.149961 0.1499293 0.1498681 0.1497937 0.149705 0.1496423 0.1496252 0.1496848 0.149841 0.1500889
 0.1504329 0.1508523 0.1513437 0.1519015 0.1525262 0.1531981 0.1539159 0.1545915 0.1552185 0.15569
 0.1560107 0.1561498 0.1561221 0.1559611 0.1556788 0.155319 0.154888 0.1544155 0.1539011 0.1533572
 0.152775 0.1521543 0.1514791 0.1507426 0.1499287 0.1490285 0.14804 0.1469558 0.1458067 0.1445921
 0.1433701 0.1421459 0.1409633 0.1398249 0.1387438 0.1377208 0.136768 0.135888 0.1351052 0.1344183
 0.1338401 0.1333572 0.1329505 0.1325959 0.132251 0.1318866 0.1314544 0.130935 0.1302903 0.1295399
 0.1286723 0.127752 0.1267963 0.1258662 0.1249842 0.124159 0.1233989 0.1226718 0.1219757 0.1212806
 0.1205846 0.1198853 0.1191845 0.1185036 0.1178441 0.117226 0.1166479 0.1161144 0.1156244 0.1151774
 0.114774 0.1144161 0.1141016 0.1138304 0.1135963 0.1133953 0.113219 0.1130626 0.1129184 0.1127819
 0.1126517 0.1125246 0.1124133 0.1123179 0.1122614 0.1122462 0.1122867 0.1123838 0.1125339 0.1127372
 0.112991 0.1132986 0.1136777 0.1141332 0.1146946 0.1153615 0.1161519 0.1170526 0.118056 0.1191341
 0.1202585 0.1213886 0.122491 0.1235149 0.1244302 0.125184 0.1257513 0.1260963 0.1262018 0.1260707
 0.1256961 0.1251237 0.1243543 0.1234615 0.1224493 0.1213964 0.120306 0.1192401 0.1181986 0.1172144
 0.1162841 0.1154141 0.1145998 0.1138333 0.1131123 0.1124283 0.1117839 0.1111782 0.1106167 0.1101037
 0.1096417 0.1092343 0.1088791 0.1085764 0.1083226 0.1081172 0.1079568 0.1078412 0.1077638 0.1077243
 0.1077122 0.1077271 0.1077553 0.1077959 0.1078316 0.1078612 0.107867 0.10785 0.1078023 0.1077292
 0.107638 0.1075376 0.1074453 0.1073685 0.1073244 0.1073124 0.1073404 0.1073965 0.1074778 0.1075682
 0.1076601 0.1077484 0.1078287 0.1079097 0.1079918 0.1080848 0.1081903 0.1083076 0.1084367 0.1085711
 0.1087108 0.1088557 0.1090071 0.1091743 0.1093571 0.1095627 0.1097858 0.1100183 0.110251 0.1104642
 0.1106531 0.1108026 0.1109162 0.1109925 0.1110339 0.1110443 0.1110152 0.1109457 0.1108221 0.1106394
 0.1103952 0.1100866 0.1097273 0.1093179 0.1088762 0.1084035 0.1079115 0.1074006 0.1068804 0.1063522
 0.1058295 0.1053133 0.1048157 0.1043349 0.1038724 0.1034258 0.1029906 0.102569 0.1021608 0.1017717
 0.101407 0.1010691 0.1007619 0.1004832 0.1002331 0.1000085 0.09980848 0.09963164 0.09947768 0.09934536
 0.09923459 0.09914377 0.09907278 0.09902303 0.09899502 0.09899687 0.09902969 0.09910548 0.09922389 0.09939107
 0.09960327 0.0998547 0.1001404 0.1004491 0.1007782 0.1011201 0.1014754 0.1018414 0.1022216 0.1026165
 0.1030331 0.1034739 0.1039456 0.1044511 0.1049914 0.1055676 0.1061768 0.106819 0.1074898 0.1081893
 0.1089056 0.1096375 0.1103633 0.1110816 0.111772 0.1124349 0.1130618 0.113654 0.1142108 0.1147322
 0.1152179 0.1156661 0.116075 0.1164412 0.1167619 0.1170332 0.1172516 0.117416 0.1175241 0.1175808
 0.1175859 0.1175487 0.1174698 0.1173614 0.1172241 0.1170761 0.1169185 0.1167764 0.1166514 0.1165698
 0.1165318 0.1165526 0.1166287 0.116755 0.1169249 0.1171183 0.1173311 0.1175455 0.1177632 0.1179785
 0.1181973 0.1184216 0.1186596 0.118915 0.1191994 0.1195172 0.1198796 0.1202909 0.1207547 0.1212737
 0.12184 0.1224543 0.123097 0.1237674 0.1244358 0.1251008 0.1257334 0.1263341 0.126891 0.127408
 0.1278939 0.1283537 0.1288052 0.1292504 0.1297021 0.130158 0.1306205 0.1310866 0.1315537 0.132023
 0.1324952 0.1329682 0.1334455 0.1339073 0.1343521 0.1347484 0.1350895 0.1353605 0.1355573 0.1356933
 0.1357688 0.1358087 0.1358138 0.1358021 0.1357738 0.135738 0.1356954 0.1356525 0.1356105 0.1355764
 0.1355496 0.1355349 0.135525 0.1355153 0.1354915 0.1354398 0.1353499 0.1352092 0.1350231 0.1347873
 0.1345228 0.1342318 0.1339439 0.1336638 0.1334182 0.1332116 0.1330492 0.1329322 0.1328407 0.1327736
 0.1327086 0.1326458 0.1325773 0.1325026 0.1324163 0.1323153 0.1321873 0.1320334 0.1318475 0.1316382
 0.1314141 0.1311826 0.1309548 0.1307296 0.1305098 0.130291 0.130071 0.1298499 0.1296268 0.1294044
 0.1291837 0.1289633 0.1287436 0.1285171 0.1282832 0.1280359 0.1277754 0.1275051 0.1272254 0.1269417
 0.1266521 0.1263517 0.1260373 0.1256967 0.1253293 0.1249272 0.124492 0.1240217 0.1235192 0.1229847
 0.1224256 0.1218453 0.1212544 0.1206583 0.1200622 0.1194693 0.1188796 0.1182933 0.1177118 0.1171354
 0.1165654 0.116002 0.1154454 0.1148959 0.1143579 0.1138312 0.1133186 0.1128168 0.1123132 0.1118038
 0.1112695 0.1107134 0.1101314 0.1095307 0.1089212 0.1083032 0.1076817 0.1070517 0.1064105 0.1057581
 0.1050932 0.1044178 0.1037332 0.1030349 0.1023225 0.1015907 0.1008384 0.1000695 0.09928412 0.09849079
 0.09768985 0.09688574 0.09607829 0.09526764 0.0944545 0.09364083 0.09283 0.09203091 0.09124975 0.0905024
 0.0897933 0.08913714 0.08852871 0.0879712 0.08744988 0.08695679 0.08647992 0.08601015 0.08554964 0.08509608
 0.0846592 0.08424191 0.08384226 0.08346204 0.08308071 0.08269711 0.0822888 0.08185532 0.08139353 0.08090584
 0.08040972 0.07990821 0.07942414 0.07895852 0.07852717 0.07812665 0.07776009 0.07741764 0.07708864 0.076762
 0.07642154 0.07606772 0.07569245 0.07531185 0.07493011 0.0745635 0.07421964 0.07389823 0.0736016 0.0733192
 0.07304931 0.07279124 0.07254444 0.07232085 0.07212082 0.07194949 0.07180516 0.07167532 0.07155874 0.07144165
 0.07132746 0.07121882 0.07111924 0.07103855 0.07097413 0.0709271 0.07089259 0.07086609 0.07084519 0.07082906
 0.07080933 0.07078494 0.07073823 0.07066267 0.07055134 0.07039826 0.07022444 0.07003027 0.06984807 0.06968051
 0.06954341 0.06943703 0.06935692 0.06930231 0.06926464 0.06924429 0.06923879 0.06924857 0.06927418 0.06931435
 0.06936666 0.06943036 0.06950174 0.06958545 0.06968315 0.0698034 0.06995303 0.07013478 0.07035268 0.07060231
 0.07088172 0.07119392 0.07153733 0.07192758 0.07236733 0.07286079 0.07341011 0.07397775 0.07456046 0.07507954
 0.07552969 0.07582902 0.0759799 0.07594419 0.07573913 0.07538951 0.07492437 0.07441045 0.07387469 0.0733839
 0.07294727 0.07260149 0.07233274 0.07214557 0.0720152 0.07193104 0.07187794 0.07184703 0.07184103 0.0718583
 0.07190827 0.07199273 0.0721118 0.07226641 0.07243825 0.07262598 0.0727964 0.07294814 0.07305305 0.07311463
 0.07313254 0.07311494 0.07308614 0.07305137 0.07303376 0.07303236 0.07305533 0.07310081 0.07317017 0.07326062
 0.07337339 0.07349674 0.07362792 0.07374907 0.07385294 0.07393345 0.07398564 0.07402362 0.07404777 0.07407802
 0.07411627 0.07416824 0.07423387 0.0743031 0.07437509 0.07443795 0.07449195 0.07453228 0.07455959 0.07457244
 0.07457326 0.07456364 0.07455278 0.07455234 0.07457527 0.07464051 0.07474943 0.07491319 0.0751136 0.07534659
 0.07559136 0.07583842 0.07608509 0.07632747 0.07657794 0.07683801 0.07711387 0.07740657 0.07770897 0.07802092
 0.07834186 0.07867469 0.07904587 0.07946025 0.07995761 0.08053593 0.08121374 0.0819772 0.08281155 0.08369208
 0.08458386 0.08544994 0.08624628 0.08693269 0.08746575 0.0878334 0.08800952 0.08803336 0.08790449 0.08769174
 0.08740737 0.08711157 0.08681395 0.08655184 0.08632917 0.08616607 0.08606347 0.08602958 0.08606365 0.08616375
 0.08632565 0.08653057 0.08676837 0.08699823 0.08721199 0.08736836 0.08747628 0.0875264 0.08754293 0.08754599
 0.08755644 0.08759589 0.08767194 0.08779491 0.08796073 0.08817183 0.08841524 0.08868815 0.08898345 0.08929785
 0.08964619 0.09002918 0.09046452 0.09095267 0.09148268 0.09205252 0.09263578 0.09323383 0.09383937 0.09445627
 0.09509373 0.09575262 0.09643959 0.09715298 0.09789498 0.09865842 0.09944113 0.1002236 0.1009957 0.10173
 0.1024132 0.1030194 0.1035365 0.1039526 0.1042564 0.1044825 0.1046283 0.1047776 0.1049379 0.1051621
 0.1054517 0.1057613 0.1060841 0.1063283 0.1064969 0.1065523 0.1065138 0.1064214 0.1062938 0.1061948
 0.1061244 0.1061163 0.1061453 0.1062016 0.106251 0.1062616 0.1062265 0.1061274 0.1059931 0.1058292
 0.1056604 0.1054958 0.1053317 0.1051683 0.1050026 0.1048336 0.1046753 0.104528 0.1043965 0.1042803
 0.1041736 0.1040794 0.1040102 0.1039703 0.103984 0.1040446 0.1041539 0.1042919 0.1044305 0.1045525
 0.1046246 0.1046531 0.1046232 0.104576 0.1045211 0.1045163 0.1045931 0.1047401 0.1049732 0.1051921
 0.1053806 0.1055001 0.1055436 0.1055368 0.1054806 0.1053871 0.1052567 0.1050942 0.1049035 0.104709
 0.1045128 0.1043376 0.1041767 0.1040263 0.1038811 0.1037292 0.1035738 0.1034142 0.1032531 0.1030933
 0.1029326 0.1027695 0.1026067 0.1024421 0.1022903 0.1021527 0.1020498 0.1019856 0.101967 0.1019965
 0.102049 0.1021231 0.1021797 0.1022187 0.1022245 0.1022 0.1021549 0.1020893 0.1020085 0.1019121
 0.1017977 0.1016761 0.1015612 0.101467 0.1014189 0.1014088 0.1014441 0.1014978 0.1015593 0.1016041
 0.1016202 0.1015983 0.1015294 0.1014379 0.1013225 0.1012362 0.1011841 0.1011992 0.1012834 0.1014362
 0.1016573 0.1019464 0.1022993 0.1026985 0.1031286 0.1035265 0.1038856 0.1041521 0.1043457 0.1044735
 0.1045544 0.1046167 0.104656 0.1046762 0.1046767 0.1046519 0.1046259 0.104605 0.1046121 0.1046566
 0.1047347 0.1048503 0.1049734 0.1051032 0.1051932 0.1052411 0.1052204 0.1051342 0.1050137 0.1048657
 0.1047489 0.1046597 0.1046183 0.104615 0.1046344 0.1046758 0.1047315 0.1048014 0.1048853 0.1049747
 0.1050622 0.105146 0.105224 0.1052941 0.1053609 0.105397 0.1053965 0.1053399 0.1052176 0.105069
 0.1048953 0.1047557 0.1046533 0.1045926 0.1045705 0.1045464 0.104519 0.1044601 0.1043725 0.1042521
 0.1040997 0.1039153 0.1036979 0.1034447 0.1031575 0.1028347 0.102486 0.1021156 0.101739 0.1013666
 0.1010028 0.1006541 0.1003091 0.09996506 0.09961881 0.09926769 0.09892606 0.09859542 0.09828065 0.09798209
 0.09768666 0.09739447 0.09710336 0.09681569 0.09654669 0.0962942 0.09606195 0.09583938 0.09560478 0.09534704
 0.09503549 0.09467304 0.09424505 0.09377624 0.0932781 0.09277954 0.09230354 0.091849 0.09142406 0.09100635
 0.09058713 0.0901772 0.08977336 0.0894177 0.08911604 0.08886348 0.08865999</values></Ydata></AB><ScSm><Ydata ylabel="Single channel"><values byteorder="INTEL" format="FLOAT32" numvalues="1814"> 0.05634612 0.05634978 0.05640132 0.05652229 0.05669536 0.05686955 0.05699439 0.05705439 0.0570631 0.05703149
 0.05697052 0.05692504 0.05696456 0.05711662 0.05732382 0.05747988 0.05751364 0.05745478 0.05741875 0.05749417
 0.0576242 0.05762457 0.05735423 0.05687159 0.05639713 0.05611242 0.05604552 0.05619011 0.05661449 0.05726728
 0.05775165 0.057604 0.05687326 0.0561531 0.05592375 0.05609139 0.05626212 0.0562012 0.055906 0.05551511
 0.05535125 0.05583787 0.05708341 0.05853371 0.05916967 0.05814982 0.05540789 0.05184695 0.04901162 0.04826444
 0.04982711 0.05249181 0.05452719 0.0550633 0.05451715 0.05372468 0.0530341 0.05240497 0.05199412 0.05219725
 0.05310707 0.05413642 0.05431864 0.05313613 0.05113219 0.04952279 0.04908436 0.04966569 0.05083661 0.05236363
 0.0535566 0.05288459 0.04947111 0.04500977 0.04302543 0.0455304 0.05087985 0.05537699 0.05656343 0.05461399
 0.05128563 0.04845359 0.04739555 0.0484435 0.05091803 0.05368998 0.05586909 0.05686188 0.05621897 0.05401617
 0.05124402 0.04933927 0.04930455 0.05130676 0.05464016 0.05779647 0.05914803 0.0581428 0.05567208 0.05312838
 0.05148527 0.05129394 0.05282351 0.05579056 0.05933094 0.06249619 0.06464463 0.06551616 0.06528867 0.06446148
 0.06347235 0.06262174 0.06234107 0.06293453 0.06387441 0.0639891 0.06273391 0.06091322 0.05985174 0.06002186
 0.06066341 0.06071436 0.05989092 0.05853111 0.05654875 0.05339131 0.04930229 0.04568551 0.04370631 0.0433877
 0.04442992 0.0466837 0.04919107 0.05011391 0.04874514 0.046811 0.04677182 0.04919365 0.05244306 0.05467096
 0.05552655 0.05603527 0.05728094 0.05930189 0.060952 0.06076356 0.05839197 0.0554427 0.05434621 0.05597772
 0.05881339 0.06081014 0.06156771 0.0621332 0.06315734 0.06388029 0.06292027 0.05991635 0.05642377 0.05496006
 0.05681216 0.06074531 0.06389908 0.06391214 0.060513 0.05557334 0.05164447 0.05019448 0.05121515 0.05419247
 0.05867597 0.06376758 0.06788231 0.0696367 0.06886174 0.06652461 0.06362314 0.06026265 0.0561794 0.0522726
 0.05080213 0.05325913 0.05846733 0.06356019 0.06653936 0.06727911 0.06642637 0.06418325 0.06047765 0.05611705
 0.05317201 0.0533823 0.05607 0.05851127 0.05878386 0.05752597 0.0565509 0.05658152 0.05696689 0.05706703
 0.05716401 0.0579724 0.05961578 0.06134165 0.06224825 0.06210893 0.06142124 0.06082495 0.0605192 0.06011762
 0.05918871 0.05810244 0.05800554 0.05957649 0.06210372 0.06421328 0.06524782 0.06552702 0.0654515 0.06479308
 0.06303182 0.06034603 0.05802867 0.05753749 0.05908976 0.0615209 0.06349722 0.06447761 0.06460105 0.06421258
 0.06362492 0.06301151 0.06245393 0.06216305 0.06243204 0.06322308 0.0640635 0.06452103 0.06456558 0.06436069
 0.06394658 0.06328985 0.0625083 0.06189466 0.06170943 0.06198423 0.06253547 0.06312872 0.06357346 0.06371504
 0.06349085 0.06302422 0.06254102 0.06216419 0.06188631 0.06172849 0.06178023 0.06204902 0.06238657 0.06261899
 0.06268596 0.06262372 0.06247579 0.06226319 0.06200878 0.06175932 0.06158799 0.06155822 0.06165508 0.06177997
 0.06185653 0.0619069 0.06197078 0.06199879 0.06190564 0.06170229 0.06150121 0.06139782 0.061396 0.06143899
 0.06146251 0.06140282 0.06119545 0.06083028 0.06042422 0.06017974 0.06022192 0.06050222 0.06087756 0.06122537
 0.06146578 0.06155907 0.06153434 0.06146831 0.06139871 0.06129263 0.06111726 0.06091633 0.06080262 0.06087021
 0.06110416 0.06138608 0.06159844 0.06170259 0.06171986 0.06169461 0.06168701 0.06173594 0.06180375 0.06180801
 0.06172488 0.06162304 0.06158699 0.0616322 0.06169821 0.061715 0.06167803 0.06165175 0.0616916 0.06178218
 0.06186781 0.06192209 0.06196447 0.06201689 0.0620597 0.06204047 0.0619364 0.06179696 0.06169822 0.06166238
 0.06165579 0.0616584 0.06169086 0.0617657 0.0618478 0.06188481 0.06186512 0.06182858 0.06181525 0.06181448
 0.06178023 0.06169195 0.06157947 0.06148745 0.06143521 0.0614139 0.06140453 0.06139079 0.06136275 0.06131528
 0.06124626 0.0611575 0.06105493 0.06094867 0.06085996 0.0608215 0.06084906 0.06090686 0.06092069 0.06084234
 0.06069584 0.06055001 0.06044778 0.06037188 0.06028 0.06015886 0.06003153 0.05992224 0.05983388 0.05975897
 0.05969257 0.05963083 0.05957631 0.05955201 0.05959003 0.05968913 0.05979568 0.05984762 0.05983424 0.05979801
 0.05978318 0.05980033 0.0598373 0.05988526 0.0599509 0.06004922 0.06017937 0.06030683 0.06038834 0.06042111
 0.0604491 0.06051594 0.06063155 0.06078295 0.06094662 0.06108609 0.0611711 0.06121339 0.06126074 0.06134464
 0.06145195 0.06155604 0.06165469 0.06176328 0.0618872 0.06202111 0.06217024 0.06235342 0.06258057 0.06283399
 0.06307372 0.06326208 0.06339386 0.06350984 0.06367102 0.06390843 0.06419778 0.06448429 0.06472932 0.06493532
 0.06513222 0.06534208 0.06556155 0.06578349 0.0660245 0.06630941 0.06663207 0.06695466 0.06724964 0.06752362
 0.06779744 0.06808008 0.06836782 0.06865887 0.06896155 0.06928597 0.06962538 0.0699503 0.07023127 0.07046796
 0.07069144 0.07094017 0.07123315 0.07155116 0.07183927 0.07204862 0.0721914 0.07233886 0.07254747 0.0728007
 0.07304278 0.07325575 0.07347514 0.07373282 0.07401302 0.07427546 0.07450499 0.07472402 0.07496154 0.07521699
 0.07545349 0.07562859 0.07573709 0.07582109 0.07593124 0.07608695 0.07628362 0.07652001 0.0767924 0.07707125
 0.0773133 0.07749821 0.07763528 0.07774255 0.07783923 0.0779473 0.07807717 0.07821611 0.07834353 0.07844719
 0.07852037 0.07856753 0.07862307 0.078736 0.0789197 0.07914051 0.07936932 0.07961573 0.07989244 0.08017594
 0.08043578 0.08068553 0.08096483 0.08127061 0.08154222 0.08172591 0.08182495 0.08187334 0.0818942 0.08190987
 0.0819618 0.08207932 0.08223553 0.0823623 0.0824066 0.08235621 0.08222316 0.08202815 0.08180328 0.08159457
 0.08145344 0.08142528 0.08154184 0.08181833 0.08224988 0.08280092 0.08339815 0.08394861 0.08437978 0.0846626
 0.08479728 0.08479348 0.08467588 0.08449083 0.0842779 0.08402894 0.08369121 0.0832154 0.08259053 0.08183217
 0.08095598 0.07997669 0.0789286 0.07787742 0.07690737 0.07609396 0.0754877 0.07512162 0.07502299 0.07519779
 0.07559643 0.07610682 0.07659117 0.07692599 0.07701455 0.07679414 0.07625978 0.07547523 0.07454254 0.07355691
 0.07258741 0.0716781 0.07085022 0.07011527 0.06950691 0.06910048 0.06899378 0.06927088 0.06998197 0.0711329
 0.0726645 0.07443707 0.07625765 0.07795206 0.07943115 0.0806984 0.08180639 0.08281256 0.08375984 0.08466831
 0.08553301 0.08634113 0.08709386 0.08780129 0.08845809 0.08903752 0.08950745 0.0898426 0.09002891 0.09007135
 0.08999854 0.08985382 0.08968261 0.08952108 0.08937657 0.0892082 0.08893728 0.0884921 0.08785246 0.08706456
 0.08622923 0.08548938 0.08503151 0.08507895 0.08583069 0.08734865 0.08948341 0.0919241 0.09434046 0.09650004
 0.09829801 0.09973116 0.1008619 0.1017815 0.102574 0.1032961 0.1039762 0.1046219 0.1052305 0.1057995
 0.1063326 0.1068386 0.1073292 0.1078133 0.108288 0.1087376 0.1091509 0.1095403 0.1099348 0.1103516
 0.1107788 0.1111894 0.1115721 0.111942 0.1123161 0.1126877 0.1130362 0.1133585 0.113675 0.1140065
 0.1143559 0.1147131 0.115063 0.1153878 0.1156779 0.1159432 0.1162066 0.1164839 0.1167741 0.11707
 0.1173659 0.1176562 0.1179338 0.118199 0.1184638 0.1187385 0.1190146 0.1192684 0.1194867 0.1196821
 0.1198812 0.1201008 0.120336 0.1205691 0.1207901 0.1210109 0.1212565 0.1215366 0.1218296 0.1221011
 0.1223346 0.122542 0.122747 0.1229659 0.1232034 0.1234555 0.1237116 0.1239602 0.124198 0.1244337
 0.1246769 0.124925 0.1251649 0.1253877 0.1255955 0.1257965 0.1259978 0.1262048 0.1264223 0.1266548
 0.1269051 0.1271709 0.1274392 0.1276909 0.1279145 0.1281161 0.1283109 0.1285078 0.1287073 0.1289102
 0.1291223 0.1293493 0.1295888 0.1298338 0.1300789 0.1303226 0.1305637 0.1307986 0.1310258 0.1312511
 0.1314856 0.1317349 0.1319919 0.1322412 0.1324721 0.1326858 0.1328923 0.133102 0.1333203 0.1335468
 0.1337749 0.1339975 0.1342135 0.1344287 0.1346471 0.1348664 0.1350814 0.1352917 0.1355029 0.1357213
 0.1359472 0.1361754 0.1364002 0.1366197 0.1368344 0.1370461 0.1372578 0.137472 0.1376878 0.1379023
 0.1381146 0.1383252 0.1385343 0.1387436 0.1389567 0.139176 0.1394007 0.1396284 0.1398574 0.1400852
 0.1403077 0.1405196 0.1407193 0.140914 0.1411157 0.1413313 0.1415586 0.1417923 0.1420254 0.1422501
 0.1424635 0.1426728 0.1428888 0.1431159 0.143348 0.1435714 0.143773 0.1439544 0.1441331 0.1443259
 0.1445339 0.1447455 0.1449512 0.1451506 0.1453491 0.1455511 0.1457561 0.1459624 0.1461695 0.1463751
 0.1465743 0.1467676 0.1469634 0.147168 0.1473808 0.1476019 0.1478328 0.1480721 0.1483172 0.1485674
 0.1488196 0.1490677 0.1493091 0.1495443 0.1497721 0.1499915 0.1502061 0.1504207 0.1506379 0.1508585
 0.1510819 0.1513071 0.1515374 0.151775 0.1520125 0.1522394 0.1524552 0.1526679 0.1528846 0.1531071
 0.1533305 0.1535454 0.1537507 0.1539603 0.1541853 0.1544201 0.1546535 0.1548817 0.1551042 0.1553217
 0.1555401 0.1557628 0.1559851 0.1562033 0.1564212 0.1566434 0.1568707 0.1570996 0.1573196 0.1575229
 0.1577195 0.1579273 0.1581464 0.1583622 0.158569 0.1587741 0.1589886 0.1592195 0.1594563 0.1596647
 0.1597963 0.1597571 0.1593006 0.1579193 0.1548407 0.1491969 0.140379 0.1284267 0.1141468 0.0988211
 0.0837381 0.06986827 0.05777915 0.04771157 0.03970363 0.03367612 0.02948757 0.02701813 0.02625794 0.02740098
 0.03094362 0.03739177 0.04616863 0.0546462 0.05916025 0.05789375 0.05260945 0.04704603 0.04380925 0.04309547
 0.04379096 0.04493508 0.04622384 0.04783837 0.05008747 0.05306362 0.05662548 0.06076366 0.06578477 0.07192209
 0.07885683 0.08584391 0.0923531 0.09849159 0.1047598 0.1114561 0.1183657 0.1249715 0.1308686 0.1359768
 0.1404647 0.1445576 0.1484029 0.1520578 0.1555439 0.1588514 0.1618636 0.1643244 0.1659613 0.1666981
 0.1667506 0.1665025 0.1662768 0.1662149 0.1663251 0.1665824 0.1669705 0.1674781 0.1680923 0.1687914
 0.1695411 0.1703094 0.1710772 0.1718261 0.1725319 0.1731835 0.1737918 0.1743697 0.174914 0.1754137
 0.175863 0.1762654 0.1766315 0.1769745 0.1773037 0.1776237 0.1779371 0.1782428 0.1785335 0.1788026
 0.1790493 0.1792745 0.1794792 0.1796707 0.1798616 0.1800607 0.1802692 0.1804848 0.1807058 0.1809287
 0.1811467 0.1813518 0.18154 0.1817169 0.1818945 0.1820785 0.1822643 0.1824492 0.1826398 0.1828422
 0.1830506 0.183254 0.1834488 0.1836402 0.1838342 0.1840312 0.1842278 0.1844228 0.1846171 0.1848119
 0.1850092 0.1852149 0.1854326 0.1856549 0.1858719 0.1860837 0.1862963 0.1865098 0.1867218 0.186935
 0.1871475 0.1873456 0.1875179 0.1876748 0.1878456 0.1880526 0.1882866 0.1885136 0.1887104 0.1888887
 0.1890739 0.1892735 0.1894747 0.1896637 0.1898416 0.1900293 0.1902523 0.1905116 0.1907794 0.1910323
 0.19127 0.1914988 0.1917231 0.1919538 0.1921946 0.1924187 0.1925922 0.1927249 0.1928791 0.1931202
 0.1934566 0.1938258 0.1941489 0.194401 0.194618 0.1948484 0.195117 0.1954019 0.195616 0.1956702
 0.195611 0.1956402 0.1959285 0.1964433 0.1970046 0.1974685 0.1978147 0.198096 0.1983554 0.1985849
 0.1987391 0.1987878 0.1987784 0.1988482 0.1991319 0.1996236 0.2001656 0.2006054 0.2009154 0.2011438
 0.2013331 0.2015105 0.2016465 0.2016019 0.2012744 0.2008593 0.2007991 0.2013509 0.2022915 0.2031556
 0.2036997 0.2040278 0.204321 0.2046169 0.204863 0.2049681 0.2047065 0.2038401 0.2025807 0.2017262
 0.2020098 0.2033659 0.2050477 0.206374 0.2071648 0.2075864 0.2078563 0.2080901 0.2082122 0.2079711
 0.2072208 0.2062863 0.205877 0.206436 0.2076463 0.208771 0.2094025 0.2096774 0.2098883 0.2101543
 0.2103394 0.2100108 0.2086854 0.2065449 0.2047958 0.204821 0.2068252 0.2095855 0.2116617 0.2126351
 0.2129961 0.2130851 0.2125985 0.2111454 0.2088434 0.2062698 0.2042688 0.2038262 0.2054188 0.2082044
 0.2104966 0.2114243 0.2116763 0.212387 0.2137928 0.2152226 0.2159621 0.2158068 0.2149644 0.2136755
 0.2120886 0.2105918 0.2100286 0.2111113 0.2135537 0.2161629 0.217939 0.2188388 0.2192618 0.2188777
 0.2163806 0.2110543 0.2047445 0.2013613 0.203429 0.209444 0.215492 0.2191043 0.2206192 0.2213437
 0.2217954 0.2215593 0.2195382 0.2145554 0.2072112 0.2010473 0.200153 0.2051217 0.2123793 0.2175188
 0.2183018 0.2148936 0.2090708 0.2036979 0.2015637 0.2036889 0.2088718 0.2148767 0.2197806 0.2225021
 0.2227875 0.221113 0.218656 0.2170058 0.2170082 0.2175077 0.2162154 0.2125839 0.2087116 0.2062835
 0.2040046 0.2000467 0.1960784 0.1961802 0.2015244 0.2083899 0.2123169 0.2126158 0.2116061 0.2103983
 0.2070241 0.1992845 0.1888898 0.1815645 0.1820198 0.1890423 0.1965451 0.1994765 0.197803 0.1948055
 0.1927204 0.1905746 0.1858075 0.1777845 0.169559 0.1653842 0.1662899 0.1692094 0.1706417 0.16945
 0.1656929 0.1595179 0.1531562 0.1516753 0.1586716 0.1718166 0.1846227 0.1917389 0.190918 0.1819252
 0.1673299 0.1540617 0.1500547 0.157175 0.1689639 0.1765576 0.175754 0.1678468 0.1558245 0.1422518
 0.1304069 0.1247215 0.1281491 0.1391666 0.1518369 0.1588365 0.1555283 0.1434977 0.1307465 0.125955
 0.1306826 0.1383378 0.1415746 0.1389515 0.1339646 0.1304572 0.130347 0.1333513 0.1373377 0.1402909
 0.1419294 0.1416011 0.1361337 0.1236623 0.1088841 0.1000184 0.1002565 0.1060908 0.1138873 0.1231526
 0.1322639 0.1362369 0.1323261 0.1251996 0.1229674 0.1285726 0.1372668 0.1424237 0.142115 0.1394846
 0.1379189 0.1374448 0.1363928 0.1352907 0.1370205 0.1428224 0.150081 0.1552025 0.1573259 0.15803
 0.1586202 0.1591234 0.1591926 0.158696 0.1576677 0.1564092 0.155398 0.1547331 0.1540249 0.1529563
 0.1513008 0.1481333 0.1420397 0.1332027 0.1247067 0.1201583 0.1199303 0.1213727 0.1227018 0.124063
 0.1239873 0.1183334 0.1057184 0.0920267 0.0861422 0.09137422 0.1029995 0.1136642 0.119014 0.1180945
 0.111192 0.09999464 0.08937015 0.08585476 0.0923681 0.1054648 0.1190571 0.1296244 0.1365709 0.139378
 0.1371314 0.1307347 0.1237245 0.1202507 0.1225928 0.1301646 0.1396543 0.1457897 0.1439125 0.1346758
 0.1262209 0.1281555 0.1413726 0.156443 0.1641917 0.1650164 0.1650933 0.1667572 0.1673622 0.1661585
 0.167016 0.1731154 0.1822287 0.1888859 0.1891837 0.1823433 0.1701121 0.1570073 0.1491579 0.1495169
 0.1546651 0.1586597 0.1588645 0.1555808 0.1484679 0.1380282 0.1294342 0.1294313 0.1384902 0.1498002
 0.1570084 0.160025 0.1622492 0.1646556 0.1645805 0.1597611 0.1521261 0.1466313 0.1463778 0.1498996
 0.1536549 0.1557322 0.1559383 0.153759 0.1486612 0.1424332 0.1391906 0.1418638 0.1492181 0.1570204
 0.1618167 0.1630994 0.1623656 0.1611247 0.1598543 0.1581004 0.155503 0.1531389 0.1533114 0.1570865
 0.1625551 0.1667518 0.1690107 0.1711972 0.1747361 0.1786343 0.1807214 0.1800819 0.1779737 0.1767515
 0.1779853 0.1812114 0.1842533 0.1850387 0.1835523 0.1820438 0.1829708 0.1866533 0.1912217 0.1947253
 0.1967254 0.1978997 0.1988905 0.1997432 0.1998736 0.1985056 0.1957553 0.1932851 0.1931347 0.1956903
 0.1992937 0.2019309 0.202847 0.2024847 0.2014372 0.1998696 0.1978031 0.1955993 0.1939496 0.1933942
 0.193961 0.1952831 0.1969306 0.1985831 0.2000457 0.2012524 0.2022366 0.2030505 0.2037284 0.2043118
 0.2048275 0.2052293 0.2054431 0.2055024 0.2055682 0.2057584 0.2060118 0.2061759 0.2061754 0.2060132
 0.2056508 0.2050055 0.2040747 0.2029608 0.2017398 0.2003963 0.1989813 0.1978042 0.1973547 0.1979427
 0.1994079 0.2012089 0.2027912 0.2038683 0.2044324 0.2046201 0.2046032 0.2045268 0.20447 0.2044472
 0.2044497 0.2044822 0.2045561 0.2046655 0.2047896 0.2049223 0.2050827 0.2052869 0.2055176 0.2057275
 0.2058683 0.2059101 0.2058469 0.2056948 0.205476 0.2051929 0.2048179 0.2043152 0.2036751 0.2029272
 0.2021265 0.20132 0.2005203 0.1997024 0.1988316 0.1978899 0.1968641 0.195719 0.1944282 0.1930431
 0.1916884 0.1904587 0.1893445 0.1882739 0.1871882 0.1860578 0.1848739 0.1836618 0.1824782 0.1813685
 0.1803356 0.1793544 0.1783994 0.1774508 0.1764902 0.1754976 0.1744479 0.173314 0.1720815 0.1707603
 0.1693664 0.1678824 0.1662367 0.1643244 0.1620428 0.1593129 0.1560993 0.1524396 0.1484559 0.1443246
 0.1402279 0.1363198 0.1327174 0.1295023 0.1267272 0.1244217 0.1226008 0.1212784 0.1204723 0.1201944
 0.1204446 0.1212135 0.1224726 0.1241537 0.126146 0.1283151 0.1305203 0.1326325 0.134567 0.1363168
 0.1379418 0.1395104 0.1410414 0.1425 0.1438439 0.1450522 0.1461073 0.1469846 0.1476846 0.1482541
 0.148748 0.1491881 0.1495774 0.14993 0.1502659 0.1505902 0.1508967 0.1511864 0.1514711 0.1517638
 0.1520693 0.152389 0.1527333 0.1531212 0.1535701 0.1540895 0.1546831 0.1553469 0.156074 0.1568639
 0.157717 0.1586214 0.1595676 0.1605795 0.1617057 0.1629744 0.1643688 0.1658394 0.1673238 0.1687595
 0.1700933 0.1712832 0.1723014 0.1731439 0.1738339 0.1744051 0.1748845 0.1752897 0.175631 0.1759148
 0.1761503 0.1763481 0.176511 0.1766351 0.1767188 0.176757 0.1767364 0.1766515 0.1765205 0.1763689
 0.1762053 0.1760239 0.1758256 0.1756287 0.1754585 0.1753254 0.175214 0.1750964 0.1749542 0.1747839
 0.174587 0.1743632 0.1741028 0.1737791 0.1733587 0.1728251 0.172186 0.1714557 0.1706357 0.1697157
 0.1686898 0.1675669 0.1663613 0.1650786 0.1637203 0.1622908 0.1607859 0.159192 0.1575224 0.155845
 0.1542452 0.1527653 0.1513956 0.150107 0.1488759 0.1476908 0.1465491 0.1454489 0.1443845 0.1433519
 0.1423478 0.1413582 0.1403628 0.1393557 0.1383489 0.1373604 0.136415 0.1355562 0.1348451 0.1343417
 0.1340763 0.1340222 0.1341031 0.1342418 0.1343969 0.134547 0.1346614 0.1347034 0.1346537 0.13452
 0.1343315 0.1341294 0.1339541 0.1338319 0.1337605 0.1336964 0.1335623 0.1332738 0.1327617 0.1319809
 0.1309228 0.1296225 0.1281427 0.1265633 0.1249889 0.1235364 0.122289 0.1212783 0.120506 0.1199493
 0.1195433 0.1192009 0.1188751 0.1185971 0.1184436 0.1184473 0.118526 0.1185338 0.1184113 0.1182547
 0.1182115 0.1183399 0.1185855 0.1188455 0.1190345 0.11913 0.1191786 0.1192479 0.1193751 0.1195528
 0.1197346 0.1198498 0.1198454 0.1197157 0.1194809 0.1191621 0.1187848 0.1183723 0.117926 0.1174323
 0.1168734 0.116221 0.1154505 0.114567 0.1135789 0.1124715 0.1112739 0.1101358 0.1092776 0.1088588
 0.1088921 0.1092436 0.1097226 0.1102093 0.1106524 0.1109331 0.1108886 0.1106078 0.1105747 0.1113048
 0.112827 0.1146436 0.1161958 0.117249 0.1178241 0.1179469 0.117602 0.116822 0.1156619 0.1141307
 0.1122428 0.1100732 0.1077147 0.1052759 0.102927 0.1008355 0.0990728 0.09763974 0.09651348 0.09571084
 0.09534638 0.09515434 0.09365497 0.08892531 0.0815711 0.07606509 0.07697935 0.08382994 0.09141183 0.095313
 0.09544162 0.09417341 0.09311491 0.09246906 0.09212781 0.09221417 0.0928553 0.09394797 0.09516747 0.09617044
 0.09681727 0.09714396 0.09712554 0.0964936 0.09468421 0.09101364 0.08522551 0.07800038 0.07072915 0.06468253
 0.06043462 0.05789534 0.05659296 0.05594471 0.05553634 0.05531342 0.05550556 0.05634311 0.05784777 0.05987994
 0.06229609 0.06493761 0.06750989 0.06968039 0.0713551 0.07270064 0.07384533 0.07470475 0.07513758 0.07513753
 0.07482567 0.07434421 0.07379203 0.0732021 0.0725333 0.07170632 0.07071447 0.06972228 0.06898293 0.06860964
 0.06849299 0.0684695 0.06847393 0.06849883 0.06852092 0.0685178 0.06849661 0.06850051 0.06861552 0.06891634
 0.0693666 0.06982653 0.07017974 0.07041367 0.07058079 0.07069221 0.0706349 0.07026558 0.06966237 0.0691413
 0.06885272 0.06851198 0.06777285 0.06676698 0.06602262 0.06588922 0.0662351 0.06667756 0.06693077 0.06693092
 0.06680422 0.06680202 0.06714103 0.06775922</values></Ydata></ScSm><ScRf><Ydata ylabel="Single channel"><values byteorder="INTEL" format="FLOAT32" numvalues="1820"> 0.0606767 0.06085087 0.06096228 0.06100458 0.06099961 0.06099662 0.06105134 0.0611889 0.06138441 0.06157856
 0.06171788 0.06178727 0.0617998 0.06176265 0.06168306 0.06161084 0.06163044 0.06178087 0.06199989 0.06216599
 0.06219839 0.06212864 0.06207937 0.0621438 0.06226251 0.06224195 0.06193385 0.06140278 0.06088616 0.06057691
 0.0605031 0.06066225 0.06113607 0.06186827 0.06241603 0.06226382 0.06146371 0.06066799 0.06040443 0.06057169
 0.06074 0.06065378 0.06031206 0.05987033 0.05968637 0.06022529 0.06160009 0.06319042 0.06386665 0.06270839
 0.0596661 0.05575799 0.0526832 0.0519097 0.05364574 0.05655473 0.05875645 0.05932521 0.05873197 0.05788613
 0.0571522 0.05647238 0.05601577 0.05622255 0.05720207 0.058313 0.05849542 0.05718727 0.05499326 0.05324727
 0.05278916 0.05344122 0.05472761 0.05639013 0.05766944 0.05689631 0.0531361 0.04826618 0.04613834 0.04892022
 0.05478176 0.05967674 0.06093605 0.0587745 0.05513187 0.05206322 0.0509447 0.05210272 0.05477813 0.05775794
 0.0601003 0.06116521 0.06045501 0.05805372 0.05504809 0.05299751 0.05297709 0.05515873 0.05877544 0.06218936
 0.06363363 0.06251545 0.05981262 0.05704442 0.05527013 0.05508368 0.0567664 0.06000306 0.06385837 0.06730627
 0.06964332 0.07057889 0.07031222 0.06940168 0.06833145 0.06742252 0.06712994 0.06776987 0.06876335 0.06884899
 0.06745718 0.0654743 0.06433178 0.06452671 0.06522597 0.06527897 0.06437908 0.06288648 0.06070143 0.05723308
 0.05276709 0.0488389 0.04670485 0.04637881 0.04753875 0.05002915 0.05280125 0.05384138 0.05237228 0.05026849
 0.05020193 0.05278918 0.05626814 0.05864969 0.05956624 0.06013033 0.06150488 0.06371199 0.06549272 0.06525628
 0.06265348 0.05945844 0.05831545 0.06014409 0.06325421 0.06542534 0.06625156 0.06689221 0.06804627 0.06886467
 0.06783764 0.06459235 0.06084367 0.05932369 0.06139867 0.06570186 0.06912807 0.0691268 0.06541567 0.06004237
 0.05579187 0.0542607 0.055438 0.05877372 0.0637857 0.06948512 0.07412112 0.07616256 0.07540795 0.0729081
 0.06976406 0.06610459 0.06165062 0.05740807 0.05588694 0.05873387 0.06462921 0.07038601 0.07379413 0.07472388
 0.07389104 0.07150023 0.06745261 0.06266442 0.05949786 0.05992743 0.06315894 0.06607469 0.06649166 0.06515442
 0.06414206 0.06428494 0.06484423 0.06509446 0.06536512 0.06647347 0.06854424 0.07069355 0.07188189 0.07186046
 0.07121406 0.07068525 0.0704985 0.07019123 0.06925858 0.06815458 0.06824055 0.07029474 0.07344408 0.07606203
 0.07740203 0.07787264 0.07794804 0.0773278 0.07536471 0.07227476 0.06963727 0.06922837 0.07130769 0.07445067
 0.07702915 0.07838577 0.07869807 0.07839419 0.07785404 0.07728312 0.07678048 0.07660788 0.07712285 0.07827301
 0.07947572 0.08019957 0.08039929 0.08026142 0.07983308 0.07909757 0.07823901 0.07763881 0.07760157 0.07813101
 0.07898321 0.07988202 0.08060941 0.08096325 0.08083297 0.08035707 0.07984284 0.07948624 0.07929809 0.07929172
 0.07955155 0.08006456 0.08063585 0.08105157 0.08124911 0.08128831 0.08123081 0.08109649 0.08090192 0.08070847
 0.08062801 0.08074779 0.0810259 0.08131544 0.08153847 0.08176584 0.08205719 0.0823025 0.08233234 0.08214441
 0.08191875 0.08182231 0.0818737 0.08199075 0.08208695 0.08208422 0.08189732 0.08150816 0.08107229 0.08086091
 0.08104162 0.08155937 0.08223635 0.08289987 0.08340591 0.08366768 0.08372249 0.0836929 0.08364309 0.08353058
 0.08331649 0.08307584 0.08297695 0.0831528 0.08358033 0.08409002 0.08450374 0.08474632 0.08484128 0.08487174
 0.08495013 0.08513299 0.08533733 0.08541778 0.0853488 0.08526336 0.08529067 0.08540967 0.08548866 0.08544447
 0.08534069 0.08532382 0.08547013 0.0857176 0.08595116 0.08612506 0.08628332 0.08647416 0.08666037 0.08673031
 0.08661905 0.08640409 0.08623506 0.08617745 0.08618604 0.08622809 0.08634745 0.08657171 0.08682241 0.08697763
 0.08700556 0.08698991 0.087019 0.08708049 0.08708483 0.08697586 0.08679348 0.08663272 0.08656497 0.08659834
 0.08668663 0.0867616 0.08677063 0.08670413 0.08659367 0.08648057 0.08638797 0.08633134 0.08634934 0.08649153
 0.08674543 0.08698863 0.08705762 0.0868918 0.08660132 0.08637264 0.0863008 0.08631709 0.08627706 0.08610399
 0.08584123 0.08558477 0.08539314 0.08526314 0.08516446 0.08508033 0.0850278 0.0850515 0.08517691 0.08534703
 0.08542792 0.08531837 0.08505256 0.08476774 0.0845795 0.08451048 0.0845145 0.08453031 0.08452845 0.08453683
 0.08460011 0.08469686 0.08473754 0.08467051 0.08455092 0.08448334 0.08453467 0.08470713 0.08493765 0.0851095
 0.08512792 0.08501594 0.0848975 0.08486941 0.08492483 0.08500725 0.08509041 0.08518045 0.08527683 0.08537135
 0.08547792 0.08563408 0.08586264 0.0861377 0.08639324 0.08656994 0.08666575 0.0867462 0.08689743 0.08715746
 0.08748771 0.08780841 0.08806238 0.08825354 0.08842917 0.08862421 0.08883083 0.08903199 0.08924761 0.08951759
 0.08984448 0.09018423 0.09049691 0.09078076 0.09105366 0.09132621 0.09160419 0.09190689 0.09226853 0.09270588
 0.09317419 0.09357315 0.09382524 0.09395035 0.09405267 0.09424127 0.09456019 0.09495761 0.09530641 0.0955001
 0.09556511 0.09564607 0.09584726 0.096125 0.09637624 0.09659463 0.09687623 0.09727962 0.09773664 0.09811915
 0.09836537 0.09852399 0.09868649 0.09888953 0.09908716 0.0992189 0.09929167 0.09937127 0.09949975 0.09966423
 0.09986132 0.1001396 0.1005331 0.1009847 0.1013852 0.1016728 0.1018625 0.1019967 0.102106 0.1021992
 0.1022643 0.1022929 0.1023144 0.1023769 0.1024778 0.1025573 0.102581 0.1025929 0.1026623 0.1028133
 0.1030334 0.1033138 0.1036373 0.1039527 0.1042179 0.1044664 0.104775 0.1051457 0.1054693 0.1056442
 0.1056914 0.1057049 0.1057318 0.1057628 0.1058186 0.1059641 0.1062291 0.1065691 0.1069229 0.1072714
 0.1076246 0.1079759 0.1082854 0.1085005 0.1085921 0.10858 0.1085305 0.1085291 0.108644 0.1088935
 0.109231 0.109573 0.1098532 0.1100464 0.1101426 0.1101363 0.1100681 0.1100412 0.1101426 0.1103435
 0.1105093 0.1105133 0.1103176 0.1099469 0.1094287 0.1087858 0.1080727 0.1073855 0.106821 0.106428
 0.106211 0.1061788 0.1063718 0.1068145 0.1074512 0.108156 0.1088105 0.1093365 0.109656 0.1096757
 0.1093545 0.1087604 0.1080299 0.1072842 0.1065935 0.105978 0.1054108 0.1048536 0.1043379 0.1040069
 0.1040522 0.1046 0.1056444 0.1070509 0.108601 0.1100656 0.1112939 0.1122669 0.1130667 0.113785
 0.1144649 0.1151209 0.1157768 0.1164466 0.1170933 0.1176566 0.1181231 0.1185384 0.1189459 0.1193428
 0.1196953 0.119976 0.1201902 0.1203794 0.1205823 0.1207784 0.1208946 0.1208858 0.1207859 0.1206611
 0.1205351 0.1203742 0.120126 0.119763 0.1193188 0.1189132 0.1187338 0.1189551 0.1196371 0.120689
 0.1219401 0.1232484 0.1245307 0.1257065 0.1266714 0.127361 0.1278113 0.1281244 0.1283905 0.128656
 0.1289408 0.1292498 0.1295703 0.1298791 0.1301626 0.1304326 0.1307224 0.1310537 0.1314028 0.1317141
 0.1319587 0.132174 0.1324341 0.1327811 0.1331838 0.1335688 0.1338966 0.1341959 0.1345085 0.1348194
 0.1350735 0.1352554 0.1354145 0.135615 0.1358901 0.1362363 0.1366145 0.1369561 0.1372065 0.1373746
 0.1375219 0.1377023 0.1379254 0.138174 0.1384327 0.1386924 0.1389463 0.1391987 0.1394696 0.1397707
 0.1400755 0.1403304 0.140509 0.1406455 0.1408033 0.1410127 0.1412486 0.1414671 0.1416567 0.1418541
 0.1421084 0.1424267 0.1427556 0.1430214 0.1431931 0.1433031 0.143411 0.1435569 0.1437473 0.1439683
 0.1441988 0.1444171 0.1446138 0.1448015 0.1450026 0.1452237 0.1454495 0.1456634 0.1458674 0.1460748
 0.1462904 0.1465065 0.1467203 0.1469486 0.1472148 0.1475174 0.1478189 0.1480737 0.1482645 0.1484068
 0.1485261 0.1486432 0.1487748 0.1489335 0.1491195 0.1493219 0.149528 0.1497324 0.1499365 0.1501441
 0.1503578 0.1505772 0.1507992 0.1510181 0.1512315 0.1514462 0.1516748 0.1519189 0.1521595 0.152372
 0.1525503 0.1527129 0.1528853 0.1530766 0.1532736 0.153458 0.1536281 0.1538006 0.1539909 0.1541979
 0.1544101 0.154618 0.1548177 0.1550074 0.1551869 0.1553607 0.1555393 0.1557316 0.1559354 0.1561402
 0.1563411 0.1565435 0.1567527 0.1569644 0.1571699 0.157367 0.1575609 0.1577581 0.1579589 0.1581597
 0.1583585 0.158555 0.1587463 0.1589297 0.1591098 0.1592985 0.1595038 0.1597226 0.1599435 0.1601559
 0.160357 0.1605509 0.1607432 0.1609397 0.161148 0.1613715 0.1616006 0.1618199 0.1620247 0.1622232
 0.1624246 0.162633 0.1628501 0.1630734 0.1632966 0.1635146 0.1637279 0.1639377 0.164143 0.1643387
 0.1645199 0.1646898 0.1648618 0.165045 0.1652322 0.1654101 0.1655774 0.1657445 0.1659236 0.1661198
 0.1663276 0.1665341 0.1667319 0.1669242 0.1671167 0.1673113 0.1675089 0.1677099 0.1679124 0.1681164
 0.1683242 0.1685348 0.1687452 0.1689565 0.1691725 0.1693923 0.1696108 0.1698223 0.1700234 0.1702198
 0.1704243 0.1706419 0.1708633 0.1710781 0.1712826 0.1714763 0.1716634 0.1718558 0.1720618 0.1722796
 0.172504 0.1727302 0.1729501 0.1731592 0.1733642 0.1735723 0.1737828 0.173994 0.1742051 0.1744128
 0.1746196 0.1748359 0.1750628 0.1752888 0.175509 0.175729 0.1759482 0.1761616 0.1763691 0.1765702
 0.1767635 0.1769575 0.1771603 0.1773539 0.1774841 0.1774255 0.1768822 0.1752828 0.1717749 0.1654035
 0.1555006 0.1421177 0.1261559 0.1090408 0.09220396 0.07672451 0.06323491 0.05200577 0.0430837 0.03638165
 0.03173793 0.02901357 0.02819436 0.02949205 0.0334522 0.04063154 0.05038431 0.05978425 0.06476022 0.06330955
 0.05741309 0.05122969 0.0476383 0.04684125 0.04760128 0.04885974 0.05028415 0.05207694 0.0545797 0.05789016
 0.06184799 0.06644743 0.07203559 0.07886804 0.08658022 0.09434204 0.1015747 0.1084083 0.1153977 0.1228621
 0.1305528 0.1378976 0.1444542 0.1501313 0.1551066 0.1596309 0.1638823 0.1679344 0.1718028 0.1754635
 0.1787874 0.181503 0.1833168 0.1841369 0.1841865 0.1838832 0.1835953 0.1834962 0.1836021 0.1838789
 0.1842993 0.1848457 0.1855045 0.1862562 0.1870678 0.1879032 0.1887394 0.1895614 0.1903518 0.191096
 0.1917886 0.1924276 0.1930097 0.1935347 0.1940065 0.194433 0.1948294 0.1952135 0.1955926 0.1959604
 0.1963074 0.1966284 0.1969227 0.1971933 0.1974442 0.1976757 0.1978875 0.1980849 0.1982771 0.1984695
 0.1986644 0.1988656 0.1990757 0.1992939 0.1995167 0.1997402 0.1999617 0.2001806 0.2003963 0.2006043
 0.2007986 0.2009807 0.2011587 0.2013386 0.2015207 0.2017054 0.2018941 0.2020875 0.2022834 0.2024795
 0.2026767 0.2028799 0.2030904 0.2032984 0.2034943 0.2036867 0.2038937 0.2041181 0.2043456 0.2045667
 0.2047832 0.2049986 0.2052138 0.205427 0.2056257 0.2057915 0.2059242 0.2060547 0.2062238 0.206447
 0.2067007 0.2069432 0.2071511 0.2073346 0.2075169 0.2077082 0.2079021 0.2080865 0.2082584 0.2084381
 0.208655 0.2089106 0.209174 0.2094238 0.2096654 0.2099027 0.2101276 0.2103441 0.210562 0.2107641
 0.2109191 0.2110362 0.2111849 0.2114384 0.2117974 0.2121791 0.2124938 0.2127287 0.2129375 0.2131725
 0.2134503 0.2137417 0.213954 0.2139898 0.2138934 0.2138811 0.2141449 0.2146619 0.2152459 0.2157405
 0.2161154 0.216418 0.2166879 0.2169132 0.2170441 0.2170514 0.2169941 0.2170288 0.2173026 0.2178052
 0.2183635 0.2188134 0.2191275 0.2193567 0.2195405 0.2197003 0.219801 0.2196983 0.2192912 0.2187937
 0.2186802 0.2192276 0.2202016 0.2211061 0.2216742 0.222005 0.2222855 0.2225622 0.2227927 0.2228819
 0.2225691 0.2215805 0.2201541 0.2191818 0.2194721 0.2209404 0.222758 0.2241811 0.2250186 0.2254501
 0.2257059 0.2259105 0.2259906 0.2256851 0.2248432 0.2238147 0.2233621 0.2239603 0.2252607 0.2264591
 0.2271131 0.2273776 0.2275782 0.2278452 0.2280249 0.22764 0.2261667 0.2238113 0.2218914 0.2219073
 0.2240758 0.2270678 0.2293191 0.2303711 0.2307519 0.2308293 0.230272 0.2286541 0.2261039 0.2232505
 0.2210185 0.2204927 0.222199 0.225214 0.2276938 0.2286962 0.2289781 0.2297626 0.2312821 0.232796
 0.2335398 0.2333136 0.2323574 0.2309337 0.2291931 0.2275483 0.2269155 0.2280731 0.2307127 0.2335368
 0.2354549 0.2364151 0.2368455 0.2363833 0.2336148 0.2277749 0.2208812 0.2171823 0.219413 0.2259355
 0.2324978 0.2364182 0.2380618 0.238843 0.2393161 0.2390281 0.2367954 0.2313513 0.2233519 0.2166406
 0.2156543 0.2210359 0.2289066 0.234481 0.2353187 0.2315894 0.2252344 0.2193879 0.2170863 0.2194278
 0.2250964 0.2316575 0.2370169 0.2399993 0.2403334 0.2385379 0.2358965 0.2341479 0.2342148 0.2348346
 0.2335295 0.2297328 0.2257263 0.2232936 0.2209716 0.2167624 0.2125153 0.2127027 0.218602 0.2261502
 0.2305055 0.2309553 0.2300434 0.2289552 0.2255106 0.217309 0.2062643 0.198713 0.1998737 0.2084246
 0.2176788 0.222137 0.2218668 0.220546 0.2205591 0.2205558 0.2173395 0.2100278 0.2021865 0.1988457
 0.2011678 0.2054187 0.2074042 0.2058212 0.2008228 0.1926798 0.184169 0.1814599 0.1889378 0.20386
 0.2184812 0.2264239 0.2250496 0.2141233 0.1967121 0.1810317 0.1764618 0.1851601 0.1994406 0.2088299
 0.20839 0.1996439 0.1861001 0.170821 0.1578218 0.1525764 0.1587729 0.1745484 0.1924397 0.2030834
 0.2004279 0.1864715 0.1716912 0.1675142 0.1759076 0.1879869 0.1939347 0.1918966 0.1866392 0.1834372
 0.1850247 0.1910391 0.1984051 0.2042418 0.2081638 0.2090477 0.2019625 0.1840991 0.1626104 0.1498822
 0.1506816 0.1597644 0.1717783 0.1860471 0.200053 0.20616 0.2002145 0.1893787 0.1860045 0.1945214
 0.2076581 0.2153375 0.2146526 0.210381 0.2076379 0.2064437 0.2042656 0.2018965 0.2036752 0.2114811
 0.2214435 0.2282735 0.2307782 0.2313586 0.2319435 0.2325296 0.2325748 0.2318867 0.230536 0.2289933
 0.2279885 0.2276922 0.2275551 0.2271381 0.2260973 0.2229335 0.2153144 0.2033477 0.1916554 0.1857057
 0.1860164 0.1885427 0.1907016 0.1928862 0.1928504 0.1841083 0.1644935 0.1432058 0.1341145 0.1423534
 0.1604991 0.1770466 0.1852226 0.1835869 0.1726299 0.1549857 0.138141 0.1320508 0.1410101 0.1595396
 0.1782469 0.191903 0.1999594 0.202043 0.1970316 0.1862903 0.1749044 0.1687476 0.1709324 0.180477
 0.1926099 0.1999535 0.1961489 0.1822124 0.1693064 0.1704592 0.1868712 0.2058744 0.2151734 0.215274
 0.2143912 0.2156785 0.2157256 0.2135932 0.2143633 0.2222094 0.234272 0.2434779 0.2447515 0.2370205
 0.2225292 0.2073032 0.1995654 0.2031093 0.2129071 0.220505 0.2221547 0.2183049 0.2086304 0.1941048
 0.1822383 0.182567 0.1956231 0.2116931 0.2218489 0.2260748 0.2292295 0.2326627 0.2325616 0.2257199
 0.2148951 0.2071127 0.2067299 0.2116401 0.2168667 0.219808 0.2202762 0.2175434 0.2107976 0.2025267
 0.1985348 0.2029035 0.2137451 0.224933 0.2315517 0.2329682 0.2314095 0.229068 0.2266134 0.2233684
 0.2187985 0.2144267 0.2135181 0.217598 0.2240401 0.2287796 0.2309652 0.2332191 0.2375 0.2423956
 0.2448412 0.2434614 0.239876 0.2372939 0.2379484 0.2413278 0.2445536 0.2448338 0.242117 0.2393839
 0.2398979 0.2440896 0.2495061 0.2536051 0.2558309 0.2570694 0.2581381 0.2590696 0.2590837 0.2571701
 0.2535082 0.2502986 0.2502112 0.2537464 0.2587651 0.2627029 0.2646424 0.2651818 0.2650388 0.2642974
 0.2628103 0.2608739 0.259252 0.2585733 0.2588736 0.259751 0.2607835 0.2617147 0.2624258 0.2629074
 0.2632205 0.2634159 0.2635201 0.2635904 0.2636799 0.2637414 0.2636775 0.2635242 0.2634788 0.2636768
 0.2640162 0.2642702 0.2643032 0.2640804 0.2635391 0.2625991 0.2613097 0.259851 0.2583339 0.2567097
 0.2549997 0.2535824 0.2531011 0.2539751 0.2560008 0.2584729 0.2606806 0.2622747 0.2632549 0.2637689
 0.2639807 0.2640361 0.2640346 0.2640004 0.2639033 0.2637153 0.263442 0.2631039 0.2627138 0.2622915
 0.2618846 0.2615446 0.2612746 0.2610168 0.2607002 0.2602919 0.2598042 0.2592701 0.2587153 0.2581351
 0.2574908 0.2567342 0.2558496 0.2548782 0.2539061 0.2530166 0.2522349 0.2515115 0.2507715 0.2499708
 0.2490863 0.248081 0.246938 0.2457383 0.2446442 0.2437709 0.2430966 0.2425047 0.2418755 0.2411289
 0.2402356 0.2392268 0.2381753 0.2371343 0.2360972 0.2350198 0.2338649 0.2326175 0.2312739 0.2298347
 0.2283047 0.2266975 0.2250433 0.2233794 0.2217108 0.2199691 0.2180221 0.2157219 0.2129442 0.2096045
 0.2056791 0.2012351 0.1964341 0.1914892 0.1866043 0.1819372 0.1776046 0.1737071 0.1703381 0.167572
 0.1654529 0.1640063 0.1632552 0.1632206 0.1639036 0.1652665 0.1672271 0.1696679 0.172451 0.1754239
 0.1784189 0.1812734 0.1838831 0.18625 0.1884604 0.1905895 0.1926223 0.1944782 0.1961 0.197494
 0.1986904 0.1997042 0.2005488 0.2012582 0.201871 0.2024018 0.202842 0.2031891 0.2034637 0.2036962
 0.2039055 0.2040979 0.2042823 0.2044746 0.2046853 0.2049144 0.2051629 0.2054472 0.2057951 0.2062265
 0.206735 0.2072918 0.2078723 0.2084728 0.2090992 0.2097532 0.2104468 0.2112252 0.2121543 0.2132729
 0.2145603 0.2159525 0.2173752 0.2187495 0.2199808 0.2209804 0.2217092 0.2221865 0.2224534 0.2225454
 0.222496 0.222331 0.2220566 0.2216725 0.2211975 0.2206606 0.2200742 0.2194359 0.2187504 0.2180345
 0.2173087 0.2165966 0.2159168 0.2152654 0.2146203 0.2139721 0.2133379 0.2127371 0.2121654 0.2115974
 0.21101 0.2104018 0.209793 0.209207 0.2086449 0.2080747 0.2074445 0.2067122 0.2058675 0.2049256
 0.2039007 0.2027936 0.2016047 0.2003394 0.198997 0.197567 0.1960455 0.1944455 0.1927849 0.1910674
 0.1892756 0.1873847 0.1853932 0.1833502 0.1813431 0.1794524 0.1777139 0.1761167 0.1746271 0.1732187
 0.1718841 0.1706206 0.1694165 0.1682631 0.1671645 0.1661219 0.1651193 0.1641442 0.1632139 0.1623687
 0.1616411 0.1610307 0.160505 0.1600298 0.1595992 0.159233 0.1589564 0.1587944 0.1587591 0.1588202
 0.1589026 0.1589348 0.1588929 0.1587972 0.158682 0.1585715 0.1584702 0.1583743 0.1582844 0.1581859
 0.1580219 0.1577051 0.1571544 0.1563112 0.155146 0.1536718 0.1519516 0.1500967 0.1482558 0.1465744
 0.1451397 0.1439754 0.1430779 0.1424199 0.1419313 0.1415322 0.1411989 0.1409803 0.1409458 0.1411048
 0.141352 0.1415262 0.1415636 0.1415723 0.1417312 0.1421438 0.1427932 0.1435748 0.1443552 0.1450361
 0.1455766 0.145964 0.146202 0.1463242 0.1463637 0.1463166 0.1461705 0.1459456 0.1456768 0.1453846
 0.1450708 0.1447068 0.1442422 0.1436583 0.1429783 0.1422143 0.1413575 0.1404122 0.1393723 0.1382097
 0.1369736 0.135865 0.1351439 0.1349821 0.1353924 0.1362235 0.1372489 0.1383199 0.13936 0.1401839
 0.1405372 0.1404869 0.1406271 0.1416531 0.1436991 0.1461953 0.1483796 0.1498428 0.1505683 0.1506482
 0.1501537 0.1491662 0.1477202 0.1457596 0.1432782 0.1404063 0.1372976 0.1340915 0.1310026 0.128257
 0.1259489 0.1240747 0.1226187 0.1216239 0.1212292 0.1210549 0.1191746 0.1131375 0.1037637 0.09680041
 0.09806129 0.1068713 0.1165597 0.1215054 0.1216013 0.1198875 0.1184376 0.1175298 0.1170196 0.1170493
 0.1177792 0.1190804 0.1205389 0.1217225 0.1224708 0.1228525 0.122844 0.1220814 0.1198127 0.1151582
 0.1078056 0.09862611 0.08938493 0.08170576 0.07632981 0.07313665 0.07150901 0.07069166 0.07015336 0.06983881
 0.07006784 0.07115152 0.0731214 0.07580474 0.07901047 0.08249583 0.08584763 0.08864754 0.09079866 0.09251583
 0.09396213 0.09505042 0.09562278 0.09567086 0.09532501 0.09473037 0.09399466 0.09318586 0.09229593 0.09123759
 0.08998885 0.08875132 0.08784404 0.08740206 0.08728255 0.08727484 0.08727547 0.08725998 0.08722457 0.08718114
 0.08714256 0.08713606 0.08725069 0.08757757 0.08806943 0.08854621 0.0888615 0.08901007 0.08907507 0.08907792
 0.08886959 0.08826816 0.08738262 0.08661333 0.0861398 0.08560432 0.08458455 0.08324553 0.08222629 0.08193626
 0.08220243 0.08256847 0.08270974 0.08255453 0.08224601 0.08209966 0.082407 0.08309053 0.08365705 0.0836686
</values></Ydata></ScRf><Data_Parameters_AB><parameter name="DPF">1</parameter><parameter name="NPT">3497</parameter><parameter name="FXV">3996</parameter><parameter name="LXV">500</parameter><parameter name="CSF">1</parameter><parameter name="MXY">0.192638039588928</parameter><parameter name="MNY">0.028822660446167</parameter><parameter name="DAT">01/06/2022</parameter><parameter name="TIM">12:01:46.081 (GMT+2)</parameter><parameter name="DXU">WN</parameter></Data_Parameters_AB><AB__Qtest><MainReport name="Quality Test Report"><Header><Line><Legend>Test result ok/not ok [1/0]: </Legend><Value>0</Value></Line><Line><Legend>Method file: </Legend><Value>C:\Users\Public\Documents\Bruker\OPUS_8.2.28\QT\IRBT_v3_default.QT</Value></Line></Header><Matrix><Line><Legend></Legend><Legend>min</Legend><Legend>max</Legend><Legend>measured</Legend></Line><Line><Value>Absorption (X-Range 1):</Value><Value>0.400000</Value><Value>2.000000</Value><Value>0.147705</Value></Line><Line><Value>Noise (X-Range 4):</Value><Value></Value><Value>0.000300</Value><Value>0.000044</Value></Line><Line><Value>Signal/Noise (X-Range 2):</Value><Value>200.000000</Value><Value></Value><Value>79.993202</Value></Line><Line><Value>Signal/Noise (X-Range 3):</Value><Value>40.000000</Value><Value></Value><Value>34.713811</Value></Line><Line><Value>Water vapour (X-Range 5):</Value><Value></Value><Value>0.000300</Value><Value>0.000089</Value></Line><Line><Value>Signal/Water (X-Range 2):</Value><Value>100.000000</Value><Value></Value><Value>39.311390</Value></Line><Line><Value>Signal/Water (X-Range 3):</Value><Value>20.000000</Value><Value></Value><Value>17.059552</Value></Line><Line><Value>Fringes (X-Range 6):</Value><Value></Value><Value>0.000100</Value><Value>0.000068</Value></Line></Matrix></MainReport></AB__Qtest><Data_Parameters_ScSm><parameter name="DPF">1</parameter><parameter name="NPT">1814</parameter><parameter name="FXV">3996.33169228125</parameter><parameter name="LXV">499.541461535156</parameter><parameter name="CSF">1</parameter><parameter name="MXY">0.222787514328957</parameter><parameter name="MNY">0.0262579433619976</parameter><parameter name="DAT">01/06/2022</parameter><parameter name="TIM">12:01:46.081 (GMT+2)</parameter><parameter name="DXU">WN</parameter></Data_Parameters_ScSm><Data_Parameters_ScRf><parameter name="DPF">1</parameter><parameter name="NPT">1820</parameter><parameter name="FXV">4004.04661832813</parameter><parameter name="LXV">495.683998511719</parameter><parameter name="CSF">1</parameter><parameter name="MXY">0.265181750059128</parameter><parameter name="MNY">0.0281943567097187</parameter><parameter name="DAT">01/06/2022</parameter><parameter name="TIM">12:01:19.901 (GMT+2)</parameter><parameter name="DXU">WN</parameter></Data_Parameters_ScRf><Optic_Parameters_Rf><parameter name="APR">0</parameter><parameter name="APT">Open</parameter><parameter name="BMS">KBr</parameter><parameter name="DTC">RT-DLaTGS_IR-Biotyper [Microplate reader]</parameter><parameter name="HPF">0</parameter><parameter name="LPF">10.0</parameter><parameter name="LPV">4000</parameter><parameter name="PGR">0</parameter><parameter name="RCH">Module port</parameter><parameter name="RDX">0</parameter><parameter name="SRC">MIR</parameter><parameter name="VEL">10.0</parameter><parameter name="SON">Off</parameter></Optic_Parameters_Rf><Acquisition_Parameters_Rf><parameter name="ADT">1</parameter><parameter name="AQM">DD</parameter><parameter name="CFE">0</parameter><parameter name="COR">0</parameter><parameter name="DEL">0</parameter><parameter name="DLY">0</parameter><parameter name="HFW">8000</parameter><parameter name="LFW">0</parameter><parameter name="NSR">32</parameter><parameter name="PLF">AB</parameter><parameter name="RES">6</parameter><parameter name="RGN">-1</parameter><parameter name="STR">0</parameter><parameter name="TCL">MakeCompatibleScalar (0, {WSV=1.000000, ARV=0});</parameter><parameter name="TDL">37</parameter><parameter name="RPO">0</parameter></Acquisition_Parameters_Rf><FT_-_Parameters_Rf><parameter name="APF">B3</parameter><parameter name="HFQ">500</parameter><parameter name="LFQ">4000</parameter><parameter name="NLI">0</parameter><parameter name="PHR">24</parameter><parameter name="PHZ">ML</parameter><parameter name="SPZ">NO</parameter><parameter name="ZFF">1</parameter></FT_-_Parameters_Rf><Optic_Parameters_><parameter name="APR">0</parameter><parameter name="APT">Open</parameter><parameter name="BMS">KBr</parameter><parameter name="CHN">Module port</parameter><parameter name="DTC">RT-DLaTGS_IR-Biotyper [Microplate reader]</parameter><parameter name="HPF">0</parameter><parameter name="LPF">10.0</parameter><parameter name="LPV">4000</parameter><parameter name="PGN">0</parameter><parameter name="RDX">0</parameter><parameter name="SRC">MIR</parameter><parameter name="VEL">10.0</parameter><parameter name="SON">Off</parameter></Optic_Parameters_><FT_-_Parameters_><parameter name="APF">B3</parameter><parameter name="HFQ">500</parameter><parameter name="LFQ">4000</parameter><parameter name="NLI">0</parameter><parameter name="PHR">24</parameter><parameter name="PHZ">ML</parameter><parameter name="SPZ">NO</parameter><parameter name="ZFF">1</parameter></FT_-_Parameters_><Acquisition_Parameters_><parameter name="ADT">1</parameter><parameter name="AQM">DD</parameter><parameter name="CFE">0</parameter><parameter name="COR">0</parameter><parameter name="DEL">0</parameter><parameter name="DLY">0</parameter><parameter name="HFW">8000</parameter><parameter name="LFW">0</parameter><parameter name="NSS">32</parameter><parameter name="PLF">AB</parameter><parameter name="RES">6</parameter><parameter name="SOT">0</parameter><parameter name="TCL">MakeCompatibleScalar (0, {WSV=1.000000, ARV=0});</parameter><parameter name="TDL">37</parameter><parameter name="SPO">0</parameter><parameter name="SGN">-1</parameter></Acquisition_Parameters_><Instrument_Parameters_Rf><parameter name="HFL">15800.168544</parameter><parameter name="LFL">0</parameter><parameter name="LWN">15800.168544</parameter><parameter name="ABP">32197</parameter><parameter name="SSP">1</parameter><parameter name="ARG">2</parameter><parameter name="ASG">2</parameter><parameter name="ASS">32</parameter><parameter name="GFW">16</parameter><parameter name="GBW">16</parameter><parameter name="BFW">0</parameter><parameter name="BBW">0</parameter><parameter name="PKA">7312</parameter><parameter name="PKL">4990</parameter><parameter name="PRA">7479</parameter><parameter name="PRL">5001</parameter><parameter name="P2A">1</parameter><parameter name="P2L">1</parameter><parameter name="P2R">1</parameter><parameter name="P2K">1</parameter><parameter name="DAQ">0</parameter><parameter name="AG2">1</parameter><parameter name="SSM">1</parameter><parameter name="RSN">25973</parameter><parameter name="CRR">0</parameter><parameter name="SRT">1654084879.901</parameter><parameter name="DUR">19.6389923095703</parameter><parameter name="TSC">29</parameter><parameter name="MVD">0.629395604133606</parameter><parameter name="AN1">0.225809153460026</parameter><parameter name="AN2">0</parameter><parameter name="VSN">2.485 Apr  4 2017</parameter><parameter name="SRN">0085</parameter><parameter name="CAM">0</parameter><parameter name="INS">IR-Biotyper</parameter><parameter name="FOC">69</parameter><parameter name="RDY">1</parameter><parameter name="ARS">32</parameter></Instrument_Parameters_Rf><Sample_Parameters_><parameter name="BLD"></parameter><parameter name="CNM">Admin</parameter><parameter name="CPY"></parameter><parameter name="DPM"></parameter><parameter name="EXP">IRBT_v3_32Scans.XPM</parameter><parameter name="LCT"></parameter><parameter name="SFM">Microplate, HTS-XT</parameter><parameter name="SNM">220601-1028(v.3)_RTF49M (D_14)_E9_c7c966a1-afcf-45b4-80c2-81fd2b62565a.0</parameter><parameter name="XPP">C:\Users\Public\Documents\Bruker\OPUS_8.2.28\XPM</parameter><parameter name="IST">OK</parameter><parameter name="CPG">1252</parameter><parameter name="UID">c6e968f8-a577-4eac-bf85-3948a79ce861</parameter></Sample_Parameters_><Instrument_Parameters_><parameter name="HFL">15800.168544</parameter><parameter name="LFL">0</parameter><parameter name="LWN">15800.168544</parameter><parameter name="ABP">32197</parameter><parameter name="SSP">1</parameter><parameter name="ASG">4</parameter><parameter name="ARG">2</parameter><parameter name="ASS">32</parameter><parameter name="GFW">16</parameter><parameter name="GBW">16</parameter><parameter name="BFW">0</parameter><parameter name="BBW">0</parameter><parameter name="PKA">6018</parameter><parameter name="PKL">4988</parameter><parameter name="PRA">6246</parameter><parameter name="PRL">4993</parameter><parameter name="P2A">1</parameter><parameter name="P2L">1</parameter><parameter name="P2R">1</parameter><parameter name="P2K">1</parameter><parameter name="DAQ">0</parameter><parameter name="AG2">1</parameter><parameter name="SSM">1</parameter><parameter name="RSN">13612</parameter><parameter name="CRR">0</parameter><parameter name="SRT">1654084906.081</parameter><parameter name="DUR">19.6389923095703</parameter><parameter name="TSC">29</parameter><parameter name="MVD">0.305305451154709</parameter><parameter name="AN1">0.22581753048784</parameter><parameter name="AN2">0</parameter><parameter name="VSN">2.485 Apr  4 2017</parameter><parameter name="SRN">0085</parameter><parameter name="CAM">0</parameter><parameter name="INS">IR-Biotyper</parameter><parameter name="FOC">69</parameter><parameter name="RDY">1</parameter></Instrument_Parameters_><History/></OPUSDataFile>
