<?xml version="1.0" encoding="UTF-8" ?>
<OPUSDataFile><AB><Ydata ylabel="Absorbance Units"><values byteorder="INTEL" format="FLOAT32" numvalues="3497"> 0.0176124 0.01766641 0.01769399 0.01769433 0.01767786 0.01764518 0.01762738 0.01762447 0.01764691 0.01768941
 0.01772591 0.01775328 0.01774292 0.01770399 0.01764199 0.01757006 0.01751545 0.01747562 0.01746214 0.01745734
 0.01744997 0.01743149 0.01738954 0.01733986 0.01728336 0.01724271 0.0172256 0.01723488 0.01727449 0.01732397
 0.01738226 0.01742588 0.01745347 0.01745857 0.01744215 0.01741554 0.01737998 0.01734913 0.01732168 0.01730107
 0.01728361 0.01726245 0.01723465 0.01719114 0.01713424 0.01706063 0.01698075 0.01689989 0.01683157 0.01678498
 0.01676579 0.01678041 0.01682007 0.01688644 0.01695683 0.01702907 0.01707773 0.01709964 0.01708476 0.01703234
 0.01695538 0.01685528 0.01675432 0.01665232 0.01655942 0.01647398 0.01639362 0.01632113 0.01626084 0.01621829
 0.01620657 0.01622337 0.01627383 0.01634621 0.01643332 0.01652531 0.01661439 0.01669772 0.01677365 0.01683679
 0.01688701 0.01691229 0.01691062 0.01687429 0.01680171 0.0166976 0.01656213 0.01640727 0.01623401 0.01605672
 0.01587838 0.015723 0.01559569 0.01553156 0.01552515 0.01558702 0.01569467 0.01581469 0.01593248 0.01601306
 0.01606626 0.01608536 0.01609239 0.01609978 0.01611452 0.01614666 0.01617659 0.01620197 0.01620253 0.01617206
 0.01611787 0.01603856 0.0159633 0.01589371 0.01584885 0.01582737 0.01581382 0.0158042 0.01576386 0.01569461
 0.01558058 0.01543515 0.01528078 0.01513353 0.0150348 0.01498134 0.01499028 0.01503989 0.01511707 0.01520937
 0.01530787 0.0154013 0.01548966 0.0155387 0.01554105 0.01546511 0.01529972 0.01506127 0.01474426 0.0144439
 0.01416484 0.01406603 0.01414616 0.01442089 0.01486066 0.01527261 0.0156543 0.01589116 0.01600798 0.016009
 0.01591566 0.01576143 0.01557184 0.01538589 0.01523158 0.0151492 0.01513703 0.01521612 0.01533576 0.01548295
 0.01561248 0.01570438 0.01576628 0.01579546 0.0158121 0.01582004 0.01580548 0.01576794 0.0156806 0.01554444
 0.01536869 0.01516073 0.01497348 0.01481186 0.01472714 0.01470948 0.01476281 0.01486973 0.01500239 0.01514823
 0.01528298 0.0153956 0.01546975 0.01549805 0.01546946 0.01539094 0.01525895 0.01509687 0.01490736 0.01472177
 0.01454439 0.01440595 0.01430968 0.01428163 0.01432375 0.01443927 0.01462604 0.0148493 0.01510502 0.01534896
 0.01558101 0.01577768 0.01594017 0.01606002 0.01613776 0.01616861 0.01615847 0.01610882 0.01603595 0.01595146
 0.01587472 0.01582118 0.01579745 0.01581342 0.01585369 0.01591942 0.01597938 0.01602887 0.01604242 0.01601556
 0.01594794 0.01583897 0.01571065 0.01556471 0.01543184 0.01531304 0.01523189 0.01518448 0.01516976 0.0151799
 0.01519381 0.01520792 0.01520576 0.01518843 0.01515313 0.01509474 0.01501093 0.0148885 0.01471619 0.01449677
 0.01421926 0.01392972 0.01363127 0.0133973 0.01324454 0.0131963 0.01326134 0.01339141 0.01358378 0.01381499
 0.0140847 0.01439433 0.01473595 0.01505483 0.01534157 0.0155241 0.01561137 0.01558347 0.01546864 0.01530345
 0.0151214 0.01498668 0.01489357 0.0148683 0.01486667 0.01486641 0.01484805 0.01479133 0.01472012 0.01463275
 0.01457352 0.0145517 0.01458621 0.01468411 0.01480665 0.0149524 0.01505647 0.01511706 0.01509964 0.01501002
 0.01486712 0.0146864 0.01453936 0.01443757 0.01446066 0.01457961 0.01478605 0.01503208 0.0152432 0.01542191
 0.01553595 0.0156273 0.01571351 0.01582102 0.015974 0.01614514 0.01633737 0.01649497 0.01660584 0.01664939
 0.01661764 0.0165512 0.01645116 0.0164006 0.01640226 0.01651175 0.01671784 0.01696666 0.01724329 0.017452
 0.01760072 0.01766149 0.01764861 0.01757516 0.01745168 0.01729061 0.01711655 0.01694841 0.01682471 0.01677788
 0.01681562 0.0169555 0.0171657 0.01743892 0.01776071 0.01812728 0.01853272 0.01897844 0.01943152 0.01989004
 0.02032243 0.02072791 0.02109668 0.02142828 0.02171417 0.02195393 0.0221379 0.02227288 0.02236932 0.02244016
 0.02251361 0.0225991 0.02271753 0.02288085 0.0231061 0.02340173 0.02379085 0.02422712 0.02470467 0.02515284
 0.025542 0.02587315 0.02613662 0.02637955 0.02660675 0.02684815 0.02710683 0.02737275 0.02764437 0.02788682
 0.0281007 0.02826849 0.02840337 0.02854618 0.02871991 0.0290191 0.02943007 0.0299914 0.03062845 0.03125298
 0.03183089 0.03228407 0.0326579 0.03295276 0.03323017 0.03351993 0.03384601 0.03422856 0.03463647 0.03506874
 0.03548631 0.03588185 0.0362591 0.03661688 0.03699542 0.0373962 0.03784758 0.03834496 0.03886674 0.03940566
 0.03991749 0.04040289 0.04084016 0.04123554 0.04158955 0.04191064 0.0422073 0.04249364 0.04278551 0.04309124
 0.04342453 0.04377352 0.04413551 0.04450366 0.04486888 0.04526252 0.04568837 0.04617737 0.04673949 0.0473301
 0.04794822 0.04850714 0.04900473 0.04941357 0.04974013 0.05002244 0.05026696 0.05052317 0.05078892 0.05108605
 0.05140346 0.05172971 0.05205719 0.05236602 0.05266802 0.05296072 0.05327587 0.05363375 0.05405222 0.05455381
 0.05510361 0.0557015 0.0562896 0.05685521 0.0573705 0.05782838 0.05823779 0.05859816 0.05894111 0.05926824
 0.05960972 0.05996487 0.06034157 0.06073794 0.06114855 0.06157549 0.06202307 0.06249106 0.06298638 0.06349353
 0.06399757 0.06447755 0.06490419 0.06528026 0.06559265 0.0658711 0.06612388 0.06637964 0.0666509 0.0669421
 0.06725795 0.06758486 0.06792112 0.06826188 0.06860608 0.06896871 0.06935033 0.069762 0.0702005 0.07064478
 0.07108949 0.07149582 0.07186869 0.07219781 0.07250071 0.07280745 0.07312883 0.07349874 0.07390086 0.0743374
 0.07477476 0.07518952 0.07556793 0.07589033 0.07618571 0.07645445 0.07674307 0.07706307 0.07743061 0.07785235
 0.07830141 0.07877696 0.07923916 0.07968654 0.08009856 0.08047691 0.08082668 0.0811507 0.08146451 0.08176912
 0.08207542 0.08238323 0.08269721 0.08301682 0.08334473 0.08367589 0.08400816 0.08433221 0.0846392 0.08493101
 0.08520211 0.08547345 0.08575097 0.0860468 0.08636864 0.0866938 0.08702119 0.08732289 0.08759549 0.08785255
 0.08809557 0.08836763 0.0886683 0.08901496 0.08939917 0.08979157 0.090184 0.09053463 0.09084717 0.09110543
 0.09132549 0.09152199 0.09171014 0.09191282 0.09212848 0.09236617 0.09260929 0.09285253 0.09308349 0.09329537
 0.09349101 0.09366861 0.09383997 0.09400586 0.09417997 0.09436331 0.09456787 0.09479407 0.09504539 0.09532121
 0.09561729 0.09593356 0.09626815 0.09662003 0.09698807 0.09736441 0.09773458 0.09808739 0.09839859 0.09866907
 0.09888656 0.09906908 0.09922396 0.09936886 0.09951623 0.0996655 0.0998203 0.09997085 0.1001143 0.1002528
 0.1003854 0.1005247 0.100672 0.1008274 0.1009906 0.1011471 0.1012976 0.1014407 0.1015808 0.1017395
 0.101917 0.1021281 0.1023617 0.1026024 0.1028398 0.1030477 0.1032356 0.1033985 0.1035615 0.1037421
 0.1039492 0.1041988 0.104462 0.104737 0.1049822 0.1051853 0.10534 0.1054403 0.1055231 0.1055909
 0.1056727 0.1057689 0.1058587 0.105939 0.1059711 0.1059603 0.1059091 0.1058316 0.1057735 0.1057407
 0.1057725 0.1058555 0.1059907 0.1061537 0.1063196 0.1064748 0.1065962 0.1067003 0.1067822 0.1068849
 0.1070209 0.1072203 0.1074984 0.1078278 0.1082122 0.1085748 0.1089101 0.1091554 0.1093086 0.1093735
 0.1093555 0.1093101 0.1092405 0.1091924 0.1091607 0.1091511 0.1091628 0.1091929 0.1092533 0.109363
 0.1095237 0.1097541 0.1100195 0.1103067 0.1105707 0.1107798 0.1109359 0.111024 0.1110972 0.1111638
 0.1112665 0.1114164 0.1116006 0.111821 0.112027 0.1122161 0.1123457 0.1124167 0.1124192 0.1123602
 0.112266 0.1121492 0.1120614 0.1120136 0.1120583 0.1121882 0.1124245 0.1127286 0.1130768 0.113415
 0.1136952 0.1138938 0.1139768 0.1139803 0.1139016 0.1138095 0.1137177 0.1136767 0.1136968 0.1137936
 0.11397 0.1142234 0.1145537 0.1149458 0.1153959 0.1158634 0.1163396 0.1167585 0.1171138 0.117346
 0.1174678 0.1174675 0.1173841 0.1172649 0.1171536 0.1171185 0.1171649 0.1173311 0.1175634 0.1178549
 0.1181252 0.1183456 0.1184676 0.1184682 0.1183663 0.1181555 0.1179088 0.1176307 0.1173933 0.1171998
 0.1170714 0.1170054 0.1169792 0.1169919 0.117024 0.1170805 0.1171684 0.1172886 0.1174525 0.1176441
 0.1178509 0.1180399 0.1181748 0.1182252 0.1181532 0.1179615 0.1176313 0.1172137 0.1167146 0.1162068
 0.1157075 0.1152645 0.1148899 0.1145843 0.1143504 0.1141551 0.1139969 0.1138332 0.1136634 0.1134616
 0.1132334 0.1129932 0.1127506 0.1125483 0.1123828 0.1122746 0.1121964 0.1121179 0.1120109 0.1118261
 0.1115733 0.1112318 0.1108592 0.1104722 0.1101385 0.1098892 0.1097445 0.1097252 0.1097722 0.1098871
 0.1099591 0.109979 0.1098652 0.1096142 0.1092408 0.1087532 0.108246 0.1077268 0.1072884 0.1069245
 0.1066665 0.1064972 0.106396 0.106346 0.106313 0.1062851 0.1062372 0.1061631 0.106049 0.1058996
 0.1057107 0.1054998 0.1052696 0.105044 0.1048291 0.1046396 0.1044804 0.1043446 0.1042332 0.104122
 0.1040097 0.1038759 0.103721 0.1035427 0.1033433 0.1031339 0.1029162 0.1027021 0.102492 0.1022928
 0.1021038 0.1019273 0.1017596 0.1015983 0.1014372 0.1012705 0.1010954 0.1009071 0.1007117 0.1005094
 0.1003101 0.1001168 0.09993115 0.09975491 0.09957866 0.09940161 0.09921741 0.09902582 0.09883512 0.09864601
 0.09847017 0.09830598 0.09815098 0.09800185 0.09784526 0.09768081 0.09750058 0.09730672 0.09709952 0.09687991
 0.09664801 0.09640759 0.09615766 0.09591436 0.09568271 0.09548586 0.0953354 0.09523499 0.09519361 0.09517514
 0.09517932 0.09514506 0.09506659 0.09490258 0.09465079 0.09432464 0.09392904 0.09352614 0.09312266 0.09279042
 0.09252788 0.09237389 0.09230956 0.09231779 0.09236455 0.0923885 0.09236667 0.09224012 0.09203216 0.09173041
 0.09139787 0.091065 0.09077211 0.09054962 0.09037309 0.09024518 0.09012277 0.08999489 0.08987085 0.08974771
 0.08968185 0.08967614 0.08976018 0.08992951 0.09013773 0.09037343 0.09054488 0.09064981 0.09062473 0.09048998
 0.09025598 0.08995526 0.08964766 0.08934595 0.08909437 0.08887255 0.08867932 0.08849387 0.08829809 0.0881056
 0.08791469 0.0877512 0.08762575 0.08752848 0.08746243 0.08739112 0.08731006 0.08721253 0.08709795 0.0870032
 0.08692969 0.08690751 0.08693159 0.08698789 0.08706925 0.08714078 0.08720383 0.08724248 0.08726559 0.08728176
 0.08729462 0.08731604 0.08733316 0.0873448 0.08732327 0.08725386 0.08711673 0.08689462 0.08660812 0.08625064
 0.08588953 0.08553214 0.08524664 0.08504305 0.08492678 0.08489873 0.08489019 0.08489653 0.08483644 0.08471363
 0.0845049 0.084226 0.08392041 0.08360143 0.08332603 0.08308987 0.08291461 0.08278249 0.08268155 0.08259743
 0.0825135 0.08242667 0.08233011 0.08222739 0.08211744 0.08200791 0.08190001 0.08180261 0.08171891 0.08164259
 0.08157499 0.08148561 0.08137278 0.0812119 0.08100483 0.08077187 0.08051886 0.0802954 0.08009804 0.07994506
 0.07981967 0.07968862 0.07954396 0.07934935 0.07912651 0.07888114 0.07864922 0.07846411 0.07833942 0.07829684
 0.07831895 0.0784049 0.07853494 0.07870155 0.07890606 0.07914741 0.07943171 0.07976171 0.08011201 0.0804816
 0.0808045 0.08107696 0.0812302 0.08126698 0.08116595 0.0809406 0.08062675 0.08024032 0.07983787 0.07942776
 0.07904938 0.07870393 0.07840756 0.07815944 0.07796478 0.07781935 0.07772449 0.07766805 0.07764807 0.07764557
 0.07765589 0.07766357 0.07766344 0.07766039 0.07765191 0.07767604 0.07773464 0.07788677 0.07813417 0.07851519
 0.07902347 0.07964154 0.08035537 0.08110372 0.08187705 0.08261844 0.08333265 0.08399951 0.08463427 0.08524659
 0.08585041 0.08646061 0.08708408 0.08772813 0.08839711 0.08909408 0.08982199 0.09058435 0.0913708 0.09218362
 0.09298854 0.09378392 0.09452319 0.09520345 0.0957954 0.09629931 0.09671694 0.09704994 0.09731048 0.09749746
 0.09761069 0.09765344 0.09762665 0.09755155 0.09745946 0.09738201 0.09737237 0.09744037 0.0976194 0.09788337
 0.09822825 0.09862513 0.09905616 0.09952895 0.1000379 0.1006164 0.1012704 0.1020151 0.1028554 0.1037662
 0.1047467 0.1057435 0.106753 0.1077141 0.1086246 0.1094372 0.1101554 0.1107641 0.1112748 0.1117067
 0.112072 0.1124043 0.1126984 0.112974 0.1131843 0.1133138 0.1132713 0.1130071 0.1124363 0.1115024
 0.1102107 0.1085308 0.1065949 0.1044068 0.1021692 0.09990148 0.09777357 0.09579784 0.09404263 0.09250633
 0.09116311 0.09000561 0.08897293 0.08806146 0.0872259 0.0864651 0.08575585 0.08509252 0.08445598 0.08383932
 0.08322433 0.08261445 0.08200309 0.08140647 0.08083079 0.08029302 0.07980154 0.07936519 0.07898802 0.07867336
 0.07842208 0.07823724 0.07811876 0.07807448 0.07810477 0.07822309 0.07842903 0.07872026 0.07908933 0.07948761
 0.07990059 0.08024316 0.08051024 0.08063794 0.08064733 0.08053874 0.08035405 0.08014123 0.07994176 0.07980706
 0.07976021 0.07983208 0.08001846 0.08032922 0.08073608 0.08123565 0.08179408 0.08240548 0.08304519 0.08371203
 0.08436938 0.08501633 0.08555423 0.08597396 0.08610775 0.08594767 0.08534472 0.08432122 0.08286848 0.08105247
 0.07903046 0.0768776 0.07480623 0.07284255 0.07111748 0.06958921 0.06827244 0.06710184 0.0660397 0.06505235
 0.06411313 0.06322597 0.06238638 0.06160555 0.06088573 0.06022877 0.05963577 0.05909965 0.05862024 0.05818247
 0.05778531 0.05740976 0.05705551 0.05671068 0.056377 0.0560546 0.05574636 0.05545977 0.05519701 0.05496695
 0.05476649 0.05459897 0.05444989 0.05431054 0.05416093 0.05398444 0.05377711 0.05352793 0.05326145 0.05297941
 0.05271684 0.05248173 0.05228805 0.05214042 0.05202083 0.05192871 0.0518352 0.05173961 0.05163062 0.05151017
 0.05138838 0.05126522 0.05114806 0.05103042 0.05089881 0.05074702 0.05055388 0.05032598 0.0500588 0.04977266
 0.04948203 0.04920784 0.04896762 0.0487703 0.04862615 0.04852729 0.04847694 0.04844943 0.04844286 0.04842228
 0.04838316 0.04830519 0.0481861 0.04803718 0.04785973 0.04768203 0.04750423 0.04734136 0.04719041 0.04704611
 0.04690695 0.04676485 0.04662293 0.04648283 0.04634874 0.04622693 0.0461196 0.04603057 0.04596158 0.04591496
 0.04589067 0.0458914 0.04590766 0.04594017 0.04596667 0.04598417 0.04596968 0.04591917 0.04582848 0.04569641
 0.04554429 0.04537361 0.04521468 0.0450675 0.04494746 0.04485061 0.04476865 0.0446973 0.04461909 0.04453563
 0.0444395 0.04433993 0.04424543 0.04416495 0.04411236 0.04408338 0.04408372 0.0440922 0.04410292 0.04409325
 0.04405358 0.04398026 0.04386877 0.04373546 0.0435811 0.04342544 0.04326998 0.04312634 0.04299488 0.04287978
 0.04278033 0.04269369 0.04261759 0.04254107 0.04246174 0.04236606 0.04225596 0.04212694 0.0419866 0.04184244
 0.04170239 0.04157745 0.04146839 0.04138085 0.04130641 0.04124372 0.04118228 0.04111826 0.04104736 0.04096724
 0.04088231 0.04079246 0.04070563 0.04062236 0.04054873 0.04048495 0.0404336 0.04039446 0.04036726 0.04035117
 0.0403429 0.04034068 0.04033825 0.04033336 0.04031864 0.04029321 0.04025262 0.04019766 0.04012778 0.04004291
 0.0399429 0.03982742 0.03969464 0.03955127 0.0393966 0.03924759 0.03910713 0.0389896 0.03889837 0.03882944
 0.03878328 0.03874067 0.03870071 0.03864717 0.03858061 0.03849813 0.03840161 0.03829764 0.0381878 0.0380801
 0.03797472 0.03787627 0.03778307 0.03769497 0.03760976 0.03752504 0.03744021 0.03735371 0.03726721 0.03718042
 0.03709747 0.037019 0.03695064 0.03689399 0.03685027 0.03682089 0.03679521 0.03677286 0.03673693 0.03668689
 0.03661633 0.03652696 0.03643059 0.03632928 0.03623982 0.03616049 0.03609609 0.03604143 0.03598833 0.03593365
 0.03586804 0.03579519 0.03571391 0.03563233 0.03555559 0.0354887 0.03543663 0.03539544 0.03536613 0.03533893
 0.0353121 0.03527836 0.03523609 0.03518567 0.03512683 0.03506514 0.03500084 0.03493757 0.03487498 0.03481119
 0.03474588 0.03467607 0.03460282 0.03452756 0.03445188 0.03438014 0.0343121 0.03424964 0.03419102 0.03413492
 0.03408104 0.03402849 0.0339785 0.03393183 0.03388761 0.03384625 0.03380427 0.03376105 0.03371394 0.03366237
 0.03360637 0.03354582 0.03348273 0.03341722 0.03335229 0.03328808 0.03322743 0.03317004 0.03311618 0.03306508
 0.03301448 0.03296422 0.03291275 0.03286067 0.03280841 0.03275599 0.03270396 0.03265112 0.03259671 0.03254013
 0.03248057 0.03241909 0.0323556 0.03229216 0.03222899 0.0321686 0.03211141 0.0320586 0.03201042 0.03196484
 0.0319217 0.03187636 0.03182888 0.03177761 0.03172356 0.03167083 0.03162034 0.0315773 0.03154115 0.03151361
 0.03149277 0.0314771 0.03146377 0.03144989 0.03143204 0.03140673 0.03137315 0.03132872 0.03127893 0.03122414
 0.03117277 0.03112697 0.03109007 0.03106319 0.03104387 0.03103202 0.03102491 0.03102241 0.03102314 0.03102669
 0.03102868 0.03102827 0.03101869 0.03100028 0.03096978 0.03092947 0.03088214 0.03083046 0.0307795 0.03073057
 0.03068731 0.03064848 0.03061544 0.03058295 0.03054987 0.03050848 0.03045578 0.03038823 0.03030344 0.03020721
 0.0300994 0.02999046 0.02988125 0.02977836 0.02968205 0.02959379 0.02951353 0.02944165 0.02937787 0.02932157
 0.02927155 0.02922375 0.02917722 0.02912728 0.02907552 0.02902196 0.02896906 0.02892026 0.02887418 0.028832
 0.02878828 0.02874039 0.02868592 0.0286223 0.02855467 0.02848321 0.02841527 0.02835228 0.02829526 0.02824466
 0.02819569 0.02814816 0.02809834 0.02804646 0.02799324 0.02793883 0.02788442 0.02782974 0.02777423 0.02771821
 0.02766193 0.02760613 0.02755251 0.02749992 0.02744837 0.02739504 0.02733734 0.0272755 0.02720793 0.02713952
 0.02707122 0.02700817 0.02695198 0.02690383 0.02686432 0.02683173 0.0268061 0.02678411 0.02676554 0.02674503
 0.0267223 0.02669246 0.02665601 0.0266127 0.02656371 0.02651277 0.02646036 0.02640934 0.02635962 0.0263116
 0.02626693 0.02622679 0.0261945 0.02617344 0.02616335 0.0261669 0.02617546 0.02618794 0.0261921 0.02618457
 0.02616032 0.02611722 0.02606164 0.02599363 0.0259244 0.02585453 0.0257931 0.0257402 0.02570035 0.02567266
 0.02565547 0.02564656 0.02563783 0.02562786 0.02560848 0.02558227 0.0255485 0.02551283 0.02548133 0.02545654
 0.02544373 0.02543826 0.02544014 0.02544161 0.0254397 0.02543109 0.02541372 0.02539112 0.02536336 0.02533494
 0.02530651 0.02527661 0.02524511 0.02520498 0.02515587 0.02509174 0.02501286 0.0249177 0.02480632 0.02467862
 0.02453344 0.0243686 0.02418205 0.02396981 0.02373015 0.02345978 0.0231577 0.02282201 0.02245301 0.02205036
 0.02161457 0.0211468 0.02064261 0.02010323 0.01951284 0.0188693 0.01815949 0.01737987 0.01655829 0.01569678
 0.01488325 0.01412455 0.01352613 0.01309014 0.01288419 0.01290306 0.01317009 0.01366849 0.01438913 0.01527586
 0.01625202 0.0172377 0.01811356 0.01884845 0.01937557 0.01971336 0.01985234 0.01982188 0.01962465 0.01930588
 0.018865 0.01839962 0.01791813 0.0175417 0.01728548 0.01716918 0.01719371 0.01728248 0.01743254 0.01758687
 0.01774772 0.01789858 0.01804174 0.01817541 0.0183016 0.01842374 0.01854319 0.01866292 0.01878535 0.01891187
 0.01905151 0.01921081 0.01939794 0.01962284 0.01987359 0.02015202 0.02042984 0.02070058 0.02094594 0.02116087
 0.02134742 0.02150485 0.02164335 0.02176343 0.02187403 0.02197548 0.02207432 0.02217027 0.02226585 0.02235938
 0.02244659 0.02252584 0.02259046 0.0226419 0.02267838 0.02270477 0.0227256 0.02274498 0.02276829 0.02279477
 0.02282604 0.02285812 0.02288986 0.02291873 0.02294365 0.02296508 0.02298298 0.02299779 0.02300971 0.02301634
 0.02301754 0.02300939 0.0229919 0.0229637 0.02292571 0.02288202 0.02283435 0.02279085 0.02275221 0.0227249
 0.02270652 0.02269694 0.02269131 0.02268421 0.02267221 0.02264994 0.02261945 0.022579 0.02253633 0.02249317
 0.02245801 0.0224338 0.02242216 0.02242463 0.02243406 0.02245007 0.02246463 0.02247727 0.02248736 0.02249523
 0.02250519 0.02251697 0.02253154 0.02254748 0.02256034 0.0225692 0.02256925 0.02256157 0.02254507 0.02252305
 0.02249851 0.02247486 0.02245636 0.02244255 0.02243544 0.0224295 0.0224234 0.02241197 0.02239293 0.02236763
 0.02233527 0.02230316 0.02227186 0.02224806 0.02223215 0.02222505 0.02222637 0.02223099 0.02223812 0.02224019
 0.0222371 0.02222396 0.02220213 0.02217194 0.02213581 0.02209741 0.02205949 0.02202646 0.02200023 0.02198455
 0.02197743 0.02198016 0.02198548 0.02199138 0.02199109 0.02198181 0.021964 0.02193676 0.02190604 0.02187236
 0.0218397 0.0218083 0.0217789 0.02175154 0.0217271 0.02170561 0.02168805 0.02167406 0.02166277 0.02165408
 0.02164713 0.02164247 0.02164108 0.02164206 0.0216455 0.02164833 0.02164789 0.02164303 0.02163155 0.02161658
 0.0215991 0.02158039 0.02156184 0.02153862 0.02150991 0.02147348 0.02142828 0.02138395 0.02134095 0.02131218
 0.02129743 0.02129644 0.02130723 0.02131693 0.02132498 0.02132179 0.0213097 0.02128959 0.02126369 0.02123644
 0.02120833 0.02118165 0.02115634 0.02113322 0.02111158 0.02109192 0.02107101 0.02104787 0.02101974 0.02098494
 0.02094649 0.02090403 0.02086489 0.02082984 0.02080311 0.02078503 0.02077343 0.02076797 0.02076329 0.0207592
 0.02075173 0.02074128 0.02072705 0.02070987 0.02069153 0.02067227 0.02065363 0.02063458 0.0206146 0.02059248
 0.02056671 0.02053777 0.02050536 0.02047084 0.02043494 0.02039744 0.02035847 0.02031729 0.02027339 0.02022922
 0.02018474 0.02014542 0.0201116 0.02008548 0.02006681 0.02005205 0.02004074 0.02002801 0.02001429 0.01999846
 0.01998143 0.01996518 0.01994957 0.01993579 0.01992207 0.01990691 0.01988854 0.0198644 0.01983543 0.01980072
 0.01976414 0.01972699 0.01969183 0.01966024 0.01962974 0.01960047 0.01956767 0.01953062 0.01948884 0.01944219
 0.01939629 0.01935155 0.01931519 0.01928703 0.01927005 0.01926248 0.01925969 0.01925911 0.01925143 0.01923635
 0.01920779 0.01917021 0.01912596 0.01908076 0.01904112 0.01900724 0.01898234 0.01896037 0.01893971 0.01891566
 0.01888591 0.01885192 0.0188133 0.01877402 0.01873456 0.01869665 0.01866044 0.01862581 0.01859275 0.01856099
 0.01853048 0.01850065 0.01847161 0.01844327 0.01841611 0.01839148 0.01836925 0.01835051 0.018333 0.01831472
 0.01829295 0.01826416 0.01822875 0.01818546 0.01813713 0.01808473 0.01802966 0.01797251 0.01791366 0.01785272
 0.01779388 0.01773725 0.01768991 0.01765236 0.01762715 0.01761389 0.01760614 0.01760287 0.01759392 0.0175793
 0.01755313 0.01751744 0.0174741 0.01742593 0.0173791 0.01733436 0.01729581 0.017261 0.01722939 0.0171982
 0.01716518 0.01713038 0.0170929 0.01705491 0.01701677 0.01698034 0.01694597 0.01691505 0.01688781 0.01686488
 0.01684637 0.01682942 0.01681372 0.01679354 0.01676898 0.01673743 0.01670018 0.01666093 0.01662083 0.01658524
 0.01655331 0.01652638 0.0165021 0.0164782 0.01645257 0.01642267 0.01638712 0.01634412 0.01629418 0.01623606
 0.01617482 0.01611069 0.01605241 0.0160018 0.01596309 0.01593761 0.01591956 0.01590874 0.01589595 0.015881
 0.01586048 0.01583497 0.0158069 0.01577686 0.01574845 0.01572187 0.01569984 0.01568151 0.01566739 0.01565442
 0.01563921 0.01561869 0.01558817 0.01554895 0.01549943 0.01544529 0.01538818 0.01533337 0.01528273 0.01523873
 0.01520213 0.01517381 0.01515409 0.01514183 0.01513704 0.01513672 0.01514078 0.01514753 0.01515719 0.01517104
 0.01518865 0.01520994 0.01523225 0.01524892 0.01525664 0.01524518 0.01521574 0.01516321 0.01509707 0.0150219
 0.01495155 0.01489635 0.01486232 0.01485721 0.01487055 0.01490266 0.0149353 0.01496477 0.01498163 0.01498366
 0.01497432 0.01495359 0.01492999 0.01490378 0.01487921 0.01485561 0.01483007 0.01480167 0.01476457 0.01471927
 0.01466312 0.01459928 0.01453114 0.01446446 0.01440769 0.01436551 0.01434666 0.01434782 0.01437222 0.01440591
 0.0144448 0.01447475 0.01448976 0.01448775 0.014466 0.01443488 0.01439491 0.0143583 0.01432601 0.01430216
 0.01428661 0.01427497 0.01426651 0.01425375 0.01423646 0.01420924 0.01417323 0.01412805 0.01407669 0.01402406
 0.01397369 0.01393236 0.01390153 0.01388579 0.01388221 0.0138914 0.0139066 0.0139256 0.01394171 0.01395245
 0.0139546 0.01394676 0.01393005 0.01390417 0.01387335 0.01383783 0.01380152 0.01376435 0.01372429 0.0136806
 0.01362613 0.01356151 0.01348405 0.01339826 0.01331411 0.01323794 0.01318807 0.01316366 0.01317464 0.01320779
 0.01325571 0.01330438 0.01334163 0.01336404 0.01336587 0.01335314 0.01332576 0.01329269 0.01325567 0.01322058
 0.01318868 0.01315975 0.01313404 0.01310466 0.01307124 0.01302602 0.01296998 0.01290627 0.01283859 0.01278532
 0.01274801 0.01274326 0.01276368 0.01280366 0.0128545 0.01290104 0.01294174 0.01297048 0.0129861 0.0129874
 0.01296958 0.0129289 0.01286803 0.01278381 0.01269534 0.01260427 0.01253527 0.01249227 0.01248401 0.01251197
 0.01256277 0.01263538 0.01270704 0.01277699 0.01282846 0.01286285 0.01287699 0.01287365 0.01285906 0.01283489
 0.01280699 0.0127766 0.01274684 0.01272095 0.01270273 0.01269518 0.01270183 0.01272217 0.0127566 0.01280492
 0.01286666 0.0129443 0.01303898 0.01314791 0.01327213 0.01339631 0.01351965 0.01362379 0.01370817 0.01376597
 0.01379877 0.01381596 0.01382047 0.01383152 0.01384843 0.01388096 0.01392271 0.01396485 0.01400469 0.01403293
 0.01405483 0.01407172 0.01408956 0.01411385 0.01414374 0.01418083 0.01422069 0.01426153 0.0143038 0.01434575
 0.01439803 0.01446044 0.01455492 0.01468324 0.01485752 0.01507743 0.01532326 0.01559361 0.01586606 0.01614444
 0.01643413 0.01674062 0.01708348 0.01746378 0.0178942 0.01837021 0.01889301 0.01945201 0.02003996 0.02064168
 0.02124445 0.02184165 0.02242422 0.02300298 0.02358052 0.02416095 0.02474981 0.02531999 0.02586905 0.02637257
 0.02682772 0.02724039 0.02761076 0.02794468 0.02824065 0.02848626 0.02868203 0.02882067 0.02891039 0.02896863
 0.02900943 0.02906959 0.02915678 0.02930211 0.02949245 0.02972863 0.02999018 0.03026252 0.03053661 0.03080428
 0.03106435 0.03131457 0.03155637 0.03178668 0.03202513 0.03226918 0.03258061 0.03296359 0.0334768 0.03412032
 0.03484138 0.03563298 0.03640343 0.03716219 0.03790671 0.03865017 0.03943313 0.04025627 0.04113824 0.04208056
 0.04308218 0.04417623 0.04537882 0.04676541 0.04839196 0.05030557 0.05257706 0.05508067 0.05782092 0.06054957
 0.06320931 0.0656776 0.06792159 0.06997085 0.07182246 0.07356367 0.07520059 0.07687256 0.07859296 0.08055876
 0.08275229 0.0852256 0.08788552 0.09045439 0.09291217 0.0950521 0.09697796 0.09875698 0.1004613 0.1022018
 0.1039687 0.1057926 0.1076365 0.1094862 0.1113316 0.1131716 0.1149775 0.1167467 0.118435 0.120031
 0.1215592 0.1230196 0.1244557 0.1258676 0.1272041 0.1284593 0.1295481 0.1304832 0.1312765 0.1319562
 0.1326216 0.1332738 0.1339794 0.1346842 0.135328 0.135897 0.1363363 0.136707 0.1370401 0.1373636
 0.1377109 0.1380426 0.138354 0.1386057 0.1387831 0.1388962 0.1389406 0.138966 0.1389755 0.1390187
 0.1390971 0.1391975 0.1393155 0.1394017 0.1394586 0.1394728 0.1394503 0.1394041 0.1393341 0.1392482
 0.1391382 0.1389968 0.1388132 0.1385731 0.1382722 0.1379 0.1374673 0.1369706 0.1364449 0.135898
 0.1353677 0.1348667 0.1343977 0.1339642 0.1335507 0.1331552 0.132785 0.1324408 0.1321541 0.1319258
 0.1317775 0.1317047 0.1316968 0.1317477 0.1318313 0.1319484 0.1320857 0.132253 0.132458 0.1327125
 0.1330325 0.1334233 0.1338946 0.1344438 0.135071 0.1357778 0.136562 0.1374376 0.1384079 0.1394807
 0.1406616 0.1419187 0.1432518 0.1445989 0.1459571 0.1472873 0.1485896 0.1498567 0.1510815 0.1522269
 0.1532784 0.1541611 0.1548875 0.1554387 0.1558545 0.1561877 0.1564631 0.1567334 0.1569859 0.1572315
 0.1574416 0.157604 0.1577028 0.1577267 0.1576846 0.1575685 0.1574371 0.1572971 0.1571985 0.1571508
 0.1570937 0.1570241 0.1568713 0.1566363 0.1563061 0.1558855 0.1553929 0.1548295 0.1542142 0.1535344
 0.1527824 0.1519196 0.1508844 0.1496511 0.148139 0.1464367 0.144578 0.1426521 0.1407353 0.1387826
 0.1367893 0.1347355 0.132599 0.1304721 0.1283623 0.1263674 0.1245004 0.1227531 0.1211247 0.1195467
 0.1180185 0.1165101 0.1150298 0.113609 0.1122517 0.110994 0.1098204 0.1087186 0.1076639 0.1066122
 0.1055507 0.1044502 0.1033035 0.1021043 0.1008234 0.09944529 0.09794696 0.09628741 0.09459691 0.09288044
 0.09135003 0.09005748 0.08896287 0.08807386 0.08722481 0.08640797 0.08554538 0.08464205 0.08373013 0.08281699
 0.08196308 0.08116025 0.08041007 0.07970789 0.07903441 0.07841361 0.0778713 0.07743553 0.07715568 0.0770175
 0.0770314 0.07716176 0.07739051 0.07770354 0.07808935 0.07855514 0.07909641 0.07974412 0.08049586 0.08143045
 0.08255482 0.0839338 0.08556958 0.087333 0.08920692 0.0909413 0.09254137 0.0939064 0.09505976 0.09603
 0.09682744 0.09748495 0.09801453 0.09843741 0.09879424 0.09912759 0.09949499 0.09996572 0.1005279 0.1012182
 0.1019169 0.1025838 0.1031625 0.1036194 0.1040081 0.1043307 0.1046447 0.1049572 0.1052805 0.1056154
 0.1059374 0.1062452 0.1065166 0.1067546 0.1069635 0.1071504 0.1073415 0.1075416 0.1077776 0.1080424
 0.1083378 0.1086527 0.1089709 0.1092991 0.1096338 0.1099936 0.110389 0.1108269 0.111315 0.1118412
 0.1124045 0.1129926 0.1136029 0.1142353 0.1148903 0.1155593 0.1162419 0.1168917 0.117505 0.1180227
 0.1184457 0.1187491 0.1189369 0.1190106 0.1189706 0.1188185 0.1185531 0.1181716 0.1176771 0.1170696
 0.1163585 0.115549 0.114654 0.1136803 0.1126394 0.1115357 0.1103809 0.1091753 0.1079445 0.1066897
 0.1054514 0.1042339 0.1030584 0.1019261 0.1008236 0.09975023 0.09869071 0.09764885 0.09663837 0.09566513
 0.09476001 0.09391921 0.09315319 0.09244603 0.09177866 0.09113333 0.09048233 0.08981701 0.08911855 0.08839592
 0.0876449 0.08689032 0.0861399 0.08541263 0.0847178 0.08404703 0.08340269 0.08275638 0.08210529 0.08143226
 0.08073616 0.08003704 0.07933787 0.07868444 0.07807691 0.07754146 0.07707141 0.07665633 0.07629152 0.07595931
 0.07566162 0.0753938 0.0751586 0.07495821 0.07479199 0.07466118 0.07456134 0.07449193 0.07444388 0.07441454
 0.07439432 0.07437921 0.07437016 0.07436511 0.07437922 0.07441332 0.07448497 0.07459521 0.07475218 0.07495617
 0.07521183 0.07552058 0.07589335 0.07633189 0.07684933 0.07744437 0.07812223 0.07887637 0.07970142 0.08058334
 0.08150992 0.08245306 0.08339536 0.08428919 0.08511047 0.0858056 0.08634942 0.08671105 0.08687454 0.08684633
 0.08662254 0.08623218 0.08567652 0.08499239 0.08418183 0.08329097 0.08232316 0.0813335 0.08032565 0.07935032
 0.07840841 0.07753162 0.07671565 0.07596757 0.0752787 0.07463816 0.07403854 0.07346611 0.07291982 0.07239379
 0.07189085 0.07141134 0.07095663 0.07052737 0.07012391 0.0697461 0.06939597 0.06907385 0.06878119 0.06851842
 0.06828298 0.06807477 0.06788844 0.0677236 0.06757399 0.06743884 0.06731053 0.06718805 0.06706326 0.06693651
 0.06680305 0.06666723 0.06653243 0.06640714 0.06630257 0.06622457 0.06618387 0.06617518 0.0662008 0.06624645
 0.06630708 0.06637342 0.06644112 0.06651133 0.06658382 0.06665944 0.06673899 0.06681329 0.06688188 0.06693412
 0.06697025 0.06699187 0.06700099 0.06701151 0.06702435 0.06705184 0.06709033 0.06713825 0.0671888 0.06722949
 0.06725612 0.06725791 0.0672361 0.06718759 0.0671164 0.06702407 0.06691318 0.0667855 0.06664058 0.06647924
 0.06629737 0.06609464 0.06586578 0.0656098 0.06532803 0.06502039 0.06469873 0.06436382 0.06403001 0.06369698
 0.06337009 0.06304768 0.06272598 0.06240416 0.06207781 0.06174805 0.06141484 0.06107935 0.06074296 0.06040633
 0.06006966 0.05973603 0.05940623 0.05908628 0.05877887 0.05848711 0.05821318 0.05795362 0.05770829 0.05747299
 0.05724703 0.05703097 0.0568248 0.05663051 0.05644811 0.05627764 0.05611963 0.05597715 0.05585191 0.05575239
 0.05567939 0.05564032 0.05563254 0.05565582 0.05570473 0.05577265 0.0558554 0.05594618 0.05604657 0.05615409
 0.05627671 0.0564166 0.05658128 0.05677378 0.05699512 0.05724612 0.05752541 0.05783289 0.05816869 0.05853292
 0.05891982 0.05932834 0.05973989 0.06015286 0.06054599 0.06092072 0.06126998 0.06159898 0.06191729 0.06222947
 0.06254932 0.0628752 0.06321273 0.06355268 0.06389087 0.06421428 0.06451458 0.06478228 0.06501073 0.06519953
 0.06534536 0.0654599 0.06554306 0.06561562 0.0656795 0.06575328 0.06583837 0.06594155 0.06606283 0.06620137
 0.06635733 0.0665315 0.06672426 0.0669377 0.0671716 0.06742577 0.06770172 0.06800085 0.06832786 0.06868927
 0.06908799 0.06953056 0.07001191 0.07053325 0.07108125 0.07165245 0.07223064 0.07281086 0.07338243 0.07394189
 0.0744893 0.07502385 0.07555199 0.07607409 0.07659452 0.07711338 0.07763252 0.07815142 0.07866863 0.07918085
 0.07967499 0.08014595 0.08057165 0.08095416 0.08128356 0.08157298 0.08183371 0.08207982 0.0823283 0.0825843
 0.08285699 0.08314208 0.08344164 0.08374374 0.08404633 0.08433641 0.08461042 0.08486643 0.08510304 0.08533018
 0.08554848 0.08576288 0.0859732 0.08617414 0.08636583 0.0865461 0.08671683 0.08688533 0.08705197 0.08722308
 0.08739406 0.08756074 0.08771543 0.08784671 0.08794956 0.08801454 0.08804331 0.08803365 0.08799026 0.08791488
 0.08780954 0.08767461 0.08751366 0.08732586 0.08712409 0.08690889 0.08669885 0.08649517 0.08631273 0.08615189
 0.08601862 0.08591159 0.0858247 0.08575505 0.08568652 0.08561888 0.08554154 0.08546 0.08538023 0.08530515
 0.08524401 0.08518863 0.08513565 0.08507581 0.08500022 0.0849118 0.08480865 0.08469898 0.08458594 0.08446908
 0.08434942 0.08422128 0.08408393 0.0839351 0.08377451 0.08360334 0.08342171 0.08323224 0.08303504 0.08283269
 0.08262451 0.08240926 0.08218591 0.08195069 0.08170392 0.0814449 0.08117305 0.08088871 0.08058713 0.08026423
 0.07991625 0.07953804 0.07913379 0.07870261 0.07825433 0.07779103 0.07732238 0.07685039 0.07638204 0.07591866
 0.07546142 0.07501066 0.07456051 0.0741107 0.07365658 0.07319872 0.07273959 0.07227991 0.07182439 0.07137273
 0.07092681 0.07048519 0.07004705 0.06960854 0.06916491 0.06871143 0.0682409 0.0677548 0.06724987 0.06673604
 0.06621642 0.06569957 0.06518963 0.06468608 0.06419037 0.0636952 0.06320041 0.06269538 0.06217949 0.06164132
 0.06108052 0.06049226 0.05987784 0.05924433 0.05859496 0.05794628 0.05730298 0.05668634 0.05609969 0.05556153
 0.0550669 0.05461992 0.05420592 0.05381349 0.05342991 0.05304185 0.05264999 0.0522497 0.05185137 0.05145681
 0.05107557 0.05070994 0.05036484 0.05004142 0.04973941 0.04945902 0.04919534 0.04894802 0.04870977 0.04847991
 0.04824978 0.04801878 0.04777871 0.04753118 0.04727541 0.04701588 0.04676123 0.04651375 0.04628139 0.04606101
 0.04585276 0.04565262 0.04545772 0.04526669 0.04507858 0.04489164 0.04470534 0.04451764 0.04432746 0.04413749
 0.04394757 0.04376345 0.0435856 0.043416 0.04325462 0.0430993 0.04294985 0.04280375 0.04266136 0.04252242
 0.04238855 0.04226372 0.04215052 0.0420563 0.0419815 0.04193126 0.04190067 0.04188922 0.04188525 0.04188348
 0.04186725 0.04182767 0.04175529 0.04164114 0.04150271 0.04133791 0.04118895 0.04106091 0.0409839 0.04096166
 0.04098313 0.04104711 0.04111981 0.04120084 0.04127191 0.04133609 0.04139842 0.04146031 0.04152946 0.04160308
 0.04167853 0.04175517 0.04182845 0.04190626 0.04199269 0.04209969 0.04223695 0.04240935 0.04262227 0.04287358
 0.04316296 0.04349177 0.04386002 0.04427095 0.04472648 0.04521457 0.04573556 0.04625375 0.04676675 0.04722367
 0.04762091 0.04790505 0.04807503 0.04809287 0.04796897 0.04770724 0.04733421 0.04690113 0.04643676 0.04600468
 0.04561442 0.04530192 0.04505354 0.04487269 0.04473859 0.04464203 0.04457119 0.04451922 0.04448691 0.04447213
 0.04448484 0.044526 0.04460421 0.04472078 0.04486844 0.0450463 0.04522771 0.04541084 0.04556667 0.04569693
 0.04579251 0.04586031 0.0459155 0.04596475 0.04603068 0.04611151 0.04621707 0.04633551 0.0464593 0.04657746
 0.04667783 0.04676336 0.04683027 0.04689175 0.04695193 0.04701657 0.04708879 0.04716299 0.04723859 0.04731276
 0.04738487 0.0474616 0.04754326 0.04763618 0.0477401 0.04785516 0.0479806 0.04811357 0.0482524 0.04839085
 0.0485271 0.04865297 0.04877162 0.04888237 0.04899364 0.04911431 0.04924775 0.0494013 0.04956738 0.04974461
 0.0499252 0.05010394 0.05028811 0.05047609 0.05068915 0.05092996 0.05121381 0.05154316 0.05190481 0.05229769
 0.0526877 0.05307524 0.05344724 0.05381146 0.05419912 0.05461716 0.05510774 0.05566229 0.05628924 0.05696271
 0.057654 0.05832914 0.05894668 0.05947652 0.05988362 0.06016 0.06028651 0.06029128 0.06017349 0.05998456
 0.05973321 0.05946704 0.05919353 0.05894265 0.05871766 0.05853173 0.05838538 0.0582779 0.05820837 0.05816816
 0.05815578 0.05815989 0.05817869 0.05819981 0.05822413 0.05824549 0.05827068 0.05830752 0.05835966 0.05843777
 0.05853 0.05863353 0.05873103 0.05881073 0.0588732 0.05891314 0.05894843 0.05898158 0.05902883 0.05909337
 0.05917993 0.05928967 0.05941483 0.0595549 0.05969432 0.05983336 0.05996742 0.06010048 0.06025048 0.06042037
 0.06063087 0.06087773 0.06116335 0.06147926 0.06181462 0.06216162 0.06250851 0.06285038 0.0631789 0.06349698
 0.06380325 0.06410398 0.06440242 0.06469556 0.06498301 0.06526282 0.06553229 0.0658126 0.06610513 0.06643163
 0.06679256 0.0671648 0.06754389 0.06787309 0.06815232 0.06834792 0.06847072 0.0685354 0.06855708 0.06857487
 0.06859904 0.06866378 0.06876686 0.06892414 0.0691127 0.0693277 0.06952823 0.06969517 0.06979349 0.06980255
 0.06972662 0.06955542 0.06934436 0.06909673 0.06888328 0.06871144 0.06860851 0.06857549 0.06858493 0.06863493
 0.06869443 0.06876596 0.06884775 0.0689417 0.06905393 0.06918244 0.06932559 0.06948151 0.06964833 0.06982008
 0.06999148 0.07015321 0.07029257 0.07041941 0.07052709 0.07065813 0.07082732 0.07105642 0.07136416 0.07169048
 0.07203068 0.07232513 0.07256693 0.07274185 0.07284911 0.07289198 0.07287353 0.07282638 0.07275672 0.07271888
 0.07270822 0.07274283 0.07280414 0.07285926 0.07289595 0.07287744 0.0728097 0.07268242 0.07251319 0.07230942
 0.072092 0.07187321 0.07166587 0.07147837 0.07130958 0.07115955 0.07103192 0.07092536 0.07085996 0.07083794
 0.07086543 0.07094251 0.07103737 0.07114725 0.07123002 0.07128592 0.07129423 0.07125769 0.07117276 0.07104545
 0.0708838 0.07070142 0.0705229 0.07035734 0.07022781 0.07012504 0.07004862 0.06999195 0.06994906 0.06992619
 0.06992662 0.06994438 0.06998076 0.07001787 0.07005253 0.07007869 0.0700952 0.07010353 0.0701038 0.07010534
 0.07011069 0.07015378 0.07023542 0.07038286 0.07058433 0.07081516 0.07106256 0.07128108 0.07147603 0.07163422
 0.07176859 0.07189001 0.07200297 0.07211483 0.07222506 0.07233721 0.07244247 0.07254187 0.0726128 0.07264899
 0.07264134 0.07258372 0.07250513 0.07240679 0.07232545 0.07226301 0.07222937 0.07222341 0.07223579 0.0722634
 0.07228584 0.07229811 0.07226859 0.07220289 0.07209115 0.07195839 0.07184026 0.07175399 0.07174078 0.07178072
 0.07187694 0.07199276 0.0721085 0.07220562 0.072271 0.07230705 0.07231002 0.07229621 0.07226683 0.07224108
 0.07222183 0.07220624 0.07219423 0.07216517 0.07211906 0.07205126 0.07196282 0.07185995 0.07173813 0.07158334
 0.07139419 0.07115432 0.07088048 0.07058907 0.07030299 0.07005638 0.06985562 0.06972064 0.06963687 0.06960689
 0.06959807 0.06960198 0.06958337 0.06952855 0.06943735 0.06930348 0.06916825 0.0690354 0.06893015 0.06885401
 0.0687748 0.06868935 0.06854714 0.06834911 0.06807488 0.06772884 0.06731457 0.06683739 0.06630814 0.06573837
 0.06514672 0.06455444 0.06398768 0.06347506 0.06304645 0.06272049 0.06252465 0.0624288 0.06244114 0.06247527
 0.0625148 0.06248093 0.0623535 0.06212825 0.06179935 0.06142742 0.06101562</values></Ydata></AB><ScSm><Ydata ylabel="Single channel"><values byteorder="INTEL" format="FLOAT32" numvalues="1814"> 0.05857366 0.05856525 0.05861673 0.05874964 0.05893451 0.05911199 0.0592365 0.05930127 0.05931928 0.05929287
 0.05922865 0.05917719 0.05921638 0.05937473 0.05958824 0.05974504 0.05977415 0.05970751 0.05966128 0.05972432
 0.0598404 0.05982484 0.05953768 0.05904383 0.05857114 0.05829923 0.05824607 0.05840133 0.05884053 0.05951538
 0.06001427 0.05985524 0.05909272 0.05834951 0.05812558 0.05831444 0.05849351 0.05841399 0.05808121 0.05765127
 0.05746619 0.05796793 0.05926953 0.06079073 0.06146019 0.0603914 0.05751783 0.05379563 0.05084652 0.05008655
 0.05173299 0.05451871 0.05664051 0.05719547 0.05662086 0.05579156 0.05507408 0.05442583 0.05400562 0.05422083
 0.0551658 0.05623176 0.0564194 0.05519517 0.05312125 0.05145465 0.05099837 0.0515962 0.05280475 0.05438668
 0.05562868 0.0549364 0.05138952 0.04674385 0.04466978 0.04726833 0.05283052 0.05750646 0.05873608 0.05670456
 0.05324452 0.05030533 0.04920763 0.05028932 0.05284546 0.05571102 0.05796805 0.05900022 0.05833671 0.05605321
 0.05317701 0.05119866 0.05115958 0.05323783 0.05670592 0.05999562 0.06140757 0.06036214 0.05778826 0.05514143
 0.05343944 0.0532543 0.05485919 0.0579525 0.06163303 0.06491654 0.06713897 0.06803217 0.06778295 0.0669129
 0.06588024 0.06499968 0.06471834 0.06534585 0.06632607 0.06643984 0.06512703 0.06323034 0.06212787 0.06230748
 0.06297495 0.06302322 0.06215719 0.06073371 0.05867072 0.0553946 0.05114977 0.04738675 0.04531851 0.0449793
 0.04606537 0.04841929 0.05103594 0.05199748 0.05056884 0.04854853 0.04849658 0.05100306 0.05437457 0.0566946
 0.057598 0.05814287 0.05944847 0.06155373 0.06326927 0.06306883 0.06059358 0.05751797 0.05637775 0.05808517
 0.06104697 0.06312735 0.06390759 0.06448478 0.0655467 0.06630979 0.06533633 0.062243 0.058635 0.05712104
 0.05904031 0.06311966 0.066396 0.06641574 0.06288923 0.05775554 0.05366836 0.05216084 0.05322923 0.05633884
 0.06101903 0.06633505 0.07063834 0.07248748 0.0717019 0.06928325 0.06626759 0.06276426 0.05850119 0.05442214
 0.05289175 0.05547129 0.06093337 0.0662795 0.0694156 0.07021005 0.06934559 0.06703451 0.0631903 0.05864702
 0.05557667 0.05581614 0.05866315 0.0612574 0.06157196 0.06026846 0.0592503 0.05928486 0.05969856 0.05982301
 0.0599516 0.06083108 0.06258935 0.06443501 0.06541972 0.06530456 0.06461263 0.06401774 0.0637312 0.06334773
 0.06241336 0.06131592 0.06125714 0.06294254 0.0656181 0.06784412 0.06894413 0.06926604 0.0692283 0.0685754
 0.06674643 0.06393064 0.06150457 0.06101508 0.06268734 0.06528433 0.06739904 0.06846714 0.06863676 0.0682663
 0.06767964 0.06705686 0.06648462 0.06619257 0.06650233 0.0673805 0.06832066 0.06885001 0.06892252 0.06870553
 0.06824731 0.06752779 0.06668884 0.06605002 0.0658849 0.06621599 0.06683654 0.0674922 0.06798181 0.06814279
 0.06790721 0.06740648 0.06688768 0.0664918 0.06621736 0.06608583 0.06618447 0.0665098 0.06689542 0.0671557
 0.06723253 0.06717087 0.06701938 0.06679977 0.06653854 0.06629375 0.06614961 0.06616516 0.06630442 0.06645294
 0.06654419 0.06662476 0.06674154 0.06682304 0.06675547 0.06654306 0.06631362 0.06618006 0.06615347 0.06617945
 0.06619714 0.06614242 0.06594169 0.06557535 0.06516328 0.06492208 0.06498837 0.06531569 0.06575656 0.06617872
 0.06648654 0.0666257 0.06662248 0.0665607 0.06648313 0.06635563 0.06614622 0.06590931 0.06577638 0.06585716
 0.06613657 0.06647758 0.06673846 0.06686887 0.06689675 0.06688119 0.06689067 0.06695949 0.06703857 0.0670415
 0.06695634 0.0668692 0.06686594 0.0669402 0.06700654 0.06699431 0.06692585 0.06689495 0.06696396 0.06710275
 0.06723748 0.06733251 0.06740546 0.06747778 0.067527 0.06749713 0.06736794 0.06720212 0.06709102 0.06705956
 0.06706364 0.06707451 0.06711519 0.0672044 0.06730656 0.0673625 0.06735446 0.06732132 0.06730662 0.06730285
 0.06726251 0.06716201 0.06703562 0.06693999 0.06689943 0.06689227 0.06688021 0.0668422 0.06678274 0.06671549
 0.06664617 0.06657057 0.06648201 0.06638384 0.06630327 0.06628296 0.06633589 0.06640906 0.06641515 0.06631128
 0.06613802 0.06597582 0.06586798 0.0657908 0.0656954 0.06556696 0.06543302 0.06532213 0.06523484 0.06515652
 0.0650777 0.06499604 0.0649197 0.06487872 0.0649097 0.06500763 0.06510721 0.06513709 0.06508887 0.06501662
 0.0649759 0.06498191 0.06501864 0.06506693 0.06512383 0.06520332 0.06531045 0.06541464 0.0654729 0.06548551
 0.06550175 0.06556465 0.06567701 0.06582186 0.06597835 0.06611244 0.06619278 0.06623127 0.06627806 0.06636278
 0.06646539 0.06655578 0.06663747 0.06673506 0.0668573 0.06699432 0.06714483 0.06732541 0.06754835 0.06779861
 0.06803648 0.06822407 0.06835793 0.06848085 0.06865381 0.06890631 0.06921189 0.06951313 0.06977022 0.06998782
 0.07019716 0.07041518 0.07063152 0.07084123 0.07107107 0.07135147 0.07167392 0.07200003 0.07230598 0.07259723
 0.07288635 0.0731777 0.07347281 0.07377764 0.07410316 0.0744576 0.07482806 0.07517409 0.07545726 0.07568086
 0.0758905 0.0761359 0.07643516 0.07676207 0.07705843 0.07727794 0.07743728 0.07760966 0.07784699 0.07812205
 0.07837158 0.07858346 0.07880807 0.07908425 0.07938851 0.07967022 0.07991317 0.08014312 0.0803861 0.08063511
 0.08085585 0.08102033 0.08113702 0.0812463 0.08138245 0.08155105 0.0817524 0.08200496 0.08231829 0.0826548
 0.08294954 0.08316615 0.08331411 0.08342303 0.08352387 0.0836428 0.08378702 0.08394007 0.0840833 0.0842098
 0.08431229 0.0843855 0.08445272 0.08456081 0.08473166 0.08494388 0.0851759 0.08543564 0.08572658 0.08601664
 0.08627609 0.0865303 0.08683282 0.08718337 0.0875084 0.08773801 0.08787324 0.08796015 0.08803166 0.08810866
 0.08823106 0.08843726 0.08871371 0.08900107 0.08925366 0.08946835 0.08965565 0.08981121 0.08992606 0.09000798
 0.09008039 0.09016599 0.09028085 0.09044361 0.09067683 0.09098446 0.09132925 0.09164792 0.09189391 0.09205492
 0.09212908 0.09211025 0.09201236 0.09188601 0.09177804 0.09167437 0.09150475 0.09120663 0.09076764 0.09020537
 0.08953167 0.08875552 0.08791091 0.08706538 0.08629782 0.08567224 0.08523265 0.08501512 0.08505129 0.08534458
 0.08583946 0.08642471 0.08697398 0.08737953 0.08755507 0.08743791 0.08701407 0.08633511 0.08549435 0.08458619
 0.08368479 0.08283694 0.08205818 0.08135092 0.08074893 0.08034258 0.08025166 0.08057524 0.0813631 0.08260398
 0.08421008 0.08601497 0.08781855 0.08946357 0.09088365 0.09208934 0.09312536 0.09404603 0.09490544 0.09573552
 0.09652798 0.0972546 0.0979073 0.09850308 0.09905228 0.09953941 0.09993602 0.1002204 0.1003895 0.1004636
 0.1004781 0.1004614 0.1004283 0.1003942 0.1003759 0.1003633 0.1003011 0.1001158 0.09976124 0.09924346
 0.09862131 0.09801078 0.09759289 0.09759298 0.09820425 0.09948257 0.1012913 0.1033521 0.1053688 0.1071305
 0.1085466 0.1096281 0.1104493 0.1111039 0.1116691 0.1121922 0.1126943 0.1131783 0.1136383 0.1140698
 0.1144755 0.1148641 0.1152471 0.1156338 0.1160212 0.1163944 0.1167431 0.1170776 0.1174252 0.1178057
 0.1182088 0.1185998 0.1189555 0.1192895 0.1196291 0.1199734 0.1202952 0.1205844 0.1208654 0.1211692
 0.1215065 0.1218681 0.1222311 0.1225654 0.1228505 0.1230946 0.1233281 0.1235766 0.1238473 0.1241337
 0.1244263 0.1247149 0.124991 0.1252548 0.125517 0.1257884 0.1260619 0.1263143 0.1265315 0.1267289
 0.126939 0.1271792 0.1274368 0.1276852 0.1279141 0.1281407 0.1283929 0.128679 0.1289761 0.1292501
 0.1294852 0.1296923 0.1298933 0.1301024 0.1303226 0.1305543 0.1307975 0.1310499 0.1313061 0.131562
 0.1318159 0.1320658 0.1323089 0.1325437 0.1327725 0.1330013 0.1332341 0.1334686 0.1337006 0.1339345
 0.1341834 0.1344519 0.1347228 0.1349698 0.135183 0.1353763 0.1355703 0.1357746 0.1359861 0.1361998
 0.1364165 0.1366428 0.1368839 0.1371367 0.1373906 0.1376358 0.1378707 0.1381006 0.1383317 0.1385681
 0.1388128 0.139065 0.1393171 0.139559 0.139786 0.1400014 0.1402126 0.1404256 0.1406429 0.1408632
 0.1410824 0.1412992 0.1415173 0.1417404 0.1419655 0.1421857 0.1423982 0.1426082 0.1428234 0.1430466
 0.1432734 0.1434976 0.1437159 0.1439298 0.1441423 0.1443561 0.1445724 0.1447883 0.1449995 0.1452081
 0.1454227 0.1456476 0.145878 0.1461074 0.146333 0.1465529 0.1467649 0.1469717 0.1471796 0.1473933
 0.1476117 0.1478312 0.1480507 0.1482724 0.1484959 0.1487156 0.1489286 0.1491422 0.1493658 0.1495983
 0.1498307 0.1500576 0.1502793 0.1504964 0.1507105 0.1509245 0.1511399 0.1513562 0.151574 0.1517951
 0.1520189 0.1522421 0.1524606 0.1526732 0.1528824 0.1530882 0.1532853 0.1534705 0.1536506 0.1538358
 0.154032 0.1542428 0.1544702 0.1547094 0.1549501 0.1551869 0.1554185 0.1556435 0.1558641 0.1560892
 0.1563231 0.1565597 0.1567924 0.1570219 0.1572532 0.1574894 0.1577276 0.1579598 0.1581823 0.1584017
 0.1586258 0.1588549 0.1590864 0.1593194 0.1595511 0.1597801 0.1600127 0.1602548 0.1605029 0.1607501
 0.1609931 0.1612285 0.1614537 0.161673 0.1618923 0.1621121 0.1623318 0.1625524 0.1627731 0.1629932
 0.1632142 0.1634327 0.1636422 0.1638493 0.1640697 0.1643058 0.1645466 0.1647835 0.1650111 0.1652244
 0.165429 0.1656398 0.1658631 0.166092 0.1663181 0.1665356 0.1667446 0.1669545 0.167168 0.1673641
 0.1674955 0.1674568 0.1669826 0.1655391 0.1623166 0.1564023 0.1471556 0.1346218 0.1196516 0.1035861
 0.08776431 0.07319491 0.06047976 0.04989169 0.04148736 0.0351821 0.03081268 0.02824302 0.02746362 0.0286797
 0.0324071 0.03917207 0.04837266 0.05725716 0.06198264 0.06064366 0.05509328 0.04925377 0.0458515 0.04508706
 0.04579741 0.04698519 0.04833566 0.05003561 0.05240455 0.0555368 0.05928166 0.06362693 0.06889477 0.07533369
 0.08261254 0.08994902 0.09678409 0.1032301 0.109814 0.1168478 0.124101 0.1310292 0.1372122 0.1425681
 0.1472691 0.1515446 0.1555506 0.1593558 0.1629902 0.1664442 0.1695956 0.1721801 0.1739171 0.1747206
 0.1747999 0.1745425 0.174289 0.1742026 0.1743052 0.1745735 0.1749851 0.175519 0.1761544 0.1768702
 0.1776392 0.1784335 0.1792322 0.1800179 0.1807717 0.1814803 0.1821408 0.1827533 0.1833143 0.183821
 0.1842771 0.1846947 0.1850907 0.1854753 0.1858457 0.1861946 0.1865214 0.1868295 0.1871199 0.1873919
 0.1876467 0.1878837 0.1881008 0.1882995 0.1884892 0.1886832 0.1888919 0.1891156 0.1893454 0.1895729
 0.1897973 0.1900204 0.1902413 0.1904583 0.1906695 0.1908702 0.1910582 0.1912422 0.1914346 0.1916369
 0.1918431 0.1920513 0.1922619 0.1924673 0.1926581 0.1928366 0.1930159 0.1932056 0.1934068 0.1936152
 0.1938271 0.194043 0.1942652 0.1944914 0.1947165 0.1949397 0.195163 0.1953847 0.1956028 0.1958185
 0.196028 0.1962195 0.1963865 0.1965451 0.1967275 0.1969555 0.1972167 0.1974742 0.1977036 0.1979121
 0.1981179 0.1983244 0.1985232 0.1987093 0.1988902 0.1990882 0.1993257 0.1995969 0.1998697 0.2001254
 0.200373 0.2006219 0.2008699 0.2011218 0.2013801 0.2016173 0.2017958 0.2019256 0.2020773 0.2023263
 0.2026826 0.2030764 0.2034222 0.2036958 0.2039353 0.2041856 0.2044654 0.2047511 0.2049602 0.2050077
 0.2049428 0.2049723 0.2052729 0.2058125 0.2064044 0.2068968 0.2072652 0.207563 0.2078376 0.2080858
 0.2082605 0.2083226 0.2083137 0.2083784 0.2086662 0.2091794 0.2097573 0.2102383 0.2105846 0.2108353
 0.2110299 0.2112026 0.2113302 0.2112695 0.2109114 0.2104586 0.2103754 0.2109345 0.2119085 0.2128132
 0.2133878 0.213729 0.2140203 0.2143075 0.2145482 0.2146524 0.2143802 0.213479 0.2121744 0.2113049
 0.21163 0.2130656 0.2148219 0.2161908 0.2169936 0.2174096 0.2176668 0.2178903 0.2180102 0.2177668
 0.2169995 0.216036 0.2156152 0.2162053 0.2174772 0.2186572 0.2193166 0.2195974 0.2198042 0.2200643
 0.2202459 0.2199049 0.2185316 0.2162995 0.2144569 0.214451 0.216512 0.2193797 0.2215554 0.222594
 0.2229962 0.2231074 0.2226019 0.2210693 0.2186404 0.2159291 0.2138222 0.2133494 0.2150101 0.2179277
 0.2203419 0.2213418 0.22164 0.2224072 0.2238749 0.2253412 0.2260805 0.225906 0.2250414 0.2237171
 0.2220599 0.2204696 0.2198472 0.2209573 0.2235052 0.2262393 0.2281102 0.2290688 0.2295245 0.2291246
 0.2265016 0.2209088 0.2142814 0.2107159 0.212861 0.2191517 0.2254956 0.2293051 0.230923 0.2317034
 0.2321797 0.231921 0.2297902 0.2245633 0.2168672 0.2104069 0.2094682 0.2146788 0.2222929 0.2276846
 0.2285018 0.2249199 0.2188084 0.2131739 0.2109395 0.2131764 0.218629 0.2249569 0.2301433 0.2330511
 0.2334091 0.2317077 0.2291743 0.2274776 0.2275115 0.2280667 0.226743 0.22297 0.2189485 0.2164395
 0.2140839 0.2099766 0.2058801 0.2060701 0.2117612 0.2190425 0.2232442 0.2236579 0.2227255 0.2216065
 0.2182188 0.2102475 0.1995182 0.1921124 0.1930439 0.2010511 0.2097137 0.2137297 0.2131298 0.2114237
 0.2109093 0.2103421 0.2067359 0.1992881 0.1913694 0.1877207 0.1894525 0.1930659 0.1946142 0.1928761
 0.188017 0.1802966 0.1722806 0.1696839 0.1765533 0.1903028 0.2037166 0.2108823 0.2093767 0.1990061
 0.1826126 0.1677567 0.1630553 0.1704952 0.1830222 0.1910111 0.1899321 0.1812206 0.1681319 0.1534397
 0.1406732 0.1346037 0.1384031 0.1504066 0.1641864 0.1718274 0.1683229 0.1553967 0.1417182 0.136684
 0.1419596 0.1503742 0.153962 0.1511827 0.1458562 0.1421753 0.142234 0.1457125 0.1502622 0.1536767
 0.1556503 0.1554407 0.1495268 0.1358599 0.1196391 0.1099267 0.1102275 0.1166715 0.1252587 0.1354448
 0.145442 0.1497745 0.1454371 0.1375713 0.1350882 0.1412098 0.1507033 0.1562783 0.1558132 0.1527643
 0.15086 0.1501488 0.1488127 0.147418 0.1490883 0.1551612 0.1627965 0.1681132 0.1702063 0.1708001
 0.171297 0.171712 0.1716717 0.1710435 0.1698651 0.1684594 0.1673468 0.166648 0.1659554 0.1649313
 0.1633204 0.1600941 0.1536932 0.1442998 0.1352417 0.1304015 0.1301607 0.1316563 0.1329945 0.1343719
 0.1342176 0.1280575 0.1144081 0.09964527 0.09336796 0.09913135 0.1118165 0.1234823 0.1294311 0.1286149
 0.1213033 0.1092993 0.09790029 0.09423582 0.1014692 0.1157932 0.1305306 0.1418578 0.1491826 0.1519952
 0.1493285 0.1421752 0.1343818 0.1304527 0.1328577 0.1409543 0.1511394 0.157683 0.1555318 0.1453985
 0.1361004 0.1380308 0.152155 0.168288 0.1765278 0.1773068 0.1772895 0.1790031 0.1796164 0.1783405
 0.1793495 0.1860691 0.1961105 0.2035993 0.2043276 0.1974192 0.184736 0.1712204 0.1636165 0.1651241
 0.1718331 0.1770234 0.1776952 0.1741934 0.1662222 0.1544544 0.1447309 0.1445718 0.1544574 0.1667756
 0.1744836 0.1775382 0.1797498 0.1821974 0.1819175 0.1764042 0.1677852 0.1615143 0.1609862 0.1645719
 0.1683875 0.1703761 0.1703791 0.167865 0.1622453 0.1554433 0.1519098 0.1547955 0.1627201 0.1710686
 0.1761161 0.1773709 0.1765158 0.1752154 0.173973 0.1722465 0.1695855 0.1671247 0.1673711 0.1715055
 0.1774745 0.1820837 0.1846508 0.1872354 0.1913804 0.1959572 0.1985264 0.19801 0.1957377 0.1943061
 0.1955041 0.1988905 0.2021154 0.2029129 0.2012492 0.1995586 0.2005098 0.204456 0.2093722 0.2131395
 0.2152721 0.2164926 0.2174888 0.2183102 0.2183318 0.2167276 0.2136493 0.2109223 0.2107538 0.2135298
 0.2174286 0.220285 0.2213293 0.2210704 0.2201265 0.2186128 0.2164997 0.2141668 0.2123739 0.2117086
 0.2121982 0.213467 0.2151006 0.2167982 0.2183576 0.219679 0.2207612 0.2216386 0.2223503 0.2229603
 0.2235224 0.2240079 0.2243471 0.224574 0.2248499 0.225286 0.2257983 0.2262003 0.2263848 0.2263324
 0.2259985 0.2253194 0.224329 0.2231529 0.2218554 0.2203991 0.2188472 0.2175657 0.2171099 0.2178219
 0.2195236 0.2216209 0.2235047 0.2248558 0.2256559 0.2260412 0.2261861 0.2262418 0.2262944 0.2263538
 0.2263903 0.226384 0.226345 0.2262987 0.2262632 0.2262459 0.2262567 0.2263086 0.2263987 0.2264955
 0.2265531 0.2265391 0.2264527 0.2263174 0.2261525 0.225946 0.2256536 0.2252299 0.2246666 0.2240065
 0.2233208 0.2226646 0.2220396 0.2213961 0.220681 0.21988 0.2189971 0.2180054 0.2168688 0.2156293
 0.2144198 0.2133495 0.2124086 0.2115089 0.2105784 0.209586 0.2085168 0.2073698 0.2061658 0.2049341
 0.2036962 0.2024664 0.201251 0.20004 0.1988054 0.1975131 0.1961396 0.1946832 0.1931621 0.1915954
 0.189974 0.1882397 0.186287 0.1839905 0.1812414 0.1779784 0.17421 0.1700251 0.1655752 0.1610328
 0.1565556 0.1522743 0.1482964 0.1447162 0.1416227 0.1390905 0.1371598 0.135832 0.135087 0.1349031
 0.1352663 0.136169 0.1375864 0.139445 0.1416162 0.1439447 0.1462769 0.1484816 0.1504827 0.1522906
 0.1539829 0.1556298 0.1572354 0.1587545 0.1601533 0.1614302 0.1625814 0.1635828 0.1644189 0.1651072
 0.1656804 0.1661641 0.1665756 0.1669246 0.1672127 0.1674479 0.1676557 0.1678637 0.1680858 0.1683311
 0.1686111 0.1689295 0.1692815 0.1696701 0.1701122 0.1706235 0.171201 0.1718257 0.1724854 0.1731917
 0.1739671 0.1748193 0.1757467 0.176767 0.1779147 0.1792077 0.1806307 0.1821453 0.1836973 0.1852172
 0.1866279 0.187862 0.1888825 0.1896948 0.1903355 0.1908394 0.1912231 0.1914984 0.1916859 0.1918101
 0.1918883 0.1919259 0.1919224 0.1918816 0.191807 0.1916853 0.1914923 0.1912315 0.1909458 0.1906769
 0.1904292 0.190181 0.1899167 0.1896354 0.1893426 0.189042 0.1887373 0.188436 0.1881461 0.1878636
 0.1875679 0.187233 0.1868321 0.1863392 0.1857427 0.1850544 0.1842895 0.1834445 0.1825068 0.1814754
 0.1803581 0.1791607 0.1778848 0.1765302 0.1750963 0.1735809 0.1719762 0.1702758 0.1685038 0.1667251
 0.1650062 0.1633746 0.1618296 0.1603692 0.1589874 0.1576661 0.1563914 0.1551659 0.153995 0.1528734
 0.1517852 0.1507118 0.1496394 0.1485644 0.1474932 0.1464436 0.1454505 0.144563 0.1438321 0.1433044
 0.1430065 0.1429146 0.1429523 0.1430448 0.1431637 0.143302 0.1434277 0.1434862 0.1434375 0.1432821
 0.1430612 0.1428363 0.1426563 0.1425363 0.1424556 0.1423615 0.1421794 0.1418358 0.1412715 0.1404378
 0.1393079 0.1379046 0.1363055 0.1346174 0.1329497 0.131397 0.1300283 0.1288888 0.1280022 0.1273481
 0.1268505 0.1264233 0.1260371 0.1257367 0.1255974 0.1256435 0.1257805 0.125839 0.1257293 0.12554
 0.125452 0.125578 0.1258942 0.1262828 0.1266186 0.1268442 0.1269875 0.1271084 0.1272464 0.1274101
 0.1275751 0.1276884 0.1277054 0.1276192 0.1274436 0.1271914 0.1268812 0.1265243 0.1261016 0.1255813
 0.1249555 0.1242428 0.1234721 0.1226612 0.1217787 0.1207626 0.1196336 0.1185726 0.1178353 0.1175936
 0.1178447 0.1184268 0.1191387 0.1198793 0.1206122 0.1211834 0.121355 0.1211683 0.1211371 0.1218597
 0.1234264 0.1253295 0.1269541 0.1280271 0.1285754 0.1286485 0.1282393 0.1273613 0.1260329 0.1242472
 0.1220627 0.1196325 0.1170807 0.1144757 0.1119372 0.1096249 0.1076347 0.105998 0.1047204 0.1038352
 0.1034456 0.1032162 0.1015195 0.09629942 0.08825866 0.08225314 0.08320394 0.09056099 0.09870087 0.1028716
 0.102966 0.1015204 0.100262 0.09944458 0.09899628 0.09906286 0.09976059 0.100953 0.1022809 0.1033764
 0.1040881 0.1044459 0.1044148 0.1037089 0.1017384 0.09778593 0.09157781 0.0838279 0.07601263 0.06950089
 0.06493241 0.06222684 0.06086861 0.0602072 0.05978013 0.05952983 0.05971754 0.06061036 0.06224862 0.06448705
 0.06715603 0.07005797 0.0728599 0.07520775 0.07700679 0.07843201 0.07962313 0.0805147 0.08098336 0.08101729
 0.08070904 0.08018272 0.07955346 0.07888919 0.07817023 0.07731212 0.07629114 0.07526692 0.07450558 0.07413141
 0.07402561 0.0740023 0.07398207 0.07396224 0.0739383 0.07390517 0.07386865 0.07385452 0.07394295 0.07423057
 0.0747043 0.07521091 0.07558642 0.07578273 0.07586765 0.07590353 0.07580578 0.07540293 0.07472683 0.07409152
 0.07368952 0.07326666 0.07247198 0.07143041 0.07068275 0.07058173 0.07096354 0.07139917 0.07158299 0.0714725
 0.07124323 0.07119901 0.07157958 0.07229251</values></Ydata></ScSm><ScRf><Ydata ylabel="Single channel"><values byteorder="INTEL" format="FLOAT32" numvalues="1820"> 0.06070314 0.06085927 0.06095349 0.06099171 0.06099457 0.06099951 0.0610534 0.06118428 0.06137602 0.06157103
 0.06170833 0.06176747 0.06176751 0.06172731 0.06165803 0.06160121 0.06162985 0.06178058 0.06199957 0.06217346
 0.06221874 0.06215673 0.0621049 0.06216143 0.0622745 0.06225318 0.06194736 0.06141959 0.06090707 0.06060392
 0.06053872 0.06070582 0.06118016 0.06190011 0.06242402 0.06224474 0.0614257 0.06062602 0.06037002 0.0605461
 0.06071884 0.0606375 0.06030854 0.05988587 0.05971668 0.06025734 0.06162243 0.06320199 0.06387697 0.06272901
 0.05969919 0.05579229 0.05270299 0.05191004 0.0536381 0.05655633 0.0587749 0.05935439 0.05876069 0.05790798
 0.0571681 0.05648689 0.056032 0.05623865 0.05721241 0.05831445 0.05849243 0.05718873 0.05500339 0.05326049
 0.05279516 0.05343396 0.05470898 0.05636694 0.05764998 0.05688864 0.05314424 0.04828547 0.04615712 0.04892888
 0.05477884 0.05966704 0.06092673 0.05877372 0.05514552 0.05208926 0.05097374 0.05212681 0.05479715 0.05777594
 0.06011785 0.06117699 0.06045371 0.05803621 0.05501827 0.0529629 0.05294311 0.05512821 0.05875181 0.06217524
 0.06362534 0.06250331 0.0597886 0.0570075 0.05522642 0.05504556 0.05674915 0.06001475 0.06389224 0.06734739
 0.06968164 0.07061088 0.0703329 0.069405 0.06832092 0.06741448 0.06714131 0.06780487 0.06881274 0.06889848
 0.06749494 0.06549487 0.06433738 0.06452408 0.0652193 0.06526612 0.06435586 0.06285396 0.06066792 0.05720924
 0.05275978 0.04884911 0.04673055 0.04641966 0.04759677 0.0501027 0.05287801 0.05390118 0.0524006 0.05026788
 0.05018873 0.05277932 0.05626652 0.05865157 0.0595654 0.06012578 0.06150189 0.06371807 0.06551093 0.06528075
 0.06267191 0.05946147 0.05830503 0.06013232 0.06325324 0.06543888 0.06627536 0.06692073 0.06807755 0.06890026
 0.06787986 0.06464132 0.06089587 0.05937321 0.0614403 0.06573313 0.0691489 0.06913783 0.06541781 0.06003792
 0.05578542 0.05425706 0.05543813 0.05877372 0.06378135 0.06947766 0.07411806 0.07617161 0.07542925 0.07293298
 0.06978324 0.06611764 0.06166548 0.05743114 0.05591699 0.05876581 0.06466003 0.0704156 0.07382345 0.07475376
 0.07392088 0.0715259 0.06746742 0.0626637 0.05948178 0.05989937 0.06312313 0.06603687 0.06646101 0.06514117
 0.06415085 0.06431004 0.06487229 0.06511275 0.06536972 0.06647307 0.06855632 0.07073209 0.07194369 0.07192376
 0.07125366 0.07069108 0.07048078 0.07017002 0.06924982 0.06816475 0.06826882 0.07033551 0.07348716 0.07609499
 0.07741655 0.0778694 0.0779344 0.07731161 0.07535166 0.0722698 0.06964497 0.06924909 0.07133447 0.07447287
 0.07704043 0.07838818 0.07869841 0.07839703 0.0778589 0.07728745 0.07678504 0.07661857 0.0771455 0.0783045
 0.07950272 0.08020927 0.08039238 0.08025211 0.07983603 0.07911608 0.07826585 0.07766537 0.07762337 0.07814556
 0.07898726 0.07987394 0.08059183 0.0809398 0.08080372 0.08032004 0.07979957 0.07944345 0.07926382 0.07927138
 0.0795467 0.08007362 0.08065598 0.08108048 0.08128415 0.08132415 0.08125965 0.08111171 0.08090264 0.08070228
 0.0806279 0.08076181 0.08104755 0.08132803 0.08153001 0.08173732 0.08201714 0.08225979 0.0822951 0.08211888
 0.0819054 0.08181617 0.08187047 0.08198962 0.08208731 0.08208413 0.08189625 0.08150853 0.08107767 0.08087549
 0.08107048 0.08160459 0.08229172 0.08295244 0.0834455 0.08369481 0.08374685 0.0837242 0.08368361 0.08357609
 0.08336215 0.08311804 0.08300973 0.08316746 0.08357309 0.08406875 0.08448349 0.08473836 0.0848479 0.08488938
 0.08497344 0.08515661 0.08535779 0.08543503 0.08536523 0.08528149 0.08531253 0.0854366 0.0855201 0.08547837
 0.08537592 0.08536049 0.08550581 0.08574444 0.08596036 0.08611608 0.08626814 0.08647017 0.0866769 0.08676274
 0.08665682 0.0864422 0.08627571 0.08622187 0.08622908 0.08626167 0.08636661 0.08657654 0.08681537 0.08696158
 0.08698465 0.08697137 0.08701131 0.08708861 0.08710719 0.08700623 0.08682472 0.08665912 0.08658396 0.08661214
 0.08670201 0.08678554 0.08680383 0.08673852 0.08661801 0.08648977 0.0863867 0.08632797 0.08634797 0.08649006
 0.08673953 0.08697695 0.08704507 0.08688892 0.0866172 0.08640593 0.08633868 0.08634599 0.08629448 0.08611904
 0.08586405 0.08561744 0.08543058 0.08529992 0.08519849 0.08511083 0.08505255 0.08506729 0.08518274 0.08534743
 0.08543244 0.08533566 0.08508407 0.08480689 0.08461619 0.08453514 0.08452071 0.08451878 0.08450909 0.08452216
 0.0845948 0.08469613 0.08473639 0.08467096 0.08455873 0.08450171 0.08456359 0.08474601 0.08498439 0.08515766
 0.08516794 0.08504131 0.0849093 0.08487487 0.08493191 0.08502124 0.08511436 0.08521621 0.08532356 0.08542401
 0.08552931 0.08567983 0.08590366 0.08617801 0.08643602 0.08661529 0.08671008 0.08678307 0.08692075 0.08716577
 0.08748565 0.08780361 0.0880618 0.08826171 0.08844666 0.08864588 0.08884832 0.08904161 0.08925504 0.08953243
 0.08987068 0.09021898 0.09053703 0.09082551 0.09110054 0.09136882 0.09163661 0.09192719 0.09227671 0.09270183
 0.09316009 0.09355385 0.09380266 0.09392118 0.0940156 0.09420414 0.09453601 0.09495398 0.09532017 0.09552103
 0.09558408 0.09566137 0.09586421 0.0961477 0.09640069 0.09661305 0.09688833 0.09729546 0.09776659 0.09816399
 0.0984186 0.09858085 0.09874599 0.09894778 0.09913512 0.09925103 0.09931344 0.09939408 0.09952967 0.09969916
 0.09989703 0.1001738 0.1005637 0.1010079 0.1013973 0.101675 0.1018623 0.1020044 0.1021267 0.1022298
 0.1022974 0.1023234 0.102343 0.1024072 0.1025139 0.1026006 0.1026295 0.1026418 0.1027062 0.1028492
 0.1030612 0.1033332 0.103646 0.1039511 0.1042139 0.1044722 0.1047986 0.1051875 0.1055251 0.1057075
 0.105755 0.1057648 0.1057876 0.1058143 0.1058621 0.1059966 0.1062526 0.1065874 0.1069364 0.1072768
 0.1076196 0.1079633 0.1082736 0.1085008 0.1086129 0.1086213 0.1085842 0.1085835 0.1086898 0.1089267
 0.1092553 0.1095969 0.1098835 0.1100803 0.110169 0.1101461 0.1100625 0.1100314 0.1101408 0.1103538
 0.110524 0.1105184 0.1103036 0.1099165 0.1093943 0.108761 0.1080642 0.1073899 0.1068259 0.1064219
 0.1061937 0.1061627 0.1063711 0.106834 0.1074835 0.1081886 0.1088354 0.1093569 0.1096818 0.1097121
 0.1093955 0.1087958 0.1080568 0.1073097 0.1066252 0.1060148 0.1054445 0.1048782 0.1043515 0.1040058
 0.1040314 0.1045639 0.1056125 0.1070441 0.1086234 0.1101033 0.1113309 0.1122967 0.1130897 0.1138024
 0.1144769 0.1151271 0.115776 0.1164366 0.1170751 0.117636 0.1181077 0.1185304 0.1189402 0.1193327
 0.1196802 0.1199614 0.1201815 0.120377 0.1205834 0.1207798 0.120893 0.1208789 0.1207744 0.120648
 0.1205216 0.1203598 0.120114 0.1197619 0.1193355 0.118945 0.1187689 0.1189817 0.119654 0.120707
 0.1219714 0.1232952 0.1245845 0.1257573 0.1267136 0.1273896 0.1278185 0.1281054 0.1283519 0.1286162
 0.128916 0.1292387 0.1295576 0.1298557 0.1301373 0.1304221 0.1307335 0.1310803 0.1314357 0.1317485
 0.1319944 0.1322107 0.1324695 0.1328119 0.1332091 0.1335921 0.1339225 0.1342255 0.1345371 0.1348372
 0.1350707 0.1352286 0.135373 0.1355783 0.1358769 0.136253 0.1366516 0.1369979 0.1372446 0.1374123
 0.1375652 0.1377485 0.1379639 0.1381958 0.1384376 0.1386881 0.1389458 0.1392154 0.13951 0.1398301
 0.1401405 0.140387 0.1405477 0.1406636 0.1408049 0.1410076 0.1412462 0.1414701 0.1416618 0.1418577
 0.1421104 0.1424292 0.1427605 0.1430333 0.1432211 0.1433533 0.1434779 0.1436249 0.1438031 0.1440082
 0.1442257 0.1444364 0.1446316 0.1448219 0.1450254 0.1452471 0.1454741 0.1456895 0.1458889 0.1460828
 0.1462851 0.1465011 0.1467294 0.1469739 0.1472444 0.1475362 0.1478196 0.148059 0.1482423 0.1483845
 0.1485075 0.1486307 0.1487728 0.1489473 0.149152 0.1493712 0.1495913 0.1498054 0.1500108 0.1502077
 0.1504004 0.1505934 0.1507886 0.1509883 0.1511976 0.1514212 0.1516591 0.1519021 0.1521321 0.1523325
 0.152504 0.1526684 0.1528493 0.1530493 0.1532507 0.1534388 0.1536199 0.1538123 0.1540233 0.1542421
 0.1544529 0.1546512 0.1548445 0.1550426 0.1552452 0.155443 0.1556295 0.1558089 0.1559907 0.1561803
 0.1563761 0.1565737 0.1567701 0.1569666 0.1571678 0.1573745 0.1575812 0.1577835 0.1579823 0.1581789
 0.1583713 0.1585589 0.1587466 0.1589402 0.1591386 0.1593361 0.1595302 0.1597241 0.1599205 0.1601168
 0.1603117 0.1605104 0.1607171 0.1609292 0.1611429 0.1613595 0.1615811 0.1618042 0.1620232 0.1622326
 0.1624309 0.1626248 0.1628271 0.1630455 0.1632772 0.1635148 0.1637514 0.1639794 0.1641921 0.164386
 0.164561 0.1647234 0.1648865 0.1650612 0.1652454 0.1654298 0.1656102 0.1657879 0.1659663 0.1661489
 0.1663371 0.1665296 0.1667273 0.1669332 0.1671454 0.1673589 0.1675722 0.1677856 0.1679955 0.1681996
 0.1684014 0.1686028 0.1688019 0.1689999 0.1692003 0.1694039 0.1696097 0.1698159 0.1700205 0.1702245
 0.1704327 0.1706456 0.1708583 0.1710708 0.1712879 0.1715087 0.1717285 0.1719469 0.1721624 0.1723691
 0.1725663 0.172761 0.172957 0.1731553 0.1733621 0.1735813 0.1738077 0.1740352 0.1742606 0.1744774
 0.1746816 0.1748799 0.1750802 0.1752833 0.1754914 0.1757074 0.1759258 0.1761413 0.1763588 0.1765817
 0.1768046 0.1770241 0.1772363 0.1774226 0.1775392 0.1774725 0.1769314 0.1753422 0.1718467 0.1654823
 0.1555754 0.1421809 0.1262099 0.1090945 0.0922616 0.07678252 0.06328923 0.05205818 0.04313972 0.03644605
 0.03181348 0.02910144 0.02829437 0.02960341 0.03357358 0.04075971 0.05051445 0.05991175 0.06487988 0.06341424
 0.05749833 0.05129995 0.04770432 0.04691131 0.04767948 0.04895037 0.0503897 0.05219167 0.05469193 0.05799211
 0.06193901 0.06652947 0.07211237 0.07894911 0.08667897 0.09446517 0.1017146 0.1085477 0.1155237 0.122976
 0.1306639 0.1380085 0.1445569 0.15022 0.1551871 0.1597099 0.1639546 0.1679885 0.1718383 0.1754934
 0.178825 0.1815507 0.1833685 0.1841862 0.184232 0.1839281 0.1836433 0.1835464 0.1836468 0.1839085
 0.1843085 0.1848374 0.1854889 0.1862448 0.1870669 0.1879138 0.1887621 0.1895993 0.1904063 0.191161
 0.1918526 0.1924809 0.193051 0.1935704 0.1940448 0.1944779 0.1948773 0.1952549 0.1956188 0.1959723
 0.1963162 0.1966458 0.1969494 0.1972189 0.1974573 0.1976731 0.1978753 0.1980738 0.1982765 0.198484
 0.1986937 0.1989051 0.1991175 0.1993291 0.1995408 0.1997559 0.199975 0.2001947 0.2004118 0.2006227
 0.2008232 0.2010146 0.2012055 0.2014022 0.2016012 0.2017931 0.2019751 0.2021541 0.2023402 0.2025349
 0.2027301 0.2029208 0.2031107 0.2033045 0.2035034 0.2037097 0.2039247 0.2041399 0.2043441 0.2045408
 0.2047442 0.20496 0.2051829 0.2054049 0.2056157 0.2058016 0.2059595 0.2061085 0.2062806 0.2064948
 0.2067381 0.2069747 0.2071788 0.207357 0.2075327 0.2077182 0.2079083 0.2080918 0.2082687 0.2084606
 0.2086946 0.2089658 0.2092359 0.2094792 0.2097055 0.2099319 0.210162 0.2103973 0.2106325 0.2108378
 0.2109833 0.2110918 0.2112411 0.2115 0.2118607 0.2122404 0.2125594 0.2128102 0.2130377 0.2132787
 0.2135419 0.2138038 0.213985 0.2140002 0.2139009 0.2139024 0.2141884 0.2147253 0.2153207 0.2158171
 0.2161822 0.2164625 0.2167054 0.216913 0.2170397 0.2170464 0.2169842 0.2170158 0.2173011 0.2178308
 0.2184192 0.2188879 0.2192033 0.2194198 0.2195867 0.2197357 0.2198356 0.2197358 0.2193267 0.218823
 0.2187105 0.2192733 0.2202696 0.2211861 0.221748 0.2220635 0.2223334 0.2226067 0.2228323 0.2229085
 0.2225808 0.2215872 0.2201721 0.2192227 0.2195351 0.2210122 0.2228189 0.2242142 0.2250175 0.2254218
 0.2256689 0.2258872 0.2259936 0.2257068 0.2248604 0.223806 0.2233215 0.2238978 0.2251957 0.2264123
 0.2270987 0.227399 0.2276301 0.2279215 0.2281203 0.2277448 0.2262625 0.2238786 0.2219247 0.2219189
 0.2240826 0.2270774 0.2293308 0.2303859 0.2307761 0.2308665 0.2303145 0.2286849 0.2261109 0.2232402
 0.2210135 0.2205151 0.222259 0.2253109 0.2278179 0.2288288 0.2290983 0.2298592 0.2313591 0.2328644
 0.2336109 0.2333957 0.2324517 0.2310311 0.229283 0.2276307 0.2269997 0.228164 0.2308037 0.2336175
 0.2355224 0.2364754 0.2369065 0.2364476 0.2336756 0.2278215 0.2209096 0.2172003 0.2194338 0.2259674
 0.2325413 0.2364672 0.2381058 0.238872 0.2393295 0.2390343 0.2368021 0.2313599 0.2233659 0.2166727
 0.2157176 0.2211294 0.2290166 0.2345952 0.2354309 0.2316922 0.2253124 0.2194274 0.2170903 0.2194183
 0.2250988 0.2316842 0.2370649 0.2400617 0.2404082 0.2386246 0.2359864 0.2342253 0.2342726 0.2348848
 0.2335897 0.2298015 0.2257794 0.2233111 0.2209634 0.2167594 0.2125384 0.2127495 0.2186626 0.2262223
 0.230587 0.231032 0.2300959 0.2289784 0.2255194 0.2173245 0.2062965 0.1987551 0.19991 0.2084474
 0.2176969 0.2221648 0.2219039 0.2205758 0.2205697 0.2205583 0.217356 0.2100674 0.2022391 0.1988979
 0.2012161 0.205468 0.2074587 0.2058791 0.2008746 0.1927143 0.1841849 0.1814704 0.1889593 0.2038997
 0.2185367 0.2264903 0.2251214 0.2141932 0.1967743 0.1810841 0.1765035 0.1851929 0.199472 0.2088693
 0.2084387 0.1996914 0.186135 0.1708429 0.1578428 0.1526123 0.158831 0.174622 0.1925132 0.2031446
 0.2004763 0.1865142 0.1717333 0.1675575 0.1759584 0.1880579 0.1940354 0.1920213 0.1867693 0.1835561
 0.1851301 0.1911387 0.1985041 0.2043397 0.2082596 0.2091411 0.2020461 0.1841605 0.1626474 0.1499126
 0.1507266 0.1598262 0.1718405 0.1860967 0.200094 0.2062067 0.2002774 0.1894606 0.1861034 0.1946326
 0.2077736 0.2154472 0.2147466 0.2104504 0.2076756 0.2064502 0.2042531 0.2018851 0.2036827 0.2115143
 0.2214969 0.2283317 0.2308255 0.2313926 0.2319769 0.2325754 0.2326307 0.2319397 0.230579 0.22903
 0.2280259 0.227734 0.2276033 0.2271955 0.2261648 0.2230054 0.215378 0.2033882 0.1916635 0.1856843
 0.1859797 0.1885075 0.190678 0.1928768 0.1928534 0.1841172 0.1644977 0.1431986 0.1340998 0.1423421
 0.1604997 0.177064 0.1852612 0.1836472 0.1726998 0.1550434 0.1381703 0.1320541 0.1410037 0.1595358
 0.1782427 0.1918882 0.1999357 0.2020281 0.1970427 0.1863281 0.1749586 0.1688127 0.1710114 0.1805712
 0.1927125 0.2000563 0.1962499 0.1823117 0.1693982 0.1705343 0.1869265 0.2059139 0.2152011 0.2152917
 0.2144044 0.2156955 0.2157464 0.2136054 0.2143528 0.2221751 0.2342297 0.2434523 0.2447659 0.2370846
 0.2226261 0.2073909 0.1996036 0.2030907 0.2128596 0.2204632 0.2221373 0.2183188 0.208685 0.194211
 0.1823959 0.182756 0.1958089 0.2118445 0.2219578 0.2261597 0.2293141 0.2327531 0.2326471 0.2257902
 0.2149474 0.2071476 0.2067515 0.21166 0.2168995 0.219861 0.2203518 0.2176482 0.2109352 0.2026799
 0.1986671 0.2029891 0.2137934 0.2249755 0.2316071 0.2330255 0.2314442 0.2290683 0.2265916 0.2233519
 0.218813 0.2144836 0.2136121 0.2177137 0.2241588 0.2288827 0.2310367 0.2332534 0.2375089 0.2424032
 0.2448686 0.2435194 0.2399684 0.2374192 0.2380957 0.2414783 0.2446893 0.2449417 0.2421873 0.2394143
 0.2399027 0.2440981 0.249546 0.2536862 0.2559409 0.2571823 0.2582308 0.2591348 0.2591291 0.2572095
 0.2535552 0.2503622 0.2502862 0.2538098 0.2587909 0.2626861 0.2646037 0.2651485 0.2650239 0.2642974
 0.2628168 0.2608824 0.2592632 0.2585923 0.2589093 0.2598113 0.2608685 0.2618152 0.2625299 0.2630104
 0.2633301 0.2635442 0.263667 0.2637345 0.263794 0.2638149 0.2637199 0.2635511 0.2635027 0.2637078
 0.264062 0.2643358 0.2643893 0.2641822 0.2636445 0.2626948 0.2613897 0.2599137 0.2583715 0.2567128
 0.2549754 0.2535591 0.2531098 0.2540278 0.2560884 0.2585781 0.2607901 0.2623819 0.2633569 0.2638646
 0.2640721 0.2641253 0.2641183 0.2640715 0.2639584 0.2637565 0.2634687 0.2631135 0.2627152 0.2623079
 0.2619333 0.2616172 0.2613474 0.261078 0.2607566 0.2603511 0.2598645 0.2593333 0.2587962 0.2582489
 0.2576351 0.2568944 0.2560179 0.2550581 0.2540975 0.2532067 0.2524061 0.2516537 0.2508835 0.2500569
 0.249158 0.2481543 0.2470221 0.2458275 0.2447259 0.2438394 0.243156 0.2425615 0.2419353 0.2411996
 0.2403263 0.2393384 0.2382907 0.2372239 0.2361388 0.2350138 0.2338279 0.232565 0.2312154 0.2297809
 0.2282707 0.2266968 0.2250792 0.2234412 0.2217751 0.2200126 0.2180355 0.2157117 0.2129229 0.2095833
 0.2056682 0.2012431 0.196462 0.1915266 0.1866344 0.1819496 0.1776051 0.1737121 0.1703587 0.167608
 0.1655061 0.1640879 0.1633705 0.163349 0.1640072 0.165321 0.167243 0.1696806 0.1724903 0.1754899
 0.178486 0.1813154 0.1838956 0.1862463 0.1884496 0.190564 0.1925718 0.194413 0.1960526 0.1974922
 0.198734 0.1997695 0.2006115 0.2013072 0.2019066 0.2024294 0.2028691 0.2032218 0.2035029 0.2037367
 0.2039389 0.204119 0.2042938 0.2044885 0.2047181 0.2049785 0.2052591 0.2055652 0.2059215 0.2063505
 0.2068455 0.2073765 0.2079263 0.208506 0.209129 0.2097916 0.2104964 0.2112826 0.2122103 0.2133138
 0.2145769 0.2159436 0.2173419 0.2186937 0.2199169 0.220936 0.2217041 0.2222145 0.2224926 0.2225786
 0.2225131 0.2223309 0.2220586 0.2217124 0.221293 0.2207862 0.2201844 0.2195078 0.2187962 0.2180791
 0.2173647 0.2166553 0.215959 0.2152823 0.2146215 0.2139701 0.2133298 0.2127101 0.212117 0.2115461
 0.2109877 0.2104345 0.2098817 0.2093263 0.2087646 0.2081828 0.2075486 0.2068233 0.2059893 0.2050558
 0.2040362 0.2029305 0.2017343 0.20045 0.1990829 0.1976356 0.1961105 0.1945161 0.1928654 0.1911626
 0.1893888 0.18751 0.1855174 0.1834621 0.1814427 0.1795534 0.1778378 0.176278 0.1748196 0.1734172
 0.1720629 0.1707692 0.169538 0.1683596 0.1672322 0.166161 0.1651437 0.1641753 0.1632639 0.1624316
 0.1616997 0.161074 0.1605427 0.1600868 0.1596916 0.159351 0.1590733 0.1588864 0.1588189 0.1588577
 0.1589345 0.1589661 0.1589058 0.158766 0.1586032 0.1584754 0.1584021 0.1583631 0.1583265 0.1582582
 0.1581085 0.1578053 0.1572622 0.1563999 0.1551867 0.1536653 0.1519323 0.1501008 0.1482894 0.1466113
 0.1451503 0.1439572 0.143054 0.1424094 0.1419294 0.1415211 0.1411681 0.1409308 0.1408862 0.1410509
 0.1413266 0.1415475 0.1416308 0.1416609 0.1418048 0.1421794 0.1427988 0.1435802 0.1443817 0.1450787
 0.1456154 0.1459841 0.1461993 0.1463006 0.1463274 0.1462837 0.1461595 0.1459653 0.1457162 0.1454162
 0.1450709 0.1446777 0.1442095 0.1436432 0.1429814 0.1422298 0.1413941 0.14049 0.1395023 0.1383799
 0.1371528 0.1360194 0.1352569 0.1350601 0.1354485 0.1362602 0.1372646 0.1383278 0.1393867 0.1402487
 0.1406374 0.1406063 0.1407488 0.1417602 0.1437721 0.1462201 0.1483603 0.1498035 0.1505392 0.1506489
 0.1501843 0.1492128 0.1477697 0.1458115 0.1433392 0.1404773 0.1373743 0.1341771 0.1311059 0.1283758
 0.126069 0.1241902 0.122743 0.1217724 0.1213968 0.1212189 0.1193148 0.1132472 0.1038449 0.09685867
 0.09811209 0.1069431 0.1166776 0.121667 0.1217739 0.1200316 0.1185353 0.1175962 0.1170887 0.1171437
 0.1178913 0.1191895 0.1206422 0.1218356 0.1225953 0.1229624 0.1229155 0.1221233 0.1198579 0.1152312
 0.1079028 0.0987213 0.08944814 0.08172311 0.07631172 0.07310987 0.07150264 0.07072719 0.07023652 0.06995264
 0.07017829 0.07122821 0.07315642 0.07581326 0.07901688 0.08251968 0.08589759 0.08872256 0.09089214 0.09262006
 0.09407242 0.09516414 0.09572951 0.09574519 0.09534177 0.09469442 0.09394734 0.09317248 0.09232859 0.09129268
 0.09003709 0.08878857 0.08789551 0.08749479 0.08741225 0.08740699 0.08738335 0.08734943 0.08731364 0.08726867
 0.08720794 0.08715834 0.08721685 0.08748639 0.08794257 0.0884254 0.08877832 0.08896404 0.08905461 0.08909529
 0.08895595 0.08843204 0.08758929 0.08681324 0.08630724 0.0857389 0.08468474 0.08329795 0.08222321 0.08188993
 0.08213533 0.0824981 0.08265121 0.08252916 0.08227133 0.08216862 0.08248873 0.0831582 0.0837083 0.08371582
</values></Ydata></ScRf><Data_Parameters_AB><parameter name="DPF">1</parameter><parameter name="NPT">3497</parameter><parameter name="FXV">3996</parameter><parameter name="LXV">500</parameter><parameter name="CSF">1</parameter><parameter name="MXY">0.157726734876633</parameter><parameter name="MNY">0.0124840065836906</parameter><parameter name="DAT">01/06/2022</parameter><parameter name="TIM">11:54:28.480 (GMT+2)</parameter><parameter name="DXU">WN</parameter></Data_Parameters_AB><AB__Qtest><MainReport name="Quality Test Report"><Header><Line><Legend>Test result ok/not ok [1/0]: </Legend><Value>0</Value></Line><Line><Legend>Method file: </Legend><Value>C:\Users\Public\Documents\Bruker\OPUS_8.2.28\QT\IRBT_v3_default.QT</Value></Line></Header><Matrix><Line><Legend></Legend><Legend>min</Legend><Legend>max</Legend><Legend>measured</Legend></Line><Line><Value>Absorption (X-Range 1):</Value><Value>0.400000</Value><Value>2.000000</Value><Value>0.126989</Value></Line><Line><Value>Noise (X-Range 4):</Value><Value></Value><Value>0.000300</Value><Value>0.000047</Value></Line><Line><Value>Signal/Noise (X-Range 2):</Value><Value>200.000000</Value><Value></Value><Value>64.817914</Value></Line><Line><Value>Signal/Noise (X-Range 3):</Value><Value>40.000000</Value><Value></Value><Value>25.605978</Value></Line><Line><Value>Water vapour (X-Range 5):</Value><Value></Value><Value>0.000300</Value><Value>0.000067</Value></Line><Line><Value>Signal/Water (X-Range 2):</Value><Value>100.000000</Value><Value></Value><Value>45.237432</Value></Line><Line><Value>Signal/Water (X-Range 3):</Value><Value>20.000000</Value><Value></Value><Value>17.870811</Value></Line><Line><Value>Fringes (X-Range 6):</Value><Value></Value><Value>0.000100</Value><Value>0.000062</Value></Line></Matrix></MainReport></AB__Qtest><Data_Parameters_ScSm><parameter name="DPF">1</parameter><parameter name="NPT">1814</parameter><parameter name="FXV">3996.33169228125</parameter><parameter name="LXV">499.541461535156</parameter><parameter name="CSF">1</parameter><parameter name="MXY">0.233409106731415</parameter><parameter name="MNY">0.0274636205285788</parameter><parameter name="DAT">01/06/2022</parameter><parameter name="TIM">11:54:28.480 (GMT+2)</parameter><parameter name="DXU">WN</parameter></Data_Parameters_ScSm><Data_Parameters_ScRf><parameter name="DPF">1</parameter><parameter name="NPT">1820</parameter><parameter name="FXV">4004.04661832813</parameter><parameter name="LXV">495.683998511719</parameter><parameter name="CSF">1</parameter><parameter name="MXY">0.265148460865021</parameter><parameter name="MNY">0.0282943695783615</parameter><parameter name="DAT">01/06/2022</parameter><parameter name="TIM">11:54:01.144 (GMT+2)</parameter><parameter name="DXU">WN</parameter></Data_Parameters_ScRf><Optic_Parameters_Rf><parameter name="APR">0</parameter><parameter name="APT">Open</parameter><parameter name="BMS">KBr</parameter><parameter name="DTC">RT-DLaTGS_IR-Biotyper [Microplate reader]</parameter><parameter name="HPF">0</parameter><parameter name="LPF">10.0</parameter><parameter name="LPV">4000</parameter><parameter name="PGR">0</parameter><parameter name="RCH">Module port</parameter><parameter name="RDX">0</parameter><parameter name="SRC">MIR</parameter><parameter name="VEL">10.0</parameter><parameter name="SON">Off</parameter></Optic_Parameters_Rf><Acquisition_Parameters_Rf><parameter name="ADT">1</parameter><parameter name="AQM">DD</parameter><parameter name="CFE">0</parameter><parameter name="COR">0</parameter><parameter name="DEL">0</parameter><parameter name="DLY">0</parameter><parameter name="HFW">8000</parameter><parameter name="LFW">0</parameter><parameter name="NSR">32</parameter><parameter name="PLF">AB</parameter><parameter name="RES">6</parameter><parameter name="RGN">-1</parameter><parameter name="STR">0</parameter><parameter name="TCL">MakeCompatibleScalar (0, {WSV=1.000000, ARV=0});</parameter><parameter name="TDL">37</parameter><parameter name="RPO">0</parameter></Acquisition_Parameters_Rf><FT_-_Parameters_Rf><parameter name="APF">B3</parameter><parameter name="HFQ">500</parameter><parameter name="LFQ">4000</parameter><parameter name="NLI">0</parameter><parameter name="PHR">24</parameter><parameter name="PHZ">ML</parameter><parameter name="SPZ">NO</parameter><parameter name="ZFF">1</parameter></FT_-_Parameters_Rf><Optic_Parameters_><parameter name="APR">0</parameter><parameter name="APT">Open</parameter><parameter name="BMS">KBr</parameter><parameter name="CHN">Module port</parameter><parameter name="DTC">RT-DLaTGS_IR-Biotyper [Microplate reader]</parameter><parameter name="HPF">0</parameter><parameter name="LPF">10.0</parameter><parameter name="LPV">4000</parameter><parameter name="PGN">0</parameter><parameter name="RDX">0</parameter><parameter name="SRC">MIR</parameter><parameter name="VEL">10.0</parameter><parameter name="SON">Off</parameter></Optic_Parameters_><FT_-_Parameters_><parameter name="APF">B3</parameter><parameter name="HFQ">500</parameter><parameter name="LFQ">4000</parameter><parameter name="NLI">0</parameter><parameter name="PHR">24</parameter><parameter name="PHZ">ML</parameter><parameter name="SPZ">NO</parameter><parameter name="ZFF">1</parameter></FT_-_Parameters_><Acquisition_Parameters_><parameter name="ADT">1</parameter><parameter name="AQM">DD</parameter><parameter name="CFE">0</parameter><parameter name="COR">0</parameter><parameter name="DEL">0</parameter><parameter name="DLY">0</parameter><parameter name="HFW">8000</parameter><parameter name="LFW">0</parameter><parameter name="NSS">32</parameter><parameter name="PLF">AB</parameter><parameter name="RES">6</parameter><parameter name="SOT">0</parameter><parameter name="TCL">MakeCompatibleScalar (0, {WSV=1.000000, ARV=0});</parameter><parameter name="TDL">37</parameter><parameter name="SPO">0</parameter><parameter name="SGN">-1</parameter></Acquisition_Parameters_><Instrument_Parameters_Rf><parameter name="HFL">15800.168544</parameter><parameter name="LFL">0</parameter><parameter name="LWN">15800.168544</parameter><parameter name="ABP">32197</parameter><parameter name="SSP">1</parameter><parameter name="ARG">2</parameter><parameter name="ASG">2</parameter><parameter name="ASS">32</parameter><parameter name="GFW">16</parameter><parameter name="GBW">16</parameter><parameter name="BFW">0</parameter><parameter name="BBW">0</parameter><parameter name="PKA">7312</parameter><parameter name="PKL">4990</parameter><parameter name="PRA">7482</parameter><parameter name="PRL">5001</parameter><parameter name="P2A">1</parameter><parameter name="P2L">1</parameter><parameter name="P2R">1</parameter><parameter name="P2K">1</parameter><parameter name="DAQ">0</parameter><parameter name="AG2">1</parameter><parameter name="SSM">1</parameter><parameter name="RSN">25957</parameter><parameter name="CRR">0</parameter><parameter name="SRT">1654084441.145</parameter><parameter name="DUR">19.6389923095703</parameter><parameter name="TSC">29</parameter><parameter name="MVD">0.231848925352097</parameter><parameter name="AN1">0.225821769742064</parameter><parameter name="AN2">0</parameter><parameter name="VSN">2.485 Apr  4 2017</parameter><parameter name="SRN">0085</parameter><parameter name="CAM">0</parameter><parameter name="INS">IR-Biotyper</parameter><parameter name="FOC">69</parameter><parameter name="RDY">1</parameter><parameter name="ARS">32</parameter></Instrument_Parameters_Rf><Sample_Parameters_><parameter name="BLD"></parameter><parameter name="CNM">Admin</parameter><parameter name="CPY"></parameter><parameter name="DPM"></parameter><parameter name="EXP">IRBT_v3_32Scans.XPM</parameter><parameter name="LCT"></parameter><parameter name="SFM">Microplate, HTS-XT</parameter><parameter name="SNM">220601-1028(v.3)_RTF49M (D_14)_E8_a0ea601c-b9b7-4bee-a95e-ecedf0914af0.0</parameter><parameter name="XPP">C:\Users\Public\Documents\Bruker\OPUS_8.2.28\XPM</parameter><parameter name="IST">OK</parameter><parameter name="CPG">1252</parameter><parameter name="UID">20a1ab64-49f4-45f2-af8a-5573311ae731</parameter></Sample_Parameters_><Instrument_Parameters_><parameter name="HFL">15800.168544</parameter><parameter name="LFL">0</parameter><parameter name="LWN">15800.168544</parameter><parameter name="ABP">32197</parameter><parameter name="SSP">1</parameter><parameter name="ASG">2</parameter><parameter name="ARG">2</parameter><parameter name="ASS">32</parameter><parameter name="GFW">16</parameter><parameter name="GBW">16</parameter><parameter name="BFW">0</parameter><parameter name="BBW">0</parameter><parameter name="PKA">6456</parameter><parameter name="PKL">4988</parameter><parameter name="PRA">6657</parameter><parameter name="PRL">4993</parameter><parameter name="P2A">1</parameter><parameter name="P2L">1</parameter><parameter name="P2R">1</parameter><parameter name="P2K">1</parameter><parameter name="DAQ">0</parameter><parameter name="AG2">1</parameter><parameter name="SSM">1</parameter><parameter name="RSN">13604</parameter><parameter name="CRR">0</parameter><parameter name="SRT">1654084468.48</parameter><parameter name="DUR">19.6389923095703</parameter><parameter name="TSC">29</parameter><parameter name="MVD">0.713685989379883</parameter><parameter name="AN1">0.225791744491776</parameter><parameter name="AN2">0</parameter><parameter name="VSN">2.485 Apr  4 2017</parameter><parameter name="SRN">0085</parameter><parameter name="CAM">0</parameter><parameter name="INS">IR-Biotyper</parameter><parameter name="FOC">69</parameter><parameter name="RDY">1</parameter></Instrument_Parameters_><History/></OPUSDataFile>
