<?xml version="1.0" encoding="UTF-8" ?>
<OPUSDataFile><AB><Ydata ylabel="Absorbance Units"><values byteorder="INTEL" format="FLOAT32" numvalues="3497"> -0.06334791 -0.06334591 -0.0633358 -0.06331745 -0.06329333 -0.06326356 -0.06322168 -0.06316777 -0.06309932 -0.06301936
 -0.0629438 -0.06287609 -0.06283861 -0.0628282 -0.06285061 -0.06289664 -0.0629541 -0.06301619 -0.06306967 -0.0631145
 -0.06314579 -0.06316738 -0.06317914 -0.06318776 -0.06319489 -0.0632085 -0.06323168 -0.06326441 -0.06330869 -0.06335073
 -0.06338988 -0.06340849 -0.06340557 -0.06337897 -0.06333023 -0.0632782 -0.063225 -0.06319426 -0.0631832 -0.06319665
 -0.0632263 -0.06325502 -0.06327708 -0.06327254 -0.06324807 -0.06320015 -0.06314655 -0.06309941 -0.06307307 -0.06308158
 -0.06311984 -0.06319352 -0.06327577 -0.06336278 -0.06342466 -0.06345426 -0.06344771 -0.06340217 -0.06334417 -0.06327504
 -0.06322388 -0.06319059 -0.06318087 -0.06319194 -0.06320962 -0.06323285 -0.06325 -0.06326263 -0.06326901 -0.0632702
 -0.06326681 -0.06326032 -0.06325217 -0.0632449 -0.06324218 -0.0632414 -0.06324414 -0.06324011 -0.06322544 -0.06319492
 -0.06314417 -0.06308448 -0.06301558 -0.06295804 -0.06291351 -0.06290086 -0.06292126 -0.06298754 -0.06309926 -0.06325554
 -0.06345072 -0.06365306 -0.06385133 -0.06398417 -0.0640528 -0.06402134 -0.06391644 -0.06376472 -0.06359249 -0.06344397
 -0.06332322 -0.06325188 -0.06321335 -0.06320678 -0.0632083 -0.06320699 -0.06319554 -0.06316668 -0.0631381 -0.0631111
 -0.06310484 -0.06312286 -0.0631569 -0.0632068 -0.06324209 -0.06326253 -0.06325702 -0.06323047 -0.06320877 -0.06319533
 -0.06322031 -0.06327507 -0.06335708 -0.06344897 -0.06351721 -0.06355908 -0.06355233 -0.06351784 -0.06346682 -0.06341045
 -0.06336232 -0.06331053 -0.06325058 -0.06318544 -0.06310897 -0.06305912 -0.06304011 -0.06309047 -0.06321806 -0.06340368
 -0.06364751 -0.06381839 -0.06391095 -0.06380835 -0.06353401 -0.06318337 -0.06277741 -0.06245102 -0.06219412 -0.06204981
 -0.0619995 -0.06203523 -0.06213077 -0.06225666 -0.06238113 -0.06246587 -0.06250241 -0.06246612 -0.0623945 -0.06229344
 -0.06220604 -0.06214923 -0.06212303 -0.06213234 -0.06215296 -0.06218234 -0.06221025 -0.0622358 -0.06226696 -0.062304
 -0.06235322 -0.06241298 -0.0624765 -0.06254054 -0.06258982 -0.06262124 -0.06261876 -0.06258279 -0.06250377 -0.06239172
 -0.06225154 -0.0621016 -0.0619577 -0.06183485 -0.06174693 -0.06169717 -0.06169256 -0.06172119 -0.06178433 -0.06185543
 -0.06193129 -0.06198499 -0.06201288 -0.06200463 -0.06195927 -0.06188163 -0.06177231 -0.06164117 -0.06148912 -0.0613263
 -0.06115418 -0.06098283 -0.06081514 -0.06066277 -0.06052918 -0.06042631 -0.06035408 -0.0603202 -0.06031381 -0.06033165
 -0.06035433 -0.06036932 -0.0603663 -0.06033498 -0.06028626 -0.06021904 -0.06015448 -0.06009631 -0.06005696 -0.0600388
 -0.06004078 -0.06006311 -0.06009661 -0.06014044 -0.06018001 -0.06021462 -0.06023147 -0.06023252 -0.0602178 -0.06019136
 -0.06016393 -0.06013734 -0.06012047 -0.06011133 -0.06011128 -0.06011704 -0.06012446 -0.06013728 -0.06015351 -0.06018783
 -0.06024555 -0.06033734 -0.06047169 -0.06062954 -0.06081349 -0.06097334 -0.06110461 -0.06116395 -0.06114823 -0.06103548
 -0.06082658 -0.06053207 -0.06016099 -0.05977986 -0.05939784 -0.05908969 -0.05885119 -0.05871323 -0.05865819 -0.05867434
 -0.05873248 -0.05879063 -0.05883346 -0.05882704 -0.05878889 -0.05871915 -0.05863735 -0.05855372 -0.05847028 -0.0583903
 -0.0583082 -0.0582228 -0.0581345 -0.05804277 -0.05795393 -0.05786836 -0.05779033 -0.05772011 -0.05766254 -0.05761771
 -0.05759133 -0.05757876 -0.0575674 -0.05754619 -0.05747544 -0.05735864 -0.05717708 -0.05695604 -0.05672297 -0.05648733
 -0.05627209 -0.0560616 -0.05585287 -0.05563243 -0.05539045 -0.05513494 -0.05486442 -0.05459651 -0.05433512 -0.05408565
 -0.05385061 -0.05361488 -0.05337803 -0.0531077 -0.05280325 -0.05244973 -0.05205413 -0.05166077 -0.05127531 -0.05094929
 -0.05067224 -0.05044266 -0.05024887 -0.05006885 -0.04989594 -0.0497173 -0.04951679 -0.04927982 -0.04898347 -0.04860384
 -0.0481507 -0.0476154 -0.04704073 -0.0464393 -0.04582824 -0.0452147 -0.04459056 -0.04395515 -0.04330759 -0.04264774
 -0.04197699 -0.0412956 -0.04060683 -0.03991297 -0.0392321 -0.03856688 -0.03794024 -0.03734819 -0.03679317 -0.036267
 -0.03575607 -0.03525394 -0.03475154 -0.03423149 -0.03368093 -0.03306995 -0.03236855 -0.03158943 -0.03072041 -0.02982171
 -0.02891127 -0.02801322 -0.02713769 -0.02627438 -0.02542282 -0.02457808 -0.02373955 -0.02291261 -0.02209785 -0.02130828
 -0.02054391 -0.01981564 -0.01911447 -0.01841397 -0.01769348 -0.01687379 -0.01596429 -0.01492783 -0.01382819 -0.01274021
 -0.01169004 -0.01074152 -0.009853885 -0.009021665 -0.008202936 -0.007373548 -0.00652984 -0.005662339 -0.004794438 -0.003930509
 -0.003079025 -0.002244193 -0.001400054 -0.0005457238 0.0003625868 0.001325907 0.002360516 0.003460409 0.004586723 0.00573326
 0.006850861 0.007942729 0.008992511 0.01000595 0.01098501 0.01193736 0.01287032 0.01379962 0.01474374 0.01570693
 0.0167031 0.01770978 0.01871827 0.01972132 0.02070766 0.02171503 0.02275004 0.02383464 0.0249782 0.02612537
 0.02727347 0.0283586 0.02938016 0.03034462 0.0312572 0.03216236 0.03306189 0.03398862 0.03493695 0.03591074
 0.03689775 0.03787491 0.038838 0.03976375 0.04067675 0.04158462 0.04252963 0.0435474 0.04463966 0.04582919
 0.04705196 0.04829543 0.04950306 0.05065759 0.05175546 0.05279227 0.05379154 0.05475418 0.05571179 0.05666582
 0.05764193 0.05863929 0.05966274 0.06071055 0.06177699 0.06286296 0.06397017 0.06509514 0.06623594 0.06737865
 0.06850344 0.06960151 0.07065281 0.07167011 0.0726526 0.07362329 0.07459325 0.07557257 0.07656962 0.07757189
 0.07857967 0.07957222 0.08054554 0.08150082 0.08243701 0.08338235 0.08433781 0.08532029 0.08632644 0.08733528
 0.08834357 0.08932304 0.09027889 0.0912107 0.09212635 0.09304261 0.09395995 0.09488811 0.095819 0.09675045
 0.09766913 0.09856483 0.09943262 0.1002625 0.1010759 0.1018737 0.1026908 0.1035363 0.1044196 0.1053456
 0.1062912 0.1072554 0.1082129 0.1091627 0.1100924 0.1110021 0.1118881 0.1127515 0.1135949 0.1144204
 0.1152349 0.1160397 0.1168403 0.117639 0.1184413 0.1192487 0.1200666 0.1208875 0.121709 0.1225211
 0.1233165 0.1240979 0.1248647 0.1256197 0.1263657 0.1270889 0.1277869 0.1284565 0.1290958 0.12974
 0.1303911 0.1310891 0.1318312 0.1326115 0.1334214 0.1342179 0.1349974 0.135724 0.1364043 0.1370317
 0.1376204 0.138187 0.1387427 0.1393077 0.1398767 0.1404544 0.1410267 0.1415854 0.1421322 0.1426636
 0.1431934 0.1437249 0.1442596 0.1447984 0.1453347 0.1458677 0.146403 0.1469411 0.1474928 0.1480577
 0.148636 0.1492268 0.1498263 0.1504331 0.151043 0.1516506 0.1522427 0.1528152 0.1533544 0.1538669
 0.1543537 0.1548237 0.1552855 0.155736 0.1561767 0.1565996 0.1570009 0.157383 0.1577446 0.1580967
 0.1584404 0.158786 0.1591343 0.1594909 0.1598562 0.1602318 0.1606176 0.1610129 0.1614166 0.1618247
 0.1622328 0.1626257 0.1629981 0.1633281 0.1636218 0.163873 0.1641057 0.1643398 0.1645987 0.1649101
 0.1652652 0.1656756 0.1660941 0.1665118 0.1668779 0.1671764 0.1674002 0.1675415 0.1676461 0.1677163
 0.1677998 0.1678978 0.1680066 0.1681224 0.1682069 0.1682612 0.1682683 0.1682376 0.1681886 0.1681309
 0.1680946 0.1680819 0.1681118 0.1681752 0.1682726 0.168386 0.168501 0.1686142 0.1687132 0.1688277
 0.1689635 0.1691496 0.1694006 0.1696867 0.1700115 0.1702916 0.1705205 0.1706392 0.1706461 0.170563
 0.1703964 0.1702182 0.1700286 0.1698691 0.1697285 0.1695907 0.1694542 0.1693009 0.1691532 0.1690377
 0.1689675 0.1689787 0.1690337 0.1691253 0.1691955 0.1692067 0.1691557 0.1690226 0.1688686 0.168702
 0.1685791 0.1685128 0.1684999 0.1685437 0.1685912 0.1686393 0.1686231 0.1685417 0.1683585 0.1680833
 0.1677402 0.1673507 0.1669936 0.1666846 0.1665023 0.1664307 0.1664923 0.1666332 0.1668132 0.1669729
 0.1670517 0.1670396 0.166903 0.1667016 0.166441 0.1662008 0.1660013 0.1658811 0.1658505 0.1659075
 0.1660529 0.1662796 0.1665871 0.1669631 0.1674026 0.1678549 0.1683079 0.1686716 0.1689388 0.1690314
 0.1689683 0.1687391 0.1683958 0.1680036 0.1676212 0.1673401 0.1671719 0.1671711 0.1672691 0.1674611
 0.1676333 0.1677472 0.1677279 0.1675419 0.1672118 0.1667283 0.1661906 0.1656052 0.1650645 0.1645727
 0.1641535 0.1638037 0.1634989 0.1632389 0.1630091 0.1628159 0.1626746 0.1625851 0.1625628 0.1625843
 0.1626317 0.1626561 0.1626037 0.1624295 0.1620753 0.161551 0.1608303 0.1599971 0.159065 0.1581384
 0.1572447 0.1564391 0.1557368 0.1551344 0.1546345 0.1542027 0.153837 0.1534807 0.153131 0.152731
 0.1522876 0.1518017 0.1512927 0.1508293 0.1504126 0.1500924 0.1498275 0.1495815 0.1493059 0.1489247
 0.148445 0.1478316 0.1471596 0.1464492 0.1457879 0.1452146 0.1447611 0.1444529 0.1442321 0.1441023
 0.1439413 0.1437393 0.1433997 0.1429183 0.1423047 0.1415672 0.1408018 0.1400155 0.1392971 0.1386398
 0.1380696 0.1375724 0.1371314 0.1367332 0.1363519 0.135975 0.1355797 0.1351601 0.1347018 0.1342129
 0.1336912 0.1331547 0.1326081 0.1320681 0.1315396 0.1310314 0.1305468 0.1300793 0.1296296 0.1291733
 0.1287091 0.1282135 0.1276876 0.1271348 0.1265598 0.1259913 0.125431 0.1249027 0.1244002 0.1239223
 0.1234596 0.1229958 0.1225278 0.1220445 0.1215517 0.1210501 0.1205449 0.1200407 0.1195345 0.1190268
 0.1185106 0.1179837 0.1174452 0.1168939 0.1163372 0.1157755 0.1152181 0.1146655 0.1141216 0.1135859
 0.1130533 0.1125223 0.1119818 0.111432 0.1108662 0.110288 0.1097012 0.109111 0.1085269 0.1079528
 0.1073956 0.1068594 0.1063477 0.1058686 0.1054259 0.1050289 0.1046843 0.1043866 0.104142 0.1039087
 0.1036864 0.1034012 0.1030463 0.1025654 0.1019555 0.1012345 0.10041 0.099576 0.09874262 0.09801874
 0.09739991 0.09693782 0.09660191 0.09635631 0.09615394 0.09590184 0.09557758 0.09510585 0.09452945 0.09384395
 0.09313353 0.09244563 0.09181784 0.09128655 0.09080653 0.09037497 0.08994225 0.08949304 0.08905624 0.08863005
 0.08829099 0.08804305 0.08791072 0.0878876 0.08790177 0.08793966 0.08788349 0.08773161 0.08740714 0.0869359
 0.08633196 0.08563873 0.08493435 0.08424108 0.08362288 0.08305743 0.08255082 0.08207005 0.0815918 0.08112328
 0.08065761 0.08022579 0.0798394 0.07948978 0.07918184 0.07886595 0.07853644 0.07817755 0.07778817 0.0774185
 0.07707124 0.07679816 0.07659294 0.07644632 0.07634676 0.07624653 0.07614386 0.07600888 0.07585008 0.07566916
 0.07547106 0.07526617 0.07504422 0.07480624 0.07452412 0.07418521 0.07376244 0.07323592 0.07262282 0.07191221
 0.07118721 0.07045509 0.06981229 0.06927197 0.06885346 0.06855863 0.06830566 0.0680882 0.06779815 0.06743864
 0.06696802 0.06640566 0.06579626 0.06516109 0.06457619 0.06404363 0.06360677 0.06324295 0.06294707 0.06268634
 0.06243324 0.0621665 0.06186326 0.06152966 0.06115746 0.0607805 0.06040412 0.06006286 0.05976719 0.05950662
 0.05928463 0.0590389 0.05876604 0.05841862 0.05799971 0.05754194 0.05705462 0.05661599 0.05622146 0.05590111
 0.05563299 0.05537565 0.05512105 0.05482749 0.05452232 0.05421676 0.05394801 0.05375326 0.05364258 0.05363494
 0.05371708 0.05388706 0.05413822 0.05446811 0.05487637 0.05536611 0.05591159 0.05651399 0.05710726 0.05768786
 0.05817204 0.05855675 0.05878117 0.05884939 0.05875223 0.05850251 0.05813978 0.05767912 0.05717665 0.05664088
 0.056111 0.05558943 0.05509188 0.05462414 0.05419293 0.05381095 0.05348633 0.05322924 0.05304748 0.05293653
 0.05289905 0.05291649 0.05298601 0.05309431 0.05323763 0.05343558 0.05368878 0.05405219 0.05452817 0.05516424
 0.05595451 0.0568893 0.05795316 0.05908393 0.06026981 0.06144871 0.06262172 0.06376187 0.06487701 0.06596621
 0.06703621 0.06809189 0.06913888 0.07018187 0.07122312 0.07226724 0.07330285 0.07433146 0.07532457 0.07628012
 0.0771597 0.0779601 0.07864222 0.07920352 0.0796188 0.07988886 0.08002149 0.08002199 0.07992796 0.07974449
 0.0795092 0.07922731 0.0789248 0.07861859 0.07834428 0.0781276 0.07801723 0.07801604 0.07815254 0.07838833
 0.07871315 0.07908277 0.0794723 0.07987915 0.08029337 0.0807457 0.08124094 0.08179518 0.08241315 0.0830719
 0.08377076 0.08445729 0.08512798 0.08572015 0.08623257 0.08662137 0.08689663 0.08706749 0.08715736 0.08722914
 0.08730069 0.08744132 0.08763069 0.08789141 0.0881402 0.08833826 0.08834743 0.08808821 0.08743586 0.08630875
 0.08470362 0.08257557 0.08009779 0.07727376 0.0743794 0.0714415 0.06868599 0.06612957 0.06384739 0.06183665
 0.06004874 0.05847628 0.05704646 0.05575906 0.05457771 0.05350034 0.05250898 0.05158799 0.05070367 0.04983927
 0.04895552 0.04806054 0.04714075 0.04623113 0.04534571 0.0445191 0.04376954 0.04311115 0.04255225 0.04209181
 0.04173135 0.04146464 0.04129111 0.04120691 0.0412117 0.04130851 0.04149651 0.04176662 0.04211022 0.04246819
 0.04282315 0.04307175 0.04320921 0.04315997 0.04295462 0.04260334 0.04216078 0.04169702 0.04125421 0.04089574
 0.04062913 0.04048074 0.04042936 0.04047509 0.04058762 0.04075795 0.04097031 0.04121833 0.04151184 0.04185272
 0.04223789 0.0426693 0.04304934 0.04336617 0.04340092 0.04313906 0.0423578 0.04108149 0.03926549 0.03699258
 0.03444377 0.03171305 0.02905978 0.02651456 0.02423469 0.02217027 0.0203368 0.01866388 0.01710857 0.01564302
 0.01424146 0.01291403 0.01165958 0.01048542 0.009394481 0.008378631 0.007437808 0.006559851 0.005744122 0.00497546
 0.004252789 0.003556134 0.002884815 0.002223506 0.001573993 0.0009343423 0.0003087604 -0.0002933893 -0.0008672395 -0.001398641
 -0.00188768 -0.002325028 -0.002723659 -0.003087885 -0.00344071 -0.003797863 -0.004171443 -0.004575511 -0.00499147 -0.005420988
 -0.005825986 -0.006198883 -0.00651917 -0.00678063 -0.007006957 -0.007198676 -0.007403582 -0.007622954 -0.007878914 -0.008167264
 -0.008466285 -0.008773264 -0.00906178 -0.009340373 -0.009617862 -0.009904586 -0.01022848 -0.01058225 -0.01097303 -0.01137658
 -0.01177461 -0.01214726 -0.01247552 -0.01275575 -0.01298013 -0.01315763 -0.01328633 -0.0133889 -0.01346613 -0.01355591
 -0.0136623 -0.01381665 -0.01402203 -0.0142736 -0.01456977 -0.01487456 -0.01518603 -0.01547207 -0.01573488 -0.01596652
 -0.01617043 -0.01635223 -0.01651308 -0.01665729 -0.0167862 -0.01690291 -0.01700926 -0.01710938 -0.0171994 -0.01727929
 -0.01734136 -0.01737982 -0.01740032 -0.01739857 -0.01740486 -0.01742233 -0.01748636 -0.01760309 -0.01777852 -0.01801447
 -0.01827741 -0.01856511 -0.01883204 -0.01907831 -0.01928218 -0.01944907 -0.01959004 -0.01971081 -0.01983467 -0.01995966
 -0.02009525 -0.02023167 -0.02035955 -0.02047246 -0.02055773 -0.02062412 -0.02066967 -0.02071608 -0.02077155 -0.02085328
 -0.0209699 -0.02112026 -0.02130743 -0.02151477 -0.02174123 -0.02196848 -0.02219508 -0.02241113 -0.02261644 -0.02281014
 -0.02299278 -0.023168 -0.02333653 -0.02350331 -0.02366901 -0.02383853 -0.02401107 -0.02418849 -0.02436696 -0.02454301
 -0.02471106 -0.02486408 -0.02500088 -0.02511665 -0.02521918 -0.025309 -0.02539938 -0.02549455 -0.02560208 -0.02572537
 -0.02585971 -0.0260056 -0.02615156 -0.02629681 -0.02643284 -0.02655936 -0.02667274 -0.02677273 -0.02685531 -0.02692064
 -0.02696572 -0.02699416 -0.02701294 -0.02702912 -0.02705983 -0.02710906 -0.02719133 -0.02730157 -0.02744188 -0.02760154
 -0.02777472 -0.02795268 -0.02813028 -0.02830249 -0.0284669 -0.0286206 -0.02876232 -0.02889274 -0.02901141 -0.02912334
 -0.02922881 -0.02933263 -0.02943495 -0.02953733 -0.02964002 -0.02974562 -0.02985512 -0.02997462 -0.03010431 -0.03024902
 -0.03040569 -0.03057176 -0.03074164 -0.03090677 -0.03106307 -0.03120265 -0.03132713 -0.031434 -0.03153023 -0.03161808
 -0.0317036 -0.03178954 -0.03187672 -0.03196592 -0.03205561 -0.03214551 -0.03223642 -0.03232834 -0.03242328 -0.03252125
 -0.03262142 -0.03272362 -0.03282564 -0.03292783 -0.0330303 -0.03313426 -0.03324316 -0.03335823 -0.03348388 -0.03361979
 -0.0337686 -0.033926 -0.03409026 -0.0342535 -0.03441017 -0.03455499 -0.03468289 -0.03479708 -0.03489649 -0.03498958
 -0.03507787 -0.03516735 -0.03525922 -0.03535454 -0.03545349 -0.03555578 -0.03566137 -0.03576967 -0.03588039 -0.03599097
 -0.03610115 -0.03620821 -0.03631258 -0.03641402 -0.03651318 -0.03661158 -0.03670873 -0.0368049 -0.03689857 -0.03698819
 -0.03707343 -0.03715274 -0.03722929 -0.03730337 -0.03738066 -0.0374631 -0.03755372 -0.03765426 -0.03776087 -0.0378737
 -0.03798522 -0.03809483 -0.03819852 -0.03829616 -0.03838805 -0.03847411 -0.03855374 -0.03862683 -0.03869174 -0.03874971
 -0.038803 -0.03885411 -0.0389092 -0.03896987 -0.0390414 -0.03912304 -0.03921672 -0.03931888 -0.03942861 -0.03953996
 -0.0396505 -0.03975432 -0.03984864 -0.03993238 -0.04000424 -0.04006819 -0.04012448 -0.04017709 -0.04022634 -0.04027515
 -0.04032373 -0.04037692 -0.04043502 -0.04050345 -0.04058124 -0.0406672 -0.04075876 -0.04084731 -0.04093156 -0.04100366
 -0.04106649 -0.04112004 -0.04116939 -0.04122 -0.04127375 -0.04133483 -0.04139895 -0.04146544 -0.04152935 -0.04158799
 -0.04164316 -0.0416939 -0.04174822 -0.04180733 -0.04187458 -0.04195073 -0.04202859 -0.04210773 -0.04217722 -0.04223735
 -0.04228588 -0.04232514 -0.04236504 -0.04240803 -0.0424677 -0.04254276 -0.04263849 -0.04274907 -0.04286899 -0.04299192
 -0.04310904 -0.0432183 -0.04331517 -0.04340115 -0.0434755 -0.04354126 -0.04359851 -0.04365299 -0.04370514 -0.04376377
 -0.04383013 -0.04391006 -0.04400443 -0.04410994 -0.04422628 -0.04434349 -0.04446109 -0.04457035 -0.04467154 -0.04476111
 -0.04484017 -0.04490993 -0.04497216 -0.04503087 -0.045088 -0.04514833 -0.0452121 -0.04528213 -0.04535537 -0.04543122
 -0.04550486 -0.04557353 -0.04563555 -0.04568891 -0.04573766 -0.04578218 -0.04582679 -0.04587251 -0.04591836 -0.0459644
 -0.04600777 -0.04604847 -0.04609033 -0.0461341 -0.04618929 -0.04625536 -0.04633563 -0.04642671 -0.04651996 -0.04661211
 -0.04669092 -0.04675791 -0.04680866 -0.04684964 -0.04688558 -0.04692236 -0.04696624 -0.04701789 -0.04708002 -0.04714849
 -0.04722273 -0.04729839 -0.04737447 -0.04744796 -0.04751824 -0.04758443 -0.04764635 -0.0477052 -0.04776104 -0.04781623
 -0.0478708 -0.04792611 -0.04798193 -0.04803776 -0.04809326 -0.0481471 -0.04819908 -0.0482481 -0.04829415 -0.0483366
 -0.04837583 -0.04841162 -0.04844537 -0.04847761 -0.04851085 -0.04854647 -0.04858603 -0.04863111 -0.04867874 -0.04872922
 -0.04877586 -0.04881738 -0.04885224 -0.04887971 -0.04890891 -0.0489403 -0.04898448 -0.04904082 -0.04910702 -0.04918073
 -0.04924787 -0.04930808 -0.04935142 -0.04938199 -0.04940327 -0.04942033 -0.04944318 -0.04947246 -0.04951384 -0.04956249
 -0.04961729 -0.04967216 -0.0497234 -0.04976894 -0.04980678 -0.04983889 -0.04986534 -0.04988792 -0.04990683 -0.04992343
 -0.04993757 -0.04995492 -0.0499758 -0.05000868 -0.05005351 -0.05011304 -0.05018626 -0.05026885 -0.05036102 -0.05046005
 -0.0505692 -0.05069367 -0.05083762 -0.05100976 -0.05121217 -0.05145014 -0.05172478 -0.05203706 -0.052392 -0.05279004
 -0.05324358 -0.05375589 -0.05434014 -0.05500122 -0.05573934 -0.05655787 -0.05743285 -0.0583641 -0.05930733 -0.06025986
 -0.06115664 -0.0619912 -0.06267112 -0.06318995 -0.06345911 -0.06348791 -0.0632559 -0.06278551 -0.06210992 -0.06126235
 -0.06029306 -0.05926719 -0.05826624 -0.05735322 -0.05660265 -0.05603634 -0.05568716 -0.05554643 -0.05562486 -0.05588019
 -0.05631846 -0.0568265 -0.05739696 -0.05787394 -0.05823952 -0.0584457 -0.05849016 -0.05844832 -0.05832386 -0.05818212
 -0.05802044 -0.05785711 -0.05768875 -0.05751411 -0.05733109 -0.0571343 -0.05692321 -0.05669406 -0.05644875 -0.05618748
 -0.05591327 -0.05562736 -0.0553354 -0.05503845 -0.05474861 -0.05446914 -0.05421348 -0.05398611 -0.05379082 -0.0536303
 -0.05349292 -0.05337857 -0.0532665 -0.05315561 -0.05303187 -0.05289614 -0.05275393 -0.05260773 -0.05247508 -0.05235599
 -0.05226095 -0.05218573 -0.05212623 -0.05207787 -0.05203118 -0.05198495 -0.05193359 -0.05187951 -0.05182238 -0.05176585
 -0.05171157 -0.05166249 -0.05162018 -0.05158525 -0.05155838 -0.05153808 -0.05152422 -0.05151577 -0.05151258 -0.05151518
 -0.05152359 -0.05153677 -0.05155435 -0.05157156 -0.05158801 -0.05159864 -0.05160414 -0.0516039 -0.05159947 -0.05159419
 -0.05158878 -0.05158625 -0.05158562 -0.051587 -0.05158935 -0.05159169 -0.05159419 -0.05159668 -0.05159964 -0.05160355
 -0.05160721 -0.05161068 -0.05161148 -0.05160906 -0.05160319 -0.05159359 -0.051584 -0.0515746 -0.05156966 -0.05156901
 -0.05157192 -0.0515775 -0.0515799 -0.05157922 -0.05157198 -0.05156033 -0.05154753 -0.05153543 -0.0515296 -0.05152771
 -0.05153 -0.05153197 -0.05152955 -0.05152214 -0.05150721 -0.05148955 -0.05147021 -0.05145349 -0.05144098 -0.051433
 -0.05142999 -0.05143033 -0.051434 -0.05143872 -0.05144439 -0.05144654 -0.05144506 -0.05143676 -0.05142261 -0.05140617
 -0.05138934 -0.0513811 -0.05138177 -0.05139767 -0.05142564 -0.05146428 -0.0515082 -0.05155108 -0.05158834 -0.05161374
 -0.05162711 -0.05162526 -0.05161471 -0.05159594 -0.05157951 -0.05156803 -0.05156882 -0.05158418 -0.05161197 -0.05165272
 -0.05169665 -0.05174325 -0.05178265 -0.05181466 -0.0518347 -0.05184348 -0.0518424 -0.05183318 -0.05182233 -0.051812
 -0.051811 -0.05181934 -0.0518423 -0.05187519 -0.05191546 -0.05195671 -0.05199218 -0.05202095 -0.05203928 -0.05205341
 -0.05206463 -0.05207887 -0.05209869 -0.05212263 -0.05215132 -0.05217883 -0.05220446 -0.05222616 -0.05224375 -0.05226018
 -0.05227561 -0.05229313 -0.05231253 -0.05233403 -0.05235748 -0.05238253 -0.05240911 -0.05243719 -0.05246583 -0.05249348
 -0.05251928 -0.05254077 -0.05256026 -0.05257805 -0.05259854 -0.05262492 -0.05265743 -0.05269812 -0.05274069 -0.05278416
 -0.05282235 -0.05285358 -0.05287801 -0.05289518 -0.0529101 -0.05292303 -0.05293971 -0.05296037 -0.05298998 -0.05302833
 -0.05307744 -0.05313578 -0.05319943 -0.05326566 -0.05332568 -0.05337841 -0.05341686 -0.05344449 -0.05346154 -0.05347466
 -0.05348935 -0.05350984 -0.05354112 -0.05358055 -0.05362894 -0.05368041 -0.0537334 -0.05378501 -0.05383427 -0.0538819
 -0.05392793 -0.05397238 -0.05401527 -0.05405547 -0.0540931 -0.05412941 -0.05416486 -0.05420329 -0.05424455 -0.05429064
 -0.05433989 -0.05438941 -0.05443717 -0.0544777 -0.05451169 -0.05453657 -0.05455725 -0.0545763 -0.05459943 -0.05463128
 -0.05467239 -0.05472522 -0.05478379 -0.05484749 -0.05490908 -0.05496717 -0.05501765 -0.05505972 -0.05509368 -0.05511946
 -0.05514215 -0.0551622 -0.05518748 -0.05521806 -0.05525883 -0.05530844 -0.0553647 -0.05542555 -0.05548461 -0.05554115
 -0.05559046 -0.05563416 -0.05567184 -0.0557066 -0.05574081 -0.05577671 -0.05581671 -0.05585996 -0.05590717 -0.05595511
 -0.05600305 -0.05604879 -0.05609173 -0.05613147 -0.05616795 -0.05620045 -0.05622894 -0.05625232 -0.05627075 -0.05628642
 -0.05630006 -0.0563177 -0.05633971 -0.05637113 -0.05641107 -0.05645988 -0.05651633 -0.05657833 -0.05664521 -0.05671573
 -0.0567885 -0.05686267 -0.0569349 -0.05700334 -0.05706478 -0.05711714 -0.05716039 -0.05719367 -0.05721997 -0.05723945
 -0.05725587 -0.05726944 -0.05728497 -0.05730271 -0.05732888 -0.05736366 -0.05741089 -0.05746991 -0.05753817 -0.05761444
 -0.05769255 -0.05777191 -0.05784778 -0.05792042 -0.05798845 -0.05805148 -0.05810882 -0.05815932 -0.05820148 -0.05823549
 -0.05826007 -0.05827922 -0.05829327 -0.05830925 -0.0583289 -0.05835791 -0.05839797 -0.05844918 -0.05851215 -0.0585816
 -0.0586573 -0.0587319 -0.05880499 -0.05886973 -0.05892594 -0.05896866 -0.05899873 -0.0590159 -0.05902293 -0.05902643
 -0.05902944 -0.05904102 -0.05906108 -0.05909406 -0.05913611 -0.05918546 -0.0592388 -0.05929299 -0.05934875 -0.05940573
 -0.05946474 -0.05952689 -0.0595875 -0.0596464 -0.05969623 -0.05973576 -0.05976471 -0.05978282 -0.05979862 -0.05981255
 -0.05983266 -0.05985852 -0.05989095 -0.0599288 -0.05996773 -0.06000715 -0.06004329 -0.06007618 -0.06010405 -0.06012744
 -0.06014591 -0.06016123 -0.06017454 -0.06018798 -0.06020361 -0.06022086 -0.06024053 -0.0602593 -0.06027609 -0.06029009
 -0.06030039 -0.06031132 -0.06032335 -0.0603392 -0.06035923 -0.0603786 -0.06039694 -0.06040683 -0.06040864 -0.06040125
 -0.06038636 -0.06037031 -0.06035453 -0.0603463 -0.06034538 -0.06035515 -0.06037356 -0.06039982 -0.06043083 -0.06046378
 -0.06049601 -0.0605251 -0.06054984 -0.06056901 -0.06058306 -0.06059166 -0.06059652 -0.06059771 -0.0605978 -0.06059716
 -0.06059697 -0.0605974 -0.06059659 -0.06059448 -0.06059023 -0.06058447 -0.06058124 -0.06058147 -0.06059152 -0.06061086
 -0.06064197 -0.06068242 -0.06072954 -0.06077962 -0.0608272 -0.06086877 -0.06089901 -0.06091719 -0.06092028 -0.06091274
 -0.06089503 -0.06087374 -0.06085084 -0.06083038 -0.06081365 -0.06080127 -0.06079359 -0.06078926 -0.06078823 -0.06078927
 -0.06079234 -0.06079696 -0.06080282 -0.06080759 -0.06081031 -0.06080526 -0.06079252 -0.06076813 -0.06073568 -0.0606995
 -0.06066402 -0.06063779 -0.06062032 -0.06061568 -0.06061731 -0.06062293 -0.06062524 -0.06062007 -0.06060535 -0.0605786
 -0.06054506 -0.06050472 -0.06046617 -0.06043066 -0.06040156 -0.0603794 -0.06035862 -0.06033903 -0.06031617 -0.06029111
 -0.06027008 -0.06025441 -0.0602543 -0.06026759 -0.06029519 -0.06033055 -0.06036178 -0.06038383 -0.0603829 -0.06036359
 -0.06032371 -0.06027333 -0.06021908 -0.06016447 -0.06011401 -0.06006256 -0.06000911 -0.05995105 -0.05988628 -0.05982332
 -0.05976251 -0.05971532 -0.05968272 -0.05966787 -0.05967065 -0.05968715 -0.05971625 -0.05974866 -0.05978119 -0.05979486
 -0.05978764 -0.0597408 -0.05966207 -0.05955578 -0.05943372 -0.05931497 -0.05920231 -0.05910565 -0.05902243 -0.05895343
 -0.0588974 -0.05885491 -0.05882127 -0.05879718 -0.05876929 -0.05873583 -0.05868281 -0.05860768 -0.05850816 -0.05838351
 -0.05824497 -0.05809334 -0.05794569 -0.05780245 -0.05767552 -0.05756303 -0.05746343 -0.05737383 -0.05728476 -0.05719588
 -0.05710201 -0.05700422 -0.05690239 -0.05679587 -0.05668355 -0.05656644 -0.05644378 -0.05632047 -0.05619903 -0.05608044
 -0.05596692 -0.05585113 -0.05573216 -0.05560306 -0.05546224 -0.0553116 -0.05515097 -0.05498795 -0.05482273 -0.05465748
 -0.05449073 -0.05431123 -0.054117 -0.05389081 -0.05363652 -0.05335478 -0.05305392 -0.05275307 -0.05245121 -0.05215766
 -0.05186116 -0.05155371 -0.05122888 -0.05087674 -0.05050692 -0.0501195 -0.04973023 -0.04934522 -0.04896827 -0.0486049
 -0.04823185 -0.0478505 -0.04740504 -0.04689143 -0.04626706 -0.04553192 -0.04471685 -0.04382556 -0.04290706 -0.04195432
 -0.04096122 -0.03991719 -0.0387837 -0.03756573 -0.0362475 -0.03485665 -0.03341936 -0.03197273 -0.03056079 -0.02920829
 -0.02794891 -0.02677622 -0.02570198 -0.0246884 -0.02372645 -0.02278735 -0.02185861 -0.02095895 -0.02008842 -0.01927276
 -0.01851479 -0.01780805 -0.01715228 -0.01653952 -0.0159711 -0.01545726 -0.01499694 -0.01459325 -0.01423848 -0.01391289
 -0.01360688 -0.01329112 -0.01296233 -0.0126012 -0.0122155 -0.0118057 -0.01137976 -0.01094531 -0.01049956 -0.01004369
 -0.009572103 -0.009082997 -0.008574941 -0.008051346 -0.007487847 -0.006888626 -0.006165464 -0.005312217 -0.004248802 -0.002975698
 -0.001587569 -9.568859E-05 0.001348909 0.002760535 0.004128983 0.005473995 0.006853408 0.008267139 0.00974166 0.0112727
 0.01285439 0.01451489 0.01626269 0.0181738 0.02029965 0.02269825 0.02544163 0.02842318 0.03165428 0.03489587
 0.03809511 0.04112424 0.04395057 0.04659593 0.04905673 0.05141588 0.05367963 0.05599481 0.05837718 0.06105163
 0.06399777 0.0672766 0.07077567 0.07415938 0.07740209 0.08024999 0.08282995 0.08522283 0.08751951 0.08985634
 0.09222762 0.09467321 0.09715942 0.09967515 0.1022147 0.1047836 0.1073331 0.1098596 0.1122884 0.1146012
 0.1168276 0.1189673 0.121083 0.1231749 0.1251693 0.1270568 0.1287067 0.1301342 0.131337 0.1323524
 0.1332982 0.1341868 0.1351169 0.1360419 0.1369287 0.1377585 0.1384834 0.1391521 0.1397925 0.1404109
 0.1410319 0.1415935 0.14208 0.1424489 0.1426819 0.1427957 0.1427864 0.1427076 0.1425622 0.1424138
 0.1422649 0.1421313 0.1420087 0.141857 0.1416746 0.1414309 0.1411329 0.140782 0.1403948 0.1400028
 0.1396271 0.1393137 0.1390689 0.1389152 0.1388535 0.1388828 0.1390302 0.1393067 0.1397388 0.1403476
 0.1410976 0.1419883 0.1429657 0.1440177 0.1451536 0.1463718 0.1477119 0.1491752 0.1507669 0.1524845
 0.1543041 0.156225 0.1582324 0.1603265 0.1625007 0.1647535 0.1670763 0.1694729 0.1719431 0.1744964
 0.1771425 0.1798883 0.1827428 0.1857056 0.1887806 0.1919594 0.1952414 0.1986137 0.2020762 0.2056041
 0.2091994 0.2127956 0.216389 0.2198955 0.2233116 0.2266351 0.2298725 0.2331074 0.2363214 0.2394803
 0.2425255 0.2452329 0.247606 0.2495244 0.2510627 0.2522915 0.2532408 0.2539766 0.2544815 0.2547598
 0.2548058 0.2546333 0.254177 0.2534519 0.2522432 0.2504933 0.2481162 0.2450376 0.2417317 0.2382344
 0.2348749 0.2316648 0.2284021 0.2250768 0.2215081 0.2177178 0.21373 0.2095645 0.205322 0.2009521
 0.1964316 0.1916149 0.1862304 0.1803007 0.1735961 0.1666571 0.1598266 0.1534129 0.1477756 0.1425644
 0.1377291 0.1330022 0.1282753 0.1236342 0.119069 0.114745 0.1106834 0.106855 0.1032577 0.09973494
 0.09628496 0.09282819 0.08938474 0.08602054 0.08275473 0.07969473 0.07682311 0.07416034 0.07166749 0.06929236
 0.06701177 0.06478591 0.06259137 0.06041653 0.05818814 0.0558717 0.05339699 0.05068268 0.04792917 0.04513548
 0.04266743 0.04061215 0.03891228 0.03758237 0.03633537 0.03515774 0.03390127 0.03257403 0.03121991 0.02985362
 0.02858517 0.02740154 0.02631551 0.02531084 0.02434297 0.0234406 0.02262048 0.02193274 0.02144949 0.0211649
 0.02110753 0.02122729 0.0215026 0.02191025 0.02243135 0.02308413 0.02386152 0.02482565 0.02597449 0.02744292
 0.02924305 0.03148328 0.03416741 0.03708801 0.04021638 0.043138 0.04585788 0.04818956 0.05016603 0.05180439
 0.05311931 0.05414336 0.05490086 0.05542649 0.05578578 0.05604863 0.05630346 0.05664482 0.05710025 0.05773331
 0.05844547 0.05921458 0.05996859 0.06067292 0.0613697 0.06205692 0.06280467 0.06362046 0.06453238 0.06554193
 0.06661342 0.06774383 0.06888243 0.07003497 0.07120257 0.07240383 0.07370354 0.07511353 0.0767031 0.07844798
 0.08034196 0.08235661 0.084444 0.08663159 0.08891962 0.09135191 0.09396297 0.09673482 0.09967865 0.1027269
 0.1058603 0.1090613 0.1123155 0.1156971 0.1192136 0.1229047 0.1267723 0.130629 0.1344547 0.1379382
 0.1410826 0.1437471 0.1459531 0.1477116 0.1490128 0.1498454 0.1501771 0.1499438 0.149144 0.1477378
 0.1457757 0.1432749 0.1403047 0.1369039 0.1331216 0.1289795 0.1245198 0.1197379 0.1147622 0.1095928
 0.1044798 0.09944653 0.09467345 0.09017128 0.08590796 0.08187659 0.07797129 0.07420198 0.07056946 0.06709899
 0.06388921 0.06093521 0.05828694 0.05589791 0.05371932 0.05170218 0.04977144 0.04790284 0.04605039 0.04421839
 0.04239345 0.04059989 0.03884307 0.03714419 0.03551247 0.03394265 0.03243761 0.03097052 0.02953865 0.02812744
 0.02673591 0.02539485 0.02410856 0.02294309 0.0218993 0.0210194 0.02029314 0.01970752 0.01925052 0.01888683
 0.01861144 0.01840052 0.01825376 0.01816313 0.01812587 0.01814176 0.01819425 0.01828128 0.0183652 0.01843688
 0.01844835 0.01838755 0.01821675 0.01792699 0.01750549 0.01694819 0.01627665 0.0154918 0.01464271 0.01373227
 0.01280945 0.01187649 0.01096968 0.0100934 0.009281815 0.008539972 0.007899129 0.0073558 0.006921331 0.006581788
 0.006326636 0.006141661 0.006011908 0.005930217 0.005889046 0.005884912 0.005916409 0.005975769 0.006062822 0.006161366
 0.006270109 0.006367512 0.00645149 0.00650501 0.006526948 0.006513292 0.006464695 0.006389459 0.006289019 0.006176608
 0.00605235 0.005925454 0.005791375 0.005645822 0.005479489 0.005274452 0.005025849 0.004717747 0.004359098 0.003948966
 0.003505413 0.003037209 0.002559757 0.002080078 0.001609677 0.001151996 0.000717386 0.0003083281 -7.122749E-05 -0.0004200888
 -0.0007441138 -0.001043567 -0.001325532 -0.001590002 -0.001837951 -0.002068881 -0.002280276 -0.00247168 -0.002640796 -0.002785978
 -0.002902913 -0.002988229 -0.003034411 -0.00303899 -0.002994982 -0.002905016 -0.002766975 -0.0025902 -0.002377751 -0.002142106
 -0.001888187 -0.001625796 -0.001358059 -0.001091766 -0.0008280432 -0.0005739804 -0.0003301544 -0.0001047299 0.0001017687 0.0002843744
 0.0004433174 0.0005808335 0.0006984837 0.0008071208 0.0009084716 0.001015736 0.001127508 0.001248729 0.001372878 0.001491989
 0.001598419 0.001679623 0.001732142 0.001748602 0.001729585 0.001673348 0.00158163 0.001453768 0.0012953 0.001105968
 0.0008982624 0.0006733802 0.0004465867 0.0002197573 8.751671E-07 -0.0002093858 -0.0004137853 -0.000612682 -0.0008122837 -0.001012707
 -0.001217343 -0.001426594 -0.001643333 -0.001868933 -0.002108969 -0.002362711 -0.002633061 -0.00291435 -0.003201579 -0.003488311
 -0.003766872 -0.004035837 -0.00429228 -0.004536596 -0.004769286 -0.004986537 -0.005187349 -0.005369216 -0.005530049 -0.005679737
 -0.005818272 -0.005964456 -0.006119532 -0.006291506 -0.006479425 -0.006668173 -0.006855072 -0.007014017 -0.007145254 -0.00723454
 -0.007286685 -0.007306618 -0.007298711 -0.007273591 -0.007231458 -0.007176753 -0.007108553 -0.007027068 -0.00693288 -0.006827211
 -0.006707322 -0.006574191 -0.006417891 -0.006236914 -0.006019153 -0.005761876 -0.005460071 -0.005111939 -0.004726535 -0.004304047
 -0.003868231 -0.003420558 -0.002988046 -0.002570556 -0.002181208 -0.001816979 -0.001472983 -0.00114672 -0.0008282883 -0.0005193246
 -0.0002172973 7.311585E-05 0.0003471874 0.0006013641 0.0008302169 0.001034718 0.001213123 0.001370018 0.001507013 0.001626678
 0.001730629 0.001816665 0.00188446 0.001933193 0.001962158 0.001977894 0.001980643 0.001982161 0.001983182 0.001996516
 0.002023055 0.002075551 0.002153882 0.002265671 0.002407524 0.002575596 0.002764195 0.002961182 0.003163496 0.003361155
 0.003557316 0.003749613 0.003947125 0.004153262 0.004379231 0.00463041 0.004913276 0.005231754 0.005582868 0.005967817
 0.00637538 0.006804937 0.007242696 0.007687763 0.008129099 0.008566323 0.008993407 0.009409928 0.009810249 0.01019335
 0.01055043 0.01088412 0.01119284 0.01148903 0.01179233 0.01211785 0.01249577 0.01292487 0.01341983 0.01395777
 0.0145316 0.01511471 0.01569397 0.01625597 0.01679343 0.01730616 0.01779222 0.01825889 0.01870629 0.0191457
 0.01957783 0.02001253 0.02044994 0.02089179 0.02133697 0.02177813 0.02221435 0.0226371 0.02304813 0.02344792
 0.02383789 0.02422428 0.02459838 0.02495596 0.0252767 0.02554213 0.02573598 0.02584005 0.02585825 0.02578404
 0.0256403 0.02542912 0.02518316 0.02490718 0.0246336 0.0243668 0.02412567 0.023912 0.02372663 0.02356951
 0.02343837 0.02333433 0.02326493 0.02323167 0.02324528 0.02330555 0.02341763 0.02357989 0.02379363 0.02405206
 0.02435098 0.02467309 0.02500464 0.02532386 0.02561406 0.02586128 0.02605639 0.02619085 0.02626274 0.02625659
 0.02617101 0.02598321 0.02569016 0.02527833 0.02474589 0.0241084 0.02336822 0.02257429 0.02173141 0.02089908
 0.02007869 0.01930873 0.01858587 0.01792071 0.01730969 0.01675173 0.01624271 0.0157795 0.01535112 0.01495039
 0.01455739 0.0141614 0.01373689 0.01327368 0.01274348 0.01213732 0.01143246 0.0106215 0.009702979 0.008673556
 0.007559486 0.006361679 0.005122666 0.003844698 0.002568323 0.001294713 5.127074E-05 -0.001161752 -0.002329116 -0.003449891
 -0.004513623 -0.005519796 -0.006461135 -0.007341685 -0.008162268 -0.008931089 -0.009655695 -0.0103423 -0.0109971 -0.01162257
 -0.01222099 -0.0127939 -0.01334258 -0.01386556 -0.01436355 -0.01482941 -0.01526222 -0.01565799 -0.01601611 -0.01634282
 -0.0166386 -0.01691413 -0.01716955 -0.01741104 -0.01763792 -0.01785089 -0.0180484 -0.01822657 -0.01838404 -0.01851546
 -0.0186228 -0.01870575 -0.01876858 -0.01881588 -0.01884811 -0.01886716 -0.01887159 -0.01885942 -0.01883708 -0.01880442
 -0.01877477 -0.01875093 -0.01874016 -0.01874431 -0.01876066 -0.01878928 -0.01882327 -0.01886217 -0.01889788 -0.01892974
 -0.01894894 -0.01895479 -0.01893988 -0.01890331 -0.01883886 -0.01874585 -0.01861903 -0.01846097 -0.01827143 -0.0180572
 -0.01782402 -0.01757823 -0.01732548 -0.01706946 -0.01681255 -0.01655881 -0.01631006 -0.01606807 -0.01583479 -0.01560215
 -0.01537009 -0.01512492 -0.01486547 -0.01458721 -0.01429041 -0.01398585 -0.0136752 -0.01337658 -0.01309203 -0.01283942
 -0.01262148 -0.01245482 -0.01234192 -0.01229704 -0.01231683 -0.01240666 -0.0125508 -0.01274048 -0.0129504 -0.01316303
 -0.01335753 -0.01351969 -0.01364215 -0.0137201 -0.01375069 -0.01373366 -0.01366067 -0.01353042 -0.01333841 -0.01308342
 -0.01278267 -0.01243771 -0.01208671 -0.01173133 -0.01140407 -0.0111015 -0.01082659 -0.01057229 -0.01031872 -0.01006338
 -0.009790806 -0.00950417 -0.009202748 -0.008886123 -0.008555438 -0.008204392 -0.007827893 -0.007426233 -0.006995662 -0.006548435
 -0.006086571 -0.005623787 -0.005162922 -0.004713899 -0.004277656 -0.003866852 -0.003482417 -0.00313607 -0.002828022 -0.002556022
 -0.002318518 -0.002100771 -0.001901745 -0.001709024 -0.001522528 -0.001336864 -0.00114944 -0.000953995 -0.0007446021 -0.0005102556
 -0.0002475314 5.28645E-05 0.0003853308 0.0007508002 0.001137298 0.001539467 0.001949843 0.002364016 0.002783513 0.003207958
 0.003639504 0.004079027 0.00452162 0.004967129 0.005407745 0.005843208 0.006271003 0.006691925 0.007111787 0.007531984
 0.007962626 0.008403496 0.008860749 0.009329822 0.009805715 0.01028109 0.0107429 0.01118824 0.01160722 0.01200707
 0.01238801 0.01276239 0.01313742 0.01351517 0.01390101 0.01427832 0.0146451 0.01498447 0.01529164 0.01557773
 0.01584212 0.01612092 0.0164157 0.01675046 0.01712322 0.01752579 0.01795417 0.01838527 0.01881645 0.01922811
 0.01961919 0.01997641 0.0203047 0.02060209 0.02088316 0.02116138 0.02144795 0.02175794 0.02208441 0.02242952
 0.0227789 0.0231264 0.02347236 0.02381425 0.02416439 0.02452453 0.02489943 0.02528997 0.02569 0.02609925
 0.02651299 0.02693142 0.02735529 0.0277839 0.02821444 0.02864547 0.02906958 0.02948941 0.02990565 0.03032408
 0.03075581 0.03119744 0.03165382 0.03210749 0.0325486 0.03296228 0.03333641 0.03367404 0.03397183 0.03424316
 0.03448922 0.03472622 0.03495535 0.03519835 0.03545712 0.03574732 0.03606928 0.03641175 0.03677233 0.03712201
 0.03746077 0.03777209 0.03806007 0.03832849 0.03858195 0.03883105 0.03908052 0.03934066 0.03961717 0.03991904
 0.04025096 0.04061954 0.04102448 0.04147056 0.04194333 0.04244367 0.04293827 0.0434204 0.04386458 0.04426287
 0.04463319 0.04497492 0.04533378 0.04571167 0.04612837 0.04658159 0.04705416 0.04754557 0.0480422 0.04855028
 0.04908298 0.04964467 0.05025511 0.05090505 0.05159415 0.05229947 0.05299793 0.0536718 0.05429669 0.05488116
 0.05542036 0.05593596 0.05643736 0.05692376 0.05739963 0.05784206 0.0582475 0.05860716 0.05891887 0.05919965
 0.05945044 0.05969463 0.05993334 0.06018695 0.06045484 0.06074713 0.06105756 0.06137299 0.06168453 0.06196499
 0.06221383 0.06241586 0.06258135 0.06271349 0.06282704 0.06293251 0.06304293 0.06317015 0.06330978 0.06346847
 0.06361343 0.06373947 0.06381591 0.06383371 0.06380931 0.06374133 0.06368301 0.06363703 0.06364593 0.06370935
 0.06383941 0.064032 0.06427402 0.06455895 0.06485813 0.06516951 0.06547379 0.0657741 0.0660703 0.06635588
 0.06662422 0.06686971 0.06707378 0.06727754 0.06748293 0.06777666 0.06820237 0.06875114 0.0694505 0.07014295
 0.070803 0.07137436 0.07184495 0.07227968 0.07268129 0.07309048 0.07350416 0.07390265 0.07427896 0.0745858
 0.07481959 0.07494154 0.07495721 0.07485633 0.07465485 0.07437362 0.07402199 0.07362156 0.07316402 0.07264644
 0.07207274 0.07143445 0.07077363 0.07009687 0.06946221 0.06888381 0.06840054 0.06802277 0.06774956 0.06758437
 0.06747799 0.06742766 0.06736013 0.06727342 0.06712062 0.06690575 0.06662551 0.06628564 0.06590167 0.06548018
 0.06504148 0.06459399 0.06416249 0.06374286 0.06334452 0.06294737 0.06253614 0.06210796 0.06165184 0.06119104
 0.06072968 0.06029231 0.05988312 0.05953058 0.05923875 0.05903383 0.0589207 0.05887881 0.0589071 0.05896154
 0.05904438 0.05916943 0.05934188 0.05960578 0.05994754 0.06034711 0.06078293 0.06119008 0.06157213 0.06190267
 0.06220139 0.06248317 0.06275328 0.06302334 0.06328421 0.06353492 0.0637648 0.06397037 0.06414244 0.064277
 0.06437594 0.06443752 0.06447742 0.06449717 0.06450403 0.06449845 0.06447843 0.06444518 0.06441371 0.06438488
 0.06437551 0.06437707 0.06436894 0.06434335 0.06426591 0.06414992 0.06399738 0.0638326 0.0636846 0.06356504
 0.06349233 0.06346906 0.06350187 0.06358786 0.0637332 0.06390803 0.06411255 0.06428865 0.06442817 0.06448498
 0.06445175 0.06433401 0.06413198 0.06391209 0.06367984 0.06352542 0.06344599 0.06347867 0.06360222 0.06376477
 0.06394411 0.06405813 0.06410985 0.0640614 0.0639412 0.06376176 0.06356158 0.06337325 0.0632243 0.06314508
 0.06311953 0.06315845 0.06319859 0.06322931 0.06319001 0.06306691 0.06284562 0.06252097 0.06212472 0.06165844
 0.06118784 0.06071684 0.0603152 0.05997965 0.05973119 0.05955532 0.05941284 0.05929114 0.05913926 0.05895757
 0.05872312 0.05844365 0.05811571 0.05775753 0.05737445 0.05700586 0.05667079 0.05640748 0.05623828 0.05616471
 0.05619656 0.05629854 0.05647011 0.05665626 0.05685311 0.05699808 0.05708745</values></Ydata></AB><ScSm><Ydata ylabel="Single channel"><values byteorder="INTEL" format="FLOAT32" numvalues="1814"> 0.07057215 0.07057043 0.07063297 0.07078765 0.07100467 0.07121322 0.07135494 0.07142276 0.07143955 0.07141288
 0.07134564 0.07128824 0.07132818 0.07150292 0.07174498 0.0719277 0.07196662 0.07189495 0.07184663 0.07192557
 0.07206315 0.07203631 0.07167602 0.07106221 0.07047412 0.07013369 0.07006584 0.07025778 0.07079583 0.07161357
 0.07220892 0.07200275 0.07106617 0.07015105 0.06985889 0.07006711 0.07027718 0.07019316 0.06981464 0.06932054
 0.06911644 0.06972811 0.07128472 0.07308626 0.07385194 0.07253124 0.06905867 0.06458838 0.06106233 0.06016797
 0.06215232 0.06548733 0.06801634 0.06867379 0.0679932 0.06701125 0.06614776 0.0653493 0.06482281 0.06507035
 0.06620096 0.06747037 0.06767302 0.0661767 0.06367023 0.06166786 0.06112737 0.06185497 0.06331735 0.06522268
 0.06669787 0.06582451 0.06152525 0.05594398 0.05348678 0.05663546 0.06330361 0.06887555 0.07030869 0.06784543
 0.06368693 0.06016866 0.05887118 0.06019162 0.06327456 0.06671837 0.06942235 0.07064622 0.06982553 0.06706006
 0.06359631 0.06122842 0.06119695 0.0636977 0.06784225 0.07174706 0.07338978 0.07209869 0.06899814 0.06582527
 0.06378926 0.06357192 0.06549704 0.06919638 0.07358836 0.0774982 0.08013349 0.08117512 0.08085389 0.07980083
 0.07856187 0.07750638 0.07716407 0.07790069 0.07904765 0.07915252 0.07755835 0.07527966 0.07395908 0.07416975
 0.07495652 0.07499827 0.07394689 0.07222642 0.06973436 0.0657955 0.06072332 0.0562548 0.0538157 0.05342343
 0.05471156 0.05749772 0.06058663 0.06170066 0.0599804 0.05757567 0.0575219 0.06050012 0.06448551 0.06720471
 0.06823594 0.06884532 0.07036319 0.07282832 0.07482066 0.07453588 0.07157255 0.06793207 0.06660165 0.06862452
 0.07209726 0.07450864 0.0753871 0.07603394 0.07724548 0.07807837 0.07683852 0.07310176 0.0687886 0.06697048
 0.06919224 0.07392387 0.07767558 0.07758701 0.07334965 0.06725381 0.06239987 0.06056194 0.06172135 0.06524698
 0.07058346 0.07663583 0.08148864 0.08348222 0.08242667 0.0794951 0.07589167 0.07175116 0.06676759 0.06201389
 0.0601662 0.06297086 0.06900626 0.07486588 0.07819942 0.07888719 0.07771806 0.07494295 0.07047895 0.06526782
 0.06172396 0.06186759 0.06489226 0.06761429 0.06780067 0.06620471 0.06493618 0.06483075 0.06513622 0.06511723
 0.06509559 0.0658821 0.06760989 0.06941817 0.07028717 0.06997235 0.0690454 0.06822602 0.06773368 0.06713738
 0.06595977 0.06461509 0.06437431 0.06597565 0.06861143 0.07075903 0.07171196 0.07184224 0.07159372 0.07071154
 0.06862576 0.06553347 0.06284726 0.06215514 0.06368791 0.06617084 0.06815214 0.06904866 0.06901692 0.0684354
 0.0676448 0.0668311 0.06607877 0.06561118 0.0657373 0.0664104 0.06712687 0.06743333 0.06729925 0.0668938
 0.06626357 0.06538849 0.06440628 0.06362649 0.06331062 0.06347091 0.0639006 0.06436123 0.06467341 0.06468496
 0.06432259 0.06370408 0.06306437 0.06254147 0.06213683 0.06186744 0.06180897 0.06195814 0.06216657 0.06226608
 0.0622023 0.06201734 0.06175575 0.06143071 0.06105862 0.06069431 0.06042618 0.0603201 0.06034587 0.06038845
 0.06037208 0.06033487 0.06032733 0.06029084 0.06012136 0.05982216 0.05951203 0.05929539 0.05918265 0.0591232
 0.0590571 0.05892161 0.05865272 0.05824001 0.05779405 0.05750573 0.0574928 0.05771133 0.05803053 0.05833445
 0.05853584 0.05858188 0.05849802 0.05836797 0.05823476 0.05806563 0.05783116 0.05758221 0.05743207 0.0574666
 0.057665 0.05791158 0.05809359 0.05817212 0.05816562 0.05811796 0.05809024 0.0581198 0.0581665 0.05815108
 0.05805972 0.05796778 0.05795152 0.05800619 0.05805799 0.05804651 0.05799273 0.0579776 0.05805005 0.05817777
 0.05829687 0.05838168 0.05845076 0.05852384 0.05858558 0.05859163 0.05852041 0.05841526 0.05834937 0.05835127
 0.05839593 0.0584638 0.05856624 0.0587058 0.05884637 0.05894169 0.0589826 0.05900324 0.05903717 0.059075
 0.0590786 0.05903568 0.05898115 0.05895994 0.05898365 0.05902899 0.05906638 0.05908369 0.05908657 0.05908226
 0.05906793 0.05903494 0.05897849 0.05890512 0.0588405 0.05882386 0.05887382 0.05895577 0.05900107 0.05896846
 0.05887964 0.05879039 0.05873305 0.05869417 0.05864573 0.05858569 0.05853754 0.05851796 0.05852001 0.05852672
 0.058525 0.05850832 0.05848528 0.05849071 0.05856731 0.05871969 0.05889512 0.05902658 0.05909363 0.05913076
 0.05918148 0.05925884 0.05935022 0.05944563 0.05955427 0.05969346 0.05985831 0.06001027 0.06011371 0.06018294
 0.06027105 0.06041183 0.06059558 0.06079853 0.06100399 0.06119168 0.06134143 0.06146203 0.06159137 0.06175344
 0.06193284 0.0621037 0.06226697 0.06244325 0.06264199 0.06285766 0.0630911 0.06335634 0.06366165 0.06399262
 0.06431542 0.06459616 0.06482704 0.06504254 0.06530119 0.0656376 0.06603007 0.06641868 0.06675714 0.06704897
 0.06733355 0.06763843 0.06795569 0.06827167 0.0686018 0.06897339 0.06938417 0.06980357 0.07021125 0.07061201
 0.07101451 0.07141544 0.07180792 0.07219469 0.07258937 0.07300511 0.07343777 0.07386295 0.07425782 0.07462423
 0.07498433 0.07535904 0.07575553 0.07616253 0.07654792 0.07687701 0.07715354 0.07743058 0.07775803 0.07812542
 0.07848096 0.07880326 0.07912504 0.07948059 0.07985939 0.08022873 0.08058208 0.08094271 0.08132581 0.08171274
 0.08206216 0.08234301 0.08256089 0.08275577 0.08297075 0.08322652 0.08352971 0.08388848 0.08429776 0.08471775
 0.08509386 0.08539929 0.0856433 0.08584909 0.08604512 0.08626565 0.08653075 0.08682583 0.08711514 0.08736829
 0.0875703 0.08773021 0.08789323 0.08811659 0.08841445 0.08874813 0.08908537 0.08944029 0.08983367 0.09024341
 0.09063022 0.09099835 0.09138988 0.09181476 0.09222066 0.09254639 0.09277864 0.09294245 0.09306662 0.0931866
 0.09335418 0.09360271 0.09390634 0.09419964 0.09443422 0.09460032 0.0947066 0.09476441 0.09479187 0.09481642
 0.09486657 0.09496357 0.09512166 0.09535579 0.09568186 0.09609577 0.09654973 0.09696539 0.09727913 0.09746601
 0.09752181 0.09744847 0.09727022 0.09703974 0.0967973 0.09652523 0.09615976 0.09564973 0.09499235 0.09421374
 0.09333431 0.0923689 0.09135752 0.09038087 0.08953445 0.08888936 0.08848362 0.08834411 0.08849458 0.08892553
 0.08956142 0.09027188 0.09091787 0.09138469 0.09158704 0.09147485 0.09105234 0.0903834 0.0895659 0.08869864
 0.08786223 0.08710614 0.08644044 0.08585582 0.08537135 0.08506287 0.08504021 0.08540422 0.08622647 0.08754141
 0.08931588 0.09141064 0.0935954 0.09563987 0.09741455 0.09891587 0.1002112 0.101374 0.1024558 0.1034825
 0.1044554 0.1053631 0.1062008 0.1069722 0.107674 0.1082869 0.1087823 0.1091359 0.1093431 0.1094297
 0.109444 0.1094365 0.1094485 0.10951 0.1096251 0.1097531 0.1098167 0.1097402 0.1094848 0.1090596
 0.1085213 0.1079791 0.1076113 0.1076667 0.1084006 0.109936 0.112149 0.1147032 0.1172222 0.1194506
 0.1212938 0.1227702 0.1239555 0.1249448 0.1258198 0.1266308 0.1274001 0.1281345 0.1288333 0.1294943
 0.1301215 0.1307266 0.131323 0.1319136 0.1324859 0.1330224 0.1335198 0.1339966 0.1344811 0.1349893
 0.1355134 0.1360291 0.1365209 0.1369975 0.137477 0.1379585 0.1384206 0.1388496 0.1392554 0.1396596
 0.140079 0.1405179 0.1409647 0.1413954 0.141792 0.1421576 0.142511 0.1428664 0.1432241 0.1435781
 0.1439248 0.1442637 0.1445951 0.144924 0.1452618 0.1456144 0.1459695 0.1463035 0.1466074 0.1468967
 0.1471935 0.1475047 0.1478198 0.1481254 0.1484202 0.148721 0.1490507 0.1494154 0.1497928 0.1501481
 0.1504618 0.1507427 0.1510163 0.1513063 0.1516231 0.1519628 0.1523115 0.1526534 0.1529816 0.1533008
 0.1536186 0.1539363 0.1542496 0.1545561 0.1548584 0.1551604 0.1554636 0.1557656 0.1560645 0.1563661
 0.1566831 0.1570204 0.1573635 0.1576863 0.1579735 0.158231 0.1584768 0.1587274 0.158991 0.1592691
 0.1595584 0.1598549 0.1601576 0.1604692 0.1607918 0.1611214 0.1614487 0.1617655 0.1620694 0.1623651
 0.1626619 0.1629685 0.1632866 0.163608 0.1639206 0.1642175 0.1645001 0.1647763 0.1650577 0.1653533
 0.1656623 0.1659744 0.16628 0.1665759 0.1668622 0.1671404 0.1674159 0.167699 0.1679961 0.1683042
 0.1686118 0.1689084 0.1691932 0.1694733 0.1697561 0.1700427 0.1703295 0.170613 0.1708928 0.171171
 0.1714501 0.1717308 0.1720132 0.172299 0.1725871 0.1728704 0.1731429 0.1734084 0.173678 0.1739597
 0.1742541 0.1745551 0.1748535 0.1751428 0.1754212 0.1756908 0.1759541 0.1762151 0.1764781 0.1767476
 0.1770263 0.1773129 0.1776014 0.1778879 0.178175 0.1784653 0.1787538 0.1790348 0.1793129 0.1795981
 0.1798946 0.1801974 0.1804965 0.1807835 0.1810589 0.1813308 0.1816042 0.1818779 0.1821489 0.1824135
 0.1826681 0.1829167 0.1831709 0.1834383 0.1837179 0.1840065 0.1843012 0.1845964 0.1848863 0.18517
 0.1854489 0.1857242 0.1859989 0.186274 0.186549 0.1868266 0.187111 0.1873981 0.1876796 0.1879569
 0.1882387 0.1885283 0.1888207 0.1891086 0.1893877 0.1896624 0.1899428 0.1902311 0.1905197 0.1908054
 0.1910911 0.1913735 0.1916481 0.1919202 0.1921967 0.1924758 0.1927558 0.1930386 0.1933196 0.1935912
 0.1938556 0.1941198 0.1943882 0.1946648 0.19495 0.1952334 0.1955075 0.1957804 0.196059 0.196338
 0.1966136 0.1968893 0.197164 0.1974374 0.1977161 0.198 0.1982785 0.1985498 0.1988168 0.1990598
 0.1992215 0.199168 0.1985796 0.1968284 0.1929664 0.1859232 0.1749432 0.1600711 0.1423033 0.1232308
 0.1044605 0.08720374 0.07216058 0.05961963 0.04962806 0.04210199 0.03688208 0.03382554 0.03291495 0.03438091
 0.03883058 0.04688469 0.05781557 0.06834382 0.07391471 0.07229303 0.06569974 0.05878786 0.05477485 0.0538846
 0.05473495 0.05614705 0.05775104 0.05976757 0.06257141 0.06627169 0.07069352 0.07583068 0.08206853 0.08969758
 0.09832251 0.1070215 0.1151374 0.1227955 0.1306058 0.1389333 0.1475165 0.1557227 0.1630515 0.1693949
 0.1749506 0.1799956 0.1847238 0.1892214 0.1935217 0.197612 0.2013498 0.2044209 0.2064818 0.2074181
 0.2074785 0.2071394 0.2068205 0.2067149 0.2068357 0.2071453 0.2076191 0.2082419 0.2089947 0.2098464
 0.2107541 0.2116814 0.2126117 0.2135326 0.2144192 0.2152462 0.2160032 0.2166933 0.2173249 0.2179085
 0.2184502 0.2189497 0.2194106 0.2198448 0.2202629 0.2206653 0.2210448 0.2213956 0.2217181 0.2220201
 0.2223108 0.2225929 0.2228645 0.223124 0.2233705 0.2236054 0.2238375 0.2240807 0.2243408 0.2246109
 0.2248794 0.2251356 0.225372 0.2255919 0.2258098 0.2260374 0.2262727 0.2265092 0.2267479 0.2269947
 0.2272512 0.2275129 0.2277706 0.2280171 0.2282539 0.2284889 0.2287279 0.2289712 0.2292157 0.2294572
 0.2296971 0.2299491 0.2302268 0.2305218 0.2308114 0.2310846 0.2313473 0.2316069 0.2318704 0.2321457
 0.2324276 0.2326913 0.2329157 0.2331109 0.2333161 0.2335695 0.2338742 0.2341955 0.2344973 0.2347763
 0.2350489 0.2353178 0.2355689 0.2357943 0.2360092 0.2362508 0.2365504 0.2368964 0.2372417 0.2375592
 0.2378622 0.2381659 0.2384673 0.2387671 0.2390661 0.2393395 0.2395564 0.2397374 0.2399617 0.2403025
 0.2407552 0.2412309 0.2416371 0.2419598 0.2422529 0.2425678 0.2429214 0.2432824 0.2435469 0.2436053
 0.2435145 0.2435328 0.2438863 0.2445429 0.2452766 0.2459008 0.2463806 0.2467721 0.2471235 0.2474266
 0.2476271 0.2476862 0.2476632 0.2477374 0.2480879 0.2487121 0.2494113 0.2499929 0.2504227 0.2507589
 0.2510444 0.2512975 0.2514719 0.2513994 0.2509685 0.2504357 0.2503549 0.2510417 0.2522162 0.2533013
 0.253992 0.2544071 0.254763 0.2551134 0.2554126 0.2555551 0.2552458 0.2541727 0.2526054 0.2515564
 0.2519417 0.25366 0.2557641 0.2574079 0.2583792 0.2588896 0.2592077 0.2594787 0.2596156 0.2593085
 0.2583723 0.2572054 0.2566908 0.2573847 0.2588943 0.2602963 0.2610759 0.2614013 0.2616408 0.2619478
 0.2621559 0.2617258 0.2600518 0.2573553 0.255141 0.2551398 0.2576135 0.2610399 0.2636227 0.2648377
 0.2652922 0.2654027 0.2647814 0.2629395 0.2600328 0.2567939 0.254282 0.2537251 0.2557117 0.2591851
 0.2620414 0.2632037 0.2635343 0.264429 0.2661516 0.2678584 0.2686872 0.2684179 0.2673184 0.2656747
 0.2636552 0.2617415 0.2609923 0.2622988 0.2652975 0.2684956 0.270652 0.2717199 0.2721914 0.2716445
 0.2684575 0.26176 0.2538636 0.2496235 0.2521552 0.2595773 0.2670326 0.271463 0.2732864 0.2741211
 0.2746129 0.2742507 0.2716717 0.2654203 0.2562525 0.2485606 0.2473964 0.2534792 0.2623806 0.2686507
 0.2695227 0.2652043 0.2579024 0.2511695 0.2484514 0.2509958 0.2573087 0.2646363 0.2706175 0.2739194
 0.2742197 0.272095 0.2689902 0.266863 0.266764 0.2672895 0.2656465 0.2611762 0.2564452 0.2534837
 0.2506625 0.2457278 0.2407333 0.2406782 0.2469926 0.2551367 0.2596927 0.2598465 0.258431 0.2567835
 0.2524965 0.2429127 0.2301517 0.2211996 0.2217762 0.2303879 0.239647 0.2434713 0.241905 0.2389993
 0.2374573 0.2359761 0.2312681 0.2224461 0.2132303 0.2088363 0.2104496 0.2141633 0.2155979 0.2134099
 0.2077929 0.1990393 0.1899843 0.1869314 0.1943286 0.2093008 0.2238785 0.2315422 0.2296329 0.2179672
 0.1996891 0.1830625 0.1774579 0.1850095 0.1980442 0.2061423 0.204445 0.1945631 0.1800577 0.1639349
 0.1499615 0.1431787 0.1468842 0.1592332 0.1733765 0.1809689 0.176804 0.1627666 0.1479639 0.1421906
 0.1471585 0.1554094 0.1586829 0.1553875 0.1494697 0.1452331 0.144796 0.1478246 0.1519472 0.1549274
 0.1564496 0.1558105 0.1495573 0.1356786 0.1193435 0.1095385 0.1097098 0.1159806 0.124367 0.1343381
 0.1441438 0.1483838 0.1441026 0.136399 0.134084 0.1403235 0.1499186 0.1556477 0.1554022 0.1525633
 0.1507537 0.1499569 0.1483301 0.1464106 0.1472937 0.1523369 0.1587707 0.1627823 0.1634983 0.1626546
 0.1616685 0.1605747 0.1590187 0.1568892 0.1542429 0.15139 0.1488028 0.1465809 0.1443706 0.1419114
 0.1390328 0.1349241 0.1283439 0.119466 0.1109972 0.1060975 0.1051145 0.1057486 0.1064456 0.107357
 0.1072391 0.1024931 0.09192263 0.08070175 0.07662898 0.08260849 0.09449452 0.1057905 0.1125308 0.1135975
 0.1088993 0.09983908 0.09126256 0.08991748 0.09889211 0.1146419 0.1308416 0.1438276 0.1529 0.157312
 0.1559244 0.1497318 0.1427533 0.1397532 0.1434217 0.1531671 0.1651545 0.1731218 0.1714649 0.1609469
 0.1513514 0.1542181 0.1705748 0.1890462 0.1986316 0.1998931 0.2003016 0.2026264 0.2036376 0.2024664
 0.2038527 0.2116499 0.2231119 0.2315645 0.232237 0.2241286 0.2093328 0.1934163 0.1839763 0.184661
 0.1912067 0.1962334 0.1964833 0.1923665 0.1835137 0.1705704 0.1598904 0.1597153 0.1705416 0.1839464
 0.1921424 0.195064 0.1969002 0.1988688 0.1977891 0.1909699 0.1807084 0.1728565 0.1710225 0.1734132
 0.1758405 0.1761232 0.174192 0.1696639 0.1620534 0.1532885 0.1477236 0.1484379 0.1541694 0.1605953
 0.164285 0.1649166 0.1642042 0.1637403 0.1639204 0.1641172 0.1638031 0.1640028 0.1670935 0.1741337
 0.1829434 0.1902241 0.1952823 0.2002404 0.2066448 0.2132358 0.2174022 0.2180184 0.2165754 0.2159744
 0.2182525 0.2229598 0.2274648 0.229185 0.2280387 0.2267435 0.2282963 0.2330804 0.2387978 0.2430703
 0.2453929 0.2466292 0.2475936 0.2483833 0.2483489 0.2466235 0.2434499 0.2409638 0.241706 0.2460936
 0.2519754 0.2567766 0.259516 0.260708 0.2610328 0.2605938 0.2592788 0.2574042 0.2557448 0.2549506
 0.2551038 0.255866 0.2568635 0.2578471 0.2586714 0.2592958 0.2597708 0.2601685 0.2605568 0.2610162
 0.2615835 0.2621728 0.2626521 0.2630272 0.2634664 0.2640911 0.2648042 0.2653878 0.2657024 0.2657018
 0.2653137 0.2644533 0.2631627 0.2616072 0.2598878 0.2579769 0.2559484 0.2542317 0.253491 0.2541416
 0.2559724 0.2582728 0.2603209 0.2617493 0.2625491 0.2628872 0.2629682 0.2629681 0.2629877 0.2630396
 0.2630872 0.2630966 0.2630552 0.2629625 0.2628248 0.2626698 0.2625465 0.262493 0.2625021 0.2625244
 0.2624994 0.2623863 0.2621857 0.2619364 0.2616706 0.261364 0.2609478 0.2603745 0.2596633 0.2588791
 0.2580859 0.2573186 0.2565771 0.2558289 0.2550285 0.2541435 0.2531497 0.2520103 0.2507018 0.2492824
 0.2478886 0.2466246 0.2454804 0.2443764 0.2432501 0.2420732 0.24083 0.239524 0.2381876 0.2368571
 0.2355455 0.2342456 0.2329426 0.2316166 0.2302439 0.2288049 0.2272894 0.225699 0.2240456 0.2223392
 0.2205624 0.2186513 0.2165019 0.2139991 0.2110365 0.207525 0.203417 0.1987529 0.1936836 0.1884352
 0.1832423 0.1782971 0.1737337 0.1696435 0.1661008 0.163164 0.1608593 0.1591828 0.1581301 0.1577171
 0.1579673 0.1588825 0.1604114 0.1624362 0.1647905 0.167297 0.1697943 0.1721501 0.1742877 0.1762126
 0.1780004 0.1797352 0.1814512 0.1831298 0.1847409 0.1862623 0.1876577 0.1888726 0.1898745 0.1906812
 0.1913311 0.1918423 0.1922116 0.1924351 0.1925214 0.1925003 0.1924255 0.1923613 0.1923663 0.1924917
 0.1927828 0.1932742 0.1939828 0.1948964 0.1959634 0.1971055 0.1982465 0.1993325 0.2003399 0.2012836
 0.2022153 0.2032055 0.2043358 0.2056991 0.2073776 0.2094016 0.2117289 0.2142605 0.2168655 0.2194044
 0.2217484 0.2237958 0.2254879 0.2268181 0.2278211 0.2285496 0.2290588 0.2293955 0.2295828 0.2296231
 0.2295241 0.2293085 0.2289959 0.2285932 0.2281076 0.227551 0.2269351 0.2262737 0.225583 0.2248729
 0.2241509 0.223435 0.2227505 0.2221114 0.2215132 0.2209344 0.2203455 0.2197253 0.2190708 0.2183831
 0.2176543 0.2168739 0.2160295 0.215095 0.2140405 0.2128564 0.2115498 0.210122 0.2085741 0.2069294
 0.2052282 0.203504 0.2017767 0.2000656 0.1983891 0.196739 0.1950553 0.19325 0.1912817 0.1892035
 0.1871179 0.1850964 0.1831561 0.1812944 0.1795139 0.1778187 0.1762045 0.1746584 0.1731663 0.1717192
 0.1703105 0.168932 0.1675848 0.1662896 0.1650772 0.1639732 0.1629962 0.162153 0.1614286 0.1607949
 0.160235 0.1597458 0.1593285 0.1589874 0.1587245 0.1585169 0.1583107 0.1580503 0.1577082 0.1572943
 0.1568483 0.1564192 0.1560333 0.1556831 0.1553394 0.1549603 0.1544915 0.1538717 0.1530379 0.1519277
 0.1505048 0.1487942 0.1468822 0.1448808 0.142904 0.1410581 0.1394243 0.1380481 0.1369437 0.1360891
 0.1354212 0.1348633 0.1343784 0.1339958 0.1337808 0.1337499 0.1338 0.1337634 0.1335682 0.1333193
 0.1331971 0.1333096 0.1336471 0.1341144 0.1345839 0.134959 0.135209 0.1353384 0.1353552 0.1352795
 0.1351409 0.1349444 0.1346703 0.1343122 0.1338874 0.1334158 0.1329043 0.1323411 0.1317075 0.1310013
 0.1302295 0.1293748 0.128411 0.1273431 0.1261824 0.1249143 0.1235725 0.122326 0.1214183 0.121014
 0.1211046 0.1215253 0.1220734 0.1226442 0.1232009 0.1235993 0.1236186 0.1233132 0.1232052 0.1239048
 0.1255146 0.1275116 0.1292166 0.1302782 0.1307046 0.1306098 0.1300753 0.1291564 0.1278536 0.1261046
 0.1239031 0.1213639 0.1186334 0.115849 0.1131891 0.1108199 0.1087987 0.1071146 0.1057624 0.104796
 0.1043405 0.1040619 0.1023164 0.0970258 0.08887748 0.08274005 0.08357461 0.09085506 0.09892756 0.1029837
 0.1028997 0.1012606 0.09986752 0.09901837 0.09863014 0.09880495 0.09963188 0.1009841 0.1025168 0.1038409
 0.1047545 0.1052507 0.1052964 0.1046322 0.1026905 0.0987637 0.09258376 0.08486984 0.07709614 0.07062377
 0.06609122 0.06342563 0.06211773 0.06151718 0.06115749 0.06097347 0.06121828 0.06215604 0.06382584 0.06607826
 0.06874689 0.07165162 0.07447051 0.07683338 0.07862079 0.08000823 0.08115987 0.08202765 0.08248395 0.08250512
 0.0821793 0.08163223 0.08097924 0.08028659 0.07953621 0.07865179 0.07762177 0.07661344 0.07588504 0.07553676
 0.07542728 0.07537116 0.07531382 0.07528163 0.07528087 0.0752902 0.07528272 0.07526013 0.07530618 0.07554115
 0.07597409 0.07646136 0.07683688 0.07703742 0.07710569 0.07708776 0.07691485 0.07646398 0.07581488 0.07528254
 0.0750021 0.0746486 0.07384238 0.07272708 0.07187547 0.07166781 0.07196799 0.07236646 0.07254849 0.07243593
 0.07216972 0.07204476 0.07231945 0.07292899</values></Ydata></ScSm><ScRf><Ydata ylabel="Single channel"><values byteorder="INTEL" format="FLOAT32" numvalues="1820"> 0.06072239 0.06088514 0.06097809 0.0610047 0.06099392 0.06099326 0.06105233 0.06119435 0.06139642 0.06159773
 0.06173901 0.06180267 0.06180694 0.06176733 0.06169567 0.06163858 0.06167016 0.06181872 0.06202108 0.06216728
 0.06219109 0.06213 0.06210055 0.06218283 0.06230596 0.062276 0.06195783 0.06143156 0.06093702 0.06065305
 0.06058932 0.06073506 0.0611785 0.06187848 0.0624048 0.06224442 0.061444 0.06065094 0.06039266 0.06056894
 0.06074972 0.06067847 0.06035336 0.05992673 0.05975021 0.06028415 0.06164412 0.06322033 0.06389391 0.06274505
 0.0597124 0.05580096 0.05270889 0.05191707 0.05364801 0.05656787 0.0587877 0.05937104 0.05878366 0.05793585
 0.05719635 0.05651156 0.05605178 0.05625454 0.05722684 0.05832966 0.05850834 0.05720293 0.0550148 0.05327202
 0.05281005 0.05345136 0.05472708 0.05638921 0.0576821 0.05692824 0.05317971 0.04830774 0.04616868 0.04893911
 0.05479484 0.05969054 0.06095517 0.05880118 0.05516611 0.05210366 0.05099111 0.05215699 0.05484058 0.05782305
 0.06015906 0.06121238 0.06049125 0.05808061 0.05506529 0.05300661 0.05298507 0.05517431 0.05880229 0.06222411
 0.06366976 0.06254838 0.05984175 0.05707221 0.05530114 0.0551237 0.05681969 0.06006841 0.0639291 0.06737603
 0.06971046 0.07064332 0.07036994 0.06944717 0.0683664 0.06745869 0.06718025 0.06783786 0.06884175 0.06892669
 0.06752613 0.06553229 0.06438148 0.06457141 0.06526412 0.06530406 0.06438772 0.06288692 0.06071093 0.05726445
 0.05281749 0.04889261 0.04674787 0.0464113 0.04757283 0.05007413 0.05285253 0.05388562 0.05240273 0.05029263
 0.05023427 0.05283998 0.05633931 0.05873677 0.05965943 0.06021516 0.06156756 0.06374851 0.06551282 0.06527684
 0.0626862 0.059503 0.0583639 0.06019136 0.06330332 0.0654825 0.06631726 0.06695934 0.06810759 0.06892121
 0.06789821 0.06466578 0.06093261 0.05942386 0.06149992 0.06579022 0.0691925 0.06916755 0.06544505 0.06007623
 0.05584113 0.05432799 0.05551641 0.05884827 0.06384165 0.06951933 0.07414511 0.07619259 0.07545229 0.0729633
 0.069822 0.06616104 0.06170562 0.05745935 0.05592846 0.0587639 0.06465572 0.07041872 0.0738329 0.0747598
 0.07391844 0.07152215 0.06747396 0.06268466 0.05951315 0.05993703 0.06316663 0.06608598 0.06651202 0.06518736
 0.06418486 0.06432626 0.06487057 0.06510042 0.0653576 0.06646767 0.06855673 0.07073431 0.07194673 0.07193148
 0.07127252 0.07072525 0.07052746 0.07021984 0.06929311 0.06819611 0.06828613 0.07033913 0.07348301 0.07609449
 0.07742922 0.0778954 0.07796533 0.07733667 0.07536228 0.07226232 0.06962294 0.06922362 0.0713198 0.07447781
 0.07706153 0.07841143 0.07870954 0.07839221 0.07784632 0.07727997 0.07679068 0.07663503 0.07716213 0.07831159
 0.07950099 0.08020982 0.08040582 0.08027843 0.07986602 0.07914115 0.07828446 0.07768133 0.07764192 0.07817168
 0.07902353 0.07991794 0.08063785 0.08098456 0.08084803 0.08036461 0.07984225 0.07948071 0.0792917 0.07928529
 0.0795446 0.08005999 0.08063947 0.08106696 0.08127511 0.08132161 0.08126859 0.08113557 0.08093759 0.0807378
 0.08065427 0.08077808 0.08106245 0.0813522 0.08156757 0.08178441 0.08206569 0.08230135 0.08232372 0.08213399
 0.08191179 0.08181933 0.08187279 0.08199239 0.0820943 0.08209978 0.08192064 0.08153729 0.08110703 0.08090466
 0.08109804 0.08162518 0.08229859 0.08294306 0.08342361 0.08366694 0.08371703 0.08369239 0.08364859 0.08353938
 0.08332969 0.08309986 0.08301775 0.08320966 0.08364603 0.08415578 0.08456228 0.08479244 0.08487362 0.0848964
 0.08497981 0.08517875 0.08539961 0.08548486 0.08540445 0.08529854 0.08531144 0.08543403 0.08553244 0.08550775
 0.08540796 0.08537742 0.08550237 0.08573058 0.08594975 0.0861148 0.08627403 0.08647975 0.08669049 0.08678263
 0.08668225 0.08646882 0.08630072 0.08624777 0.08626121 0.08630393 0.08642007 0.08663847 0.08687812 0.08701533
 0.08702321 0.08699404 0.08702073 0.08709052 0.08711058 0.08701672 0.08683705 0.08666174 0.08657272 0.08659552
 0.08669117 0.08678284 0.08680352 0.08673673 0.08661884 0.08650082 0.08641045 0.08635972 0.08638109 0.08652046
 0.08676521 0.08699639 0.08705738 0.08689341 0.08661294 0.086394 0.08632477 0.08633791 0.08629563 0.08612618
 0.08587237 0.08562662 0.085444 0.08531782 0.08521362 0.08511322 0.08503997 0.08504975 0.08517475 0.08535497
 0.08544926 0.08535261 0.08509889 0.08482321 0.0846362 0.0845583 0.08454731 0.08454909 0.0845397 0.08454929
 0.08462115 0.08472846 0.08477619 0.08471261 0.08459671 0.08453393 0.08458789 0.08475989 0.08499096 0.08516817
 0.08519574 0.08509262 0.08497876 0.0849494 0.08499978 0.0850776 0.08515802 0.08524498 0.08533767 0.08543149
 0.08554183 0.08570185 0.08593024 0.08620322 0.08645833 0.08663431 0.08672455 0.0867964 0.08694433 0.08721065
 0.08755071 0.08787535 0.088126 0.08831298 0.08848707 0.08867906 0.08887716 0.08906855 0.08928009 0.08954985
 0.0898705 0.09019393 0.09048956 0.09076837 0.09105148 0.09134331 0.09164234 0.09196141 0.09232782 0.09275538
 0.09320642 0.0935922 0.09383995 0.09396687 0.09407569 0.09427775 0.09461634 0.09503234 0.09538955 0.0955772
 0.09562463 0.09568421 0.09586781 0.09613501 0.09638196 0.09660124 0.09689008 0.09730767 0.09778155 0.09817475
 0.09841999 0.09857098 0.09873061 0.09893979 0.09914453 0.09927434 0.09933592 0.09940272 0.09952226 0.09968145
 0.09987526 0.1001517 0.1005438 0.1009941 0.1013961 0.1016921 0.1018963 0.1020445 0.1021612 0.1022555
 0.1023196 0.1023463 0.1023639 0.1024201 0.1025163 0.1025969 0.1026264 0.1026408 0.1027023 0.1028379
 0.1030478 0.1033309 0.1036663 0.1039941 0.1042673 0.1045204 0.104834 0.1052132 0.1055469 0.1057273
 0.1057688 0.1057665 0.1057742 0.1057902 0.1058391 0.1059851 0.1062537 0.1065971 0.1069541 0.1073071
 0.1076639 0.1080135 0.1083169 0.1085297 0.1086303 0.1086378 0.1086108 0.1086254 0.1087429 0.1089793
 0.1092948 0.109619 0.1098948 0.1100928 0.1101921 0.1101826 0.1101094 0.11008 0.1101799 0.1103751
 0.110529 0.1105178 0.1103083 0.1099298 0.1094136 0.1087843 0.1080918 0.1074212 0.1068606 0.1064618
 0.1062381 0.106203 0.1063946 0.1068358 0.1074721 0.1081783 0.1088355 0.1093673 0.1096971 0.1097287
 0.1094134 0.1088144 0.1080724 0.1073202 0.1066344 0.1060285 0.105461 0.1048871 0.1043485 0.1040049
 0.1040553 0.1046199 0.1056824 0.1071021 0.10866 0.1101299 0.1113646 0.1123442 0.1131451 0.1138561
 0.114526 0.1151778 0.1158359 0.1165062 0.1171468 0.1176989 0.1181533 0.1185559 0.1189516 0.1193439
 0.1197054 0.1200057 0.1202367 0.1204285 0.1206193 0.1207977 0.1208995 0.120886 0.1207954 0.1206925
 0.1205917 0.1204474 0.1202016 0.11983 0.1193739 0.1189585 0.1187712 0.1189853 0.1196654 0.1207262
 0.1219908 0.1233015 0.1245678 0.125719 0.1266643 0.1273423 0.1277867 0.1281016 0.1283815 0.1286725
 0.128985 0.1293098 0.1296251 0.1299134 0.1301785 0.1304455 0.1307462 0.1310911 0.1314503 0.1317699
 0.1320237 0.1322473 0.1325117 0.1328583 0.1332562 0.1336317 0.1339467 0.1342331 0.1345347 0.1348357
 0.1350823 0.1352617 0.1354239 0.1356301 0.1359103 0.136261 0.136644 0.1369919 0.1372508 0.1374282
 0.1375821 0.137762 0.1379773 0.1382152 0.1384658 0.1387232 0.1389829 0.1392538 0.1395577 0.1398953
 0.140219 0.1404632 0.1406103 0.1407127 0.1408428 0.1410312 0.1412527 0.1414663 0.1416622 0.1418734
 0.1421395 0.1424582 0.1427775 0.143037 0.1432155 0.14334 0.143457 0.1436012 0.1437841 0.1439974
 0.1442213 0.144435 0.1446311 0.1448221 0.1450284 0.1452569 0.1454942 0.1457196 0.1459236 0.1461144
 0.1463066 0.1465086 0.1467238 0.1469627 0.1472389 0.1475446 0.1478395 0.148079 0.1482504 0.1483766
 0.1484911 0.1486192 0.1487736 0.1489554 0.1491556 0.1493647 0.149579 0.1497974 0.1500137 0.1502193
 0.1504119 0.1505995 0.1507936 0.1509998 0.1512172 0.1514442 0.1516797 0.1519174 0.1521453 0.1523548
 0.152548 0.1527348 0.1529251 0.1531221 0.1533184 0.1535026 0.1536733 0.1538428 0.1540226 0.1542121
 0.1544053 0.1546028 0.1548087 0.15502 0.1552273 0.1554245 0.1556139 0.1558024 0.1559947 0.1561923
 0.1563948 0.1566007 0.1568052 0.1570014 0.1571867 0.1573658 0.1575485 0.1577417 0.1579447 0.1581519
 0.1583591 0.1585654 0.1587706 0.1589738 0.1591738 0.1593705 0.1595663 0.1597652 0.159969 0.1601747
 0.1603794 0.160582 0.1607802 0.1609714 0.1611609 0.1613606 0.1615755 0.1617993 0.1620231 0.1622422
 0.1624571 0.1626707 0.1628858 0.1631012 0.1633159 0.1635345 0.1637617 0.1639916 0.1642102 0.1644054
 0.1645766 0.1647356 0.1648978 0.1650695 0.1652474 0.1654305 0.1656206 0.1658119 0.165995 0.1661713
 0.1663514 0.1665421 0.1667432 0.1669511 0.1671597 0.1673616 0.1675558 0.1677478 0.1679459 0.1681567
 0.1683792 0.1686033 0.1688224 0.1690407 0.1692607 0.1694725 0.169669 0.1698581 0.1700549 0.1702673
 0.1704916 0.1707148 0.1709251 0.1711248 0.1713237 0.1715238 0.1717227 0.1719235 0.1721293 0.1723366
 0.1725448 0.1727577 0.1729729 0.1731847 0.1733944 0.1736055 0.173817 0.1740291 0.174246 0.1744677
 0.1746904 0.1749087 0.1751148 0.1753085 0.1755069 0.1757259 0.1759566 0.17618 0.1763935 0.1766037
 0.1768134 0.1770267 0.1772444 0.1774462 0.1775783 0.1775132 0.1769542 0.1753386 0.1718297 0.16548
 0.1556128 0.1422647 0.1263299 0.1092382 0.09242789 0.07697679 0.06350688 0.0522785 0.0433388 0.03661313
 0.03195599 0.02923792 0.02844034 0.02975946 0.03372809 0.04090557 0.05065809 0.06006279 0.06503902 0.06357715
 0.05766517 0.05147438 0.04788619 0.04709581 0.04786221 0.0491311 0.05057218 0.05238005 0.05488745 0.05819485
 0.06215161 0.06675349 0.07233915 0.07915948 0.0868562 0.09460744 0.1018348 0.1086627 0.1156429 0.1230951
 0.1307704 0.1380948 0.1446277 0.1502853 0.1552506 0.1597679 0.164003 0.1680261 0.1718642 0.1755072
 0.1788291 0.1815501 0.1833669 0.1841851 0.1842334 0.1839348 0.183656 0.1835635 0.1836692 0.1839421
 0.1843607 0.1849106 0.1855768 0.1863354 0.187149 0.1879798 0.1888068 0.1896206 0.1904081 0.1911512
 0.191834 0.19245 0.1930089 0.1935311 0.1940258 0.1944855 0.1949048 0.1952928 0.1956614 0.1960145
 0.1963529 0.1966758 0.1969765 0.1972463 0.1974838 0.1976978 0.1979036 0.1981162 0.1983393 0.1985635
 0.198777 0.198978 0.1991739 0.199374 0.199584 0.199802 0.200018 0.2002222 0.2004111 0.2005876
 0.2007599 0.2009405 0.2011372 0.2013451 0.2015542 0.2017612 0.2019673 0.2021697 0.2023653 0.2025564
 0.2027476 0.2029396 0.2031307 0.2033207 0.2035148 0.203721 0.2039411 0.2041653 0.2043837 0.2045981
 0.2048146 0.2050318 0.2052459 0.2054556 0.2056538 0.2058275 0.2059755 0.2061186 0.2062864 0.2064947
 0.2067328 0.2069716 0.2071901 0.2073914 0.20759 0.2077879 0.2079746 0.2081403 0.2082923 0.2084609
 0.2086805 0.2089516 0.2092351 0.2094958 0.2097303 0.2099474 0.2101545 0.2103658 0.2105905 0.2108064
 0.2109775 0.2111085 0.2112613 0.2115057 0.2118501 0.2122252 0.2125485 0.2127994 0.2130182 0.2132503
 0.2135163 0.2137933 0.2139915 0.2140159 0.213918 0.2139203 0.2142104 0.2147512 0.2153441 0.2158299
 0.2161822 0.2164552 0.2167 0.2169179 0.217063 0.2170961 0.217062 0.2171089 0.2173825 0.2178741
 0.2184146 0.2188473 0.2191518 0.2193826 0.2195798 0.2197635 0.219894 0.219816 0.2194177 0.2189112
 0.2187796 0.2193072 0.2202627 0.2211544 0.2217253 0.2220778 0.2223852 0.2226747 0.2228985 0.2229723
 0.2226482 0.2216555 0.2202285 0.2192586 0.2195567 0.2210351 0.2228536 0.2242608 0.2250706 0.225476
 0.225719 0.2259297 0.226032 0.2257513 0.22492 0.223885 0.2234211 0.2240143 0.2253155 0.2265163
 0.2271771 0.2274576 0.2276791 0.2279619 0.2281464 0.2277571 0.2262713 0.2238926 0.2219392 0.2219207
 0.2240646 0.2270435 0.2292904 0.230347 0.2307445 0.2308459 0.2303055 0.2286861 0.2261207 0.2232557
 0.2210281 0.2205196 0.2222471 0.2252846 0.2277896 0.2288161 0.2291112 0.2298903 0.2313849 0.2328632
 0.2335809 0.233358 0.2324328 0.2310403 0.2293063 0.2276435 0.2269876 0.2281321 0.2307689 0.2335916
 0.2355038 0.2364571 0.2368886 0.236438 0.2336807 0.2278409 0.2209357 0.2172207 0.219434 0.225938
 0.2324833 0.2363939 0.2380394 0.2388341 0.2393244 0.2390423 0.2367929 0.231317 0.2232964 0.2165962
 0.215647 0.2210629 0.2289436 0.2345089 0.235337 0.2316073 0.2252563 0.2194127 0.2171132 0.2194568
 0.225125 0.2316825 0.2370403 0.2400311 0.2403893 0.2386287 0.2360151 0.2342678 0.2343087 0.234896
 0.2335708 0.229764 0.2257439 0.2232952 0.2209718 0.2167831 0.2125587 0.2127435 0.2186105 0.2261212
 0.2304607 0.2309203 0.2300287 0.2289562 0.225517 0.2173114 0.2062562 0.1986947 0.1998566 0.2084281
 0.2177181 0.2222093 0.2219505 0.2206153 0.2206014 0.2205783 0.2173575 0.2100486 0.2022045 0.1988506
 0.2011555 0.2053944 0.207376 0.2057939 0.2007959 0.1926518 0.1841432 0.1814447 0.1889387 0.2038732
 0.2184984 0.2264411 0.2250673 0.2141402 0.1967261 0.1810452 0.1764812 0.185192 0.1994899 0.2088988
 0.2084742 0.1997315 0.1861782 0.1708847 0.1578766 0.1526336 0.1588408 0.1746268 0.1925231 0.2031705
 0.2005242 0.1865816 0.1718127 0.167643 0.176047 0.1881461 0.1941146 0.1920793 0.1867953 0.1835458
 0.1850868 0.1910708 0.1984209 0.20425 0.2081725 0.2090647 0.2019847 0.1841111 0.1626001 0.1498572
 0.1506636 0.1597695 0.1718033 0.1860731 0.2000585 0.2061373 0.2001799 0.1893637 0.1860288 0.194575
 0.2077138 0.215379 0.2146815 0.2104025 0.2076516 0.2064528 0.2042826 0.2019331 0.2037327 0.2115552
 0.2215328 0.228373 0.2308708 0.2314227 0.2319713 0.2325324 0.2325692 0.2318809 0.2305305 0.2289892
 0.2279915 0.2277099 0.2275921 0.2271921 0.2261585 0.2229902 0.2153592 0.2033796 0.1916782 0.1857249
 0.1860361 0.1885618 0.1907126 0.1928806 0.1928262 0.1840721 0.1644579 0.143187 0.134126 0.1423962
 0.1605585 0.1771051 0.1852748 0.1836405 0.1726911 0.1550499 0.1381977 0.132094 0.1410407 0.1595592
 0.1782519 0.1918906 0.1999403 0.2020398 0.1970596 0.1863428 0.1749641 0.1688077 0.1710007 0.1805582
 0.192692 0.2000149 0.1961779 0.182216 0.1692985 0.1704442 0.1868424 0.2058256 0.2151097 0.2152132
 0.2143587 0.2156924 0.2157795 0.2136571 0.2144067 0.2222247 0.234276 0.2434977 0.2448103 0.2371247
 0.2226578 0.2074132 0.19962 0.2031049 0.2128721 0.2204733 0.222144 0.2183186 0.2086708 0.194174
 0.1823298 0.182664 0.1957075 0.2117525 0.221878 0.2260789 0.2292257 0.2326715 0.232594 0.2257722
 0.2149532 0.2071603 0.2067562 0.2116445 0.2168561 0.219792 0.2202683 0.2175613 0.2108491 0.2025963
 0.1985949 0.2029422 0.2137775 0.2249819 0.2316233 0.2330466 0.2314725 0.2291031 0.2266231 0.2233633
 0.2187897 0.2144256 0.2135397 0.217657 0.2241364 0.2288902 0.2310547 0.2332657 0.2375114 0.2423985
 0.2448555 0.2434873 0.2399035 0.2373185 0.2379757 0.2413664 0.2446059 0.2448932 0.2421726 0.2394299
 0.2399397 0.2441416 0.2495804 0.2536989 0.2559246 0.2571408 0.2581825 0.2591042 0.259129 0.2572297
 0.2535711 0.2503559 0.2502629 0.2537906 0.2587882 0.2626901 0.2645969 0.2651305 0.2650129 0.264309
 0.2628478 0.2609149 0.2592778 0.2585739 0.2588499 0.259715 0.2607522 0.2616984 0.2624236 0.2629156
 0.2632427 0.2634595 0.2635836 0.2636577 0.2637329 0.2637743 0.2636979 0.2635449 0.2635112 0.2637284
 0.2640877 0.2643574 0.264397 0.264167 0.2636033 0.2626359 0.2613282 0.2598608 0.2583305 0.2566824
 0.2549538 0.253544 0.2530991 0.2540209 0.2560846 0.2585707 0.2607619 0.2623135 0.2632444 0.2637275
 0.26394 0.2640184 0.2640394 0.2640105 0.2638984 0.2636822 0.263379 0.263023 0.2626396 0.2622516
 0.2618949 0.2615992 0.2613489 0.2610822 0.2607367 0.2602922 0.2597764 0.2592391 0.2587138 0.2581852
 0.2575908 0.2568634 0.2559839 0.2550015 0.2540119 0.2531039 0.2523043 0.2515664 0.2508184 0.2500164
 0.249135 0.2481358 0.2470013 0.2458102 0.244723 0.2438538 0.2431742 0.2425575 0.2418883 0.2411135
 0.2402286 0.2392574 0.2382348 0.237182 0.2360973 0.2349722 0.2338021 0.2325742 0.2312625 0.2298465
 0.2283289 0.2267341 0.2250993 0.2234579 0.2218037 0.220059 0.2180896 0.2157569 0.2129539 0.2096092
 0.205698 0.2012725 0.1964768 0.1915167 0.1866058 0.1819222 0.1775947 0.1737112 0.1703405 0.1675524
 0.1654178 0.1639878 0.1632759 0.1632673 0.1639435 0.1652831 0.1672324 0.1696807 0.1724719 0.1754358
 0.178406 0.1812324 0.1838205 0.1861756 0.1883815 0.1905042 0.192523 0.1943661 0.1959937 0.1974172
 0.1986557 0.1997093 0.200579 0.2012892 0.2018798 0.2023836 0.2028165 0.2031834 0.2034915 0.2037508
 0.2039672 0.2041474 0.2043125 0.2044934 0.2047078 0.2049514 0.2052175 0.2055185 0.2058832 0.2063307
 0.2068492 0.207402 0.2079611 0.2085285 0.2091247 0.2097694 0.2104827 0.2112941 0.2122357 0.2133251
 0.2145573 0.2159015 0.2172969 0.2186554 0.2198827 0.2209048 0.2216822 0.2222057 0.2224885 0.2225629
 0.2224745 0.2222654 0.2219613 0.2215779 0.2211303 0.2206297 0.2200761 0.219465 0.2188031 0.21811
 0.2174067 0.2167036 0.2160033 0.2153104 0.2146336 0.2139778 0.2133421 0.2127252 0.2121262 0.2115368
 0.2109436 0.2103427 0.2097453 0.2091647 0.2086014 0.2080408 0.2074509 0.2067867 0.2060069 0.2050921
 0.204045 0.2028794 0.2016181 0.2002899 0.1989151 0.1974942 0.1960145 0.1944647 0.1928402 0.1911351
 0.1893315 0.1874079 0.1853762 0.1833084 0.1813099 0.1794602 0.1777792 0.1762361 0.1747777 0.1733632
 0.1719882 0.1706725 0.1694258 0.168241 0.167113 0.166045 0.1650397 0.1641001 0.1632351 0.1624548
 0.1617607 0.1611455 0.1605986 0.1601129 0.1596889 0.1593337 0.1590614 0.1588967 0.1588563 0.1589121
 0.1589909 0.1590225 0.1589787 0.158871 0.1587335 0.1586055 0.1585112 0.1584514 0.1584098 0.1583501
 0.1582048 0.1578875 0.1573181 0.1564395 0.1552332 0.1537301 0.151998 0.1501308 0.1482601 0.1465387
 0.1450783 0.1439158 0.1430373 0.1423958 0.1419106 0.1415071 0.1411748 0.1409709 0.1409613 0.1411461
 0.1414151 0.141604 0.1416426 0.1416353 0.1417683 0.1421577 0.1427904 0.1435579 0.1443278 0.1450114
 0.1455741 0.1459922 0.1462454 0.146353 0.1463628 0.1463014 0.1461744 0.1459926 0.1457608 0.1454664
 0.1450978 0.1446488 0.1441158 0.1435143 0.1428691 0.1421732 0.1413992 0.1405333 0.1395453 0.1383866
 0.1371123 0.1359588 0.1352187 0.1350604 0.1354656 0.1362705 0.1372716 0.138342 0.1393948 0.1402241
 0.1405775 0.1405403 0.1407093 0.1417594 0.1438006 0.1462542 0.1483691 0.1497651 0.1504592 0.1505586
 0.1501162 0.1491762 0.1477519 0.1458003 0.1433384 0.1404967 0.1374057 0.1341893 0.1310733 0.1283073
 0.1260006 0.1241501 0.1227317 0.1217763 0.1214095 0.1212416 0.1193445 0.1132759 0.1038717 0.0968955
 0.09817223 0.1070295 0.1167859 0.1217949 0.121918 0.1201763 0.1186538 0.1176698 0.1171233 0.117164
 0.1179203 0.1192342 0.1206976 0.1218971 0.1226659 0.1230474 0.1230084 0.1221983 0.1198822 0.1151928
 0.107829 0.09866525 0.08945136 0.08178726 0.0764033 0.0731858 0.07153119 0.07069705 0.0701603 0.0698628
 0.07010849 0.07118906 0.07312809 0.07576536 0.07893831 0.08242843 0.0858202 0.08866614 0.09084004 0.0925525
 0.09398624 0.09507392 0.09565697 0.09570712 0.09533766 0.09470074 0.09393054 0.09311553 0.09224442 0.09121004
 0.08997484 0.08874297 0.08784672 0.08742328 0.08731636 0.08731031 0.08731931 0.08733004 0.08731464 0.08725169
 0.0871578 0.08709777 0.08718985 0.08752868 0.08805929 0.08858895 0.08894867 0.08911261 0.08916744 0.08916127
 0.08896605 0.08839038 0.08751373 0.08672391 0.08622372 0.08568652 0.084688 0.08336094 0.08232222 0.08198968
 0.08220766 0.0825244 0.08261833 0.08243797 0.08215103 0.08206988 0.08245064 0.08317868 0.08374663 0.08372322
</values></Ydata></ScRf><Data_Parameters_AB><parameter name="DPF">1</parameter><parameter name="NPT">3497</parameter><parameter name="FXV">3996</parameter><parameter name="LXV">500</parameter><parameter name="CSF">1</parameter><parameter name="MXY">0.254805773496628</parameter><parameter name="MNY">-0.0640527978539467</parameter><parameter name="DAT">01/06/2022</parameter><parameter name="TIM">11:37:16.279 (GMT+2)</parameter><parameter name="DXU">WN</parameter></Data_Parameters_AB><AB__Qtest><MainReport name="Quality Test Report"><Header><Line><Legend>Test result ok/not ok [1/0]: </Legend><Value>0</Value></Line><Line><Legend>Method file: </Legend><Value>C:\Users\Public\Documents\Bruker\OPUS_8.2.28\QT\IRBT_v3_default.QT</Value></Line></Header><Matrix><Line><Legend></Legend><Legend>min</Legend><Legend>max</Legend><Legend>measured</Legend></Line><Line><Value>Absorption (X-Range 1):</Value><Value>0.400000</Value><Value>2.000000</Value><Value>0.227997</Value></Line><Line><Value>Noise (X-Range 4):</Value><Value></Value><Value>0.000300</Value><Value>0.000062</Value></Line><Line><Value>Signal/Noise (X-Range 2):</Value><Value>200.000000</Value><Value></Value><Value>56.682904</Value></Line><Line><Value>Signal/Noise (X-Range 3):</Value><Value>40.000000</Value><Value></Value><Value>29.258143</Value></Line><Line><Value>Water vapour (X-Range 5):</Value><Value></Value><Value>0.000300</Value><Value>0.000092</Value></Line><Line><Value>Signal/Water (X-Range 2):</Value><Value>100.000000</Value><Value></Value><Value>38.100637</Value></Line><Line><Value>Signal/Water (X-Range 3):</Value><Value>20.000000</Value><Value></Value><Value>19.666492</Value></Line><Line><Value>Fringes (X-Range 6):</Value><Value></Value><Value>0.000100</Value><Value>0.000059</Value></Line></Matrix></MainReport></AB__Qtest><Data_Parameters_ScSm><parameter name="DPF">1</parameter><parameter name="NPT">1814</parameter><parameter name="FXV">3996.33169228125</parameter><parameter name="LXV">499.541461535156</parameter><parameter name="CSF">1</parameter><parameter name="MXY">0.274612903594971</parameter><parameter name="MNY">0.0329149477183819</parameter><parameter name="DAT">01/06/2022</parameter><parameter name="TIM">11:37:16.279 (GMT+2)</parameter><parameter name="DXU">WN</parameter></Data_Parameters_ScSm><Data_Parameters_ScRf><parameter name="DPF">1</parameter><parameter name="NPT">1820</parameter><parameter name="FXV">4004.04661832813</parameter><parameter name="LXV">495.683998511719</parameter><parameter name="CSF">1</parameter><parameter name="MXY">0.265130519866943</parameter><parameter name="MNY">0.0284403376281261</parameter><parameter name="DAT">01/06/2022</parameter><parameter name="TIM">11:36:50.426 (GMT+2)</parameter><parameter name="DXU">WN</parameter></Data_Parameters_ScRf><Optic_Parameters_Rf><parameter name="APR">0</parameter><parameter name="APT">Open</parameter><parameter name="BMS">KBr</parameter><parameter name="DTC">RT-DLaTGS_IR-Biotyper [Microplate reader]</parameter><parameter name="HPF">0</parameter><parameter name="LPF">10.0</parameter><parameter name="LPV">4000</parameter><parameter name="PGR">0</parameter><parameter name="RCH">Module port</parameter><parameter name="RDX">0</parameter><parameter name="SRC">MIR</parameter><parameter name="VEL">10.0</parameter><parameter name="SON">Off</parameter></Optic_Parameters_Rf><Acquisition_Parameters_Rf><parameter name="ADT">1</parameter><parameter name="AQM">DD</parameter><parameter name="CFE">0</parameter><parameter name="COR">0</parameter><parameter name="DEL">0</parameter><parameter name="DLY">0</parameter><parameter name="HFW">8000</parameter><parameter name="LFW">0</parameter><parameter name="NSR">32</parameter><parameter name="PLF">AB</parameter><parameter name="RES">6</parameter><parameter name="RGN">-1</parameter><parameter name="STR">0</parameter><parameter name="TCL">MakeCompatibleScalar (0, {WSV=1.000000, ARV=0});</parameter><parameter name="TDL">37</parameter><parameter name="RPO">0</parameter></Acquisition_Parameters_Rf><FT_-_Parameters_Rf><parameter name="APF">B3</parameter><parameter name="HFQ">500</parameter><parameter name="LFQ">4000</parameter><parameter name="NLI">0</parameter><parameter name="PHR">24</parameter><parameter name="PHZ">ML</parameter><parameter name="SPZ">NO</parameter><parameter name="ZFF">1</parameter></FT_-_Parameters_Rf><Optic_Parameters_><parameter name="APR">0</parameter><parameter name="APT">Open</parameter><parameter name="BMS">KBr</parameter><parameter name="CHN">Module port</parameter><parameter name="DTC">RT-DLaTGS_IR-Biotyper [Microplate reader]</parameter><parameter name="HPF">0</parameter><parameter name="LPF">10.0</parameter><parameter name="LPV">4000</parameter><parameter name="PGN">0</parameter><parameter name="RDX">0</parameter><parameter name="SRC">MIR</parameter><parameter name="VEL">10.0</parameter><parameter name="SON">Off</parameter></Optic_Parameters_><FT_-_Parameters_><parameter name="APF">B3</parameter><parameter name="HFQ">500</parameter><parameter name="LFQ">4000</parameter><parameter name="NLI">0</parameter><parameter name="PHR">24</parameter><parameter name="PHZ">ML</parameter><parameter name="SPZ">NO</parameter><parameter name="ZFF">1</parameter></FT_-_Parameters_><Acquisition_Parameters_><parameter name="ADT">1</parameter><parameter name="AQM">DD</parameter><parameter name="CFE">0</parameter><parameter name="COR">0</parameter><parameter name="DEL">0</parameter><parameter name="DLY">0</parameter><parameter name="HFW">8000</parameter><parameter name="LFW">0</parameter><parameter name="NSS">32</parameter><parameter name="PLF">AB</parameter><parameter name="RES">6</parameter><parameter name="SOT">0</parameter><parameter name="TCL">MakeCompatibleScalar (0, {WSV=1.000000, ARV=0});</parameter><parameter name="TDL">37</parameter><parameter name="SPO">0</parameter><parameter name="SGN">-1</parameter></Acquisition_Parameters_><Instrument_Parameters_Rf><parameter name="HFL">15800.168544</parameter><parameter name="LFL">0</parameter><parameter name="LWN">15800.168544</parameter><parameter name="ABP">32197</parameter><parameter name="SSP">1</parameter><parameter name="ARG">2</parameter><parameter name="ASG">2</parameter><parameter name="ASS">32</parameter><parameter name="GFW">16</parameter><parameter name="GBW">16</parameter><parameter name="BFW">0</parameter><parameter name="BBW">0</parameter><parameter name="PKA">7308</parameter><parameter name="PKL">4990</parameter><parameter name="PRA">7479</parameter><parameter name="PRL">5001</parameter><parameter name="P2A">1</parameter><parameter name="P2L">1</parameter><parameter name="P2R">1</parameter><parameter name="P2K">1</parameter><parameter name="DAQ">0</parameter><parameter name="AG2">1</parameter><parameter name="SSM">1</parameter><parameter name="RSN">25919</parameter><parameter name="CRR">0</parameter><parameter name="SRT">1654083410.426</parameter><parameter name="DUR">19.6389923095703</parameter><parameter name="TSC">29</parameter><parameter name="MVD">1.02848446369171</parameter><parameter name="AN1">0.225800539694965</parameter><parameter name="AN2">0</parameter><parameter name="VSN">2.485 Apr  4 2017</parameter><parameter name="SRN">0085</parameter><parameter name="CAM">0</parameter><parameter name="INS">IR-Biotyper</parameter><parameter name="FOC">69</parameter><parameter name="RDY">1</parameter><parameter name="ARS">32</parameter></Instrument_Parameters_Rf><Sample_Parameters_><parameter name="BLD"></parameter><parameter name="CNM">Admin</parameter><parameter name="CPY"></parameter><parameter name="DPM"></parameter><parameter name="EXP">IRBT_v3_32Scans.XPM</parameter><parameter name="LCT"></parameter><parameter name="SFM">Microplate, HTS-XT</parameter><parameter name="SNM">220601-1028(v.3)_RTF49M (D_6)_B6_f4fcc6c0-2944-4407-acfb-25b9402cdb8e.0</parameter><parameter name="XPP">C:\Users\Public\Documents\Bruker\OPUS_8.2.28\XPM</parameter><parameter name="IST">OK</parameter><parameter name="CPG">1252</parameter><parameter name="UID">671d252f-5368-48a1-bc6c-38500bb293e3</parameter></Sample_Parameters_><Instrument_Parameters_><parameter name="HFL">15800.168544</parameter><parameter name="LFL">0</parameter><parameter name="LWN">15800.168544</parameter><parameter name="ABP">32197</parameter><parameter name="SSP">1</parameter><parameter name="ASG">2</parameter><parameter name="ARG">2</parameter><parameter name="ASS">32</parameter><parameter name="GFW">16</parameter><parameter name="GBW">16</parameter><parameter name="BFW">0</parameter><parameter name="BBW">0</parameter><parameter name="PKA">7233</parameter><parameter name="PKL">4988</parameter><parameter name="PRA">7521</parameter><parameter name="PRL">4993</parameter><parameter name="P2A">1</parameter><parameter name="P2L">1</parameter><parameter name="P2R">1</parameter><parameter name="P2K">1</parameter><parameter name="DAQ">0</parameter><parameter name="AG2">1</parameter><parameter name="SSM">1</parameter><parameter name="RSN">13585</parameter><parameter name="CRR">0</parameter><parameter name="SRT">1654083436.28</parameter><parameter name="DUR">19.6389923095703</parameter><parameter name="TSC">29</parameter><parameter name="MVD">0.294070243835449</parameter><parameter name="AN1">0.225826522039057</parameter><parameter name="AN2">0</parameter><parameter name="VSN">2.485 Apr  4 2017</parameter><parameter name="SRN">0085</parameter><parameter name="CAM">0</parameter><parameter name="INS">IR-Biotyper</parameter><parameter name="FOC">69</parameter><parameter name="RDY">1</parameter></Instrument_Parameters_><History/></OPUSDataFile>
