<?xml version="1.0" encoding="UTF-8" ?>
<OPUSDataFile><AB><Ydata ylabel="Absorbance Units"><values byteorder="INTEL" format="FLOAT32" numvalues="3497"> -0.07650872 -0.07650801 -0.07648314 -0.07643411 -0.07635909 -0.07625806 -0.07615242 -0.07604384 -0.07595953 -0.07589871
 -0.07587213 -0.07587525 -0.07589807 -0.0759366 -0.07597543 -0.07601592 -0.0760526 -0.07609019 -0.07613286 -0.07618121
 -0.07623924 -0.0762991 -0.07635914 -0.07640794 -0.07644053 -0.07645193 -0.07643845 -0.0764074 -0.07635827 -0.07630629
 -0.0762528 -0.07620927 -0.0761764 -0.0761542 -0.07614206 -0.07613196 -0.07612363 -0.07611109 -0.07609523 -0.0760757
 -0.07605419 -0.07603379 -0.07601735 -0.07601081 -0.07601608 -0.0760389 -0.07607579 -0.07612771 -0.07618529 -0.07624461
 -0.07629631 -0.07633642 -0.07635838 -0.0763597 -0.07633752 -0.07628965 -0.07622522 -0.07614374 -0.07606936 -0.07600339
 -0.07597028 -0.07596977 -0.07600496 -0.07607199 -0.07614921 -0.07623358 -0.0763014 -0.07635533 -0.07638928 -0.07640874
 -0.07642061 -0.07642703 -0.07643433 -0.07643913 -0.07644119 -0.07643612 -0.07642008 -0.07639562 -0.07636149 -0.07632647
 -0.07629286 -0.07626469 -0.07624342 -0.07622671 -0.07621409 -0.07620904 -0.07621169 -0.07623729 -0.07628643 -0.07637267
 -0.07649235 -0.07663298 -0.0767846 -0.07690234 -0.07698379 -0.07699492 -0.07695293 -0.07686994 -0.0767647 -0.07666674
 -0.07657757 -0.07651121 -0.076454 -0.07640287 -0.07634405 -0.07626843 -0.07618251 -0.07608247 -0.07599667 -0.0759287
 -0.07590313 -0.07592447 -0.07598467 -0.07608365 -0.07618396 -0.07628431 -0.07635782 -0.07640807 -0.07644369 -0.07646942
 -0.0765093 -0.07656067 -0.07663184 -0.07671136 -0.0767836 -0.07684029 -0.07686222 -0.0768564 -0.07682074 -0.07676744
 -0.07670372 -0.07663374 -0.07655972 -0.07648692 -0.076414 -0.0763611 -0.07632928 -0.07634962 -0.07642646 -0.07657097
 -0.07678475 -0.07698888 -0.07717633 -0.07721538 -0.07711931 -0.07690471 -0.07659773 -0.07630955 -0.07604433 -0.07586902
 -0.0757734 -0.07577534 -0.07584923 -0.07597881 -0.07612286 -0.07624137 -0.07631217 -0.07630114 -0.07624233 -0.07613581
 -0.07603513 -0.07595903 -0.07591487 -0.07591026 -0.07591555 -0.075928 -0.07593117 -0.07592373 -0.07591853 -0.07591646
 -0.07593475 -0.07597119 -0.07602105 -0.07607883 -0.07612043 -0.07614412 -0.07613107 -0.0760883 -0.07601783 -0.07593048
 -0.07583962 -0.07575358 -0.07568388 -0.07563379 -0.07560915 -0.07560702 -0.07562873 -0.07566603 -0.07571758 -0.07577458
 -0.07583535 -0.07589485 -0.07595296 -0.07599941 -0.07603371 -0.07603599 -0.07600604 -0.07593688 -0.07583186 -0.07570951
 -0.07557344 -0.07544798 -0.07533295 -0.07524057 -0.07516795 -0.07511648 -0.07508124 -0.07505821 -0.07503967 -0.07501778
 -0.07498804 -0.07494297 -0.07489131 -0.07483269 -0.07478382 -0.07475002 -0.0747373 -0.0747492 -0.07477493 -0.07481405
 -0.0748539 -0.07489366 -0.07492669 -0.0749528 -0.07496808 -0.07497281 -0.07496601 -0.07494948 -0.0749293 -0.07490767
 -0.07489363 -0.07488738 -0.07489462 -0.07491131 -0.07493591 -0.0749615 -0.07498014 -0.0749926 -0.07499394 -0.07499828
 -0.07501063 -0.07503914 -0.07509106 -0.07514768 -0.07520793 -0.07524809 -0.07526364 -0.07526358 -0.07524826 -0.07522532
 -0.07519334 -0.07512331 -0.07501628 -0.07486148 -0.0746702 -0.07448195 -0.07430555 -0.0741875 -0.07412135 -0.07412346
 -0.07416692 -0.07422544 -0.07427709 -0.07428629 -0.07426851 -0.07421975 -0.07416794 -0.07412615 -0.07410133 -0.07410196
 -0.07410725 -0.07411683 -0.07409889 -0.07404875 -0.07395804 -0.07382531 -0.07367867 -0.07352032 -0.07339165 -0.07329325
 -0.07325231 -0.07326154 -0.07331128 -0.07338356 -0.07342391 -0.07342646 -0.07334623 -0.07321078 -0.07303606 -0.07284753
 -0.07267811 -0.07252416 -0.072396 -0.0722736 -0.07215044 -0.07201473 -0.07185914 -0.07169296 -0.07151558 -0.07134389
 -0.07118013 -0.07103115 -0.07089776 -0.07077395 -0.0706593 -0.0705453 -0.07043198 -0.07031655 -0.07019792 -0.07007035
 -0.06993224 -0.06977438 -0.06960098 -0.06941372 -0.06922136 -0.06903682 -0.06886249 -0.0687089 -0.06856244 -0.06842038
 -0.06826266 -0.06807972 -0.06786198 -0.06760437 -0.06730576 -0.06696441 -0.06658608 -0.06617038 -0.06573147 -0.06527022
 -0.06479771 -0.06431465 -0.06383269 -0.06335418 -0.06290215 -0.06247821 -0.06210425 -0.06177411 -0.06148406 -0.06122392
 -0.06097202 -0.06072522 -0.06047256 -0.06020846 -0.0599296 -0.05961533 -0.05924942 -0.05882869 -0.05833947 -0.05782032
 -0.05727961 -0.05674521 -0.05622625 -0.05571925 -0.05522542 -0.05473283 -0.05424058 -0.05374606 -0.05324997 -0.05276792
 -0.05230173 -0.05187553 -0.05148454 -0.05112767 -0.05078612 -0.05040724 -0.04997917 -0.04944309 -0.04882947 -0.04815085
 -0.04744397 -0.04675206 -0.04607806 -0.04543746 -0.04482052 -0.04422637 -0.04364784 -0.04308319 -0.04252551 -0.04197303
 -0.04142329 -0.0408756 -0.0403317 -0.03979191 -0.03924801 -0.03869917 -0.03812714 -0.0375323 -0.03690806 -0.03625803
 -0.0355936 -0.03491906 -0.03425125 -0.0335942 -0.0329645 -0.03236047 -0.03179073 -0.0312402 -0.0306997 -0.03015289
 -0.029584 -0.02899477 -0.02838184 -0.0277512 -0.0271067 -0.0264379 -0.02574253 -0.02501749 -0.02425894 -0.02350166
 -0.0227474 -0.02203691 -0.02137092 -0.02075473 -0.02018517 -0.01964082 -0.01911758 -0.01858646 -0.01804566 -0.01747248
 -0.01687396 -0.01625084 -0.01561542 -0.01498716 -0.01436562 -0.01376311 -0.01315725 -0.01253922 -0.01188579 -0.01117881
 -0.01043038 -0.009635089 -0.008833159 -0.008031339 -0.007258937 -0.006521804 -0.005821391 -0.005158816 -0.004513785 -0.00388517
 -0.003250858 -0.002610833 -0.001955622 -0.001285435 -0.0005962984 0.0001122874 0.0008458394 0.001599952 0.002371172 0.003149081
 0.003917946 0.004671756 0.005397371 0.006099366 0.006775596 0.007435619 0.008082889 0.008724935 0.009365443 0.01000466
 0.01064407 0.01127666 0.01190118 0.01251778 0.01312579 0.01374359 0.01437205 0.0150291 0.01571283 0.01641617
 0.01713482 0.01784488 0.01854581 0.01922269 0.01987981 0.02051821 0.02114253 0.02176039 0.02237196 0.02298142
 0.02358355 0.0241748 0.0247561 0.02532282 0.02589406 0.02647352 0.02708089 0.02772375 0.02839333 0.02909121
 0.02978994 0.03048738 0.03117116 0.03184105 0.03250034 0.03314852 0.03378263 0.03440116 0.03499456 0.03556379
 0.03610564 0.03662415 0.03712475 0.0376132 0.03809909 0.0385878 0.03908892 0.03960157 0.04012933 0.04066528
 0.04120655 0.04175086 0.04229634 0.0428455 0.04339969 0.04395323 0.04450616 0.0450474 0.04557588 0.04609055
 0.04659167 0.04708884 0.04758248 0.04808054 0.04858217 0.04908821 0.04959635 0.05010102 0.0505987 0.05107943
 0.05154195 0.05197875 0.05239486 0.05279078 0.05317623 0.05355652 0.05394249 0.05434031 0.05475653 0.0551969
 0.0556521 0.05612364 0.05658709 0.0570392 0.05746535 0.05786341 0.05824421 0.05860849 0.05897506 0.05934405
 0.05972388 0.06011433 0.06051908 0.06093775 0.06137313 0.06182029 0.06227196 0.0627206 0.06315142 0.06356328
 0.06394848 0.06431215 0.06465559 0.06498266 0.06529579 0.06559566 0.06588288 0.06615796 0.06642074 0.06667361
 0.06691653 0.06715436 0.06738733 0.0676218 0.06785809 0.06810074 0.06835019 0.06861222 0.06888748 0.06918392
 0.06949855 0.06982905 0.07016638 0.07049023 0.07079609 0.07106425 0.0713077 0.07152922 0.07174959 0.07198717
 0.07224277 0.07252714 0.07281302 0.0730949 0.0733477 0.07356144 0.07374542 0.07389727 0.07405031 0.07420762
 0.07438007 0.0745673 0.07473744 0.07488852 0.07498601 0.07503591 0.07504699 0.07503104 0.07503049 0.07504838
 0.07511538 0.07521893 0.07535658 0.07550898 0.075655 0.07578487 0.07588047 0.07595657 0.07601006 0.07607701
 0.07616898 0.07630776 0.07650676 0.07673407 0.07699179 0.07720825 0.07737756 0.07745376 0.07743584 0.07734883
 0.07719845 0.07705155 0.07690822 0.07680663 0.07673671 0.07668519 0.076648 0.07660544 0.07657009 0.07655337
 0.07656182 0.0766148 0.07668744 0.07677229 0.07683583 0.07685389 0.07683205 0.07675999 0.07668228 0.07660688
 0.07656571 0.07656772 0.07659865 0.07665955 0.07670674 0.07673805 0.07671534 0.07663964 0.0765035 0.07631447
 0.0761039 0.07588255 0.0757025 0.07556483 0.07550253 0.07549766 0.07554255 0.07560829 0.07566217 0.07568682
 0.07565515 0.07557777 0.07544774 0.07529815 0.07513644 0.07499523 0.07488332 0.07481748 0.07480132 0.07484178
 0.07493958 0.07510267 0.07533131 0.07562539 0.07598095 0.07636205 0.0767572 0.07708912 0.07734916 0.07746197
 0.07744284 0.07727689 0.07701007 0.07669929 0.0763924 0.07616678 0.0760261 0.07600985 0.07606303 0.07617673
 0.076276 0.07633237 0.07630676 0.07617953 0.07597005 0.0756744 0.07534855 0.07499649 0.07466617 0.07435982
 0.07409194 0.07386168 0.07366451 0.07350121 0.07337372 0.07328393 0.07324158 0.07324186 0.07328445 0.07335062
 0.0734179 0.07345566 0.07342534 0.07330238 0.0730506 0.07268241 0.07218308 0.07161385 0.07098553 0.07037343
 0.06979754 0.06929713 0.06888383 0.0685482 0.06829202 0.06807652 0.0678995 0.0677101 0.06750672 0.06725102
 0.06694947 0.06661311 0.06625549 0.06593069 0.06563785 0.06540981 0.06521855 0.06503709 0.06483854 0.06457623
 0.06426128 0.06387846 0.06347275 0.06305997 0.06268297 0.06236254 0.06211006 0.06193777 0.06181196 0.06173481
 0.0616318 0.06149736 0.06126358 0.06092736 0.0604877 0.05995073 0.05938413 0.05879479 0.05825691 0.05776716
 0.05735571 0.05701101 0.05672334 0.05648072 0.05626114 0.05605585 0.05584771 0.05563166 0.05539928 0.05514714
 0.05487172 0.05457053 0.0542403 0.05388778 0.05351124 0.0531324 0.05275372 0.05239566 0.05206128 0.05174652
 0.05145111 0.05114971 0.05084139 0.05050625 0.0501468 0.04976561 0.04936744 0.04896977 0.04857487 0.04819768
 0.04783494 0.04748939 0.04715377 0.04682146 0.04648671 0.04614214 0.04578848 0.04542347 0.04505178 0.04467509
 0.04429442 0.04391103 0.04352066 0.04312261 0.04271521 0.04229771 0.04187811 0.04145684 0.04104467 0.04064147
 0.04024941 0.03986733 0.03948947 0.03911602 0.03874408 0.03837565 0.03801442 0.03766064 0.03731765 0.03698115
 0.03664809 0.03631379 0.03597105 0.03562638 0.03527644 0.03494602 0.03464205 0.03438747 0.03419536 0.03404201
 0.03393267 0.03378745 0.03360035 0.03329758 0.03287522 0.03234102 0.03170214 0.03104769 0.03038638 0.02981694
 0.02933399 0.02897851 0.02872452 0.02853888 0.02838491 0.02818759 0.02793094 0.02755685 0.02710041 0.02655982
 0.02600125 0.02546237 0.02497264 0.0245598 0.02419208 0.0238667 0.02355532 0.02324731 0.02297425 0.02273652
 0.02258757 0.02253024 0.02256096 0.02267342 0.02278867 0.02289701 0.02289917 0.02279737 0.02253948 0.02214946
 0.02165096 0.02107986 0.02050652 0.01994682 0.01945355 0.01900417 0.01860034 0.01821256 0.01781863 0.01742687
 0.01703117 0.01666214 0.01633023 0.01603306 0.01577534 0.01552103 0.01526609 0.01499965 0.01472094 0.01446264
 0.01422576 0.01403398 0.01388191 0.0137491 0.01363029 0.01349304 0.0133426 0.01317406 0.01299711 0.01282798
 0.01266576 0.01252035 0.01237433 0.01222177 0.01203431 0.01179577 0.01148621 0.01108873 0.0106208 0.01007528
 0.009516305 0.008950152 0.008446694 0.008015664 0.007669407 0.007409214 0.007175372 0.006963431 0.006696763 0.006378231
 0.005981899 0.005522691 0.00503855 0.004545043 0.00410077 0.003706005 0.003392228 0.003140301 0.002944106 0.002775777
 0.002611921 0.002432725 0.002217732 0.001971371 0.001685539 0.001391267 0.001093173 0.0008239598 0.0005932719 0.0003928115
 0.0002258541 3.672305E-05 -0.0001776 -0.000461119 -0.0008113085 -0.001202453 -0.001626202 -0.002014086 -0.002369838 -0.002665299
 -0.002921229 -0.003175391 -0.003439562 -0.003758108 -0.004112342 -0.004502209 -0.004896054 -0.005265829 -0.005599938 -0.005880551
 -0.006120217 -0.006319291 -0.006491286 -0.00664103 -0.006769249 -0.006876906 -0.006961133 -0.007020668 -0.007067231 -0.007101264
 -0.007157025 -0.007236761 -0.007381257 -0.007588582 -0.007871434 -0.008218064 -0.008594987 -0.008985907 -0.0093335 -0.009631064
 -0.009837671 -0.009964644 -0.01000575 -0.009983975 -0.009914999 -0.009817851 -0.009708864 -0.009591823 -0.009472658 -0.00934659
 -0.009212317 -0.009072093 -0.008925688 -0.008779536 -0.008635941 -0.008477791 -0.008304514 -0.008066102 -0.007760411 -0.007343519
 -0.006821414 -0.006206371 -0.005513497 -0.004806124 -0.004093572 -0.00343429 -0.002820368 -0.002266707 -0.001757378 -0.001277505
 -0.0008207398 -0.0003752057 5.519802E-05 0.000470074 0.000870454 0.001254735 0.00163265 0.002007948 0.002379494 0.002751069
 0.003094598 0.003408903 0.003654957 0.003830223 0.003918345 0.00392072 0.003857514 0.003732277 0.003578457 0.00339638
 0.003204049 0.0030017 0.00279487 0.002593697 0.002415162 0.002275197 0.002203387 0.002197398 0.00227256 0.002398113
 0.002563185 0.002735846 0.002897117 0.003046833 0.003177909 0.003314536 0.003459861 0.003631589 0.0038329 0.004062135
 0.004319577 0.004588403 0.004866796 0.005123795 0.005357347 0.005535088 0.005662833 0.005739606 0.005785346 0.005847309
 0.005946708 0.006149314 0.0064451 0.006867371 0.007341677 0.007841733 0.008228619 0.008428135 0.00830417 0.00777449
 0.006815779 0.005380637 0.003613298 0.001513464 -0.0006736655 -0.002925219 -0.005032395 -0.006980027 -0.008687395 -0.01015654
 -0.01142112 -0.01248897 -0.01342826 -0.01424133 -0.0149717 -0.01562027 -0.01620748 -0.01674225 -0.01724798 -0.0177352
 -0.01822988 -0.01872549 -0.01923029 -0.01971947 -0.02018119 -0.02059671 -0.02095261 -0.02125341 -0.021496 -0.02169652
 -0.02185787 -0.02198783 -0.0220885 -0.02215219 -0.02217867 -0.02215278 -0.02207489 -0.02194745 -0.02177732 -0.02161014
 -0.02145799 -0.02139542 -0.0214243 -0.02159392 -0.02188361 -0.02228431 -0.02276311 -0.02327687 -0.02379974 -0.02429477
 -0.02475077 -0.02515008 -0.02549422 -0.02577907 -0.02601217 -0.02619718 -0.02632769 -0.02640753 -0.02639808 -0.02629572
 -0.02606507 -0.02570186 -0.0252655 -0.02476661 -0.02440147 -0.02418694 -0.0243488 -0.02486999 -0.02582303 -0.02713685
 -0.02867271 -0.03034978 -0.03195063 -0.03345435 -0.03473249 -0.03583836 -0.03676884 -0.03759431 -0.03836092 -0.03909566
 -0.03982585 -0.04053528 -0.04122558 -0.04187521 -0.04247957 -0.04303117 -0.04352806 -0.04397349 -0.04436737 -0.04472074
 -0.0450346 -0.04532734 -0.04560028 -0.04587197 -0.04614211 -0.04642062 -0.046704 -0.04698924 -0.04727046 -0.047535
 -0.04778052 -0.04799585 -0.04819022 -0.04836481 -0.04853766 -0.04872073 -0.04892302 -0.04915546 -0.04940238 -0.04966483
 -0.04991193 -0.05013742 -0.0503253 -0.05047069 -0.05059222 -0.05069035 -0.05080075 -0.05092428 -0.05107555 -0.05125123
 -0.05143274 -0.05161802 -0.05178576 -0.05194276 -0.05209554 -0.05225316 -0.05243891 -0.05264822 -0.05288891 -0.05314211
 -0.05339444 -0.05362976 -0.05383258 -0.05400129 -0.05413004 -0.05422744 -0.05429286 -0.05434297 -0.05437834 -0.05442733
 -0.05449287 -0.05459985 -0.05475071 -0.05494013 -0.05516656 -0.05539535 -0.05562493 -0.05582599 -0.05600194 -0.05615135
 -0.05627874 -0.05639658 -0.05650494 -0.05660982 -0.05670947 -0.05680318 -0.05689191 -0.05697654 -0.05705714 -0.05713521
 -0.05720611 -0.05726782 -0.05731862 -0.05735518 -0.05738967 -0.05742216 -0.05747391 -0.05754795 -0.05765366 -0.05779249
 -0.05794904 -0.05812199 -0.05828338 -0.0584332 -0.05855702 -0.05865932 -0.05875098 -0.0588373 -0.05894023 -0.05905801
 -0.05920074 -0.05935644 -0.05951498 -0.0596626 -0.0597808 -0.05986963 -0.05991905 -0.05994954 -0.0599648 -0.05999165
 -0.06003943 -0.06012058 -0.0602412 -0.06039148 -0.06057214 -0.06076169 -0.06095879 -0.06114442 -0.06131799 -0.06147141
 -0.06160562 -0.06172395 -0.0618281 -0.06192701 -0.06202184 -0.06212052 -0.06222294 -0.06233286 -0.06244878 -0.06257088
 -0.06269583 -0.06282107 -0.0629428 -0.06305727 -0.06316459 -0.0632628 -0.06335753 -0.0634496 -0.06354576 -0.06364777
 -0.06375772 -0.06387645 -0.0640006 -0.06413014 -0.06425817 -0.06438421 -0.06449912 -0.06460237 -0.06468464 -0.0647468
 -0.06478612 -0.06480676 -0.06481799 -0.06482571 -0.06484576 -0.06488112 -0.06494341 -0.06503008 -0.06514392 -0.06527832
 -0.06543089 -0.06559315 -0.06576189 -0.06592753 -0.06608661 -0.06623313 -0.06636439 -0.06648355 -0.06659004 -0.0666938
 -0.06679556 -0.06690162 -0.06701206 -0.06712557 -0.06724177 -0.06735704 -0.06747165 -0.06758505 -0.06769758 -0.06781033
 -0.06792259 -0.06803367 -0.06814236 -0.06824662 -0.06834611 -0.06843965 -0.06852778 -0.06861043 -0.06868859 -0.06876254
 -0.0688334 -0.06890114 -0.06896853 -0.06903572 -0.06910743 -0.06918426 -0.06926971 -0.06936421 -0.06946632 -0.06957579
 -0.06968595 -0.06979631 -0.06989933 -0.06999554 -0.07008261 -0.07016281 -0.07024115 -0.07032007 -0.0704076 -0.07050285
 -0.0706094 -0.07072159 -0.07083579 -0.07094619 -0.07104684 -0.07113833 -0.07121789 -0.07129372 -0.07136741 -0.07144678
 -0.07153468 -0.07162911 -0.07173099 -0.07182963 -0.07192424 -0.07200862 -0.07208282 -0.07215359 -0.07222176 -0.07229804
 -0.07238139 -0.07247303 -0.07257043 -0.07266598 -0.0727598 -0.07284772 -0.07293274 -0.07301772 -0.07310374 -0.07319383
 -0.0732853 -0.07337718 -0.07346768 -0.07355492 -0.07364146 -0.07372762 -0.07381615 -0.07390836 -0.07400142 -0.07409561
 -0.07418357 -0.07426471 -0.07433452 -0.07439295 -0.07444292 -0.07448513 -0.07452704 -0.07456905 -0.07461718 -0.0746709
 -0.07473192 -0.07479928 -0.0748718 -0.07494892 -0.0750291 -0.07511276 -0.07519981 -0.07529046 -0.07538562 -0.07548264
 -0.0755814 -0.07567637 -0.07576585 -0.07584586 -0.0759146 -0.07597449 -0.07602529 -0.07607272 -0.0761172 -0.07616248
 -0.07620873 -0.07625712 -0.07630789 -0.07636361 -0.07642446 -0.07649351 -0.07656915 -0.07664904 -0.07672977 -0.07680263
 -0.07686698 -0.0769164 -0.07695672 -0.07699049 -0.07702544 -0.07706892 -0.077121 -0.0771853 -0.07725327 -0.07732312
 -0.0773876 -0.07744399 -0.07749379 -0.07753638 -0.07757816 -0.07761957 -0.07766496 -0.07771443 -0.07776824 -0.07782623
 -0.07788697 -0.0779506 -0.07801709 -0.0780869 -0.07816155 -0.07824092 -0.07832586 -0.07841484 -0.0785062 -0.07859817
 -0.07868813 -0.07877594 -0.07886057 -0.07894288 -0.07902328 -0.0791014 -0.07917739 -0.07924995 -0.07931848 -0.07938422
 -0.07944688 -0.07951122 -0.07957754 -0.07965047 -0.07973016 -0.07981638 -0.0799086 -0.08000176 -0.0800953 -0.08018373
 -0.0802673 -0.08034385 -0.08041392 -0.08047774 -0.08053533 -0.08058678 -0.08063205 -0.08067043 -0.0807042 -0.0807336
 -0.08076434 -0.08079883 -0.08084237 -0.08089818 -0.08096436 -0.08104225 -0.08112206 -0.08120272 -0.08127619 -0.08134135
 -0.08140028 -0.08145318 -0.08150868 -0.08156694 -0.08163294 -0.08170587 -0.08178422 -0.08186696 -0.08195027 -0.0820332
 -0.0821121 -0.08218615 -0.08225232 -0.08231119 -0.08236153 -0.08240627 -0.08244669 -0.08248644 -0.08252783 -0.08257227
 -0.08262119 -0.08267269 -0.08272678 -0.08278044 -0.08283301 -0.08288463 -0.0829351 -0.08298837 -0.08304459 -0.08310588
 -0.08317173 -0.08323781 -0.08330349 -0.08336267 -0.08341652 -0.08346508 -0.08351087 -0.08355974 -0.08361227 -0.08367289
 -0.08373812 -0.0838068 -0.08387337 -0.08393314 -0.08398382 -0.08402192 -0.08405138 -0.08407177 -0.08409126 -0.0841114
 -0.08413882 -0.08417495 -0.08422108 -0.08427769 -0.08433989 -0.08440739 -0.08447152 -0.0845321 -0.08458365 -0.0846274
 -0.08466645 -0.08470271 -0.08474458 -0.08479149 -0.08484711 -0.08490802 -0.08497046 -0.08503205 -0.08508833 -0.08513989
 -0.08518574 -0.08522688 -0.08526403 -0.08529598 -0.08532252 -0.08534253 -0.08535515 -0.0853632 -0.08536645 -0.08537186
 -0.0853799 -0.08539762 -0.08542539 -0.08546628 -0.08552002 -0.08558476 -0.08565991 -0.0857414 -0.08582912 -0.08591992
 -0.0860156 -0.08611742 -0.08623002 -0.08636012 -0.08651362 -0.08669992 -0.08692049 -0.08718072 -0.08747554 -0.08780338
 -0.08816159 -0.08854666 -0.08896815 -0.08942687 -0.08993535 -0.09049793 -0.09110247 -0.09175003 -0.09239937 -0.09304831
 -0.09365828 -0.09422814 -0.09473744 -0.09517974 -0.09551316 -0.095724 -0.09573752 -0.09556141 -0.09515973 -0.09458742
 -0.09390555 -0.09317946 -0.09250745 -0.09191023 -0.09143676 -0.09107693 -0.09083731 -0.09070697 -0.09068546 -0.09075598
 -0.09092063 -0.0911323 -0.09138814 -0.09162097 -0.09182318 -0.09197356 -0.09207101 -0.09213815 -0.09217526 -0.09219214
 -0.09218756 -0.09215882 -0.09210672 -0.09203281 -0.09193806 -0.09182488 -0.09169517 -0.09155152 -0.09139921 -0.09124538
 -0.09109217 -0.09094477 -0.09079883 -0.0906532 -0.0905052 -0.09035204 -0.0901996 -0.09004781 -0.08990718 -0.08977941
 -0.08967073 -0.08958241 -0.08950965 -0.08945216 -0.08939348 -0.08933294 -0.08925644 -0.08916592 -0.08906411 -0.08895493
 -0.08885353 -0.08876123 -0.08868963 -0.0886353 -0.08859865 -0.08857442 -0.0885567 -0.08854295 -0.08852855 -0.0885155
 -0.08850335 -0.08849531 -0.08849323 -0.08849549 -0.08850292 -0.0885087 -0.08851185 -0.08850764 -0.08849522 -0.08847718
 -0.08845364 -0.08843086 -0.08840905 -0.08839248 -0.08838113 -0.08837695 -0.08837998 -0.08839151 -0.08841109 -0.08843885
 -0.08847313 -0.08851188 -0.08855231 -0.08859055 -0.08862494 -0.08865207 -0.08867456 -0.08869171 -0.08871041 -0.08873312
 -0.08876397 -0.08880577 -0.08885267 -0.08890504 -0.08895046 -0.08898768 -0.08900958 -0.08901574 -0.08901158 -0.08899786
 -0.08898646 -0.08897749 -0.08897802 -0.08898652 -0.08900139 -0.08902109 -0.08904102 -0.08906102 -0.08907907 -0.08909498
 -0.0891081 -0.08911733 -0.08912097 -0.08912053 -0.08911526 -0.08911074 -0.0891088 -0.08911345 -0.08912694 -0.0891459
 -0.08917057 -0.08919401 -0.08921544 -0.08923266 -0.08924554 -0.08925775 -0.08926952 -0.08928515 -0.08930429 -0.0893271
 -0.08935268 -0.08937778 -0.08940195 -0.08942213 -0.08943938 -0.08945389 -0.08946731 -0.08948202 -0.08949779 -0.08951586
 -0.08953344 -0.08954921 -0.08956167 -0.08956901 -0.08957489 -0.08957928 -0.08958865 -0.08960422 -0.0896287 -0.08966284
 -0.08970221 -0.08974662 -0.08978854 -0.08982781 -0.08985996 -0.08988556 -0.08990539 -0.08992029 -0.08993367 -0.08994592
 -0.08995982 -0.08997499 -0.08999223 -0.09001058 -0.09002914 -0.09004756 -0.09006488 -0.09008247 -0.09010059 -0.09012116
 -0.09014521 -0.09017294 -0.0902051 -0.09023874 -0.09027364 -0.09030646 -0.09033669 -0.09036428 -0.0903892 -0.09041517
 -0.09044231 -0.0904733 -0.09050756 -0.09054285 -0.09057851 -0.09061043 -0.09063947 -0.09066539 -0.09068996 -0.0907164
 -0.09074509 -0.09077828 -0.09081421 -0.09085236 -0.09089086 -0.09092841 -0.09096434 -0.0909979 -0.09102992 -0.0910603
 -0.09109066 -0.09112137 -0.09115294 -0.09118564 -0.09121697 -0.09124678 -0.09127225 -0.09129356 -0.09131271 -0.09133055
 -0.09135369 -0.09138203 -0.0914195 -0.09146389 -0.09151212 -0.09156153 -0.09160558 -0.09164463 -0.09167562 -0.09170239
 -0.09172707 -0.0917526 -0.09178201 -0.09181357 -0.0918477 -0.09188069 -0.09191123 -0.09193937 -0.0919646 -0.09198985
 -0.09201546 -0.09204242 -0.09207084 -0.09209953 -0.09212857 -0.09215891 -0.09219095 -0.09222803 -0.09226968 -0.09231655
 -0.0923664 -0.09241415 -0.09245791 -0.09249131 -0.09251603 -0.09253069 -0.09254007 -0.09254751 -0.09255678 -0.09257142
 -0.09259149 -0.0926182 -0.09264939 -0.09268494 -0.09272211 -0.09276059 -0.09279734 -0.09283187 -0.09286407 -0.09289384
 -0.09292561 -0.09295955 -0.09299941 -0.09304442 -0.0930915 -0.09313943 -0.09318148 -0.09321832 -0.09324781 -0.09327231
 -0.09329525 -0.09331746 -0.09334185 -0.09336676 -0.09339161 -0.09341548 -0.09343688 -0.09345846 -0.09348042 -0.09350702
 -0.09353986 -0.0935794 -0.09362667 -0.09367606 -0.09372728 -0.09377326 -0.09381349 -0.09384616 -0.09387153 -0.09389406
 -0.09391439 -0.09393894 -0.09396774 -0.09400465 -0.09404854 -0.09409899 -0.09415375 -0.09420878 -0.09426222 -0.09430978
 -0.09435187 -0.09438691 -0.09441725 -0.09444392 -0.09446823 -0.09449116 -0.09451236 -0.09453155 -0.09455024 -0.09456803
 -0.09459058 -0.09461837 -0.09465685 -0.09470648 -0.09476401 -0.09482881 -0.09488959 -0.09494606 -0.09499014 -0.09502348
 -0.09504832 -0.0950662 -0.09508269 -0.09509708 -0.0951104 -0.09512227 -0.0951315 -0.09514131 -0.09515365 -0.09517212
 -0.09520039 -0.09523654 -0.09528165 -0.09532926 -0.09537797 -0.09542247 -0.09546127 -0.0954935 -0.09551869 -0.09553935
 -0.09555559 -0.09557116 -0.09558623 -0.09560357 -0.09562326 -0.09564713 -0.09567527 -0.09570929 -0.09574888 -0.09579458
 -0.09584471 -0.09589696 -0.09594873 -0.09599581 -0.09603681 -0.09606846 -0.09609277 -0.09610928 -0.09612273 -0.09613512
 -0.09614892 -0.09616593 -0.09618311 -0.09620042 -0.09621348 -0.09622143 -0.09622597 -0.09622709 -0.09622975 -0.0962339
 -0.09623873 -0.09624357 -0.09624264 -0.09623642 -0.09622315 -0.09620507 -0.09618723 -0.0961712 -0.09616271 -0.09616092
 -0.09616727 -0.09618006 -0.09619823 -0.09622083 -0.09624703 -0.09627625 -0.09630859 -0.09634148 -0.09637478 -0.09640397
 -0.09642826 -0.09644426 -0.09645123 -0.09645045 -0.09644186 -0.09643022 -0.09641573 -0.09640257 -0.09639065 -0.09638145
 -0.09637446 -0.09636856 -0.09636297 -0.09635469 -0.09634425 -0.09633036 -0.09631623 -0.09630512 -0.09630036 -0.09630724
 -0.09632356 -0.09635112 -0.09638147 -0.09641182 -0.09643493 -0.09644705 -0.09645049 -0.09644422 -0.09643722 -0.09643047
 -0.09642978 -0.09643573 -0.09644596 -0.09646025 -0.09647353 -0.09648622 -0.09649896 -0.09651263 -0.09653194 -0.09655592
 -0.09658514 -0.09661634 -0.09664399 -0.09666497 -0.0966726 -0.09666649 -0.09664258 -0.09660617 -0.09655765 -0.09650762
 -0.09646053 -0.09642375 -0.09640178 -0.09639025 -0.09639004 -0.09638982 -0.09638818 -0.09637944 -0.09636296 -0.09634202
 -0.09631681 -0.09629159 -0.09626628 -0.0962421 -0.09621909 -0.09619811 -0.09617928 -0.09616379 -0.09615056 -0.09613869
 -0.09612578 -0.09610838 -0.0960849 -0.09605199 -0.09601151 -0.09596232 -0.09591112 -0.09585975 -0.09581614 -0.0957835
 -0.09576371 -0.09575878 -0.09576129 -0.09577121 -0.09577588 -0.0957744 -0.09575792 -0.0957265 -0.09568427 -0.09563308
 -0.09558943 -0.09555457 -0.09554435 -0.09555519 -0.09558783 -0.09563262 -0.0956718 -0.09569813 -0.09569127 -0.09565895
 -0.09559856 -0.09552647 -0.09545335 -0.09538606 -0.09533241 -0.09528475 -0.09524288 -0.09519726 -0.09514495 -0.09508728
 -0.09502337 -0.09496284 -0.09490626 -0.09486181 -0.09482974 -0.09481362 -0.09481265 -0.09482341 -0.09484255 -0.09485414
 -0.0948546 -0.09482305 -0.09476426 -0.09467521 -0.09456754 -0.09445604 -0.09434754 -0.09425418 -0.09417661 -0.0941191
 -0.094079 -0.09405776 -0.09404624 -0.09404389 -0.09403468 -0.09401547 -0.09397509 -0.09391083 -0.09382654 -0.09372205
 -0.09360941 -0.0934892 -0.09337136 -0.09325609 -0.0931495 -0.09305136 -0.09296431 -0.09288735 -0.09281929 -0.09275859
 -0.09270223 -0.09264782 -0.09259113 -0.09252996 -0.09245998 -0.0923828 -0.09229719 -0.09220867 -0.09211988 -0.09203259
 -0.09194905 -0.09186357 -0.0917757 -0.09167894 -0.091572 -0.09145501 -0.09132766 -0.09119684 -0.09106286 -0.09093232
 -0.09080457 -0.09067775 -0.0905499 -0.0904102 -0.09025922 -0.0900916 -0.08991228 -0.089729 -0.08954395 -0.08936473
 -0.08918764 -0.08901187 -0.08883412 -0.08865082 -0.08846447 -0.08827458 -0.08808654 -0.08790198 -0.087724 -0.08755451
 -0.08738858 -0.08722721 -0.08705161 -0.08686048 -0.08663784 -0.08638389 -0.08611552 -0.08583517 -0.08557269 -0.08532587
 -0.08510121 -0.08489296 -0.08468758 -0.08448158 -0.0842606 -0.08402652 -0.08377428 -0.08351158 -0.08324301 -0.08297741
 -0.08272443 -0.08248011 -0.08225007 -0.08200842 -0.08174929 -0.08144907 -0.08109793 -0.08070958 -0.08028321 -0.07984602
 -0.07940065 -0.07894892 -0.07849079 -0.07802066 -0.07753953 -0.07705604 -0.07656879 -0.07607959 -0.07557821 -0.07503553
 -0.07444292 -0.0737615 -0.07300864 -0.07218648 -0.07132858 -0.0704724 -0.06962664 -0.06881146 -0.06801496 -0.06723558
 -0.06646662 -0.06570531 -0.06495048 -0.0642051 -0.06344652 -0.0626767 -0.06183209 -0.06090751 -0.05986316 -0.05870014
 -0.05750001 -0.05626881 -0.05510151 -0.0539858 -0.05291194 -0.05186628 -0.05080031 -0.04971476 -0.04858846 -0.04742547
 -0.04622922 -0.04498404 -0.04368602 -0.0422903 -0.04076719 -0.03908109 -0.03718983 -0.03515191 -0.03295893 -0.0307505
 -0.02855582 -0.02645888 -0.02447932 -0.02261622 -0.02087281 -0.01920568 -0.01761111 -0.01599505 -0.01434618 -0.01250953
 -0.01049676 -0.008254675 -0.005858207 -0.003522647 -0.001270256 0.0007231288 0.00253801 0.004219406 0.005826785 0.007447509
 0.009075361 0.01073415 0.0124005 0.01406373 0.01572897 0.01740026 0.01906095 0.02071337 0.02230999 0.02384134
 0.02530878 0.02671084 0.028075 0.02940121 0.0306545 0.03183048 0.03286742 0.03377349 0.0345524 0.03522351
 0.03585043 0.03644053 0.03704745 0.0376493 0.03823343 0.03879094 0.03929903 0.03978401 0.0402615 0.04073649
 0.04122459 0.04168731 0.04211677 0.04247796 0.04275874 0.04295928 0.04307542 0.04313509 0.04313918 0.04313128
 0.04311327 0.04310819 0.0431134 0.04311107 0.04309894 0.04305429 0.04298243 0.04288354 0.04277373 0.04268452
 0.04263385 0.0426658 0.04277673 0.04298076 0.04326469 0.04361674 0.04405114 0.04456946 0.04519311 0.04593731
 0.04677619 0.04770961 0.04869672 0.04972793 0.05081398 0.05195389 0.05318223 0.05450023 0.05591261 0.05741715
 0.05899291 0.06063904 0.06234104 0.06409939 0.06590818 0.0677679 0.06967513 0.07163444 0.07365078 0.07572868
 0.07787597 0.08009066 0.08237389 0.08472268 0.08713515 0.08961226 0.0921542 0.09476095 0.09743486 0.1001626
 0.1029467 0.1057419 0.1085459 0.1112966 0.1139912 0.11661 0.1191544 0.1216426 0.1240598 0.1263455
 0.1284706 0.1302937 0.1318333 0.1330508 0.1339994 0.1347506 0.1353193 0.1357522 0.1360355 0.1361725
 0.1361526 0.1359875 0.1356062 0.1350165 0.1340245 0.132577 0.1306003 0.1280304 0.1252725 0.1223565
 0.1195742 0.1169359 0.1142874 0.1116205 0.1087922 0.1058208 0.1027315 0.09954062 0.09633406 0.09306991
 0.08973148 0.08619264 0.08223114 0.07783125 0.07277362 0.067462 0.06212221 0.0570461 0.05252845 0.04833898
 0.04446131 0.04068663 0.0369341 0.03326591 0.02967316 0.02629056 0.02313494 0.02019134 0.01745838 0.0148165
 0.01226345 0.009730717 0.007231405 0.004799303 0.002448286 0.0002466921 -0.001812485 -0.003706144 -0.00545917 -0.007097483
 -0.008646043 -0.01013648 -0.01159747 -0.01304913 -0.0145442 -0.01611494 -0.01779224 -0.01963001 -0.02146675 -0.02329357
 -0.02486734 -0.02612603 -0.02713606 -0.0278898 -0.02859937 -0.02927488 -0.03002447 -0.03084244 -0.03170026 -0.03258583
 -0.03341455 -0.03419151 -0.03489066 -0.03552012 -0.0360942 -0.03659514 -0.03700471 -0.03729906 -0.03743718 -0.03743211
 -0.03727534 -0.03699993 -0.03662271 -0.0361575 -0.03561532 -0.03498957 -0.03428421 -0.03347187 -0.03255369 -0.03146772
 -0.03020755 -0.02873739 -0.02705638 -0.02529559 -0.02346898 -0.02178808 -0.02024695 -0.01892095 -0.01779322 -0.01684348
 -0.01606842 -0.01545617 -0.01499544 -0.01467727 -0.01445372 -0.01428413 -0.01408823 -0.01378975 -0.01335227 -0.01271168
 -0.01196046 -0.01111452 -0.01026123 -0.0094364 -0.008616792 -0.007806934 -0.006952886 -0.006048631 -0.005080614 -0.004048115
 -0.002986053 -0.001895973 -0.000810607 0.0002770566 0.001385451 0.002530832 0.003780922 0.005140629 0.00666619 0.008324851
 0.0100912 0.01193221 0.01378881 0.01568349 0.01761144 0.01960678 0.02169747 0.02386089 0.0261036 0.02836418
 0.03062605 0.03286566 0.03507202 0.0372799 0.03949257 0.04172621 0.04398144 0.04616153 0.04825635 0.05011033
 0.05172249 0.05301018 0.05397696 0.054598 0.05486152 0.05472874 0.05418749 0.05319196 0.05176347 0.04989581
 0.04764859 0.04505822 0.04219045 0.03908892 0.03579154 0.03231931 0.02869592 0.02491726 0.02107103 0.01715661
 0.01335011 0.009668589 0.006228657 0.003037267 4.910309E-05 -0.002742255 -0.005437035 -0.008029096 -0.01053696 -0.01294068
 -0.01517452 -0.01723672 -0.01908228 -0.0207389 -0.02222904 -0.0235831 -0.02484449 -0.02602954 -0.02716314 -0.02825638
 -0.02931889 -0.03036509 -0.03140238 -0.03243816 -0.03347711 -0.03451314 -0.03554608 -0.03656977 -0.03758382 -0.03858269
 -0.03956605 -0.04050569 -0.04139834 -0.04219235 -0.04288781 -0.04345561 -0.04390542 -0.04425578 -0.0445163 -0.04472025
 -0.04486853 -0.04497761 -0.04504439 -0.04506955 -0.0450562 -0.04500283 -0.04492604 -0.04482991 -0.04474292 -0.04467438
 -0.04465145 -0.04468277 -0.04478259 -0.0449556 -0.04519965 -0.04551606 -0.04588625 -0.04630928 -0.04675867 -0.04723373
 -0.04771912 -0.04821568 -0.0487222 -0.0492364 -0.04975193 -0.0502604 -0.05073941 -0.05118092 -0.05156004 -0.05187778
 -0.05212402 -0.0523074 -0.05243128 -0.05250342 -0.05252961 -0.05251168 -0.05245098 -0.05235014 -0.05220761 -0.05203836
 -0.05184244 -0.0516477 -0.05145669 -0.05129226 -0.05115594 -0.05104992 -0.05097333 -0.05091356 -0.05086998 -0.05083186
 -0.05080087 -0.05077619 -0.05076244 -0.05076899 -0.05080277 -0.05087959 -0.05100355 -0.05118782 -0.05142644 -0.05172171
 -0.05205833 -0.05243042 -0.05282021 -0.05322103 -0.05361646 -0.05400182 -0.05436386 -0.05469932 -0.05500353 -0.05527509
 -0.05552037 -0.05573962 -0.05594448 -0.05613543 -0.05632152 -0.05650211 -0.05667846 -0.05684835 -0.05700485 -0.05714531
 -0.05725976 -0.05734704 -0.05740068 -0.05742072 -0.05740435 -0.05735328 -0.05726636 -0.05715065 -0.05700756 -0.05685045
 -0.05668402 -0.05651991 -0.05636271 -0.05621482 -0.05607754 -0.05594892 -0.05582853 -0.05571963 -0.05562236 -0.05554412
 -0.05548496 -0.05544709 -0.0554293 -0.05542486 -0.05543262 -0.05544416 -0.05546027 -0.05547838 -0.05550051 -0.05552933
 -0.05556536 -0.05561046 -0.05566411 -0.05572595 -0.0557973 -0.05587845 -0.05597188 -0.0560794 -0.05619917 -0.05633231
 -0.05647023 -0.05661208 -0.05674829 -0.05687735 -0.05699826 -0.05711078 -0.05722493 -0.05734124 -0.05747024 -0.05761093
 -0.05776241 -0.05792228 -0.05808043 -0.05823621 -0.05838215 -0.05852052 -0.05865167 -0.05877818 -0.05890359 -0.05902858
 -0.05915542 -0.05928237 -0.05940953 -0.05953361 -0.05965313 -0.05976681 -0.05987323 -0.05997639 -0.06007649 -0.06017867
 -0.06028371 -0.06039222 -0.06050432 -0.06061655 -0.06072864 -0.06083611 -0.06093859 -0.06103121 -0.06111433 -0.06118621
 -0.06124836 -0.06130418 -0.06135369 -0.06139979 -0.06143841 -0.06146609 -0.06147856 -0.0614703 -0.06144152 -0.06139055
 -0.06131941 -0.06122927 -0.06111852 -0.06098757 -0.06083163 -0.06065004 -0.06043855 -0.06019638 -0.05992397 -0.05962116
 -0.05929654 -0.05895092 -0.05859837 -0.05823941 -0.05788469 -0.05753342 -0.05718839 -0.05684803 -0.05650984 -0.05617248
 -0.05583202 -0.05548908 -0.05514153 -0.05479447 -0.05445038 -0.05411678 -0.05379897 -0.05350064 -0.05322497 -0.05297103
 -0.05273909 -0.05252835 -0.05233877 -0.05216961 -0.05202119 -0.05188816 -0.05177034 -0.05165695 -0.05154714 -0.05142635
 -0.05129328 -0.05113213 -0.05094169 -0.05070846 -0.05043279 -0.05010741 -0.0497365 -0.04932157 -0.04887342 -0.04840392
 -0.0479273 -0.04746061 -0.04700957 -0.04658503 -0.04617774 -0.04578736 -0.04540183 -0.04501675 -0.04463012 -0.04424058
 -0.04385082 -0.04346131 -0.04307038 -0.042678 -0.04227967 -0.04187518 -0.04146063 -0.04103656 -0.04060357 -0.04016481
 -0.03973234 -0.03931078 -0.03892019 -0.0385589 -0.03823601 -0.03794058 -0.03766377 -0.03739297 -0.03711402 -0.03682003
 -0.03650187 -0.03616112 -0.03579447 -0.03541277 -0.03501792 -0.03462076 -0.0342252 -0.03382632 -0.03342542 -0.03300136
 -0.032553 -0.03205854 -0.03151738 -0.03091863 -0.03026415 -0.02956006 -0.02881223 -0.02804644 -0.02727018 -0.02651598
 -0.02578906 -0.02511161 -0.02449158 -0.02394411 -0.02348513 -0.02313366 -0.02289973 -0.0228003 -0.02281856 -0.02295776
 -0.0231767 -0.02346773 -0.02378586 -0.02412246 -0.02444392 -0.02474515 -0.02500952 -0.02523543 -0.02542005 -0.02556319
 -0.02566308 -0.02571887 -0.02572279 -0.02567477 -0.02556926 -0.02540919 -0.02519846 -0.02494263 -0.02465203 -0.02433504
 -0.02400473 -0.02367189 -0.02334942 -0.02304723 -0.02277347 -0.02253839 -0.02234582 -0.02221136 -0.02213952 -0.02214363
 -0.02222852 -0.02239061 -0.02263154 -0.02293085 -0.0232876 -0.02367455 -0.02409019 -0.02450653 -0.02492296 -0.02532054
 -0.02570146 -0.02606481 -0.0264131 -0.02675376 -0.02708564 -0.02740913 -0.02772506 -0.02803204 -0.02833887 -0.02865205
 -0.02898105 -0.02933395 -0.02971455 -0.03012526 -0.0305718 -0.03105473 -0.03158545 -0.03216602 -0.03280523 -0.03350473
 -0.03426612 -0.0350899 -0.03596882 -0.03690182 -0.03786637 -0.03885952 -0.03984829 -0.04083049 -0.04177954 -0.04269443
 -0.04355989 -0.04437336 -0.04512278 -0.04580709 -0.04641799 -0.04696175 -0.04743897 -0.04786222 -0.04823742 -0.04858061
 -0.04889835 -0.04920755 -0.04951488 -0.0498278 -0.05015043 -0.05047425 -0.05079898 -0.05111457 -0.05142006 -0.05171692
 -0.05200514 -0.05228555 -0.05255663 -0.05280643 -0.05303336 -0.05322343 -0.05337766 -0.05349138 -0.05356691 -0.05360572
 -0.05361174 -0.05358914 -0.05354548 -0.05348858 -0.05342518 -0.05336291 -0.05330105 -0.05324249 -0.05317958 -0.05311127
 -0.05302851 -0.0529287 -0.05281016 -0.05267105 -0.05252513 -0.05237298 -0.05223457 -0.05211033 -0.0520038 -0.05191295
 -0.05182231 -0.05173086 -0.05162553 -0.05150764 -0.0513753 -0.05122758 -0.05106239 -0.05087728 -0.05066655 -0.0504333
 -0.05017654 -0.04990534 -0.04962493 -0.04934252 -0.0490628 -0.04878823 -0.04852036 -0.04826024 -0.04800811 -0.04776588
 -0.04753385 -0.04731314 -0.047104 -0.04690279 -0.04670922 -0.04651597 -0.04632366 -0.04613285 -0.04594694 -0.04578163
 -0.04563961 -0.04553883 -0.04547499 -0.04545005 -0.04545424 -0.04547545 -0.04550544 -0.04553256 -0.04555118 -0.0455558
 -0.04553868 -0.04549637 -0.04541904 -0.04530247 -0.04514366 -0.04493948 -0.04470136 -0.04442935 -0.04414298 -0.04384385
 -0.04354205 -0.04323767 -0.04292534 -0.04260492 -0.04227161 -0.04192821 -0.0415848 -0.0412444 -0.04092235 -0.04061666
 -0.0403317 -0.04006185 -0.03980131 -0.03954537 -0.03928793 -0.03902486 -0.03875219 -0.03846608 -0.03816237 -0.03784528
 -0.03751247 -0.03718189 -0.03685582 -0.03655373 -0.03627966 -0.03603363 -0.03581671 -0.03560759 -0.03540526 -0.03519049
 -0.03496424 -0.03472682 -0.03448052 -0.03423664 -0.0339954 -0.03376354 -0.03353955 -0.03332403 -0.03311437 -0.03290849
 -0.03270076 -0.03248544 -0.03225743 -0.03200977 -0.03174664 -0.03146689 -0.03118029 -0.03089097 -0.03059895 -0.03030643
 -0.03000203 -0.02968398 -0.02934889 -0.02899563 -0.02864133 -0.02828696 -0.02795395 -0.02764134 -0.02735035 -0.02707707
 -0.02680296 -0.02652659 -0.02623301 -0.02592553 -0.02560429 -0.02527127 -0.02493022 -0.02457955 -0.02421761 -0.02384762
 -0.02346896 -0.02309235 -0.02272248 -0.02236687 -0.02203003 -0.02170985 -0.02140708 -0.02111626 -0.02083704 -0.02056315
 -0.02029438 -0.0200192 -0.01973697 -0.01943475 -0.01911277 -0.01876688 -0.01839982 -0.01802123 -0.01763639 -0.01726614
 -0.01691429 -0.01660097 -0.01632087 -0.01607739 -0.01585749 -0.0156489 -0.0154442 -0.01523278 -0.01501833 -0.01480051
 -0.01458146 -0.01436367 -0.01413922 -0.01390724 -0.0136593 -0.01339341 -0.01311142 -0.0128129 -0.01250936 -0.01220141
 -0.0119021 -0.01161136 -0.01133404 -0.01106895 -0.01081293 -0.01056494 -0.01032103 -0.01007891 -0.009832965 -0.009579032
 -0.00930615 -0.00901942 -0.008714816 -0.00841397 -0.008130387 -0.007879852 -0.007679394 -0.007511335 -0.007377575 -0.007242336
 -0.007096679 -0.006926473 -0.006726198 -0.006512566 -0.006285972 -0.006071033 -0.005868767 -0.005689832 -0.005532675 -0.00538669
 -0.005249117 -0.005099601 -0.00493911 -0.004758955 -0.004563972 -0.004360488 -0.004151457 -0.003943872 -0.003739047 -0.003540524
 -0.003349594 -0.003170428 -0.002995558 -0.002824035 -0.002643431 -0.002445814 -0.002241127 -0.0020265 -0.001834763 -0.001671344
 -0.001548485 -0.001469482 -0.001403409 -0.001348461 -0.001259522 -0.001135561 -0.0009483684 -0.0007010777 -0.0003917766 -2.943282E-05
 0.0003604476 0.0007674983 0.001155577 0.001524104 0.001854642 0.002156283 0.002431741 0.002688624 0.002932992 0.003169932
 0.003402843 0.003636501 0.003874345 0.004113167 0.004353562 0.004587538 0.004812832 0.005034904 0.00525337 0.005485733
 0.005732863 0.006008774 0.00631354 0.006654294 0.007028614 0.007431143 0.007853077 0.008264358 0.008656288 0.008992059
 0.009277088 0.00950085 0.009678793 0.009824225 0.009945055 0.01005166 0.01014513 0.01022766 0.0103022 0.0103711
 0.01043163 0.01048469 0.01052036 0.01053614 0.01053524 0.01051641 0.01050699 0.01050861 0.01056146 0.01066716
 0.01085963 0.01113434 0.0114902 0.01191198 0.01235077 0.012793 0.01318166 0.01352096 0.0137905 0.0140046
 0.01416964 0.01430092 0.014404 0.01451451 0.01464232 0.0148478 0.01516174 0.01558302 0.01613166 0.01670425
 0.01728587 0.01782542 0.01831481 0.01877066 0.01919332 0.01958016 0.0199292 0.02021624 0.02044114 0.02059009
 0.02066604 0.02066925 0.02060732 0.02049377 0.02034268 0.02018415 0.02001925 0.01986705 0.01970339 0.01951676
 0.0192875 0.01899708 0.01865758 0.0182633 0.01785355 0.01743142 0.0170542 0.0167302 0.01650381 0.01638294
 0.01634051 0.01637474 0.01638981 0.01638201 0.01627485 0.01607605 0.01578486 0.01541668 0.01501998 0.01460951
 0.01424257 0.01392375 0.01369291 0.01352567 0.01341778 0.01332555 0.01321202 0.01306032 0.01284897 0.012587
 0.01227232 0.01191695 0.01151627 0.01112017 0.01073024 0.01042984 0.01022942 0.0101394 0.01016014 0.01021479
 0.0103024 0.01038704 0.01047678 0.01060415 0.01076505 0.01096471 0.01119002 0.01140787 0.01162434 0.01183186
 0.01204608 0.01228574 0.01254764 0.01284005 0.01314146 0.0134459 0.01372637 0.01397351 0.01416397 0.01428764
 0.01434839 0.01434154 0.01430597 0.01424425 0.01419401 0.01415729 0.01414758 0.01416463 0.01421098 0.01428355
 0.01436887 0.01445994 0.01452219 0.01455878 0.01455446 0.01452877 0.01450841 0.01450138 0.01453306 0.01458516
 0.01465252 0.01471727 0.01476736 0.01479788 0.01480521 0.01478472 0.01473337 0.01465618 0.01455167 0.0144401
 0.01432347 0.01421133 0.01410429 0.01400559 0.01391714 0.0138646 0.01384967 0.01389911 0.01400563 0.01415987
 0.01435008 0.01454593 0.01473637 0.01489341 0.01500313 0.01503598 0.01499563 0.0148649 0.01468685 0.01447655
 0.01427739 0.01411416 0.01398402 0.01389258 0.01382028 0.01376306 0.01372242 0.01369851 0.01368873 0.01369292
 0.01368586 0.01366666 0.01361672 0.01353775 0.01342982 0.01329577 0.01314351 0.01297898 0.01282037 0.01267072
 0.01254641 0.01243831 0.01233994 0.01225102 0.01216404 0.01209806 0.0120668 0.01206239 0.01209364 0.01211121
 0.01210012 0.01205055 0.0119501 0.01186995 0.01181556 0.01184299 0.01195568</values></Ydata></AB><ScSm><Ydata ylabel="Single channel"><values byteorder="INTEL" format="FLOAT32" numvalues="1814"> 0.07244648 0.07244621 0.07250965 0.07266368 0.072882 0.07309686 0.07324541 0.07331354 0.0733255 0.07329764
 0.07323752 0.07319078 0.07323832 0.07341665 0.07366135 0.07384822 0.07389317 0.07382836 0.07378508 0.07386431
 0.07399864 0.07397284 0.07362729 0.07304353 0.07249117 0.0721787 0.07212289 0.07230946 0.07282712 0.07361668
 0.07419057 0.07398547 0.07307646 0.07220195 0.07194386 0.07216953 0.07238296 0.07229385 0.07190455 0.07139722
 0.07118312 0.07179124 0.07334801 0.07515012 0.07591846 0.07460653 0.07114994 0.06670074 0.06319775 0.06232405
 0.06432185 0.06766163 0.07018917 0.07083961 0.07014409 0.06914239 0.06826867 0.06748393 0.06699253 0.06727754
 0.06843153 0.0697092 0.06991324 0.06841755 0.06591332 0.06391646 0.06338422 0.0641187 0.065584 0.06748876
 0.06895346 0.06804379 0.06368101 0.05804561 0.05559359 0.05881319 0.06556799 0.07119086 0.07263543 0.07017072
 0.06601164 0.06248895 0.06118183 0.06249434 0.06557588 0.06902511 0.07173955 0.07297352 0.0721563 0.06938837
 0.06592059 0.06354597 0.06350328 0.0659968 0.070149 0.07407346 0.07573502 0.0744572 0.07136948 0.06821135
 0.06619048 0.06599198 0.0679433 0.07166821 0.07607146 0.07997854 0.08261323 0.08366889 0.08337085 0.08233536
 0.08110134 0.08004461 0.07970585 0.08045322 0.08160985 0.08171586 0.08011796 0.07784161 0.07653578 0.07677068
 0.07758472 0.0776547 0.07663284 0.07493342 0.07243172 0.06844184 0.06329921 0.05877556 0.05631029 0.05592041
 0.05725411 0.06014359 0.06336509 0.06457852 0.06289064 0.06047586 0.06041529 0.06341211 0.0674364 0.07020248
 0.07128044 0.07193084 0.07347783 0.07595342 0.07793225 0.07761083 0.07460335 0.07094111 0.06963259 0.07170914
 0.07523434 0.07768081 0.07858907 0.07927507 0.08053169 0.08139881 0.08016598 0.07640807 0.07207209 0.07027198
 0.07257424 0.07742541 0.08128092 0.08123246 0.07696497 0.07081112 0.06592914 0.06412251 0.0653694 0.06903093
 0.07454663 0.08080027 0.08583546 0.087956 0.08696374 0.08405219 0.0804477 0.07628249 0.07124478 0.06645302
 0.0646755 0.06770773 0.07407131 0.08024813 0.08381723 0.08465604 0.08356892 0.0807936 0.07622871 0.07086903
 0.06726897 0.06755485 0.07085903 0.07381868 0.07409725 0.07251032 0.07128315 0.07128024 0.07169716 0.07176881
 0.07185755 0.0728282 0.07480536 0.07685816 0.07790345 0.07769023 0.07682847 0.07607701 0.07565952 0.07511218
 0.07393804 0.07260367 0.07247706 0.07432944 0.07727332 0.07967713 0.08080042 0.08105299 0.08090337 0.08005968
 0.07790187 0.074659 0.07187779 0.07127289 0.07306933 0.07586864 0.07810298 0.07915756 0.07921454 0.07868553
 0.07793307 0.07715211 0.07643516 0.07603094 0.07627697 0.07711817 0.07800376 0.07844166 0.07839811 0.07805192
 0.07744971 0.07657306 0.07557917 0.07480758 0.07453984 0.0747885 0.07533392 0.07592116 0.07635043 0.07644434
 0.07611445 0.07549009 0.0748357 0.07431214 0.07393071 0.07371577 0.07374568 0.07400209 0.07430884 0.07448022
 0.07446548 0.07431903 0.07409192 0.07379628 0.07344791 0.07310802 0.0728751 0.07281601 0.07288679 0.07296045
 0.0729725 0.0729876 0.07306217 0.07310589 0.0729752 0.07266863 0.07233866 0.072125 0.07204295 0.07202116
 0.07197851 0.07184359 0.07155266 0.0711035 0.07062709 0.07034002 0.07037394 0.07067932 0.07110672 0.07151656
 0.0718001 0.07189548 0.07183588 0.07171755 0.07158761 0.07141122 0.07116088 0.07089731 0.0707482 0.07081077
 0.0710618 0.07136793 0.07159779 0.07170679 0.0717192 0.07168941 0.07169069 0.07176465 0.07185504 0.07185552
 0.07174487 0.0716228 0.07159539 0.07166126 0.07172424 0.07170325 0.07162116 0.07157855 0.07164095 0.07177578
 0.07190832 0.07200855 0.0721029 0.07221687 0.07232181 0.07234697 0.07225819 0.07211491 0.07201625 0.07199748
 0.07202179 0.07206637 0.07215872 0.07231466 0.07248659 0.07260326 0.07264608 0.07266307 0.07270399 0.07275646
 0.07276336 0.07269734 0.07259567 0.07252002 0.07250267 0.07253593 0.07259196 0.07264154 0.0726639 0.07265159
 0.07260945 0.07254725 0.07247211 0.07239445 0.07234342 0.07235958 0.07245053 0.07255787 0.0725919 0.07251116
 0.07236126 0.07222995 0.07216519 0.07214013 0.07209592 0.07200761 0.07189988 0.07180892 0.07174822 0.07170853
 0.07167169 0.07162367 0.07157476 0.07157073 0.07165978 0.07183141 0.07200302 0.07208771 0.07207178 0.07201412
 0.0719801 0.0719934 0.07204212 0.07210925 0.07219446 0.07231286 0.07246558 0.07261433 0.07270965 0.07274918
 0.0727841 0.07286542 0.07300813 0.07320279 0.07342283 0.07361974 0.07375224 0.07383404 0.07392368 0.07405804
 0.07421948 0.07437521 0.07452179 0.07467734 0.07485124 0.0750431 0.07526234 0.075528 0.07584547 0.07619078
 0.07651928 0.07679203 0.07700665 0.07720986 0.07746828 0.0778137 0.07821628 0.07861371 0.07896462 0.0792748
 0.07957705 0.07989027 0.08020608 0.08052 0.08085866 0.08125418 0.0816973 0.08214109 0.08255166 0.08293578
 0.08331833 0.08371241 0.08411749 0.08453414 0.0849704 0.08543035 0.085898 0.08633992 0.08673268 0.08708553
 0.08743225 0.08780581 0.08821988 0.08865739 0.0890698 0.08941031 0.0896879 0.08997207 0.09031999 0.09071034
 0.09107584 0.09139386 0.09171149 0.09207718 0.0924807 0.09287691 0.09324624 0.09360898 0.09398773 0.0943727
 0.09472521 0.09501156 0.09523626 0.09544195 0.09567308 0.09594682 0.09626634 0.0966434 0.09708174 0.09754536
 0.09797151 0.09831778 0.09858279 0.09879211 0.09898447 0.09919992 0.09945528 0.09973329 0.1000062 0.1002561
 0.1004684 0.1006372 0.100793 0.100994 0.1012683 0.1015894 0.1019281 0.102295 0.1027042 0.1031262
 0.1035198 0.1038984 0.1043161 0.1047807 0.1052223 0.1055667 0.1058099 0.1059968 0.1061623 0.1063317
 0.1065513 0.1068682 0.1072787 0.1077289 0.1081694 0.1085876 0.1089884 0.1093671 0.1097058 0.1099869
 0.1102062 0.1103781 0.1105296 0.1106935 0.1109007 0.1111643 0.1114611 0.1117396 0.1119528 0.1120771
 0.1121 0.112016 0.1118507 0.111668 0.1115209 0.111393 0.1112066 0.1108898 0.1104228 0.1098231
 0.1091108 0.1083057 0.1074493 0.1066157 0.1058934 0.105356 0.1050495 0.1050043 0.1052434 0.1057592
 0.1064793 0.1072727 0.1079981 0.1085407 0.1088117 0.1087502 0.1083545 0.1077008 0.1069078 0.1060816
 0.1052904 0.1045642 0.1038986 0.1032796 0.102733 0.102353 0.1022694 0.1025958 0.1034106 0.1047541
 0.1065906 0.1087605 0.1110053 0.113079 0.1148541 0.1163332 0.1175878 0.1187018 0.1197437 0.120744
 0.1216854 0.1225336 0.1232832 0.1239594 0.1245795 0.125131 0.125587 0.125931 0.12617 0.1263362
 0.1264705 0.1265976 0.1267222 0.1268512 0.127 0.1271646 0.1272989 0.1273317 0.1272071 0.1269115
 0.12648 0.1259982 0.1256214 0.1255899 0.1261732 0.1275212 0.12953 0.1318688 0.1341585 0.1361397
 0.1377175 0.1389185 0.1398355 0.1405791 0.1412355 0.1418478 0.1424287 0.1429811 0.1435094 0.1440209
 0.1445231 0.1450212 0.1455209 0.1460256 0.1465265 0.1470027 0.1474428 0.1478629 0.1482973 0.1487678
 0.1492633 0.1497521 0.1502167 0.1506716 0.1511372 0.1516027 0.1520345 0.1524188 0.1527787 0.1531499
 0.1535556 0.1539973 0.1544523 0.1548824 0.1552618 0.1555979 0.1559187 0.156247 0.1565909 0.1569487
 0.1573148 0.1576814 0.1580414 0.1583955 0.158755 0.1591288 0.1595028 0.1598446 0.1601374 0.1604026
 0.1606791 0.1609853 0.1613092 0.161631 0.1619482 0.1622799 0.1626456 0.1630393 0.1634261 0.1637695
 0.1640623 0.1643291 0.1646028 0.1648999 0.1652175 0.1655452 0.1658748 0.1662017 0.1665251 0.16685
 0.1671819 0.1675181 0.1678489 0.1681691 0.1684848 0.1688067 0.1691395 0.1694769 0.1698101 0.1701407
 0.1704829 0.1708446 0.1712096 0.1715482 0.1718468 0.1721164 0.1723765 0.1726402 0.1729157 0.1732097
 0.1735229 0.1738474 0.1741728 0.1744946 0.174814 0.175133 0.1754513 0.1757673 0.17608 0.1763901
 0.1767006 0.1770167 0.1773419 0.1776728 0.1780008 0.1783183 0.1786228 0.1789186 0.179215 0.1795182
 0.1798244 0.1801248 0.180418 0.1807113 0.1810113 0.181319 0.1816317 0.1819429 0.1822429 0.1825299
 0.1828147 0.1831106 0.1834191 0.1837316 0.1840413 0.1843489 0.1846564 0.1849601 0.1852537 0.1855389
 0.1858262 0.1861236 0.1864295 0.1867367 0.1870398 0.1873365 0.187627 0.1879128 0.1881959 0.1884804
 0.1887719 0.1890712 0.189372 0.1896693 0.1899648 0.1902618 0.1905593 0.1908542 0.1911446 0.1914328
 0.1917274 0.1920367 0.1923549 0.1926668 0.1929662 0.1932618 0.193562 0.1938674 0.1941755 0.194484
 0.1947897 0.1950916 0.1953921 0.1956947 0.1960011 0.1963086 0.1966103 0.1969031 0.1971918 0.1974804
 0.1977641 0.1980368 0.1983009 0.1985635 0.198833 0.1991172 0.1994167 0.1997227 0.2000272 0.200331
 0.2006356 0.2009379 0.2012367 0.2015337 0.2018312 0.2021333 0.2024417 0.2027507 0.2030545 0.2033572
 0.203665 0.2039762 0.2042885 0.2046039 0.2049188 0.2052247 0.2055205 0.2058123 0.2061053 0.2064043
 0.2067121 0.2070226 0.2073292 0.2076356 0.2079471 0.2082586 0.2085647 0.208867 0.2091677 0.2094675
 0.2097682 0.2100658 0.2103518 0.2106301 0.2109134 0.2112058 0.2115047 0.2118134 0.2121308 0.2124475
 0.2127621 0.2130809 0.2134008 0.213715 0.2140264 0.2143344 0.2146289 0.2149088 0.2151798 0.2154267
 0.2155968 0.2155589 0.2149891 0.2132404 0.2093198 0.2020799 0.1906731 0.1750819 0.156308 0.136013
 0.1159064 0.09730595 0.08100709 0.06737051 0.05648065 0.04825856 0.04253925 0.03918585 0.03820219 0.03985497
 0.04481466 0.05375818 0.0658657 0.07749971 0.08363058 0.08180845 0.07450219 0.06684957 0.0623979 0.06139988
 0.06233962 0.06391491 0.06570797 0.0679561 0.07106932 0.0751588 0.08001897 0.08563553 0.09243093 0.1007221
 0.1100747 0.1194907 0.1282732 0.136568 0.1450126 0.1539567 0.1630938 0.1717673 0.1794903 0.1861776
 0.1920361 0.1973429 0.2022941 0.2069799 0.211439 0.215662 0.2195054 0.2226519 0.2247615 0.2257295
 0.2258139 0.225494 0.2251908 0.2251032 0.2252528 0.2256066 0.2261352 0.2268136 0.2276189 0.2285258
 0.2294975 0.2304921 0.2314819 0.2324515 0.2333867 0.2342736 0.2351014 0.2358619 0.2365512 0.2371758
 0.2377482 0.2382802 0.2387808 0.2392549 0.2397046 0.2401356 0.240557 0.24097 0.2413626 0.2417221
 0.2420456 0.2423409 0.242622 0.2429014 0.243181 0.243456 0.2437285 0.2440067 0.2442912 0.2445743
 0.2448516 0.2451255 0.2454004 0.2456797 0.2459621 0.246238 0.2464987 0.2467485 0.247 0.2472606
 0.2475315 0.2478128 0.2481005 0.2483846 0.2486572 0.2489188 0.2491742 0.2494297 0.2496921 0.2499624
 0.2502383 0.2505232 0.2508249 0.2511398 0.2514546 0.2517613 0.2520599 0.2523503 0.2526354 0.2529228
 0.2532099 0.2534778 0.2537126 0.2539278 0.2541604 0.2544415 0.2547669 0.2551001 0.2554091 0.2556954
 0.255977 0.2562585 0.2565292 0.2567794 0.2570162 0.2572704 0.2575758 0.2579283 0.2582861 0.2586229
 0.2589506 0.2592833 0.2596172 0.2599511 0.2602817 0.260579 0.2608082 0.26099 0.2612106 0.2615551
 0.2620267 0.2625348 0.2629747 0.2633176 0.2636113 0.2639187 0.2642789 0.2646726 0.2649853 0.2650879
 0.2650299 0.2650766 0.2654608 0.2661491 0.2669097 0.2675514 0.2680377 0.2684264 0.2687702 0.2690652
 0.2692622 0.2693299 0.2693364 0.2694618 0.269871 0.2705396 0.2712577 0.2718391 0.2722617 0.272586
 0.2728533 0.2730896 0.2732609 0.2731986 0.2727759 0.2722372 0.2721422 0.2728252 0.274018 0.275137
 0.2758625 0.276306 0.2766854 0.2770521 0.2773528 0.2774773 0.277132 0.276011 0.2743986 0.2733292
 0.2737305 0.2754896 0.2776344 0.2793007 0.2802728 0.2807705 0.2810773 0.2813504 0.2815011 0.2812061
 0.280272 0.2791077 0.2786141 0.2793479 0.2808934 0.2823069 0.2830801 0.2834055 0.2836657 0.2840075
 0.2842434 0.2838067 0.282078 0.2793022 0.2770387 0.2770597 0.2796169 0.2831388 0.2857905 0.2870491
 0.2875404 0.2876795 0.2870578 0.2851718 0.282174 0.278797 0.2761284 0.2754743 0.2774965 0.2811188
 0.2841328 0.2853786 0.2857279 0.2866369 0.2884014 0.2901587 0.2910151 0.2907448 0.2896274 0.2879472
 0.2858608 0.2838673 0.2830828 0.2844416 0.2875604 0.2908822 0.293117 0.2942171 0.2946957 0.2941174
 0.2907998 0.2838421 0.2756546 0.2712855 0.2739602 0.2817037 0.2894588 0.294054 0.2959324 0.2967796
 0.2972741 0.2968974 0.2942286 0.287719 0.2781274 0.2700536 0.2688236 0.2752166 0.2845836 0.291191
 0.2921323 0.2876327 0.2800126 0.2729955 0.2701916 0.2729071 0.2795709 0.2872843 0.293565 0.2970275
 0.2973605 0.2951861 0.2920104 0.2898626 0.2898273 0.2904344 0.2887703 0.2841581 0.2792838 0.2762476
 0.2733127 0.2681232 0.262886 0.262899 0.2696633 0.2783697 0.2833048 0.2836376 0.2823702 0.2808769
 0.2765523 0.2665677 0.2532306 0.2440552 0.2451827 0.2550194 0.2656743 0.2706826 0.2701339 0.268343
 0.2680866 0.2677811 0.2637295 0.2549473 0.24558 0.2414177 0.2437392 0.2481613 0.2498191 0.2472605
 0.2407393 0.2306169 0.2201149 0.2163221 0.2241948 0.2404645 0.2562197 0.2642684 0.2617682 0.2485803
 0.2281954 0.20977 0.2036784 0.2122382 0.2268995 0.2361209 0.2345334 0.223866 0.2079723 0.1901864
 0.174843 0.1677447 0.1726568 0.1874632 0.2043445 0.2137251 0.2095506 0.1939363 0.1774434 0.1714813
 0.1780033 0.1882377 0.1925431 0.1891511 0.1827551 0.1784033 0.1785574 0.1827917 0.1882814 0.1924062
 0.194825 0.1945924 0.1873505 0.1706009 0.1507657 0.1389719 0.1394706 0.1474378 0.1579065 0.1702095
 0.1822364 0.187392 0.1820556 0.1724881 0.169515 0.1770305 0.1886552 0.1955265 0.1950512 0.1913581
 0.1888706 0.1875808 0.1852811 0.1826786 0.1835726 0.1896135 0.1974229 0.2023594 0.2033486 0.2024774
 0.2014553 0.2003287 0.1986774 0.1963701 0.1934699 0.1903427 0.187557 0.1852365 0.1829516 0.1803831
 0.1773102 0.1726896 0.1649255 0.1542319 0.1440602 0.1384206 0.1377047 0.1389424 0.1401575 0.1415466
 0.1414837 0.1353412 0.1216325 0.1070724 0.101707 0.1092337 0.1242585 0.1383905 0.146556 0.1474048
 0.1409257 0.1289504 0.1175551 0.1151427 0.1255443 0.1443361 0.1636218 0.1788282 0.1891562 0.1938418
 0.1915937 0.1836066 0.1746927 0.1705611 0.1743877 0.1853635 0.1988674 0.2075814 0.2050819 0.1922991
 0.1804883 0.1829236 0.2008668 0.2213545 0.2317718 0.2326827 0.2326082 0.2347985 0.2356463 0.2340793
 0.2352962 0.2435891 0.2559751 0.2651191 0.2657715 0.2568356 0.2406452 0.2234316 0.2137065 0.2154983
 0.2238594 0.2303163 0.2311159 0.2267185 0.216733 0.201962 0.1897363 0.1895072 0.2018233 0.217034
 0.2262573 0.2294623 0.2314589 0.2336348 0.2323502 0.2245346 0.2128239 0.2039201 0.2019616 0.2049059
 0.2079778 0.2087122 0.2070454 0.2025062 0.1944986 0.1852753 0.1799408 0.1820649 0.1900672 0.1987751
 0.2041161 0.2057008 0.2055181 0.2053984 0.2057678 0.2058643 0.2050721 0.2046366 0.207406 0.2146688
 0.2239124 0.2313263 0.2361548 0.2409212 0.24746 0.254321 0.2584622 0.2585405 0.2562251 0.2548233
 0.2566885 0.2613604 0.2658934 0.2673761 0.2656996 0.2638886 0.2652778 0.2703 0.2764239 0.2810292
 0.2835498 0.2849159 0.286002 0.2868953 0.2868665 0.2849492 0.281386 0.2784771 0.2789686 0.2833244
 0.289262 0.2940701 0.2967552 0.297894 0.298187 0.2976944 0.2962642 0.2942282 0.2924103 0.2914935
 0.291557 0.2922418 0.2931558 0.2940346 0.2947225 0.2951837 0.2954918 0.2957427 0.2960133 0.2963819
 0.2968803 0.2974156 0.2978462 0.2981738 0.2985715 0.299162 0.2998417 0.3003882 0.3006666 0.3006278
 0.3001812 0.2992293 0.2978262 0.2961549 0.2943106 0.2922475 0.2900567 0.2882396 0.2875458 0.2884257
 0.2906281 0.2933601 0.2958273 0.2976278 0.298746 0.2993487 0.2996364 0.2997813 0.2998857 0.2999686
 0.2999989 0.2999446 0.2997934 0.2995488 0.2992347 0.2989078 0.2986422 0.2984778 0.2983807 0.2982662
 0.2980598 0.297738 0.2973309 0.296893 0.2964541 0.2959845 0.2954111 0.2946726 0.2937681 0.2927625
 0.2917548 0.2908264 0.2899973 0.2892186 0.2884138 0.2875243 0.2865084 0.285315 0.2839149 0.2823799
 0.2808784 0.2795457 0.2783762 0.2772635 0.2761057 0.2748456 0.2734594 0.2719564 0.2703774 0.268764
 0.2671346 0.2654907 0.2638277 0.2621351 0.2604 0.2586107 0.2567529 0.2548128 0.2527913 0.2507016
 0.24853 0.2461964 0.2435702 0.2405253 0.2369688 0.2328282 0.2280645 0.2227333 0.2170148 0.2111585
 0.2053961 0.199898 0.1947846 0.1901579 0.1861254 0.1827922 0.1802298 0.1784593 0.1774673 0.1772301
 0.1777221 0.178907 0.1807128 0.1830112 0.1856266 0.1883642 0.1910316 0.1934658 0.1955909 0.1974606
 0.1992218 0.2010086 0.2028635 0.2047473 0.2066011 0.2083745 0.2100038 0.2114099 0.2125449 0.2134212
 0.2140784 0.2145424 0.2148304 0.2149714 0.2150038 0.2149645 0.2148907 0.2148281 0.2148336 0.2149661
 0.2152641 0.2157307 0.2163409 0.2170589 0.2178485 0.2186858 0.2195633 0.2204759 0.2214092 0.2223552
 0.22333 0.2243708 0.2255355 0.2269023 0.2285446 0.2304925 0.2327223 0.235164 0.2377027 0.2401903
 0.2424805 0.2444578 0.2460486 0.2472306 0.248037 0.2485391 0.2488181 0.2489424 0.2489535 0.2488692
 0.2487004 0.2484518 0.2481089 0.2476474 0.2470612 0.2463679 0.2455928 0.2447665 0.2439265 0.2430983
 0.2422805 0.2414583 0.2406269 0.2397997 0.2389989 0.2382336 0.2374833 0.236715 0.2359139 0.235084
 0.2342249 0.2333221 0.2323501 0.2312795 0.2300922 0.228795 0.2274053 0.2259273 0.2243571 0.2227003
 0.2209724 0.2191905 0.2173767 0.2155567 0.2137404 0.2118986 0.2099597 0.2078487 0.205552 0.2031486
 0.2007638 0.1984924 0.1963658 0.1943653 0.1924536 0.1906086 0.1888383 0.1871589 0.185567 0.1840475
 0.1825936 0.1812014 0.1798625 0.1785784 0.1773736 0.1762823 0.1753241 0.1744918 0.1737555 0.1730851
 0.172468 0.1719109 0.1714349 0.171071 0.1708352 0.1706943 0.1705725 0.1703976 0.1701326 0.1697783
 0.1693708 0.1689667 0.1686062 0.1682888 0.1679882 0.1676674 0.1672689 0.166706 0.1658814 0.1647236
 0.1632189 0.1614155 0.1593968 0.1572646 0.1551456 0.1531723 0.1514355 0.149973 0.148801 0.1479112
 0.1472392 0.1466858 0.1461967 0.1458105 0.1456144 0.1456337 0.1457556 0.1457963 0.1456746 0.1454981
 0.1454604 0.1456822 0.1461522 0.1467615 0.1473703 0.1478787 0.1482532 0.1484943 0.1486085 0.1486151
 0.1485347 0.1483652 0.1481022 0.1477706 0.1474035 0.1470056 0.1465567 0.1460305 0.1454078 0.1446939
 0.1439078 0.143049 0.142105 0.1410818 0.1399776 0.1387632 0.1374707 0.1362777 0.1354372 0.135124
 0.1353486 0.1359703 0.1367965 0.1376998 0.1385868 0.1392533 0.1394571 0.1392851 0.1393148 0.140192
 0.1420182 0.144242 0.1461467 0.1473518 0.1478503 0.1477502 0.147136 0.1460782 0.1445965 0.1426436
 0.1402237 0.137457 0.1344857 0.1314429 0.1285157 0.1258843 0.1236173 0.121718 0.1201924 0.1191007
 0.1185828 0.1182776 0.1163545 0.1104686 0.1013483 0.09441561 0.09524024 0.1032898 0.1122937 0.1168907
 0.1169204 0.1152314 0.1137916 0.1128929 0.1124226 0.1125059 0.1132697 0.1145921 0.1160999 0.1173799
 0.1182359 0.1186726 0.1186333 0.1177967 0.1155175 0.111019 0.1040168 0.09531505 0.08655642 0.07926361
 0.07415108 0.07112844 0.06961561 0.06888883 0.06844521 0.06822823 0.0685179 0.06959456 0.07149891 0.07407602
 0.07714009 0.0804634 0.08365729 0.08630417 0.08828524 0.08980997 0.09107074 0.09202172 0.09252246 0.09254116
 0.09217263 0.09156087 0.09083778 0.09007165 0.08923037 0.08821972 0.0870256 0.08583855 0.08495544 0.08450916
 0.08437458 0.08436297 0.08438762 0.08441867 0.08442107 0.08438471 0.0843323 0.08430381 0.08437899 0.08464104
 0.08506365 0.0855049 0.08584088 0.08605139 0.08617955 0.08622734 0.08607071 0.08555555 0.08477199 0.08407633
 0.08364037 0.08314453 0.08219555 0.080936 0.07996012 0.07967249 0.07993807 0.0803198 0.08047304 0.08032216
 0.08004265 0.07995249 0.08028472 0.08091685</values></Ydata></ScSm><ScRf><Ydata ylabel="Single channel"><values byteorder="INTEL" format="FLOAT32" numvalues="1820"> 0.06046587 0.06063026 0.06072615 0.06075554 0.06074544 0.06074627 0.06081311 0.06096864 0.06118032 0.06137795
 0.06150379 0.06155187 0.06155103 0.0615175 0.06145465 0.06139938 0.06142398 0.06156629 0.06177604 0.06194596
 0.06199779 0.06195246 0.06191996 0.06198898 0.06210589 0.06208998 0.06180483 0.06131479 0.06084307 0.06056617
 0.06050415 0.0606513 0.06108651 0.06176225 0.06226522 0.0621102 0.06134781 0.06059743 0.06035902 0.06053284
 0.0607052 0.06062812 0.06030001 0.05987479 0.05970027 0.06021941 0.06153404 0.06305169 0.06369959 0.06259739
 0.05968424 0.05592385 0.05295239 0.05219929 0.05387803 0.05669972 0.05884229 0.05940404 0.05883488 0.05801483
 0.05730595 0.05666224 0.0562439 0.05645987 0.05740359 0.05846128 0.05862478 0.05735826 0.05524006 0.05355143
 0.05310361 0.05372932 0.05497328 0.05658829 0.05783366 0.05707613 0.05339703 0.0486284 0.04653848 0.04925025
 0.05497517 0.05976097 0.06100706 0.05892549 0.05539896 0.05241967 0.05132952 0.05245471 0.05505797 0.0579554
 0.06023193 0.06126947 0.06058338 0.05825075 0.05532617 0.05332655 0.05329838 0.05541098 0.05892039 0.06223362
 0.06363425 0.06255339 0.05994544 0.05727758 0.05556689 0.05539263 0.0570378 0.0601911 0.06392653 0.06724489
 0.06948462 0.07038564 0.07014132 0.06927789 0.06825393 0.06738113 0.06710453 0.06772982 0.06869207 0.06876954
 0.06741703 0.06549977 0.06440501 0.06460866 0.06529632 0.06535151 0.0644843 0.06304981 0.06094417 0.05758266
 0.05324371 0.04942655 0.04735025 0.04702546 0.04815447 0.05060784 0.05336149 0.05442632 0.05302352 0.05098157
 0.05091789 0.05344425 0.05684852 0.05918993 0.06009867 0.06064636 0.06196564 0.06408992 0.06580406 0.06556166
 0.06302158 0.05991083 0.05880188 0.06058583 0.06361577 0.06573191 0.06653772 0.06715645 0.06826872 0.06905746
 0.06806038 0.06490858 0.0612568 0.05975703 0.06174728 0.06591439 0.06924838 0.06926563 0.06567913 0.060468
 0.05633612 0.05483954 0.05597229 0.05919854 0.06404682 0.06956144 0.07405414 0.07604437 0.07532953 0.07291815
 0.06987504 0.06633049 0.06202114 0.0579254 0.05647279 0.05925117 0.06497492 0.07055502 0.07385518 0.07475765
 0.07395966 0.07165156 0.06772287 0.06305857 0.05996499 0.06037578 0.06352443 0.06637911 0.06681678 0.06555721
 0.06460918 0.0647652 0.06530255 0.06552512 0.0657669 0.06683097 0.06884201 0.07094227 0.07211828 0.07211742
 0.07149486 0.0709665 0.070758 0.07043929 0.06953888 0.06849657 0.06860656 0.07059386 0.07360756 0.07609221
 0.07734665 0.07777448 0.07783465 0.07723896 0.07536604 0.07242263 0.06992054 0.069554 0.07155925 0.07456326
 0.07700952 0.07828024 0.07855697 0.07825467 0.07773653 0.07719843 0.07673528 0.07659276 0.07710081 0.07819895
 0.07933266 0.08000717 0.08019042 0.08006277 0.07966547 0.07897776 0.07817121 0.07760715 0.077575 0.07807699
 0.07887849 0.07971606 0.08038585 0.08070169 0.08056334 0.08010453 0.07961749 0.07928789 0.07912475 0.0791386
 0.07940686 0.07991298 0.08046573 0.0808576 0.08103074 0.08104873 0.08097606 0.08083453 0.08064286 0.08046319
 0.08040172 0.08053426 0.08080989 0.08108141 0.08127615 0.08147185 0.08173676 0.08197014 0.08200541 0.08183142
 0.08161398 0.08151431 0.08156 0.08168168 0.08179426 0.08181088 0.08164176 0.08127312 0.08086048 0.0806642
 0.08084261 0.08134329 0.08199641 0.08263395 0.08311674 0.08336592 0.08342157 0.08339848 0.08335252 0.08324367
 0.0830414 0.08281985 0.08273269 0.08289766 0.08329263 0.08376667 0.08416148 0.08440681 0.08451694 0.08456461
 0.08465803 0.08485243 0.08506253 0.0851421 0.08506969 0.08498505 0.0850213 0.085156 0.08525313 0.08522545
 0.08513273 0.08511591 0.08524542 0.08545852 0.08564976 0.08579145 0.08594383 0.08615677 0.086376 0.08646705
 0.08635652 0.08613308 0.08596154 0.08590938 0.08592233 0.08596091 0.08606981 0.08627982 0.08651438 0.08665562
 0.08667916 0.08667377 0.08672406 0.08680749 0.08682571 0.08671948 0.08653004 0.086357 0.08627884 0.08630819
 0.08639672 0.08647135 0.08647877 0.08641196 0.0863025 0.08618964 0.08609713 0.08604379 0.08606967 0.08622082
 0.08647729 0.08671052 0.0867594 0.08657499 0.08627712 0.0860495 0.08597691 0.08598813 0.08594805 0.08578881
 0.08554895 0.0853103 0.08512309 0.08498764 0.08488036 0.08478646 0.0847237 0.08474047 0.08486547 0.08504086
 0.08513093 0.08503383 0.08478105 0.0845035 0.08431196 0.08423032 0.08421776 0.08421892 0.08420876 0.08421592
 0.08428077 0.08437693 0.08441639 0.0843545 0.08424804 0.08419245 0.08424434 0.08440673 0.08462723 0.08479803
 0.08482455 0.08472271 0.08460775 0.08457394 0.084621 0.08470087 0.08478817 0.0848853 0.08499216 0.08510253
 0.08522396 0.08538231 0.0855989 0.08586122 0.08611676 0.08630477 0.08640948 0.08648631 0.08662358 0.08686772
 0.08718545 0.08749884 0.08775356 0.0879547 0.08814205 0.08833779 0.08852986 0.0887121 0.08891937 0.08919428
 0.08952786 0.08986455 0.09016568 0.09044192 0.09072229 0.09101649 0.09131748 0.09163017 0.09198459 0.09240603
 0.09286145 0.09325476 0.09350456 0.0936272 0.09372856 0.0939203 0.09424384 0.09464145 0.09498464 0.09517227
 0.09523535 0.09531604 0.09551423 0.09578909 0.09604686 0.09628572 0.09659497 0.09702138 0.09748988 0.09787194
 0.09810829 0.09825219 0.09840196 0.09859833 0.09879241 0.09891827 0.09898177 0.0990525 0.09917759 0.0993479
 0.09955764 0.09984298 0.1002247 0.100648 0.1010218 0.1013006 0.1014991 0.101649 0.1017714 0.1018736
 0.1019472 0.1019855 0.1020148 0.1020774 0.1021709 0.1022412 0.102257 0.1022594 0.1023148 0.1024515
 0.102666 0.1029525 0.1032864 0.1036068 0.1038697 0.1041154 0.1044284 0.1048117 0.1051501 0.1053342
 0.1053835 0.1054005 0.1054394 0.1054853 0.1055441 0.1056735 0.1059124 0.1062312 0.1065749 0.1069178
 0.1072628 0.1076066 0.1079208 0.1081572 0.108277 0.1082867 0.1082502 0.1082591 0.1083843 0.1086376
 0.1089671 0.1092936 0.109561 0.1097487 0.1098423 0.1098318 0.1097582 0.1097282 0.1098302 0.1100322
 0.1101945 0.1101882 0.1099818 0.109612 0.1091136 0.1085057 0.1078308 0.1071722 0.1066187 0.1062211
 0.105993 0.1059525 0.1061404 0.1065778 0.1072086 0.1079101 0.1085643 0.109091 0.1094107 0.1094303
 0.1091087 0.1085148 0.107788 0.1070516 0.1063734 0.105768 0.1052039 0.1046414 0.1041136 0.1037685
 0.1038021 0.1043418 0.1053822 0.1067896 0.1083457 0.1098175 0.1110489 0.1120174 0.1128042 0.1135045
 0.114169 0.1148202 0.1154826 0.1161615 0.1168103 0.1173661 0.1178231 0.1182356 0.1186479 0.1190493
 0.1193998 0.1196754 0.1198899 0.1200872 0.1203001 0.1205012 0.1206166 0.1206064 0.1205085 0.1203866
 0.1202581 0.1200868 0.1198258 0.1194561 0.1190169 0.1186249 0.1184558 0.1186723 0.1193352 0.1203672
 0.1216079 0.1229132 0.1241925 0.1253628 0.1263195 0.1269947 0.1274228 0.1277142 0.1279718 0.1282457
 0.1285451 0.1288611 0.1291779 0.1294823 0.1297712 0.1300552 0.1303566 0.13069 0.1310373 0.1313522
 0.1316072 0.1318316 0.1320909 0.1324243 0.1328042 0.1331652 0.133477 0.1337724 0.1340904 0.1344101
 0.1346734 0.1348655 0.1350368 0.1352507 0.135537 0.135889 0.1362661 0.1366017 0.1368447 0.1370071
 0.1371516 0.1373304 0.1375509 0.1377968 0.1380558 0.1383215 0.1385864 0.1388504 0.1391295 0.1394342
 0.1397387 0.1399896 0.1401608 0.1402881 0.1404366 0.1406372 0.1408647 0.1410749 0.1412573 0.1414503
 0.1417029 0.1420192 0.1423438 0.1426071 0.1427829 0.1429016 0.1430164 0.1431646 0.1433532 0.143569
 0.1437933 0.1440119 0.1442194 0.1444215 0.1446292 0.1448481 0.1450715 0.145288 0.1454938 0.1456949
 0.1458989 0.1461089 0.1463288 0.1465709 0.1468488 0.1471544 0.1474496 0.147692 0.147868 0.1479973
 0.1481107 0.1482347 0.1483859 0.1485674 0.1487681 0.1489734 0.1491757 0.1493752 0.1495737 0.1497718
 0.149971 0.1501732 0.1503796 0.1505903 0.1508065 0.1510308 0.1512623 0.1514919 0.151708 0.1519056
 0.152091 0.1522771 0.1524736 0.1526781 0.1528758 0.1530567 0.1532292 0.1534121 0.1536132 0.1538227
 0.1540273 0.1542223 0.1544126 0.1546039 0.1547973 0.1549912 0.1551865 0.1553858 0.1555882 0.155789
 0.1559861 0.1561792 0.1563666 0.156547 0.1567252 0.1569114 0.1571135 0.157331 0.1575556 0.1577757
 0.1579836 0.1581783 0.1583636 0.1585453 0.158728 0.1589119 0.1590959 0.1592841 0.1594846 0.1596978
 0.1599154 0.1601299 0.1603373 0.1605362 0.1607305 0.1609324 0.1611507 0.1613801 0.1616064 0.1618203
 0.1620246 0.1622312 0.1624491 0.162676 0.1629012 0.1631179 0.1633274 0.1635345 0.1637403 0.1639405
 0.1641288 0.1643062 0.164482 0.1646616 0.1648398 0.1650122 0.1651821 0.1653544 0.1655294 0.1657075
 0.1658897 0.1660756 0.1662663 0.1664656 0.1666742 0.1668897 0.167111 0.1673354 0.1675545 0.1677617
 0.1679599 0.1681573 0.1683605 0.1685708 0.1687821 0.1689862 0.1691837 0.1693825 0.169586 0.1697923
 0.170001 0.1702121 0.1704223 0.170632 0.1708456 0.1710624 0.1712768 0.171487 0.1716947 0.1719021
 0.1721126 0.1723263 0.1725352 0.1727339 0.1729299 0.173132 0.1733406 0.173554 0.1737705 0.1739824
 0.1741851 0.1743882 0.1746028 0.1748284 0.1750582 0.1752851 0.1755023 0.1757123 0.1759261 0.1761449
 0.1763592 0.1765697 0.176783 0.1769825 0.1771147 0.1770615 0.1765524 0.1750595 0.1717752 0.1657645
 0.1563322 0.143458 0.1279598 0.11121 0.09462775 0.07930276 0.06588204 0.05465395 0.04568919 0.0389268
 0.03422667 0.03146579 0.0306439 0.03198666 0.03604852 0.04337882 0.05329927 0.06283262 0.06786424 0.06638496
 0.06041048 0.05414613 0.05049642 0.04966642 0.05041739 0.0516917 0.05315286 0.05499301 0.05754393 0.0608953
 0.06487738 0.06947641 0.07503833 0.08182484 0.08948186 0.09719008 0.1043743 0.1111535 0.1180592 0.1253898
 0.1328945 0.1400208 0.1463558 0.1518286 0.1566171 0.1609551 0.1650011 0.1688238 0.1724558 0.1758989
 0.1790435 0.1816282 0.1833664 0.1841659 0.1842335 0.1839585 0.1836851 0.1835813 0.1836736 0.1839415
 0.1843579 0.1848904 0.1855119 0.1862095 0.1869719 0.1877763 0.1885922 0.1893894 0.1901458 0.190853
 0.1915104 0.1921155 0.1926674 0.1931744 0.1936449 0.1940781 0.1944734 0.1948389 0.1951871 0.1955264
 0.1958588 0.1961788 0.1964768 0.1967482 0.1969954 0.1972236 0.197439 0.1976508 0.1978654 0.1980829
 0.1982995 0.1985108 0.1987123 0.1989045 0.1990956 0.1992948 0.1995039 0.1997198 0.1999362 0.2001446
 0.20034 0.2005275 0.200715 0.2009044 0.2010956 0.2012935 0.2015004 0.2017082 0.201905 0.2020874
 0.2022629 0.2024435 0.2026339 0.2028283 0.203021 0.2032175 0.2034288 0.2036542 0.2038819 0.2041027
 0.2043155 0.2045241 0.2047353 0.2049512 0.2051588 0.2053373 0.2054828 0.2056195 0.2057816 0.2059863
 0.2062221 0.2064609 0.2066834 0.2068917 0.2070958 0.2072975 0.2074896 0.2076624 0.2078163 0.2079767
 0.2081819 0.2084405 0.2087186 0.2089832 0.2092326 0.2094755 0.209712 0.2099463 0.2101812 0.2103928
 0.2105459 0.2106514 0.2107852 0.2110274 0.2113832 0.211772 0.2121036 0.212357 0.2125736 0.2127994
 0.2130573 0.2133301 0.2135348 0.2135796 0.2135079 0.2135253 0.2138081 0.2143225 0.2148842 0.215349
 0.2156975 0.2159787 0.2162305 0.2164463 0.2165863 0.2166224 0.2165994 0.216653 0.2169215 0.2174046
 0.2179471 0.2183949 0.2187197 0.2189681 0.2191736 0.2193488 0.219456 0.2193615 0.2189761 0.218507
 0.2184064 0.2189381 0.2198802 0.2207589 0.2213141 0.2216324 0.2218888 0.2221316 0.2223292 0.222401
 0.222109 0.221198 0.2198893 0.2190164 0.2193304 0.220738 0.2224527 0.2237836 0.2245677 0.224983
 0.2252454 0.2254689 0.2255799 0.2253233 0.2245476 0.2235827 0.2231554 0.2237206 0.2249519 0.2260918
 0.2267249 0.2269975 0.2272135 0.2274932 0.2276919 0.2273563 0.2259794 0.2237447 0.2219032 0.2218925
 0.2239303 0.2267565 0.2288858 0.2298879 0.2302676 0.2303659 0.229854 0.2283208 0.2258901 0.2231631
 0.2210265 0.2205319 0.2221992 0.2251434 0.2275773 0.2285762 0.2288591 0.2296036 0.2310421 0.2324758
 0.2331859 0.2329893 0.2321083 0.2307746 0.2291233 0.2275622 0.2269837 0.2281225 0.2306541 0.2333231
 0.2351074 0.2359931 0.2364085 0.2359952 0.2333699 0.227781 0.2211708 0.2176347 0.2198002 0.226079
 0.2323761 0.2361196 0.2376735 0.2384101 0.2388736 0.2386292 0.2365179 0.2312885 0.2235619 0.2170697
 0.2161289 0.2213674 0.2290136 0.2344206 0.2352315 0.2316274 0.2254959 0.2198682 0.2176736 0.2199618
 0.2254512 0.2317896 0.2369618 0.2398414 0.2401777 0.2384799 0.235976 0.2343166 0.2343784 0.2349614
 0.2337026 0.2300618 0.2262239 0.2238902 0.2216424 0.2175578 0.21343 0.2135812 0.2192473 0.2265113
 0.2307094 0.2311617 0.2303174 0.2292919 0.225945 0.2179514 0.2071984 0.1998633 0.20101 0.2093308
 0.2183181 0.2226442 0.2223963 0.2211466 0.2211885 0.2211991 0.218094 0.211051 0.2035408 0.2004083
 0.2027173 0.2068034 0.2086093 0.2069126 0.2018914 0.1938322 0.1854803 0.182872 0.1902376 0.2048163
 0.2190203 0.2266804 0.2252949 0.2146585 0.1977434 0.1825322 0.1781369 0.1866299 0.2005215 0.2096508
 0.2092424 0.2007468 0.1875094 0.172499 0.1597041 0.1545442 0.1606245 0.1760878 0.1936282 0.2040947
 0.2015461 0.1879105 0.1734523 0.1693818 0.1776092 0.1893985 0.1951464 0.1930958 0.1879486 0.1848338
 0.1863685 0.1921817 0.1992978 0.2049374 0.2087359 0.2095796 0.2026143 0.185075 0.1639956 0.151573
 0.1525024 0.1615701 0.1734087 0.1873176 0.2009192 0.2068474 0.2010578 0.1905 0.1872046 0.1955064
 0.2083331 0.2158586 0.215233 0.2110963 0.2084214 0.2072207 0.2050305 0.202648 0.204335 0.2119427
 0.2216919 0.2283971 0.2308593 0.2313998 0.2319074 0.2324039 0.2323833 0.2316713 0.2303371 0.2288178
 0.2277938 0.2274204 0.2271821 0.2266774 0.225584 0.2224473 0.2150017 0.2033529 0.1919968 0.1862556
 0.1866352 0.1891934 0.1914 0.1936076 0.1935845 0.1849832 0.1657277 0.1448876 0.136076 0.1442953
 0.1622148 0.1785249 0.1866004 0.1850628 0.1743952 0.1571405 0.1406059 0.134584 0.1433688 0.1616319
 0.180116 0.1936184 0.2015931 0.2037202 0.198909 0.1884543 0.1773234 0.1713197 0.173536 0.1829847
 0.1949357 0.2021486 0.1984159 0.184726 0.1719767 0.1729389 0.1888656 0.20741 0.2165029 0.216574
 0.2156658 0.216937 0.2170923 0.2151433 0.2159294 0.2234714 0.2350494 0.2438863 0.2451008 0.2376279
 0.2235855 0.2087712 0.2011588 0.2044693 0.2138744 0.221193 0.2227788 0.2190425 0.209641 0.1955096
 0.1839644 0.1842959 0.1970111 0.2126365 0.2224823 0.2265474 0.2295628 0.2328391 0.2326817 0.2259971
 0.2154779 0.2079443 0.2076083 0.2123963 0.2174609 0.2202886 0.2207195 0.2180539 0.2114966 0.2034587
 0.1995754 0.2038073 0.2143209 0.225174 0.2316024 0.2329949 0.2315106 0.2292735 0.2269406 0.223874
 0.219561 0.2154424 0.2146257 0.2185687 0.2247636 0.2293169 0.2314062 0.2335496 0.2376497 0.2423743
 0.2447804 0.2435282 0.2401536 0.2377213 0.2383609 0.2415829 0.2446501 0.2449113 0.2423203 0.2397195
 0.2402256 0.2442558 0.2494706 0.2534369 0.2556134 0.256838 0.2578897 0.2588016 0.2588383 0.257055
 0.2536348 0.2506591 0.2506352 0.2540168 0.2587713 0.2624751 0.2642729 0.2647517 0.2646073 0.2639182
 0.2625316 0.2607152 0.259187 0.2585432 0.2588212 0.2596436 0.2606128 0.2614873 0.2621537 0.2626019
 0.2628953 0.2630903 0.2632099 0.2632903 0.2633665 0.2633986 0.2633134 0.2631593 0.2631237 0.2633277
 0.2636668 0.2639209 0.2639527 0.2637185 0.2631576 0.2622102 0.2609409 0.2595155 0.2580132 0.256373
 0.2546381 0.253217 0.2527602 0.2536678 0.2557139 0.2581867 0.2603827 0.2619621 0.2629291 0.2634353
 0.2636499 0.2637195 0.2637341 0.2637067 0.2636034 0.2633994 0.2631028 0.2627384 0.2623299 0.2619066
 0.2615124 0.2611857 0.2609197 0.2606564 0.2603275 0.2599019 0.2594003 0.2588733 0.2583554 0.2578249
 0.2572101 0.2564471 0.2555332 0.2545325 0.2535408 0.2526387 0.2518457 0.2511118 0.2503665 0.2495721
 0.2487093 0.2477375 0.2466273 0.2454429 0.2443401 0.243445 0.2427514 0.2421491 0.2415205 0.240794
 0.2399434 0.2389829 0.2379563 0.2369016 0.2358208 0.2346932 0.233502 0.2322382 0.2308922 0.2294564
 0.2279291 0.2263195 0.2246569 0.2229834 0.2213116 0.2195798 0.217657 0.2153887 0.2126378 0.2093107
 0.2053829 0.2009257 0.196106 0.1911446 0.1862532 0.1815937 0.177281 0.173406 0.1700484 0.1672786
 0.1651584 0.1637346 0.163031 0.1630493 0.1637715 0.1651527 0.1671137 0.1695442 0.1723132 0.1752744
 0.1782677 0.1811313 0.1837497 0.1861134 0.188311 0.1904242 0.1924371 0.194272 0.1958899 0.1973131
 0.198564 0.1996312 0.200503 0.2012001 0.2017655 0.2022371 0.2026394 0.202989 0.203296 0.2035587
 0.2037725 0.2039477 0.2041108 0.204285 0.20448 0.2047015 0.2049591 0.2052652 0.2056332 0.2060718
 0.2065751 0.2071254 0.2077077 0.2083113 0.2089273 0.2095625 0.2102559 0.2110657 0.212036 0.2131743
 0.2144506 0.2158104 0.217187 0.2185057 0.2196867 0.2206627 0.2213988 0.2218945 0.2221713 0.2222624
 0.2222002 0.2220063 0.2216987 0.2213063 0.2208564 0.2203531 0.2197845 0.2191515 0.2184742 0.2177759
 0.2170722 0.2163745 0.2156895 0.2150165 0.2143503 0.2136915 0.2130532 0.212451 0.2118816 0.2113198
 0.2107424 0.2101468 0.2095425 0.2089377 0.2083381 0.2077404 0.2071172 0.2064204 0.2056144 0.2046969
 0.2036797 0.2025635 0.2013429 0.2000291 0.1986465 0.1972072 0.1957031 0.1941299 0.1925005 0.1908195
 0.1890539 0.1871562 0.1851322 0.1830709 0.1810899 0.1792569 0.1775709 0.176 0.1745167 0.1731055
 0.1717573 0.170465 0.1692221 0.1680288 0.166894 0.165826 0.1648259 0.1638901 0.1630161 0.1622083
 0.1614842 0.1608642 0.1603457 0.1599 0.159501 0.1591457 0.1588546 0.158663 0.1585999 0.1586477
 0.158733 0.1587747 0.1587359 0.1586307 0.1584966 0.1583654 0.1582485 0.1581455 0.1580571 0.1579678
 0.1578223 0.1575332 0.1570089 0.1561748 0.1549994 0.1535135 0.1517964 0.1499518 0.1481094 0.1464102
 0.144956 0.1437875 0.1429061 0.1422771 0.1418151 0.1414268 0.1410844 0.1408447 0.1407917 0.1409479
 0.1412135 0.1414209 0.1414893 0.14151 0.1416563 0.1420408 0.1426575 0.1434068 0.1441622 0.1448398
 0.1454024 0.1458139 0.1460494 0.1461439 0.1461631 0.1461261 0.1460114 0.1458146 0.145556 0.1452538
 0.1449122 0.1445139 0.14403 0.143454 0.1427983 0.142058 0.14123 0.1403371 0.1393674 0.138255
 0.1370175 0.135866 0.1351025 0.1349322 0.1353656 0.1362296 0.1372865 0.1383862 0.1394425 0.1402633
 0.1406142 0.1405893 0.1407684 0.1417968 0.1437853 0.1461983 0.1483282 0.149796 0.1505804 0.1507439
 0.1503202 0.1493711 0.1479436 0.1460111 0.143585 0.1407936 0.1377802 0.1346714 0.1316639 0.1289725
 0.1267089 0.1249067 0.1235624 0.1226794 0.1223401 0.1221546 0.1202478 0.1142187 0.1048608 0.09783633
 0.09893063 0.1075644 0.1171951 0.122222 0.122443 0.1207995 0.1193394 0.1183751 0.1178103 0.1178126
 0.1185296 0.1198049 0.1212161 0.1223368 0.1230053 0.1232912 0.1231844 0.1223255 0.1199506 0.115185
 0.1077536 0.09856203 0.08937137 0.08177049 0.07646257 0.07330371 0.07167183 0.07082134 0.07024171 0.06990398
 0.07014069 0.07124537 0.073221 0.07589084 0.07908387 0.08257042 0.08593065 0.08873254 0.09087035 0.09256144
 0.09398421 0.09506299 0.09562757 0.09564407 0.09523958 0.09459302 0.09385227 0.09308844 0.09225497 0.0912278
 0.08998583 0.08875321 0.08785647 0.08742075 0.0872983 0.0872861 0.08728983 0.08728182 0.08723979 0.08716114
 0.08707371 0.08703718 0.08715086 0.08749088 0.0880028 0.08851072 0.08885735 0.08901557 0.08906662 0.08905509
 0.08885837 0.08830491 0.08748697 0.08676907 0.08631124 0.08577111 0.08474408 0.08338609 0.08232479 0.08198676
 0.08222584 0.08258975 0.08273919 0.08259355 0.08229907 0.08217312 0.08249934 0.08319036 0.08375296 0.08375728
</values></Ydata></ScRf><Data_Parameters_AB><parameter name="DPF">1</parameter><parameter name="NPT">3497</parameter><parameter name="FXV">3996</parameter><parameter name="LXV">500</parameter><parameter name="CSF">1</parameter><parameter name="MXY">0.136172488331795</parameter><parameter name="MNY">-0.0966726019978523</parameter><parameter name="DAT">02/06/2022</parameter><parameter name="TIM">11:23:59.486 (GMT+2)</parameter><parameter name="DXU">WN</parameter></Data_Parameters_AB><AB__Qtest><MainReport name="Quality Test Report"><Header><Line><Legend>Test result ok/not ok [1/0]: </Legend><Value>0</Value></Line><Line><Legend>Method file: </Legend><Value>C:\Users\Public\Documents\Bruker\OPUS_8.2.28\QT\IRBT_v3_default.QT</Value></Line></Header><Matrix><Line><Legend></Legend><Legend>min</Legend><Legend>max</Legend><Legend>measured</Legend></Line><Line><Value>Absorption (X-Range 1):</Value><Value>0.400000</Value><Value>2.000000</Value><Value>0.166348</Value></Line><Line><Value>Noise (X-Range 4):</Value><Value></Value><Value>0.000300</Value><Value>0.000041</Value></Line><Line><Value>Signal/Noise (X-Range 2):</Value><Value>200.000000</Value><Value></Value><Value>54.275553</Value></Line><Line><Value>Signal/Noise (X-Range 3):</Value><Value>40.000000</Value><Value></Value><Value>41.136225</Value></Line><Line><Value>Water vapour (X-Range 5):</Value><Value></Value><Value>0.000300</Value><Value>0.000083</Value></Line><Line><Value>Signal/Water (X-Range 2):</Value><Value>100.000000</Value><Value></Value><Value>27.162145</Value></Line><Line><Value>Signal/Water (X-Range 3):</Value><Value>20.000000</Value><Value></Value><Value>20.586581</Value></Line><Line><Value>Fringes (X-Range 6):</Value><Value></Value><Value>0.000100</Value><Value>0.000051</Value></Line></Matrix></MainReport></AB__Qtest><Data_Parameters_ScSm><parameter name="DPF">1</parameter><parameter name="NPT">1814</parameter><parameter name="FXV">3996.33169228125</parameter><parameter name="LXV">499.541461535156</parameter><parameter name="CSF">1</parameter><parameter name="MXY">0.300666630268097</parameter><parameter name="MNY">0.0382021889090538</parameter><parameter name="DAT">02/06/2022</parameter><parameter name="TIM">11:23:59.486 (GMT+2)</parameter><parameter name="DXU">WN</parameter></Data_Parameters_ScSm><Data_Parameters_ScRf><parameter name="DPF">1</parameter><parameter name="NPT">1820</parameter><parameter name="FXV">4004.04661832813</parameter><parameter name="LXV">495.683998511719</parameter><parameter name="CSF">1</parameter><parameter name="MXY">0.264751732349396</parameter><parameter name="MNY">0.030643904581666</parameter><parameter name="DAT">02/06/2022</parameter><parameter name="TIM">11:23:34.733 (GMT+2)</parameter><parameter name="DXU">WN</parameter></Data_Parameters_ScRf><Optic_Parameters_Rf><parameter name="APR">0</parameter><parameter name="APT">Open</parameter><parameter name="BMS">KBr</parameter><parameter name="DTC">RT-DLaTGS_IR-Biotyper [Microplate reader]</parameter><parameter name="HPF">0</parameter><parameter name="LPF">10.0</parameter><parameter name="LPV">4000</parameter><parameter name="PGR">0</parameter><parameter name="RCH">Module port</parameter><parameter name="RDX">0</parameter><parameter name="SRC">MIR</parameter><parameter name="VEL">10.0</parameter><parameter name="SON">Off</parameter></Optic_Parameters_Rf><Acquisition_Parameters_Rf><parameter name="ADT">1</parameter><parameter name="AQM">DD</parameter><parameter name="CFE">0</parameter><parameter name="COR">0</parameter><parameter name="DEL">0</parameter><parameter name="DLY">0</parameter><parameter name="HFW">8000</parameter><parameter name="LFW">0</parameter><parameter name="NSR">32</parameter><parameter name="PLF">AB</parameter><parameter name="RES">6</parameter><parameter name="RGN">-1</parameter><parameter name="STR">0</parameter><parameter name="TCL">MakeCompatibleScalar (0, {WSV=1.000000, ARV=0});</parameter><parameter name="TDL">37</parameter><parameter name="RPO">0</parameter></Acquisition_Parameters_Rf><FT_-_Parameters_Rf><parameter name="APF">B3</parameter><parameter name="HFQ">500</parameter><parameter name="LFQ">4000</parameter><parameter name="NLI">0</parameter><parameter name="PHR">24</parameter><parameter name="PHZ">ML</parameter><parameter name="SPZ">NO</parameter><parameter name="ZFF">1</parameter></FT_-_Parameters_Rf><Optic_Parameters_><parameter name="APR">0</parameter><parameter name="APT">Open</parameter><parameter name="BMS">KBr</parameter><parameter name="CHN">Module port</parameter><parameter name="DTC">RT-DLaTGS_IR-Biotyper [Microplate reader]</parameter><parameter name="HPF">0</parameter><parameter name="LPF">10.0</parameter><parameter name="LPV">4000</parameter><parameter name="PGN">0</parameter><parameter name="RDX">0</parameter><parameter name="SRC">MIR</parameter><parameter name="VEL">10.0</parameter><parameter name="SON">Off</parameter></Optic_Parameters_><FT_-_Parameters_><parameter name="APF">B3</parameter><parameter name="HFQ">500</parameter><parameter name="LFQ">4000</parameter><parameter name="NLI">0</parameter><parameter name="PHR">24</parameter><parameter name="PHZ">ML</parameter><parameter name="SPZ">NO</parameter><parameter name="ZFF">1</parameter></FT_-_Parameters_><Acquisition_Parameters_><parameter name="ADT">1</parameter><parameter name="AQM">DD</parameter><parameter name="CFE">0</parameter><parameter name="COR">0</parameter><parameter name="DEL">0</parameter><parameter name="DLY">0</parameter><parameter name="HFW">8000</parameter><parameter name="LFW">0</parameter><parameter name="NSS">32</parameter><parameter name="PLF">AB</parameter><parameter name="RES">6</parameter><parameter name="SOT">0</parameter><parameter name="TCL">MakeCompatibleScalar (0, {WSV=1.000000, ARV=0});</parameter><parameter name="TDL">37</parameter><parameter name="SPO">0</parameter><parameter name="SGN">-1</parameter></Acquisition_Parameters_><Instrument_Parameters_Rf><parameter name="HFL">15800.168544</parameter><parameter name="LFL">0</parameter><parameter name="LWN">15800.168544</parameter><parameter name="ABP">32197</parameter><parameter name="SSP">1</parameter><parameter name="ARG">2</parameter><parameter name="ASG">2</parameter><parameter name="ASS">32</parameter><parameter name="GFW">16</parameter><parameter name="GBW">16</parameter><parameter name="BFW">0</parameter><parameter name="BBW">0</parameter><parameter name="PKA">7270</parameter><parameter name="PKL">4996</parameter><parameter name="PRA">7440</parameter><parameter name="PRL">5001</parameter><parameter name="P2A">1</parameter><parameter name="P2L">1</parameter><parameter name="P2R">1</parameter><parameter name="P2K">1</parameter><parameter name="DAQ">0</parameter><parameter name="AG2">1</parameter><parameter name="SSM">1</parameter><parameter name="RSN">26041</parameter><parameter name="CRR">0</parameter><parameter name="SRT">1654169014.734</parameter><parameter name="DUR">19.6379852294922</parameter><parameter name="TSC">28.2</parameter><parameter name="MVD">0.230388015508652</parameter><parameter name="AN1">0.225798739344862</parameter><parameter name="AN2">0</parameter><parameter name="VSN">2.485 Apr  4 2017</parameter><parameter name="SRN">0085</parameter><parameter name="CAM">0</parameter><parameter name="INS">IR-Biotyper</parameter><parameter name="FOC">69</parameter><parameter name="RDY">1</parameter><parameter name="ARS">32</parameter></Instrument_Parameters_Rf><Sample_Parameters_><parameter name="BLD"></parameter><parameter name="CNM">Admin</parameter><parameter name="CPY"></parameter><parameter name="DPM"></parameter><parameter name="EXP">IRBT_v3_32Scans.XPM</parameter><parameter name="LCT"></parameter><parameter name="SFM">Microplate, HTS-XT</parameter><parameter name="SNM">220602-1054_RTF49M (D_21)_F2_38259bfa-f841-4075-9e60-9ef77809de2c.0</parameter><parameter name="XPP">C:\Users\Public\Documents\Bruker\OPUS_8.2.28\XPM</parameter><parameter name="IST">OK</parameter><parameter name="CPG">1252</parameter><parameter name="UID">56c2f00b-a994-445b-8dfa-81c99038af49</parameter></Sample_Parameters_><Instrument_Parameters_><parameter name="HFL">15800.168544</parameter><parameter name="LFL">0</parameter><parameter name="LWN">15800.168544</parameter><parameter name="ABP">32197</parameter><parameter name="SSP">1</parameter><parameter name="ASG">2</parameter><parameter name="ARG">2</parameter><parameter name="ASS">32</parameter><parameter name="GFW">16</parameter><parameter name="GBW">16</parameter><parameter name="BFW">0</parameter><parameter name="BBW">0</parameter><parameter name="PKA">8047</parameter><parameter name="PKL">4988</parameter><parameter name="PRA">8295</parameter><parameter name="PRL">4993</parameter><parameter name="P2A">1</parameter><parameter name="P2L">1</parameter><parameter name="P2R">1</parameter><parameter name="P2K">1</parameter><parameter name="DAQ">0</parameter><parameter name="AG2">1</parameter><parameter name="SSM">1</parameter><parameter name="RSN">13646</parameter><parameter name="CRR">0</parameter><parameter name="SRT">1654169039.487</parameter><parameter name="DUR">19.6369934082031</parameter><parameter name="TSC">28.2</parameter><parameter name="MVD">0.704613626003265</parameter><parameter name="AN1">0.225835945383637</parameter><parameter name="AN2">0</parameter><parameter name="VSN">2.485 Apr  4 2017</parameter><parameter name="SRN">0085</parameter><parameter name="CAM">0</parameter><parameter name="INS">IR-Biotyper</parameter><parameter name="FOC">69</parameter><parameter name="RDY">1</parameter></Instrument_Parameters_><History/></OPUSDataFile>
