<?xml version="1.0" encoding="UTF-8" ?>
<OPUSDataFile><AB><Ydata ylabel="Absorbance Units"><values byteorder="INTEL" format="FLOAT32" numvalues="3497"> -0.02914912 -0.02910936 -0.02908737 -0.02908359 -0.02909232 -0.02911326 -0.02913571 -0.02915952 -0.02917922 -0.02919635
 -0.02921688 -0.02924265 -0.02928464 -0.02934036 -0.02941129 -0.0294898 -0.0295645 -0.0296294 -0.02967181 -0.02969411
 -0.02969234 -0.02967566 -0.02964691 -0.02961647 -0.02958846 -0.02957018 -0.0295646 -0.02957286 -0.02959598 -0.02963044
 -0.02967609 -0.02972905 -0.02978911 -0.02985271 -0.02991926 -0.02998057 -0.03003555 -0.03007266 -0.03009308 -0.03009326
 -0.03007822 -0.03005788 -0.03003626 -0.03002588 -0.03002396 -0.0300327 -0.03004699 -0.03006172 -0.03007971 -0.03010042
 -0.03012945 -0.03017149 -0.03021768 -0.03026909 -0.03030428 -0.03031891 -0.03030648 -0.03026439 -0.03021299 -0.03015327
 -0.03011055 -0.03008488 -0.03008304 -0.03010269 -0.03013283 -0.03017227 -0.0302102 -0.03024869 -0.03028734 -0.03032845
 -0.03037648 -0.03043036 -0.0304922 -0.03055549 -0.03061711 -0.03066793 -0.03070161 -0.03071483 -0.03070301 -0.03067422
 -0.03062816 -0.03057971 -0.03053044 -0.0304963 -0.03047856 -0.03049422 -0.03054431 -0.0306418 -0.03078585 -0.03097055
 -0.03118996 -0.03140688 -0.03161245 -0.03175134 -0.03182648 -0.03181133 -0.03172751 -0.03159764 -0.03144273 -0.03129759
 -0.03116855 -0.03107474 -0.03100644 -0.03096497 -0.03093482 -0.0309073 -0.03088656 -0.03086818 -0.03088005 -0.03092748
 -0.0310208 -0.03116474 -0.03131907 -0.03148186 -0.03159701 -0.03166494 -0.03167996 -0.03164936 -0.03161685 -0.03158551
 -0.03159273 -0.03163029 -0.03169873 -0.03178504 -0.03186575 -0.0319377 -0.03198619 -0.03201768 -0.03203574 -0.03203564
 -0.03201712 -0.03197064 -0.03188619 -0.03178598 -0.03166714 -0.03158482 -0.03154716 -0.03159811 -0.03174674 -0.03197394
 -0.03228005 -0.03252547 -0.03270343 -0.03267334 -0.03245914 -0.032146 -0.03176008 -0.03145092 -0.03121115 -0.03109923
 -0.03109307 -0.03118764 -0.03134721 -0.03153175 -0.03170407 -0.03181437 -0.03186418 -0.03182977 -0.03176329 -0.03167827
 -0.03161869 -0.03160393 -0.03162811 -0.03169544 -0.03177796 -0.0318729 -0.03196483 -0.03205261 -0.03213575 -0.03221412
 -0.03228576 -0.03234939 -0.03239457 -0.03242176 -0.03242568 -0.03241083 -0.032387 -0.03235478 -0.03232119 -0.03228101
 -0.03222816 -0.0321664 -0.03209284 -0.03202447 -0.03196917 -0.03194239 -0.03195424 -0.03200297 -0.03209383 -0.03220207
 -0.03232619 -0.03243314 -0.03251904 -0.03256516 -0.03256995 -0.03253573 -0.03246324 -0.03236473 -0.03224105 -0.03210271
 -0.0319517 -0.03179921 -0.03165121 -0.03152776 -0.03143451 -0.03139377 -0.03139852 -0.03145504 -0.03153751 -0.03162912
 -0.03170253 -0.03173296 -0.03172228 -0.03165925 -0.03157838 -0.03148488 -0.03141441 -0.03137581 -0.03137667 -0.03142
 -0.03149212 -0.03159245 -0.03170674 -0.0318342 -0.03196196 -0.03208841 -0.032196 -0.03228406 -0.0323385 -0.03236405
 -0.03236442 -0.03234723 -0.03232771 -0.03231041 -0.03230701 -0.03231883 -0.03234966 -0.03240316 -0.03248171 -0.03259042
 -0.03273495 -0.0329049 -0.03310427 -0.03329333 -0.03346709 -0.03358678 -0.03364552 -0.03364707 -0.03359114 -0.03348949
 -0.03334228 -0.03314775 -0.03291082 -0.03266286 -0.03241319 -0.0322184 -0.03207765 -0.03202264 -0.03203535 -0.03210365
 -0.03219754 -0.03227049 -0.03231712 -0.03230836 -0.03227624 -0.03223244 -0.03219896 -0.03219273 -0.03220203 -0.03223081
 -0.03224577 -0.03224126 -0.03219542 -0.03210246 -0.031983 -0.03183742 -0.03171317 -0.03161207 -0.0315683 -0.03157949
 -0.0316488 -0.03176688 -0.03190137 -0.03203797 -0.03211772 -0.03214508 -0.03209292 -0.03199226 -0.03187436 -0.03175317
 -0.03165851 -0.03157136 -0.03149028 -0.03139212 -0.03126155 -0.03110814 -0.03092667 -0.0307541 -0.03059714 -0.03047602
 -0.03039589 -0.0303428 -0.03031661 -0.03028408 -0.03024397 -0.03017281 -0.03007356 -0.02995585 -0.02982442 -0.02970429
 -0.0295961 -0.02951357 -0.02945686 -0.02943398 -0.02944039 -0.02947965 -0.02952905 -0.02957544 -0.02958424 -0.02952556
 -0.0293991 -0.0291899 -0.02893855 -0.0286556 -0.02835942 -0.02805733 -0.02774053 -0.02740799 -0.0270619 -0.02670217
 -0.02633851 -0.02597143 -0.02560865 -0.02525218 -0.02492006 -0.02461495 -0.02436072 -0.02415197 -0.02398941 -0.02385961
 -0.02373738 -0.02361569 -0.02347581 -0.02331418 -0.02312624 -0.02289484 -0.02260557 -0.02225759 -0.02183681 -0.02139106
 -0.02093017 -0.02049405 -0.02009545 -0.01973056 -0.01940215 -0.01908285 -0.01877099 -0.01844545 -0.01810654 -0.01776474
 -0.0174233 -0.01711488 -0.01683564 -0.01659365 -0.01636847 -0.01610738 -0.01579748 -0.01537568 -0.0148783 -0.01432315
 -0.01375332 -0.01322164 -0.01272774 -0.01229031 -0.01188642 -0.01151182 -0.01114369 -0.01077389 -0.01039271 -0.00999589
 -0.00958763 -0.009168182 -0.008739457 -0.008301997 -0.007842001 -0.007358846 -0.006838831 -0.00628481 -0.005711414 -0.00512434
 -0.004556691 -0.004009551 -0.003503579 -0.003035241 -0.002609077 -0.002217071 -0.001854283 -0.001503514 -0.001148783 -0.0007745024
 -0.0003625858 8.060696E-05 0.0005587369 0.001054978 0.001562613 0.002083609 0.002616504 0.003171265 0.003751429 0.00433629
 0.004925243 0.005480309 0.006000712 0.00647819 0.006916427 0.007340507 0.00775401 0.008187518 0.00863784 0.009115032
 0.009606762 0.01009461 0.01056831 0.01100148 0.01140487 0.01177122 0.01213747 0.01252321 0.01296 0.0134755
 0.01404649 0.01467871 0.01531312 0.01593803 0.01652094 0.01705385 0.01754756 0.01800156 0.01844915 0.01889172
 0.01935305 0.01983182 0.02032751 0.02083873 0.02135807 0.02188776 0.02243194 0.02298932 0.02356282 0.02414146
 0.02471171 0.02526544 0.02578674 0.02628377 0.02675571 0.02721558 0.02767062 0.02812207 0.02857277 0.0290163
 0.0294505 0.02987924 0.03030124 0.03073581 0.03118407 0.0316663 0.03218273 0.03273066 0.03330638 0.03387808
 0.03444238 0.03496457 0.03544983 0.03589231 0.03630487 0.03670984 0.03711624 0.0375488 0.03800167 0.03848148
 0.03897016 0.03945807 0.03993195 0.04037989 0.04081066 0.04122117 0.04163719 0.04206326 0.04251799 0.04300569
 0.04352295 0.04407055 0.04462603 0.04518799 0.04572665 0.04624129 0.0467111 0.04713947 0.0475287 0.04788639
 0.0482351 0.04858134 0.04895003 0.04933994 0.04976231 0.05020626 0.05066692 0.05113074 0.05158628 0.05202954
 0.05245408 0.05286748 0.05327144 0.05366895 0.05406225 0.05444299 0.05480969 0.05516247 0.05550039 0.05584649
 0.056202 0.05659286 0.05701728 0.05747275 0.05795256 0.05842425 0.05888306 0.05929516 0.059667 0.05999163
 0.0602867 0.06057433 0.06086577 0.06118525 0.06151951 0.06187009 0.0622132 0.06253479 0.06283445 0.06310496
 0.06337111 0.06363684 0.06392037 0.06422606 0.06454944 0.06489085 0.06523644 0.06558566 0.06593047 0.06627181
 0.0666141 0.06695957 0.06732237 0.06770125 0.06810275 0.06851803 0.06893319 0.06933905 0.06971449 0.07006186
 0.07037394 0.07066108 0.07092883 0.07118224 0.07142597 0.07165813 0.07187848 0.07208776 0.07228511 0.07247753
 0.07266554 0.07285684 0.07305206 0.07325616 0.0734694 0.0736957 0.07393535 0.07419323 0.07446875 0.0747632
 0.07507276 0.07538759 0.07570229 0.07599972 0.0762805 0.07653534 0.07677514 0.07700609 0.07724071 0.07749186
 0.07775781 0.0780451 0.07833315 0.07861859 0.07887737 0.07910179 0.07929023 0.07943919 0.0795736 0.07969516
 0.07982395 0.07996024 0.08008977 0.08021027 0.08029239 0.08033919 0.08034731 0.08032734 0.08030917 0.08030178
 0.08034029 0.08042236 0.08056353 0.08074709 0.08096483 0.08119443 0.08141511 0.08162419 0.08180804 0.08199869
 0.08220209 0.08245061 0.08275913 0.0831036 0.08348867 0.08383497 0.08413648 0.08433459 0.0844278 0.08443786
 0.08437112 0.08429935 0.0842231 0.08418487 0.08417539 0.08418489 0.08421265 0.0842474 0.08430488 0.08440635
 0.08455459 0.08477071 0.08501948 0.08528711 0.08553199 0.08572374 0.08586711 0.08594996 0.08601885 0.08608171
 0.08617328 0.08630268 0.08645976 0.08664601 0.08681954 0.08697814 0.08707733 0.08711763 0.08708332 0.0869834
 0.0868513 0.08670207 0.08660174 0.08655556 0.08661313 0.08675522 0.08698203 0.08725417 0.0875335 0.08778668
 0.08797299 0.08809601 0.0881387 0.08814543 0.08812406 0.08812281 0.08815607 0.08823733 0.08837213 0.08854759
 0.08876266 0.08901582 0.08930717 0.08965103 0.09004534 0.09047962 0.09094263 0.09137271 0.09175795 0.09202193
 0.09217449 0.092189 0.09210647 0.0919711 0.09182943 0.09175175 0.09174577 0.09185075 0.09201872 0.092244
 0.09245694 0.09263235 0.09273009 0.09273158 0.09265 0.09248097 0.09227339 0.09203053 0.09179682 0.09157436
 0.09137762 0.09120589 0.09105534 0.09092714 0.09082478 0.09075193 0.09072385 0.09073971 0.09081011 0.09091988
 0.09105828 0.09119148 0.09128476 0.09130091 0.09119809 0.09097174 0.09059794 0.0901254 0.08955756 0.08896931
 0.08837716 0.08783474 0.08735391 0.08694842 0.08662205 0.08635286 0.08613942 0.08593136 0.08572613 0.08547527
 0.08518462 0.08485625 0.08450448 0.0841813 0.08388644 0.08365358 0.08345357 0.08325881 0.08303932 0.08274431
 0.08238488 0.08194166 0.08147028 0.08098843 0.08055623 0.08020148 0.07994311 0.07979859 0.07972337 0.07971946
 0.07969719 0.07964927 0.07950468 0.07926014 0.07891935 0.07848786 0.0780289 0.07754672 0.0770983 0.07667925
 0.07630507 0.07596982 0.07566737 0.07539535 0.07514876 0.07492328 0.07471436 0.07451337 0.07431246 0.07410677
 0.0738906 0.07366719 0.07343628 0.07320187 0.07296537 0.07272644 0.07248531 0.07224035 0.07199134 0.07173909
 0.07148363 0.07122535 0.070964 0.07069691 0.07042434 0.07014532 0.06986254 0.06958424 0.06931312 0.06906135
 0.06882475 0.06860483 0.06838958 0.0681668 0.06792738 0.06765813 0.06736363 0.06704018 0.06670361 0.0663581
 0.06601761 0.06568713 0.06536876 0.06506453 0.06476521 0.06447025 0.06417009 0.06386423 0.06355377 0.06323941
 0.06293032 0.06262656 0.06233348 0.06204982 0.0617739 0.06150489 0.06124026 0.0609794 0.06072133 0.06046262
 0.06019946 0.05992832 0.05964272 0.0593498 0.05904684 0.05875841 0.058491 0.05826938 0.05810498 0.05798727
 0.05792206 0.05784959 0.05776637 0.05760358 0.05735756 0.05701386 0.0565777 0.05610749 0.05561232 0.05517644
 0.05479824 0.0545231 0.05432985 0.05419782 0.05409496 0.05395921 0.05377634 0.05349642 0.05315024 0.05273607
 0.05231364 0.05191663 0.05157305 0.05130934 0.0510938 0.05092571 0.05076408 0.05059831 0.05043641 0.05027614
 0.0501599 0.05008987 0.05008382 0.05013845 0.05021855 0.05031577 0.05036345 0.05035804 0.05024679 0.05004254
 0.04974305 0.04937633 0.0489869 0.04859266 0.04823714 0.0479071 0.04760839 0.04731905 0.04702279 0.04672885
 0.04643286 0.04616411 0.04593261 0.04573728 0.0455828 0.04543554 0.04529179 0.04514091 0.04498215 0.04484724
 0.0447373 0.04467729 0.04466197 0.04467309 0.04470441 0.04472203 0.04472861 0.0447126 0.04468146 0.04464411
 0.04460083 0.04455911 0.04450615 0.04443857 0.0443323 0.04417429 0.04394629 0.04363248 0.04325191 0.04279772
 0.04233668 0.04187581 0.04148464 0.0411732 0.04094928 0.04081392 0.04070418 0.0406157 0.04047287 0.04027829
 0.04000553 0.03966789 0.03929719 0.03890745 0.03854978 0.03822578 0.03796467 0.03775201 0.03758563 0.03744285
 0.03730581 0.03715693 0.03697911 0.03677464 0.03653562 0.03628974 0.0360405 0.03582001 0.03563727 0.03548685
 0.03537202 0.03524271 0.03509625 0.03489155 0.03463057 0.0343321 0.03400264 0.03369496 0.0334054 0.03315234
 0.03291985 0.03267623 0.03241564 0.03210704 0.03177032 0.03141293 0.03106332 0.03074954 0.03047951 0.03026903
 0.03010327 0.02998035 0.02988669 0.02981687 0.02977222 0.02975232 0.02975942 0.02979519 0.02984152 0.02989761
 0.02992245 0.02991388 0.02983168 0.02967844 0.02944657 0.02914711 0.02881435 0.02846194 0.02814095 0.02785674
 0.02764322 0.02749428 0.02741717 0.02740084 0.02743962 0.02752244 0.02764335 0.02778953 0.02795671 0.0281289
 0.02830146 0.02846306 0.02860918 0.0287479 0.02887725 0.02903538 0.02922423 0.02949962 0.029863 0.03034789
 0.03094767 0.03164027 0.03241256 0.03320299 0.0340052 0.03476907 0.03550377 0.03619976 0.03687456 0.03754528
 0.03822449 0.03892911 0.03966179 0.04042886 0.04122838 0.04206149 0.04292404 0.04381751 0.04472671 0.04565285
 0.04655878 0.04744244 0.04825553 0.04899496 0.04963334 0.05017134 0.05061741 0.05097379 0.05125979 0.05147442
 0.05162122 0.05170393 0.05172634 0.0517103 0.05168983 0.05169605 0.0517825 0.05195881 0.05225771 0.05265504
 0.05314852 0.05370737 0.05431611 0.05496869 0.05565815 0.0563985 0.05719182 0.05804465 0.05895961 0.05991951
 0.06092386 0.06192888 0.06293049 0.06386081 0.06471372 0.06541457 0.06596132 0.06630388 0.06644917 0.06638785
 0.0661312 0.0656949 0.06508587 0.06431849 0.06339648 0.06232527 0.06111401 0.05976557 0.05829966 0.05671999
 0.05505924 0.05332077 0.05155746 0.04977416 0.048041 0.04636502 0.04480524 0.0433661 0.04206242 0.04089259
 0.03982884 0.03886804 0.03797566 0.03715159 0.03637847 0.03565492 0.03497081 0.0343197 0.03368503 0.03306416
 0.03244353 0.03183456 0.03124013 0.03067723 0.0301582 0.02968738 0.02927115 0.02890166 0.02857735 0.02829497
 0.02805244 0.02785748 0.0277101 0.02762368 0.02759898 0.02765183 0.02778234 0.02799637 0.02828833 0.02862675
 0.02899783 0.02933027 0.02961418 0.02978257 0.02984626 0.02978747 0.02963699 0.02942223 0.02917751 0.02893987
 0.0287345 0.02858616 0.02850692 0.02850912 0.02858846 0.02874971 0.0289686 0.02924581 0.02953419 0.02983228
 0.03006565 0.03023036 0.03022733 0.03005146 0.02960836 0.02890049 0.02789071 0.02660114 0.02509003 0.02339924
 0.02166322 0.0199201 0.01830575 0.01682132 0.01553238 0.01439729 0.01340629 0.01250994 0.011673 0.01087642
 0.01010075 0.009355866 0.00864012 0.007967937 0.007342315 0.006768601 0.006248422 0.005776694 0.005353479 0.004961538
 0.004599651 0.004244626 0.003896271 0.003541143 0.003182021 0.002822009 0.002465959 0.002128035 0.001811919 0.001532296
 0.001286507 0.001080382 0.0009005054 0.0007395074 0.0005795005 0.000406344 0.0002142229 -6.362974E-06 -0.0002399629 -0.000486677
 -0.0007201838 -0.0009352997 -0.001116745 -0.0012605 -0.001377341 -0.001467263 -0.001559649 -0.001655531 -0.001773874 -0.001912422
 -0.0020632 -0.002223642 -0.002376801 -0.002526497 -0.002673494 -0.002824418 -0.002993978 -0.003180599 -0.003391059 -0.003613851
 -0.003842355 -0.004063729 -0.004268808 -0.004448189 -0.004595462 -0.004707447 -0.004779536 -0.004823783 -0.004838765 -0.004854703
 -0.004874304 -0.004926386 -0.005013505 -0.005138804 -0.005301365 -0.005479532 -0.005671361 -0.005852019 -0.006021658 -0.006167236
 -0.00629108 -0.006391753 -0.006473923 -0.006544361 -0.006609736 -0.006681801 -0.006763536 -0.006864602 -0.006975875 -0.007097551
 -0.007210676 -0.007306719 -0.007375504 -0.0074088 -0.007420975 -0.007410758 -0.007409065 -0.00741943 -0.007463195 -0.007542604
 -0.007652444 -0.007791662 -0.007935823 -0.008083779 -0.008214581 -0.008330377 -0.008428349 -0.008513014 -0.008596129 -0.008678819
 -0.008770894 -0.008865776 -0.008960278 -0.009044384 -0.009105837 -0.009145035 -0.009154026 -0.009152286 -0.009143373 -0.009154036
 -0.009194159 -0.009273315 -0.009398085 -0.009550044 -0.009729195 -0.009904905 -0.01007489 -0.01022193 -0.01034592 -0.01045159
 -0.01054032 -0.01062542 -0.01070679 -0.01079119 -0.01087696 -0.01096269 -0.01104752 -0.01112882 -0.01120726 -0.01128263
 -0.01135571 -0.01142692 -0.01149764 -0.01156822 -0.0116419 -0.01171997 -0.01180526 -0.01189968 -0.01200043 -0.01210794
 -0.01221506 -0.01232091 -0.01242108 -0.01251506 -0.01260431 -0.01268887 -0.01277048 -0.01284856 -0.0129191 -0.0129814
 -0.01302902 -0.01306402 -0.01308722 -0.01310469 -0.01312784 -0.0131628 -0.0132236 -0.01330996 -0.01342854 -0.0135708
 -0.01373464 -0.01390817 -0.01408621 -0.01425922 -0.01442324 -0.01457359 -0.01470835 -0.01482792 -0.01493177 -0.01502445
 -0.01510622 -0.01518215 -0.01525249 -0.01532061 -0.01538664 -0.01545317 -0.01552026 -0.0155899 -0.01566162 -0.0157351
 -0.01580982 -0.01588397 -0.01595908 -0.01603582 -0.01611765 -0.01620856 -0.01630924 -0.01642304 -0.0165434 -0.01666981
 -0.01679054 -0.01690193 -0.0169963 -0.01707024 -0.01712796 -0.01716852 -0.01720661 -0.01724315 -0.01729159 -0.0173523
 -0.01742734 -0.01751567 -0.0176091 -0.01770695 -0.01780123 -0.01789315 -0.01798184 -0.01806927 -0.01815941 -0.01825203
 -0.01834952 -0.01844802 -0.01854532 -0.01863645 -0.01871669 -0.01878604 -0.01884208 -0.01889103 -0.01893396 -0.01897731
 -0.01902307 -0.01907161 -0.01912338 -0.01917607 -0.01922948 -0.01928374 -0.01933888 -0.0193964 -0.01945608 -0.01951641
 -0.01957693 -0.01963415 -0.01968896 -0.0197417 -0.01979457 -0.01985227 -0.01991602 -0.01999023 -0.02007309 -0.0201654
 -0.02026231 -0.02036164 -0.02045719 -0.02054557 -0.02062315 -0.02068728 -0.02074051 -0.02078207 -0.02082 -0.02085518
 -0.02089425 -0.02093796 -0.02098664 -0.02104027 -0.02109639 -0.02115515 -0.02121677 -0.02128166 -0.02135236 -0.02142809
 -0.02150853 -0.02159126 -0.02167128 -0.02174681 -0.02181246 -0.02186997 -0.02191825 -0.02196191 -0.02200389 -0.02204677
 -0.02209337 -0.02214103 -0.0221897 -0.02223593 -0.0222783 -0.02231907 -0.02235784 -0.02240181 -0.02245156 -0.02251068
 -0.02257913 -0.0226521 -0.0227289 -0.02280107 -0.0228686 -0.02292676 -0.02297639 -0.02301749 -0.023051 -0.02307863
 -0.02310153 -0.02312162 -0.02314101 -0.0231623 -0.02318739 -0.02321875 -0.02325589 -0.02329982 -0.02334713 -0.02339719
 -0.02344643 -0.02349381 -0.02353825 -0.02357914 -0.02361927 -0.02365869 -0.02370183 -0.02374882 -0.02380057 -0.02385663
 -0.02391291 -0.02396931 -0.02402272 -0.02407433 -0.02412659 -0.02417967 -0.0242362 -0.02429315 -0.02434724 -0.02439611
 -0.02443469 -0.02446669 -0.024492 -0.02451781 -0.0245479 -0.02458512 -0.02463196 -0.02468542 -0.02474544 -0.02480835
 -0.0248736 -0.02493929 -0.02500526 -0.02507012 -0.02513378 -0.02519476 -0.02525303 -0.02530769 -0.02535885 -0.02540635
 -0.02545075 -0.02549355 -0.02553566 -0.02557975 -0.02562625 -0.02567732 -0.02573203 -0.02579063 -0.02585103 -0.02591198
 -0.02597155 -0.02602842 -0.02608183 -0.02613093 -0.02617715 -0.02622033 -0.02626356 -0.02630715 -0.02635414 -0.02640488
 -0.02646018 -0.02652005 -0.02658193 -0.02664547 -0.02670605 -0.02676368 -0.02681571 -0.02686302 -0.02690705 -0.02694839
 -0.02698944 -0.02702935 -0.0270679 -0.02710436 -0.02713745 -0.02716828 -0.02719735 -0.0272252 -0.02725297 -0.0272778
 -0.02729886 -0.02731452 -0.02732313 -0.0273309 -0.02733782 -0.02735491 -0.02738328 -0.02742712 -0.0274865 -0.02755391
 -0.02762855 -0.02769917 -0.02776604 -0.02782437 -0.02787547 -0.02792115 -0.02796187 -0.02799966 -0.02803412 -0.02806498
 -0.02809344 -0.02812003 -0.02814768 -0.02817897 -0.02821461 -0.0282565 -0.0283009 -0.0283474 -0.0283909 -0.02843001
 -0.02846269 -0.02848816 -0.02850821 -0.02852276 -0.02853647 -0.02854959 -0.02856709 -0.02858891 -0.02861653 -0.02864917
 -0.02868344 -0.02871876 -0.02875102 -0.02878106 -0.02880831 -0.02883473 -0.0288632 -0.02889463 -0.02893159 -0.02897252
 -0.02901763 -0.02906357 -0.02910886 -0.02915069 -0.02918771 -0.02921891 -0.02924386 -0.02926201 -0.0292731 -0.02927763
 -0.0292754 -0.0292709 -0.02926441 -0.02926449 -0.02927152 -0.02929249 -0.02932719 -0.02937801 -0.02944474 -0.02952763
 -0.0296275 -0.02974598 -0.02988454 -0.03004619 -0.03023177 -0.03044345 -0.03068107 -0.03094451 -0.03123576 -0.03155372
 -0.03190796 -0.03229952 -0.03274464 -0.03324796 -0.0338163 -0.03445473 -0.03513661 -0.03586174 -0.03657877 -0.03728507
 -0.03794655 -0.038563 -0.03912701 -0.03963078 -0.04003457 -0.04031675 -0.04038011 -0.04021989 -0.03975595 -0.03905067
 -0.03814609 -0.03715004 -0.03619795 -0.03534605 -0.03468643 -0.03420887 -0.03393447 -0.03383104 -0.033897 -0.03408459
 -0.03439202 -0.03473143 -0.03509399 -0.0353798 -0.03557584 -0.03567304 -0.03567101 -0.0356383 -0.03557675 -0.03552891
 -0.03549094 -0.03546357 -0.03544307 -0.03541787 -0.0353858 -0.03533655 -0.03526891 -0.0351762 -0.0350592 -0.03491572
 -0.0347487 -0.0345588 -0.03435124 -0.03412722 -0.03389665 -0.03366184 -0.03343569 -0.0332214 -0.03302851 -0.03285971
 -0.03271401 -0.03259228 -0.03248146 -0.03238088 -0.03227452 -0.0321626 -0.03204212 -0.03191566 -0.03179619 -0.03168564
 -0.03159867 -0.03153278 -0.03149069 -0.03146659 -0.03145263 -0.03144429 -0.03143309 -0.03141854 -0.03139754 -0.03137109
 -0.03133938 -0.03130182 -0.03125825 -0.03120816 -0.03115059 -0.03108997 -0.03102618 -0.03096832 -0.03091721 -0.03087937
 -0.03085516 -0.0308437 -0.03084465 -0.03085359 -0.03087045 -0.03089271 -0.03092043 -0.03095288 -0.03098903 -0.03102655
 -0.03106354 -0.03109591 -0.03112263 -0.03114056 -0.03115092 -0.03115289 -0.03115035 -0.03114466 -0.03114017 -0.03113908
 -0.03114231 -0.03115125 -0.03116144 -0.03117264 -0.03117918 -0.03118033 -0.03117455 -0.03116172 -0.03114474 -0.03112389
 -0.03110312 -0.03108273 -0.0310664 -0.03105444 -0.03105023 -0.03105319 -0.03106438 -0.03108122 -0.03110052 -0.03111885
 -0.03113069 -0.03113541 -0.03112961 -0.03111765 -0.03110033 -0.03108364 -0.03107035 -0.0310622 -0.03106078 -0.03106263
 -0.03106754 -0.03107181 -0.0310749 -0.03107711 -0.03107843 -0.03108109 -0.03108506 -0.03109051 -0.03109725 -0.03110393
 -0.03111084 -0.03111816 -0.03112645 -0.03113749 -0.03115056 -0.03116554 -0.03118093 -0.03119456 -0.03120672 -0.0312162
 -0.03122602 -0.03123762 -0.03125268 -0.03127301 -0.03129539 -0.03131981 -0.03134083 -0.03135747 -0.03136705 -0.03136903
 -0.03136445 -0.03135334 -0.03133921 -0.03132236 -0.0313076 -0.03129501 -0.03128804 -0.03128577 -0.03128675 -0.03128998
 -0.03129169 -0.03129294 -0.0312931 -0.03129533 -0.03130347 -0.03131841 -0.03134316 -0.03137413 -0.0314107 -0.03144807
 -0.03148415 -0.03151675 -0.03154473 -0.03156839 -0.03158758 -0.0316028 -0.03161401 -0.03162253 -0.03162846 -0.03163522
 -0.03164307 -0.03165613 -0.03167411 -0.03169771 -0.03172564 -0.03175379 -0.03178059 -0.03179988 -0.03181172 -0.03181249
 -0.03180544 -0.03179204 -0.03177791 -0.03176797 -0.03176607 -0.0317767 -0.03179747 -0.03182979 -0.03186525 -0.03190244
 -0.03193286 -0.03195441 -0.03196566 -0.03196569 -0.03196216 -0.03195545 -0.03195655 -0.0319656 -0.03198722 -0.03202008
 -0.03205844 -0.0321006 -0.03213678 -0.03216704 -0.03218604 -0.03219607 -0.03219813 -0.03219544 -0.03219219 -0.03219048
 -0.03219401 -0.03220158 -0.03221418 -0.03222772 -0.03224067 -0.03225113 -0.03225759 -0.03226359 -0.03226946 -0.03227844
 -0.0322913 -0.03230457 -0.03231813 -0.03232589 -0.03232791 -0.03232419 -0.03231563 -0.03230814 -0.03230216 -0.03230278
 -0.03230918 -0.03232197 -0.03233997 -0.03236158 -0.0323856 -0.03241013 -0.03243399 -0.03245583 -0.03247435 -0.03248849
 -0.03249739 -0.0325 -0.03249805 -0.03249114 -0.03248444 -0.03247855 -0.03247871 -0.03248572 -0.03250022 -0.03252233
 -0.03254804 -0.03257713 -0.03260555 -0.03263337 -0.03265889 -0.03268252 -0.03270481 -0.03272622 -0.03274826 -0.03277088
 -0.03279489 -0.03281954 -0.03284402 -0.03286851 -0.03289238 -0.03291762 -0.03294515 -0.03297665 -0.03301392 -0.0330536
 -0.03309602 -0.03313346 -0.03316469 -0.03318384 -0.03318966 -0.03318481 -0.03316928 -0.03315345 -0.03313786 -0.03313247
 -0.03313676 -0.0331525 -0.03317803 -0.03320786 -0.03324082 -0.0332711 -0.03329864 -0.03332065 -0.03333768 -0.03334878
 -0.03335602 -0.03336003 -0.03336497 -0.03337334 -0.03338814 -0.03341218 -0.03344234 -0.03347917 -0.033515 -0.03354843
 -0.03357536 -0.03359472 -0.03361033 -0.0336223 -0.03363733 -0.03365541 -0.03367727 -0.03370181 -0.03372178 -0.03373634
 -0.03373753 -0.03372721 -0.03370518 -0.03367592 -0.03364711 -0.03362226 -0.03360934 -0.03360816 -0.03362157 -0.03364735
 -0.03368502 -0.03373259 -0.03378996 -0.03385262 -0.03392073 -0.03398366 -0.03404002 -0.03407883 -0.03409808 -0.03409875
 -0.03408056 -0.03405805 -0.03403195 -0.03401628 -0.03401038 -0.03401675 -0.0340337 -0.03405565 -0.03408217 -0.03410895
 -0.03413723 -0.03416733 -0.03420012 -0.03423741 -0.0342779 -0.03432186 -0.03436556 -0.03440715 -0.03444305 -0.0344709
 -0.03449071 -0.03450126 -0.03450735 -0.0345094 -0.03451288 -0.03451871 -0.03452725 -0.03453868 -0.03454718 -0.03455245
 -0.03454828 -0.03453515 -0.034513 -0.03448374 -0.03445504 -0.03442842 -0.03441259 -0.03440608 -0.03441086 -0.03442344
 -0.03443978 -0.0344588 -0.03447762 -0.03449788 -0.03452069 -0.03454413 -0.03456912 -0.03458774 -0.03459774 -0.03459476
 -0.03457635 -0.03454982 -0.03451529 -0.0344837 -0.03445586 -0.03443484 -0.03442056 -0.03441037 -0.03440439 -0.03440245
 -0.03440478 -0.03441284 -0.03442544 -0.0344401 -0.03445573 -0.03446852 -0.03447996 -0.03449038 -0.0345013 -0.03451516
 -0.03452952 -0.03454413 -0.03455494 -0.03455947 -0.03455828 -0.03455032 -0.03454058 -0.03452983 -0.03452155 -0.03451641
 -0.03451413 -0.03451477 -0.03451652 -0.03451934 -0.03452245 -0.03452599 -0.03453062 -0.0345365 -0.03454464 -0.03455489
 -0.03456756 -0.03458183 -0.03459673 -0.03461027 -0.03461982 -0.03462299 -0.03461612 -0.03460015 -0.03457312 -0.0345419
 -0.03450838 -0.03447969 -0.03445897 -0.03444641 -0.03444331 -0.03444358 -0.03444671 -0.03444751 -0.03444549 -0.03444145
 -0.0344355 -0.03443101 -0.03442779 -0.03442595 -0.03442504 -0.03442279 -0.03441989 -0.03441676 -0.03441499 -0.03441856
 -0.03442638 -0.03443999 -0.03445406 -0.03446466 -0.03446687 -0.03445521 -0.03443196 -0.03439549 -0.03435401 -0.03430936
 -0.0342683 -0.03423274 -0.03420433 -0.03418379 -0.03416847 -0.03415828 -0.03414925 -0.03414137 -0.03413554 -0.03413265
 -0.03414038 -0.03415901 -0.03419532 -0.0342457 -0.03430552 -0.03436706 -0.03441315 -0.03444 -0.03443227 -0.03439922
 -0.03434192 -0.03427518 -0.03420961 -0.03415085 -0.03410546 -0.03406795 -0.03403821 -0.03401001 -0.03398122 -0.03395426
 -0.03392876 -0.03391162 -0.03390338 -0.03390655 -0.03392105 -0.03394402 -0.03397458 -0.03400544 -0.03403453 -0.03404864
 -0.03404696 -0.03401822 -0.03396811 -0.03390118 -0.03382542 -0.03375438 -0.03368995 -0.03363892 -0.03359985 -0.03357369
 -0.03355892 -0.0335562 -0.0335598 -0.03356955 -0.03357415 -0.03357132 -0.03355382 -0.03351968 -0.03347358 -0.03341553
 -0.0333553 -0.03329327 -0.03323566 -0.03318228 -0.0331345 -0.03309158 -0.03305091 -0.03301234 -0.03297353 -0.03293605
 -0.03290227 -0.03287246 -0.03284962 -0.03282872 -0.03280661 -0.03277785 -0.03273636 -0.03268534 -0.03262351 -0.03255944
 -0.03249582 -0.03243643 -0.03238315 -0.03233289 -0.0322856 -0.03223756 -0.03218838 -0.03213877 -0.03208873 -0.0320391
 -0.03198869 -0.03192828 -0.03185582 -0.0317549 -0.03162909 -0.03147791 -0.03131075 -0.03114719 -0.03098985 -0.03085283
 -0.03072849 -0.03061475 -0.03050422 -0.0303895 -0.03027332 -0.03015368 -0.03003974 -0.02993422 -0.02984185 -0.02976536
 -0.02969861 -0.02964252 -0.02957787 -0.0295034 -0.02940158 -0.0292723 -0.02912384 -0.02895769 -0.02879172 -0.02862411
 -0.0284559 -0.02828445 -0.02810174 -0.02790853 -0.02770252 -0.0274851 -0.02725768 -0.02701993 -0.02677136 -0.02651375
 -0.02624924 -0.02597516 -0.02569485 -0.02538928 -0.02505394 -0.02467163 -0.02423363 -0.02375996 -0.02325027 -0.02274042
 -0.02223363 -0.02173965 -0.02125872 -0.02078718 -0.02032551 -0.01987801 -0.01944383 -0.01902345 -0.01861116 -0.01819035
 -0.01775662 -0.01728972 -0.01679761 -0.0162808 -0.01575325 -0.0152311 -0.01471574 -0.0142148 -0.0137197 -0.01322794
 -0.01273459 -0.01223695 -0.01173637 -0.01123521 -0.0107199 -0.01019312 -0.009602116 -0.008942932 -0.008174799 -0.007298487
 -0.006382771 -0.005433463 -0.00453853 -0.003685913 -0.002864444 -0.002058799 -0.001215443 -0.0003318774 0.0006213944 0.001643844
 0.002738618 0.003928783 0.005225073 0.006685917 0.008355381 0.01026577 0.01247413 0.01486368 0.01743325 0.01997222
 0.02242888 0.02471527 0.02680465 0.02873987 0.03052007 0.03222768 0.03386809 0.03555656 0.03730283 0.03925899
 0.04140716 0.04376789 0.04626418 0.04865207 0.0509235 0.05291793 0.05472874 0.05642701 0.0580755 0.0597741
 0.06151638 0.06333087 0.06518825 0.06707969 0.06899129 0.07092458 0.07283397 0.07471454 0.07650455 0.07818974
 0.07978389 0.08128591 0.08273931 0.08414445 0.08546384 0.0866921 0.08775648 0.08866581 0.08942145 0.09004389
 0.0905994 0.09109495 0.09158406 0.09204566 0.09246732 0.09284337 0.09315435 0.09342859 0.09368259 0.09392762
 0.09418058 0.09441479 0.09462695 0.09478682 0.09488524 0.09491676 0.09487722 0.0947864 0.09464449 0.09449061
 0.09432644 0.09417362 0.0940293 0.09387344 0.09370292 0.09349161 0.09323998 0.09293504 0.0925808 0.09217731
 0.09173356 0.09126303 0.09077103 0.0902705 0.08975485 0.08922158 0.08867088 0.08809437 0.08752482 0.08696757
 0.08646424 0.08602894 0.08566088 0.08536404 0.0851111 0.08489952 0.08472218 0.08457906 0.08448629 0.08444443
 0.08446561 0.08454775 0.08468634 0.08487976 0.08511996 0.08540814 0.0857429 0.08612604 0.08655954 0.08704498
 0.08758432 0.08817969 0.08883401 0.08954556 0.09031612 0.09113637 0.09200446 0.09290987 0.0938506 0.09481705
 0.09580913 0.09680711 0.09780958 0.09879539 0.09976399 0.1007305 0.1016988 0.1027205 0.1037897 0.1049101
 0.106057 0.1071462 0.1081746 0.1090863 0.1099082 0.1106634 0.1113557 0.1120059 0.112586 0.1130807
 0.113475 0.1137571 0.1139228 0.1139748 0.1138787 0.1136256 0.1132001 0.1125871 0.11189 0.1111169
 0.1103358 0.109549 0.1086989 0.1077823 0.1067443 0.1055902 0.1043197 0.1029391 0.1014772 0.09991789
 0.09825315 0.09643515 0.09436748 0.09207773 0.08949675 0.0868566 0.08431812 0.08199345 0.08003152 0.07826267
 0.07666083 0.0750855 0.07348622 0.0718673 0.07021829 0.06859844 0.06701412 0.06546904 0.06396306 0.06244855
 0.06092495 0.059366 0.0577811 0.05620536 0.05465084 0.05318077 0.05178861 0.05049643 0.04927917 0.0481084
 0.04696426 0.04581708 0.04465028 0.04345283 0.04218119 0.04081348 0.03930957 0.03761736 0.03587615 0.03408558
 0.03250114 0.03118224 0.03010228 0.02927248 0.02850274 0.02778405 0.02700852 0.02618065 0.02531578 0.02442488
 0.02357902 0.02277421 0.02203317 0.02134901 0.02070895 0.02013021 0.01963101 0.01923411 0.01897937 0.01885289
 0.01886155 0.01897411 0.01917295 0.01945083 0.01979775 0.02022977 0.0207443 0.0213799 0.02213545 0.02309515
 0.02426651 0.02571835 0.02745304 0.02933615 0.03134975 0.03323154 0.03498796 0.0365182 0.03784797 0.03901554
 0.04002794 0.04091693 0.04168663 0.0423432 0.04292822 0.0434759 0.0440579 0.04475363 0.04555412 0.04650789
 0.04746443 0.04837576 0.04916034 0.04977401 0.05027634 0.05066694 0.05102644 0.0513631 0.05171652 0.05208891
 0.05246792 0.05285122 0.05320566 0.05353244 0.05381908 0.05407371 0.0543156 0.05455551 0.05482893 0.05513769
 0.0555026 0.0559149 0.05637093 0.05686878 0.05740434 0.05798237 0.05860718 0.05927114 0.0599758 0.06069949
 0.06143716 0.06217509 0.06290921 0.0636436 0.06437887 0.06511197 0.06584262 0.06652682 0.06716073 0.06768329
 0.0680945 0.06836411 0.06849332 0.06847258 0.06829736 0.06795184 0.06743383 0.06672736 0.06584833 0.06480192
 0.0636214 0.0623327 0.06096135 0.05953138 0.05803965 0.05649049 0.05487452 0.05318144 0.05145473 0.04969175
 0.04799269 0.0463676 0.04487422 0.04351607 0.04226242 0.0411105 0.04001397 0.03897658 0.03799749 0.03708199
 0.03625307 0.03550205 0.0348243 0.0341996 0.03359384 0.0329914 0.03236041 0.03169755 0.03098756 0.0302408
 0.0294549 0.02865408 0.02784415 0.027053 0.02628963 0.02556457 0.02488327 0.02422911 0.02360162 0.02297725
 0.02235465 0.02173606 0.02112398 0.02055292 0.02002472 0.01956997 0.01918361 0.01886426 0.0186052 0.01838928
 0.01821429 0.0180689 0.0179536 0.01786509 0.01780311 0.01776764 0.01775454 0.01776341 0.0177844 0.01781452
 0.01784394 0.01786889 0.01788823 0.01790088 0.01791027 0.01791699 0.0179182 0.01791377 0.01789695 0.01786825
 0.01783213 0.01779162 0.01776665 0.017761 0.0177993 0.01788227 0.0180257 0.01822385 0.01847682 0.01877202
 0.0190977 0.01943658 0.01977412 0.02009002 0.0203713 0.02059948 0.02076458 0.02085809 0.02087469 0.02081908
 0.02069038 0.02049999 0.02024852 0.01994981 0.01960464 0.01923109 0.01883041 0.0184235 0.01801147 0.01761159
 0.0172244 0.01686114 0.01652159 0.01621143 0.01592867 0.0156733 0.01544141 0.01522845 0.01503171 0.01484698
 0.01467496 0.0145144 0.01436848 0.01423828 0.01412549 0.01403134 0.01395348 0.0138922 0.01384167 0.01380142
 0.01376652 0.01373665 0.01371008 0.01368678 0.01366582 0.01364715 0.01362944 0.01361329 0.01359952 0.01359005
 0.01358972 0.01360069 0.01362892 0.01367498 0.01374213 0.01382923 0.0139366 0.01406249 0.01420605 0.01436602
 0.01454207 0.01473209 0.0149362 0.0151492 0.0153709 0.0155927 0.01581397 0.01602511 0.01622553 0.0164069
 0.01656901 0.01670699 0.01682183 0.01691674 0.01699395 0.01706386 0.01712717 0.01719211 0.01725493 0.01731403
 0.01736299 0.01739359 0.0174014 0.01737936 0.01732793 0.01724438 0.01713423 0.01699826 0.01684381 0.01667286
 0.01649029 0.01629725 0.01609593 0.01588649 0.01567245 0.01545399 0.01523561 0.01501726 0.01479925 0.01458065
 0.0143554 0.01412265 0.01387556 0.01361476 0.01333773 0.01304717 0.01274553 0.01243784 0.01212994 0.01182876
 0.01154129 0.01127384 0.01103257 0.01081805 0.01063346 0.0104711 0.01033056 0.01020031 0.01007811 0.009957708
 0.009837734 0.009720751 0.0096068 0.009501218 0.00940414 0.009318259 0.009243313 0.009179002 0.009124842 0.009078441
 0.00904032 0.009009001 0.008989094 0.008986547 0.009008932 0.009068864 0.009167854 0.009313918 0.009497861 0.009716615
 0.009962694 0.01022993 0.0105253 0.01084833 0.01121188 0.01161935 0.01207048 0.01256683 0.01309166 0.01364411
 0.01420581 0.01477638 0.01534894 0.0159244 0.01650576 0.01709336 0.01769052 0.01829615 0.01890914 0.01952842
 0.02015147 0.02077802 0.02140731 0.02203749 0.02266792 0.02329337 0.02391216 0.02451518 0.02510002 0.02565385
 0.02617316 0.02664764 0.02707375 0.02745426 0.02778807 0.02809086 0.02836347 0.02862189 0.02886689 0.02911072
 0.02935491 0.02961555 0.02989477 0.03021053 0.03056193 0.03095675 0.03139064 0.0318596 0.0323596 0.03288446
 0.03343061 0.0339941 0.03456919 0.03515217 0.03573693 0.03631995 0.03689875 0.03747153 0.03803996 0.0386042
 0.03916519 0.0397237 0.04027255 0.04081149 0.04132524 0.04181349 0.04226959 0.04269615 0.04310834 0.04350942
 0.04392249 0.04434497 0.04478358 0.04523028 0.04567366 0.04610766 0.04651906 0.04690799 0.04726881 0.04760743
 0.04792496 0.04822925 0.04852393 0.04881312 0.04909882 0.04938178 0.04966186 0.04994322 0.05022598 0.05051658
 0.05081539 0.05112846 0.05145651 0.05181298 0.05219957 0.05263741 0.05312384 0.05366336 0.05424333 0.05483524
 0.05542208 0.05596047 0.05643832 0.05682293 0.05710927 0.05728021 0.05734098 0.05728545 0.0571363 0.05689726
 0.05660271 0.05626171 0.05590286 0.05553285 0.05516776 0.05480998 0.0544707 0.0541507 0.05386108 0.05360235
 0.05338353 0.05320469 0.05307131 0.05298202 0.05293578 0.05292791 0.05294709 0.05298533 0.05302328 0.05305421
 0.0530604 0.05304254 0.05299361 0.05292117 0.05282825 0.05271942 0.05259922 0.05246173 0.05230626 0.05212693
 0.05192088 0.05169603 0.05145232 0.05120408 0.05095251 0.05069933 0.05044401 0.05017325 0.04988574 0.04956541
 0.04921175 0.04881355 0.04837207 0.04788378 0.0473531 0.04678622 0.04618779 0.04556775 0.04492453 0.04426162
 0.04357186 0.04285134 0.0420966 0.04130308 0.04047846 0.03962226 0.03874994 0.037864 0.03697744 0.03609252
 0.03521236 0.03433748 0.03346416 0.03259231 0.03172004 0.03084769 0.02997697 0.02910837 0.02824431 0.02738626
 0.02653928 0.02570514 0.024891 0.0240939 0.02331424 0.02254493 0.02177835 0.02101398 0.02024716 0.01948674
 0.01873621 0.01799882 0.01727834 0.01656461 0.01585628 0.01514525 0.01442942 0.01371484 0.01300168 0.01229863
 0.01160573 0.01091985 0.01024065 0.00956208 0.008887561 0.008227494 0.007588499 0.006996303 0.006450743 0.005967823
 0.005533443 0.005137288 0.004762082 0.004385462 0.004006248 0.003613734 0.00322343 0.002839342 0.002474346 0.002134523
 0.001819571 0.001531102 0.001262566 0.001013593 0.000777114 0.000552758 0.0003309583 0.000111184 -0.0001168032 -0.0003527139
 -0.0005998982 -0.0008556528 -0.001110779 -0.001360861 -0.001587878 -0.001791014 -0.001957635 -0.002095708 -0.002209105 -0.002309636
 -0.002410976 -0.002516455 -0.002634702 -0.002756628 -0.002881448 -0.002996808 -0.003098616 -0.003180102 -0.00323802 -0.003277162
 -0.003296563 -0.003312921 -0.003327323 -0.003354449 -0.00339438 -0.003441373 -0.003493462 -0.003530608 -0.003553322 -0.003552094
 -0.003531487 -0.00349992 -0.003460686 -0.003425035 -0.003391987 -0.003365075 -0.003341922 -0.003321191 -0.003302033 -0.003282599
 -0.003265831 -0.003251547 -0.003246532 -0.003253599 -0.003273574 -0.003309795 -0.003344104 -0.003376207 -0.003375931 -0.003340816
 -0.003254397 -0.003116691 -0.002939784 -0.002726575 -0.002507014 -0.002282957 -0.00207963 -0.00189486 -0.001736591 -0.001599072
 -0.001475115 -0.001359213 -0.001240117 -0.001116748 -0.0009829794 -0.0008429677 -0.000697406 -0.0005507789 -0.0004059129 -0.0002628798
 -0.0001224066 1.689828E-05 0.0001558449 0.0002912644 0.000423208 0.0005453372 0.0006570078 0.0007577995 0.0008479432 0.0009358216
 0.001022246 0.001118025 0.00122315 0.00134403 0.001478635 0.001625227 0.00177982 0.001933281 0.002083828 0.002223148
 0.002356916 0.002486498 0.002620548 0.002766634 0.002925149 0.003099641 0.00328254 0.003471649 0.003664107 0.00385814
 0.004058181 0.004264909 0.004478955 0.004700807 0.004921091 0.005139304 0.005344703 0.005537897 0.005719119 0.005891019
 0.006066366 0.006246941 0.006446317 0.006660907 0.006891816 0.007130209 0.007364411 0.007587157 0.00778561 0.007961132
 0.008108496 0.008238775 0.008354241 0.008469499 0.008589646 0.008723584 0.008875008 0.009042103 0.009225866 0.009416614
 0.009613944 0.00980456 0.009987784 0.01015124 0.01029561 0.01042076 0.01053058 0.0106438 0.01076359 0.01091144
 0.0110831 0.01128143 0.01149818 0.01172113 0.01194936 0.01217536 0.01240717 0.01264797 0.01290439 0.01318195
 0.01347763 0.0137932 0.01411756 0.01444938 0.01477628 0.01509657 0.01540121 0.01568942 0.01595335 0.01619263
 0.01640153 0.0165814 0.01674118 0.01688527 0.01704071 0.01720909 0.01741147 0.01764191 0.01789833 0.0181746
 0.01846041 0.01875388 0.01905295 0.01934589 0.01962899 0.01987669 0.02007443 0.02021227 0.02027743 0.02029901
 0.02027771 0.0202581 0.02024743 0.02026502 0.020314 0.02038356 0.02047315 0.0205688 0.0206709 0.02077895
 0.0208929 0.02101386 0.02113753 0.02125109 0.02135071 0.02141902 0.02146275 0.02148123 0.02149006 0.0215051
 0.02153617 0.02159723 0.02168435 0.02180111 0.02193446 0.02208239 0.02222826 0.02236827 0.02249049 0.02259115
 0.02267796 0.02275029 0.0228343 0.02293123 0.02306178 0.02322496 0.02341869 0.02364035 0.0238749 0.02412215
 0.02437243 0.02462968 0.02489731 0.02517942 0.02548604 0.02581204 0.02615977 0.02651188 0.0268583 0.02718201
 0.02747066 0.02772134 0.02792788 0.02810335 0.02824656 0.02838612 0.02852422 0.0286961 0.02890538 0.02916714
 0.02948174 0.02983072 0.03021197 0.03059661 0.0309848 0.03136254 0.03173109 0.03208825 0.03243238 0.03276011
 0.03306645 0.03334371 0.03358489 0.03377982 0.03392451 0.03400986 0.03404554 0.03403015 0.0339871 0.03392277
 0.03385809 0.03379922 0.03375564 0.03372936 0.03372642 0.03374748 0.03379661 0.03387394 0.03397641 0.03410335
 0.03424719 0.03440663 0.03457123 0.03473981 0.0349015 0.03505951 0.03521512 0.03537256 0.03554217 0.03571668
 0.03589216 0.03606265 0.03621265 0.03637394 0.03654993 0.03679923 0.03715691 0.03759166 0.03811889 0.03860364
 0.03902147 0.03934075 0.03955265 0.03971872 0.03984169 0.03996124 0.04007599 0.04018389 0.04028126 0.04034742
 0.04038114 0.04036587 0.04030633 0.04020263 0.04006507 0.03990889 0.03974284 0.03958104 0.03943063 0.03929891
 0.03919709 0.03913479 0.0391099 0.03912958 0.03916238 0.03920318 0.03922369 0.0392159 0.03919094 0.03914839
 0.0391116 0.03908154 0.03905509 0.0390312 0.03899607 0.03895019 0.03889142 0.03881694 0.03871843 0.03858795
 0.03840004 0.03815878 0.03785033 0.03750666 0.03715022 0.03682659 0.03657871 0.03642651 0.03640306 0.03646658
 0.03661869 0.03678105 0.0369303 0.03704639 0.03711484 0.03720424 0.03732034 0.03750338 0.03775501 0.03800847
 0.03825967 0.03843551 0.03854446 0.03859694 0.03860296 0.03860391 0.03859852 0.03860233 0.03861535 0.03864291
 0.03868883 0.03876167 0.03885608 0.03897281 0.0390999 0.03923154 0.03935942 0.03947981 0.03958646 0.03967699
 0.03974948 0.03980257 0.03984262 0.0398703 0.0398871 0.03989308 0.0398803 0.03984929 0.03980363 0.03974574
 0.0396927 0.03964314 0.03960265 0.03956551 0.03952114 0.03946588 0.03938943 0.03929009 0.03916066 0.03900557
 0.03882012 0.03862844 0.03843691 0.03828186 0.03817858 0.03814502 0.03819211 0.03830492 0.03848575 0.03869623
 0.03893416 0.03915422 0.03935387 0.03950344 0.03960326 0.03965032 0.03964567 0.03959314 0.03949333 0.03934742
 0.03916184 0.03895208 0.03872305 0.03849403 0.03825386 0.03799596 0.03771514 0.03739509 0.03706891 0.03674687
 0.03646521 0.03624857 0.03607458 0.0359473 0.03581478 0.03566553 0.03549635 0.03530324 0.03513068 0.03498091
 0.03487011 0.034794 0.03470177 0.03458605 0.03437296 0.03406923 0.03365042 0.03314709 0.03261577 0.03208705
 0.03164408 0.03127776 0.03101541 0.03082366 0.03068019 0.03057746 0.03050374 0.03046572 0.03047156 0.03048958
 0.03051912 0.03050307 0.03042878 0.03028619 0.03006941 0.02983711 0.02959233</values></Ydata></AB><ScSm><Ydata ylabel="Single channel"><values byteorder="INTEL" format="FLOAT32" numvalues="1814"> 0.06524765 0.06524196 0.06530517 0.06546029 0.06567697 0.06588725 0.06603284 0.06610351 0.06612082 0.06609482
 0.06603061 0.06597628 0.06601477 0.06618208 0.06641437 0.06659136 0.06663424 0.06657701 0.06654564 0.06663185
 0.0667643 0.06673463 0.06639317 0.06582175 0.06528046 0.0649719 0.06491669 0.06510194 0.06560823 0.06637615
 0.06694092 0.06676255 0.0659041 0.06506366 0.06479973 0.06499483 0.06518424 0.06509858 0.06474476 0.06428976
 0.06410691 0.06468365 0.06614043 0.06782473 0.06854396 0.06732336 0.0641054 0.05996299 0.05669851 0.05587853
 0.05773184 0.06083681 0.0631872 0.06379225 0.06315003 0.06223016 0.06143184 0.06071028 0.06025112 0.06050717
 0.06157193 0.06275593 0.06294265 0.06154544 0.05920764 0.05734389 0.05684809 0.05753574 0.05890479 0.06068216
 0.06205714 0.06124671 0.0572507 0.05206705 0.0497968 0.05274573 0.05896592 0.06415939 0.06549779 0.06321026
 0.0593445 0.05607172 0.05486326 0.05609086 0.05896022 0.06216919 0.06469562 0.06584945 0.06510017 0.06253514
 0.05931291 0.05710786 0.05708392 0.0594303 0.06331666 0.06697752 0.06852084 0.06732219 0.0644359 0.06148463
 0.05959419 0.05939889 0.06120361 0.06466846 0.06878236 0.07244399 0.07491398 0.07589933 0.07561509 0.07464342
 0.07349126 0.07251036 0.07220402 0.0729146 0.0740104 0.07412699 0.0726494 0.0705305 0.06930859 0.06951578
 0.07025468 0.07029378 0.06931822 0.06772994 0.0654257 0.0617604 0.05702032 0.05283419 0.05054494 0.05017769
 0.05139719 0.05403495 0.05696348 0.05803579 0.05643901 0.0541902 0.05414154 0.05693747 0.0606827 0.0632465
 0.06423344 0.06483073 0.06628521 0.06863134 0.07053277 0.0702889 0.06751865 0.06410973 0.06288422 0.06482767
 0.06814025 0.07044967 0.07131197 0.0719555 0.07313139 0.07395098 0.07281642 0.06932722 0.06530157 0.06365049
 0.0658378 0.07040923 0.0740488 0.07403369 0.0700627 0.06431297 0.05974445 0.05805943 0.05925179 0.06273054
 0.06796959 0.07391237 0.07870707 0.0807481 0.07984769 0.07713339 0.07376009 0.06984638 0.06509489 0.06056758
 0.05889273 0.06178286 0.0678512 0.07376786 0.07722347 0.07807818 0.07708287 0.07447222 0.07016735 0.06511793
 0.06173975 0.06204487 0.06521577 0.06806685 0.06837426 0.06690173 0.0657627 0.06579022 0.06622844 0.06634656
 0.06648161 0.06745683 0.06939808 0.07142028 0.07248057 0.07232706 0.07154286 0.07086728 0.07052412 0.0700606
 0.06898283 0.06773701 0.06766099 0.06952425 0.07247414 0.07490934 0.076083 0.07638294 0.07627671 0.07549341
 0.07342765 0.07029578 0.06761241 0.06707108 0.06890784 0.07175383 0.07405827 0.07519904 0.07534041 0.07488388
 0.07419521 0.07347748 0.07282495 0.07248388 0.07279563 0.07371186 0.07467821 0.0751929 0.07522237 0.07495255
 0.07442701 0.07361494 0.07266857 0.07193654 0.07171671 0.07203512 0.0726727 0.07335859 0.07387236 0.07402827
 0.07374532 0.07316813 0.07257253 0.07211618 0.07179435 0.07162195 0.07168902 0.07199733 0.07237783 0.07263465
 0.07269922 0.0726109 0.0724173 0.07214152 0.0718133 0.07149923 0.07129902 0.07128584 0.07142147 0.0715723
 0.0716554 0.07171838 0.07181588 0.07187395 0.07176953 0.07150562 0.07122027 0.07103941 0.07098204 0.07099177
 0.07099473 0.07090996 0.07065602 0.07022144 0.06974541 0.0694622 0.06951331 0.06984426 0.07029594 0.07072624
 0.07103024 0.07114787 0.07110976 0.07101019 0.07089711 0.07073541 0.07049497 0.0702365 0.07009362 0.07017018
 0.07044294 0.07077129 0.07101549 0.07112777 0.07113589 0.07110014 0.07109572 0.07116134 0.07123889 0.07122628
 0.07110867 0.07098699 0.07096256 0.07102954 0.07109166 0.07107 0.07098815 0.07094502 0.07100382 0.07113049
 0.07124982 0.0713302 0.07139441 0.07146616 0.07152295 0.07150663 0.07139076 0.07123029 0.07111422 0.0710731
 0.07107101 0.0710838 0.0711349 0.07124034 0.07135846 0.07142246 0.07141304 0.07137726 0.07136713 0.07137328
 0.0713398 0.07124062 0.07111382 0.07101661 0.07097046 0.07095751 0.07094923 0.07092633 0.07088102 0.07081253
 0.07072365 0.07061943 0.07050636 0.07039615 0.07031499 0.07029702 0.07034708 0.07041046 0.07040311 0.07028688
 0.07010821 0.06995295 0.06986364 0.06980683 0.06972042 0.06958191 0.06942274 0.06928732 0.0691956 0.0691408
 0.06910256 0.06905977 0.06901107 0.06899063 0.06904346 0.06916839 0.06929829 0.06935822 0.06933887 0.06929555
 0.06928293 0.06931195 0.06936477 0.06942752 0.06950583 0.06961833 0.06976813 0.06991842 0.07001904 0.07006586
 0.07010944 0.07019816 0.07034004 0.07051985 0.07071371 0.07088043 0.07098148 0.07102948 0.07108668 0.07119846
 0.07135054 0.07150289 0.07164221 0.07178262 0.07193294 0.07208928 0.07225767 0.07246353 0.07272698 0.0730335
 0.07333417 0.07357982 0.07376288 0.07393022 0.07414822 0.07444854 0.07480477 0.07515858 0.07546706 0.0757315
 0.07598479 0.07625028 0.07652082 0.07678811 0.07707675 0.07742143 0.07781626 0.07821526 0.07858327 0.07892379
 0.07925825 0.07960153 0.07996047 0.08034022 0.08074376 0.08116539 0.08158222 0.08195888 0.08227429 0.08254473
 0.08281404 0.08312361 0.08349005 0.08389093 0.0842644 0.08455065 0.08475636 0.08495894 0.08522326 0.08553089
 0.08581943 0.08607634 0.08635574 0.08670057 0.08708286 0.08743904 0.0877433 0.08802591 0.08832607 0.08864272
 0.08893323 0.08915643 0.08931595 0.08945829 0.08962755 0.08983517 0.09008228 0.09038725 0.09076004 0.09116054
 0.09151663 0.09178475 0.09197307 0.09211607 0.09225152 0.09241133 0.09260467 0.09281233 0.09301057 0.09318843
 0.09333606 0.09344666 0.09354688 0.09369355 0.09391704 0.09419344 0.09449103 0.0948134 0.09517051 0.09553753
 0.09588227 0.09622023 0.09659749 0.09701298 0.09739456 0.09767285 0.09785153 0.09798317 0.09810555 0.09823875
 0.09842151 0.09869801 0.09906368 0.09946083 0.09983689 0.1001833 0.1005137 0.1008275 0.1011063 0.1013336
 0.1015081 0.1016443 0.1017658 0.1019021 0.1020841 0.1023243 0.102596 0.1028445 0.1030268 0.1031297
 0.103147 0.1030673 0.1029051 0.1027179 0.1025591 0.1024141 0.1022046 0.1018563 0.1013464 0.1006881
 0.0998951 0.0989819 0.09799057 0.09700137 0.096108 0.09538461 0.09487727 0.09462061 0.09464557 0.09495448
 0.09548574 0.09611481 0.09669737 0.09710769 0.09724487 0.09703862 0.09648053 0.09564276 0.094645 0.09360098
 0.09259363 0.09167236 0.09085387 0.09014815 0.08961506 0.08939075 0.08963612 0.09044975 0.09181777 0.09361754
 0.09565043 0.09769326 0.09956499 0.1011804 0.1025521 0.1037417 0.1048069 0.105791 0.1067331 0.1076568
 0.1085478 0.1093666 0.1100922 0.1107379 0.1113231 0.111846 0.1122849 0.1126171 0.112837 0.1129627
 0.1130222 0.1130301 0.112993 0.1129356 0.1128991 0.1128994 0.1128953 0.112806 0.1125572 0.1121241
 0.1115646 0.1110409 0.1108004 0.1110958 0.1120687 0.1136709 0.1156853 0.1178323 0.119875 0.1216606
 0.1231159 0.1242396 0.1250953 0.12578 0.1263791 0.126941 0.1274829 0.1280064 0.1285095 0.1289923
 0.129459 0.1299158 0.1303705 0.1308272 0.1312781 0.1317036 0.132092 0.1324594 0.1328419 0.1332639
 0.1337125 0.1341518 0.1345615 0.1349559 0.135356 0.1357509 0.1361082 0.1364193 0.1367161 0.1370403
 0.1374097 0.137813 0.1382181 0.1385867 0.1388993 0.1391723 0.1394409 0.1397268 0.1400278 0.1403338
 0.1406413 0.1409507 0.1412624 0.1415791 0.1419072 0.142245 0.1425703 0.1428535 0.1430902 0.1433118
 0.1435562 0.1438316 0.144114 0.1443783 0.1446254 0.144883 0.1451803 0.1455186 0.1458637 0.1461731
 0.1464312 0.1466566 0.1468788 0.1471162 0.147374 0.1476509 0.1479389 0.1482236 0.1484924 0.1487473
 0.1490026 0.1492714 0.1495536 0.1498392 0.1501188 0.1503904 0.1506598 0.1509344 0.1512202 0.1515214
 0.1518376 0.1521588 0.1524663 0.1527463 0.1530005 0.1532423 0.1534833 0.1537276 0.1539764 0.1542316
 0.1544933 0.1547577 0.1550211 0.1552831 0.1555469 0.1558143 0.156085 0.156359 0.1566389 0.1569268
 0.157221 0.1575167 0.1578079 0.1580881 0.1583527 0.1586034 0.1588492 0.1591008 0.1593636 0.159634
 0.1599016 0.1601575 0.1604034 0.1606492 0.1609009 0.1611549 0.1614041 0.161647 0.1618866 0.1621261
 0.1623664 0.1626085 0.1628544 0.1631055 0.1633606 0.1636176 0.1638784 0.1641455 0.164415 0.1646774
 0.1649271 0.1651688 0.1654146 0.1656739 0.1659457 0.1662195 0.166485 0.166739 0.1669823 0.1672177
 0.1674507 0.1676871 0.1679298 0.1681791 0.168434 0.1686898 0.1689406 0.1691869 0.1694356 0.1696911
 0.1699519 0.1702127 0.1704675 0.1707146 0.1709611 0.1712168 0.1714832 0.1717523 0.1720154 0.1722687
 0.1725152 0.1727647 0.173025 0.1732925 0.1735561 0.1738076 0.1740444 0.1742685 0.1744861 0.1747047
 0.1749283 0.1751589 0.1753981 0.1756435 0.1758898 0.1761361 0.1763847 0.1766352 0.1768851 0.1771349
 0.1773851 0.1776354 0.1778857 0.1781346 0.1783795 0.1786222 0.1788685 0.1791211 0.1793803 0.1796481
 0.1799229 0.1801959 0.1804624 0.1807257 0.1809875 0.1812454 0.1815007 0.1817561 0.1820103 0.1822612
 0.1825091 0.1827539 0.1829979 0.1832486 0.1835086 0.183773 0.1840395 0.1843081 0.1845703 0.1848166
 0.1850525 0.1852913 0.1855404 0.1858016 0.1860719 0.1863389 0.186592 0.1868355 0.1870774 0.1873201
 0.1875686 0.1878279 0.1880902 0.1883455 0.188596 0.1888458 0.189092 0.1893346 0.1895725 0.1897844
 0.189921 0.189864 0.189312 0.1876591 0.1839895 0.1772758 0.1667984 0.152604 0.1356429 0.1174301
 0.09949628 0.08300087 0.06862196 0.05664545 0.04711885 0.03995533 0.03499427 0.03209519 0.03124005 0.03264666
 0.03689354 0.04457812 0.05501405 0.06507289 0.07039828 0.06884631 0.06253603 0.05591742 0.05207191 0.0512202
 0.05204456 0.0534136 0.0549643 0.05690345 0.05959355 0.06314205 0.06737691 0.0722867 0.07824244 0.08552781
 0.09376504 0.1020693 0.109815 0.1171316 0.1246052 0.1325743 0.1407736 0.1485957 0.1555762 0.1616267
 0.1669399 0.1717744 0.1763057 0.1806068 0.1847029 0.1885825 0.1921168 0.1950165 0.1969647 0.1978606
 0.1979422 0.1976524 0.1973749 0.1972828 0.1973889 0.1976672 0.1981061 0.198698 0.199424 0.2002497
 0.201129 0.2020219 0.2029073 0.2037744 0.2046101 0.2054023 0.2061436 0.2068263 0.2074459 0.2080079
 0.2085242 0.2090011 0.20944 0.2098436 0.2102177 0.2105716 0.2109156 0.2112529 0.2115774 0.2118837
 0.2121732 0.2124481 0.2127066 0.2129475 0.2131754 0.2133995 0.2136284 0.2138657 0.2141059 0.2143394
 0.2145621 0.2147783 0.2149936 0.2152089 0.2154234 0.2156382 0.2158577 0.2160862 0.2163233 0.2165625
 0.2167977 0.2170268 0.2172495 0.2174657 0.2176781 0.2178923 0.2181124 0.2183396 0.2185716 0.2188011
 0.2190224 0.2192429 0.2194775 0.2197284 0.2199831 0.2202302 0.2204681 0.2207023 0.2209442 0.2212002
 0.2214545 0.221676 0.2218524 0.2220096 0.222191 0.2224205 0.2226838 0.222943 0.2231749 0.22339
 0.223611 0.2238418 0.2240661 0.2242682 0.224453 0.2246547 0.2249126 0.2252246 0.225544 0.2258341
 0.2260975 0.2263483 0.2265922 0.2268405 0.2270989 0.2273396 0.2275239 0.2276641 0.2278384 0.228128
 0.2285375 0.2289797 0.2293542 0.2296388 0.2298856 0.2301519 0.2304585 0.2307747 0.2310002 0.2310351
 0.2309391 0.2309534 0.2312782 0.2318715 0.2325214 0.2330604 0.2334625 0.2337859 0.2340836 0.2343523
 0.2345345 0.2345821 0.2345465 0.2345998 0.2349115 0.2354726 0.2360884 0.2365784 0.2369211 0.2371828
 0.2374099 0.2376203 0.2377698 0.2376973 0.23729 0.2367777 0.2366738 0.2372792 0.2383433 0.2393329
 0.2399619 0.2403366 0.2406545 0.24096 0.2412063 0.2412988 0.2409701 0.2399326 0.2384353 0.2374228
 0.2377542 0.2393388 0.2412894 0.242808 0.2436902 0.2441364 0.2444059 0.2446398 0.2447542 0.2444546
 0.2435654 0.2424582 0.2419579 0.2425866 0.2439786 0.2452691 0.2459745 0.2462599 0.2464848 0.2467981
 0.2470264 0.2466373 0.2450541 0.2425017 0.2404122 0.2404126 0.2427375 0.2459479 0.2483562 0.2494773
 0.249892 0.249996 0.2494182 0.2476843 0.2449308 0.2418485 0.2394462 0.2388923 0.2407462 0.2440106
 0.2466995 0.2477925 0.2480975 0.2489309 0.2505494 0.2521617 0.2529509 0.2527072 0.2516869 0.2501591
 0.2482726 0.2464721 0.2457584 0.246983 0.2498135 0.2528436 0.2548945 0.2559132 0.2563644 0.2558587
 0.2528731 0.2465843 0.2391649 0.2351872 0.237587 0.2445922 0.2516251 0.2558059 0.2575338 0.2583385
 0.2588275 0.2585152 0.2561118 0.2502401 0.2416127 0.2343801 0.2333142 0.2390896 0.247522 0.2534726
 0.2543377 0.2503119 0.2434697 0.237159 0.2346365 0.2370918 0.2431237 0.2501278 0.2558615 0.2590578
 0.2594136 0.2574763 0.2546127 0.2526752 0.2526569 0.2532259 0.251739 0.2475832 0.2432009 0.2405128
 0.2379573 0.2333837 0.2287517 0.2288347 0.2350054 0.2429405 0.2474797 0.2478574 0.2467776 0.2454951
 0.2416793 0.2327808 0.2208661 0.2127027 0.2138378 0.2228433 0.2325842 0.2371881 0.2367107 0.235068
 0.2348146 0.2345372 0.2308584 0.2228351 0.2142045 0.2102533 0.2122228 0.2162126 0.2178246 0.2156987
 0.2100215 0.2011011 0.1918331 0.1886119 0.195946 0.2109444 0.2255729 0.2332636 0.2313437 0.2196315
 0.201306 0.1847343 0.1794102 0.1874909 0.2011811 0.2098827 0.2086176 0.1989659 0.1845108 0.1683182
 0.1542875 0.1476714 0.1519519 0.1652831 0.1805663 0.1890577 0.1852335 0.1710195 0.1560056 0.1505517
 0.1564618 0.1658022 0.1697886 0.1667317 0.160844 0.1567459 0.15675 0.1605124 0.1654591 0.1691805
 0.1713547 0.1711547 0.164682 0.1496795 0.1318899 0.1212921 0.1217197 0.1288978 0.1384403 0.1497652
 0.1608823 0.1657214 0.1609733 0.1523575 0.1497488 0.1567009 0.1674039 0.1737833 0.1734989 0.1703759
 0.1685153 0.1679251 0.1665619 0.1650664 0.1669362 0.1736676 0.1820905 0.1878828 0.1900555 0.190555
 0.1909579 0.1912759 0.1910769 0.1902055 0.1887188 0.1870009 0.1856408 0.1847717 0.1839543 0.1828485
 0.1811977 0.1778473 0.1710055 0.1607907 0.1508321 0.1454195 0.1449911 0.1464025 0.1476063 0.1488898
 0.1485617 0.1416717 0.1265712 0.1103379 0.1036262 0.110371 0.1248694 0.1382874 0.1453953 0.1449905
 0.1372915 0.1242497 0.1118358 0.1081459 0.1167379 0.1331919 0.1498652 0.1624866 0.1705334 0.1735279
 0.1703819 0.1622016 0.1533532 0.1489639 0.1518395 0.1612277 0.1729824 0.1805221 0.1780623 0.1664561
 0.1558408 0.158112 0.1743211 0.1927633 0.2021192 0.2029412 0.2028909 0.2048445 0.2055327 0.2040486
 0.2051814 0.2128585 0.2243493 0.232935 0.2337927 0.2258994 0.2113704 0.1958618 0.1870923 0.1887167
 0.1962558 0.2020212 0.2025842 0.1983609 0.1890596 0.1754754 0.1642421 0.1638812 0.1749329 0.1887777
 0.1974433 0.2008697 0.2033469 0.2060792 0.2057158 0.1994334 0.1896441 0.1825019 0.1818149 0.1857184
 0.1898337 0.1918771 0.1917071 0.1887415 0.1823225 0.1746167 0.170623 0.1738666 0.182786 0.1922082
 0.1979813 0.199587 0.1989281 0.1978486 0.1968616 0.1953139 0.1926942 0.1903075 0.1909902 0.1960359
 0.203059 0.208413 0.2113491 0.2142551 0.2189265 0.2241035 0.227013 0.2264153 0.2238152 0.2221839
 0.2235822 0.227503 0.2312252 0.2321258 0.2301704 0.2281735 0.229203 0.2336501 0.2391787 0.2433617
 0.2456563 0.2469062 0.2479114 0.248739 0.248687 0.2468243 0.2433308 0.2402964 0.2402564 0.243678
 0.2484987 0.2522367 0.2539812 0.2542868 0.2538502 0.2527896 0.2510204 0.2488888 0.24718 0.2465262
 0.2469653 0.2480969 0.2494812 0.2508197 0.2519456 0.2528187 0.253489 0.2540037 0.2543866 0.2546916
 0.2549732 0.2551941 0.2552696 0.2552386 0.2552909 0.2555579 0.2559448 0.2562375 0.256305 0.2561086
 0.2555792 0.2546315 0.253306 0.25177 0.2501333 0.2483699 0.2465259 0.2449723 0.2443145 0.2449463
 0.2466846 0.2488776 0.2508611 0.2522966 0.2531669 0.2536036 0.253773 0.2538306 0.2538762 0.2539282
 0.2539539 0.2539279 0.2538562 0.253754 0.2536263 0.2534848 0.2533682 0.2533209 0.2533486 0.253407
 0.2534322 0.2533734 0.25321 0.2529551 0.2526397 0.2522752 0.2518282 0.2512427 0.2504979 0.249643
 0.2487727 0.2479644 0.2472308 0.2465172 0.2457429 0.2448487 0.2438053 0.2425905 0.2411966 0.2396828
 0.2381808 0.2368036 0.2355566 0.234358 0.2331192 0.231787 0.2303427 0.2287992 0.2271906 0.2255456
 0.2238752 0.2221873 0.2204965 0.2188157 0.2171468 0.2154803 0.2138007 0.2120944 0.2103522 0.2085622
 0.2066914 0.204673 0.2024115 0.1998027 0.196753 0.1931929 0.189103 0.1845486 0.179686 0.1747217
 0.1698549 0.1652404 0.1609823 0.1571515 0.1538096 0.1510179 0.1488277 0.1472749 0.1463815 0.1461516
 0.146567 0.147588 0.1491493 0.1511473 0.1534401 0.1558614 0.1582338 0.1603984 0.1622808 0.1639359
 0.1655056 0.1671108 0.1687777 0.1704536 0.172069 0.1735768 0.1749441 0.1761382 0.177137 0.177948
 0.1786015 0.179129 0.1795531 0.1798934 0.180176 0.1804292 0.1806698 0.1809001 0.1811303 0.1813939
 0.1817241 0.1821227 0.1825733 0.1830784 0.1836656 0.1843608 0.1851649 0.1860573 0.1870184 0.188049
 0.1891661 0.1903852 0.1917183 0.193184 0.1948034 0.1965826 0.1985066 0.2005404 0.2026268 0.2046892
 0.2066402 0.2083923 0.2098811 0.2110956 0.2120757 0.2128689 0.2135007 0.2139904 0.2143699 0.2146722
 0.21491 0.2150761 0.2151639 0.2151771 0.2151148 0.2149582 0.2146973 0.2143677 0.2140316 0.213717
 0.2134037 0.2130665 0.2127049 0.2123315 0.211957 0.2115921 0.2112436 0.210905 0.2105559 0.2101743
 0.209751 0.2092856 0.2087659 0.20816 0.2074392 0.2065973 0.2056374 0.2045597 0.2033734 0.2020997
 0.2007472 0.1993049 0.1977659 0.196141 0.194446 0.1926835 0.1908379 0.1888905 0.1868555 0.1847998
 0.1828068 0.1809194 0.1791301 0.1774157 0.1757678 0.1741977 0.1727206 0.1713322 0.1700063 0.1687221
 0.167487 0.1663205 0.1652277 0.1641978 0.1632231 0.1623146 0.1614995 0.1607959 0.1601905 0.1596497
 0.1591524 0.1587021 0.1583189 0.1580309 0.1578558 0.1577721 0.157718 0.1576266 0.1574574 0.157209
 0.1569185 0.1566393 0.156403 0.1562063 0.1560292 0.1558377 0.1555679 0.1551335 0.1544557 0.153483
 0.152198 0.1506236 0.1488231 0.1468972 0.1449807 0.1432169 0.1417083 0.1404905 0.1395459 0.1388208
 0.1382391 0.1377352 0.1372895 0.1369345 0.1367273 0.1366884 0.1367407 0.1367414 0.1366232 0.1364839
 0.1365005 0.1367737 0.1372683 0.1378626 0.138429 0.1388906 0.1392272 0.1394475 0.1395749 0.1396439
 0.1396683 0.1396225 0.1394816 0.1392585 0.1389782 0.1386473 0.1382626 0.1378178 0.1372986 0.1366958
 0.1360114 0.1352421 0.1343857 0.1334527 0.1324322 0.131289 0.1300619 0.1289351 0.1281555 0.1278899
 0.128148 0.1287802 0.1295713 0.1303863 0.1311665 0.1317597 0.1319422 0.1317729 0.1317943 0.1326426
 0.1344233 0.1365816 0.1384024 0.1395289 0.1399823 0.1398748 0.139273 0.1382356 0.1367861 0.1348844
 0.1325387 0.1298726 0.1270225 0.1240989 0.1212662 0.1187085 0.1165212 0.1147237 0.1133124 0.112326
 0.1118872 0.111642 0.1098239 0.1041882 0.09547202 0.08892607 0.08990024 0.09783058 0.1066323 0.1111288
 0.1111784 0.1095464 0.1081469 0.1072688 0.1068038 0.1068762 0.1076114 0.108878 0.1102867 0.1114261
 0.1121354 0.1124714 0.1124154 0.1116547 0.1095362 0.1052794 0.09859841 0.09027802 0.08191736 0.07498103
 0.07012793 0.06723766 0.06574709 0.06498626 0.06449957 0.06423751 0.06445656 0.06541763 0.0671654 0.06956205
 0.07243437 0.07556545 0.0785906 0.08112288 0.08305118 0.08455871 0.08580475 0.08673495 0.08722243 0.08724582
 0.08689623 0.08631187 0.08562791 0.084916 0.08413625 0.08318572 0.08205769 0.08095903 0.08018784 0.07985502
 0.07980394 0.07982318 0.07982682 0.07981011 0.07976459 0.07968387 0.07958312 0.07951713 0.07960469 0.07995217
 0.08050865 0.08107613 0.08148979 0.08173326 0.08188659 0.08198629 0.08191405 0.08148925 0.08076088 0.08006313
 0.07959291 0.0790927 0.07821996 0.07711594 0.07632281 0.07617834 0.07651012 0.07689454 0.07702811 0.07686175
 0.07657588 0.07650113 0.07689766 0.07765017</values></Ydata></ScSm><ScRf><Ydata ylabel="Single channel"><values byteorder="INTEL" format="FLOAT32" numvalues="1820"> 0.0607174 0.0608727 0.06097118 0.06100989 0.06100968 0.0610145 0.06107466 0.06121454 0.06141087 0.06160256
 0.06173177 0.06178365 0.06177905 0.06173573 0.06166684 0.06161832 0.06166226 0.0618254 0.06204312 0.06220175
 0.06222921 0.06215939 0.06211211 0.06217742 0.0622944 0.06226956 0.06195674 0.06142503 0.06091676 0.06062449
 0.06056662 0.06072791 0.0611875 0.06190083 0.06243863 0.06228764 0.06149383 0.06070544 0.06044933 0.06062103
 0.06078683 0.06069311 0.06034642 0.05990712 0.05972972 0.06027143 0.0616413 0.06322378 0.06389793 0.06274556
 0.05970941 0.05579885 0.05271318 0.05192949 0.05366591 0.05658855 0.05881071 0.05939572 0.05880756 0.05795747
 0.05721658 0.05653083 0.05606854 0.05626836 0.05724059 0.05834651 0.0585277 0.0572211 0.05502806 0.05327793
 0.05280792 0.05344426 0.05472286 0.05639607 0.05770145 0.0569532 0.05320168 0.0483238 0.04618274 0.04895698
 0.05481818 0.05971437 0.06097181 0.05880772 0.05516718 0.05210521 0.05099254 0.0521512 0.05482058 0.05778702
 0.06011065 0.06115896 0.06044203 0.05804409 0.05504577 0.05300155 0.05298619 0.05517329 0.05879625 0.06221551
 0.06366178 0.0625419 0.05983583 0.05706523 0.05529095 0.05510858 0.05680019 0.06004748 0.06390925 0.06735584
 0.06968439 0.07060546 0.07031909 0.06938951 0.06831372 0.06742203 0.06716289 0.06783343 0.0688394 0.06891784
 0.06750672 0.0655015 0.06434067 0.06452335 0.06521234 0.06525396 0.06434713 0.06286138 0.06069864 0.05725961
 0.0528193 0.04890639 0.04677609 0.04644749 0.04760677 0.05010068 0.05287358 0.05390582 0.05242518 0.05031758
 0.05025902 0.052859 0.05634597 0.05872705 0.05963718 0.06019514 0.06157093 0.06378923 0.06558496 0.06535695
 0.06275159 0.05954798 0.05839802 0.06022449 0.06333566 0.06550876 0.06633633 0.06697571 0.06812388 0.06893311
 0.06789948 0.06465493 0.06091218 0.05939707 0.06147287 0.06577355 0.06919359 0.06918119 0.06545737 0.06007748
 0.05583061 0.05430923 0.05549474 0.0588325 0.06384046 0.06953277 0.07416366 0.07620701 0.07546066 0.07296704
 0.06981973 0.06615086 0.0616921 0.05745425 0.05594274 0.05879952 0.06470485 0.07047011 0.07387967 0.07480203
 0.07395902 0.07156163 0.06751031 0.06271662 0.0595408 0.05995928 0.06318166 0.06609483 0.06651872 0.06519413
 0.06419045 0.06433107 0.06488055 0.06512339 0.06539627 0.06651734 0.06860866 0.07078101 0.07198535 0.07196245
 0.07129484 0.07073559 0.07052566 0.0702127 0.06928962 0.06820071 0.06829928 0.07036193 0.07351722 0.07613796
 0.07747448 0.07793425 0.07799426 0.07735789 0.07538073 0.07228284 0.0696488 0.06925462 0.07135044 0.0745005
 0.07707441 0.07842126 0.07872455 0.07841343 0.07786773 0.0772952 0.07679716 0.07663351 0.07715537 0.07830369
 0.07949504 0.08020446 0.08039597 0.08026204 0.07985002 0.07913753 0.07829884 0.07770623 0.07766272 0.078179
 0.07901917 0.07990882 0.08062704 0.08097113 0.0808347 0.08035989 0.07985213 0.0795026 0.07932033 0.07932141
 0.07959242 0.08011775 0.08069732 0.08111569 0.08131322 0.08135216 0.08129181 0.08114871 0.08094141 0.08073827
 0.08065623 0.08078132 0.08106649 0.08136103 0.08158537 0.08180967 0.0820931 0.08232764 0.08234859 0.08215756
 0.08193488 0.08184537 0.08190568 0.08203144 0.0821335 0.08213398 0.08195157 0.08157045 0.08114276 0.08093618
 0.08112027 0.08164238 0.08232033 0.08297502 0.08346517 0.08371498 0.08376756 0.08373947 0.08368699 0.08356921
 0.08335519 0.08312203 0.08303165 0.08321054 0.08363512 0.08413895 0.08454724 0.084789 0.08489157 0.0849365
 0.08502818 0.08521524 0.08541334 0.08548084 0.08539654 0.08529758 0.08531901 0.08544444 0.0855392 0.08550875
 0.0854065 0.08537935 0.08551253 0.0857503 0.08597668 0.08614507 0.08630542 0.08651234 0.08672428 0.08681582
 0.0867134 0.08649892 0.08633045 0.0862742 0.08628003 0.08631419 0.08642484 0.08664222 0.08688571 0.08703165
 0.08705159 0.08703534 0.08707383 0.08715084 0.08716887 0.08706486 0.08687679 0.08670352 0.08662342 0.08664989
 0.08673698 0.08681224 0.08681887 0.08674715 0.08663291 0.086522 0.08643666 0.08638462 0.08639703 0.08652377
 0.08675966 0.08698907 0.087052 0.08689064 0.08661582 0.08640701 0.08634674 0.08636085 0.08631264 0.086136
 0.08587469 0.08561741 0.08542053 0.08528689 0.08518996 0.08510731 0.08504827 0.08505891 0.08517563 0.08535156
 0.08545385 0.08537368 0.08513416 0.08486275 0.08467042 0.08458309 0.08456394 0.0845611 0.08454977 0.08455747
 0.08462561 0.08472801 0.08477175 0.08470578 0.08458737 0.08452 0.08456743 0.08473301 0.08496001 0.0851365
 0.08516617 0.08506651 0.08495627 0.08492956 0.08497985 0.08505418 0.0851311 0.08522037 0.08532196 0.08542442
 0.0855359 0.08568936 0.08590861 0.08617529 0.086432 0.08662091 0.0867317 0.08681989 0.0869704 0.08722878
 0.08756171 0.08788584 0.08813703 0.08831723 0.08847751 0.08865747 0.08885179 0.08904482 0.0892583 0.08953293
 0.08986807 0.09021427 0.09052965 0.0908161 0.09109637 0.09138253 0.091677 0.09199075 0.09234856 0.09276651
 0.09321295 0.09360291 0.09386002 0.09399256 0.09409691 0.09428589 0.09460987 0.09501609 0.09537061 0.09556177
 0.0956165 0.09568416 0.0958747 0.09614848 0.09640236 0.0966256 0.09691001 0.0973165 0.09778395 0.09818529
 0.09844951 0.0986167 0.09878056 0.09898379 0.0991784 0.09929703 0.09934776 0.09940708 0.09952597 0.09969209
 0.099898 0.1001877 0.1005904 0.1010454 0.1014443 0.1017299 0.1019202 0.1020573 0.1021695 0.1022635
 0.1023266 0.1023509 0.1023672 0.1024243 0.1025201 0.1025962 0.1026198 0.102634 0.1027042 0.1028529
 0.103071 0.1033519 0.1036759 0.1039892 0.1042533 0.1045088 0.1048352 0.105229 0.1055712 0.1057532
 0.1057961 0.105801 0.1058206 0.1058445 0.1058885 0.106019 0.1062723 0.1066062 0.1069546 0.107295
 0.1076411 0.1079933 0.1083157 0.1085536 0.1086712 0.1086805 0.1086438 0.1086461 0.1087548 0.1089882
 0.1093057 0.1096336 0.1099099 0.1101026 0.1101924 0.1101742 0.1100977 0.110074 0.1101879 0.1103999
 0.1105647 0.110553 0.110334 0.1099461 0.1094279 0.1088032 0.1081167 0.1074519 0.1068978 0.1065049
 0.1062845 0.1062541 0.1064572 0.1069139 0.1075604 0.1082679 0.1089214 0.1094473 0.1097684 0.1097874
 0.1094576 0.1088456 0.1080947 0.1073381 0.1066539 0.1060591 0.1055123 0.1049604 0.1044323 0.1040839
 0.1041212 0.1046723 0.1057224 0.1071309 0.1086812 0.1101477 0.1113797 0.1123559 0.1131556 0.113869
 0.1145395 0.1151847 0.1158302 0.1164893 0.1171271 0.1176888 0.1181643 0.118593 0.1190068 0.1193985
 0.1197423 0.1200217 0.1202445 0.1204461 0.1206583 0.1208595 0.1209779 0.1209699 0.1208702 0.1207465
 0.1206221 0.1204609 0.1202086 0.1198379 0.1193851 0.1189739 0.1187931 0.1190152 0.119697 0.1207474
 0.1219976 0.1233061 0.1245894 0.1257681 0.1267377 0.1274285 0.1278702 0.1281682 0.1284263 0.1287017
 0.129007 0.129326 0.1296322 0.1299125 0.1301762 0.1304481 0.1307537 0.1310998 0.131458 0.1317786
 0.1320359 0.1322607 0.13252 0.1328567 0.1332481 0.1336275 0.133955 0.1342538 0.1345617 0.1348646
 0.1351117 0.13529 0.1354486 0.135652 0.1359352 0.136294 0.1366838 0.1370325 0.1372877 0.1374612
 0.1376119 0.1377896 0.138007 0.1382543 0.1385157 0.138773 0.1390146 0.139253 0.1395216 0.1398355
 0.1401591 0.1404276 0.1406107 0.1407444 0.1408935 0.1410896 0.141311 0.141518 0.1417012 0.1418972
 0.1421559 0.1424839 0.1428232 0.1430945 0.1432658 0.1433748 0.1434858 0.1436376 0.1438304 0.1440477
 0.144274 0.144497 0.1447079 0.1449085 0.1451116 0.145327 0.1455497 0.1457658 0.1459684 0.1461646
 0.1463653 0.1465767 0.1468034 0.1470543 0.1473361 0.147635 0.1479135 0.1481363 0.1482976 0.1484215
 0.1485386 0.148669 0.1488223 0.1490006 0.1491988 0.149407 0.149617 0.1498252 0.1500323 0.1502406
 0.1504517 0.1506627 0.1508685 0.1510677 0.1512674 0.15148 0.1517119 0.151953 0.1521809 0.1523809
 0.1525588 0.152735 0.1529244 0.1531241 0.1533184 0.1534969 0.153668 0.1538515 0.1540557 0.1542691
 0.154476 0.1546729 0.1548654 0.1550564 0.1552455 0.1554353 0.155632 0.1558354 0.1560366 0.1562274
 0.1564107 0.1565975 0.1567955 0.1570029 0.1572119 0.1574169 0.1576203 0.1578302 0.1580481 0.1582634
 0.1584639 0.1586479 0.1588249 0.1590056 0.1591945 0.1593894 0.1595868 0.1597897 0.1600018 0.1602163
 0.1604185 0.1606042 0.1607864 0.1609803 0.1611907 0.1614122 0.1616361 0.1618563 0.1620734 0.1622916
 0.1625117 0.1627308 0.1629462 0.1631564 0.1633607 0.1635628 0.1637691 0.1639813 0.1641928 0.1643922
 0.1645746 0.1647489 0.1649286 0.1651166 0.1653041 0.1654864 0.165668 0.1658519 0.166036 0.1662217
 0.1664131 0.1666111 0.1668134 0.1670175 0.1672195 0.167416 0.1676076 0.1677971 0.1679863 0.1681787
 0.1683781 0.1685827 0.1687883 0.1689958 0.169207 0.1694202 0.1696343 0.1698499 0.1700654 0.1702795
 0.1704951 0.1707133 0.1709318 0.1711525 0.1713785 0.1716013 0.1718078 0.1719989 0.1721874 0.1723841
 0.1725936 0.1728131 0.1730314 0.1732396 0.1734399 0.1736383 0.1738387 0.1740483 0.1742723 0.174503
 0.1747283 0.1749455 0.1751552 0.1753579 0.1755633 0.175782 0.1760066 0.176222 0.1764259 0.1766239
 0.1768195 0.1770186 0.1772224 0.1774124 0.1775413 0.1774921 0.1769704 0.1753997 0.1719217 0.1655786
 0.155702 0.1423412 0.126395 0.1092904 0.09246385 0.07699521 0.06351091 0.05227742 0.04334708 0.03664277
 0.03200498 0.02928725 0.02846836 0.02976267 0.03372642 0.04092506 0.05070943 0.06013722 0.06512132 0.06365849
 0.05774497 0.05155493 0.04796916 0.04718256 0.04795334 0.04922331 0.05065746 0.05245174 0.05494624 0.05824548
 0.06219472 0.06678535 0.07236046 0.07917963 0.0868862 0.09465101 0.1018893 0.1087276 0.1157225 0.1231916
 0.1308755 0.1381918 0.1447033 0.1503381 0.155289 0.1598026 0.1640427 0.1680784 0.1719346 0.1755944
 0.1789246 0.1816449 0.18346 0.1842819 0.1843362 0.1840378 0.1837491 0.1836394 0.1837266 0.1839856
 0.1843984 0.1849493 0.1856177 0.1863779 0.187196 0.1880372 0.1888781 0.1897022 0.1904909 0.1912277
 0.1919053 0.1925248 0.1930943 0.1936247 0.1941199 0.1945741 0.1949835 0.1953554 0.195701 0.196029
 0.1963458 0.1966542 0.1969503 0.1972284 0.197487 0.1977295 0.1979588 0.1981745 0.1983753 0.1985655
 0.1987579 0.1989651 0.1991871 0.1994136 0.199635 0.1998473 0.2000506 0.2002487 0.2004471 0.2006459
 0.2008399 0.201028 0.2012156 0.2014069 0.2016014 0.2017976 0.2019946 0.2021898 0.2023798 0.2025634
 0.202744 0.2029308 0.2031334 0.2033501 0.2035683 0.2037793 0.2039844 0.2041878 0.2043925 0.204604
 0.2048243 0.2050464 0.2052629 0.2054726 0.2056717 0.2058484 0.2060001 0.2061467 0.2063175 0.2065258
 0.2067584 0.2069879 0.2071971 0.2073907 0.2075844 0.2077871 0.2079931 0.2081875 0.2083645 0.2085473
 0.2087717 0.2090399 0.2093139 0.2095641 0.2097971 0.2100285 0.210261 0.2104956 0.2107282 0.2109314
 0.2110758 0.2111799 0.211319 0.2115672 0.2119258 0.2123129 0.2126371 0.2128778 0.2130792 0.2132902
 0.2135356 0.2138011 0.214005 0.2140504 0.213975 0.2139853 0.2142642 0.2147835 0.2153582 0.2158391
 0.2162028 0.2164981 0.2167635 0.2169875 0.2171213 0.2171344 0.2170827 0.2171194 0.2173906 0.2178871
 0.2184422 0.2189026 0.2192456 0.2195138 0.2197307 0.2199071 0.2200051 0.2198806 0.2194393 0.2189143
 0.2188008 0.2193761 0.2203834 0.2213052 0.2218725 0.2221942 0.2224607 0.2227117 0.2229008 0.2229429
 0.2226001 0.2216166 0.2202241 0.2192862 0.2195863 0.2210395 0.2228364 0.2242508 0.2250929 0.2255319
 0.2257905 0.2259971 0.226085 0.2257888 0.2249445 0.2238992 0.2234305 0.2240299 0.2253485 0.2265677
 0.2272344 0.2275047 0.2277109 0.227989 0.2281844 0.2278129 0.2263398 0.2239683 0.2220255 0.222023
 0.2241782 0.2271532 0.2293825 0.2304175 0.2307978 0.2308903 0.2303508 0.2287396 0.2261829 0.2233226
 0.221098 0.2205973 0.2223374 0.2253841 0.2278868 0.2288996 0.2291789 0.2299508 0.2314515 0.2329444
 0.2336747 0.2334523 0.2325121 0.2310944 0.2293374 0.2276672 0.2270241 0.2281936 0.2308533 0.2336889
 0.2356057 0.2365586 0.2369839 0.236519 0.2337415 0.2278814 0.2209652 0.2172567 0.2194942 0.2260279
 0.2325922 0.236502 0.2381309 0.2389049 0.2393826 0.2391018 0.2368646 0.2314046 0.2233984 0.2167092
 0.2157648 0.2211768 0.2290463 0.2346002 0.2354238 0.2316983 0.225357 0.2195216 0.2172202 0.2195485
 0.2251951 0.2317379 0.2370964 0.2401001 0.2404702 0.2387078 0.2360756 0.2343052 0.2343352 0.234928
 0.2336133 0.2298107 0.2257909 0.223344 0.22102 0.2168215 0.2125855 0.2127755 0.2186701 0.2262141
 0.2305741 0.231041 0.2301522 0.2290758 0.2256174 0.217383 0.2063107 0.198754 0.1999275 0.2084974
 0.2177728 0.2222522 0.221992 0.22066 0.2206502 0.2206372 0.2174352 0.2101479 0.2023207 0.1989796
 0.2012951 0.2055396 0.2075155 0.2059125 0.2008821 0.1927049 0.1841752 0.1814708 0.1889655 0.2038992
 0.2185225 0.2264675 0.2251014 0.2141853 0.196785 0.1811222 0.1765776 0.1852996 0.1995911 0.2089763
 0.2085223 0.1997561 0.1861883 0.1708862 0.1578733 0.1526303 0.1588446 0.1746459 0.1925625 0.2032275
 0.200591 0.1866491 0.1718698 0.1676772 0.1760522 0.1881273 0.1940841 0.19205 0.1867813 0.1835628
 0.1851434 0.1911595 0.1985228 0.2043493 0.2082676 0.2091638 0.2020922 0.1842195 0.162697 0.149938
 0.1507323 0.1598293 0.1718525 0.1861142 0.2001048 0.206202 0.2002558 0.1894223 0.1860461 0.1945561
 0.2076876 0.21537 0.2146942 0.210429 0.2076855 0.2064921 0.2043252 0.2019755 0.2037727 0.211592
 0.2215645 0.2283983 0.2308941 0.2314541 0.2320173 0.2325893 0.2326293 0.2319437 0.2306033 0.229079
 0.2280981 0.2278249 0.2277026 0.2272852 0.2262262 0.2230305 0.2153778 0.20339 0.1916942 0.1857504
 0.1860652 0.1885919 0.1907519 0.1929388 0.1929022 0.1841544 0.1645343 0.1432497 0.1341703 0.1424189
 0.1605597 0.1770903 0.1852561 0.1836331 0.1727048 0.1550821 0.1382367 0.1321326 0.1410847 0.1596184
 0.1783278 0.1919739 0.2000188 0.2021062 0.1971127 0.1863819 0.1749841 0.1688051 0.1709857 0.1805564
 0.1927288 0.2000991 0.1962995 0.1823563 0.1694437 0.1705948 0.1870086 0.2060126 0.2153057 0.2153934
 0.2144992 0.2157844 0.215836 0.2137057 0.2144697 0.2223041 0.2343587 0.2435714 0.2448711 0.2371739
 0.2227001 0.2074579 0.1996787 0.2031831 0.2129636 0.2205643 0.2222228 0.2183783 0.2087082 0.1941966
 0.182362 0.1827329 0.1958144 0.2118707 0.2219851 0.2261821 0.2293485 0.2328219 0.2327521 0.2259078
 0.2150497 0.2072228 0.206802 0.2116895 0.2169125 0.2198696 0.2203676 0.2176697 0.2109536 0.2026976
 0.198699 0.2030439 0.2138633 0.2250471 0.2316727 0.2330805 0.2314832 0.2290919 0.2266129 0.2233866
 0.2188616 0.2145284 0.2136364 0.217719 0.2241575 0.22888 0.231028 0.2332406 0.2375082 0.2424299
 0.2449201 0.2435751 0.2400035 0.2374189 0.2380619 0.2414261 0.2446371 0.2449035 0.2421706 0.2394219
 0.2399348 0.2441546 0.2496244 0.2537758 0.2560227 0.2572392 0.2582567 0.2591338 0.2591137 0.2571998
 0.2535735 0.250418 0.2503704 0.2539054 0.2588849 0.2627695 0.26467 0.2651985 0.2650693 0.2643523
 0.2628855 0.2609569 0.2593316 0.2586474 0.2589515 0.2598461 0.2608996 0.2618387 0.2625362 0.2629911
 0.2632834 0.2634755 0.2635893 0.2636655 0.2637469 0.2637935 0.2637248 0.2635864 0.2635698 0.263798
 0.264162 0.2644362 0.2644835 0.2642616 0.263703 0.2627333 0.2614102 0.2599141 0.2583569 0.2567058
 0.2550036 0.253628 0.2531952 0.2540972 0.2561266 0.2585905 0.2607885 0.2623759 0.2633575 0.2638863
 0.2641253 0.2642078 0.2642146 0.2641594 0.2640207 0.2637908 0.2634892 0.2631384 0.2627518 0.2623507
 0.2619749 0.2616567 0.2613867 0.2611154 0.2607876 0.2603745 0.2598845 0.259356 0.2588274 0.2582946
 0.2576966 0.2569611 0.2560707 0.2550867 0.2541111 0.253222 0.2524275 0.2516723 0.250895 0.2500704
 0.2491848 0.2481952 0.2470715 0.2458839 0.2447927 0.2439146 0.2432231 0.2425977 0.2419326 0.2411774
 0.2403176 0.2393623 0.2383402 0.2372772 0.2361781 0.2350363 0.2338443 0.2325865 0.2312429 0.2298079
 0.2282955 0.2267228 0.2251062 0.2234651 0.2217973 0.2200419 0.2180818 0.2157841 0.2130277 0.209716
 0.2058073 0.2013613 0.1965471 0.1915902 0.1866976 0.1820203 0.1776703 0.1737545 0.1703773 0.1676148
 0.1655056 0.16407 0.1633289 0.163299 0.1639765 0.1653281 0.1672855 0.1697406 0.1725453 0.1755246
 0.178501 0.1813266 0.1839178 0.1862793 0.1884835 0.1905941 0.1925995 0.1944338 0.1960545 0.1974711
 0.1987022 0.1997437 0.2005933 0.2012799 0.2018548 0.2023629 0.2028252 0.203238 0.2035879 0.2038684
 0.2040863 0.2042566 0.2044024 0.2045534 0.2047361 0.2049643 0.2052422 0.2055752 0.2059716 0.2064319
 0.2069365 0.2074575 0.2079875 0.2085474 0.2091584 0.2098217 0.2105388 0.2113406 0.2122764 0.2133758
 0.2146282 0.215989 0.2173924 0.2187594 0.2200032 0.2210442 0.22183 0.2223479 0.2226221 0.2226975
 0.2226193 0.2224182 0.2221118 0.2217198 0.2212649 0.2207548 0.2201786 0.2195336 0.2188439 0.2181407
 0.2174373 0.216733 0.2160306 0.2153382 0.214662 0.2140053 0.2133714 0.2127617 0.2121736 0.2116001
 0.211031 0.2104558 0.2098737 0.2092974 0.2087373 0.2081759 0.2075639 0.2068516 0.2060241 0.2051
 0.2040971 0.2030084 0.201816 0.2005177 0.1991321 0.1976798 0.1961667 0.1945865 0.1929341 0.1912064
 0.1893918 0.1874744 0.185464 0.1834153 0.1814095 0.1795164 0.177772 0.1761753 0.1746985 0.1733081
 0.1719828 0.1707098 0.1694782 0.1682886 0.1671582 0.1661017 0.1651161 0.164189 0.1633145 0.1624994
 0.1617633 0.1611243 0.1605802 0.160112 0.1597062 0.1593618 0.1590841 0.1588908 0.1588074 0.1588297
 0.1589002 0.158942 0.1589091 0.1588047 0.1586666 0.1585368 0.1584345 0.158358 0.1583049 0.1582579
 0.1581493 0.1578676 0.157309 0.156416 0.1551862 0.1536655 0.1519327 0.1500887 0.148259 0.1465735
 0.1451238 0.1439496 0.1430575 0.142418 0.1419533 0.1415778 0.141263 0.1410524 0.1410163 0.141175
 0.141436 0.1416362 0.1416937 0.1416997 0.1418328 0.1422108 0.1428305 0.1435901 0.1443522 0.1450202
 0.1455631 0.1459678 0.1462168 0.1463251 0.1463392 0.1462879 0.1461718 0.1459944 0.1457661 0.1454919
 0.145167 0.1447666 0.1442553 0.1436301 0.1429251 0.1421618 0.1413382 0.1404482 0.1394584 0.1383159
 0.1370697 0.1359424 0.1352164 0.1350656 0.1354847 0.1363073 0.1373132 0.1383718 0.1394165 0.140257
 0.1406235 0.1405673 0.1406806 0.1416779 0.1437163 0.1462254 0.1484216 0.1498865 0.1506212 0.1507383
 0.1502995 0.1493508 0.1478972 0.1458831 0.1433308 0.140408 0.1372932 0.1341197 0.1310716 0.1283506
 0.1260548 0.1241962 0.1227595 0.1217768 0.1213856 0.1212123 0.1193302 0.1132844 0.1039001 0.09693815
 0.09822235 0.1070778 0.116824 0.1218206 0.1219374 0.1201995 0.1186851 0.1176974 0.1171222 0.1171173
 0.117841 0.1191646 0.1206798 0.1219384 0.1227337 0.1230965 0.1230137 0.1221647 0.1198331 0.1151534
 0.1078115 0.09866047 0.0894355 0.08174317 0.07633642 0.07312241 0.07150313 0.07072338 0.07023782 0.06997646
 0.07025398 0.07137777 0.07336386 0.07602215 0.07916784 0.08258897 0.085899 0.08868159 0.0908232 0.09252157
 0.09393924 0.09500672 0.09557751 0.0956252 0.09525353 0.09461511 0.09385328 0.09305042 0.0921755 0.0911186
 0.08986253 0.08862425 0.08772471 0.08728762 0.08716267 0.08715139 0.08717836 0.08723007 0.0872696 0.08725677
 0.08718639 0.08711547 0.08717693 0.08749008 0.08801227 0.08854014 0.08888565 0.08902348 0.08906867 0.0890957
 0.08896522 0.08844402 0.08758092 0.08676727 0.08622503 0.08563793 0.08458585 0.08321556 0.08216639 0.08186537
 0.08213911 0.0825056 0.08262639 0.08245082 0.08215016 0.08203918 0.08238712 0.083103 0.08369455 0.08372377
</values></Ydata></ScRf><Data_Parameters_AB><parameter name="DPF">1</parameter><parameter name="NPT">3497</parameter><parameter name="FXV">3996</parameter><parameter name="LXV">500</parameter><parameter name="CSF">1</parameter><parameter name="MXY">0.113974772393703</parameter><parameter name="MNY">-0.0403801053762436</parameter><parameter name="DAT">01/06/2022</parameter><parameter name="TIM">11:35:27.938 (GMT+2)</parameter><parameter name="DXU">WN</parameter></Data_Parameters_AB><AB__Qtest><MainReport name="Quality Test Report"><Header><Line><Legend>Test result ok/not ok [1/0]: </Legend><Value>0</Value></Line><Line><Legend>Method file: </Legend><Value>C:\Users\Public\Documents\Bruker\OPUS_8.2.28\QT\IRBT_v3_default.QT</Value></Line></Header><Matrix><Line><Legend></Legend><Legend>min</Legend><Legend>max</Legend><Legend>measured</Legend></Line><Line><Value>Absorption (X-Range 1):</Value><Value>0.400000</Value><Value>2.000000</Value><Value>0.129540</Value></Line><Line><Value>Noise (X-Range 4):</Value><Value></Value><Value>0.000300</Value><Value>0.000076</Value></Line><Line><Value>Signal/Noise (X-Range 2):</Value><Value>200.000000</Value><Value></Value><Value>38.108910</Value></Line><Line><Value>Signal/Noise (X-Range 3):</Value><Value>40.000000</Value><Value></Value><Value>19.697517</Value></Line><Line><Value>Water vapour (X-Range 5):</Value><Value></Value><Value>0.000300</Value><Value>0.000058</Value></Line><Line><Value>Signal/Water (X-Range 2):</Value><Value>100.000000</Value><Value></Value><Value>50.303169</Value></Line><Line><Value>Signal/Water (X-Range 3):</Value><Value>20.000000</Value><Value></Value><Value>26.000416</Value></Line><Line><Value>Fringes (X-Range 6):</Value><Value></Value><Value>0.000100</Value><Value>0.000079</Value></Line></Matrix></MainReport></AB__Qtest><Data_Parameters_ScSm><parameter name="DPF">1</parameter><parameter name="NPT">1814</parameter><parameter name="FXV">3996.33169228125</parameter><parameter name="LXV">499.541461535156</parameter><parameter name="CSF">1</parameter><parameter name="MXY">0.259413570165634</parameter><parameter name="MNY">0.0312400478869677</parameter><parameter name="DAT">01/06/2022</parameter><parameter name="TIM">11:35:27.938 (GMT+2)</parameter><parameter name="DXU">WN</parameter></Data_Parameters_ScSm><Data_Parameters_ScRf><parameter name="DPF">1</parameter><parameter name="NPT">1820</parameter><parameter name="FXV">4004.04661832813</parameter><parameter name="LXV">495.683998511719</parameter><parameter name="CSF">1</parameter><parameter name="MXY">0.265198528766632</parameter><parameter name="MNY">0.0284683611243963</parameter><parameter name="DAT">01/06/2022</parameter><parameter name="TIM">11:35:01.664 (GMT+2)</parameter><parameter name="DXU">WN</parameter></Data_Parameters_ScRf><Optic_Parameters_Rf><parameter name="APR">0</parameter><parameter name="APT">Open</parameter><parameter name="BMS">KBr</parameter><parameter name="DTC">RT-DLaTGS_IR-Biotyper [Microplate reader]</parameter><parameter name="HPF">0</parameter><parameter name="LPF">10.0</parameter><parameter name="LPV">4000</parameter><parameter name="PGR">0</parameter><parameter name="RCH">Module port</parameter><parameter name="RDX">0</parameter><parameter name="SRC">MIR</parameter><parameter name="VEL">10.0</parameter><parameter name="SON">Off</parameter></Optic_Parameters_Rf><Acquisition_Parameters_Rf><parameter name="ADT">1</parameter><parameter name="AQM">DD</parameter><parameter name="CFE">0</parameter><parameter name="COR">0</parameter><parameter name="DEL">0</parameter><parameter name="DLY">0</parameter><parameter name="HFW">8000</parameter><parameter name="LFW">0</parameter><parameter name="NSR">32</parameter><parameter name="PLF">AB</parameter><parameter name="RES">6</parameter><parameter name="RGN">-1</parameter><parameter name="STR">0</parameter><parameter name="TCL">MakeCompatibleScalar (0, {WSV=1.000000, ARV=0});</parameter><parameter name="TDL">37</parameter><parameter name="RPO">0</parameter></Acquisition_Parameters_Rf><FT_-_Parameters_Rf><parameter name="APF">B3</parameter><parameter name="HFQ">500</parameter><parameter name="LFQ">4000</parameter><parameter name="NLI">0</parameter><parameter name="PHR">24</parameter><parameter name="PHZ">ML</parameter><parameter name="SPZ">NO</parameter><parameter name="ZFF">1</parameter></FT_-_Parameters_Rf><Optic_Parameters_><parameter name="APR">0</parameter><parameter name="APT">Open</parameter><parameter name="BMS">KBr</parameter><parameter name="CHN">Module port</parameter><parameter name="DTC">RT-DLaTGS_IR-Biotyper [Microplate reader]</parameter><parameter name="HPF">0</parameter><parameter name="LPF">10.0</parameter><parameter name="LPV">4000</parameter><parameter name="PGN">0</parameter><parameter name="RDX">0</parameter><parameter name="SRC">MIR</parameter><parameter name="VEL">10.0</parameter><parameter name="SON">Off</parameter></Optic_Parameters_><FT_-_Parameters_><parameter name="APF">B3</parameter><parameter name="HFQ">500</parameter><parameter name="LFQ">4000</parameter><parameter name="NLI">0</parameter><parameter name="PHR">24</parameter><parameter name="PHZ">ML</parameter><parameter name="SPZ">NO</parameter><parameter name="ZFF">1</parameter></FT_-_Parameters_><Acquisition_Parameters_><parameter name="ADT">1</parameter><parameter name="AQM">DD</parameter><parameter name="CFE">0</parameter><parameter name="COR">0</parameter><parameter name="DEL">0</parameter><parameter name="DLY">0</parameter><parameter name="HFW">8000</parameter><parameter name="LFW">0</parameter><parameter name="NSS">32</parameter><parameter name="PLF">AB</parameter><parameter name="RES">6</parameter><parameter name="SOT">0</parameter><parameter name="TCL">MakeCompatibleScalar (0, {WSV=1.000000, ARV=0});</parameter><parameter name="TDL">37</parameter><parameter name="SPO">0</parameter><parameter name="SGN">-1</parameter></Acquisition_Parameters_><Instrument_Parameters_Rf><parameter name="HFL">15800.168544</parameter><parameter name="LFL">0</parameter><parameter name="LWN">15800.168544</parameter><parameter name="ABP">32197</parameter><parameter name="SSP">1</parameter><parameter name="ARG">2</parameter><parameter name="ASG">2</parameter><parameter name="ASS">32</parameter><parameter name="GFW">16</parameter><parameter name="GBW">16</parameter><parameter name="BFW">0</parameter><parameter name="BBW">0</parameter><parameter name="PKA">7310</parameter><parameter name="PKL">4990</parameter><parameter name="PRA">7481</parameter><parameter name="PRL">5001</parameter><parameter name="P2A">1</parameter><parameter name="P2L">1</parameter><parameter name="P2R">1</parameter><parameter name="P2K">1</parameter><parameter name="DAQ">0</parameter><parameter name="AG2">1</parameter><parameter name="SSM">1</parameter><parameter name="RSN">25915</parameter><parameter name="CRR">0</parameter><parameter name="SRT">1654083301.664</parameter><parameter name="DUR">19.6389923095703</parameter><parameter name="TSC">29</parameter><parameter name="MVD">0.67152613401413</parameter><parameter name="AN1">0.22581538452604</parameter><parameter name="AN2">0</parameter><parameter name="VSN">2.485 Apr  4 2017</parameter><parameter name="SRN">0085</parameter><parameter name="CAM">0</parameter><parameter name="INS">IR-Biotyper</parameter><parameter name="FOC">69</parameter><parameter name="RDY">1</parameter><parameter name="ARS">32</parameter></Instrument_Parameters_Rf><Sample_Parameters_><parameter name="BLD"></parameter><parameter name="CNM">Admin</parameter><parameter name="CPY"></parameter><parameter name="DPM"></parameter><parameter name="EXP">IRBT_v3_32Scans.XPM</parameter><parameter name="LCT"></parameter><parameter name="SFM">Microplate, HTS-XT</parameter><parameter name="SNM">220601-1028(v.3)_RTF49M (D_11)_H5_b40bc657-ebab-4be6-a0e5-1eeb1bb7edc5.0</parameter><parameter name="XPP">C:\Users\Public\Documents\Bruker\OPUS_8.2.28\XPM</parameter><parameter name="IST">OK</parameter><parameter name="CPG">1252</parameter><parameter name="UID">ecfb0c9d-2110-457e-bc3b-5e6144a7d0eb</parameter></Sample_Parameters_><Instrument_Parameters_><parameter name="HFL">15800.168544</parameter><parameter name="LFL">0</parameter><parameter name="LWN">15800.168544</parameter><parameter name="ABP">32197</parameter><parameter name="SSP">1</parameter><parameter name="ASG">2</parameter><parameter name="ARG">2</parameter><parameter name="ASS">32</parameter><parameter name="GFW">16</parameter><parameter name="GBW">16</parameter><parameter name="BFW">0</parameter><parameter name="BBW">0</parameter><parameter name="PKA">7207</parameter><parameter name="PKL">4988</parameter><parameter name="PRA">7424</parameter><parameter name="PRL">4993</parameter><parameter name="P2A">1</parameter><parameter name="P2L">1</parameter><parameter name="P2R">1</parameter><parameter name="P2K">1</parameter><parameter name="DAQ">0</parameter><parameter name="AG2">1</parameter><parameter name="SSM">1</parameter><parameter name="RSN">13583</parameter><parameter name="CRR">0</parameter><parameter name="SRT">1654083327.939</parameter><parameter name="DUR">19.6389923095703</parameter><parameter name="TSC">29</parameter><parameter name="MVD">0.22478774189949</parameter><parameter name="AN1">0.225799065223346</parameter><parameter name="AN2">0</parameter><parameter name="VSN">2.485 Apr  4 2017</parameter><parameter name="SRN">0085</parameter><parameter name="CAM">0</parameter><parameter name="INS">IR-Biotyper</parameter><parameter name="FOC">69</parameter><parameter name="RDY">1</parameter></Instrument_Parameters_><History/></OPUSDataFile>
