<?xml version="1.0" encoding="UTF-8" ?>
<OPUSDataFile><AB><Ydata ylabel="Absorbance Units"><values byteorder="INTEL" format="FLOAT32" numvalues="3497"> -0.07340166 -0.07344962 -0.07350009 -0.07355435 -0.07359358 -0.0736168 -0.07360952 -0.07357206 -0.07350332 -0.073407
 -0.0733029 -0.07319617 -0.07311675 -0.07306366 -0.07305167 -0.07307202 -0.07311737 -0.07318007 -0.07324781 -0.07331941
 -0.07339098 -0.07346004 -0.07352579 -0.07358119 -0.0736227 -0.07364947 -0.07365895 -0.07366166 -0.07365868 -0.07365963
 -0.07366601 -0.07367591 -0.07368929 -0.07370131 -0.0737123 -0.07372556 -0.07374155 -0.07376572 -0.07379615 -0.07382932
 -0.07386226 -0.0738852 -0.07389932 -0.07390118 -0.07389549 -0.07388657 -0.07387703 -0.07387105 -0.07386722 -0.07386596
 -0.07386547 -0.07386519 -0.07386389 -0.0738612 -0.07385598 -0.0738475 -0.07383908 -0.07383056 -0.0738312 -0.07384153
 -0.07386699 -0.07390694 -0.07395452 -0.07400804 -0.07405327 -0.07409064 -0.07411294 -0.07412415 -0.07412948 -0.07413372
 -0.07414745 -0.07417245 -0.07421666 -0.07427459 -0.07434752 -0.07442039 -0.07448719 -0.0745309 -0.07454212 -0.07451894
 -0.07445531 -0.07437439 -0.07427685 -0.07419755 -0.07413992 -0.07412869 -0.07416547 -0.07425378 -0.07439209 -0.07456213
 -0.07475866 -0.07494212 -0.07510582 -0.07520046 -0.07523192 -0.07518326 -0.07507879 -0.07495099 -0.074819 -0.07472225
 -0.0746556 -0.07463263 -0.0746283 -0.0746334 -0.07462601 -0.07459085 -0.07453857 -0.07446451 -0.07440612 -0.07436931
 -0.07437769 -0.0744368 -0.07452427 -0.07463928 -0.07473211 -0.07480216 -0.07482918 -0.07481938 -0.07480145 -0.07478063
 -0.07479441 -0.07483691 -0.07491545 -0.07501547 -0.07511448 -0.07520588 -0.07527043 -0.0753149 -0.07534074 -0.07534711
 -0.07533614 -0.07529815 -0.07522522 -0.07513186 -0.07501404 -0.07491878 -0.07485155 -0.07485928 -0.07494945 -0.07512785
 -0.07539609 -0.07565516 -0.07589724 -0.07597455 -0.07590257 -0.07570492 -0.07540914 -0.07513565 -0.07488744 -0.07473247
 -0.0746607 -0.07469027 -0.07479717 -0.07496745 -0.07515999 -0.07533798 -0.07547083 -0.07552307 -0.07551292 -0.07543226
 -0.07533272 -0.07522707 -0.07514589 -0.07509895 -0.07508156 -0.07509521 -0.07512067 -0.07515689 -0.07518978 -0.07521931
 -0.07524358 -0.07526358 -0.07528519 -0.07530823 -0.0753368 -0.07536659 -0.07539032 -0.07540099 -0.07538193 -0.07533281
 -0.07524238 -0.07512563 -0.0749873 -0.0748523 -0.07473478 -0.07465507 -0.07462652 -0.0746495 -0.07473075 -0.07484433
 -0.07498887 -0.07512957 -0.07526273 -0.07536435 -0.07543277 -0.07545154 -0.07542059 -0.0753354 -0.07519929 -0.07503057
 -0.07483485 -0.07464298 -0.07445894 -0.07430857 -0.07419219 -0.07412384 -0.07409711 -0.07411341 -0.07415585 -0.07421316
 -0.07426565 -0.07429696 -0.0743036 -0.07427673 -0.0742341 -0.07417733 -0.07412797 -0.07409052 -0.07407476 -0.07408274
 -0.07411311 -0.07416599 -0.07423428 -0.07431729 -0.07440318 -0.07449102 -0.0745685 -0.07463593 -0.07468754 -0.07472537
 -0.07475115 -0.07476813 -0.0747823 -0.07479713 -0.0748194 -0.07485032 -0.07489284 -0.07494809 -0.07501641 -0.07510248
 -0.07520951 -0.07533526 -0.07548416 -0.07562978 -0.0757696 -0.07587319 -0.07593539 -0.07595785 -0.07594044 -0.07588194
 -0.0757811 -0.07561065 -0.07537501 -0.07508701 -0.07476179 -0.07446653 -0.07421132 -0.07406054 -0.07400508 -0.07406945
 -0.07421064 -0.07438932 -0.0745603 -0.07465973 -0.07470261 -0.07467408 -0.07461663 -0.07454746 -0.07448122 -0.07442929
 -0.07437415 -0.07431451 -0.07423397 -0.07412846 -0.07401351 -0.07388948 -0.07378956 -0.07371472 -0.07368305 -0.07369246
 -0.0737395 -0.0738175 -0.07390056 -0.0739783 -0.07400626 -0.0739887 -0.07390589 -0.07378438 -0.07365163 -0.07352144
 -0.07342117 -0.07333585 -0.07326725 -0.07318968 -0.07309064 -0.07296363 -0.07280028 -0.07262199 -0.07243058 -0.0722485
 -0.07207961 -0.07192509 -0.0717856 -0.07164312 -0.07149708 -0.07133541 -0.07116111 -0.07099087 -0.07082673 -0.07068769
 -0.07056978 -0.07047082 -0.07038968 -0.07032277 -0.07027163 -0.07024074 -0.07021932 -0.07020527 -0.0701712 -0.07009887
 -0.06997502 -0.06978513 -0.06954569 -0.0692599 -0.0689344 -0.06857197 -0.06816706 -0.06771767 -0.06723901 -0.06673159
 -0.0662222 -0.06571207 -0.06522217 -0.06475389 -0.06432785 -0.0639443 -0.06361853 -0.06334319 -0.06310815 -0.06290228
 -0.06269852 -0.06249551 -0.06228093 -0.06205543 -0.06182148 -0.06156028 -0.06126186 -0.06091037 -0.06048869 -0.06002433
 -0.05951924 -0.05900883 -0.05850146 -0.05800889 -0.05753388 -0.05707654 -0.0566371 -0.05621254 -0.05580284 -0.05540831
 -0.05502949 -0.05467305 -0.05433546 -0.05401066 -0.053684 -0.05331114 -0.0528845 -0.05235671 -0.05176155 -0.05111967
 -0.05047148 -0.04986597 -0.04930874 -0.04882118 -0.04838464 -0.04800106 -0.04763386 -0.04727514 -0.04688856 -0.04646336
 -0.04599672 -0.04548554 -0.04494947 -0.04438986 -0.04381299 -0.04321878 -0.04260122 -0.04196208 -0.04131172 -0.04065423
 -0.04001409 -0.03939076 -0.03879617 -0.03822584 -0.03767724 -0.03714564 -0.03662465 -0.03610901 -0.03559129 -0.03507026
 -0.0345417 -0.03401091 -0.03348169 -0.03294755 -0.03241141 -0.03184607 -0.03124511 -0.03059984 -0.02990385 -0.02920537
 -0.02850686 -0.02786356 -0.02727613 -0.02674307 -0.02625938 -0.02578501 -0.0253169 -0.02481895 -0.02429533 -0.02373622
 -0.02315368 -0.02256538 -0.02198222 -0.02142956 -0.02090192 -0.02040969 -0.01992433 -0.01943368 -0.01890672 -0.01832109
 -0.01768448 -0.01698822 -0.01627661 -0.01555606 -0.01486364 -0.01420622 -0.01358964 -0.01301561 -0.01246045 -0.01192267
 -0.01137143 -0.01080686 -0.0102158 -0.009600856 -0.008966299 -0.008314298 -0.007651921 -0.006982794 -0.006315673 -0.005656881
 -0.005019812 -0.004404245 -0.003817112 -0.003248577 -0.002694171 -0.00214714 -0.00160167 -0.001061902 -0.0005273232 -5.139886E-06
 0.0005025591 0.0009957984 0.001473311 0.001946325 0.002415223 0.00289874 0.003397564 0.003922845 0.004472686 0.005036683
 0.005611829 0.006177672 0.006735989 0.007280206 0.00781601 0.008352906 0.008891034 0.009437193 0.009982215 0.01052027
 0.01104299 0.01153985 0.01201869 0.01247672 0.01293692 0.01340584 0.01389845 0.01442148 0.01496469 0.01552873
 0.0160925 0.01665429 0.01720412 0.01774178 0.01826943 0.0187873 0.01929821 0.01980182 0.02029801 0.02078628
 0.021265 0.02173409 0.02219237 0.02264048 0.02307897 0.02350785 0.0239271 0.02433734 0.0247367 0.02513395
 0.0255307 0.02594124 0.02637297 0.02682136 0.02729047 0.0277493 0.02819382 0.02860646 0.02898406 0.02935687
 0.02972687 0.03014127 0.03059812 0.03110327 0.03164693 0.03218643 0.03271547 0.03318964 0.03361757 0.0339925
 0.03433211 0.03466008 0.03498315 0.0353209 0.03565967 0.03599687 0.03631809 0.03661227 0.036887 0.0371399
 0.03739124 0.03764508 0.03791304 0.0381975 0.03850095 0.03882389 0.03916407 0.03952113 0.03988343 0.04025054
 0.04061155 0.04097002 0.04133697 0.04171611 0.0421284 0.0425652 0.043023 0.04348276 0.04391516 0.04431054
 0.04464469 0.04492847 0.04515876 0.04535772 0.04553448 0.04570504 0.04587726 0.04605428 0.04623847 0.04642684
 0.04661887 0.04681594 0.04701799 0.04722974 0.04745131 0.04768264 0.04792352 0.04817185 0.04842808 0.04869437
 0.04896922 0.04925128 0.04953403 0.04980342 0.05005496 0.05027265 0.05046587 0.05063445 0.05079862 0.05097313
 0.05116744 0.05139459 0.05163727 0.05189544 0.05214069 0.05236531 0.05256174 0.05272609 0.05287558 0.05301164
 0.05314013 0.05326063 0.05334688 0.05339791 0.05339082 0.05333247 0.05324262 0.05313202 0.05304552 0.05298483
 0.05297732 0.05301392 0.05309426 0.05320678 0.05334052 0.05348559 0.05363122 0.05377491 0.05390998 0.05404869
 0.054193 0.05435618 0.05454555 0.05474335 0.05495192 0.05511999 0.05524363 0.05528418 0.05524076 0.05513157
 0.05496201 0.05479256 0.05462483 0.05450121 0.05441318 0.05435547 0.05432216 0.05429437 0.05428054 0.05428554
 0.05431562 0.05438625 0.05447679 0.05458253 0.05466974 0.05471697 0.05472032 0.05466663 0.05459507 0.05450962
 0.05445462 0.05443943 0.05446754 0.05454215 0.05461785 0.05469211 0.05470791 0.05466607 0.05454903 0.05436706
 0.05416023 0.05394156 0.05377515 0.0536615 0.05363829 0.05368565 0.05379587 0.05393599 0.05407067 0.05417462
 0.05421444 0.05419571 0.05410561 0.05398277 0.05383454 0.05370189 0.05359639 0.05353393 0.05351886 0.05355137
 0.05363135 0.05376818 0.05396231 0.05422374 0.05454893 0.05491022 0.05529517 0.05562618 0.05589297 0.05601458
 0.05600636 0.05585032 0.05559456 0.05529787 0.0550098 0.05481122 0.05470338 0.05472612 0.05481868 0.0549697
 0.05509934 0.0551769 0.05516121 0.05503108 0.05480913 0.05449086 0.05414247 0.05376866 0.0534271 0.05312033
 0.05285933 0.05264175 0.05244539 0.05227055 0.05210551 0.05195666 0.05183994 0.0517575 0.05172815 0.05173476
 0.05176746 0.0517893 0.05175988 0.05164861 0.05141317 0.05106661 0.05059357 0.05005464 0.04946268 0.04888112
 0.04832847 0.04783006 0.04739391 0.04701409 0.04669145 0.04640922 0.04616628 0.04592985 0.04569757 0.04542913
 0.04512901 0.04479564 0.04444361 0.04412344 0.04383712 0.04362453 0.04345332 0.04329654 0.04311292 0.04283949
 0.04248103 0.04200573 0.04148099 0.0409245 0.04041737 0.03999557 0.0396868 0.03951368 0.03942452 0.03942141
 0.03940463 0.03936608 0.03922671 0.03898278 0.03862998 0.03817398 0.03767564 0.03714105 0.03663607 0.03615785
 0.03573278 0.03535245 0.03501124 0.03470247 0.03441394 0.03414072 0.0338741 0.03360832 0.03333629 0.03305572
 0.03276214 0.03246114 0.03215249 0.03184669 0.03154641 0.03125718 0.03098134 0.03071182 0.03044876 0.03017654
 0.02989434 0.02959117 0.02926757 0.02892595 0.02856826 0.02820592 0.02784093 0.02748587 0.02714185 0.02681819
 0.02651334 0.02623082 0.02596346 0.02570648 0.0254492 0.0251817 0.02489921 0.02459455 0.02427501 0.02394065
 0.02360252 0.02326476 0.02292554 0.02258646 0.02223311 0.02186394 0.02147435 0.0210642 0.02065437 0.02024643
 0.01986742 0.01951501 0.01919172 0.01889082 0.01859001 0.01828636 0.01796004 0.01761679 0.01725611 0.01688609
 0.01651587 0.01614936 0.01579125 0.01544681 0.01511678 0.01481663 0.0145516 0.01433422 0.01417366 0.01404629
 0.01395527 0.01383509 0.0136806 0.01343426 0.01309303 0.01266363 0.01215146 0.01162374 0.01108691 0.01061392
 0.01020206 0.00988536 0.009647134 0.009471782 0.009330622 0.009171632 0.008975096 0.008689928 0.008338336 0.007910634
 0.007464637 0.007030929 0.006637606 0.006312221 0.006015126 0.005743178 0.005453059 0.005130203 0.004808599 0.004486601
 0.004250081 0.004103559 0.004080943 0.00417588 0.004319295 0.004497591 0.00459398 0.004607794 0.004467262 0.004196839
 0.003812129 0.003349426 0.00287659 0.002409101 0.001997639 0.001621834 0.001283349 0.0009579202 0.0006263694 0.0002995268
 -2.638622E-05 -0.0003232838 -0.0005803765 -0.0008054217 -0.0009944376 -0.001187878 -0.001390474 -0.00161317 -0.001856782 -0.002079798
 -0.002280391 -0.002420977 -0.002507614 -0.002556239 -0.002575876 -0.002609749 -0.002655758 -0.002732806 -0.002829201 -0.002932586
 -0.00303848 -0.003132163 -0.003227717 -0.00332643 -0.003456849 -0.003633718 -0.003879158 -0.004210496 -0.004612189 -0.005092298
 -0.005585759 -0.006086767 -0.006520495 -0.006876833 -0.00713883 -0.007304912 -0.007435836 -0.007536451 -0.00768889 -0.007890819
 -0.008173676 -0.00852347 -0.008907884 -0.009313331 -0.009689162 -0.01003519 -0.01032584 -0.01057326 -0.01077982 -0.01096151
 -0.01113041 -0.01130132 -0.01148607 -0.01169019 -0.01192228 -0.01216569 -0.01242074 -0.01265701 -0.01286754 -0.01304793
 -0.0131944 -0.01334625 -0.01350554 -0.01370796 -0.01395154 -0.0142157 -0.01449444 -0.01473607 -0.0149459 -0.01511165
 -0.01525103 -0.01540394 -0.01557475 -0.01579673 -0.01604518 -0.01630793 -0.01655298 -0.01674795 -0.01688299 -0.01694137
 -0.01693251 -0.01685729 -0.01672005 -0.01652301 -0.0162626 -0.0159364 -0.01555679 -0.01512189 -0.01467992 -0.01423333
 -0.01385602 -0.01355119 -0.01338065 -0.01334089 -0.01344507 -0.01368048 -0.01400998 -0.01441833 -0.01485064 -0.01529714
 -0.01571726 -0.01610725 -0.01644715 -0.01673727 -0.01697068 -0.01715223 -0.01728147 -0.01736758 -0.01741281 -0.01742838
 -0.01741655 -0.01739018 -0.01735212 -0.01730846 -0.01726206 -0.01719099 -0.01709443 -0.01691709 -0.01665658 -0.01626429
 -0.01574593 -0.01510954 -0.01436996 -0.01358705 -0.01277057 -0.01197733 -0.01120244 -0.01046407 -0.009751792 -0.009058663
 -0.008381512 -0.007714955 -0.007059655 -0.006416927 -0.005778794 -0.005143947 -0.004499917 -0.003840541 -0.003172344 -0.002491345
 -0.001835603 -0.001207113 -0.0006542628 -0.0001802052 0.0001938257 0.0004689229 0.0006607245 0.000771532 0.0008246624 0.0008187531
 0.0007581131 0.000646226 0.0004866711 0.0003010943 0.0001235922 -1.64596E-05 -6.580215E-05 -2.170773E-05 0.000144999 0.0003978549
 0.0007274235 0.001092442 0.001470795 0.001855239 0.002235999 0.002634664 0.003052923 0.003512267 0.004015982 0.004567971
 0.005168998 0.005796745 0.006448063 0.007070201 0.00765853 0.008153379 0.008558516 0.008851781 0.009050081 0.009183772
 0.009268926 0.009353166 0.009428037 0.009513765 0.009563118 0.009556037 0.009415009 0.009095441 0.008528762 0.007670009
 0.006516986 0.005044641 0.003348948 0.001430473 -0.0005482686 -0.002572849 -0.004494695 -0.006303261 -0.007931193 -0.009379508
 -0.01066419 -0.01179094 -0.01280572 -0.01371005 -0.01453274 -0.01527445 -0.01594756 -0.01656123 -0.01713466 -0.01768168
 -0.01822884 -0.01877803 -0.01934402 -0.01991035 -0.02047377 -0.02101255 -0.02151723 -0.02197472 -0.02237931 -0.02272697
 -0.0230162 -0.0232455 -0.02341495 -0.0235191 -0.02355766 -0.0235208 -0.02340897 -0.02322605 -0.02297889 -0.02271306
 -0.02244183 -0.0222443 -0.02212371 -0.02213686 -0.02225967 -0.02248302 -0.02276363 -0.02304557 -0.02329545 -0.02346206
 -0.02354234 -0.02351542 -0.02340549 -0.02321447 -0.02297555 -0.02269821 -0.02240344 -0.02209784 -0.02178124 -0.02145337
 -0.02111975 -0.02077937 -0.02049915 -0.02028702 -0.02028964 -0.02051632 -0.02111407 -0.02206506 -0.0233931 -0.02503912
 -0.02687014 -0.02881873 -0.03069729 -0.03248418 -0.03406555 -0.03547988 -0.03671709 -0.03783285 -0.03886049 -0.03982638
 -0.04075222 -0.0416343 -0.04247602 -0.04326854 -0.0440104 -0.04469746 -0.04532858 -0.04590691 -0.04643225 -0.0469221
 -0.04737775 -0.04782472 -0.04826273 -0.04870327 -0.04914226 -0.0495697 -0.0499811 -0.05035863 -0.05070202 -0.05100057
 -0.05126108 -0.05148478 -0.05168691 -0.05187931 -0.05207868 -0.05230032 -0.05254617 -0.0528251 -0.05311589 -0.05341715
 -0.05369748 -0.0539501 -0.05415965 -0.05432145 -0.05445222 -0.05455226 -0.05465795 -0.05477039 -0.05490952 -0.05507224
 -0.05524429 -0.05542306 -0.05558687 -0.05574259 -0.05589638 -0.05605859 -0.05625493 -0.0564813 -0.05674792 -0.05703346
 -0.05732404 -0.0575988 -0.05783957 -0.05804046 -0.05819246 -0.05830486 -0.05837572 -0.05842775 -0.0584626 -0.05851224
 -0.05858067 -0.0586885 -0.05883802 -0.05901817 -0.0592274 -0.05943249 -0.05963244 -0.05980298 -0.05994754 -0.06006714
 -0.06016647 -0.06025941 -0.06034697 -0.06043809 -0.0605304 -0.06062425 -0.06071783 -0.06080948 -0.06089868 -0.06098513
 -0.06106696 -0.06114322 -0.06121304 -0.0612744 -0.06133523 -0.0613955 -0.06146996 -0.061561 -0.06167201 -0.06180393
 -0.06193765 -0.06207197 -0.06218223 -0.06226961 -0.06233058 -0.06237016 -0.06240838 -0.06244793 -0.06250845 -0.06258503
 -0.06267928 -0.06278147 -0.06287915 -0.06296667 -0.06303214 -0.06308135 -0.06311136 -0.0631393 -0.06317072 -0.06322207
 -0.06330086 -0.06340816 -0.06354755 -0.0637024 -0.06387173 -0.06403656 -0.06419533 -0.06434074 -0.06447274 -0.06459365
 -0.0647039 -0.06480746 -0.06490504 -0.06500135 -0.06509789 -0.06520198 -0.06531314 -0.06543548 -0.06556382 -0.06569356
 -0.06581893 -0.06593176 -0.06603278 -0.06611879 -0.06619643 -0.06626801 -0.06633759 -0.06640781 -0.06647561 -0.06654102
 -0.06659983 -0.06665102 -0.06669741 -0.06673893 -0.06678393 -0.06683265 -0.06688978 -0.06695433 -0.0670208 -0.06708757
 -0.06714378 -0.06719036 -0.06722296 -0.06724626 -0.06726678 -0.0672894 -0.06732392 -0.06737149 -0.06743706 -0.06751873
 -0.06761701 -0.06772887 -0.06785395 -0.0679867 -0.06812637 -0.06826431 -0.06839885 -0.06852365 -0.0686373 -0.06874072
 -0.06883369 -0.06892186 -0.06900551 -0.06909002 -0.06917527 -0.06926286 -0.0693519 -0.0694393 -0.06952405 -0.069601
 -0.06967138 -0.06973415 -0.06979354 -0.06985503 -0.06992131 -0.06999843 -0.07008254 -0.0701741 -0.07026532 -0.07035251
 -0.07043191 -0.07050063 -0.07056229 -0.07061673 -0.07066998 -0.07072295 -0.07077802 -0.07083551 -0.07089415 -0.07095395
 -0.07101487 -0.07107724 -0.07114407 -0.07121535 -0.07129313 -0.07137622 -0.07146226 -0.07155017 -0.07163619 -0.07172116
 -0.07180457 -0.07188764 -0.07197217 -0.07205643 -0.07214049 -0.07222053 -0.07229452 -0.07236134 -0.07241929 -0.07247283
 -0.07252212 -0.07257371 -0.07262859 -0.07268976 -0.07275764 -0.07283114 -0.07291022 -0.07299364 -0.07308155 -0.07317516
 -0.07327408 -0.073378 -0.07348458 -0.07358708 -0.07368287 -0.0737625 -0.07382734 -0.07387372 -0.07390855 -0.07393635
 -0.07396502 -0.07400177 -0.07404885 -0.07411031 -0.07418098 -0.07426094 -0.07434159 -0.07442129 -0.07449371 -0.07455751
 -0.07461178 -0.07465617 -0.07469426 -0.07472625 -0.07475696 -0.07478659 -0.0748191 -0.07485457 -0.0748956 -0.07494215
 -0.07499572 -0.07505543 -0.07512078 -0.07518954 -0.07525874 -0.07532573 -0.07538664 -0.07544075 -0.07548584 -0.07552424
 -0.0755561 -0.07558496 -0.07561183 -0.0756395 -0.07566848 -0.07570177 -0.07573961 -0.07578603 -0.07584142 -0.07590715
 -0.0759831 -0.07606383 -0.0761484 -0.07622603 -0.07629637 -0.07635146 -0.07639285 -0.07642055 -0.07643749 -0.07644945
 -0.07645881 -0.07647148 -0.07648841 -0.07651267 -0.07654434 -0.07658461 -0.07663232 -0.07668798 -0.07674764 -0.076811
 -0.07687131 -0.07692732 -0.07697298 -0.07700684 -0.07702963 -0.07704096 -0.0770492 -0.07705479 -0.0770677 -0.07708785
 -0.07711889 -0.07715984 -0.07720789 -0.07726233 -0.07731919 -0.07737899 -0.07744093 -0.07750563 -0.07757425 -0.07764541
 -0.07771909 -0.07779116 -0.07785898 -0.07791913 -0.0779683 -0.07800908 -0.07804041 -0.07807074 -0.07810164 -0.07813954
 -0.07818618 -0.07823923 -0.07829893 -0.07835716 -0.07841356 -0.07846179 -0.07850208 -0.07853392 -0.07855847 -0.0785809
 -0.07860268 -0.07863136 -0.07866696 -0.07871386 -0.07876945 -0.07883205 -0.07889885 -0.07896585 -0.07903314 -0.0790994
 -0.07916594 -0.07923362 -0.07930119 -0.07936875 -0.07943375 -0.07949551 -0.07955343 -0.07960721 -0.0796577 -0.07970495
 -0.07974913 -0.07979029 -0.0798298 -0.07986797 -0.0799083 -0.07995085 -0.07999838 -0.08004968 -0.08010268 -0.08015549
 -0.08020288 -0.0802442 -0.08027551 -0.08029906 -0.08031512 -0.08032751 -0.08033916 -0.08035193 -0.08036801 -0.08038589
 -0.08040549 -0.08042549 -0.08044534 -0.08046579 -0.0804869 -0.08050934 -0.08053324 -0.08055757 -0.08058228 -0.08060791
 -0.08063478 -0.08066688 -0.08070419 -0.08074954 -0.08080096 -0.08085407 -0.080906 -0.08094763 -0.0809794 -0.0809963
 -0.08100466 -0.08100861 -0.08101486 -0.08103108 -0.08105536 -0.08109059 -0.08112643 -0.08115981 -0.0811843 -0.08119643
 -0.08120225 -0.08120142 -0.08120569 -0.08121618 -0.08123826 -0.08127214 -0.08131464 -0.08136527 -0.08141789 -0.08147217
 -0.0815233 -0.08157115 -0.08161256 -0.08164799 -0.08167665 -0.08169974 -0.08171878 -0.08173455 -0.08174888 -0.08176076
 -0.08177003 -0.08177565 -0.08177632 -0.0817745 -0.08176984 -0.08176849 -0.08177182 -0.08178376 -0.08180566 -0.0818344
 -0.08187006 -0.08190517 -0.08193937 -0.08196848 -0.08199293 -0.08201577 -0.08203816 -0.08206779 -0.08210554 -0.08215835
 -0.08222649 -0.08231372 -0.08242033 -0.08254773 -0.08269785 -0.08287211 -0.08307555 -0.08331092 -0.08358633 -0.08390562
 -0.08427734 -0.08470557 -0.08519351 -0.08574446 -0.0863487 -0.08700765 -0.08769301 -0.08840354 -0.08909997 -0.0897802
 -0.09041177 -0.09099303 -0.09149921 -0.09192386 -0.09222215 -0.09238241 -0.09233723 -0.09209122 -0.09160441 -0.09093048
 -0.09012091 -0.08925781 -0.08845249 -0.08774287 -0.0871977 -0.08680594 -0.08658052 -0.08649962 -0.086561 -0.08673706
 -0.08702864 -0.08737321 -0.08776761 -0.08811588 -0.08840787 -0.08860014 -0.08869052 -0.08871382 -0.0886721 -0.08860048
 -0.08849616 -0.08836086 -0.088192 -0.08797907 -0.08772767 -0.08744195 -0.08713607 -0.08683372 -0.08654501 -0.08629317
 -0.08607193 -0.08588746 -0.08572016 -0.08556176 -0.08539778 -0.08521862 -0.08502967 -0.08482832 -0.08463387 -0.08444905
 -0.08428627 -0.08414778 -0.08402688 -0.08392323 -0.08381817 -0.08371142 -0.08359329 -0.08346606 -0.08333725 -0.08320922
 -0.08309437 -0.08299226 -0.08290826 -0.08284021 -0.0827872 -0.08274706 -0.0827178 -0.08269574 -0.08267838 -0.08266041
 -0.08263816 -0.08260972 -0.08257247 -0.08253147 -0.08248701 -0.0824458 -0.08240929 -0.08237869 -0.08235451 -0.0823326
 -0.08231278 -0.08229186 -0.08227 -0.08224831 -0.08222724 -0.08221005 -0.08219674 -0.08218935 -0.08218689 -0.08218841
 -0.08219228 -0.08219552 -0.082197 -0.0821941 -0.08218703 -0.08217499 -0.08215887 -0.08213893 -0.08211584 -0.08208954
 -0.08206189 -0.08203288 -0.08200639 -0.08198306 -0.08196535 -0.08195383 -0.08194572 -0.08194089 -0.0819343 -0.08192603
 -0.08191577 -0.08190421 -0.08189556 -0.08188954 -0.08188786 -0.08188875 -0.08188885 -0.08188708 -0.0818795 -0.0818679
 -0.08185229 -0.08183585 -0.08182126 -0.08180988 -0.08180385 -0.08180079 -0.08180065 -0.0817998 -0.08179705 -0.08179158
 -0.08178268 -0.08177358 -0.08176449 -0.08175877 -0.08175664 -0.08175752 -0.08176114 -0.08176367 -0.08176497 -0.08176216
 -0.08175556 -0.08174471 -0.08173011 -0.0817126 -0.08169296 -0.08167243 -0.08165264 -0.08163578 -0.08162326 -0.08161732
 -0.08161701 -0.08162326 -0.08163173 -0.08164101 -0.08164802 -0.0816511 -0.08165236 -0.08165164 -0.08165342 -0.08165847
 -0.08166531 -0.08167395 -0.08167593 -0.081671 -0.08165299 -0.08162326 -0.08158613 -0.08154441 -0.08151046 -0.08148585
 -0.08148159 -0.08149499 -0.08152823 -0.08157369 -0.08162457 -0.08167187 -0.08170557 -0.08172286 -0.08171745 -0.08169723
 -0.08166217 -0.08162606 -0.08159228 -0.08157039 -0.0815632 -0.08157027 -0.08159236 -0.08162079 -0.08165514 -0.08168418
 -0.08170758 -0.08171779 -0.08171581 -0.08170336 -0.08168288 -0.08166431 -0.08164891 -0.08164584 -0.08165208 -0.08166754
 -0.0816869 -0.08170329 -0.08171503 -0.08171745 -0.08171411 -0.08170556 -0.08169535 -0.08168529 -0.08167579 -0.0816671
 -0.08166005 -0.08165453 -0.08165368 -0.08165795 -0.08166789 -0.08168359 -0.0817006 -0.0817187 -0.08173342 -0.08174524
 -0.08175484 -0.08176298 -0.08177313 -0.08178486 -0.08179919 -0.08181448 -0.08182841 -0.08183995 -0.08184649 -0.08184922
 -0.08184783 -0.081845 -0.08184212 -0.08184117 -0.08184353 -0.08184888 -0.08185782 -0.08186743 -0.08187748 -0.08188428
 -0.08188723 -0.08188606 -0.08188067 -0.08187668 -0.0818745 -0.08188128 -0.08189654 -0.08192109 -0.08195316 -0.08198632
 -0.08201944 -0.08204625 -0.08206726 -0.0820805 -0.08208693 -0.0820869 -0.08208124 -0.08207025 -0.08205616 -0.08203971
 -0.08202448 -0.08201189 -0.08200447 -0.08200331 -0.08200888 -0.08202154 -0.08204066 -0.08206639 -0.08209613 -0.08212978
 -0.08216102 -0.08218946 -0.08220763 -0.08221585 -0.08221171 -0.08219713 -0.08217767 -0.08215572 -0.08214064 -0.08213226
 -0.08213568 -0.0821466 -0.08216259 -0.082178 -0.08218641 -0.08218762 -0.08217774 -0.08216536 -0.08215214 -0.08214826
 -0.08215795 -0.08218076 -0.08221872 -0.08225899 -0.08230064 -0.0823314 -0.08235037 -0.08235744 -0.08235311 -0.08234561
 -0.08233529 -0.08232832 -0.08232414 -0.08232378 -0.08232655 -0.08233141 -0.08233745 -0.08234278 -0.08234634 -0.08234557
 -0.08234139 -0.08233266 -0.08232396 -0.08231725 -0.0823172 -0.08232694 -0.08234557 -0.08237451 -0.08240654 -0.08244097
 -0.08246989 -0.08249217 -0.08250509 -0.08250835 -0.08250462 -0.08249415 -0.08248104 -0.08246557 -0.08245139 -0.0824389
 -0.08243182 -0.08242989 -0.0824351 -0.08244506 -0.08245678 -0.08246745 -0.08247153 -0.08247003 -0.0824608 -0.08244923
 -0.08243773 -0.08243067 -0.08243102 -0.08243813 -0.0824529 -0.08247142 -0.08249325 -0.08251461 -0.08253503 -0.08255247
 -0.08256678 -0.08257775 -0.08258548 -0.08259147 -0.08259581 -0.08260005 -0.08260425 -0.0826096 -0.08261602 -0.08262405
 -0.08263331 -0.08264356 -0.08265398 -0.08266351 -0.08267137 -0.08267648 -0.08267868 -0.0826776 -0.0826732 -0.0826655
 -0.08265392 -0.08263829 -0.08261833 -0.08259381 -0.08256586 -0.08253447 -0.08250186 -0.08246816 -0.08243551 -0.08240393
 -0.08237394 -0.08234545 -0.0823179 -0.08229163 -0.08226742 -0.08224637 -0.08223203 -0.08222451 -0.08222657 -0.08223544
 -0.08224928 -0.0822641 -0.08227549 -0.082282 -0.08228132 -0.08227388 -0.08225962 -0.08223785 -0.082208 -0.08217148
 -0.08212736 -0.0820846 -0.08204383 -0.0820153 -0.08199989 -0.08199646 -0.08200439 -0.08201089 -0.08201531 -0.08200633
 -0.08198535 -0.08195172 -0.08190803 -0.0818608 -0.08181193 -0.08176823 -0.0817297 -0.08169964 -0.08167559 -0.08165703
 -0.08164003 -0.08162183 -0.08160082 -0.08157505 -0.08154693 -0.08151674 -0.08148666 -0.08145745 -0.08142827 -0.08139916
 -0.08136845 -0.08133598 -0.08130261 -0.08126852 -0.08123716 -0.08120874 -0.08118663 -0.08117048 -0.08116098 -0.08115726
 -0.08115753 -0.08116069 -0.08116443 -0.08116669 -0.08116434 -0.08115462 -0.08113335 -0.08110131 -0.08105624 -0.0810051
 -0.08095001 -0.08089706 -0.08084949 -0.08080497 -0.08076413 -0.08072037 -0.08067273 -0.08061942 -0.0805601 -0.08050091
 -0.08044226 -0.08039183 -0.0803495 -0.08031821 -0.08029664 -0.08028118 -0.08027007 -0.0802564 -0.08023989 -0.08021634
 -0.08018726 -0.08015302 -0.08011474 -0.0800738 -0.08003014 -0.07998387 -0.07993556 -0.07988536 -0.07983417 -0.07978267
 -0.07972935 -0.07967433 -0.07961412 -0.07954808 -0.07947586 -0.07939716 -0.07931857 -0.07924066 -0.07917554 -0.07912358
 -0.0790943 -0.07908576 -0.0790963 -0.07912065 -0.07914428 -0.07916138 -0.07915273 -0.07911955 -0.07905286 -0.07896367
 -0.07885808 -0.07874719 -0.07864053 -0.07854132 -0.07845396 -0.07837547 -0.07830613 -0.07824153 -0.07818095 -0.07812082
 -0.07806046 -0.07799947 -0.07793761 -0.07788023 -0.07782773 -0.0777896 -0.07776519 -0.07775538 -0.07775599 -0.07774938
 -0.07773146 -0.07767865 -0.07759661 -0.07748307 -0.07734971 -0.07721222 -0.07707573 -0.076951 -0.07683771 -0.07673876
 -0.07665239 -0.07657994 -0.07651389 -0.07645399 -0.07638616 -0.07630727 -0.07621009 -0.07609202 -0.07596381 -0.07582576
 -0.07569592 -0.07557486 -0.07547048 -0.0753815 -0.07530148 -0.07522845 -0.07514964 -0.07506533 -0.07496879 -0.07486342
 -0.07475303 -0.07463942 -0.07452784 -0.0744151 -0.07429926 -0.07417997 -0.07405458 -0.07392998 -0.07380913 -0.07369469
 -0.07359006 -0.07348564 -0.07338057 -0.07326382 -0.07313299 -0.07299062 -0.07283642 -0.07268252 -0.07252921 -0.07237997
 -0.07223301 -0.07207499 -0.07190387 -0.071701 -0.07147056 -0.07121319 -0.07093766 -0.07066291 -0.07039064 -0.07013289
 -0.06988329 -0.0696396 -0.06939771 -0.06915277 -0.06890804 -0.0686638 -0.06842316 -0.06818919 -0.06795365 -0.06771851
 -0.06745691 -0.06716766 -0.06681049 -0.0663816 -0.06587058 -0.06527854 -0.06465089 -0.06398918 -0.0633297 -0.06266399
 -0.06197289 -0.06124702 -0.06044563 -0.05957334 -0.05861455 -0.05759123 -0.05652415 -0.05543911 -0.05436897 -0.05332612
 -0.05233208 -0.05137678 -0.05046388 -0.04957004 -0.048685 -0.04781175 -0.04694311 -0.0461257 -0.04536488 -0.04469221
 -0.0441118 -0.04360839 -0.0431811 -0.0428084 -0.04249078 -0.0422251 -0.04201075 -0.04184536 -0.04172287 -0.04162635
 -0.04154572 -0.04145263 -0.04134142 -0.04118901 -0.04100405 -0.04078556 -0.04054575 -0.04029427 -0.0400326 -0.03976455
 -0.03948608 -0.03919674 -0.03889357 -0.03857876 -0.03823312 -0.03785904 -0.03739539 -0.03683767 -0.03613523 -0.03528868
 -0.0343693 -0.03338473 -0.03244041 -0.03152571 -0.03064517 -0.02978396 -0.02889777 -0.0279847 -0.02701997 -0.02600662
 -0.02494464 -0.02381974 -0.02262838 -0.02132634 -0.01988432 -0.01826754 -0.01643162 -0.01444674 -0.01230637 -0.0101656
 -0.00805898 -0.006068376 -0.004214874 -0.002483581 -0.0008766844 0.0006581452 0.002124894 0.003617725 0.005147204 0.006861769
 0.008749077 0.01085495 0.01310575 0.01528563 0.01737533 0.01920537 0.02085694 0.022378 0.02382985 0.02530055
 0.02679202 0.02833343 0.02990828 0.0315134 0.03314496 0.03480791 0.03646644 0.03811782 0.03970924 0.04122874
 0.04268779 0.04408585 0.04545167 0.04678488 0.04803296 0.04919066 0.05018042 0.0510119 0.051688 0.05222943
 0.05270335 0.05311778 0.05352814 0.05391627 0.05427528 0.05460003 0.05487408 0.05512395 0.05536634 0.05560896
 0.05586819 0.05611039 0.0563307 0.05649085 0.05658048 0.05658445 0.05649753 0.05632829 0.05607508 0.05578562
 0.05546261 0.0551682 0.05490002 0.05465985 0.0544395 0.05419706 0.0539321 0.05361694 0.05326598 0.0528917
 0.05251816 0.05218785 0.05191009 0.05171197 0.05158817 0.05153777 0.051573 0.05169639 0.05192935 0.05228594
 0.05274735 0.05331611 0.05394834 0.05463634 0.05536897 0.05614378 0.05697481 0.05786255 0.058813 0.0598255
 0.0608959 0.06202282 0.06319842 0.06441937 0.06567061 0.06695088 0.06824733 0.06956787 0.07091763 0.07230626
 0.07374754 0.07524087 0.07679123 0.07839199 0.08004023 0.08173476 0.08347382 0.08526135 0.0871 0.08898088
 0.09090713 0.09283527 0.09476306 0.09663416 0.09844631 0.1001931 0.101878 0.1035437 0.1051804 0.1067676
 0.108275 0.1095852 0.1107014 0.1115634 0.1122109 0.112681 0.1129942 0.1131876 0.113263 0.1132325
 0.1130941 0.1128632 0.1124836 0.111963 0.1111454 0.1099894 0.1084298 0.1064147 0.1042644 0.1020025
 0.09986249 0.09785278 0.09584303 0.09382596 0.09167659 0.08940891 0.08703413 0.08456632 0.08207153 0.07952043
 0.07690457 0.07413379 0.07104579 0.06764376 0.06377971 0.05976932 0.05580512 0.05208117 0.04881528 0.04580197
 0.04301562 0.04028691 0.03754985 0.03484714 0.0321704 0.02962326 0.027218 0.02495326 0.02282855 0.02076569
 0.01876323 0.01677646 0.01481447 0.01290201 0.01104905 0.009304727 0.00766482 0.006148159 0.004736424 0.003412279
 0.002154335 0.0009375106 -0.0002640052 -0.001468227 -0.002719603 -0.004046055 -0.005471463 -0.00704108 -0.008615106 -0.01018469
 -0.01154547 -0.01264497 -0.01354169 -0.01423 -0.0148804 -0.01550095 -0.01616762 -0.01687544 -0.01759243 -0.01831112
 -0.01897058 -0.01957852 -0.02013078 -0.02063343 -0.02110703 -0.02153079 -0.02188504 -0.02214205 -0.0222561 -0.02223782
 -0.02207469 -0.02180144 -0.02143454 -0.02099034 -0.02048168 -0.01989904 -0.01924868 -0.01848582 -0.01761226 -0.01652806
 -0.01522364 -0.01362978 -0.0117442 -0.009731279 -0.007610201 -0.005667979 -0.003896052 -0.002395091 -0.001138641 -8.629753E-05
 0.0007692156 0.001460376 0.001993659 0.002381576 0.002660616 0.002862965 0.003052271 0.00328915 0.003602056 0.004040853
 0.004535019 0.005071796 0.005588347 0.006057556 0.006503184 0.006922031 0.007364793 0.007836601 0.008360374 0.008937332
 0.009547179 0.01018803 0.01082911 0.01147339 0.01211938 0.01277641 0.01347565 0.01422357 0.01505424 0.01595922
 0.01694008 0.01798778 0.01908667 0.02025075 0.02148444 0.0228036 0.02422429 0.02572952 0.02732128 0.02896318
 0.03064348 0.03235783 0.03409969 0.03590801 0.03778747 0.03974577 0.04178307 0.04378488 0.04574113 0.04749002
 0.04903527 0.05031602 0.05134381 0.05213216 0.05267513 0.05296869 0.05299619 0.05272473 0.05215583 0.05127059
 0.05009945 0.04865587 0.04697592 0.045084 0.04299347 0.04071388 0.03824968 0.03559162 0.0328084 0.02989615
 0.02701535 0.02418037 0.02151185 0.01901687 0.01667601 0.0144845 0.01237063 0.01033928 0.008380746 0.006509375
 0.004775653 0.003177685 0.001742796 0.0004464246 -0.000737032 -0.001832932 -0.00288036 -0.003891437 -0.004888979 -0.005872908
 -0.006850144 -0.007813192 -0.008761396 -0.009685842 -0.01058351 -0.01145285 -0.01229212 -0.01311052 -0.01390893 -0.01469323
 -0.01546381 -0.01620216 -0.01690569 -0.01753463 -0.01808851 -0.0185423 -0.01890208 -0.01917578 -0.01936999 -0.0195041
 -0.01958174 -0.0196163 -0.01961189 -0.01957695 -0.01951753 -0.01943898 -0.0193515 -0.01925902 -0.01917881 -0.01911618
 -0.01909036 -0.01910696 -0.01917789 -0.01930639 -0.01949465 -0.01974379 -0.02004664 -0.02040291 -0.02079311 -0.02121559
 -0.02164374 -0.02207591 -0.02248936 -0.02288252 -0.02323831 -0.02355448 -0.02381674 -0.02402497 -0.02417051 -0.02426022
 -0.02429653 -0.02429172 -0.02425572 -0.02419849 -0.02412877 -0.02404886 -0.02396168 -0.02386635 -0.02376202 -0.02365381
 -0.02354117 -0.0234375 -0.02334372 -0.02327412 -0.02322959 -0.02321563 -0.02323164 -0.0232708 -0.02333135 -0.02339889
 -0.02347276 -0.02354171 -0.02360862 -0.02367383 -0.02374266 -0.02382425 -0.0239218 -0.02404338 -0.02418763 -0.02435689
 -0.02454656 -0.02475624 -0.0249768 -0.02520693 -0.02543069 -0.02564475 -0.02583341 -0.02599288 -0.02611926 -0.0262111
 -0.0262765 -0.02631584 -0.02633885 -0.02634588 -0.02634345 -0.02633177 -0.02631568 -0.02629501 -0.02627228 -0.02624603
 -0.02621442 -0.02617494 -0.02612289 -0.02605561 -0.02596835 -0.02585909 -0.02572415 -0.02556428 -0.02537775 -0.02517012
 -0.02494195 -0.02470237 -0.02445308 -0.0242039 -0.02395643 -0.02371895 -0.0234925 -0.0232819 -0.02308753 -0.0229086
 -0.02274472 -0.02258985 -0.02244334 -0.022298 -0.022154 -0.02200744 -0.02186029 -0.0217147 -0.02157414 -0.02144499
 -0.02133086 -0.02123844 -0.02116991 -0.02112951 -0.02111707 -0.02113396 -0.02117811 -0.0212494 -0.0213447 -0.02146386
 -0.02160139 -0.02175728 -0.02192079 -0.0220911 -0.02225658 -0.02241642 -0.02256837 -0.0227129 -0.02285785 -0.02300321
 -0.02315331 -0.02330628 -0.02345685 -0.02360415 -0.02374242 -0.02387406 -0.0240006 -0.02412435 -0.02424938 -0.02437497
 -0.0245023 -0.02462894 -0.02475423 -0.02487479 -0.0249898 -0.02509428 -0.02518669 -0.02526429 -0.0253256 -0.02537523
 -0.02541316 -0.02544751 -0.02547884 -0.02550955 -0.02553925 -0.02556127 -0.02557517 -0.02557392 -0.02555912 -0.02553313
 -0.025498 -0.02546158 -0.02542137 -0.02537825 -0.02532472 -0.02525147 -0.02515484 -0.02502636 -0.02487267 -0.02469429
 -0.02450061 -0.02429685 -0.02408289 -0.02386132 -0.02362173 -0.02336294 -0.02307511 -0.02275633 -0.02240882 -0.02203235
 -0.02164342 -0.0212431 -0.02085154 -0.02046862 -0.02010391 -0.01975545 -0.01942022 -0.01909751 -0.01878282 -0.01847915
 -0.0181893 -0.01791722 -0.01766971 -0.01744671 -0.0172515 -0.01707952 -0.0169289 -0.01679662 -0.01668009 -0.01658215
 -0.01650337 -0.0164449 -0.01640857 -0.01638369 -0.01636999 -0.01635085 -0.01632511 -0.01628567 -0.01623253 -0.01616707
 -0.01608889 -0.01599563 -0.0158867 -0.01575727 -0.01560945 -0.01544579 -0.01526967 -0.01508893 -0.01490391 -0.01471874
 -0.01453114 -0.01434102 -0.01414484 -0.01394171 -0.01372478 -0.01349182 -0.01323517 -0.01295143 -0.01264056 -0.01230064
 -0.01194272 -0.01156719 -0.0111896 -0.01081094 -0.01044358 -0.01008789 -0.009750024 -0.009429761 -0.009128591 -0.008846226
 -0.008583061 -0.008337473 -0.008107274 -0.007886554 -0.007665167 -0.007434627 -0.007179751 -0.006896801 -0.006575465 -0.006221399
 -0.005833145 -0.005423288 -0.004995195 -0.004563667 -0.004133183 -0.003714188 -0.003309899 -0.002921458 -0.002549784 -0.002189577
 -0.001840606 -0.001496266 -0.001156222 -0.0008139873 -0.0004700841 -0.0001239835 0.0002213317 0.0005537361 0.0008710536 0.001159357
 0.001422886 0.001662525 0.001883776 0.002096981 0.002296606 0.002484308 0.002644931 0.002769735 0.002848608 0.002872884
 0.002848077 0.002771131 0.00266309 0.002525648 0.002385963 0.00224756 0.002125883 0.002022488 0.00193425 0.001861009
 0.001798247 0.001747277 0.001716496 0.001706603 0.001726272 0.001772407 0.001840694 0.001929016 0.002030245 0.002146869
 0.002280289 0.002429694 0.002598463 0.002773722 0.002951908 0.003111503 0.003243489 0.003330817 0.003365946 0.003344849
 0.003265014 0.00313022 0.00294096 0.002696322 0.002396264 0.002038846 0.001624845 0.001170428 0.0006791731 0.0001862128
 -0.0003064162 -0.0007702071 -0.001208175 -0.001613562 -0.001991014 -0.002345262 -0.002681789 -0.003007508 -0.003332336 -0.003666578
 -0.004019653 -0.004401552 -0.004812363 -0.005254942 -0.005725388 -0.006221883 -0.006747918 -0.007303329 -0.007895169 -0.00852506
 -0.009189438 -0.009888648 -0.01060307 -0.01133141 -0.01204815 -0.01275268 -0.01342822 -0.01407599 -0.01469247 -0.01527864
 -0.01583566 -0.01636318 -0.0168603 -0.01732872 -0.01776957 -0.01818639 -0.01858376 -0.0189609 -0.01931954 -0.01965497
 -0.01996423 -0.0202495 -0.02050931 -0.02075393 -0.02098533 -0.02120922 -0.02142703 -0.02163627 -0.02183687 -0.02202672
 -0.02220578 -0.02237424 -0.02253182 -0.02267618 -0.02280705 -0.02292166 -0.02302096 -0.02310638 -0.02317853 -0.02324003
 -0.0232891 -0.02332464 -0.02334439 -0.02334502 -0.02332793 -0.02329184 -0.0232425 -0.02318184 -0.02311487 -0.0230436
 -0.02296997 -0.022894 -0.02282076 -0.02275006 -0.02269433 -0.02265452 -0.02263732 -0.02264239 -0.02265751 -0.02268114
 -0.02269433 -0.02269812 -0.02268726 -0.02266364 -0.02263146 -0.02258827 -0.02253142 -0.02245814 -0.02236169 -0.02224621
 -0.02211232 -0.02196672 -0.02181511 -0.02165729 -0.02149514 -0.02132477 -0.0211446 -0.02095582 -0.02075785 -0.02055571
 -0.02035006 -0.02014322 -0.01993542 -0.01972744 -0.0195195 -0.019317 -0.01912093 -0.01894209 -0.0187811 -0.01864722
 -0.01853886 -0.01845682 -0.01839789 -0.01835604 -0.01832932 -0.01831221 -0.01830498 -0.01830622 -0.01831584 -0.01833451
 -0.01835833 -0.01838781 -0.0184117 -0.01842854 -0.01842134 -0.01838632 -0.018313 -0.01819802 -0.01805151 -0.01787338
 -0.01768892 -0.01749921 -0.01732164 -0.01715493 -0.01699575 -0.01684135 -0.01667698 -0.01650196 -0.01630564 -0.01609129
 -0.01585961 -0.01561565 -0.01536729 -0.015116 -0.01486772 -0.01461686 -0.01436212 -0.01409662 -0.01381533 -0.01352067
 -0.01320989 -0.01289821 -0.01258712 -0.01229513 -0.01202536 -0.01178434 -0.01157342 -0.01138011 -0.01120361 -0.01102461
 -0.01084366 -0.01065642 -0.01046625 -0.01028769 -0.01012088 -0.009977117 -0.009847053 -0.009719112 -0.009580634 -0.009406311
 -0.009196803 -0.008938463 -0.00865188 -0.00834415 -0.008040166 -0.007754998 -0.00749537 -0.007269681 -0.007062683 -0.006874368
 -0.006681005 -0.006479526 -0.00625348 -0.006000854 -0.005723021 -0.005420528 -0.005113863 -0.004804181 -0.00451218 -0.004234653
 -0.00396882 -0.003707736 -0.00342754 -0.00312759 -0.002791078 -0.002430989 -0.002055632 -0.001684606 -0.001341127 -0.001034294
 -0.0007817539 -0.0005696093 -0.0003998642 -0.0002432968 -9.144747E-05 7.679535E-05 0.0002686342 0.0004864752 0.0007320443 0.001000062
 0.001290449 0.001595662 0.001914962 0.002228476 0.002534377 0.002806069 0.003045162 0.003243474 0.003407746 0.003554127
 0.003687819 0.003827529 0.003974433 0.00413732 0.004317746 0.004520255 0.004745663 0.004997923 0.005269665 0.005560734
 0.005856054 0.006151261 0.006434089 0.006700041 0.006949657 0.007181513 0.007406447 0.007625191 0.007846242 0.008069858
 0.008294782 0.008520821 0.008745299 0.008968991 0.009194379 0.009422326 0.009656153 0.009897696 0.0101515 0.01042104
 0.01071583 0.01103039 0.01136768 0.01170644 0.01203289 0.01233243 0.01258903 0.01281929 0.01302298 0.01322608
 0.01343687 0.01365469 0.01388184 0.01410155 0.01431202 0.01451398 0.01470772 0.01491031 0.01512184 0.01535071
 0.01559428 0.01584422 0.01609729 0.01633856 0.01656758 0.01677456 0.01696462 0.01713879 0.01730831 0.01748311
 0.01767681 0.01790222 0.01816603 0.01847892 0.01882576 0.01920864 0.01959152 0.01996691 0.02030994 0.02061334
 0.02088974 0.02113889 0.02138652 0.02163362 0.02188494 0.02214029 0.02239757 0.02265991 0.02294297 0.02324874
 0.02359385 0.0239733 0.02438496 0.02482263 0.02527679 0.02574187 0.02621056 0.02667383 0.02712308 0.02755328
 0.02795836 0.02834278 0.02870818 0.02905208 0.02937674 0.02966378 0.02991072 0.03010525 0.03024497 0.03034434
 0.03040442 0.03046033 0.0305143 0.03060353 0.03072662 0.03089861 0.03111112 0.03134529 0.03159453 0.03183272
 0.03206464 0.03228747 0.03250322 0.03271898 0.03291648 0.03308639 0.0332098 0.03326874 0.03327822 0.03323366
 0.03317707 0.0331168 0.03308343 0.0330847 0.03311834 0.03318588 0.03326243 0.03334681 0.03342064 0.03348536
 0.03355007 0.03361722 0.03370581 0.03381376 0.03394379 0.03409383 0.03426021 0.03444292 0.03464371 0.03485307
 0.03506137 0.03526244 0.03543871 0.03562323 0.03582151 0.03608541 0.03645054 0.03686852 0.03734761 0.03776201
 0.03808494 0.03831831 0.03845662 0.03857368 0.03867274 0.03878149 0.03889827 0.03901253 0.039124 0.03922698
 0.03932194 0.03940973 0.0394856 0.03953998 0.03956763 0.03955612 0.0395035 0.03940259 0.03925477 0.0390567
 0.0388176 0.03853979 0.03823552 0.03790847 0.03757021 0.03721989 0.0368888 0.03657829 0.03633883 0.03617636
 0.03610348 0.03612044 0.03617184 0.03625309 0.03629349 0.03629342 0.03621789 0.03607173 0.03584894 0.0355614
 0.03522538 0.03486814 0.03453859 0.03425582 0.03406893 0.033953 0.03391112 0.03389837 0.03389169 0.03386569
 0.03380581 0.03370357 0.03355037 0.03336753 0.03315162 0.03296756 0.03282107 0.03275721 0.03277811 0.03285302
 0.03297821 0.03309888 0.03321663 0.03331179 0.03339006 0.03345878 0.03352531 0.03360874 0.03371597 0.03386958
 0.03406283 0.03430003 0.03456398 0.03484052 0.03512687 0.03541765 0.03571492 0.03602476 0.03631873 0.0365952
 0.03680924 0.03695212 0.03700889 0.03697577 0.03687133 0.0366965 0.03648673 0.03624541 0.03602427 0.03582526
 0.03569008 0.03561037 0.0355798 0.03558901 0.03560845 0.03564639 0.03570148 0.0357872 0.03592302 0.03610189
 0.03632939 0.03658157 0.03685042 0.03710769 0.03734401 0.03753095 0.03765794 0.03772043 0.03771196 0.03766902
 0.0375933 0.03753032 0.03748255 0.03746576 0.03747838 0.03750589 0.0375446 0.03756515 0.03756735 0.03753122
 0.03746735 0.0373908 0.0373097 0.03725171 0.03719756 0.03713879 0.03705075 0.03690114 0.03671179 0.03647707
 0.03625123 0.0360572 0.0359099 0.03582327 0.03576392 0.03572877 0.03568996 0.03564369 0.03558597 0.0355164
 0.03543481 0.03534123 0.03523517 0.03511754 0.03499303 0.03486321 0.03473556 0.03461223 0.0345026 0.03440607
 0.03432824 0.03426106 0.0341978 0.03413156 0.0340529 0.03396469 0.0338651 0.03376066 0.03365135 0.03355077
 0.03345926 0.03340421 0.0333924 0.03342467 0.03350566 0.03356922 0.03361184</values></Ydata></AB><ScSm><Ydata ylabel="Single channel"><values byteorder="INTEL" format="FLOAT32" numvalues="1814"> 0.07230873 0.07230449 0.07237174 0.07253441 0.07275625 0.07296416 0.07310151 0.07316439 0.07317811 0.0731505
 0.07308426 0.07303169 0.07308304 0.07327472 0.07353336 0.07372613 0.07376605 0.07368886 0.07363489 0.07371448
 0.07385932 0.07384025 0.07348289 0.07286891 0.07228226 0.07194458 0.07187599 0.07206416 0.0726053 0.07343994
 0.07405549 0.07385363 0.07290205 0.07197044 0.07167614 0.07189292 0.07211006 0.07202648 0.07164301 0.07114206
 0.07093966 0.07157664 0.07318403 0.07503954 0.07582808 0.07447442 0.07091206 0.0663234 0.06270249 0.0617862
 0.06383064 0.06726445 0.06986999 0.0705516 0.06985606 0.06884778 0.0679615 0.06714815 0.06662178 0.06689292
 0.0680667 0.06937499 0.06957989 0.0680362 0.0654581 0.06340551 0.06286044 0.06361794 0.06512552 0.06708193
 0.06859071 0.06768373 0.06326053 0.05753282 0.05503405 0.05830938 0.0651974 0.07093792 0.07240368 0.0698598
 0.06558417 0.06197917 0.06065941 0.06202238 0.06518832 0.06872652 0.07151301 0.07278047 0.07193681 0.06908436
 0.0655164 0.06308658 0.06306918 0.0656593 0.06993676 0.07395947 0.07564747 0.07431572 0.07112721 0.06787181
 0.06579378 0.06559303 0.06759833 0.0714254 0.07595948 0.07999466 0.08271953 0.08380592 0.08348645 0.08240522
 0.08112551 0.08003601 0.07969029 0.08046502 0.08166435 0.08178534 0.08015093 0.0778118 0.07646468 0.07669778
 0.07752079 0.07757062 0.07649333 0.07472897 0.07216697 0.06810489 0.06286787 0.05825519 0.05574343 0.05535357
 0.05671018 0.05962142 0.06283954 0.06400049 0.06222089 0.05973713 0.05969425 0.06279095 0.06692554 0.06974681
 0.07082623 0.07147981 0.07308156 0.07566202 0.07774221 0.07745111 0.07438023 0.07061835 0.06927154 0.07141402
 0.0750569 0.07759252 0.07854062 0.07925431 0.08055182 0.08144633 0.08017777 0.07630905 0.07184511 0.06999366
 0.07237153 0.07738255 0.08137625 0.08135246 0.07697974 0.07065627 0.06563674 0.06378444 0.06508164 0.06887348
 0.07458531 0.08106503 0.08628611 0.08848909 0.08746935 0.08446637 0.08074917 0.07644628 0.07122588 0.06624656
 0.06438784 0.06752598 0.07413705 0.08057009 0.0843047 0.08520649 0.08410873 0.0812611 0.0765602 0.07103185
 0.06731394 0.06760879 0.07103013 0.07410639 0.07441452 0.07278782 0.07152793 0.07153916 0.07199687 0.07210577
 0.07223168 0.07326689 0.07534584 0.07750697 0.07861958 0.07841276 0.07752265 0.07675537 0.0763566 0.07583424
 0.07464658 0.07326975 0.07315031 0.07512341 0.0782699 0.08086288 0.08210216 0.08240973 0.082283 0.08141768
 0.0791574 0.07574357 0.07281844 0.07220803 0.07415916 0.07718861 0.07962308 0.08079739 0.08089787 0.08036388
 0.07958931 0.07878836 0.07806019 0.07766946 0.07798096 0.07893878 0.07994756 0.08047307 0.08048223 0.08017299
 0.07959109 0.0787057 0.07768162 0.07688951 0.07664151 0.07695825 0.07760328 0.07829508 0.07881299 0.07896715
 0.07866382 0.07803994 0.0773786 0.07685234 0.0764712 0.07626443 0.07633018 0.07666042 0.07706052 0.0773144
 0.07735562 0.07724098 0.07703113 0.07674801 0.07641213 0.07608271 0.07586031 0.07582614 0.07594931 0.07609381
 0.07616721 0.0762121 0.07628664 0.07632107 0.07619274 0.07590678 0.07560923 0.07543192 0.07538776 0.0754057
 0.07540309 0.07530217 0.075027 0.07456616 0.07406111 0.07375789 0.07380902 0.07415693 0.07462956 0.07507649
 0.07539313 0.07552275 0.07549762 0.07541008 0.07530288 0.07513624 0.07488072 0.07460324 0.07444659 0.0745232
 0.07481179 0.07516383 0.07542886 0.07555605 0.0755784 0.07556073 0.07557736 0.07566378 0.07576072 0.07576612
 0.07566462 0.07555703 0.07554723 0.07563238 0.07571407 0.0757069 0.07563272 0.07559781 0.07567272 0.07582146
 0.07596266 0.07606698 0.07616828 0.07629547 0.07641342 0.07644185 0.07634566 0.07619405 0.07609595 0.0760861
 0.07612013 0.07617231 0.07627425 0.07644288 0.07662338 0.07673787 0.07677151 0.07678147 0.07681982 0.07686807
 0.07686483 0.0767861 0.07667474 0.07659309 0.07656914 0.07659027 0.07662703 0.07665344 0.07665513 0.07662963
 0.07658167 0.07651695 0.07643865 0.07635568 0.07629824 0.07631022 0.07640304 0.07651848 0.07656147 0.07648303
 0.07632647 0.07618428 0.07611029 0.07607754 0.07602264 0.07591941 0.07579765 0.0756989 0.07563676 0.07559984
 0.07557112 0.07553834 0.07550763 0.07551707 0.07561301 0.07578957 0.07596624 0.07605319 0.07603732 0.07598497
 0.07596692 0.07600273 0.07607172 0.07615228 0.07624647 0.07637446 0.07653838 0.0766959 0.07679639 0.07684612
 0.07690566 0.07702097 0.07719101 0.07739677 0.07761427 0.07779807 0.07790667 0.0779602 0.07803336 0.07817426
 0.07836007 0.07854339 0.07871167 0.07888234 0.07906561 0.07925974 0.07947563 0.07974028 0.08006755 0.08043344
 0.08078367 0.08106796 0.08127926 0.08146861 0.0817137 0.08205794 0.08247457 0.08289097 0.08324996 0.0835511
 0.08383517 0.08413249 0.08444111 0.08475974 0.08511645 0.08553598 0.08599511 0.08644223 0.08685557 0.0872549
 0.08766175 0.08807524 0.08848767 0.08890475 0.08934318 0.08981155 0.09029204 0.09074374 0.09113442 0.09147114
 0.09179658 0.09215791 0.09257583 0.09302492 0.09343889 0.09375982 0.09400223 0.09425177 0.09457846 0.09496464
 0.0953413 0.09568195 0.09602607 0.09641069 0.09681604 0.09719573 0.09753768 0.09787323 0.09823347 0.09860973
 0.09895651 0.09923145 0.09943682 0.09961941 0.09982732 0.1000788 0.1003801 0.1007484 0.1011866 0.1016506
 0.1020712 0.1024071 0.1026584 0.1028478 0.1030114 0.103191 0.1034085 0.1036522 0.1038988 0.1041296
 0.1043226 0.1044634 0.1045821 0.104745 0.1049899 0.1052978 0.1056421 0.1060268 0.1064518 0.1068769
 0.107263 0.1076322 0.1080416 0.1084935 0.1089092 0.109211 0.1093982 0.1095231 0.1096264 0.1097348
 0.1098952 0.110155 0.1105047 0.1108746 0.1111974 0.1114537 0.1116563 0.1118169 0.1119386 0.1120295
 0.1121091 0.1122027 0.1123374 0.1125448 0.1128551 0.1132682 0.1137296 0.114152 0.1144717 0.1146708
 0.114749 0.1147042 0.1145605 0.1143844 0.1142334 0.1140874 0.1138567 0.1134621 0.1128892 0.1121649
 0.1113132 0.1103534 0.1093302 0.1083259 0.1074376 0.1067448 0.1062971 0.1061275 0.106263 0.1067036
 0.1073826 0.1081642 0.1088902 0.1094247 0.1096629 0.1095357 0.1090395 0.1082527 0.1073005 0.1062992
 0.1053298 0.104435 0.1036208 0.1028841 0.1022682 0.1018902 0.1018982 0.1024041 0.1034521 0.1050152
 0.106986 0.1091733 0.111349 0.1133326 0.115049 0.1165159 0.1177929 0.1189452 0.120028 0.1210678
 0.122051 0.1229482 0.1237548 0.1244928 0.1251765 0.1257919 0.1263092 0.1267033 0.1269676 0.1271244
 0.1272147 0.1272703 0.1273043 0.1273281 0.1273555 0.1273731 0.127324 0.1271355 0.1267643 0.12622
 0.1255742 0.1249678 0.1246122 0.1247573 0.1256085 0.1272151 0.1294132 0.1318873 0.1343117 0.1364571
 0.1382152 0.1395834 0.1406398 0.1414996 0.1422602 0.1429736 0.1436573 0.1443144 0.1449436 0.1455416
 0.1461072 0.1466465 0.1471758 0.1477095 0.1482415 0.1487453 0.1492047 0.1496402 0.1500946 0.1505928
 0.1511181 0.1516302 0.1521081 0.1525692 0.153039 0.153511 0.153952 0.1543459 0.154715 0.1550979
 0.1555213 0.1559867 0.156465 0.156908 0.1572832 0.1576022 0.1579045 0.1582204 0.1585563 0.1589069
 0.1592642 0.159618 0.1599621 0.1603061 0.1606715 0.1610651 0.1614593 0.1618117 0.1621056 0.1623642
 0.1626248 0.1629058 0.1631997 0.1634896 0.1637718 0.164067 0.1644045 0.164789 0.1651869 0.1655513
 0.1658601 0.1661285 0.16639 0.1666702 0.1669751 0.1672966 0.1676235 0.1679488 0.1682694 0.168585
 0.1688979 0.1692112 0.1695251 0.1698346 0.1701339 0.1704232 0.170709 0.170999 0.1712991 0.1716175
 0.1719622 0.1723276 0.1726856 0.1730027 0.173269 0.1735061 0.1737446 0.1740012 0.1742765 0.174567
 0.1748703 0.1751823 0.1754971 0.1758108 0.1761216 0.1764276 0.1767296 0.1770327 0.1773402 0.1776475
 0.1779476 0.1782423 0.1785401 0.1788436 0.1791453 0.1794359 0.179713 0.1799841 0.1802624 0.1805578
 0.1808658 0.181172 0.1814668 0.1817533 0.1820379 0.1823221 0.1826053 0.1828893 0.1831759 0.1834652
 0.1837578 0.1840549 0.1843538 0.184646 0.1849246 0.1851929 0.1854625 0.1857413 0.1860278 0.1863179
 0.1866098 0.1868988 0.1871789 0.1874514 0.1877263 0.1880104 0.1882996 0.1885852 0.188863 0.1891357
 0.1894077 0.1896805 0.1899525 0.1902227 0.1904939 0.1907711 0.1910591 0.1913588 0.191662 0.1919553
 0.1922355 0.1925134 0.1927988 0.1930893 0.1933776 0.1936609 0.1939422 0.1942257 0.194513 0.1948018
 0.195091 0.1953841 0.1956827 0.1959796 0.1962655 0.1965367 0.1967955 0.1970495 0.1973099 0.1975792
 0.1978467 0.1981042 0.1983591 0.1986226 0.1988961 0.1991735 0.1994477 0.1997147 0.1999801 0.2002557
 0.2005447 0.2008381 0.2011289 0.2014178 0.2017067 0.2019956 0.2022853 0.2025763 0.2028684 0.2031619
 0.2034551 0.2037461 0.2040379 0.2043326 0.2046226 0.2049007 0.2051715 0.2054425 0.205713 0.2059831
 0.2062579 0.2065378 0.2068192 0.207104 0.2073938 0.2076832 0.2079677 0.2082461 0.2085138 0.208771
 0.2090324 0.2093092 0.2095949 0.2098792 0.2101606 0.21044 0.2107195 0.2110051 0.2112951 0.2115795
 0.2118587 0.212142 0.2124276 0.2127084 0.2129868 0.2132649 0.2135373 0.2138042 0.2140667 0.2143025
 0.2144524 0.2143759 0.2137319 0.2118475 0.2077046 0.2001488 0.1883612 0.1723872 0.1532989 0.1328042
 0.1126194 0.09403971 0.07782716 0.0643122 0.05355787 0.04547089 0.03987121 0.03659917 0.03563086 0.03720926
 0.04199099 0.05065996 0.06244808 0.07382008 0.0798474 0.07810307 0.07098354 0.06352189 0.05919883 0.05825355
 0.05918601 0.06071606 0.06243908 0.06459127 0.06757966 0.07152821 0.07625677 0.08176786 0.0884811 0.09670088
 0.1059835 0.1153252 0.1240246 0.1322315 0.1406081 0.1495408 0.1587404 0.1675271 0.1753723 0.1821687
 0.18813 0.193546 0.1986127 0.2034161 0.2079981 0.212353 0.2163264 0.2195757 0.2217396 0.2227138
 0.2227746 0.2224216 0.2220858 0.2219657 0.2220801 0.222397 0.2228916 0.2235422 0.2243248 0.2252129
 0.2261718 0.227164 0.228161 0.2291417 0.230086 0.2309772 0.231802 0.2325482 0.2332124 0.2338078
 0.2343543 0.2348649 0.2353467 0.2358046 0.2362392 0.2366511 0.2370454 0.2374254 0.2377831 0.2381078
 0.2383995 0.2386702 0.2389344 0.2392006 0.2394665 0.2397228 0.2399676 0.2402109 0.2404627 0.2407206
 0.2409734 0.241211 0.2414337 0.2416534 0.2418865 0.2421371 0.2423934 0.2426402 0.2428715 0.2430916
 0.2433114 0.2435437 0.243793 0.2440503 0.2443008 0.2445359 0.24476 0.2449883 0.2452317 0.2454828
 0.2457265 0.2459652 0.2462158 0.2464812 0.2467475 0.2470076 0.2472676 0.2475311 0.2477971 0.2480657
 0.2483295 0.2485697 0.248777 0.2489716 0.2491899 0.249451 0.2497371 0.2500098 0.2502496 0.2504729
 0.2507058 0.2509524 0.2511974 0.2514268 0.251644 0.2518778 0.2521617 0.2524897 0.2528151 0.2531078
 0.2533838 0.2536667 0.2539605 0.2542648 0.2545734 0.2548485 0.2550454 0.2551796 0.2553441 0.2556376
 0.2560703 0.2565446 0.2569441 0.2572378 0.2574837 0.2577557 0.258093 0.2584652 0.2587435 0.2587901
 0.2586583 0.2586271 0.2589448 0.2595851 0.2603123 0.2609261 0.2613849 0.2617475 0.2620688 0.262344
 0.2625179 0.2625503 0.2625023 0.2625569 0.2628942 0.2635063 0.2641848 0.2647324 0.2651187 0.2654043
 0.2656326 0.2658273 0.2659492 0.2658256 0.2653325 0.2647306 0.2645996 0.2652761 0.2664709 0.2675776
 0.2682726 0.2686776 0.2690157 0.2693371 0.2695902 0.2696714 0.2692853 0.2681111 0.2664235 0.2652714
 0.2656118 0.2673451 0.2694872 0.2711548 0.2721245 0.2726169 0.2729152 0.2731739 0.2732974 0.2729506
 0.2719313 0.2706576 0.2700613 0.2707328 0.2722671 0.2737001 0.2744889 0.274802 0.2750207 0.2753066
 0.2754845 0.2749845 0.2731716 0.2702881 0.2679222 0.2678904 0.2704606 0.2740289 0.2767068 0.2779438
 0.2783794 0.2784536 0.2777627 0.2757926 0.2727 0.2692461 0.2665449 0.2658976 0.267933 0.2715412
 0.2745031 0.2756741 0.2759538 0.2768182 0.2785672 0.2803286 0.2811888 0.280896 0.2797184 0.277957
 0.2757978 0.2737536 0.2729361 0.2742754 0.2773855 0.2806966 0.2829047 0.283965 0.2844085 0.2838096
 0.2804703 0.2734598 0.2651741 0.2606856 0.2632654 0.2709624 0.2787051 0.2832996 0.2851862 0.286052
 0.2865529 0.2861407 0.283402 0.2768403 0.2672544 0.2592168 0.2579809 0.2642884 0.2735263 0.2800263
 0.2809132 0.2763977 0.2687638 0.2617031 0.2588171 0.2614354 0.2680229 0.2756982 0.281964 0.2854043
 0.2856865 0.2834334 0.2801719 0.2779508 0.2778624 0.2784356 0.276751 0.2721153 0.2671987 0.2641192
 0.2611853 0.2560514 0.2508618 0.2508371 0.257476 0.2660409 0.2708731 0.2711221 0.2697479 0.2681472
 0.2638 0.2539178 0.2407075 0.2314871 0.2322728 0.2415266 0.2515142 0.2558534 0.2545813 0.2519363
 0.2507298 0.2495427 0.2448548 0.2357035 0.2260521 0.2214902 0.223334 0.2274636 0.2292178 0.2271323
 0.2213761 0.2122453 0.2027666 0.1996758 0.2077405 0.2239154 0.2396977 0.2481098 0.2462852 0.2340019
 0.2146232 0.1970494 0.1913972 0.1999811 0.2145184 0.2237423 0.2223731 0.2121084 0.1967688 0.1796234
 0.1648379 0.1580208 0.1628791 0.1774165 0.1940172 0.203304 0.1993489 0.1842182 0.1682223 0.1625156
 0.1690502 0.1792862 0.1837595 0.1806483 0.1744871 0.1702541 0.1704506 0.174708 0.1802236 0.1843674
 0.1867923 0.1866134 0.1795993 0.1632985 0.1439693 0.1324794 0.1329952 0.1408505 0.1512721 0.1636373
 0.1757764 0.181065 0.1759061 0.1665687 0.1638422 0.1715778 0.1833828 0.190409 0.1900899 0.1865883
 0.1843612 0.1834051 0.181479 0.1792591 0.1805464 0.1869994 0.1952198 0.2005478 0.2019347 0.2015154
 0.2010146 0.2004536 0.1993777 0.1976293 0.1952636 0.1926738 0.1904806 0.1888302 0.18726 0.1854008
 0.1829887 0.1788928 0.1713804 0.160633 0.1503021 0.1446671 0.1441645 0.1456561 0.1470793 0.1486785
 0.148699 0.1421294 0.1273202 0.1114483 0.1053057 0.1128888 0.1284313 0.1429548 0.1510631 0.1513849
 0.1439973 0.1308822 0.1183769 0.115148 0.1250699 0.1435027 0.1623065 0.1768519 0.1864359 0.1903843
 0.1874412 0.1788312 0.1693863 0.1647887 0.1681691 0.1787154 0.1918368 0.2002383 0.1975135 0.1846038
 0.1727248 0.1750556 0.1928041 0.2130617 0.2232995 0.2240785 0.2238397 0.2257889 0.2263632 0.2245731
 0.225672 0.2339568 0.2464145 0.2556701 0.2564483 0.2476474 0.2315944 0.2144818 0.2047639 0.2064589
 0.214686 0.2210512 0.2218179 0.2174334 0.2075353 0.1929551 0.1809665 0.1809255 0.1933829 0.2087929
 0.2183488 0.2220029 0.224518 0.2272492 0.2265204 0.2192297 0.2080317 0.1996914 0.1983892 0.202066
 0.2058971 0.2073688 0.206361 0.2023163 0.1945655 0.1854046 0.1801235 0.1824708 0.190848 0.1998584
 0.2051799 0.2063179 0.2053196 0.2041484 0.2033426 0.2022 0.2001476 0.1985051 0.2002092 0.2065857
 0.215082 0.221815 0.2259785 0.2300857 0.2359923 0.2422878 0.2459723 0.2457274 0.2432089 0.241666
 0.2433746 0.2478234 0.2520691 0.2532351 0.2512425 0.2491304 0.2502469 0.2550398 0.2609818 0.2654402
 0.2678349 0.2690952 0.2701019 0.2709429 0.270875 0.2689055 0.2652521 0.2622107 0.2625472 0.2667448
 0.2725133 0.2771153 0.2795446 0.2803946 0.2804031 0.2796692 0.2780667 0.2759363 0.274101 0.2732371
 0.2734054 0.2742168 0.2752546 0.2762514 0.2770622 0.2776531 0.2780792 0.2784016 0.2786616 0.2789212
 0.2792279 0.2795233 0.2796937 0.2797534 0.2798831 0.2802167 0.2806559 0.2809734 0.2810308 0.2807912
 0.2801836 0.2791165 0.2776359 0.2759258 0.2740993 0.272116 0.2700273 0.268258 0.2674932 0.2681732
 0.2700913 0.2725148 0.2746865 0.2762102 0.2770648 0.2774195 0.2774883 0.2774565 0.2774304 0.2774201
 0.2773861 0.2773018 0.2771693 0.2769925 0.276769 0.2765197 0.2762999 0.2761533 0.2760624 0.2759599
 0.2757814 0.2755005 0.2751305 0.2747082 0.2742592 0.2737645 0.273165 0.272413 0.2715162 0.2705336
 0.2695398 0.2685914 0.2677063 0.2668527 0.2659667 0.2649902 0.2638846 0.2626181 0.2611845 0.2596611
 0.2581978 0.2569012 0.2557523 0.2546584 0.2535454 0.2523732 0.251115 0.2497723 0.2483921 0.2470299
 0.2457019 0.2443851 0.2430499 0.2416756 0.2402418 0.2387239 0.2371045 0.2353899 0.2336084 0.2317863
 0.2299168 0.2279347 0.2257205 0.2231351 0.2200591 0.2164091 0.2121509 0.2073315 0.2021025 0.1966937
 0.191348 0.186264 0.1815751 0.1773694 0.1737205 0.1706945 0.1683363 0.1666643 0.1656793 0.1653756
 0.165748 0.1667892 0.168459 0.1706515 0.173203 0.1759304 0.1786572 0.181234 0.1835786 0.1857059
 0.1876951 0.1896139 0.1914697 0.193227 0.1948581 0.1963584 0.1977106 0.1988704 0.1998123 0.2005657
 0.2011785 0.2016703 0.2020434 0.2023156 0.2025145 0.2026559 0.2027466 0.2028048 0.2028722 0.2030068
 0.2032618 0.2036662 0.204225 0.2049246 0.2057333 0.2066088 0.2075134 0.2084202 0.209316 0.2102128
 0.2111485 0.2121648 0.2132965 0.2145879 0.2160929 0.2178401 0.2198029 0.2219035 0.2240367 0.2260912
 0.2279612 0.2295572 0.2308287 0.2317819 0.2324603 0.2329068 0.2331549 0.2332414 0.2331971 0.233033
 0.2327563 0.2323881 0.2319478 0.2314361 0.2308469 0.2301829 0.2294555 0.228687 0.227912 0.2271583
 0.2264274 0.2257044 0.2249869 0.2242956 0.2236533 0.2230539 0.2224598 0.221838 0.2211873 0.2205186
 0.2198233 0.2190757 0.2182538 0.2173423 0.2163273 0.2151999 0.2139608 0.2126169 0.2111779 0.2096556
 0.2080648 0.2064239 0.2047491 0.2030433 0.2012986 0.1995029 0.1976316 0.195647 0.193538 0.1913601
 0.1892114 0.1871713 0.1852708 0.1835019 0.1818316 0.1802209 0.1786516 0.1771309 0.1756717 0.1742759
 0.1729373 0.1716464 0.1703971 0.1691956 0.1680627 0.1670288 0.1661207 0.1653417 0.1646642 0.1640566
 0.1635129 0.1630433 0.1626488 0.1623268 0.1620853 0.1619223 0.1617982 0.1616509 0.1614368 0.1611509
 0.1608183 0.1604746 0.1601521 0.1598722 0.1596335 0.1593913 0.1590592 0.1585456 0.157785 0.1567358
 0.1553764 0.1537225 0.1518367 0.1498198 0.1478005 0.1459186 0.1442911 0.1429813 0.1419886 0.1412515
 0.1406703 0.1401591 0.1396965 0.1393325 0.1391447 0.1391585 0.1392798 0.1393388 0.1392454 0.1390874
 0.1390506 0.1392622 0.1397176 0.1403076 0.1408896 0.1413616 0.141693 0.1418933 0.1419806 0.14198
 0.1419124 0.1417733 0.141545 0.1412238 0.1408218 0.1403605 0.1398664 0.1393444 0.1387632 0.1380956
 0.1373447 0.136509 0.1355685 0.1345145 0.1333464 0.1320582 0.1307057 0.1294751 0.1286125 0.1282771
 0.1284591 0.1289997 0.1296991 0.1304401 0.1311603 0.1316896 0.1317987 0.1315601 0.1315366 0.1323802
 0.1342063 0.136462 0.1384125 0.1396595 0.1401931 0.1401315 0.1395654 0.1385594 0.1371268 0.1352285
 0.1328836 0.1302146 0.1273486 0.1244011 0.1215577 0.1190158 0.1168599 0.1150897 0.1136949 0.1127185
 0.1122846 0.1120362 0.1102068 0.1045481 0.09579277 0.08920819 0.09018128 0.09815633 0.1070052 0.1115105
 0.1115435 0.1099058 0.1085153 0.1076397 0.1071643 0.1072274 0.1079654 0.1092489 0.1106947 0.1119036
 0.1127133 0.1131526 0.1131657 0.1124259 0.1102934 0.1060045 0.09928343 0.09092508 0.08253088 0.07555168
 0.07063878 0.0676941 0.06618582 0.0654489 0.06500985 0.06480452 0.06508245 0.06609493 0.0678786 0.07029986
 0.07319599 0.07635057 0.07938898 0.08192253 0.08385556 0.08538257 0.08664545 0.08755869 0.08799202 0.0879591
 0.08758672 0.08701482 0.08635652 0.0856704 0.08492076 0.08400458 0.08289608 0.08177906 0.0809466 0.08052308
 0.08037132 0.08030118 0.08024838 0.08021885 0.08019639 0.08015621 0.08009346 0.08004183 0.080102 0.08037883
 0.08084286 0.0813278 0.08168733 0.08189543 0.08200386 0.08203146 0.08187311 0.08138248 0.08063658 0.0799701
 0.07954698 0.07905683 0.07811964 0.07688811 0.075959 0.07572076 0.07601007 0.07638401 0.07652992 0.07640116
 0.0761551 0.07606992 0.07638173 0.07701895</values></Ydata></ScSm><ScRf><Ydata ylabel="Single channel"><values byteorder="INTEL" format="FLOAT32" numvalues="1820"> 0.06077135 0.06094044 0.06104751 0.06108298 0.06106674 0.06105009 0.06109306 0.06122466 0.06142146 0.06162167
 0.06176627 0.06183596 0.06184521 0.0618067 0.06173161 0.06166787 0.06169423 0.06184575 0.06206164 0.06222475
 0.06225666 0.06218801 0.06213931 0.06220205 0.06231629 0.06229115 0.06198492 0.06146769 0.06097536 0.06069187
 0.06063429 0.06079319 0.06125059 0.06195692 0.06247809 0.06230471 0.06149157 0.06069193 0.06043338 0.06061224
 0.06079403 0.06071816 0.0603812 0.05993955 0.05975349 0.06028961 0.06166151 0.06325057 0.06392972 0.0627781
 0.05974019 0.05582765 0.05274113 0.05195909 0.05369846 0.05662005 0.05883467 0.05941252 0.05882666 0.05798776
 0.05725867 0.05658052 0.05612248 0.0563241 0.05729484 0.05839659 0.05857372 0.0572654 0.05507288 0.05332347
 0.05285229 0.05348503 0.0547575 0.056422 0.05771917 0.0569691 0.0532233 0.04835031 0.0462041 0.04896462
 0.05481384 0.059707 0.06096801 0.0588065 0.0551626 0.05209361 0.05097754 0.05214251 0.05482806 0.05781494
 0.06015577 0.06121273 0.06049526 0.05809106 0.05508526 0.05303543 0.05301724 0.05520345 0.05882692 0.06224854
 0.06369859 0.06258097 0.05987288 0.05709693 0.0553175 0.05513273 0.05682535 0.06007645 0.06394343 0.06739567
 0.06973103 0.0706607 0.07038197 0.06945331 0.06836794 0.06745904 0.06718369 0.06784682 0.06885513 0.06894127
 0.06753942 0.06554322 0.06438875 0.06457308 0.06526015 0.0652979 0.06438345 0.06288498 0.06070887 0.05726316
 0.05282544 0.04892099 0.04679948 0.04647598 0.04763642 0.050132 0.05291142 0.05395205 0.05247236 0.05035318
 0.05027768 0.05286834 0.05635934 0.05875289 0.05967634 0.06024417 0.06162271 0.06383216 0.06560861 0.06536189
 0.06275089 0.05955669 0.05842143 0.06025665 0.06336752 0.06553548 0.06635746 0.06699244 0.06813929 0.06895351
 0.06793004 0.06469312 0.06094855 0.05942305 0.06148659 0.06578002 0.06920173 0.06919922 0.06548724 0.06011381
 0.05586593 0.0543387 0.05551639 0.05884738 0.06385522 0.06955799 0.07420479 0.07625788 0.07551007 0.07301141
 0.06986535 0.06620216 0.06174167 0.0574881 0.05595415 0.05879444 0.0646954 0.07046661 0.07388802 0.0748243
 0.07399504 0.07161067 0.06757062 0.06278279 0.05960487 0.06001718 0.06323561 0.0661457 0.06655906 0.06521393
 0.06418976 0.06432326 0.064882 0.06514163 0.0654277 0.06655291 0.06864053 0.07080628 0.07200743 0.07198995
 0.07133667 0.07079365 0.07059164 0.07027426 0.06934112 0.06824639 0.06834443 0.070403 0.07354426 0.07614747
 0.07747675 0.0779459 0.07802486 0.07740529 0.07543693 0.07234038 0.06970266 0.06930315 0.07139665 0.0745488
 0.07712322 0.07846148 0.07874872 0.07842533 0.07788022 0.07731836 0.07683091 0.07667148 0.07719322 0.07834239
 0.07953814 0.08025447 0.08045319 0.08032411 0.07991073 0.07918765 0.07833094 0.07772042 0.07766664 0.07818177
 0.07902588 0.07992096 0.08064485 0.08099346 0.0808581 0.08038059 0.07986787 0.07951011 0.07931338 0.07929583
 0.07955416 0.0800828 0.08068149 0.08112372 0.08133736 0.08138007 0.08131532 0.08116595 0.0809539 0.08074871
 0.08066853 0.08079886 0.08108822 0.08138038 0.08159526 0.08180769 0.08208193 0.08231232 0.08233559 0.08215542
 0.08195159 0.08188236 0.08195482 0.0820793 0.08216891 0.08215278 0.08195693 0.08157049 0.08114575 0.08094482
 0.08113045 0.08164944 0.08232647 0.08298855 0.08349153 0.08375056 0.08380376 0.08377171 0.08371717 0.08360051
 0.08338755 0.0831535 0.08306047 0.0832345 0.08365147 0.08414691 0.08454952 0.08478938 0.08489147 0.08493425
 0.0850217 0.08520659 0.08541191 0.08550106 0.08544885 0.08537903 0.08541235 0.0855285 0.08560272 0.08555537
 0.0854457 0.08541369 0.08553556 0.08575674 0.08597177 0.08614203 0.08631405 0.08653091 0.08674107 0.08681759
 0.08669364 0.08646133 0.08628698 0.08623879 0.08626154 0.08631326 0.08643585 0.08665787 0.08690052 0.08704306
 0.08705936 0.08704109 0.08708074 0.08716182 0.08718361 0.08707957 0.08688861 0.08671425 0.08663747 0.08666927
 0.08675992 0.08683646 0.08684471 0.0867772 0.08666811 0.086558 0.08646595 0.08640429 0.08641359 0.08654822
 0.0867976 0.08703604 0.08709712 0.08692371 0.0866328 0.08641151 0.08634719 0.08636469 0.08632199 0.08614887
 0.08589055 0.08564012 0.08545379 0.08532719 0.08522688 0.08513243 0.08506283 0.08507086 0.08518939 0.08536272
 0.08545519 0.08536548 0.08512571 0.08486338 0.0846815 0.0845999 0.08458307 0.08458346 0.08457722 0.08458945
 0.08465977 0.08476372 0.08481054 0.08474724 0.08462635 0.08455074 0.08459057 0.0847556 0.08498795 0.08516838
 0.08519532 0.08508761 0.08496995 0.08494113 0.08499421 0.08507171 0.08514808 0.08523194 0.08532552 0.08542265
 0.08553845 0.08570988 0.08595631 0.08624728 0.08651372 0.0866943 0.08678368 0.08684552 0.08697263 0.08721817
 0.08755441 0.08789615 0.08816962 0.08836696 0.08853558 0.08871622 0.08890642 0.08909507 0.0893086 0.08958756
 0.08992602 0.09027033 0.09057984 0.09086017 0.09113555 0.09141567 0.09170009 0.09200168 0.09235208 0.09277201
 0.09322627 0.09362292 0.09388454 0.0940237 0.09413698 0.09432997 0.09464757 0.09504171 0.09538862 0.09558123
 0.09564301 0.09571838 0.09591422 0.096187 0.0964317 0.09664495 0.09693123 0.09735264 0.09783238 0.09822814
 0.09847225 0.09862078 0.0987772 0.09898229 0.09918374 0.09931377 0.09937929 0.09945083 0.09957289 0.09973279
 0.09992784 0.1002064 0.1005993 0.1010477 0.1014464 0.1017398 0.101942 0.1020873 0.1021989 0.1022857
 0.102342 0.1023655 0.1023885 0.1024575 0.1025671 0.1026539 0.1026803 0.1026881 0.1027466 0.1028849
 0.1030995 0.1033859 0.1037222 0.1040478 0.104315 0.1045582 0.1048599 0.1052275 0.1055535 0.1057341
 0.1057875 0.1058068 0.1058369 0.1058641 0.1059071 0.1060374 0.1062939 0.1066334 0.1069879 0.1073348
 0.1076887 0.108049 0.1083753 0.1086088 0.1087135 0.1087053 0.1086506 0.1086382 0.1087429 0.1089883
 0.1093297 0.1096803 0.1099693 0.1101675 0.1102614 0.1102435 0.1101572 0.1101154 0.1102144 0.110423
 0.1105943 0.1105939 0.1103895 0.1100154 0.1095014 0.1088667 0.1081632 0.1074845 0.1069225 0.1065243
 0.1062992 0.1062633 0.1064578 0.1069025 0.1075364 0.1082345 0.1088852 0.1094184 0.1097562 0.1097957
 0.1094828 0.1088792 0.108126 0.1073589 0.1066624 0.1060584 0.1055063 0.1049528 0.1044292 0.1040906
 0.1041352 0.1046841 0.1057251 0.1071274 0.1086807 0.1101587 0.1114042 0.1123878 0.1131838 0.1138856
 0.114546 0.1151902 0.1158446 0.1165193 0.1171749 0.1177494 0.1182241 0.1186368 0.119029 0.1194063
 0.1197485 0.1200351 0.120266 0.1204714 0.120682 0.1208767 0.1209839 0.1209608 0.1208486 0.1207222
 0.1206065 0.1204587 0.1202159 0.1198487 0.1193981 0.1189941 0.1188283 0.11907 0.1197692 0.1208273
 0.1220695 0.1233549 0.1246082 0.1257607 0.1267138 0.1273984 0.1278433 0.1281516 0.1284218 0.1287069
 0.1290196 0.1293446 0.1296548 0.1299364 0.1302011 0.1304759 0.1307864 0.1311371 0.1314954 0.1318072
 0.1320489 0.1322612 0.1325188 0.1328637 0.1332645 0.1336479 0.1339749 0.1342759 0.1345949 0.1349143
 0.1351733 0.1353526 0.1355053 0.1357044 0.1359901 0.136356 0.1367497 0.1370915 0.1373288 0.1374833
 0.1376259 0.1378096 0.1380377 0.138288 0.1385424 0.1387923 0.1390356 0.1392821 0.1395536 0.1398571
 0.1401597 0.1404075 0.1405819 0.1407243 0.140894 0.1411092 0.1413386 0.1415448 0.1417268 0.1419239
 0.1421792 0.1424931 0.1428131 0.1430737 0.1432512 0.1433768 0.1435023 0.1436592 0.1438504 0.1440639
 0.1442834 0.1444935 0.1446884 0.1448776 0.1450772 0.1452929 0.1455165 0.1457371 0.1459525 0.1461675
 0.1463848 0.1466014 0.1468176 0.1470474 0.1473108 0.1476065 0.1478988 0.1481432 0.1483233 0.1484579
 0.148578 0.1487058 0.1488535 0.149027 0.1492239 0.149434 0.1496458 0.1498543 0.1500624 0.1502747
 0.1504914 0.1507067 0.1509146 0.1511147 0.1513131 0.1515185 0.1517348 0.1519566 0.1521742 0.1523806
 0.1525735 0.1527557 0.1529365 0.1531278 0.1533309 0.1535337 0.1537259 0.1539122 0.1541041 0.1543055
 0.1545108 0.1547127 0.1549084 0.1550988 0.1552857 0.1554692 0.1556487 0.1558278 0.1560139 0.1562125
 0.1564205 0.1566273 0.156824 0.1570131 0.1572046 0.1574043 0.157609 0.1578153 0.1580255 0.15824
 0.1584515 0.1586511 0.1588373 0.1590185 0.1592063 0.1594056 0.1596122 0.1598199 0.1600265 0.1602314
 0.1604335 0.1606317 0.160827 0.1610223 0.1612253 0.1614437 0.1616756 0.1619086 0.1621303 0.1623367
 0.1625315 0.162724 0.1629259 0.1631441 0.1633773 0.1636176 0.1638532 0.1640733 0.1642742 0.1644583
 0.1646283 0.1647895 0.1649538 0.1651314 0.1653208 0.1655128 0.1657018 0.1658872 0.1660724 0.1662631
 0.1664616 0.166665 0.16687 0.167075 0.1672773 0.1674738 0.1676662 0.1678576 0.1680479 0.1682387
 0.1684343 0.1686366 0.1688444 0.1690575 0.1692724 0.1694825 0.1696874 0.1698927 0.1701009 0.1703115
 0.1705259 0.170742 0.1709542 0.1711636 0.1713767 0.1715931 0.1718087 0.1720264 0.1722463 0.1724585
 0.1726567 0.1728478 0.1730427 0.1732469 0.1734601 0.1736748 0.1738845 0.1740966 0.1743213 0.1745522
 0.1747749 0.174986 0.1751883 0.1753823 0.175576 0.1757817 0.1759987 0.1762179 0.1764382 0.1766624
 0.1768882 0.177112 0.1773253 0.177503 0.1775998 0.17751 0.1769569 0.1753787 0.1719213 0.1656204
 0.1557976 0.1424965 0.1266122 0.1095627 0.09277135 0.07731346 0.06382546 0.0525878 0.04365732 0.03695434
 0.03231981 0.02961046 0.02880294 0.03010374 0.03406361 0.04124983 0.05102039 0.06044066 0.06542684 0.06397178
 0.05806378 0.05187294 0.04828253 0.04749117 0.04825819 0.04952744 0.05096949 0.05278249 0.05529775 0.05860545
 0.06254551 0.06711849 0.07268077 0.07949682 0.08720487 0.0949676 0.1021941 0.1090081 0.1159691 0.123405
 0.131071 0.138391 0.1449194 0.1505662 0.1555111 0.1600005 0.1642068 0.1682066 0.1720285 0.1756581
 0.1789644 0.181669 0.183477 0.1843001 0.1843619 0.184073 0.1837927 0.1836914 0.1837901 0.1840636
 0.1844902 0.1850505 0.1857217 0.1864755 0.1872791 0.1881054 0.1889378 0.1897592 0.1905468 0.1912847
 0.1919688 0.1925952 0.1931591 0.1936636 0.1941206 0.194544 0.194946 0.1953327 0.1957001 0.1960433
 0.1963674 0.1966811 0.1969825 0.1972633 0.1975215 0.1977635 0.1979954 0.1982191 0.1984333 0.1986382
 0.1988385 0.1990401 0.1992443 0.1994516 0.1996656 0.199887 0.2001069 0.2003131 0.2004999 0.2006717
 0.2008401 0.2010206 0.2012217 0.2014352 0.2016448 0.201842 0.2020294 0.2022135 0.2024005 0.2025953
 0.2027973 0.2030009 0.2031999 0.2033919 0.2035809 0.2037788 0.2039947 0.2042235 0.2044516 0.2046713
 0.2048825 0.2050872 0.2052916 0.2055029 0.2057135 0.2059022 0.2060603 0.2062099 0.2063865 0.2066046
 0.2068435 0.2070665 0.2072569 0.2074333 0.2076237 0.2078321 0.2080363 0.2082132 0.2083653 0.2085284
 0.2087421 0.209005 0.209277 0.2095308 0.2097741 0.2100186 0.2102615 0.2105009 0.2107323 0.2109296
 0.2110666 0.2111689 0.2113162 0.2115788 0.2119469 0.2123322 0.2126478 0.2128859 0.2130995 0.2133343
 0.2136016 0.2138743 0.2140673 0.214088 0.2139814 0.2139643 0.2142316 0.2147596 0.2153558 0.2158595
 0.2162414 0.2165498 0.2168198 0.2170357 0.2171513 0.2171464 0.2170863 0.217128 0.2174162 0.2179366
 0.2185099 0.2189661 0.2192775 0.2195029 0.2196905 0.2198616 0.2199721 0.2198675 0.2194447 0.218926
 0.2187984 0.219344 0.2203239 0.2212343 0.2218047 0.2221335 0.2224043 0.2226597 0.2228604 0.2229238
 0.2226068 0.2216449 0.220266 0.2193379 0.2196498 0.2211159 0.2229187 0.2243268 0.2251555 0.2255847
 0.2258414 0.2260493 0.226137 0.2258407 0.2250006 0.2239631 0.2235007 0.2240993 0.2254079 0.2266098
 0.2272572 0.2275129 0.2277129 0.2279908 0.2281869 0.2278139 0.2263391 0.2239676 0.2220262 0.2220258
 0.2241859 0.2271732 0.2294232 0.230482 0.2308776 0.2309683 0.2304129 0.228784 0.2262164 0.2233484
 0.2211137 0.2206022 0.2223375 0.2253861 0.2278921 0.2289068 0.2291882 0.2299658 0.231478 0.2329861
 0.2337256 0.2334953 0.2325326 0.2310958 0.2293378 0.2276805 0.227048 0.2282133 0.2308544 0.2336684
 0.2355762 0.2365406 0.2369903 0.2365464 0.2337764 0.2279127 0.2209885 0.2172703 0.2194972 0.2260232
 0.232589 0.2365122 0.2381596 0.2389471 0.2394298 0.2391501 0.2369153 0.2314567 0.223445 0.2167403
 0.2157763 0.2211752 0.2290457 0.2346132 0.2354548 0.2317427 0.2254047 0.2195636 0.217256 0.2195856
 0.2252389 0.2317831 0.2371301 0.2401121 0.2404588 0.2386815 0.2360525 0.2343033 0.2343589 0.2349663
 0.2336538 0.2298501 0.2258292 0.2233777 0.2210464 0.2168447 0.2126102 0.2128002 0.2186938 0.226243
 0.2306116 0.2310726 0.2301516 0.2290329 0.2255551 0.2173392 0.2063073 0.1987863 0.1999778 0.2085499
 0.2178171 0.2222834 0.2220144 0.2206837 0.2206802 0.2206699 0.2174679 0.2101852 0.2023697 0.1990409
 0.2013657 0.2056178 0.2076025 0.2060101 0.2009891 0.1928141 0.1842739 0.1815489 0.189024 0.2039486
 0.2185715 0.226515 0.2251422 0.2142198 0.1968204 0.1811619 0.1766163 0.1853309 0.1996162 0.2090035
 0.2085612 0.1998144 0.1862679 0.170978 0.1579601 0.1526985 0.1588913 0.1746779 0.1925906 0.2032595
 0.2006233 0.1866698 0.1718744 0.1676781 0.1760658 0.1881585 0.1941266 0.1920981 0.1868319 0.1836104
 0.1851824 0.1911924 0.1985585 0.2043905 0.2083023 0.2091764 0.2020837 0.1842142 0.162723 0.1500007
 0.1508126 0.1599064 0.1719228 0.1861852 0.2001773 0.2062665 0.2003049 0.1894638 0.1861037 0.1946565
 0.2078398 0.2155532 0.2148677 0.2105598 0.2077676 0.2065404 0.2043568 0.2020003 0.2037971 0.2116232
 0.2216058 0.2284428 0.2309307 0.231483 0.2320556 0.2326541 0.2327151 0.2320216 0.230644 0.2290714
 0.2280491 0.2277497 0.2276198 0.2272147 0.2261806 0.2230087 0.2153702 0.2033892 0.191699 0.1857621
 0.1860847 0.1886196 0.1907871 0.1929788 0.1929416 0.1841862 0.1645521 0.1432506 0.1341583 0.1424054
 0.1605586 0.1771106 0.1852969 0.1836877 0.1727681 0.1551526 0.1383113 0.1322047 0.1411498 0.159679
 0.1783884 0.1920338 0.200071 0.2021439 0.1971375 0.1864079 0.1750294 0.1688747 0.1710647 0.1806248
 0.1927813 0.200147 0.1963539 0.1824153 0.1694953 0.1706302 0.1870317 0.2060333 0.2153266 0.215406
 0.2144958 0.2157695 0.2158213 0.2136943 0.2144531 0.2222765 0.2343294 0.2435559 0.2448721 0.23718
 0.2227044 0.2074686 0.1997068 0.2032261 0.2130093 0.2206081 0.2222753 0.2184555 0.2088133 0.1943108
 0.1824548 0.1827839 0.1958289 0.2118716 0.2219889 0.2261835 0.2293292 0.2327741 0.2326918 0.2258598
 0.2150234 0.2072089 0.2067908 0.2116835 0.216916 0.2198774 0.2203734 0.2176788 0.2109764 0.2027319
 0.1987302 0.2030618 0.2138703 0.2250489 0.2316734 0.2330877 0.2315087 0.2291415 0.2266784 0.2234503
 0.2189056 0.2145424 0.213623 0.2176947 0.224147 0.2289044 0.2310928 0.2333282 0.2375846 0.2424679
 0.2449192 0.2435598 0.2400042 0.2374542 0.2381354 0.24153 0.2447562 0.2450185 0.2422634 0.2394799
 0.2399527 0.2441353 0.2495815 0.2537343 0.2560093 0.257268 0.258325 0.2592306 0.2592248 0.2573071
 0.2536568 0.2504682 0.2503971 0.2539304 0.2589278 0.2628375 0.2647567 0.2652934 0.2651676 0.2644553
 0.2629928 0.2610629 0.2594295 0.2587322 0.259018 0.2598908 0.260925 0.2618549 0.262558 0.2630342
 0.2633589 0.2635851 0.2637251 0.2638151 0.2638964 0.2639253 0.2638193 0.2636325 0.2635741 0.2637816
 0.264147 0.2644351 0.2645007 0.2642981 0.2637559 0.2627941 0.2614706 0.2599735 0.2584197 0.256771
 0.2550617 0.2536703 0.2532227 0.2541198 0.2561585 0.2586472 0.2608803 0.2624959 0.2634799 0.263984
 0.2641908 0.264255 0.2642634 0.2642222 0.2640982 0.2638741 0.2635654 0.2632003 0.2628019 0.262395
 0.2620168 0.261701 0.261443 0.2611904 0.2608768 0.260466 0.2599696 0.2594281 0.2588756 0.2583065
 0.2576722 0.2569188 0.2560369 0.2550776 0.2541243 0.2532436 0.2524453 0.2516838 0.2509028 0.2500759
 0.249187 0.2481936 0.2470655 0.2458715 0.2447727 0.2438907 0.2432034 0.2425904 0.2419414 0.2411995
 0.2403449 0.2393865 0.2383595 0.2372999 0.2362181 0.2351023 0.2339332 0.2326871 0.2313432 0.229898
 0.228366 0.2267673 0.2251277 0.223477 0.221815 0.2200706 0.2181102 0.2157905 0.212998 0.209659
 0.205753 0.201338 0.1965583 0.1916155 0.1867198 0.1820458 0.1777173 0.1738217 0.1704353 0.1676333
 0.1654839 0.1640361 0.1633101 0.1632978 0.1639774 0.1653208 0.167274 0.1697308 0.1725364 0.175519
 0.1785118 0.1813638 0.183972 0.1863288 0.188516 0.1906177 0.1926338 0.1944946 0.1961448 0.1975823
 0.1988234 0.1998699 0.2007244 0.2014146 0.2019837 0.2024654 0.202875 0.2032218 0.2035214 0.2037917
 0.2040385 0.2042523 0.2044271 0.2045824 0.2047587 0.2049891 0.2052767 0.2056064 0.2059755 0.206402
 0.206897 0.2074444 0.2080183 0.2086082 0.2092183 0.2098589 0.210556 0.2113575 0.2123093 0.2134255
 0.2146836 0.2160395 0.2174354 0.2187943 0.2200226 0.2210349 0.2217859 0.2222787 0.2225453 0.2226266
 0.2225652 0.222394 0.2221241 0.2217543 0.2212943 0.2207682 0.2201947 0.219579 0.2189195 0.2182156
 0.2174737 0.2167191 0.2159918 0.2153168 0.2146837 0.2140663 0.2134568 0.212865 0.2122916 0.2117203
 0.2111371 0.2105423 0.2099436 0.2093457 0.2087474 0.208136 0.2074835 0.2067583 0.2059434 0.205036
 0.204035 0.2029385 0.2017509 0.2004809 0.1991326 0.1977057 0.1962016 0.1946246 0.1929803 0.1912688
 0.1894705 0.1875507 0.1855064 0.1834106 0.1813855 0.1795231 0.177838 0.1762864 0.1748123 0.1733842
 0.1720064 0.1707003 0.1694739 0.1683142 0.1672065 0.1661493 0.1651492 0.1642107 0.1633332 0.1625203
 0.161789 0.161159 0.1606279 0.1601693 0.1597585 0.159395 0.1591042 0.1589254 0.1588806 0.1589369
 0.1590105 0.1590223 0.1589466 0.1588103 0.1586609 0.158532 0.1584293 0.1583494 0.158298 0.1582643
 0.158181 0.157932 0.1574027 0.1565204 0.1552774 0.1537317 0.1519786 0.1501248 0.148292 0.1466092
 0.1451697 0.144008 0.1431183 0.1424628 0.1419674 0.1415597 0.1412262 0.1410209 0.1410137 0.1412103
 0.1414986 0.1417046 0.141748 0.1417278 0.1418324 0.1421896 0.1427988 0.1435543 0.1443184 0.1449986
 0.1455571 0.1459675 0.1462185 0.1463508 0.146419 0.1464216 0.1463223 0.1461177 0.1458388 0.1455162
 0.1451661 0.1447737 0.1442957 0.1437109 0.1430458 0.1423276 0.1415503 0.1406878 0.1396939 0.1385297
 0.1372648 0.1361223 0.1353687 0.1351734 0.1355463 0.1363399 0.1373396 0.138407 0.1394597 0.1402974
 0.1406622 0.1406319 0.1408044 0.1418582 0.1439045 0.1463665 0.1484973 0.1499141 0.1506219 0.1507189
 0.1502663 0.1493282 0.1479205 0.1459708 0.1434669 0.1405567 0.1374308 0.134253 0.1312221 0.1285246
 0.1262337 0.1243593 0.1229086 0.121931 0.1215569 0.1213989 0.1195254 0.1134787 0.1040774 0.09708571
 0.09834473 0.1071899 0.1169292 0.1219087 0.1220072 0.1202753 0.1188047 0.1178875 0.1173865 0.1174378
 0.1181812 0.119472 0.1208993 0.1220409 0.1227364 0.1230526 0.1229815 0.1221813 0.119901 0.1152399
 0.1078708 0.0986723 0.08942409 0.08175144 0.0763837 0.07318996 0.07155488 0.07073566 0.0702121 0.06992657
 0.07018409 0.07128076 0.07324155 0.07589325 0.07904875 0.0824804 0.08580028 0.08860758 0.09079935 0.09256813
 0.09405954 0.09517942 0.09576133 0.09578079 0.09536056 0.09466731 0.09385435 0.09302654 0.09217471 0.09117891
 0.08998813 0.08880391 0.0879612 0.0875935 0.08753113 0.08754086 0.08752748 0.08749163 0.0874404 0.08737904
 0.08731392 0.08727094 0.08733855 0.08761886 0.08809365 0.08860023 0.0889633 0.0891241 0.08915055 0.08910907
 0.08890429 0.08835644 0.087528 0.08677774 0.0862831 0.0857075 0.08464329 0.08326295 0.08221982 0.08193587
 0.08222537 0.08259955 0.08272017 0.08254205 0.08224615 0.08215192 0.08251509 0.08321926 0.08376232 0.08372918
</values></Ydata></ScRf><Data_Parameters_AB><parameter name="DPF">1</parameter><parameter name="NPT">3497</parameter><parameter name="FXV">3996</parameter><parameter name="LXV">500</parameter><parameter name="CSF">1</parameter><parameter name="MXY">0.11326302587986</parameter><parameter name="MNY">-0.0923824086785316</parameter><parameter name="DAT">01/06/2022</parameter><parameter name="TIM">11:08:46.721 (GMT+2)</parameter><parameter name="DXU">WN</parameter></Data_Parameters_AB><AB__Qtest><MainReport name="Quality Test Report"><Header><Line><Legend>Test result ok/not ok [1/0]: </Legend><Value>0</Value></Line><Line><Legend>Method file: </Legend><Value>C:\Users\Public\Documents\Bruker\OPUS_8.2.28\QT\IRBT_v3_default.QT</Value></Line></Header><Matrix><Line><Legend></Legend><Legend>min</Legend><Legend>max</Legend><Legend>measured</Legend></Line><Line><Value>Absorption (X-Range 1):</Value><Value>0.400000</Value><Value>2.000000</Value><Value>0.150926</Value></Line><Line><Value>Noise (X-Range 4):</Value><Value></Value><Value>0.000300</Value><Value>0.000042</Value></Line><Line><Value>Signal/Noise (X-Range 2):</Value><Value>200.000000</Value><Value></Value><Value>56.067465</Value></Line><Line><Value>Signal/Noise (X-Range 3):</Value><Value>40.000000</Value><Value></Value><Value>26.651323</Value></Line><Line><Value>Water vapour (X-Range 5):</Value><Value></Value><Value>0.000300</Value><Value>0.000091</Value></Line><Line><Value>Signal/Water (X-Range 2):</Value><Value>100.000000</Value><Value></Value><Value>25.848783</Value></Line><Line><Value>Signal/Water (X-Range 3):</Value><Value>20.000000</Value><Value></Value><Value>12.287059</Value></Line><Line><Value>Fringes (X-Range 6):</Value><Value></Value><Value>0.000100</Value><Value>0.000063</Value></Line></Matrix></MainReport></AB__Qtest><Data_Parameters_ScSm><parameter name="DPF">1</parameter><parameter name="NPT">1814</parameter><parameter name="FXV">3996.33169228125</parameter><parameter name="LXV">499.541461535156</parameter><parameter name="CSF">1</parameter><parameter name="MXY">0.286552876234055</parameter><parameter name="MNY">0.0356308594346046</parameter><parameter name="DAT">01/06/2022</parameter><parameter name="TIM">11:08:46.721 (GMT+2)</parameter><parameter name="DXU">WN</parameter></Data_Parameters_ScSm><Data_Parameters_ScRf><parameter name="DPF">1</parameter><parameter name="NPT">1820</parameter><parameter name="FXV">4004.04661832813</parameter><parameter name="LXV">495.683998511719</parameter><parameter name="CSF">1</parameter><parameter name="MXY">0.265293449163437</parameter><parameter name="MNY">0.0288029350340366</parameter><parameter name="DAT">01/06/2022</parameter><parameter name="TIM">11:08:20.157 (GMT+2)</parameter><parameter name="DXU">WN</parameter></Data_Parameters_ScRf><Optic_Parameters_Rf><parameter name="APR">0</parameter><parameter name="APT">Open</parameter><parameter name="BMS">KBr</parameter><parameter name="DTC">RT-DLaTGS_IR-Biotyper [Microplate reader]</parameter><parameter name="HPF">0</parameter><parameter name="LPF">10.0</parameter><parameter name="LPV">4000</parameter><parameter name="PGR">0</parameter><parameter name="RCH">Module port</parameter><parameter name="RDX">0</parameter><parameter name="SRC">MIR</parameter><parameter name="VEL">10.0</parameter><parameter name="SON">Off</parameter></Optic_Parameters_Rf><Acquisition_Parameters_Rf><parameter name="ADT">1</parameter><parameter name="AQM">DD</parameter><parameter name="CFE">0</parameter><parameter name="COR">0</parameter><parameter name="DEL">0</parameter><parameter name="DLY">0</parameter><parameter name="HFW">8000</parameter><parameter name="LFW">0</parameter><parameter name="NSR">32</parameter><parameter name="PLF">AB</parameter><parameter name="RES">6</parameter><parameter name="RGN">-1</parameter><parameter name="STR">0</parameter><parameter name="TCL">MakeCompatibleScalar (0, {WSV=1.000000, ARV=0});</parameter><parameter name="TDL">37</parameter><parameter name="RPO">0</parameter></Acquisition_Parameters_Rf><FT_-_Parameters_Rf><parameter name="APF">B3</parameter><parameter name="HFQ">500</parameter><parameter name="LFQ">4000</parameter><parameter name="NLI">0</parameter><parameter name="PHR">24</parameter><parameter name="PHZ">ML</parameter><parameter name="SPZ">NO</parameter><parameter name="ZFF">1</parameter></FT_-_Parameters_Rf><Optic_Parameters_><parameter name="APR">0</parameter><parameter name="APT">Open</parameter><parameter name="BMS">KBr</parameter><parameter name="CHN">Module port</parameter><parameter name="DTC">RT-DLaTGS_IR-Biotyper [Microplate reader]</parameter><parameter name="HPF">0</parameter><parameter name="LPF">10.0</parameter><parameter name="LPV">4000</parameter><parameter name="PGN">0</parameter><parameter name="RDX">0</parameter><parameter name="SRC">MIR</parameter><parameter name="VEL">10.0</parameter><parameter name="SON">Off</parameter></Optic_Parameters_><FT_-_Parameters_><parameter name="APF">B3</parameter><parameter name="HFQ">500</parameter><parameter name="LFQ">4000</parameter><parameter name="NLI">0</parameter><parameter name="PHR">24</parameter><parameter name="PHZ">ML</parameter><parameter name="SPZ">NO</parameter><parameter name="ZFF">1</parameter></FT_-_Parameters_><Acquisition_Parameters_><parameter name="ADT">1</parameter><parameter name="AQM">DD</parameter><parameter name="CFE">0</parameter><parameter name="COR">0</parameter><parameter name="DEL">0</parameter><parameter name="DLY">0</parameter><parameter name="HFW">8000</parameter><parameter name="LFW">0</parameter><parameter name="NSS">32</parameter><parameter name="PLF">AB</parameter><parameter name="RES">6</parameter><parameter name="SOT">0</parameter><parameter name="TCL">MakeCompatibleScalar (0, {WSV=1.000000, ARV=0});</parameter><parameter name="TDL">37</parameter><parameter name="SPO">0</parameter><parameter name="SGN">-1</parameter></Acquisition_Parameters_><Instrument_Parameters_Rf><parameter name="HFL">15800.168544</parameter><parameter name="LFL">0</parameter><parameter name="LWN">15800.168544</parameter><parameter name="ABP">32197</parameter><parameter name="SSP">1</parameter><parameter name="ARG">2</parameter><parameter name="ASG">2</parameter><parameter name="ASS">32</parameter><parameter name="GFW">16</parameter><parameter name="GBW">16</parameter><parameter name="BFW">0</parameter><parameter name="BBW">0</parameter><parameter name="PKA">7308</parameter><parameter name="PKL">4990</parameter><parameter name="PRA">7481</parameter><parameter name="PRL">5001</parameter><parameter name="P2A">1</parameter><parameter name="P2L">1</parameter><parameter name="P2R">1</parameter><parameter name="P2K">1</parameter><parameter name="DAQ">0</parameter><parameter name="AG2">1</parameter><parameter name="SSM">1</parameter><parameter name="RSN">25855</parameter><parameter name="CRR">0</parameter><parameter name="SRT">1654081700.158</parameter><parameter name="DUR">19.6399993896484</parameter><parameter name="TSC">29</parameter><parameter name="MVD">0.435967355966568</parameter><parameter name="AN1">0.225780105176076</parameter><parameter name="AN2">0</parameter><parameter name="VSN">2.485 Apr  4 2017</parameter><parameter name="SRN">0085</parameter><parameter name="CAM">0</parameter><parameter name="INS">IR-Biotyper</parameter><parameter name="FOC">69</parameter><parameter name="RDY">1</parameter><parameter name="ARS">32</parameter></Instrument_Parameters_Rf><Sample_Parameters_><parameter name="BLD"></parameter><parameter name="CNM">Admin</parameter><parameter name="CPY"></parameter><parameter name="DPM"></parameter><parameter name="EXP">IRBT_v3_32Scans.XPM</parameter><parameter name="LCT"></parameter><parameter name="SFM">Microplate, HTS-XT</parameter><parameter name="SNM">220601-1028(v.3)_RTF49M (D_6)_B2_2a7a8014-8874-43aa-ba68-2c5346d675fe.0</parameter><parameter name="XPP">C:\Users\Public\Documents\Bruker\OPUS_8.2.28\XPM</parameter><parameter name="IST">OK</parameter><parameter name="CPG">1252</parameter><parameter name="UID">b2091455-58c6-4c2c-8c68-fb9bb2248c98</parameter></Sample_Parameters_><Instrument_Parameters_><parameter name="HFL">15800.168544</parameter><parameter name="LFL">0</parameter><parameter name="LWN">15800.168544</parameter><parameter name="ABP">32197</parameter><parameter name="SSP">1</parameter><parameter name="ASG">2</parameter><parameter name="ARG">2</parameter><parameter name="ASS">32</parameter><parameter name="GFW">16</parameter><parameter name="GBW">16</parameter><parameter name="BFW">0</parameter><parameter name="BBW">0</parameter><parameter name="PKA">7917</parameter><parameter name="PKL">4988</parameter><parameter name="PRA">8169</parameter><parameter name="PRL">4993</parameter><parameter name="P2A">1</parameter><parameter name="P2L">1</parameter><parameter name="P2R">1</parameter><parameter name="P2K">1</parameter><parameter name="DAQ">0</parameter><parameter name="AG2">1</parameter><parameter name="SSM">1</parameter><parameter name="RSN">13553</parameter><parameter name="CRR">0</parameter><parameter name="SRT">1654081726.722</parameter><parameter name="DUR">19.6389923095703</parameter><parameter name="TSC">29</parameter><parameter name="MVD">2.34336495399475</parameter><parameter name="AN1">0.225805278150174</parameter><parameter name="AN2">0</parameter><parameter name="VSN">2.485 Apr  4 2017</parameter><parameter name="SRN">0085</parameter><parameter name="CAM">0</parameter><parameter name="INS">IR-Biotyper</parameter><parameter name="FOC">69</parameter><parameter name="RDY">1</parameter></Instrument_Parameters_><History/></OPUSDataFile>
