<?xml version="1.0" encoding="UTF-8" ?>
<OPUSDataFile><AB><Ydata ylabel="Absorbance Units"><values byteorder="INTEL" format="FLOAT32" numvalues="3497"> -0.1102029 -0.1102079 -0.1102051 -0.1101944 -0.1101759 -0.1101497 -0.1101155 -0.1100739 -0.1100308 -0.1099882
 -0.1099607 -0.1099491 -0.1099659 -0.1100062 -0.1100665 -0.1101387 -0.1102071 -0.1102696 -0.1103153 -0.1103512
 -0.1103783 -0.110406 -0.1104404 -0.1104842 -0.1105414 -0.1106058 -0.1106777 -0.1107461 -0.1108094 -0.1108592
 -0.1108943 -0.1109153 -0.1109223 -0.1109245 -0.1109223 -0.1109247 -0.1109313 -0.1109439 -0.1109618 -0.1109832
 -0.1110089 -0.1110393 -0.1110761 -0.1111231 -0.1111785 -0.1112434 -0.1113109 -0.1113764 -0.1114325 -0.1114736
 -0.1114981 -0.1115039 -0.1114934 -0.1114667 -0.1114261 -0.1113711 -0.1113102 -0.1112435 -0.1111907 -0.111153
 -0.1111487 -0.1111772 -0.1112343 -0.1113164 -0.1113981 -0.1114781 -0.1115364 -0.1115779 -0.1116039 -0.1116196
 -0.1116356 -0.111652 -0.111674 -0.1116984 -0.1117244 -0.1117475 -0.1117651 -0.1117744 -0.1117728 -0.1117637
 -0.111746 -0.1117305 -0.1117182 -0.1117211 -0.1117406 -0.1117843 -0.1118528 -0.1119483 -0.1120704 -0.112214
 -0.1123761 -0.1125374 -0.1126917 -0.112805 -0.1128768 -0.1128843 -0.1128422 -0.1127624 -0.1126639 -0.1125743
 -0.1125007 -0.1124611 -0.1124448 -0.1124537 -0.1124674 -0.1124775 -0.1124766 -0.1124578 -0.1124386 -0.11242
 -0.112423 -0.1124511 -0.1124995 -0.1125681 -0.1126276 -0.1126772 -0.1126991 -0.1126973 -0.1126882 -0.1126779
 -0.1126996 -0.1127524 -0.1128549 -0.1129935 -0.1131561 -0.1133252 -0.1134735 -0.1135976 -0.1136844 -0.1137408
 -0.1137678 -0.11377 -0.113747 -0.1137113 -0.1136624 -0.1136279 -0.1136121 -0.1136371 -0.113708 -0.113808
 -0.1139367 -0.1140151 -0.1140408 -0.113956 -0.113775 -0.113563 -0.1133312 -0.1131601 -0.1130423 -0.1130008
 -0.1130204 -0.1130886 -0.113186 -0.113285 -0.1133719 -0.1134221 -0.1134444 -0.1134337 -0.1134138 -0.1133943
 -0.1133849 -0.1133923 -0.1134059 -0.1134252 -0.1134402 -0.1134494 -0.1134558 -0.1134594 -0.1134714 -0.1134923
 -0.1135307 -0.1135856 -0.1136561 -0.1137383 -0.1138189 -0.1138925 -0.1139381 -0.113955 -0.1139294 -0.1138719
 -0.1137863 -0.1136922 -0.1136058 -0.1135438 -0.1135214 -0.1135422 -0.1136144 -0.1137216 -0.1138646 -0.1140103
 -0.1141537 -0.1142663 -0.1143437 -0.1143805 -0.1143762 -0.1143419 -0.1142782 -0.1141977 -0.1141011 -0.1139985
 -0.113892 -0.113794 -0.1137075 -0.1136473 -0.1136135 -0.1136153 -0.1136446 -0.1136977 -0.1137593 -0.1138157
 -0.1138572 -0.1138714 -0.1138654 -0.1138373 -0.1138021 -0.1137639 -0.113731 -0.1137059 -0.1136901 -0.1136839
 -0.1136934 -0.1137192 -0.1137685 -0.1138408 -0.1139289 -0.1140296 -0.1141172 -0.1141913 -0.1142336 -0.1142519
 -0.1142568 -0.1142556 -0.1142687 -0.1142925 -0.1143321 -0.1143795 -0.1144262 -0.114478 -0.1145323 -0.1146092
 -0.1147184 -0.1148633 -0.1150541 -0.1152496 -0.1154475 -0.1155904 -0.1156695 -0.1156752 -0.1156059 -0.1154865
 -0.1153184 -0.1151198 -0.1148938 -0.1146676 -0.1144481 -0.114278 -0.1141601 -0.1141286 -0.1141713 -0.1142911
 -0.114451 -0.1146064 -0.1147296 -0.1147699 -0.1147541 -0.1146792 -0.1145892 -0.1145043 -0.1144397 -0.1144073
 -0.114391 -0.1143912 -0.1143827 -0.1143621 -0.1143226 -0.1142633 -0.1142019 -0.1141397 -0.1141043 -0.1140964
 -0.1141387 -0.1142264 -0.1143589 -0.1145204 -0.1146694 -0.114795 -0.1148502 -0.1148529 -0.1148047 -0.1147287
 -0.1146497 -0.1145679 -0.1144928 -0.1144105 -0.1143153 -0.114206 -0.1140776 -0.1139507 -0.1138278 -0.1137283
 -0.1136557 -0.1136067 -0.1135819 -0.113557 -0.1135311 -0.1134844 -0.1134199 -0.1133494 -0.1132763 -0.1132228
 -0.1131851 -0.1131644 -0.1131572 -0.1131568 -0.1131651 -0.113183 -0.1132086 -0.1132445 -0.113276 -0.113296
 -0.1132907 -0.11325 -0.1131778 -0.1130738 -0.1129406 -0.1127803 -0.1125834 -0.1123482 -0.1120758 -0.1117655
 -0.1114388 -0.1110973 -0.1107726 -0.1104669 -0.1102121 -0.1100074 -0.10987 -0.1097899 -0.1097519 -0.1097422
 -0.1097262 -0.1097023 -0.1096528 -0.109586 -0.1095064 -0.1094125 -0.1093073 -0.1091797 -0.1090233 -0.1088416
 -0.1086329 -0.1084099 -0.1081751 -0.1079333 -0.1076852 -0.1074349 -0.1071823 -0.1069407 -0.1067111 -0.1065112
 -0.1063408 -0.1062084 -0.1061085 -0.1060275 -0.1059517 -0.1058369 -0.1056752 -0.1054218 -0.1051021 -0.1047263
 -0.1043311 -0.1039562 -0.1036135 -0.1033248 -0.1030803 -0.1028843 -0.1027128 -0.1025616 -0.102405 -0.102237
 -0.1020464 -0.1018307 -0.1015884 -0.1013191 -0.1010201 -0.1006916 -0.1003357 -0.09995432 -0.09956276 -0.09916344
 -0.09877477 -0.09839732 -0.0980418 -0.09770822 -0.09740207 -0.09712169 -0.09686887 -0.09663661 -0.09642013 -0.09621114
 -0.09600276 -0.09579151 -0.09557594 -0.09534804 -0.09510813 -0.09483549 -0.09452531 -0.0941687 -0.09376044 -0.09333594
 -0.09289658 -0.0924958 -0.092135 -0.09183261 -0.09158459 -0.09136898 -0.09117971 -0.09097853 -0.0907637 -0.09050744
 -0.09021883 -0.08989979 -0.08956525 -0.08923755 -0.08892144 -0.08863403 -0.0883593 -0.08809491 -0.08781724 -0.0875119
 -0.08717942 -0.08681274 -0.08643872 -0.08606149 -0.08570082 -0.08536126 -0.08503681 -0.08472784 -0.08441248 -0.08408987
 -0.08374536 -0.08338007 -0.08299683 -0.08259676 -0.08218654 -0.08176567 -0.08133403 -0.0808959 -0.0804564 -0.0800275
 -0.07962866 -0.07926409 -0.07894957 -0.07866884 -0.07841858 -0.07817656 -0.07793046 -0.07767414 -0.07740126 -0.07712153
 -0.07683594 -0.07655218 -0.07627235 -0.07599042 -0.07570643 -0.07540549 -0.07508711 -0.07474259 -0.07437377 -0.07399094
 -0.07359823 -0.07322051 -0.07285839 -0.07252908 -0.07222499 -0.07194059 -0.07166599 -0.07138346 -0.071093 -0.07078545
 -0.0704725 -0.0701594 -0.06985384 -0.06956364 -0.06927947 -0.06900164 -0.06871403 -0.06841247 -0.06809314 -0.06775405
 -0.06740452 -0.06704506 -0.06668463 -0.06632362 -0.06596646 -0.06561357 -0.06527019 -0.06493708 -0.06462098 -0.06432115
 -0.06403977 -0.0637737 -0.06351795 -0.06326965 -0.06302205 -0.06277587 -0.06252948 -0.06228388 -0.06204132 -0.06179514
 -0.06154402 -0.06127835 -0.06099235 -0.06069301 -0.06037796 -0.06007299 -0.05978165 -0.0595173 -0.05928233 -0.05905464
 -0.05883273 -0.05858069 -0.05829963 -0.05798189 -0.0576346 -0.05728641 -0.05694316 -0.05663937 -0.05637049 -0.05614639
 -0.05595402 -0.05577915 -0.05561263 -0.05543827 -0.05525912 -0.05507186 -0.05488285 -0.05469581 -0.05450851 -0.0543219
 -0.05412928 -0.05392905 -0.05371919 -0.053499 -0.05327017 -0.05303268 -0.05279025 -0.05254321 -0.0523004 -0.05206177
 -0.05183246 -0.05160886 -0.05137698 -0.05113301 -0.05085507 -0.05054932 -0.05021402 -0.04986573 -0.04952694 -0.04920946
 -0.04893545 -0.04870191 -0.04851515 -0.04836377 -0.04824462 -0.04814712 -0.04806846 -0.04799707 -0.04793135 -0.04785597
 -0.04776865 -0.0476598 -0.047528 -0.04737951 -0.04721474 -0.04704583 -0.04687225 -0.04669414 -0.04650997 -0.04631076
 -0.04609907 -0.04587634 -0.0456492 -0.04543288 -0.04522927 -0.04505006 -0.04488737 -0.04473883 -0.04459382 -0.04444314
 -0.0442848 -0.04411335 -0.0439385 -0.04376152 -0.04359367 -0.04343901 -0.04329505 -0.04316316 -0.04302786 -0.04288772
 -0.04273801 -0.04257909 -0.04243264 -0.04230021 -0.04220696 -0.04214934 -0.0421248 -0.04212545 -0.04212542 -0.04212053
 -0.04208858 -0.04203239 -0.04194538 -0.04183527 -0.04170605 -0.04156793 -0.04142958 -0.04129545 -0.041173 -0.04105025
 -0.04092636 -0.04078414 -0.04061664 -0.04043254 -0.04022872 -0.04004636 -0.03988838 -0.03978885 -0.03974866 -0.03975675
 -0.0398092 -0.03986292 -0.03991726 -0.03994463 -0.03995147 -0.03994479 -0.03992714 -0.03991052 -0.03988647 -0.03984679
 -0.03978722 -0.03969456 -0.03958626 -0.03946761 -0.0393623 -0.03928729 -0.03923924 -0.03922576 -0.03921504 -0.03920147
 -0.03916152 -0.03908848 -0.03899399 -0.03887721 -0.03877478 -0.03868855 -0.03865125 -0.03866196 -0.03872633 -0.03883819
 -0.03897127 -0.03911741 -0.03923628 -0.03932646 -0.03936232 -0.0393544 -0.03930445 -0.03923022 -0.03915043 -0.03907711
 -0.03902696 -0.03899617 -0.03898955 -0.03899163 -0.03899837 -0.03899863 -0.03898875 -0.03896672 -0.03893282 -0.03887774
 -0.03880152 -0.03868 -0.03851213 -0.03828464 -0.03800123 -0.037692 -0.03736627 -0.03708801 -0.03686165 -0.03673944
 -0.03670924 -0.03677674 -0.03691299 -0.03708096 -0.03724976 -0.03737045 -0.03743685 -0.03742019 -0.03735636 -0.03724844
 -0.03715393 -0.0370939 -0.03709916 -0.03718638 -0.03733156 -0.03753699 -0.03774892 -0.03796276 -0.03814494 -0.03829407
 -0.03841463 -0.03850808 -0.03859188 -0.0386652 -0.03873299 -0.03879267 -0.03883784 -0.03886827 -0.03887844 -0.03887414
 -0.03885793 -0.03884553 -0.03885074 -0.03889568 -0.03900211 -0.03917721 -0.0394371 -0.03975419 -0.0401283 -0.0405104
 -0.04088996 -0.04123174 -0.0415277 -0.04177189 -0.04196216 -0.04211381 -0.04222776 -0.04233288 -0.04243074 -0.04255037
 -0.04268891 -0.04284854 -0.04302109 -0.0431785 -0.04332077 -0.04342834 -0.04351965 -0.04361285 -0.04372709 -0.04389545
 -0.0441094 -0.04438109 -0.04467162 -0.0449681 -0.04522933 -0.04543584 -0.04557599 -0.04563764 -0.04565465 -0.0456259
 -0.04561686 -0.04563297 -0.04572471 -0.04589437 -0.04613444 -0.04644017 -0.04675595 -0.04707813 -0.04735604 -0.04759495
 -0.04778386 -0.04793324 -0.04806084 -0.04817386 -0.04829208 -0.04841556 -0.04855285 -0.04869836 -0.04885067 -0.0490049
 -0.04915692 -0.04930912 -0.04946089 -0.04961757 -0.04978153 -0.04994884 -0.05012016 -0.05028353 -0.05043751 -0.05058044
 -0.05071232 -0.0508494 -0.05099258 -0.05115866 -0.0513454 -0.05155012 -0.051768 -0.0519808 -0.05218701 -0.05237291
 -0.05254266 -0.05269595 -0.05283927 -0.0529792 -0.0531212 -0.05327119 -0.05343264 -0.05360933 -0.05380074 -0.05400877
 -0.05422638 -0.05445307 -0.05467881 -0.05490194 -0.05511662 -0.05532188 -0.05551884 -0.05570755 -0.05589344 -0.05607688
 -0.05626394 -0.05645448 -0.05665131 -0.05685309 -0.05705702 -0.05726121 -0.05745976 -0.05765232 -0.05783518 -0.05801019
 -0.0581776 -0.05834031 -0.05850155 -0.05865988 -0.05881786 -0.05896432 -0.05909681 -0.05920252 -0.05927476 -0.05932407
 -0.05934703 -0.05938786 -0.05944962 -0.05957699 -0.05977235 -0.06003474 -0.06036001 -0.06069753 -0.06104199 -0.06133518
 -0.06158031 -0.06175369 -0.06187011 -0.06194893 -0.06200917 -0.06209102 -0.06220163 -0.06237005 -0.06257831 -0.06282662
 -0.06308284 -0.06332821 -0.06354961 -0.06373309 -0.0638985 -0.06404765 -0.06420057 -0.06436415 -0.06452155 -0.06467355
 -0.06477749 -0.06483111 -0.06481771 -0.06474092 -0.06464063 -0.06452503 -0.06446366 -0.06445692 -0.06454816 -0.06472139
 -0.06496472 -0.06525448 -0.06554542 -0.0658283 -0.06607036 -0.06628646 -0.0664764 -0.06665859 -0.06684712 -0.06703665
 -0.06723127 -0.06741042 -0.06756755 -0.06770138 -0.06780819 -0.06791142 -0.06801334 -0.0681262 -0.06825079 -0.06836805
 -0.06847663 -0.06855255 -0.06859824 -0.06861515 -0.06860853 -0.06859832 -0.0685865 -0.06858819 -0.06860128 -0.06862869
 -0.06866883 -0.06871933 -0.06878445 -0.06886398 -0.06897059 -0.06911032 -0.06929432 -0.06953217 -0.06981103 -0.07013521
 -0.07046049 -0.070782 -0.07105532 -0.07127384 -0.07143512 -0.0715386 -0.07162766 -0.07170507 -0.0718198 -0.07196959
 -0.07216824 -0.07240636 -0.07265853 -0.07291587 -0.07314271 -0.07334004 -0.07349078 -0.07360675 -0.07369324 -0.07376543
 -0.073837 -0.0739176 -0.07401775 -0.07413518 -0.07427393 -0.07441851 -0.07456644 -0.0747024 -0.07482146 -0.07493063
 -0.07502861 -0.07514457 -0.07528014 -0.07545273 -0.07566061 -0.07588306 -0.07611617 -0.07632287 -0.07650657 -0.07665718
 -0.07678641 -0.07691829 -0.07705927 -0.07723479 -0.07743558 -0.07766354 -0.07790086 -0.0781339 -0.0783508 -0.07854025
 -0.07870132 -0.07883077 -0.07893208 -0.07900554 -0.07905409 -0.07907778 -0.07908174 -0.07906565 -0.07904399 -0.07901748
 -0.07901219 -0.07902956 -0.07909658 -0.07921182 -0.07938275 -0.07960179 -0.07984728 -0.08010825 -0.08034723 -0.08055775
 -0.08071049 -0.08080851 -0.08084179 -0.08082195 -0.08075327 -0.08065084 -0.08052325 -0.08038322 -0.08023728 -0.08009294
 -0.07995313 -0.07982232 -0.07970228 -0.07959144 -0.0794911 -0.07938296 -0.07926621 -0.07910519 -0.07889856 -0.07861827
 -0.07826816 -0.07785621 -0.07739159 -0.07691271 -0.07642574 -0.0759668 -0.07553317 -0.07513758 -0.0747722 -0.07443275
 -0.07411276 -0.07380573 -0.0735072 -0.07321385 -0.07292012 -0.07262361 -0.07231902 -0.0720031 -0.07168049 -0.07134916
 -0.07103068 -0.07072611 -0.07046454 -0.07024788 -0.07008845 -0.06998523 -0.06992352 -0.06990115 -0.06989602 -0.06990908
 -0.06993338 -0.06996863 -0.07001432 -0.07006045 -0.07009126 -0.07009448 -0.07004467 -0.06994893 -0.06979849 -0.06962258
 -0.0694351 -0.06925763 -0.06910659 -0.06897122 -0.06885464 -0.0687293 -0.06858992 -0.06842484 -0.06823083 -0.06802066
 -0.06779475 -0.06757773 -0.06737108 -0.06720119 -0.06706833 -0.06698976 -0.06696036 -0.06697302 -0.06701577 -0.06705535
 -0.06708238 -0.06706053 -0.06699983 -0.06688808 -0.06676716 -0.06665653 -0.0666251 -0.06671268 -0.06698115 -0.06747089
 -0.06818441 -0.06914347 -0.07026675 -0.07155277 -0.0728715 -0.07421056 -0.07546087 -0.07661448 -0.07762864 -0.0785043
 -0.07925688 -0.07989056 -0.08044017 -0.08090799 -0.08132005 -0.08167861 -0.08200046 -0.08229171 -0.08256987 -0.08284091
 -0.08312116 -0.0834068 -0.08370291 -0.08399538 -0.08427764 -0.08453876 -0.08477113 -0.08497673 -0.085154 -0.08530994
 -0.08544644 -0.08556207 -0.08565765 -0.08572164 -0.08575338 -0.08574214 -0.08568837 -0.08559788 -0.08547496 -0.08535045
 -0.08523081 -0.08515898 -0.0851363 -0.08519109 -0.08531386 -0.08550395 -0.08574352 -0.08601235 -0.08629142 -0.08655823
 -0.08680029 -0.08700231 -0.08716597 -0.08728641 -0.08737686 -0.08744103 -0.08748349 -0.08750832 -0.0874968 -0.08744716
 -0.08734388 -0.08718478 -0.08701164 -0.08683047 -0.08675305 -0.08678649 -0.08704239 -0.08750774 -0.08820053 -0.08908105
 -0.09005892 -0.09109396 -0.0920673 -0.09297282 -0.09374793 -0.09442224 -0.09499869 -0.09550977 -0.09597869 -0.09641472
 -0.09682836 -0.097215 -0.09757429 -0.09790653 -0.09821103 -0.09849329 -0.09875385 -0.09899648 -0.09922139 -0.09943265
 -0.09963065 -0.0998229 -0.1000097 -0.1001979 -0.1003865 -0.1005769 -0.1007667 -0.100951 -0.1011269 -0.1012862
 -0.1014293 -0.1015509 -0.1016582 -0.101754 -0.1018495 -0.1019527 -0.1020678 -0.1022011 -0.1023417 -0.1024895
 -0.1026252 -0.1027446 -0.1028375 -0.1029006 -0.1029455 -0.1029723 -0.1030055 -0.1030457 -0.1031064 -0.1031855
 -0.103273 -0.1033669 -0.1034504 -0.1035272 -0.1035968 -0.1036667 -0.103752 -0.1038546 -0.1039858 -0.1041354
 -0.1043005 -0.1044645 -0.1046164 -0.1047459 -0.1048441 -0.1049147 -0.1049545 -0.1049802 -0.1049931 -0.1050133
 -0.1050436 -0.1050932 -0.1051634 -0.1052445 -0.1053354 -0.1054176 -0.1054912 -0.1055482 -0.105592 -0.1056323
 -0.1056715 -0.1057229 -0.1057835 -0.1058551 -0.1059314 -0.1060047 -0.1060714 -0.1061251 -0.1061656 -0.1061909
 -0.1062022 -0.1061989 -0.1061856 -0.106162 -0.1061404 -0.1061221 -0.1061219 -0.1061422 -0.1061862 -0.1062546
 -0.1063335 -0.1064218 -0.1065008 -0.106571 -0.1066269 -0.1066714 -0.1067147 -0.1067585 -0.1068142 -0.1068786
 -0.1069528 -0.10703 -0.1071021 -0.1071642 -0.1072074 -0.1072347 -0.1072427 -0.1072444 -0.1072429 -0.1072532
 -0.1072811 -0.10733 -0.107403 -0.1074895 -0.107589 -0.107689 -0.1077883 -0.1078827 -0.1079719 -0.1080556
 -0.1081335 -0.1082027 -0.108263 -0.1083119 -0.1083508 -0.1083819 -0.1084073 -0.1084316 -0.1084554 -0.1084815
 -0.1085094 -0.1085396 -0.1085724 -0.1086078 -0.1086471 -0.1086909 -0.1087406 -0.1087973 -0.1088602 -0.1089299
 -0.1090024 -0.1090773 -0.1091492 -0.1092176 -0.1092787 -0.1093324 -0.1093779 -0.1094151 -0.1094437 -0.1094639
 -0.1094759 -0.109481 -0.109483 -0.1094849 -0.1094946 -0.1095133 -0.1095475 -0.1095933 -0.1096505 -0.1097122
 -0.1097737 -0.1098326 -0.1098859 -0.109937 -0.1099866 -0.1100363 -0.1100873 -0.1101357 -0.1101812 -0.1102207
 -0.1102538 -0.1102835 -0.11031 -0.1103384 -0.1103686 -0.1104026 -0.1104399 -0.1104802 -0.1105234 -0.1105698
 -0.1106185 -0.1106689 -0.1107189 -0.1107653 -0.1108067 -0.1108399 -0.1108663 -0.1108855 -0.1109 -0.1109113
 -0.1109197 -0.1109255 -0.1109294 -0.1109307 -0.110935 -0.1109425 -0.110961 -0.1109913 -0.1110342 -0.1110897
 -0.1111499 -0.1112143 -0.1112745 -0.1113309 -0.1113804 -0.1114236 -0.1114613 -0.111494 -0.1115234 -0.1115506
 -0.1115778 -0.1116056 -0.1116357 -0.1116671 -0.1116994 -0.1117323 -0.1117652 -0.111799 -0.1118341 -0.1118695
 -0.1119053 -0.1119381 -0.1119673 -0.1119926 -0.1120138 -0.1120358 -0.1120587 -0.1120857 -0.1121165 -0.1121492
 -0.1121834 -0.1122171 -0.1122509 -0.1122861 -0.1123232 -0.1123642 -0.1124083 -0.1124555 -0.1125034 -0.11255
 -0.1125919 -0.1126261 -0.1126515 -0.1126656 -0.1126731 -0.1126742 -0.1126771 -0.1126837 -0.1126976 -0.11272
 -0.1127471 -0.112779 -0.1128101 -0.1128404 -0.1128675 -0.1128916 -0.1129127 -0.112931 -0.1129476 -0.1129624
 -0.1129764 -0.1129888 -0.1129982 -0.1130035 -0.1130017 -0.1129955 -0.112985 -0.1129775 -0.1129779 -0.1129903
 -0.1130198 -0.1130598 -0.1131106 -0.1131606 -0.1132072 -0.1132447 -0.1132715 -0.1132908 -0.1133025 -0.1133114
 -0.1133176 -0.1133225 -0.113326 -0.1133275 -0.1133271 -0.113325 -0.1133217 -0.1133181 -0.1133148 -0.1133133
 -0.1133144 -0.1133199 -0.1133306 -0.1133483 -0.1133711 -0.113399 -0.1134265 -0.1134511 -0.1134686 -0.1134759
 -0.1134762 -0.1134687 -0.1134615 -0.1134557 -0.1134562 -0.1134639 -0.1134759 -0.113492 -0.1135059 -0.1135175
 -0.1135244 -0.1135276 -0.113531 -0.1135358 -0.1135484 -0.1135685 -0.1135993 -0.1136383 -0.113684 -0.113733
 -0.1137817 -0.1138282 -0.1138696 -0.1139067 -0.1139385 -0.1139676 -0.1139947 -0.1140219 -0.1140505 -0.1140784
 -0.114106 -0.1141277 -0.114143 -0.1141494 -0.1141469 -0.1141408 -0.1141317 -0.1141279 -0.1141287 -0.1141368
 -0.1141505 -0.1141659 -0.1141825 -0.1141965 -0.1142094 -0.1142219 -0.1142356 -0.1142534 -0.1142743 -0.1142993
 -0.1143241 -0.1143471 -0.1143642 -0.114373 -0.1143743 -0.1143672 -0.1143569 -0.1143439 -0.1143337 -0.1143272
 -0.1143261 -0.1143307 -0.1143392 -0.1143513 -0.1143632 -0.1143747 -0.1143831 -0.1143889 -0.1143922 -0.1143938
 -0.1143959 -0.1143992 -0.1144062 -0.1144172 -0.1144341 -0.1144556 -0.1144823 -0.1145101 -0.1145376 -0.1145602
 -0.1145754 -0.1145826 -0.1145804 -0.114573 -0.1145606 -0.1145481 -0.1145361 -0.1145266 -0.1145195 -0.1145139
 -0.1145094 -0.1145038 -0.1144971 -0.114488 -0.1144772 -0.1144664 -0.1144567 -0.114452 -0.1144529 -0.1144623
 -0.1144787 -0.1145021 -0.1145288 -0.1145562 -0.1145805 -0.1145989 -0.1146102 -0.1146128 -0.1146091 -0.1145992
 -0.1145862 -0.1145706 -0.1145541 -0.1145367 -0.114519 -0.1145009 -0.1144845 -0.1144699 -0.1144601 -0.1144547
 -0.1144541 -0.1144567 -0.1144582 -0.1144576 -0.1144494 -0.114435 -0.1144132 -0.1143875 -0.1143612 -0.1143369
 -0.1143181 -0.1143041 -0.1142956 -0.1142904 -0.114288 -0.1142874 -0.1142886 -0.1142899 -0.1142915 -0.1142897
 -0.1142842 -0.1142724 -0.1142544 -0.114232 -0.1142058 -0.114181 -0.1141581 -0.1141429 -0.1141361 -0.114143
 -0.1141641 -0.1142035 -0.1142605 -0.1143362 -0.1144293 -0.1145381 -0.1146642 -0.1148065 -0.1149725 -0.115164
 -0.1153935 -0.1156654 -0.1159888 -0.1163684 -0.1167997 -0.117285 -0.117799 -0.118341 -0.118873 -0.119393
 -0.1198698 -0.120302 -0.1206675 -0.1209619 -0.1211507 -0.1212284 -0.1211531 -0.1209331 -0.1205573 -0.1200599
 -0.1194824 -0.118869 -0.1182836 -0.1177489 -0.1173026 -0.1169478 -0.1166947 -0.1165432 -0.1164976 -0.116547
 -0.1166976 -0.1168956 -0.1171397 -0.1173409 -0.1174893 -0.1175579 -0.1175457 -0.1175063 -0.1174417 -0.1173905
 -0.1173474 -0.1173031 -0.117252 -0.1171687 -0.1170543 -0.1168963 -0.1167047 -0.1164879 -0.1162594 -0.1160379
 -0.1158279 -0.1156412 -0.1154683 -0.1153081 -0.1151499 -0.1149879 -0.1148251 -0.1146595 -0.1145037 -0.1143599
 -0.1142335 -0.1141259 -0.1140292 -0.1139429 -0.113852 -0.113756 -0.1136465 -0.1135251 -0.1133966 -0.1132635
 -0.1131368 -0.1130159 -0.1129057 -0.1128029 -0.1127039 -0.1126072 -0.1125081 -0.1124106 -0.1123156 -0.1122288
 -0.1121547 -0.1120928 -0.1120455 -0.1120044 -0.1119687 -0.1119294 -0.1118846 -0.1118319 -0.1117706 -0.1117041
 -0.1116327 -0.1115619 -0.1114922 -0.1114295 -0.1113742 -0.1113323 -0.1113031 -0.1112889 -0.1112872 -0.1112939
 -0.1113057 -0.111315 -0.11132 -0.1113154 -0.1113009 -0.1112742 -0.1112365 -0.1111871 -0.1111293 -0.1110636
 -0.1109959 -0.1109276 -0.1108643 -0.1108072 -0.1107569 -0.110714 -0.110675 -0.1106398 -0.1106047 -0.1105697
 -0.1105335 -0.1104962 -0.1104586 -0.1104207 -0.1103839 -0.1103479 -0.1103133 -0.1102795 -0.1102456 -0.1102104
 -0.1101722 -0.1101296 -0.1100808 -0.1100258 -0.1099635 -0.1098967 -0.1098254 -0.1097547 -0.1096853 -0.1096221
 -0.1095659 -0.1095196 -0.1094836 -0.1094574 -0.109441 -0.1094304 -0.109425 -0.1094179 -0.1094085 -0.1093892
 -0.1093601 -0.1093166 -0.1092603 -0.1091918 -0.1091143 -0.1090327 -0.1089511 -0.108876 -0.1088108 -0.1087608
 -0.1087252 -0.1087065 -0.1086974 -0.1086966 -0.1086943 -0.1086874 -0.1086711 -0.1086433 -0.1086075 -0.1085638
 -0.1085186 -0.1084723 -0.1084282 -0.1083863 -0.1083466 -0.1083092 -0.1082743 -0.1082417 -0.1082114 -0.1081824
 -0.1081522 -0.1081199 -0.108083 -0.1080416 -0.107995 -0.1079442 -0.1078899 -0.1078332 -0.1077746 -0.1077166
 -0.10766 -0.1076078 -0.1075612 -0.1075203 -0.1074858 -0.1074532 -0.1074223 -0.1073891 -0.1073532 -0.1073147
 -0.1072739 -0.1072329 -0.1071918 -0.1071519 -0.1071131 -0.1070755 -0.1070388 -0.1070026 -0.1069661 -0.1069277
 -0.1068866 -0.1068407 -0.1067913 -0.1067379 -0.1066844 -0.1066325 -0.1065856 -0.1065461 -0.1065129 -0.1064868
 -0.1064628 -0.1064402 -0.1064149 -0.1063862 -0.1063548 -0.1063207 -0.1062877 -0.1062557 -0.1062261 -0.1061983
 -0.106169 -0.1061376 -0.1061001 -0.1060569 -0.1060068 -0.1059514 -0.1058933 -0.1058338 -0.1057759 -0.1057196
 -0.1056664 -0.1056154 -0.1055664 -0.1055197 -0.1054755 -0.1054342 -0.1053966 -0.1053599 -0.1053241 -0.1052842
 -0.1052393 -0.1051904 -0.1051372 -0.1050889 -0.1050455 -0.1050127 -0.1049891 -0.1049683 -0.1049487 -0.1049199
 -0.1048833 -0.1048366 -0.1047831 -0.1047279 -0.1046721 -0.1046194 -0.1045682 -0.1045181 -0.1044685 -0.1044184
 -0.1043686 -0.1043192 -0.1042706 -0.1042231 -0.1041766 -0.1041309 -0.1040869 -0.1040443 -0.1040046 -0.1039678
 -0.1039348 -0.1039055 -0.1038794 -0.1038561 -0.1038333 -0.1038105 -0.1037844 -0.1037548 -0.1037189 -0.1036769
 -0.1036277 -0.1035725 -0.1035114 -0.1034466 -0.1033798 -0.1033131 -0.1032482 -0.1031863 -0.1031285 -0.1030749
 -0.1030258 -0.1029804 -0.1029388 -0.1028999 -0.1028637 -0.1028302 -0.1027997 -0.1027731 -0.1027503 -0.1027299
 -0.1027111 -0.1026883 -0.1026614 -0.1026258 -0.102583 -0.1025345 -0.1024823 -0.1024309 -0.1023806 -0.102334
 -0.1022902 -0.102249 -0.1022098 -0.1021723 -0.1021363 -0.102102 -0.1020689 -0.1020371 -0.1020068 -0.1019778
 -0.1019505 -0.1019249 -0.1018995 -0.1018741 -0.1018445 -0.1018108 -0.1017696 -0.1017212 -0.1016671 -0.1016082
 -0.1015495 -0.1014912 -0.1014374 -0.1013868 -0.1013395 -0.1012942 -0.1012494 -0.1012044 -0.1011582 -0.1011105
 -0.1010608 -0.1010088 -0.100954 -0.1008986 -0.1008429 -0.1007889 -0.1007375 -0.1006856 -0.1006333 -0.1005752
 -0.1005107 -0.100442 -0.1003696 -0.1003035 -0.1002435 -0.1001958 -0.1001582 -0.1001254 -0.1000953 -0.1000582
 -0.1000151 -0.09996225 -0.09990354 -0.09984212 -0.09978184 -0.09972747 -0.09967989 -0.09964157 -0.09961008 -0.09958556
 -0.0995636 -0.09954342 -0.09952007 -0.09949287 -0.09945632 -0.09940976 -0.09934889 -0.09927331 -0.09918424 -0.09908215
 -0.09897596 -0.09886672 -0.09876667 -0.09867562 -0.0986001 -0.0985375 -0.09848471 -0.09843849 -0.09839111 -0.09834199
 -0.09828648 -0.09822752 -0.09816598 -0.09810467 -0.09804626 -0.0979897 -0.09793586 -0.09788062 -0.09782281 -0.09776031
 -0.09769205 -0.09762076 -0.09754644 -0.09747383 -0.09740327 -0.09733669 -0.09727406 -0.09721427 -0.09715706 -0.0971003
 -0.09704363 -0.09698444 -0.0969227 -0.09685633 -0.09678701 -0.09671627 -0.09664717 -0.09658482 -0.09652939 -0.09648459
 -0.09644381 -0.09640537 -0.09635955 -0.096301 -0.09622776 -0.09613648 -0.09603646 -0.09592821 -0.09582372 -0.09572469
 -0.09563574 -0.09555746 -0.0954854 -0.09541925 -0.09535224 -0.09528454 -0.09521407 -0.09514181 -0.09507079 -0.09500179
 -0.09493867 -0.09488126 -0.09483148 -0.09478763 -0.09474915 -0.09471194 -0.09467302 -0.09462691 -0.09456899 -0.09449784
 -0.09441036 -0.09431274 -0.0942051 -0.09409788 -0.0939931 -0.09389748 -0.09381267 -0.09373558 -0.0936663 -0.09359447
 -0.09351972 -0.09343538 -0.09334227 -0.09324351 -0.09314024 -0.09303965 -0.09294105 -0.09284649 -0.09275429 -0.09266164
 -0.09256883 -0.09247437 -0.09238108 -0.0922912 -0.09220606 -0.09212826 -0.09205409 -0.09198333 -0.09190977 -0.09183121
 -0.09174544 -0.0916511 -0.09155149 -0.09144673 -0.09134074 -0.0912338 -0.09112784 -0.09102304 -0.09092263 -0.09082716
 -0.09074266 -0.09066883 -0.09060866 -0.09055924 -0.09051494 -0.09047129 -0.09041661 -0.09034991 -0.09026349 -0.09016271
 -0.09004923 -0.08992922 -0.08980792 -0.08968577 -0.08956485 -0.08944163 -0.08931498 -0.08918472 -0.08904965 -0.08891683
 -0.08878675 -0.08866695 -0.08855812 -0.0884611 -0.08837576 -0.08829796 -0.08822743 -0.08816048 -0.0880965 -0.08803127
 -0.08796344 -0.08788661 -0.08780103 -0.08770356 -0.08759668 -0.08748242 -0.08736262 -0.08723959 -0.08711488 -0.08698935
 -0.08686662 -0.08674837 -0.08663722 -0.08653532 -0.08643863 -0.08634781 -0.08625209 -0.08615025 -0.08603414 -0.08590285
 -0.08575878 -0.08560231 -0.0854431 -0.08528151 -0.08512504 -0.08497293 -0.08482575 -0.08468291 -0.08454262 -0.08440572
 -0.08427326 -0.08414532 -0.08402351 -0.08390438 -0.08378571 -0.08366358 -0.08353382 -0.08339799 -0.08325481 -0.08311024
 -0.08296587 -0.08282566 -0.08269132 -0.08256082 -0.08243456 -0.08230582 -0.08217411 -0.08203481 -0.08188786 -0.08173481
 -0.08157568 -0.08141171 -0.08124165 -0.08105994 -0.08086675 -0.08065841 -0.08043887 -0.0802142 -0.07998732 -0.0797659
 -0.0795477 -0.07933387 -0.07912 -0.07890296 -0.07868175 -0.07845417 -0.07822433 -0.07799224 -0.07776514 -0.07754444
 -0.07733557 -0.07714021 -0.07695328 -0.07677496 -0.07658768 -0.07639078 -0.07617389 -0.07593848 -0.07569255 -0.07543808
 -0.0751885 -0.07494395 -0.07471273 -0.07449166 -0.07427976 -0.07407054 -0.07385389 -0.07362771 -0.07338395 -0.07313059
 -0.07287053 -0.07261019 -0.07235628 -0.07209928 -0.07183913 -0.07156012 -0.07125721 -0.07093248 -0.07058457 -0.07022724
 -0.0698616 -0.06949168 -0.06911759 -0.06873891 -0.06835607 -0.06797394 -0.0675917 -0.06720975 -0.06682343 -0.06641918
 -0.06599335 -0.06552936 -0.06503353 -0.06450558 -0.06395804 -0.06340393 -0.0628485 -0.06229942 -0.06175696 -0.06122243
 -0.06069764 -0.06018391 -0.05968016 -0.05918892 -0.05869305 -0.05819276 -0.05765324 -0.05707129 -0.05643361 -0.05574106
 -0.055041 -0.05433553 -0.05366636 -0.0530263 -0.05240203 -0.05178772 -0.05115754 -0.05051367 -0.04984934 -0.04916557
 -0.04846543 -0.04773657 -0.0469724 -0.04614962 -0.04524963 -0.04426134 -0.04316659 -0.0419966 -0.04075051 -0.03948768
 -0.0382204 -0.03698706 -0.03579564 -0.03465489 -0.03356689 -0.03251913 -0.03151007 -0.03049456 -0.02946672 -0.02834739
 -0.02714272 -0.02582714 -0.02443802 -0.0230837 -0.02177412 -0.0205954 -0.0195056 -0.01847968 -0.0174851 -0.01647479
 -0.01544927 -0.01439313 -0.01331931 -0.01223056 -0.01113532 -0.01003277 -0.008948055 -0.007884936 -0.006870514 -0.005912192
 -0.004994032 -0.004115819 -0.003250586 -0.002398076 -0.001581951 -0.0008053195 -0.0001113483 0.0005057537 0.001049589 0.001532688
 0.001998446 0.002447617 0.002908049 0.003361291 0.003787655 0.004186237 0.004542734 0.004879626 0.005212151 0.005542573
 0.005881978 0.006203259 0.006500954 0.006750294 0.006944099 0.007073949 0.007137434 0.007133564 0.007061374 0.006934637
 0.006754441 0.006553288 0.006331772 0.006108878 0.005881972 0.005646668 0.005402927 0.00514604 0.004882808 0.004623509
 0.004378323 0.004167989 0.003994214 0.003868152 0.003782581 0.003734752 0.003722332 0.003742352 0.003798753 0.003893454
 0.004023484 0.004189398 0.004382974 0.004602807 0.004846742 0.005114496 0.005405243 0.005718829 0.006048937 0.006395275
 0.006752322 0.007120512 0.007499753 0.007889469 0.008288139 0.00869422 0.009102958 0.009515292 0.009929252 0.01034991
 0.01078055 0.0112288 0.01170084 0.01220192 0.01273737 0.01330441 0.01390398 0.01452956 0.0151796 0.01585182
 0.01654641 0.01725664 0.01798287 0.01870285 0.01941533 0.02009456 0.02073952 0.02133192 0.02186962 0.02233169
 0.02271705 0.02300794 0.02321207 0.02333608 0.0233904 0.02339403 0.02335162 0.02327462 0.02316545 0.02303188
 0.02286536 0.02267393 0.02240965 0.02207004 0.0215627 0.02085821 0.01994309 0.01879063 0.01759862 0.0163831
 0.01526457 0.01424721 0.01324554 0.01225502 0.01119645 0.01007781 0.008900681 0.00767426 0.006436787 0.005174015
 0.003886716 0.0025253 0.001007262 -0.000679298 -0.002621976 -0.004675595 -0.006764894 -0.008772142 -0.01058651 -0.01228159
 -0.01385894 -0.0153898 -0.01690248 -0.01836747 -0.01978655 -0.02110898 -0.02232784 -0.0234576 -0.02449923 -0.02550682
 -0.02648103 -0.02744869 -0.02840432 -0.02933186 -0.03022799 -0.03107055 -0.0318663 -0.0326183 -0.03333618 -0.03403669
 -0.03472392 -0.03540681 -0.03609173 -0.03678076 -0.03749599 -0.03824931 -0.03905481 -0.0399375 -0.04081935 -0.04169632
 -0.04244843 -0.04304574 -0.04351517 -0.04385242 -0.04415959 -0.04444156 -0.0447516 -0.04508714 -0.04543632 -0.04579373
 -0.04612231 -0.04642395 -0.04668669 -0.04691261 -0.04710473 -0.0472536 -0.04734674 -0.04737424 -0.04731649 -0.0471818
 -0.04696779 -0.04669109 -0.04636029 -0.04598332 -0.04556548 -0.04510684 -0.04460961 -0.04406537 -0.04347499 -0.04281541
 -0.042084 -0.04127117 -0.04037683 -0.03946297 -0.03853527 -0.03768337 -0.03690313 -0.03621825 -0.03561871 -0.03508187
 -0.03460463 -0.03416982 -0.03377607 -0.03341787 -0.03308343 -0.03276206 -0.03243246 -0.03207233 -0.03167937 -0.03123825
 -0.0307849 -0.03032904 -0.02989526 -0.02949521 -0.02911719 -0.02876233 -0.02840853 -0.02805383 -0.02768333 -0.02729624
 -0.02689272 -0.02647336 -0.02604629 -0.0256102 -0.02516311 -0.02470036 -0.0242042 -0.02367288 -0.02309054 -0.02246551
 -0.02180411 -0.02111325 -0.02040671 -0.01967629 -0.01892004 -0.01813097 -0.01730038 -0.0164422 -0.01555668 -0.01466813
 -0.01378374 -0.01291118 -0.01205401 -0.01120233 -0.01035468 -0.009515353 -0.008684677 -0.007907332 -0.007186623 -0.006577231
 -0.006078114 -0.005710691 -0.005472428 -0.005364107 -0.005388443 -0.005551765 -0.005857958 -0.006318234 -0.006928423 -0.007691907
 -0.00859261 -0.009622638 -0.01075923 -0.01198978 -0.0132953 -0.01466752 -0.01609139 -0.01756646 -0.0190585 -0.02056659
 -0.0220301 -0.02344294 -0.02476735 -0.02600107 -0.02716177 -0.02825163 -0.02930547 -0.03032095 -0.03130323 -0.03224555
 -0.03312488 -0.03394122 -0.03468005 -0.035352 -0.03596677 -0.0365363 -0.03707824 -0.03759809 -0.03810685 -0.03860218
 -0.03908657 -0.03955346 -0.04000103 -0.04042447 -0.0408218 -0.04119325 -0.04153833 -0.04186011 -0.04215911 -0.04243378
 -0.04268408 -0.04289985 -0.04308063 -0.04321682 -0.04331004 -0.04336435 -0.04338291 -0.04337914 -0.04335453 -0.04331895
 -0.04327299 -0.04322154 -0.04316584 -0.04310929 -0.04305189 -0.04299469 -0.04293738 -0.04287866 -0.04282368 -0.0427727
 -0.04273553 -0.04271473 -0.04271617 -0.04274188 -0.04278928 -0.04285852 -0.04294398 -0.04304534 -0.04315973 -0.04328696
 -0.04342446 -0.0435711 -0.04371893 -0.04386606 -0.04400103 -0.04412363 -0.04422717 -0.04431359 -0.04438379 -0.04443763
 -0.04447635 -0.04449623 -0.04449391 -0.04446946 -0.0444197 -0.04435426 -0.0442749 -0.04419373 -0.0441146 -0.04404197
 -0.04397733 -0.04392045 -0.04387122 -0.04383232 -0.04380387 -0.04379039 -0.0437917 -0.04380657 -0.04383372 -0.04386459
 -0.04389821 -0.04392566 -0.04394862 -0.04396607 -0.04398157 -0.04400134 -0.04402583 -0.04405951 -0.04409724 -0.04413658
 -0.04417281 -0.04420133 -0.04422471 -0.04424224 -0.04425967 -0.04427888 -0.04430066 -0.04432607 -0.04434982 -0.04437147
 -0.0443868 -0.04439551 -0.04439741 -0.04439259 -0.04438231 -0.04436642 -0.04434448 -0.04431628 -0.04428051 -0.04423787
 -0.04418933 -0.04413583 -0.04407996 -0.04402067 -0.04395858 -0.04389004 -0.04381236 -0.04372271 -0.04361805 -0.04349978
 -0.04336684 -0.0432248 -0.04307424 -0.04292278 -0.04277159 -0.04262704 -0.04249004 -0.04236276 -0.0422454 -0.04213703
 -0.04203769 -0.04194818 -0.04186881 -0.04180234 -0.04174831 -0.04170715 -0.04167682 -0.04165318 -0.041633 -0.0416088
 -0.04157883 -0.04153679 -0.04148608 -0.04142558 -0.04136477 -0.04130825 -0.04126418 -0.04123797 -0.04122855 -0.04123781
 -0.04125729 -0.04128603 -0.04131634 -0.0413472 -0.04137556 -0.04140115 -0.04142446 -0.04144559 -0.04146598 -0.04148563
 -0.04150503 -0.0415241 -0.04154259 -0.04156108 -0.04158106 -0.04160274 -0.04162787 -0.04165449 -0.04168133 -0.04170552
 -0.04172359 -0.04173588 -0.0417409 -0.04174232 -0.04174139 -0.04174018 -0.04173994 -0.04173907 -0.04173758 -0.04173334
 -0.04172609 -0.04171516 -0.04170052 -0.04168114 -0.04165692 -0.04162552 -0.04158692 -0.04153952 -0.04148419 -0.0414231
 -0.04135798 -0.04129471 -0.04123339 -0.04117791 -0.04112484 -0.04107241 -0.0410151 -0.04094768 -0.04086672 -0.04076837
 -0.04065282 -0.04051916 -0.0403688 -0.0402024 -0.04001852 -0.0398172 -0.03959571 -0.03935333 -0.03909335 -0.03881576
 -0.03853445 -0.03825019 -0.03797795 -0.03771685 -0.03746882 -0.03723099 -0.03699283 -0.036753 -0.03650196 -0.03624164
 -0.03597096 -0.03569259 -0.03540971 -0.03512327 -0.03483524 -0.03454559 -0.03425396 -0.03396334 -0.03367333 -0.03339262
 -0.03312284 -0.03287362 -0.03264769 -0.03244546 -0.03226807 -0.03210501 -0.03195571 -0.03180978 -0.03166695 -0.03152339
 -0.03137898 -0.03123149 -0.03107986 -0.03091874 -0.03074699 -0.03055856 -0.03035371 -0.03012933 -0.02988826 -0.02963167
 -0.02936537 -0.02909437 -0.02882374 -0.02855875 -0.02829863 -0.02804511 -0.0277929 -0.02754082 -0.02728534 -0.02702511
 -0.02676198 -0.02649556 -0.02623286 -0.02597422 -0.02572902 -0.02549742 -0.02528246 -0.02508273 -0.02488962 -0.02470163
 -0.02450739 -0.02430811 -0.02410079 -0.02388816 -0.02367381 -0.02345967 -0.02324932 -0.02304467 -0.02284873 -0.02266207
 -0.02248721 -0.02231904 -0.02215738 -0.02199254 -0.02182242 -0.02163732 -0.02143515 -0.0212099 -0.02096018 -0.0206878
 -0.02039259 -0.02008546 -0.01976698 -0.01944799 -0.01912815 -0.01880977 -0.01849245 -0.01817476 -0.01785893 -0.0175489
 -0.01724988 -0.01697235 -0.01672213 -0.01651114 -0.0163416 -0.01622132 -0.01614447 -0.01611129 -0.01611087 -0.01613928
 -0.01618715 -0.01625196 -0.01632393 -0.0164019 -0.01647243 -0.01653358 -0.01657934 -0.01660886 -0.01663199 -0.01664916
 -0.01666972 -0.01669193 -0.01670709 -0.01671266 -0.01669209 -0.01664708 -0.01657273 -0.01647402 -0.0163578 -0.01622788
 -0.01609173 -0.01595201 -0.01581262 -0.01567797 -0.01555017 -0.01543776 -0.01534345 -0.01527837 -0.01524649 -0.01525305
 -0.0153008 -0.01538377 -0.01550176 -0.0156474 -0.01582002 -0.01602059 -0.01624907 -0.01650571 -0.01678875 -0.01708541
 -0.01739291 -0.0176922 -0.01798297 -0.01825359 -0.01850749 -0.01874424 -0.01897077 -0.01919454 -0.01942466 -0.01967202
 -0.01994167 -0.02024125 -0.02056717 -0.02092086 -0.02129355 -0.02168345 -0.02208222 -0.02248806 -0.02289543 -0.02330312
 -0.02371184 -0.02412148 -0.02453685 -0.02495792 -0.02538288 -0.02581043 -0.02622924 -0.02663878 -0.02703017 -0.0274051
 -0.02776418 -0.02810815 -0.02843932 -0.02875617 -0.02905732 -0.02934231 -0.02960979 -0.02986117 -0.03009728 -0.03031801
 -0.03052385 -0.03071299 -0.03088446 -0.03103971 -0.03117799 -0.03130644 -0.03142548 -0.03154425 -0.03166354 -0.03178668
 -0.03191347 -0.03203753 -0.03215779 -0.03226268 -0.03235156 -0.03241533 -0.03245447 -0.03246507 -0.03244947 -0.03240908
 -0.03234912 -0.03227672 -0.03219671 -0.03211697 -0.03203681 -0.03195863 -0.03187865 -0.03179466 -0.03170856 -0.03161929
 -0.03153498 -0.03145694 -0.0313918 -0.03134095 -0.03130437 -0.03128244 -0.03126666 -0.03125633 -0.03123637 -0.03120628
 -0.03115446 -0.03108261 -0.03099175 -0.03088448 -0.03076903 -0.03064625 -0.03052144 -0.030395 -0.03026907 -0.03014529
 -0.03002609 -0.02991204 -0.02980474 -0.02970235 -0.02960442 -0.02950963 -0.02941763 -0.0293269 -0.02923751 -0.02914554
 -0.02905069 -0.02894823 -0.02883773 -0.0287176 -0.02858787 -0.02845038 -0.02830591 -0.02816108 -0.02801762 -0.0278871
 -0.02777022 -0.02767605 -0.02760178 -0.02754681 -0.02750675 -0.0274753 -0.02744983 -0.02742585 -0.02740154 -0.02737522
 -0.02734328 -0.0273043 -0.02725386 -0.0271903 -0.02711132 -0.02701578 -0.02690531 -0.0267797 -0.0266433 -0.0264964
 -0.02634257 -0.0261819 -0.02601475 -0.02584113 -0.02566106 -0.02547507 -0.02528539 -0.02509321 -0.02490247 -0.02471535
 -0.02453743 -0.02437152 -0.02422454 -0.02409594 -0.02398982 -0.023898 -0.02381824 -0.02373757 -0.02364981 -0.02354596
 -0.02342065 -0.0232761 -0.02310998 -0.02293763 -0.02275981 -0.0225973 -0.02245196 -0.02233258 -0.02223897 -0.02215715
 -0.02208522 -0.02199944 -0.02190065 -0.02177892 -0.02163909 -0.02149041 -0.02133657 -0.02119087 -0.02105067 -0.02091905
 -0.02078926 -0.02065582 -0.02051387 -0.02035772 -0.02018802 -0.02000229 -0.01980774 -0.01960464 -0.0194056 -0.01921321
 -0.01903632 -0.01887763 -0.01872992 -0.01859322 -0.01845142 -0.01830408 -0.01815025 -0.01799171 -0.01784565 -0.01771153
 -0.01759762 -0.01749815 -0.01739932 -0.01729816 -0.01717979 -0.01704986 -0.01690987 -0.01676592 -0.01662612 -0.01648919
 -0.01635725 -0.01622625 -0.01609403 -0.01596083 -0.01582598 -0.01569165 -0.01555866 -0.0154253 -0.01529181 -0.01515315
 -0.01500893 -0.01485597 -0.01469422 -0.01452597 -0.01435158 -0.0141755 -0.01399767 -0.01381966 -0.01364182 -0.01346549
 -0.01329239 -0.0131274 -0.01297002 -0.01282351 -0.0126813 -0.01253855 -0.01238877 -0.01222376 -0.01204833 -0.01186
 -0.01167463 -0.01149661 -0.01133776 -0.0112033 -0.01108717 -0.01099073 -0.01089352 -0.010794 -0.01067722 -0.01054283
 -0.01039629 -0.01023937 -0.01009104 -0.009952187 -0.009837992 -0.009745738 -0.009676819 -0.009624118 -0.009574737 -0.009520394
 -0.009441828 -0.009339849 -0.009204989 -0.009050665 -0.008883066 -0.008713158 -0.008549934 -0.008389913 -0.008233621 -0.008077669
 -0.007919647 -0.007768867 -0.007626227 -0.007499664 -0.007390369 -0.007293052 -0.007207421 -0.007125967 -0.007048453 -0.006970734
 -0.006891421 -0.006801048 -0.006698833 -0.006574561 -0.006434813 -0.006286137 -0.00614059 -0.006020488 -0.005928034 -0.005879377
 -0.005854773 -0.005849383 -0.005833328 -0.005787853 -0.00570741 -0.005579793 -0.005437643 -0.005284815 -0.005154211 -0.005054017
 -0.004975382 -0.004919219 -0.004855401 -0.004782827 -0.004697131 -0.004599913 -0.004507667 -0.004418827 -0.004334071 -0.004249872
 -0.004153499 -0.004047208 -0.003929361 -0.003803839 -0.003677214 -0.003547662 -0.003415669 -0.003279327 -0.003135389 -0.002989826
 -0.002842931 -0.002706486 -0.002584814 -0.002484116 -0.00240931 -0.00234615 -0.002295533 -0.002225113 -0.002132032 -0.001996886
 -0.001819091 -0.001613004 -0.001380968 -0.001152758 -0.0009289317 -0.0007285493 -0.0005488866 -0.0003923968 -0.0002537449 -0.0001227714
 4.476405E-06 0.0001411225 0.0002805072 0.0004228293 0.0005546263 0.000663111 0.0007507854 0.0008119041 0.0008658204 0.0009204696
 0.0009768795 0.001040086 0.001086218 0.00111086 0.0011107 0.001083191 0.001064443 0.001056208 0.00109007 0.001163973
 0.001267503 0.001395463 0.001513776 0.001622682 0.001702037 0.001761949 0.001813254 0.001868164 0.001952777 0.002065674
 0.002217794 0.002396352 0.002593888 0.0028062 0.003029329 0.00326223 0.00350983 0.003742322 0.003954336 0.004120324
 0.004230977 0.00431563 0.004375305 0.004446655 0.00453139 0.004640587 0.004772879 0.00491851 0.005073661 0.005213963
 0.00533514 0.005408233 0.005436259 0.005408581 0.005337779 0.005239641 0.005120399 0.004995632 0.00485787 0.004704463
 0.004535474 0.004346206 0.004153572 0.003961881 0.003785414 0.003628745 0.003496604 0.003390348 0.003312087 0.003262807
 0.003232514 0.00322055 0.003200215 0.003170611 0.003111772 0.003026299 0.00291699 0.002788789 0.002658099 0.002531265
 0.002430799 0.002359144 0.002335978 0.002343334 0.002374565 0.002397972 0.002382437 0.002327274 0.002216109 0.00208597
 0.001944526 0.00182687 0.001742097 0.001713738 0.001747365 0.001851055 0.002028721 0.002239292 0.002480493 0.00268111
 0.002841337 0.002939607 0.002984465 0.003013355 0.003030762 0.00307278 0.00313547 0.003229667 0.003344815 0.003473857
 0.003595142 0.003682286 0.003721465 0.003683413 0.003599486 0.003469257 0.003354125 0.003278488 0.003268879 0.003342448
 0.003470872 0.003654709 0.003848744 0.004048608 0.004227659 0.004384422 0.004522533 0.004643723 0.00477165 0.004905283
 0.00505321 0.005208046 0.005347418 0.005468917 0.005553163 0.005608359 0.005640326 0.00565268 0.005653414 0.005638349
 0.00560433 0.00555633 0.005494892 0.005428773 0.005362814 0.005294699 0.005223892 0.005152446 0.005079266 0.005017973
 0.004970297 0.004936734 0.004917359 0.004902031 0.004891296 0.004890591 0.004899797 0.004923736 0.004956235 0.004976749
 0.004983325 0.004957384 0.004909776 0.004849793 0.004786522 0.00473512 0.00469591 0.00467366 0.004667772 0.004681453
 0.004704748 0.004738335 0.004758022 0.004756577 0.004726384 0.004662287 0.004586581 0.00450079 0.004423702 0.004356399
 0.004294917 0.004238393 0.004175395 0.004104544 0.004011406 0.003896454 0.003749228 0.0035809 0.003411297 0.003252567
 0.003140523 0.003060526 0.003012838 0.002973569 0.002915652 0.002853099 0.00278164 0.002733456 0.002726247 0.002749636
 0.002809253 0.002863703 0.002904715 0.002923437 0.002916005 0.002915641 0.002924053</values></Ydata></AB><ScSm><Ydata ylabel="Single channel"><values byteorder="INTEL" format="FLOAT32" numvalues="1814"> 0.07845851 0.07848654 0.07857361 0.07873987 0.07895765 0.07916761 0.07932058 0.07940994 0.0794545 0.07945848
 0.07942235 0.07939379 0.07945951 0.07965948 0.07992948 0.08014262 0.08021026 0.0801622 0.08013351 0.08023222
 0.08039404 0.08040161 0.0800909 0.07953826 0.07900852 0.07870913 0.07866064 0.07885298 0.07937717 0.08017661
 0.08076647 0.0805833 0.07969899 0.07884867 0.07861263 0.07885799 0.07908918 0.07901429 0.07863186 0.07812365
 0.07790786 0.07852226 0.08009683 0.08192608 0.0827243 0.08143061 0.0779608 0.0734604 0.06989443 0.0689947
 0.07103212 0.07445447 0.07705386 0.07773185 0.07702729 0.07600622 0.07512264 0.07435049 0.07390067 0.07424641
 0.07545714 0.07676993 0.07697981 0.07545409 0.07288833 0.07083289 0.07029185 0.07108299 0.07264739 0.07465667
 0.07617609 0.07518755 0.07057258 0.06462505 0.06202867 0.06540338 0.07251175 0.07846452 0.08007614 0.07761523
 0.07335682 0.06970206 0.06830986 0.06963968 0.07282857 0.07641886 0.07926309 0.08058681 0.07978809 0.07695544
 0.0733757 0.07090224 0.07081641 0.07334045 0.07759158 0.08163907 0.08337849 0.08209948 0.07896172 0.07575621
 0.07372137 0.07356004 0.07561033 0.07947499 0.08400913 0.08800761 0.09070499 0.09181581 0.09156916 0.09057324
 0.08935926 0.08830206 0.08795422 0.08870001 0.08986188 0.08996549 0.0883573 0.08608346 0.08480898 0.08509467
 0.08595222 0.08604106 0.08501895 0.08329912 0.08071192 0.07652193 0.07109952 0.06632638 0.06370877 0.06324897
 0.06459166 0.06760305 0.07102042 0.07236047 0.07063529 0.06809061 0.06795295 0.07098753 0.07512133 0.07800789
 0.07920006 0.07997696 0.08168162 0.0843351 0.0864599 0.08618362 0.08309734 0.07930201 0.07792399 0.08004726
 0.08367659 0.08619869 0.08714068 0.08786901 0.0892107 0.0901763 0.08898431 0.08516584 0.08071624 0.0788758
 0.08131042 0.08644354 0.09059179 0.09068564 0.08633744 0.07995374 0.07486047 0.07299392 0.07435885 0.07827856
 0.08414542 0.0907793 0.09613214 0.09843115 0.09747131 0.0945073 0.09082668 0.0865579 0.08135901 0.07641108
 0.07465285 0.07798824 0.08483906 0.09146522 0.09530498 0.09624483 0.09514419 0.09223624 0.08738526 0.08165462
 0.07781912 0.07820579 0.08189739 0.08526147 0.08576474 0.0842782 0.08318867 0.083397 0.08399419 0.08413653
 0.08424214 0.08529957 0.087485 0.08979753 0.09104607 0.0909384 0.09012721 0.08943697 0.08911096 0.0886403
 0.08748332 0.08615819 0.0861682 0.08835569 0.09174214 0.0945348 0.09591808 0.09633809 0.09630845 0.09551106
 0.0932685 0.0898387 0.08692967 0.0864279 0.08856943 0.09180001 0.09438922 0.0956685 0.09584846 0.09538534
 0.09467702 0.09393771 0.09326963 0.09294701 0.0933443 0.09440318 0.09551303 0.09612489 0.09620194 0.09594761
 0.09541354 0.09457032 0.09358455 0.09283499 0.09264311 0.09303018 0.09375295 0.09452426 0.09511798 0.09533358
 0.09506893 0.09446827 0.09383538 0.09335995 0.09305145 0.09292294 0.09305454 0.09343228 0.09386881 0.09415819
 0.09423864 0.09416661 0.09399997 0.09375635 0.09345372 0.09315548 0.09297018 0.09298092 0.09314923 0.09333342
 0.09345019 0.093559 0.09371915 0.09383617 0.09375849 0.09348696 0.09318908 0.09301917 0.09299558 0.09304068
 0.0930656 0.0929878 0.09272471 0.09226332 0.09175786 0.09147562 0.09158109 0.09201165 0.09257992 0.09311572
 0.09349455 0.09365136 0.09363177 0.09355225 0.09346677 0.09332751 0.09309329 0.09283112 0.09269454 0.09280609
 0.09314635 0.09356059 0.09388663 0.09405902 0.09410159 0.09408978 0.09412602 0.09426089 0.0944126 0.09444132
 0.09432477 0.0941949 0.09418237 0.09427468 0.09434672 0.09430756 0.09420094 0.0941557 0.09424365 0.09441349
 0.09457062 0.09468693 0.09480885 0.09497327 0.0951333 0.09518155 0.09506493 0.09486271 0.09471034 0.09465794
 0.09465829 0.09468304 0.09477342 0.09495366 0.0951554 0.09527373 0.09528063 0.09524843 0.09525666 0.0952981
 0.09529674 0.09520626 0.09506331 0.09494439 0.09489687 0.0949164 0.0949651 0.09499733 0.09498043 0.09490819
 0.09480003 0.09468339 0.0945748 0.09448428 0.09444055 0.09448802 0.09462992 0.09478033 0.09481097 0.09466709
 0.09442578 0.09422378 0.09413026 0.09409785 0.09403229 0.09389108 0.09370796 0.09354079 0.09341861 0.0933347
 0.09326749 0.09320286 0.09315367 0.09316385 0.0932702 0.09344161 0.0935747 0.09358014 0.09347035 0.09334087
 0.09327376 0.09328084 0.09332706 0.09337832 0.09343082 0.09351188 0.09364035 0.09377967 0.09386075 0.09386465
 0.09385064 0.09389306 0.0940232 0.09423137 0.09447566 0.09468161 0.09478654 0.09480567 0.09482073 0.09489201
 0.09501112 0.09514461 0.09528602 0.0954468 0.095625 0.095811 0.09601564 0.09626844 0.09658252 0.09693021
 0.09725747 0.09752218 0.0977267 0.09792259 0.09817943 0.09853376 0.09895803 0.09938048 0.09974261 0.100044
 0.1003297 0.1006351 0.1009547 0.1012759 0.1016199 0.1020203 0.1024706 0.1029238 0.1033453 0.1037408
 0.1041332 0.1045337 0.104943 0.1053666 0.1058217 0.1063206 0.1068408 0.1073215 0.1077103 0.1080154
 0.1083015 0.1086414 0.1090694 0.1095562 0.1100115 0.1103483 0.110575 0.1108006 0.111117 0.1114998
 0.1118657 0.1122003 0.1125757 0.1130406 0.113544 0.1139892 0.1143352 0.1146265 0.1149311 0.1152655
 0.115582 0.1158281 0.1160109 0.1161888 0.1164056 0.1166614 0.1169569 0.117324 0.1177779 0.1182642
 0.1186958 0.1190316 0.1192906 0.1195077 0.1197075 0.119905 0.1201007 0.120283 0.120454 0.1206315
 0.1208137 0.1209738 0.1211103 0.1212684 0.1214892 0.1217696 0.1220921 0.1224609 0.122874 0.1232904
 0.12367 0.1240392 0.1244645 0.1249487 0.1253971 0.1257162 0.1259118 0.1260568 0.1261957 0.1263366
 0.1265143 0.1267916 0.1271873 0.1276473 0.1281025 0.1285272 0.1289332 0.1293292 0.1296975 0.1300015
 0.1302131 0.1303379 0.1304196 0.1305202 0.1306933 0.1309559 0.1312743 0.1315824 0.1318243 0.1319723
 0.132009 0.131925 0.1317574 0.1315987 0.1315224 0.131498 0.1314054 0.1311377 0.1306695 0.1300303
 0.1292488 0.1283471 0.1273742 0.1264204 0.1255887 0.1249587 0.1245777 0.1244807 0.1247005 0.1252345
 0.1260012 0.1268497 0.1276257 0.1282141 0.1285228 0.1284711 0.1280345 0.1272847 0.1263572 0.1253842
 0.1244599 0.1236296 0.1228849 0.1221982 0.1216014 0.1212279 0.1212586 0.1218289 0.1229862 0.1246872
 0.1267916 0.1290659 0.131252 0.1331737 0.1347908 0.1361557 0.1373417 0.138416 0.1394408 0.1404465
 0.141407 0.1422727 0.1430319 0.1437159 0.1443515 0.1449324 0.1454333 0.145832 0.1461268 0.1463461
 0.1465288 0.1466843 0.1467922 0.1468507 0.1468968 0.1469559 0.1469925 0.1469287 0.1467033 0.1463072
 0.1457919 0.1452812 0.1449808 0.1451467 0.145986 0.147534 0.1496084 0.1518967 0.1541026 0.1560294
 0.1575811 0.158749 0.1596047 0.1602659 0.1608374 0.1613798 0.1619177 0.1624554 0.1629844 0.163494
 0.1639817 0.1644568 0.164936 0.1654283 0.1659196 0.1663781 0.1667896 0.1671822 0.1676073 0.1680923
 0.1686133 0.169119 0.1695848 0.1700358 0.1705023 0.1709651 0.1713758 0.1717241 0.1720546 0.1724184
 0.1728366 0.1733017 0.1737818 0.1742255 0.1745947 0.1748987 0.1751828 0.1754847 0.1758133 0.1761624
 0.176525 0.1768933 0.1772582 0.1776184 0.1779858 0.1783675 0.1787423 0.1790717 0.1793412 0.1795813
 0.1798377 0.1801296 0.1804426 0.180753 0.1810553 0.1813714 0.1817304 0.182133 0.1825384 0.182895
 0.1831841 0.1834297 0.1836709 0.1839325 0.1842187 0.1845221 0.1848322 0.1851382 0.1854343 0.1857263
 0.1860277 0.1863463 0.1866753 0.187002 0.1873198 0.1876298 0.1879344 0.1882337 0.1885324 0.1888473
 0.1891984 0.1895848 0.1899733 0.1903195 0.1906018 0.1908321 0.1910411 0.1912588 0.1915026 0.1917723
 0.192057 0.1923464 0.192636 0.1929248 0.1932132 0.1935048 0.1938025 0.1941054 0.1944087 0.1947082
 0.1950041 0.1953029 0.1956126 0.1959313 0.1962458 0.1965436 0.1968248 0.1971001 0.1973796 0.1976662
 0.1979532 0.1982315 0.1985008 0.1987714 0.1990528 0.1993426 0.1996299 0.1999066 0.2001737 0.2004397
 0.2007122 0.200993 0.2012781 0.2015614 0.201839 0.2021131 0.2023903 0.2026733 0.2029567 0.2032343
 0.2035075 0.203782 0.2040619 0.2043487 0.2046405 0.2049297 0.2052068 0.2054683 0.2057176 0.2059634
 0.2062172 0.2064869 0.2067695 0.2070548 0.2073351 0.2076106 0.2078858 0.2081633 0.2084408 0.2087161
 0.2089932 0.2092783 0.2095688 0.2098554 0.2101357 0.2104151 0.2106975 0.210984 0.2112758 0.2115717
 0.2118669 0.2121578 0.2124441 0.2127261 0.213005 0.2132805 0.213548 0.2138034 0.2140507 0.214296
 0.2145412 0.2147895 0.215047 0.2153112 0.2155715 0.2158248 0.2160796 0.2163446 0.216621 0.2169035
 0.2171838 0.2174578 0.2177304 0.218007 0.2182855 0.2185629 0.2188389 0.2191128 0.2193865 0.2196667
 0.2199532 0.2202346 0.2205055 0.2207744 0.2210488 0.2213286 0.2216133 0.2219012 0.2221855 0.222464
 0.2227414 0.2230184 0.2232906 0.2235574 0.2238204 0.2240811 0.2243458 0.2246202 0.224899 0.2251759
 0.225454 0.2257333 0.2260067 0.2262754 0.2265484 0.2268239 0.2270945 0.2273625 0.2276309 0.2278969
 0.2281654 0.2284448 0.2287276 0.2290009 0.2292659 0.2295285 0.2297882 0.2300474 0.2303056 0.2305379
 0.2306832 0.2305957 0.2299132 0.2279194 0.22353 0.2155089 0.2029607 0.1858973 0.1654342 0.1433937
 0.1216371 0.1015854 0.08408023 0.06948879 0.05788189 0.04915471 0.04310771 0.03957136 0.03853078 0.04025878
 0.0454695 0.05489789 0.06769386 0.08000496 0.08648818 0.08453894 0.07677957 0.06866024 0.06393118 0.06284699
 0.06380445 0.06544243 0.06733009 0.06971017 0.07300054 0.07731653 0.08245584 0.08842002 0.09565872 0.1044979
 0.1144677 0.1245046 0.1338639 0.1426989 0.1516981 0.1612526 0.1710432 0.1803542 0.1886412 0.1958001
 0.2020556 0.2077166 0.2130042 0.2180218 0.2228099 0.2273518 0.2314811 0.2348437 0.2370655 0.2380389
 0.2380574 0.2376508 0.2372729 0.2371265 0.2372247 0.2375313 0.2380208 0.2386732 0.2394674 0.2403783
 0.2413669 0.2423888 0.243411 0.2444093 0.2453607 0.2462486 0.2470663 0.2478108 0.2484832 0.2490937
 0.2496525 0.2501639 0.2506327 0.2510687 0.2514814 0.2518795 0.2522718 0.2526562 0.2530128 0.253321
 0.2535784 0.2538021 0.2540167 0.2542421 0.2544811 0.2547199 0.2549463 0.2551622 0.2553772 0.2555964
 0.2558196 0.2560439 0.2562658 0.2564841 0.2566983 0.2569046 0.2570981 0.2572826 0.2574694 0.2576674
 0.2578769 0.2580931 0.2583076 0.2585138 0.2587113 0.2589048 0.2590994 0.2592995 0.2595055 0.2597111
 0.2599137 0.2601236 0.2603537 0.2605996 0.2608459 0.2610841 0.2613146 0.2615385 0.2617607 0.2619872
 0.2622097 0.2624043 0.262559 0.2626943 0.2628505 0.2630532 0.2632901 0.2635234 0.2637293 0.263917
 0.264107 0.2643076 0.2645146 0.2647171 0.2649056 0.2650927 0.265311 0.2655718 0.2658459 0.2661039
 0.2663472 0.2665874 0.2668284 0.2670756 0.2673274 0.2675534 0.2677207 0.267849 0.2680164 0.268295
 0.2686782 0.269077 0.2694018 0.2696434 0.2698593 0.2701033 0.2703941 0.2707015 0.2709239 0.2709567
 0.2708538 0.2708519 0.2711517 0.2717177 0.2723472 0.2728783 0.2732817 0.2736045 0.2738864 0.2741191
 0.2742547 0.274261 0.2741982 0.2742358 0.2745353 0.2750818 0.2756807 0.276153 0.2764736 0.2767018
 0.2768834 0.2770437 0.2771435 0.2770199 0.2765599 0.2759975 0.2758485 0.276412 0.2774391 0.2783999
 0.2790048 0.2793505 0.2796299 0.2798918 0.2800954 0.2801467 0.2797776 0.2787046 0.2771836 0.2761579
 0.2764717 0.2780145 0.2798941 0.2813317 0.2821513 0.2825643 0.2828141 0.2830182 0.2830867 0.2827376
 0.2818092 0.2806762 0.2801551 0.2807515 0.282088 0.2833093 0.2839571 0.2842073 0.2844011 0.2846621
 0.2848165 0.2843549 0.282719 0.2801288 0.2779978 0.277941 0.2802001 0.2833529 0.2857228 0.2868193
 0.2872045 0.2872595 0.2866213 0.2848336 0.2820215 0.2788342 0.2762704 0.2755628 0.277351 0.2806455
 0.2833928 0.2845075 0.2847815 0.2855461 0.2870727 0.2885823 0.2892738 0.2889504 0.2878668 0.2862759
 0.2843126 0.2824298 0.2816498 0.2828307 0.2856223 0.2885967 0.2905709 0.291504 0.2918715 0.2912782
 0.288183 0.2817634 0.2742313 0.2702055 0.2726198 0.279646 0.2866549 0.290763 0.2923919 0.2930856
 0.2934659 0.2930655 0.2905732 0.2845276 0.275594 0.268032 0.2668175 0.2727074 0.281379 0.2874801
 0.2883126 0.2841241 0.2770922 0.2706375 0.2680365 0.2704539 0.2764498 0.2833972 0.2890506 0.292152
 0.2924206 0.2904263 0.2875279 0.28554 0.2854267 0.2858634 0.284241 0.2799844 0.2755415 0.2727737
 0.2700288 0.2651443 0.2601984 0.2601028 0.2662399 0.2741797 0.2786868 0.279022 0.2779247 0.2765896
 0.2725638 0.2632521 0.2508393 0.2423033 0.243313 0.2523668 0.2621602 0.2667423 0.2662283 0.2646037
 0.2643934 0.2640974 0.2603199 0.2522328 0.243741 0.2401654 0.2425499 0.2467215 0.2481818 0.2456525
 0.2393952 0.2297734 0.219905 0.2165312 0.2242558 0.2398541 0.2548679 0.2625954 0.2604468 0.2482853
 0.2293608 0.2123393 0.2070688 0.215713 0.2301072 0.2393048 0.2382336 0.2284623 0.213513 0.1965548
 0.1819458 0.1755087 0.1809586 0.1961885 0.21351 0.2234602 0.2199483 0.2049897 0.1891417 0.1838761
 0.1911155 0.2019565 0.2067007 0.2036735 0.1976792 0.1937768 0.1943904 0.1990804 0.2050134 0.2095582
 0.212366 0.2123867 0.2050094 0.1876135 0.166973 0.1548333 0.1556897 0.1643801 0.1755207 0.1883726
 0.2008831 0.206315 0.2008838 0.1910297 0.1880096 0.1959397 0.2082317 0.2156422 0.2154147 0.2118181
 0.2094619 0.2083336 0.2061409 0.2037029 0.2051057 0.2121183 0.2211441 0.2272391 0.2292425 0.2293479
 0.229359 0.2293244 0.2287969 0.2276347 0.2259051 0.2239928 0.2224901 0.2215116 0.2205859 0.2193713
 0.2176009 0.2139851 0.2065253 0.1953822 0.1846718 0.1792385 0.1795435 0.181976 0.1841701 0.1863732
 0.1864918 0.1787221 0.1612466 0.1425045 0.1350598 0.14348 0.1609428 0.176964 0.1853804 0.1848388
 0.1756686 0.1601929 0.1454307 0.1409462 0.1510465 0.1706235 0.190595 0.205715 0.2152551 0.2187452
 0.2150308 0.2054061 0.1949314 0.1896099 0.1927126 0.2032551 0.2163377 0.2244735 0.2212259 0.20757
 0.1948161 0.1963454 0.2135589 0.2335396 0.243559 0.2440139 0.2433943 0.2451099 0.245712 0.2440419
 0.2450078 0.2527432 0.2644523 0.2731547 0.2738175 0.2653369 0.2499069 0.2335598 0.22461 0.2269855
 0.2357654 0.2425408 0.2435669 0.2392673 0.2292443 0.2143673 0.2020794 0.2019203 0.2144572 0.230005
 0.2396429 0.2433261 0.2458656 0.248628 0.2479174 0.2406329 0.229491 0.2213551 0.2204395 0.2245965
 0.2288888 0.2307984 0.2302673 0.2267287 0.2194559 0.2108094 0.2062743 0.2096915 0.2192904 0.2293781
 0.2354569 0.2370318 0.2362089 0.2349856 0.2339186 0.2323225 0.2296328 0.2271762 0.2279215 0.2332638
 0.2407331 0.2464997 0.2497621 0.2530205 0.2581519 0.2638088 0.2670467 0.2665318 0.2638077 0.2619567
 0.2631378 0.2668754 0.2704077 0.2710448 0.2687309 0.2663331 0.2670005 0.271167 0.2764905 0.2805274
 0.2827337 0.2839565 0.2849885 0.2858856 0.2859498 0.2842682 0.2810244 0.2782666 0.2784652 0.2820574
 0.2870166 0.2909296 0.2929347 0.2935914 0.293564 0.2929139 0.2914908 0.2895802 0.2879247 0.2871403
 0.2872773 0.2879741 0.2888518 0.2896807 0.2903449 0.2908211 0.291155 0.2913924 0.2915595 0.2917031
 0.2918594 0.2919757 0.2919651 0.2918689 0.2918712 0.2920885 0.2924157 0.2926388 0.2926285 0.2923416
 0.291706 0.2906446 0.2892045 0.2875369 0.2857164 0.2837031 0.2815919 0.279855 0.2791867 0.2799949
 0.2820347 0.2845635 0.286843 0.2884996 0.2895173 0.2900435 0.2902466 0.2902699 0.290212 0.2901099
 0.2899497 0.2897105 0.2893976 0.2890355 0.2886464 0.2882527 0.2878881 0.2875816 0.2873245 0.2870666
 0.286746 0.2863255 0.2858126 0.2852499 0.2846739 0.2840723 0.2833878 0.2825671 0.281604 0.2805425
 0.2794556 0.2784166 0.277464 0.2765755 0.275685 0.2747264 0.2736483 0.2724018 0.2709749 0.2694604
 0.2680335 0.2668144 0.2657742 0.2647911 0.2637586 0.2626229 0.2613667 0.2600023 0.2585643 0.2570828
 0.2555671 0.2540159 0.2524286 0.2508019 0.249126 0.2473909 0.2455936 0.2437387 0.2418368 0.2398975
 0.2379079 0.2358015 0.2334539 0.2307211 0.2274826 0.2236589 0.2192259 0.2142482 0.2088926 0.2033881
 0.1979589 0.1927829 0.18799 0.1836821 0.1799492 0.1768662 0.1744836 0.1728297 0.1719201 0.1717574
 0.1723277 0.173595 0.1754834 0.1778609 0.1805575 0.1834003 0.1862272 0.1888954 0.191317 0.1935003
 0.1955338 0.1975045 0.1994253 0.2012438 0.2029146 0.2044299 0.2057789 0.2069227 0.2078438 0.2085851
 0.2092058 0.2097217 0.2101191 0.2104031 0.2106061 0.2107599 0.2108828 0.2109928 0.2111218 0.2113096
 0.2115829 0.2119492 0.212414 0.2129887 0.2136753 0.2144491 0.215266 0.2160863 0.2169009 0.2177406
 0.2186502 0.2196554 0.2207681 0.2220121 0.2234177 0.2249941 0.2267263 0.2285808 0.2304927 0.2323574
 0.2340588 0.2355098 0.2366697 0.2375374 0.2381347 0.2384924 0.2386459 0.2386326 0.2384828 0.2382196
 0.2378663 0.2374395 0.236938 0.2363524 0.2356822 0.2349351 0.2341241 0.23328 0.2324454 0.2316428
 0.2308626 0.2300918 0.2293367 0.2286158 0.2279383 0.2272913 0.2266469 0.2259851 0.2253057 0.224611
 0.2238904 0.2231282 0.2223113 0.2214217 0.2204416 0.2193673 0.218201 0.2169332 0.2155493 0.2140506
 0.212455 0.2107831 0.2090526 0.2072798 0.2054755 0.2036316 0.2017094 0.1996575 0.1974681 0.195212
 0.1930019 0.1909214 0.1889913 0.1871857 0.1854666 0.1838142 0.1822345 0.180736 0.1793118 0.1779523
 0.1766617 0.175445 0.17429 0.1731782 0.1721106 0.1711195 0.1702489 0.1695132 0.1688783 0.1682976
 0.1677592 0.1672859 0.1669048 0.1666365 0.1664885 0.1664297 0.1663885 0.1662991 0.1661411 0.1659287
 0.1656848 0.165433 0.1652005 0.1650097 0.1648585 0.1647003 0.1644518 0.1640229 0.1633351 0.1623271
 0.1609755 0.1593184 0.15744 0.1554433 0.1534503 0.1515943 0.1499764 0.1486409 0.1475926 0.146807
 0.1462179 0.1457438 0.145347 0.1450611 0.1449538 0.1450414 0.1452215 0.1453241 0.1452731 0.1451781
 0.1452343 0.1455602 0.1461381 0.1468533 0.1475602 0.1481526 0.148595 0.14889 0.149044 0.1490784
 0.1490287 0.1489124 0.1487231 0.1484592 0.1481345 0.1477665 0.1473604 0.1468937 0.1463345 0.145688
 0.1449849 0.1442179 0.1433452 0.1423545 0.1412525 0.1400274 0.1387243 0.1375382 0.136745 0.1365311
 0.136896 0.1376715 0.138634 0.1396394 0.1406044 0.1413464 0.1416316 0.1415431 0.1416667 0.1426675
 0.1446443 0.1470121 0.1490299 0.1503325 0.1509423 0.1509645 0.1504486 0.1494403 0.1479645 0.1459875
 0.1435165 0.14067 0.1375973 0.1344453 0.1314137 0.1286909 0.1263559 0.124428 0.1229235 0.1218924
 0.1214499 0.1211964 0.1192328 0.1131574 0.1037775 0.09675613 0.09785715 0.1064631 0.1160041 0.1208987
 0.1209954 0.119266 0.1177617 0.1168009 0.1162875 0.1163611 0.1171399 0.1184721 0.119958 0.1211863
 0.1219953 0.1224283 0.1224316 0.1216329 0.1193037 0.1146057 0.107263 0.09815334 0.0890079 0.08140692
 0.07608461 0.07294388 0.0713761 0.07061222 0.070108 0.06979549 0.06998156 0.07099137 0.07289758 0.07554746
 0.07873083 0.08218654 0.08550993 0.08829938 0.09045745 0.09217396 0.0935807 0.09458822 0.09507139 0.09504747
 0.09464271 0.0939976 0.09322815 0.09240003 0.091493 0.09042288 0.08917867 0.08796128 0.08708663 0.08668695
 0.08659944 0.0865922 0.08657584 0.08655781 0.08653815 0.08651145 0.08648661 0.0864941 0.08661152 0.08691609
 0.08736711 0.08780571 0.08809775 0.08822966 0.08827333 0.08826916 0.08811563 0.08765105 0.08693606 0.08629551
 0.08588716 0.0854024 0.08446431 0.08320504 0.08218513 0.08180161 0.0819688 0.08231655 0.08251736 0.08244745
 0.0822166 0.08211409 0.0823945 0.08297835</values></Ydata></ScSm><ScRf><Ydata ylabel="Single channel"><values byteorder="INTEL" format="FLOAT32" numvalues="1820"> 0.06058064 0.06073136 0.06082498 0.06086482 0.06087522 0.06089589 0.06096647 0.06110255 0.06128247 0.06145672
 0.06157941 0.06163967 0.0616557 0.06164093 0.06160175 0.06157215 0.0616128 0.0617517 0.06194163 0.06209008
 0.06213303 0.06209344 0.06207141 0.06214616 0.06226689 0.062266 0.06201585 0.0615738 0.06114567 0.06089729
 0.06085026 0.06099869 0.0614122 0.06204581 0.0625198 0.06238769 0.06169609 0.06101722 0.0608132 0.06099046
 0.06116397 0.06110167 0.06079966 0.06040004 0.06022928 0.06070522 0.06192704 0.06334385 0.06395471 0.06293532
 0.06022172 0.05670569 0.05391623 0.05320258 0.05477957 0.05744204 0.05946913 0.06000029 0.0594537 0.05866383
 0.05798643 0.05739391 0.05703936 0.05728994 0.05821171 0.05922363 0.05938765 0.05819907 0.05618868 0.05456376
 0.05411418 0.05470532 0.05590476 0.05745761 0.05863845 0.05787955 0.05430997 0.04970737 0.04770554 0.05033712
 0.05586316 0.06048455 0.06172745 0.05980776 0.05650291 0.05367872 0.05260982 0.05363786 0.05609196 0.05885253
 0.06104044 0.06205832 0.06143741 0.05924244 0.0564669 0.05454531 0.05447278 0.05642536 0.05972 0.0628565
 0.06419767 0.06318995 0.06073672 0.05823586 0.05665316 0.05652988 0.05812097 0.06111699 0.06463385 0.06773694
 0.06982636 0.07067589 0.07046792 0.06968599 0.06874985 0.06794545 0.06768875 0.0682698 0.06916533 0.06923679
 0.06797808 0.0662003 0.06519829 0.06541057 0.06606942 0.06613202 0.06533373 0.0639982 0.06199323 0.05874376
 0.05453527 0.05083249 0.04881082 0.04847279 0.04953748 0.05189751 0.0545737 0.05563575 0.05430519 0.05231539
 0.05217718 0.0545035 0.05769797 0.0599359 0.06085988 0.06145777 0.06277414 0.06482966 0.06648023 0.06627049
 0.06387509 0.06091658 0.0598227 0.06144612 0.06425009 0.06621028 0.06695696 0.0675464 0.06861645 0.06939535
 0.06849963 0.06556851 0.06215064 0.06075001 0.06264494 0.06661207 0.06981233 0.0698832 0.06652596 0.06159775
 0.0576711 0.05624568 0.05732561 0.06039216 0.06498717 0.07020632 0.07445711 0.07634095 0.07566819 0.0733985
 0.07054617 0.06723671 0.06321474 0.05939296 0.0580556 0.06069363 0.06608724 0.07132334 0.07439929 0.07521652
 0.07443161 0.07221225 0.06844705 0.06398083 0.06101521 0.06139822 0.06440704 0.06716022 0.06763832 0.06652183
 0.06570678 0.06592193 0.06645845 0.06665103 0.06683154 0.06778371 0.06964287 0.07160446 0.07271 0.07271788
 0.07214668 0.07166187 0.07146712 0.07115905 0.07030788 0.06934087 0.06947394 0.07137392 0.07422808 0.07657488
 0.07776343 0.07817771 0.07825018 0.07771559 0.07599942 0.07329623 0.07100777 0.07069632 0.07256627 0.07533777
 0.07757926 0.07873987 0.07900172 0.07874675 0.07829972 0.07783264 0.07742883 0.07730962 0.07777156 0.07875827
 0.07977167 0.08037168 0.08053409 0.08042281 0.08007492 0.07946837 0.07875143 0.07824735 0.07822064 0.07867499
 0.07939631 0.08014854 0.08075469 0.08104931 0.08093575 0.08052751 0.0800879 0.07979012 0.07964633 0.07966293
 0.07990347 0.08035359 0.08084902 0.08120778 0.0813751 0.08140367 0.08134875 0.08122662 0.08105221 0.08088541
 0.08082814 0.08094931 0.08119933 0.08144592 0.08163013 0.08182638 0.08209021 0.08231795 0.0823521 0.08218831
 0.08198833 0.08190304 0.08195064 0.08205858 0.08214927 0.0821543 0.08200228 0.08168018 0.08132136 0.08115719
 0.08133227 0.08180247 0.08241628 0.08301975 0.08347894 0.08371382 0.08376057 0.08373123 0.08368355 0.08358438
 0.08340821 0.08322193 0.0831595 0.08332357 0.08369731 0.08414741 0.08452522 0.08475889 0.08486137 0.084906
 0.08499667 0.08518364 0.08538677 0.08547077 0.08541603 0.08535188 0.08539946 0.08553298 0.08562268 0.08558974
 0.08549446 0.08547118 0.08558889 0.08579404 0.08598904 0.08614176 0.08630218 0.08651704 0.08673865 0.08684078
 0.08675115 0.08655002 0.08639111 0.08633873 0.08634441 0.08637508 0.08647685 0.08667992 0.08690788 0.08704159
 0.08705336 0.08703174 0.08706796 0.08714876 0.08717913 0.0870938 0.08692384 0.08676083 0.08667952 0.08669399
 0.08676298 0.08682217 0.08682308 0.08675858 0.08665797 0.08655618 0.08647136 0.08641993 0.08644453 0.08659337
 0.08684575 0.08707494 0.08712572 0.08695096 0.0866641 0.0864421 0.08637001 0.08637959 0.08633535 0.08616873
 0.0859241 0.08569184 0.08552285 0.08540888 0.08531874 0.0852364 0.08517823 0.0851871 0.08528984 0.08543764
 0.08550837 0.08540763 0.08516584 0.08490843 0.08473863 0.0846734 0.08467047 0.08467862 0.0846752 0.08468541
 0.08474663 0.08483604 0.08487007 0.08480193 0.08468406 0.08461556 0.08466198 0.0848285 0.08505572 0.08523086
 0.08526202 0.08516826 0.0850621 0.08503267 0.08507826 0.08515295 0.08523367 0.08532393 0.08542509 0.08553346
 0.08565783 0.0858207 0.08603604 0.08628701 0.08652662 0.08670643 0.08681758 0.08690904 0.08705662 0.08730266
 0.08762112 0.08794018 0.08820002 0.08839513 0.08856489 0.08874543 0.08893974 0.08914153 0.08936901 0.08964776
 0.0899674 0.09028488 0.09057254 0.09084055 0.09111185 0.09139527 0.09168795 0.09199519 0.09234136 0.09274849
 0.09318991 0.09357942 0.09383745 0.09397218 0.0940798 0.09426845 0.09458363 0.09497733 0.09533072 0.09554275
 0.09563191 0.09572628 0.09592324 0.0961892 0.09643581 0.09666264 0.09696378 0.09739293 0.09787314 0.09826396
 0.09849712 0.09862857 0.09876482 0.09895143 0.09914095 0.09926881 0.09934174 0.09942682 0.0995644 0.09973711
 0.09993574 0.100202 0.1005672 0.1009826 0.101356 0.1016387 0.1018441 0.1020034 0.1021327 0.1022307
 0.1022845 0.1022937 0.1022979 0.1023511 0.1024553 0.1025526 0.1026018 0.1026317 0.1027024 0.1028445
 0.103057 0.103332 0.103646 0.1039482 0.1042035 0.1044476 0.1047506 0.10511 0.1054226 0.1055957
 0.1056529 0.1056863 0.1057388 0.105792 0.1058515 0.1059737 0.1061976 0.1064969 0.106819 0.1071406
 0.1074688 0.1078057 0.1081233 0.1083675 0.1084913 0.1084954 0.1084404 0.108418 0.1085031 0.108718
 0.1090228 0.1093427 0.1096143 0.1098045 0.109893 0.1098736 0.1097939 0.1097625 0.1098644 0.1100642
 0.110223 0.1102147 0.1100058 0.109628 0.109116 0.1084961 0.1078168 0.1071601 0.10661 0.1062155
 0.1059925 0.1059612 0.1061623 0.1066129 0.1072504 0.1079507 0.1086037 0.1091398 0.1094813 0.1095266
 0.1092256 0.1086439 0.1079213 0.1071825 0.1064972 0.1058823 0.1053083 0.1047385 0.1042116 0.1038773
 0.103924 0.1044673 0.1054958 0.1068819 0.108418 0.1098785 0.1111071 0.1120761 0.1128617 0.113557
 0.1142143 0.1148592 0.1155174 0.1161945 0.1168469 0.1174147 0.1178868 0.1183063 0.1187111 0.1190974
 0.1194384 0.1197171 0.1199433 0.1201501 0.1203617 0.1205523 0.1206597 0.1206545 0.1205749 0.1204764
 0.1203693 0.1202167 0.1199727 0.1196172 0.1191866 0.1187983 0.1186327 0.1188556 0.1195267 0.1205666
 0.1218142 0.1231219 0.124393 0.1255445 0.1264855 0.1271647 0.1276201 0.127948 0.1282324 0.1285166
 0.128816 0.1291291 0.1294414 0.1297373 0.1300147 0.1302881 0.1305808 0.1309043 0.1312374 0.1315372
 0.1317833 0.1320091 0.1322776 0.1326233 0.1330163 0.1333905 0.1337128 0.134014 0.1343348 0.1346575
 0.1349238 0.1351134 0.1352743 0.135474 0.1357484 0.136091 0.1364583 0.1367867 0.1370346 0.1372195
 0.1373974 0.1376055 0.1378387 0.138077 0.1383154 0.138561 0.1388173 0.139087 0.1393785 0.1396913
 0.1399936 0.1402374 0.1404069 0.1405417 0.1406982 0.1408969 0.1411141 0.1413182 0.1415067 0.1417115
 0.1419693 0.1422803 0.1425954 0.1428529 0.1430314 0.1431609 0.1432865 0.1434337 0.1436069 0.1438039
 0.144019 0.1442399 0.1444552 0.1446652 0.1448799 0.1451042 0.1453309 0.1455477 0.1457499 0.1459431
 0.1461362 0.1463339 0.1465413 0.1467718 0.14704 0.147339 0.147631 0.1478735 0.1480538 0.1481928
 0.1483204 0.1484568 0.1486128 0.1487926 0.1489914 0.1491978 0.1494024 0.1496019 0.1497973 0.1499914
 0.1501888 0.1503942 0.1506091 0.1508295 0.1510517 0.1512796 0.1515179 0.1517583 0.1519811 0.1521753
 0.1523505 0.1525251 0.152711 0.1529094 0.1531123 0.1533088 0.1534961 0.1536832 0.153878 0.1540781
 0.1542762 0.1544702 0.1546616 0.1548511 0.1550408 0.1552344 0.1554312 0.1556247 0.1558094 0.155988
 0.156171 0.156368 0.1565782 0.1567911 0.1569962 0.1571922 0.1573864 0.1575866 0.1577946 0.1580043
 0.1582073 0.1583998 0.1585871 0.1587795 0.1589817 0.159186 0.1593808 0.1595652 0.1597497 0.1599433
 0.1601466 0.1603557 0.1605669 0.1607789 0.1609945 0.1612166 0.1614403 0.1616552 0.1618566 0.1620518
 0.1622533 0.1624698 0.1626995 0.1629306 0.1631525 0.1633656 0.1635777 0.1637918 0.164003 0.1642022
 0.1643819 0.1645437 0.1646992 0.1648588 0.1650248 0.1651958 0.1653731 0.1655568 0.1657463 0.165942
 0.1661438 0.1663474 0.1665508 0.1667561 0.1669617 0.1671626 0.1673579 0.1675519 0.1677504 0.1679583
 0.1681759 0.1683955 0.1686103 0.1688225 0.1690342 0.169242 0.1694453 0.1696503 0.1698589 0.170067
 0.1702714 0.1704721 0.1706709 0.1708748 0.1710901 0.1713119 0.1715298 0.1717403 0.171946 0.1721514
 0.1723626 0.172581 0.1727962 0.1729988 0.1731931 0.1733876 0.1735852 0.1737907 0.1740084 0.1742319
 0.1744532 0.1746728 0.1748902 0.1750994 0.1753044 0.1755192 0.1757459 0.1759746 0.1761981 0.1764131
 0.1766186 0.1768194 0.177017 0.1771949 0.1773115 0.1772581 0.1767533 0.175238 0.1718697 0.1656899
 0.1560075 0.1428375 0.1270482 0.1100475 0.09326564 0.07779203 0.06427573 0.05300666 0.04404784 0.03732106
 0.03266697 0.02994688 0.02914629 0.03047729 0.03449114 0.04175395 0.05161489 0.06111265 0.06612906 0.06464465
 0.0586707 0.05241287 0.04877251 0.0479461 0.04868902 0.04994893 0.05140131 0.05324323 0.05580074 0.05915856
 0.06315149 0.0677738 0.07337423 0.08021198 0.08792831 0.09569804 0.1029413 0.1097787 0.1167518 0.124171
 0.1317871 0.1390367 0.1454934 0.1510804 0.1559753 0.1604105 0.164545 0.1684554 0.1721834 0.1757292
 0.1789695 0.1816262 0.1834007 0.1841994 0.1842398 0.1839297 0.1836292 0.1835101 0.1835938 0.1838566
 0.1842783 0.1848376 0.1855078 0.1862598 0.1870616 0.1878836 0.1887054 0.1895104 0.1902801 0.1909994
 0.1916627 0.1922697 0.1928259 0.1933438 0.1938325 0.1942907 0.1947134 0.1950993 0.1954508 0.1957751
 0.1960859 0.1963932 0.1966943 0.1969798 0.1972449 0.1974905 0.1977193 0.1979334 0.1981331 0.1983203
 0.1985047 0.1986981 0.1989035 0.1991146 0.1993257 0.1995338 0.1997361 0.1999325 0.2001275 0.2003234
 0.2005176 0.2007109 0.2009087 0.2011125 0.2013166 0.2015164 0.2017122 0.2019054 0.2020959 0.2022838
 0.202471 0.2026606 0.2028544 0.2030511 0.2032525 0.203465 0.2036903 0.2039169 0.2041332 0.2043408
 0.2045474 0.2047531 0.204956 0.2051593 0.2053619 0.2055524 0.2057224 0.2058823 0.2060569 0.2062638
 0.2064937 0.2067165 0.2069125 0.2070936 0.2072842 0.2074893 0.2076915 0.207874 0.208041 0.2082198
 0.2084386 0.2086949 0.2089586 0.2092077 0.2094454 0.2096801 0.2099137 0.2101505 0.210388 0.2106001
 0.2107596 0.210883 0.2110364 0.2112827 0.2116219 0.2119857 0.212301 0.2125544 0.2127849 0.2130308
 0.2133059 0.2135876 0.2137972 0.213852 0.2137929 0.21381 0.2140716 0.2145573 0.215103 0.2155711
 0.2159331 0.2162268 0.2164852 0.2167018 0.2168393 0.2168719 0.2168471 0.216902 0.2171716 0.2176496
 0.2181792 0.2186095 0.2189135 0.2191391 0.2193266 0.2194993 0.2196276 0.2195832 0.2192724 0.2188768
 0.2188104 0.2193199 0.2202041 0.2210258 0.2215454 0.2218508 0.2221131 0.2223768 0.2225988 0.2226904
 0.2224324 0.2216029 0.2204143 0.2196271 0.2199238 0.2212253 0.22282 0.2240714 0.2248164 0.2252117
 0.2254594 0.2256706 0.2257827 0.2255659 0.2248829 0.2240328 0.2236755 0.2242198 0.2253609 0.2264072
 0.2269883 0.2272466 0.2274591 0.2277296 0.2279222 0.2276234 0.226373 0.2243418 0.2226759 0.2226928
 0.2245953 0.22723 0.2292297 0.2301901 0.2305681 0.2306818 0.2302426 0.228877 0.2266771 0.2241614
 0.2221375 0.2216098 0.2231102 0.225851 0.2281703 0.2291723 0.229479 0.2301676 0.2314758 0.2327879
 0.2334513 0.2332928 0.2325141 0.2313243 0.2298337 0.2284007 0.2278472 0.2288755 0.2312171 0.2337235
 0.2354314 0.2362992 0.2367068 0.2363258 0.2338932 0.2287362 0.2226653 0.2194567 0.2215101 0.2273366
 0.2331605 0.2366297 0.2380901 0.2387971 0.2392431 0.2390318 0.2370901 0.2322313 0.2250045 0.2188962
 0.2179844 0.2228985 0.230106 0.2352247 0.2360362 0.232727 0.2270689 0.2218707 0.21984 0.2219521
 0.2270285 0.2328999 0.2377072 0.2404114 0.24078 0.2392757 0.2370144 0.2355014 0.2355461 0.2360567
 0.2348664 0.2314867 0.2279422 0.2257855 0.2236589 0.2197676 0.2158304 0.2159336 0.2212405 0.2280671
 0.2320425 0.2325422 0.2318527 0.2309729 0.2278441 0.2202737 0.2100693 0.2030841 0.2041097 0.2119235
 0.2203937 0.2244904 0.2242812 0.2231208 0.223163 0.2231591 0.2202215 0.213622 0.2066737 0.2039194
 0.206262 0.2101499 0.2117451 0.2099428 0.2049428 0.1970432 0.1889319 0.1864331 0.1935464 0.2075195
 0.2210451 0.2282852 0.2269322 0.2168104 0.2007376 0.1863242 0.1822522 0.1904519 0.2037441 0.2124703
 0.2121211 0.2040325 0.1912884 0.176715 0.164261 0.1592385 0.1650952 0.1799927 0.1969175 0.2070932
 0.2047618 0.1917153 0.1778318 0.1739332 0.1818454 0.1931221 0.1985456 0.1965236 0.1916425 0.1887713
 0.1902936 0.1957977 0.2024902 0.2077904 0.2113705 0.212121 0.2053272 0.1883221 0.1679428 0.1560484
 0.1571984 0.166229 0.1777565 0.1910543 0.2040001 0.2096849 0.2042156 0.1941357 0.190919 0.1987801
 0.2110381 0.2183138 0.2178308 0.2139556 0.2113966 0.2101581 0.2079152 0.2054855 0.2069959 0.2142353
 0.2235717 0.2300078 0.2323574 0.2328197 0.2332099 0.233576 0.2334569 0.2326953 0.2313558 0.2298448
 0.2287938 0.2283405 0.2279991 0.2274031 0.2262657 0.2232211 0.2161183 0.2050448 0.1942743 0.188896
 0.1894117 0.1920468 0.1943435 0.1965876 0.1965843 0.1882127 0.1695172 0.1493192 0.1408052 0.1487924
 0.1661396 0.181868 0.1895814 0.1880118 0.1776909 0.1610804 0.1451945 0.1394738 0.1481091 0.1659917
 0.1841348 0.1974211 0.2052939 0.2074988 0.2030252 0.193095 0.1824714 0.1767802 0.1790278 0.1882099
 0.1997085 0.2065907 0.2029703 0.1897905 0.1774351 0.1781584 0.1932758 0.2110315 0.2198008 0.2198866
 0.2189847 0.2202278 0.2205366 0.2188772 0.2196878 0.2267195 0.237476 0.2456683 0.2467339 0.2396314
 0.2262998 0.2121899 0.2048609 0.2078712 0.2166695 0.2235108 0.2249511 0.2213821 0.2124332 0.1989338
 0.187842 0.1880652 0.2001406 0.2150286 0.2243943 0.2282054 0.2309837 0.2340121 0.2337945 0.2273892
 0.2173631 0.2102253 0.2099871 0.2146304 0.2194813 0.2221395 0.2225016 0.2199415 0.2136983 0.2060514
 0.2023574 0.2063671 0.2163067 0.2265255 0.2325438 0.2338356 0.2324609 0.230405 0.2282665 0.2254476
 0.2214705 0.2176699 0.216938 0.2206446 0.2264623 0.2307574 0.2327528 0.2347966 0.2386724 0.2431493
 0.2454907 0.2444405 0.2414023 0.2392 0.2398087 0.242792 0.2456319 0.245886 0.2435177 0.2411495
 0.2416463 0.2453876 0.2502251 0.253926 0.2559844 0.2571566 0.2581567 0.2590353 0.2591472 0.2576413
 0.2546691 0.252092 0.2521591 0.2552692 0.2595908 0.2629588 0.264623 0.2651073 0.2650108 0.2643895
 0.2631186 0.261458 0.260055 0.2594357 0.2596326 0.260318 0.2611437 0.261893 0.2624649 0.2628574
 0.263131 0.2633265 0.2634513 0.2635392 0.2636358 0.2637095 0.2636792 0.2635691 0.2635423 0.2637144
 0.2639997 0.264206 0.2642145 0.2639871 0.2634606 0.2625623 0.2613285 0.2598968 0.2583463 0.2566507
 0.254894 0.2534908 0.2530535 0.2539393 0.2559227 0.2583319 0.2604944 0.2620648 0.2630284 0.2635317
 0.2637483 0.2638239 0.2638425 0.2638105 0.2636899 0.2634596 0.263142 0.2627775 0.2623939 0.262011
 0.2616566 0.2613558 0.2611006 0.2608418 0.2605205 0.2601089 0.2596249 0.2591096 0.2585874 0.2580414
 0.257422 0.2566853 0.2558273 0.2548904 0.2539454 0.2530615 0.252267 0.2515284 0.2507787 0.2499675
 0.2490676 0.2480483 0.2469008 0.2457068 0.2446277 0.2437783 0.2431251 0.2425295 0.2418654 0.2410814
 0.2401839 0.2392031 0.238171 0.237106 0.2360105 0.2348816 0.2337115 0.2324785 0.231153 0.2297241
 0.2282081 0.226629 0.2250051 0.2233507 0.2216648 0.2198966 0.2179339 0.2156333 0.2128626 0.2095294
 0.2056076 0.2011651 0.1963635 0.1914145 0.1865177 0.1818281 0.1774671 0.1735465 0.1701692 0.1674105
 0.1653124 0.1638964 0.1631729 0.1631433 0.1638035 0.1651358 0.1670852 0.1695381 0.1723333 0.1752926
 0.1782472 0.1810562 0.183635 0.1859804 0.1881532 0.1902097 0.1921456 0.1939158 0.1954963 0.1968987
 0.1981314 0.1991805 0.2000397 0.2007366 0.201315 0.2018059 0.202223 0.2025777 0.2028852 0.2031579
 0.2034004 0.2036168 0.2038183 0.20402 0.2042357 0.2044806 0.2047714 0.2051187 0.2055256 0.2059916
 0.2065079 0.2070561 0.207624 0.2082179 0.208849 0.2095209 0.2102465 0.211064 0.212018 0.2131276
 0.2143774 0.2157277 0.2171209 0.2184786 0.2197081 0.2207277 0.2214971 0.2220204 0.2223217 0.222428
 0.222373 0.222195 0.2219202 0.2215572 0.2211108 0.2205908 0.2200083 0.2193757 0.2187096 0.2180229
 0.2173207 0.2166108 0.2159125 0.2152423 0.214598 0.2139647 0.2133339 0.21271 0.2121014 0.2115114
 0.21094 0.2103877 0.2098508 0.2093155 0.2087605 0.2081653 0.2075108 0.2067772 0.2059507 0.2050306
 0.2040222 0.2029234 0.2017283 0.2004405 0.1990726 0.1976313 0.1961133 0.1945199 0.192866 0.1911592
 0.1893749 0.1874723 0.1854517 0.1833878 0.1813905 0.1795358 0.1778365 0.1762629 0.1747782 0.1733633
 0.1720194 0.1707476 0.1695305 0.1683477 0.1672006 0.1661081 0.1650828 0.1641245 0.1632329 0.1624182
 0.1616947 0.1610651 0.1605158 0.1600328 0.1596165 0.1592736 0.1590112 0.1588476 0.1588034 0.1588611
 0.1589547 0.1590115 0.1589938 0.1589022 0.1587666 0.1586291 0.1585161 0.1584285 0.1583561 0.158275
 0.1581243 0.1578115 0.1572465 0.1563674 0.1551567 0.1536514 0.1519297 0.1500926 0.1482636 0.1465751
 0.1451225 0.1439435 0.1430412 0.1423898 0.1419195 0.1415499 0.1412559 0.141084 0.1410968 0.1412903
 0.1415485 0.1417106 0.1417253 0.1417163 0.141868 0.1422742 0.142901 0.1436374 0.1443625 0.1450007
 0.1455269 0.1459251 0.1461813 0.1463164 0.1463691 0.1463458 0.1462308 0.1460279 0.1457593 0.1454488
 0.1451133 0.1447403 0.1442834 0.1437131 0.143043 0.1422922 0.141467 0.1405704 0.1395729 0.1384229
 0.1371716 0.1360429 0.1353151 0.135157 0.1355693 0.1363999 0.1374283 0.1385038 0.139544 0.1403705
 0.1407433 0.1407278 0.1408968 0.1419277 0.1439567 0.1464269 0.1485857 0.1500327 0.1507648 0.1508836
 0.150454 0.1495375 0.1481512 0.1462367 0.1437991 0.1409815 0.1379378 0.1347909 0.1317385 0.1290069
 0.1267049 0.1248388 0.1233896 0.1223905 0.1219752 0.1217748 0.1198897 0.1138837 0.1045486 0.09758002
 0.09877877 0.1075184 0.117188 0.1221794 0.1223472 0.1206796 0.1192231 0.118272 0.1177236 0.1177405
 0.1184597 0.1197219 0.1211212 0.1222598 0.1229933 0.1233735 0.1233496 0.122536 0.1201728 0.1153991
 0.1079466 0.09872308 0.08949184 0.0818474 0.0765059 0.07333746 0.07172391 0.07091428 0.07038549 0.07008515
 0.07032622 0.07141386 0.07338385 0.07607041 0.07928363 0.08278453 0.08617321 0.0890338 0.09123589 0.09294359
 0.09431 0.09530141 0.09582346 0.0958762 0.09555057 0.09496565 0.0942407 0.09345894 0.09260405 0.09157226
 0.09033864 0.08911368 0.08822486 0.08780441 0.08769123 0.08765799 0.08761392 0.0875683 0.08753026 0.08749513
 0.08746588 0.08747652 0.08760673 0.08791877 0.0883594 0.08877851 0.08905578 0.089183 0.08923382 0.08924104
 0.08908274 0.08858802 0.08783309 0.08715966 0.08672472 0.08620803 0.08521923 0.0838885 0.08280045 0.08237974
 0.08253238 0.08286048 0.08303934 0.08296932 0.08275761 0.08266805 0.08294916 0.08354004 0.08401842 0.08399806
</values></Ydata></ScRf><Data_Parameters_AB><parameter name="DPF">1</parameter><parameter name="NPT">3497</parameter><parameter name="FXV">3996</parameter><parameter name="LXV">500</parameter><parameter name="CSF">1</parameter><parameter name="MXY">0.0233940258622169</parameter><parameter name="MNY">-0.121228449046612</parameter><parameter name="DAT">20/05/2022</parameter><parameter name="TIM">11:07:07.275 (GMT+2)</parameter><parameter name="DXU">WN</parameter></Data_Parameters_AB><AB__Qtest><MainReport name="Quality Test Report"><Header><Line><Legend>Test result ok/not ok [1/0]: </Legend><Value>0</Value></Line><Line><Legend>Method file: </Legend><Value>C:\Users\Public\Documents\Bruker\OPUS_8.2.28\QT\IRBT_v3_default.QT</Value></Line></Header><Matrix><Line><Legend></Legend><Legend>min</Legend><Legend>max</Legend><Legend>measured</Legend></Line><Line><Value>Absorption (X-Range 1):</Value><Value>0.400000</Value><Value>2.000000</Value><Value>0.113190</Value></Line><Line><Value>Noise (X-Range 4):</Value><Value></Value><Value>0.000300</Value><Value>0.000040</Value></Line><Line><Value>Signal/Noise (X-Range 2):</Value><Value>200.000000</Value><Value></Value><Value>38.509091</Value></Line><Line><Value>Signal/Noise (X-Range 3):</Value><Value>40.000000</Value><Value></Value><Value>18.606614</Value></Line><Line><Value>Water vapour (X-Range 5):</Value><Value></Value><Value>0.000300</Value><Value>0.000049</Value></Line><Line><Value>Signal/Water (X-Range 2):</Value><Value>100.000000</Value><Value></Value><Value>31.046690</Value></Line><Line><Value>Signal/Water (X-Range 3):</Value><Value>20.000000</Value><Value></Value><Value>15.000971</Value></Line><Line><Value>Fringes (X-Range 6):</Value><Value></Value><Value>0.000100</Value><Value>0.000083</Value></Line></Matrix></MainReport></AB__Qtest><Data_Parameters_ScSm><parameter name="DPF">1</parameter><parameter name="NPT">1814</parameter><parameter name="FXV">3996.33169228125</parameter><parameter name="LXV">499.541461535156</parameter><parameter name="CSF">1</parameter><parameter name="MXY">0.293591439723969</parameter><parameter name="MNY">0.0385307818651199</parameter><parameter name="DAT">20/05/2022</parameter><parameter name="TIM">11:07:07.275 (GMT+2)</parameter><parameter name="DXU">WN</parameter></Data_Parameters_ScSm><Data_Parameters_ScRf><parameter name="DPF">1</parameter><parameter name="NPT">1820</parameter><parameter name="FXV">4004.04661832813</parameter><parameter name="LXV">495.683998511719</parameter><parameter name="CSF">1</parameter><parameter name="MXY">0.265107333660126</parameter><parameter name="MNY">0.0291462913155556</parameter><parameter name="DAT">20/05/2022</parameter><parameter name="TIM">11:06:41.423 (GMT+2)</parameter><parameter name="DXU">WN</parameter></Data_Parameters_ScRf><Optic_Parameters_Rf><parameter name="APR">0</parameter><parameter name="APT">Open</parameter><parameter name="BMS">KBr</parameter><parameter name="DTC">RT-DLaTGS_IR-Biotyper [Microplate reader]</parameter><parameter name="HPF">0</parameter><parameter name="LPF">10.0</parameter><parameter name="LPV">4000</parameter><parameter name="PGR">0</parameter><parameter name="RCH">Module port</parameter><parameter name="RDX">0</parameter><parameter name="SRC">MIR</parameter><parameter name="VEL">10.0</parameter><parameter name="SON">Off</parameter></Optic_Parameters_Rf><Acquisition_Parameters_Rf><parameter name="ADT">1</parameter><parameter name="AQM">DD</parameter><parameter name="CFE">0</parameter><parameter name="COR">0</parameter><parameter name="DEL">0</parameter><parameter name="DLY">0</parameter><parameter name="HFW">8000</parameter><parameter name="LFW">0</parameter><parameter name="NSR">32</parameter><parameter name="PLF">AB</parameter><parameter name="RES">6</parameter><parameter name="RGN">-1</parameter><parameter name="STR">0</parameter><parameter name="TCL">MakeCompatibleScalar (0, {WSV=1.000000, ARV=0});</parameter><parameter name="TDL">37</parameter><parameter name="RPO">0</parameter></Acquisition_Parameters_Rf><FT_-_Parameters_Rf><parameter name="APF">B3</parameter><parameter name="HFQ">500</parameter><parameter name="LFQ">4000</parameter><parameter name="NLI">0</parameter><parameter name="PHR">24</parameter><parameter name="PHZ">ML</parameter><parameter name="SPZ">NO</parameter><parameter name="ZFF">1</parameter></FT_-_Parameters_Rf><Optic_Parameters_><parameter name="APR">0</parameter><parameter name="APT">Open</parameter><parameter name="BMS">KBr</parameter><parameter name="CHN">Module port</parameter><parameter name="DTC">RT-DLaTGS_IR-Biotyper [Microplate reader]</parameter><parameter name="HPF">0</parameter><parameter name="LPF">10.0</parameter><parameter name="LPV">4000</parameter><parameter name="PGN">0</parameter><parameter name="RDX">0</parameter><parameter name="SRC">MIR</parameter><parameter name="VEL">10.0</parameter><parameter name="SON">Off</parameter></Optic_Parameters_><FT_-_Parameters_><parameter name="APF">B3</parameter><parameter name="HFQ">500</parameter><parameter name="LFQ">4000</parameter><parameter name="NLI">0</parameter><parameter name="PHR">24</parameter><parameter name="PHZ">ML</parameter><parameter name="SPZ">NO</parameter><parameter name="ZFF">1</parameter></FT_-_Parameters_><Acquisition_Parameters_><parameter name="ADT">1</parameter><parameter name="AQM">DD</parameter><parameter name="CFE">0</parameter><parameter name="COR">0</parameter><parameter name="DEL">0</parameter><parameter name="DLY">0</parameter><parameter name="HFW">8000</parameter><parameter name="LFW">0</parameter><parameter name="NSS">32</parameter><parameter name="PLF">AB</parameter><parameter name="RES">6</parameter><parameter name="SOT">0</parameter><parameter name="TCL">MakeCompatibleScalar (0, {WSV=1.000000, ARV=0});</parameter><parameter name="TDL">37</parameter><parameter name="SPO">0</parameter><parameter name="SGN">-1</parameter></Acquisition_Parameters_><Instrument_Parameters_Rf><parameter name="HFL">15800.168544</parameter><parameter name="LFL">0</parameter><parameter name="LWN">15800.168544</parameter><parameter name="ABP">32197</parameter><parameter name="SSP">1</parameter><parameter name="ARG">2</parameter><parameter name="ASG">2</parameter><parameter name="ASS">32</parameter><parameter name="GFW">16</parameter><parameter name="GBW">16</parameter><parameter name="BFW">0</parameter><parameter name="BBW">0</parameter><parameter name="PKA">7380</parameter><parameter name="PKL">4990</parameter><parameter name="PRA">7523</parameter><parameter name="PRL">5001</parameter><parameter name="P2A">1</parameter><parameter name="P2L">1</parameter><parameter name="P2R">1</parameter><parameter name="P2K">1</parameter><parameter name="DAQ">0</parameter><parameter name="AG2">1</parameter><parameter name="SSM">1</parameter><parameter name="RSN">24521</parameter><parameter name="CRR">0</parameter><parameter name="SRT">1653044801.423</parameter><parameter name="DUR">19.6369934082031</parameter><parameter name="TSC">28.9</parameter><parameter name="MVD">0.231616571545601</parameter><parameter name="AN1">0.225782088739786</parameter><parameter name="AN2">0</parameter><parameter name="VSN">2.485 Apr  4 2017</parameter><parameter name="SRN">0085</parameter><parameter name="CAM">0</parameter><parameter name="INS">IR-Biotyper</parameter><parameter name="FOC">69</parameter><parameter name="RDY">1</parameter><parameter name="ARS">32</parameter></Instrument_Parameters_Rf><Sample_Parameters_><parameter name="BLD"></parameter><parameter name="CNM">Admin</parameter><parameter name="CPY"></parameter><parameter name="DPM"></parameter><parameter name="EXP">IRBT_v3_32Scans.XPM</parameter><parameter name="LCT"></parameter><parameter name="SFM">Microplate, HTS-XT</parameter><parameter name="SNM">220520-0930(v.3)_RTF49M (D_16)_C5_505d0ec6-7860-4145-b6b1-3e6a187c1d92.0</parameter><parameter name="XPP">C:\Users\Public\Documents\Bruker\OPUS_8.2.28\XPM</parameter><parameter name="IST">OK</parameter><parameter name="CPG">1252</parameter><parameter name="UID">f1733cd9-fd6e-4bff-b198-a925bfd91022</parameter></Sample_Parameters_><Instrument_Parameters_><parameter name="HFL">15800.168544</parameter><parameter name="LFL">0</parameter><parameter name="LWN">15800.168544</parameter><parameter name="ABP">32197</parameter><parameter name="SSP">1</parameter><parameter name="ASG">2</parameter><parameter name="ARG">2</parameter><parameter name="ASS">32</parameter><parameter name="GFW">16</parameter><parameter name="GBW">16</parameter><parameter name="BFW">0</parameter><parameter name="BBW">0</parameter><parameter name="PKA">8684</parameter><parameter name="PKL">4990</parameter><parameter name="PRA">8901</parameter><parameter name="PRL">4993</parameter><parameter name="P2A">1</parameter><parameter name="P2L">1</parameter><parameter name="P2R">1</parameter><parameter name="P2K">1</parameter><parameter name="DAQ">0</parameter><parameter name="AG2">1</parameter><parameter name="SSM">1</parameter><parameter name="RSN">12885</parameter><parameter name="CRR">0</parameter><parameter name="SRT">1653044827.275</parameter><parameter name="DUR">19.6379852294922</parameter><parameter name="TSC">28.9</parameter><parameter name="MVD">0.263015896081924</parameter><parameter name="AN1">0.22580976173593</parameter><parameter name="AN2">0</parameter><parameter name="VSN">2.485 Apr  4 2017</parameter><parameter name="SRN">0085</parameter><parameter name="CAM">0</parameter><parameter name="INS">IR-Biotyper</parameter><parameter name="FOC">69</parameter><parameter name="RDY">1</parameter></Instrument_Parameters_><History/></OPUSDataFile>
