<?xml version="1.0" encoding="UTF-8" ?>
<OPUSDataFile><AB><Ydata ylabel="Absorbance Units"><values byteorder="INTEL" format="FLOAT32" numvalues="3497"> -0.08090583 -0.08090328 -0.08087868 -0.08083194 -0.0807637 -0.08067401 -0.08056888 -0.0804496 -0.08033327 -0.08022233
 -0.08014087 -0.08008822 -0.08007677 -0.08010013 -0.08015011 -0.08022013 -0.08029514 -0.08037414 -0.08045092 -0.08052455
 -0.08059438 -0.08065343 -0.0806982 -0.08072262 -0.08072183 -0.08070148 -0.0806604 -0.08061312 -0.08056119 -0.08051945
 -0.08048964 -0.08047888 -0.08048765 -0.08050843 -0.08054002 -0.08056393 -0.08058061 -0.08058178 -0.08057197 -0.0805635
 -0.08055829 -0.08056993 -0.08059081 -0.08061551 -0.08063474 -0.08063276 -0.08061384 -0.08057269 -0.08052654 -0.08048361
 -0.08045452 -0.08044816 -0.08045489 -0.08047579 -0.08049133 -0.08049772 -0.08048812 -0.08046041 -0.0804279 -0.08039124
 -0.08036724 -0.08035565 -0.08035693 -0.08036888 -0.08037761 -0.08038303 -0.08037616 -0.08036102 -0.08034255 -0.08032455
 -0.08031589 -0.08031709 -0.08033307 -0.08036046 -0.08039954 -0.08044292 -0.08048786 -0.0805248 -0.0805494 -0.08055671
 -0.08054341 -0.08051449 -0.08046914 -0.08042025 -0.08036847 -0.08033037 -0.08030688 -0.08031427 -0.08035269 -0.08042946
 -0.08054119 -0.08067368 -0.08081842 -0.08093611 -0.08102303 -0.08104534 -0.08101696 -0.08094293 -0.0808444 -0.08074917
 -0.08066683 -0.08061755 -0.08059219 -0.08059394 -0.08060254 -0.08060936 -0.0806086 -0.08059385 -0.08058331 -0.08057915
 -0.08059553 -0.08063599 -0.08068234 -0.08073382 -0.08075659 -0.08075083 -0.08071145 -0.08064393 -0.08058049 -0.08052461
 -0.08050928 -0.08052734 -0.08058101 -0.08065457 -0.08072112 -0.08077402 -0.08079039 -0.08078334 -0.08075603 -0.08071987
 -0.08068466 -0.08064683 -0.08060572 -0.08056356 -0.08051737 -0.08048849 -0.08047942 -0.08051127 -0.08058861 -0.08069781
 -0.08083886 -0.08093146 -0.08097245 -0.08089198 -0.08070476 -0.08047196 -0.08020739 -0.07999885 -0.07984077 -0.07976437
 -0.07975641 -0.07981193 -0.07991046 -0.08002867 -0.08014414 -0.08022854 -0.0802778 -0.08027688 -0.08024757 -0.08019387
 -0.08013724 -0.0800863 -0.08004063 -0.08000199 -0.07996277 -0.07992162 -0.07988284 -0.07984654 -0.07982322 -0.07981271
 -0.07981445 -0.07982615 -0.07983226 -0.07983142 -0.07980831 -0.07976738 -0.07971141 -0.07964645 -0.07958591 -0.07952852
 -0.07947872 -0.07943207 -0.07938454 -0.07933896 -0.0792935 -0.07925981 -0.07924131 -0.07924912 -0.07928898 -0.07935573
 -0.07945224 -0.07955129 -0.07965125 -0.0797201 -0.07975569 -0.07974428 -0.07968659 -0.079593 -0.07946577 -0.0793243
 -0.07917048 -0.07902078 -0.07887793 -0.07875637 -0.07865908 -0.07859954 -0.07857395 -0.07858706 -0.07862235 -0.07866975
 -0.0787103 -0.07872749 -0.07872137 -0.07868456 -0.07863668 -0.07858149 -0.07853393 -0.07849854 -0.07847321 -0.07845844
 -0.07844795 -0.07844132 -0.07843732 -0.07843579 -0.07843469 -0.07843348 -0.07842707 -0.07841582 -0.07839797 -0.07837518
 -0.07835103 -0.07832611 -0.07830343 -0.07828188 -0.07826041 -0.07824063 -0.07822108 -0.07821143 -0.07821507 -0.07824571
 -0.07831191 -0.07841206 -0.07855311 -0.07870048 -0.07885204 -0.0789602 -0.07901807 -0.07901378 -0.07894584 -0.07882871
 -0.07866331 -0.07846324 -0.07823195 -0.07799851 -0.07776824 -0.07757895 -0.0774305 -0.07734406 -0.0773109 -0.0773293
 -0.07738029 -0.0774403 -0.07749458 -0.07751875 -0.07751881 -0.07749096 -0.07744513 -0.07738639 -0.07731325 -0.0772266
 -0.07712212 -0.07699721 -0.07686277 -0.07671822 -0.0765903 -0.07648067 -0.07640893 -0.07637514 -0.07638019 -0.07642208
 -0.0764899 -0.07657791 -0.07665991 -0.0767263 -0.07673476 -0.07668936 -0.07657173 -0.07640602 -0.07621707 -0.07601746
 -0.0758305 -0.07564782 -0.07547094 -0.07529069 -0.07510064 -0.07490814 -0.07471193 -0.07452977 -0.07436525 -0.07422692
 -0.07411774 -0.07402381 -0.07394498 -0.07384224 -0.07371375 -0.07352152 -0.07327082 -0.07297947 -0.0726585 -0.07236575
 -0.07210051 -0.07189175 -0.07173013 -0.07161331 -0.07152965 -0.07146786 -0.07140686 -0.07132766 -0.07120603 -0.0710173
 -0.0707665 -0.07044469 -0.07008328 -0.06969128 -0.06928024 -0.06885481 -0.06841101 -0.0679479 -0.06747326 -0.06698738
 -0.06650323 -0.06602152 -0.06555448 -0.06510316 -0.06468236 -0.06429052 -0.06393184 -0.06359821 -0.0632696 -0.06294067
 -0.06258974 -0.06222216 -0.06183832 -0.06143711 -0.06102275 -0.0605772 -0.06008662 -0.0595535 -0.05896829 -0.05836785
 -0.05776278 -0.05716846 -0.05659205 -0.0560212 -0.0554551 -0.0548848 -0.05430929 -0.05373688 -0.05316857 -0.05262574
 -0.05210843 -0.0516309 -0.05118483 -0.05074736 -0.05030111 -0.04978108 -0.04919104 -0.04849452 -0.04773696 -0.0469659
 -0.04620622 -0.04550641 -0.04484437 -0.04422251 -0.04361062 -0.04299461 -0.04236276 -0.04170577 -0.04103617 -0.04035344
 -0.03967916 -0.03901692 -0.03836966 -0.03773857 -0.03709603 -0.03644064 -0.03574409 -0.03500966 -0.03424906 -0.03346854
 -0.03270304 -0.03195149 -0.03123013 -0.03053178 -0.02985129 -0.02918046 -0.02850704 -0.02782415 -0.02711857 -0.02639615
 -0.02565335 -0.02490884 -0.0241726 -0.02344536 -0.02273479 -0.02200945 -0.02126379 -0.02047888 -0.01964789 -0.01880385
 -0.01794815 -0.01712311 -0.01632939 -0.01556874 -0.01483857 -0.01411888 -0.01340888 -0.01269416 -0.01197669 -0.01125395
 -0.01052936 -0.009809726 -0.009093341 -0.008384484 -0.007669663 -0.006939098 -0.006179327 -0.005373822 -0.004534543 -0.003658521
 -0.002774883 -0.001893364 -0.001024087 -0.0001716251 0.0006677998 0.001494576 0.002306949 0.003104722 0.003889189 0.004660732
 0.005429171 0.006194772 0.00696371 0.007736013 0.0085139 0.00929976 0.01010199 0.01092142 0.01176606 0.01262893
 0.01350543 0.01438531 0.01525677 0.01611561 0.01695457 0.01777696 0.0185818 0.01937556 0.02016023 0.02093904
 0.02171356 0.02248069 0.02323958 0.02399384 0.02474308 0.0255084 0.02629075 0.02710871 0.02795975 0.02883242
 0.02972126 0.0305947 0.031452 0.03227288 0.03306372 0.03382618 0.03456958 0.0353076 0.0360455 0.0367952
 0.03755139 0.03831537 0.03907709 0.03983046 0.040577 0.0413142 0.04205359 0.04279785 0.04354987 0.04431109
 0.04507452 0.04583975 0.04660213 0.0473613 0.04811065 0.04884911 0.04956385 0.05025555 0.050919 0.0515588
 0.05218541 0.05280298 0.0534252 0.05405248 0.05469175 0.05534 0.05599799 0.0566591 0.05731911 0.05797401
 0.05861896 0.05926079 0.05990033 0.06054492 0.06119802 0.06185149 0.06250521 0.06314709 0.06377587 0.06439325
 0.06499941 0.06560055 0.06619634 0.0667856 0.06736863 0.06794558 0.06851842 0.0690938 0.06967138 0.07025458
 0.07083976 0.07142352 0.07200214 0.0725708 0.07312731 0.07366752 0.07419514 0.07470892 0.07522023 0.07573331
 0.07625123 0.07677791 0.07729656 0.07780554 0.07829098 0.07875087 0.07919726 0.079631 0.08007427 0.08052703
 0.08099796 0.08148619 0.08199237 0.0825159 0.08305743 0.08361214 0.08417223 0.08472992 0.08527008 0.08579059
 0.08628271 0.08675068 0.08719478 0.08761897 0.08802553 0.08841535 0.08878914 0.08914719 0.08948874 0.08981954
 0.09013893 0.09046354 0.09079439 0.09114904 0.09152791 0.09192935 0.09235164 0.09277792 0.0932079 0.09363215
 0.09405055 0.09446029 0.09485568 0.09522319 0.09555992 0.09585078 0.09611079 0.09634538 0.09657956 0.09683497
 0.09711635 0.09743757 0.09777144 0.09811408 0.09843497 0.09872395 0.09898197 0.09920541 0.09942338 0.09963828
 0.09986387 0.1000999 0.1003157 0.1005085 0.1006364 0.1007047 0.1007135 0.1006771 0.100639 0.1006087
 0.1006297 0.1006966 0.100823 0.1009925 0.1011954 0.1014135 0.1016301 0.1018386 0.1020279 0.1022118
 0.1023908 0.1025849 0.1028017 0.1030338 0.1032845 0.1035129 0.1037159 0.1038569 0.1039348 0.1039555
 0.1039224 0.1038721 0.103805 0.1037434 0.1036828 0.1036183 0.1035538 0.103491 0.1034447 0.1034411
 0.1034796 0.1035785 0.1037032 0.1038379 0.1039471 0.1040024 0.1040161 0.1039792 0.1039415 0.1039132
 0.103923 0.1039802 0.1040623 0.1041699 0.1042507 0.1043021 0.1042809 0.1041888 0.1040203 0.1037847
 0.1035223 0.1032458 0.1030167 0.1028387 0.1027543 0.1027476 0.1028192 0.1029366 0.1030695 0.1031876
 0.1032563 0.1032739 0.1032237 0.1031399 0.1030269 0.1029263 0.102849 0.1028145 0.1028273 0.1028923
 0.1030098 0.1031943 0.1034463 0.1037785 0.1041866 0.1046385 0.1051199 0.1055416 0.1058918 0.106078
 0.1061172 0.105987 0.1057424 0.1054489 0.105166 0.1049874 0.1049186 0.1050098 0.1051888 0.1054443
 0.1056738 0.1058396 0.1058834 0.1057775 0.105545 0.1051792 0.1047609 0.104295 0.1038613 0.1034634
 0.103135 0.1028743 0.1026741 0.1025326 0.1024356 0.102384 0.1023752 0.102407 0.1024785 0.1025733
 0.1026737 0.1027444 0.1027455 0.1026428 0.1023918 0.1020023 0.1014532 0.1008174 0.1001066 0.09941293
 0.09876053 0.09819732 0.09773721 0.09737072 0.09710003 0.09688303 0.09671725 0.09654158 0.09635317 0.09609597
 0.09577654 0.09539495 0.09496971 0.09456444 0.09418434 0.09388191 0.09362812 0.09340554 0.09317735 0.09289054
 0.09254661 0.09211893 0.09165573 0.09116835 0.09071671 0.09032571 0.09002276 0.08982671 0.08969998 0.08964705
 0.08957094 0.08946445 0.08924061 0.08889546 0.08843075 0.08785385 0.08724773 0.08661872 0.08604675 0.08552493
 0.08507411 0.08468142 0.08432823 0.08400655 0.0836966 0.08339353 0.08308576 0.08276867 0.08243415 0.08208444
 0.08171603 0.0813421 0.0809657 0.08059991 0.08025009 0.07991329 0.0795915 0.07926601 0.07893538 0.07858507
 0.07821441 0.07782785 0.07742655 0.07702581 0.07662594 0.07623661 0.07585672 0.07548732 0.07512797 0.07477866
 0.07443821 0.07410639 0.07377787 0.07344797 0.07310936 0.07275407 0.07238135 0.07198652 0.07157954 0.07116206
 0.07074562 0.07033464 0.0699278 0.06952684 0.06911777 0.06869939 0.06826235 0.06780621 0.06733661 0.06685462
 0.0663745 0.06589693 0.06543311 0.06498263 0.06455082 0.06413509 0.06373344 0.06334057 0.06294741 0.06255
 0.06213816 0.06171786 0.06128631 0.06086296 0.06045399 0.06008517 0.05976848 0.05951301 0.05933021 0.05918164
 0.0590694 0.0589102 0.05869711 0.05836093 0.05789794 0.05731856 0.05663008 0.05592287 0.05520682 0.0545877
 0.05406185 0.05368094 0.05341747 0.05324171 0.05311091 0.05294243 0.05271417 0.05235757 0.05190674 0.05135451
 0.05077238 0.05019855 0.04967023 0.04921847 0.04881462 0.04845854 0.04811546 0.04777444 0.047459 0.04716796
 0.04696078 0.04684056 0.04682283 0.04690159 0.04700793 0.0471291 0.04715343 0.04707981 0.04683656 0.04644962
 0.04593663 0.04533898 0.04473375 0.04413948 0.04361504 0.04313719 0.04270825 0.04230009 0.04189045 0.04149232
 0.0411017 0.04075056 0.04045204 0.04019277 0.03997752 0.03975023 0.03950474 0.03921862 0.03889035 0.03856642
 0.03824997 0.03799681 0.0378022 0.03766823 0.03758406 0.03751116 0.03744578 0.03735813 0.03725433 0.03713173
 0.03699523 0.0368541 0.03669672 0.03652414 0.03630257 0.03601652 0.03563409 0.03513169 0.03453008 0.03381759
 0.03308616 0.03234428 0.03169471 0.03115128 0.03073792 0.03045683 0.03023403 0.03006355 0.02984514 0.02958068
 0.02922648 0.0287981 0.02832605 0.0278277 0.0273618 0.02693111 0.02657084 0.02626479 0.02601147 0.02578539
 0.02556643 0.02533611 0.02507565 0.02478938 0.02446959 0.02414677 0.02382562 0.02353779 0.02329304 0.02308029
 0.0229027 0.02270022 0.02246957 0.02216274 0.02178223 0.02135241 0.02088225 0.02044293 0.02003204 0.019684
 0.01937889 0.0190847 0.01878832 0.01844625 0.01807438 0.01766991 0.01726251 0.01687729 0.01652632 0.01622623
 0.01596785 0.01575107 0.01556831 0.01541626 0.01529844 0.0152155 0.01516736 0.01515569 0.01515901 0.01517638
 0.01516207 0.01511336 0.01498038 0.01476536 0.01445188 0.01405405 0.0136111 0.01314343 0.01272114 0.01235346
 0.0120914 0.01192407 0.01186114 0.01188225 0.0119743 0.01212208 0.01231408 0.01254086 0.01279839 0.01307325
 0.01336326 0.01364898 0.01392627 0.01418616 0.01442493 0.01466917 0.01491987 0.01524042 0.0156337 0.01615637
 0.01680269 0.01756891 0.01843841 0.01934746 0.02028343 0.0211798 0.02204158 0.02284459 0.02360537 0.02433454
 0.02504401 0.02574773 0.02644983 0.02715556 0.02786876 0.02859234 0.02932708 0.03007726 0.03082337 0.03156684
 0.03226213 0.03290582 0.03345044 0.03389276 0.03421865 0.03442993 0.03455373 0.03459352 0.03458599 0.03453012
 0.03444017 0.03431599 0.03415869 0.03398253 0.03380744 0.03365884 0.03357711 0.03357166 0.0336709 0.03385147
 0.03411203 0.0344168 0.03475022 0.03509554 0.03544332 0.03579857 0.03616077 0.03653602 0.03692587 0.03732271
 0.03772647 0.03811008 0.0384711 0.03876637 0.03899472 0.03912266 0.03915915 0.03911591 0.03901285 0.03890664
 0.03880957 0.03877776 0.03878924 0.03885506 0.03890573 0.03890335 0.03874354 0.03836305 0.03767203 0.03661015
 0.03517669 0.03333819 0.03122725 0.0288451 0.02641406 0.02395444 0.02166317 0.01955451 0.01770369 0.016108
 0.01472219 0.01353715 0.01246955 0.01151755 0.0106305 0.00981089 0.009042519 0.0083213 0.007633861 0.006973809
 0.006324953 0.005693344 0.00507544 0.004488338 0.003941851 0.003444488 0.003004463 0.002613821 0.002272557 0.001970147
 0.001703673 0.001473722 0.001278815 0.001135291 0.001043878 0.001030801 0.001096088 0.001245824 0.001471278 0.001719919
 0.001974107 0.002133797 0.002192651 0.00207474 0.001804534 0.001382988 0.000855251 0.0002759178 -0.0003185159 -0.0008768786
 -0.001386375 -0.00182383 -0.002194271 -0.002494222 -0.002732291 -0.002912371 -0.003029306 -0.003085935 -0.003053394 -0.002928111
 -0.002692432 -0.002343118 -0.00195724 -0.001546086 -0.001317994 -0.001289151 -0.001687761 -0.002493409 -0.003767933 -0.005434384
 -0.007333606 -0.00938015 -0.0113388 -0.01318732 -0.01478893 -0.016196 -0.01740271 -0.01847656 -0.01946031 -0.02038268
 -0.02126847 -0.02211393 -0.02292228 -0.02368823 -0.02441097 -0.02508891 -0.025722 -0.02630636 -0.0268416 -0.02732998
 -0.02777232 -0.02818468 -0.02856885 -0.02894579 -0.02931524 -0.0296885 -0.03006158 -0.03043052 -0.03078968 -0.03112616
 -0.03143886 -0.03171825 -0.03197394 -0.03220855 -0.03243829 -0.03267435 -0.03292435 -0.03319776 -0.0334813 -0.03377631
 -0.03405441 -0.03431061 -0.03452484 -0.03469216 -0.03482443 -0.03492148 -0.03502136 -0.03512555 -0.03526164 -0.03542692
 -0.03561399 -0.03581945 -0.03602272 -0.03622839 -0.03643765 -0.0366579 -0.03690736 -0.03717976 -0.03747899 -0.03778451
 -0.03807993 -0.03834928 -0.03857618 -0.03876023 -0.03889591 -0.03899232 -0.03904849 -0.03908418 -0.03909982 -0.03913112
 -0.03918182 -0.03928265 -0.0394367 -0.03963567 -0.03987762 -0.04011922 -0.04035874 -0.04056117 -0.04073087 -0.040867
 -0.04097584 -0.04107451 -0.04116541 -0.04126099 -0.04136121 -0.04147139 -0.04158935 -0.04171733 -0.04184532 -0.04196986
 -0.04207619 -0.04215513 -0.04220659 -0.04222395 -0.04223439 -0.04223981 -0.0422761 -0.04234901 -0.04246823 -0.0426357
 -0.04282385 -0.04303078 -0.04321746 -0.04338418 -0.04351354 -0.04361071 -0.04368762 -0.0437503 -0.0438224 -0.04390451
 -0.04401099 -0.04413407 -0.04427116 -0.04441004 -0.04453753 -0.04464959 -0.04473589 -0.04481066 -0.04487468 -0.04495149
 -0.04504943 -0.04517686 -0.04533978 -0.04552009 -0.04571752 -0.04590444 -0.04607862 -0.04622978 -0.04635827 -0.04647738
 -0.04658849 -0.04670919 -0.04683818 -0.04697967 -0.0471302 -0.04728198 -0.04743339 -0.04757721 -0.04771447 -0.04784379
 -0.04796576 -0.04808091 -0.04818819 -0.04828674 -0.048377 -0.04845758 -0.04853466 -0.04860853 -0.04869008 -0.04878169
 -0.04888919 -0.0490146 -0.04915011 -0.04929563 -0.04943485 -0.04956711 -0.04968188 -0.04977958 -0.04985913 -0.04992092
 -0.04996546 -0.04999366 -0.05000657 -0.0500092 -0.05001015 -0.05001741 -0.0500459 -0.05009861 -0.05018577 -0.05030026
 -0.05044235 -0.05059903 -0.05076522 -0.05093008 -0.0510891 -0.05123772 -0.05137391 -0.0514986 -0.05161145 -0.05171597
 -0.05181233 -0.05190508 -0.05199455 -0.05208784 -0.05218526 -0.0522932 -0.05241023 -0.05253408 -0.05266149 -0.05278125
 -0.05289276 -0.05298797 -0.05307189 -0.05314757 -0.05322053 -0.05329831 -0.05338011 -0.05346866 -0.05355848 -0.05364739
 -0.05373289 -0.05381272 -0.05389122 -0.0539683 -0.05405154 -0.05414191 -0.05424453 -0.05436003 -0.05448709 -0.05462542
 -0.05476692 -0.05491067 -0.05504526 -0.05517036 -0.05527756 -0.05536892 -0.05544496 -0.05551039 -0.05557437 -0.05564098
 -0.05572071 -0.05581217 -0.05591926 -0.05603492 -0.05615625 -0.05627593 -0.05638936 -0.05649495 -0.05659045 -0.05668009
 -0.05676395 -0.05684815 -0.05693354 -0.05702342 -0.05711824 -0.05721666 -0.05731847 -0.05741837 -0.05751587 -0.05760434
 -0.05768381 -0.05775021 -0.05780558 -0.05785273 -0.05789574 -0.05794396 -0.05800039 -0.0580742 -0.05816339 -0.05827079
 -0.05838914 -0.05851539 -0.05864099 -0.05876126 -0.0588713 -0.05896789 -0.05905257 -0.05912434 -0.05919019 -0.05925083
 -0.05931209 -0.05937469 -0.05943662 -0.05949767 -0.05955081 -0.05959632 -0.05963297 -0.05966282 -0.05969504 -0.05973104
 -0.05978093 -0.05984199 -0.05991449 -0.05999309 -0.0600698 -0.06014283 -0.06020587 -0.06026419 -0.06031882 -0.06037631
 -0.06044102 -0.06051258 -0.06059308 -0.06067457 -0.06075578 -0.06083044 -0.06089685 -0.06095822 -0.06101444 -0.06107388
 -0.06113686 -0.06120706 -0.06128395 -0.0613641 -0.06144682 -0.06152707 -0.06160459 -0.06167641 -0.06174168 -0.06179713
 -0.06184261 -0.0618755 -0.0618991 -0.06191466 -0.0619281 -0.06194373 -0.06196551 -0.06199655 -0.06203769 -0.06209006
 -0.06215263 -0.06222597 -0.06230546 -0.06239119 -0.06247366 -0.06255217 -0.06261893 -0.06267375 -0.06271751 -0.06275099
 -0.06278145 -0.06280985 -0.06284444 -0.06288601 -0.06294166 -0.06301056 -0.06309586 -0.06319271 -0.06329636 -0.06340038
 -0.06349564 -0.06358156 -0.06365329 -0.06371772 -0.06377668 -0.06383646 -0.06390036 -0.06396757 -0.06403873 -0.06411064
 -0.06418258 -0.06425579 -0.06433021 -0.06440922 -0.06449288 -0.06458019 -0.06467061 -0.06475847 -0.0648436 -0.06492189
 -0.06499437 -0.06506194 -0.06512582 -0.06518906 -0.06525227 -0.06531779 -0.06538549 -0.06545637 -0.06552937 -0.06560436
 -0.06567943 -0.06575369 -0.06582567 -0.0658946 -0.06596018 -0.06602212 -0.06608088 -0.06613625 -0.0661909 -0.06624492
 -0.06630287 -0.06636489 -0.06643105 -0.06650054 -0.06656509 -0.06662419 -0.0666699 -0.06670462 -0.06673129 -0.06675347
 -0.06678097 -0.06681365 -0.06685644 -0.06690554 -0.06695846 -0.06701348 -0.06706753 -0.06712389 -0.06718309 -0.06724913
 -0.06732437 -0.06740674 -0.06749742 -0.0675867 -0.06767373 -0.0677483 -0.06780922 -0.06785487 -0.06788532 -0.06790928
 -0.06792749 -0.06795102 -0.06797976 -0.06801909 -0.06806769 -0.0681245 -0.06818775 -0.06825331 -0.06831974 -0.06838305
 -0.06844284 -0.06849702 -0.06854633 -0.06859086 -0.06863072 -0.06866634 -0.06869622 -0.06871955 -0.06873705 -0.06874769
 -0.06875859 -0.06877011 -0.06879225 -0.06882603 -0.06887561 -0.0689411 -0.06901708 -0.06910286 -0.06918938 -0.06927621
 -0.06935665 -0.06943058 -0.06949401 -0.06954712 -0.06958783 -0.06961777 -0.06963795 -0.06965113 -0.06966062 -0.06966804
 -0.06967553 -0.06968389 -0.06969327 -0.06970684 -0.06972519 -0.06975291 -0.06979167 -0.06984115 -0.06990238 -0.06996708
 -0.07003482 -0.0700957 -0.07014928 -0.07019325 -0.07022841 -0.07026227 -0.07029601 -0.07033999 -0.07039405 -0.07046323
 -0.07054687 -0.07064526 -0.07075959 -0.07089124 -0.07104291 -0.07121847 -0.07141816 -0.07164375 -0.07189336 -0.07216451
 -0.07246345 -0.07278887 -0.0731594 -0.07357858 -0.07406233 -0.07461575 -0.07522894 -0.07590318 -0.07660117 -0.07732069
 -0.07800663 -0.0786541 -0.07919214 -0.07961527 -0.07985314 -0.07991063 -0.07976065 -0.07942446 -0.0789288 -0.07830891
 -0.07762367 -0.0769157 -0.0762518 -0.07565837 -0.07517719 -0.0748118 -0.07457574 -0.07446048 -0.0744697 -0.07457811
 -0.07478739 -0.07503857 -0.07532588 -0.07558357 -0.0758031 -0.07597969 -0.07611302 -0.07623234 -0.0763367 -0.07642365
 -0.07648978 -0.07651366 -0.07649642 -0.0764292 -0.07631838 -0.07617234 -0.07600032 -0.07582062 -0.07563786 -0.07546663
 -0.07529932 -0.07513557 -0.07496572 -0.07478124 -0.07458998 -0.07438994 -0.07420217 -0.07403167 -0.07389028 -0.07378182
 -0.073701 -0.07364829 -0.07360954 -0.073584 -0.07355601 -0.07352511 -0.07348048 -0.07342318 -0.07335267 -0.07327158
 -0.07318808 -0.07310475 -0.07303189 -0.07296962 -0.07292363 -0.07289009 -0.07286763 -0.07285071 -0.07283416 -0.07281641
 -0.07279413 -0.0727718 -0.0727503 -0.07273312 -0.07272203 -0.07271436 -0.07271012 -0.07270519 -0.07269894 -0.07269259
 -0.07268618 -0.07268387 -0.07268573 -0.07269387 -0.07270806 -0.07272805 -0.0727536 -0.07278398 -0.07281873 -0.07285675
 -0.07289705 -0.07293786 -0.07297781 -0.07301494 -0.07304768 -0.07307416 -0.0730937 -0.07310493 -0.07310978 -0.07310798
 -0.07310411 -0.0730989 -0.07309732 -0.07310034 -0.0731104 -0.07312801 -0.07315196 -0.07318219 -0.07321505 -0.07325029
 -0.07328416 -0.07331642 -0.07334371 -0.07336577 -0.0733795 -0.07338559 -0.07338346 -0.07337542 -0.07336482 -0.07335369
 -0.073346 -0.07334146 -0.07334103 -0.07334419 -0.07335029 -0.07336138 -0.07337816 -0.07340182 -0.07343364 -0.07346911
 -0.07350819 -0.07354346 -0.07357413 -0.07359633 -0.07360981 -0.07361668 -0.07361732 -0.0736172 -0.07361665 -0.07362071
 -0.07362901 -0.07364313 -0.07366192 -0.07368324 -0.0737069 -0.07373111 -0.07375737 -0.07378696 -0.07382013 -0.07385883
 -0.07389836 -0.07393767 -0.07396968 -0.07399098 -0.07399985 -0.07399393 -0.07398058 -0.07395993 -0.07394346 -0.07393236
 -0.0739335 -0.07394733 -0.07397199 -0.07400694 -0.07404438 -0.07408389 -0.07411875 -0.07414995 -0.07417715 -0.07420213
 -0.07422949 -0.07425903 -0.0742934 -0.07432924 -0.07436365 -0.07439409 -0.07441621 -0.07443361 -0.07444566 -0.07446107
 -0.07448315 -0.07451677 -0.07456528 -0.07462221 -0.0746881 -0.07474855 -0.07480209 -0.07483984 -0.07486117 -0.07487208
 -0.07487348 -0.0748799 -0.07489135 -0.07491603 -0.07495175 -0.07499499 -0.07504345 -0.07508963 -0.07513308 -0.07516957
 -0.07519984 -0.07522265 -0.07524023 -0.07525318 -0.07526591 -0.07528094 -0.07530147 -0.07533008 -0.07536459 -0.07540545
 -0.07544749 -0.07548978 -0.07552991 -0.07556746 -0.07560214 -0.07563391 -0.07566062 -0.07568218 -0.07569599 -0.07570289
 -0.07570631 -0.075708 -0.07571673 -0.07573263 -0.07576152 -0.07580009 -0.07584576 -0.07589471 -0.07594065 -0.07598364
 -0.07602081 -0.076056 -0.07609058 -0.0761275 -0.07616861 -0.07621352 -0.07626282 -0.07631378 -0.07636629 -0.0764164
 -0.07646373 -0.07650463 -0.07653885 -0.07656652 -0.076588 -0.07660856 -0.07662889 -0.07665624 -0.0766906 -0.07673623
 -0.07679158 -0.07685576 -0.07692535 -0.07699446 -0.07705992 -0.07711478 -0.07716003 -0.07719287 -0.07721917 -0.07724106
 -0.07726454 -0.07729298 -0.07732713 -0.07736843 -0.07741313 -0.07746097 -0.07750785 -0.07755315 -0.07759661 -0.07763813
 -0.07768185 -0.07772797 -0.07778051 -0.0778388 -0.07790061 -0.07796443 -0.07802295 -0.07807598 -0.07811852 -0.07815338
 -0.07818249 -0.07821022 -0.07824271 -0.07828245 -0.07833434 -0.07839645 -0.07847004 -0.07854911 -0.07863209 -0.07871246
 -0.07878799 -0.07885586 -0.07891498 -0.07896644 -0.07901017 -0.07904854 -0.07908171 -0.07911051 -0.07913489 -0.07915422
 -0.07916879 -0.0791797 -0.07918841 -0.07920088 -0.07921894 -0.07925097 -0.07929607 -0.07935782 -0.07943106 -0.07951166
 -0.07959336 -0.07966918 -0.07973656 -0.07979096 -0.07983611 -0.07987147 -0.07990475 -0.07993781 -0.07997656 -0.08002298
 -0.08007558 -0.08013492 -0.08019271 -0.08024844 -0.08029608 -0.08033579 -0.08037046 -0.08040088 -0.08043429 -0.08047032
 -0.08051173 -0.08055709 -0.08060373 -0.08065154 -0.08069859 -0.08074658 -0.08079712 -0.08085068 -0.08090902 -0.08096934
 -0.08103082 -0.08109003 -0.08114506 -0.08119544 -0.08124017 -0.08128226 -0.08132166 -0.0813638 -0.08140922 -0.08146212
 -0.0815229 -0.08158943 -0.08166124 -0.0817297 -0.0817944 -0.08184779 -0.0818911 -0.08192491 -0.08195145 -0.08197686
 -0.08200253 -0.08203392 -0.08207089 -0.08211602 -0.08216696 -0.08222353 -0.08228078 -0.08233599 -0.08238498 -0.08242476
 -0.08245621 -0.08247834 -0.08249594 -0.08250963 -0.08252334 -0.0825376 -0.0825545 -0.08257423 -0.08259785 -0.08262523
 -0.08265428 -0.08268445 -0.08271064 -0.08273283 -0.08274757 -0.08275662 -0.08276243 -0.08276755 -0.0827779 -0.08279464
 -0.08282224 -0.08285906 -0.08290594 -0.0829587 -0.08301553 -0.08307187 -0.08312549 -0.08317354 -0.08321463 -0.08324836
 -0.08327428 -0.08329384 -0.08330707 -0.08331627 -0.08332156 -0.08332545 -0.08332808 -0.08333194 -0.08333718 -0.08334629
 -0.0833593 -0.08337779 -0.08340149 -0.08343046 -0.08346455 -0.08350359 -0.08354714 -0.08359537 -0.08364547 -0.08369579
 -0.08374188 -0.08377998 -0.08380964 -0.08382844 -0.08384287 -0.0838538 -0.08386877 -0.08388986 -0.08391812 -0.08395435
 -0.08399351 -0.0840354 -0.08407298 -0.08410602 -0.08413054 -0.08414711 -0.08415791 -0.08416407 -0.0841715 -0.08418066
 -0.08419613 -0.08421701 -0.08424425 -0.08427571 -0.08430971 -0.08434257 -0.08437074 -0.08439089 -0.08439885 -0.08439707
 -0.08438404 -0.08436882 -0.08435332 -0.08434588 -0.0843491 -0.08436279 -0.08438791 -0.08441585 -0.08444618 -0.0844695
 -0.08448562 -0.08449201 -0.08448931 -0.08448085 -0.08446738 -0.08445356 -0.08443993 -0.08443023 -0.08442501 -0.08442764
 -0.08443665 -0.08445248 -0.08447075 -0.08448752 -0.08450013 -0.08450442 -0.08450451 -0.08450047 -0.08449893 -0.08450248
 -0.08451186 -0.0845283 -0.08454654 -0.08456622 -0.08458206 -0.08459361 -0.08459949 -0.08459989 -0.08459908 -0.08459776
 -0.08460367 -0.08461665 -0.08464126 -0.08467464 -0.08471225 -0.084749 -0.08477265 -0.08478123 -0.08476483 -0.08473024
 -0.08467855 -0.084621 -0.0845653 -0.08451728 -0.08448268 -0.08445779 -0.08444356 -0.0844316 -0.08442022 -0.08440509
 -0.08438502 -0.08436272 -0.08433811 -0.08431923 -0.08430652 -0.08430943 -0.0843273 -0.08436072 -0.08440549 -0.08444372
 -0.08447154 -0.08446553 -0.08443255 -0.08437277 -0.08429872 -0.08422919 -0.08416656 -0.08412112 -0.08408693 -0.08406255
 -0.08404493 -0.08403201 -0.08402391 -0.0840212 -0.08401956 -0.08401916 -0.08401064 -0.08399285 -0.08395921 -0.08390893
 -0.08384413 -0.08376521 -0.08368219 -0.08359583 -0.08351701 -0.08344521 -0.08338407 -0.08333211 -0.08328665 -0.08324745
 -0.08321283 -0.08318295 -0.08315825 -0.08313626 -0.08311522 -0.08309209 -0.08306397 -0.08303073 -0.08299151 -0.08294719
 -0.08289823 -0.08284348 -0.0827829 -0.0827147 -0.08263855 -0.0825542 -0.0824615 -0.08236396 -0.08226181 -0.08216059
 -0.08205979 -0.08195832 -0.08185405 -0.08173569 -0.08160403 -0.0814537 -0.08129061 -0.08112505 -0.0809584 -0.08079895
 -0.08064006 -0.08047776 -0.08030868 -0.08012661 -0.07994055 -0.07975173 -0.07957278 -0.0794087 -0.07926284 -0.07913853
 -0.0790248 -0.07892244 -0.07880426 -0.07866836 -0.07849166 -0.07827412 -0.07803067 -0.07776403 -0.07750554 -0.07725325
 -0.07701498 -0.0767865 -0.07655843 -0.07633076 -0.0760986 -0.0758645 -0.07563053 -0.07539713 -0.07516576 -0.07493544
 -0.0747076 -0.07447553 -0.07423996 -0.07398187 -0.07369557 -0.07336798 -0.07299194 -0.07258469 -0.07214687 -0.07169998
 -0.07124634 -0.07078222 -0.07030744 -0.06981632 -0.06931008 -0.06879929 -0.06828245 -0.06776147 -0.06722654 -0.06664963
 -0.06602309 -0.06531178 -0.06453034 -0.06368 -0.06278794 -0.06188378 -0.06097615 -0.06008064 -0.05919462 -0.05831878
 -0.05745692 -0.0566109 -0.05578125 -0.05497384 -0.05415383 -0.05332287 -0.05239835 -0.05137313 -0.05020484 -0.0488952
 -0.04755272 -0.04618416 -0.0449036 -0.04369489 -0.04253965 -0.04142134 -0.04027789 -0.03911059 -0.03789319 -0.03663095
 -0.03532857 -0.03396639 -0.03253956 -0.03099194 -0.02928663 -0.02737826 -0.02521392 -0.02286532 -0.02032168 -0.01775589
 -0.01520436 -0.01276921 -0.01047501 -0.008314488 -0.006291275 -0.004344197 -0.002468399 -0.000544724 0.00143936 0.003664561
 0.006113012 0.008826271 0.01171328 0.01449775 0.01716078 0.01949862 0.02161535 0.02357803 0.02546414 0.02738691
 0.02934929 0.03138936 0.03348527 0.03563388 0.0378254 0.04006574 0.04230101 0.0445258 0.04666791 0.04871045
 0.05067242 0.05255294 0.05440074 0.05621591 0.05794182 0.0595722 0.06101449 0.06228368 0.06339832 0.06439073
 0.06537711 0.06636047 0.06742129 0.06850106 0.06953978 0.07051774 0.07137451 0.07216633 0.0729218 0.07365762
 0.07440203 0.07510561 0.07575791 0.07632218 0.07678316 0.07715565 0.07743655 0.07767054 0.07786061 0.07804847
 0.07823546 0.07841761 0.07859172 0.07872268 0.07881188 0.07884561 0.07883279 0.07879008 0.07873398 0.07870593
 0.07871958 0.07881685 0.07899075 0.07924797 0.0795841 0.07998777 0.08049233 0.08110934 0.08186972 0.08279826
 0.08385157 0.0850288 0.08626545 0.08754735 0.088881 0.09026424 0.09173935 0.09330793 0.09498148 0.09675811
 0.09862258 0.100574 0.1026014 0.104704 0.1068737 0.1091106 0.1114079 0.113773 0.1162135 0.1187356
 0.1213516 0.1240544 0.1268442 0.1297089 0.1326419 0.1356391 0.1386977 0.1418177 0.1450015 0.1482334
 0.1515166 0.1547942 0.158063 0.1612507 0.1643544 0.1673697 0.1703012 0.1732087 0.1760752 0.178856
 0.1815047 0.1838319 0.1858479 0.1874678 0.1887569 0.1897862 0.1905781 0.1911889 0.1916032 0.1918241
 0.1918457 0.1916832 0.1912644 0.1906033 0.1894765 0.1878254 0.1855527 0.1825822 0.1793811 0.1759832
 0.1727385 0.1696597 0.166566 0.1634465 0.1601193 0.1566038 0.1529118 0.1490619 0.1451443 0.1411099
 0.1369337 0.1324709 0.1274543 0.1218944 0.1155529 0.1089541 0.1024156 0.09627453 0.09089519 0.08596276
 0.0814467 0.07707061 0.07273169 0.06847905 0.06429812 0.06032996 0.056592 0.05306473 0.04974642 0.04650325
 0.04333285 0.04015908 0.03699781 0.0338921 0.03086139 0.02799768 0.02529611 0.02279758 0.02047262 0.01829597
 0.01623819 0.01426305 0.0123393 0.01044709 0.008520082 0.006524259 0.004399416 0.002076712 -0.0002802255 -0.002674119
 -0.00479639 -0.006574729 -0.008047898 -0.009202347 -0.01028242 -0.01129969 -0.012391 -0.0135499 -0.01474812 -0.01597155
 -0.01712319 -0.01821096 -0.01921188 -0.02013762 -0.02101526 -0.02182011 -0.02253245 -0.02311142 -0.02349588 -0.02369156
 -0.02367481 -0.02348865 -0.02314997 -0.02268603 -0.02211297 -0.02143082 -0.02064771 -0.01972954 -0.01867939 -0.01740873
 -0.01590898 -0.01412091 -0.0120428 -0.009843859 -0.007543007 -0.00542608 -0.00348293 -0.001805953 -0.0003654173 0.0008951873
 0.001983632 0.00294215 0.003774365 0.004488581 0.00513024 0.005734222 0.006388563 0.007179854 0.008128507 0.009300821
 0.01056072 0.0118722 0.01314421 0.01433132 0.0154912 0.01662305 0.017808 0.01905577 0.02038295 0.02179044
 0.02322358 0.02467966 0.02610471 0.02750783 0.0289066 0.03032359 0.03184778 0.03348821 0.03532477 0.03731588
 0.03943487 0.04163373 0.04383412 0.04605586 0.04828472 0.05056006 0.05291098 0.05531624 0.0577838 0.06024992
 0.06269801 0.06510118 0.06744854 0.06976791 0.07206229 0.07433755 0.07659375 0.07872767 0.08072935 0.08244402
 0.08387088 0.08492853 0.08562038 0.08592068 0.0858197 0.08528124 0.08429933 0.08283797 0.08092616 0.07857002
 0.07583311 0.07275972 0.06941324 0.06583963 0.06206832 0.05811924 0.05400309 0.04971214 0.04532693 0.04084321
 0.03644961 0.03216308 0.0281251 0.024344 0.02079211 0.01746324 0.01426506 0.01120259 0.008256399 0.005442767
 0.002814654 0.0003698251 -0.001862938 -0.003911805 -0.005806743 -0.007578235 -0.009271737 -0.01090584 -0.01250984 -0.01408921
 -0.01565682 -0.01720271 -0.0187283 -0.02021404 -0.0216546 -0.02304141 -0.02437048 -0.02565399 -0.02689277 -0.0280972
 -0.02926792 -0.03038175 -0.03143552 -0.03237951 -0.03321389 -0.03391147 -0.03448097 -0.03493862 -0.03529296 -0.03557263
 -0.03578049 -0.03593346 -0.03603243 -0.03608346 -0.03609019 -0.03605389 -0.03598836 -0.03589609 -0.03580639 -0.0357272
 -0.03569278 -0.03571267 -0.03580965 -0.03598978 -0.03625741 -0.03661476 -0.03704611 -0.03755071 -0.03809746 -0.03868474
 -0.03928417 -0.03989533 -0.04050261 -0.04110404 -0.04168549 -0.04224205 -0.0427546 -0.04322075 -0.04362692 -0.04397603
 -0.04426623 -0.04450075 -0.04468198 -0.04481082 -0.04488722 -0.04491596 -0.04489676 -0.04484208 -0.04475359 -0.04464745
 -0.04452598 -0.04440356 -0.04428177 -0.04417031 -0.04406982 -0.04398344 -0.04391108 -0.04385153 -0.04380474 -0.04376955
 -0.04374686 -0.04373835 -0.04374718 -0.04378011 -0.04384382 -0.04395155 -0.04411021 -0.04433399 -0.04462321 -0.044985
 -0.04541007 -0.04589736 -0.04643147 -0.04700815 -0.04760968 -0.04823234 -0.04885713 -0.04948155 -0.05008522 -0.05066622
 -0.0512058 -0.05170273 -0.05214833 -0.05254329 -0.05289582 -0.05320794 -0.05349727 -0.05376323 -0.05401445 -0.05424618
 -0.05445159 -0.05462578 -0.05475679 -0.05484379 -0.05488018 -0.05486967 -0.05481159 -0.0547144 -0.05458089 -0.05442354
 -0.05424651 -0.05406295 -0.05387626 -0.05369816 -0.05353064 -0.05338405 -0.05325958 -0.05316483 -0.05310035 -0.05306651
 -0.05306282 -0.05308195 -0.05312264 -0.05317333 -0.05323298 -0.0532911 -0.05334836 -0.05340028 -0.05344998 -0.05350042
 -0.05355513 -0.05361988 -0.05369554 -0.05378587 -0.05388695 -0.05399852 -0.05411385 -0.05423003 -0.05434376 -0.05445248
 -0.05456125 -0.05466988 -0.05478793 -0.05491658 -0.05506003 -0.05521868 -0.05538879 -0.05557001 -0.05575634 -0.05594766
 -0.05614023 -0.05633432 -0.05652855 -0.05672407 -0.05692276 -0.05712617 -0.05733819 -0.05755874 -0.05778984 -0.05802912
 -0.05827552 -0.05852633 -0.05877988 -0.05903394 -0.05928763 -0.05953816 -0.05978485 -0.06002481 -0.0602574 -0.06048124
 -0.06069611 -0.06090163 -0.0610978 -0.06128254 -0.06145567 -0.06161343 -0.06175601 -0.06188234 -0.0619938 -0.06209539
 -0.06218764 -0.06227601 -0.06235652 -0.06242573 -0.06247724 -0.06250087 -0.0624957 -0.06245593 -0.06238778 -0.06229347
 -0.06217725 -0.06204247 -0.06188618 -0.06170853 -0.06150523 -0.06127536 -0.0610176 -0.06073159 -0.06041795 -0.06007661
 -0.05971331 -0.05932897 -0.05893941 -0.05854621 -0.05816879 -0.05780631 -0.05746748 -0.05714698 -0.05683668 -0.05652946
 -0.05620833 -0.0558711 -0.05550573 -0.05512028 -0.05471514 -0.05430533 -0.05389883 -0.05350887 -0.05314288 -0.05280666
 -0.05250417 -0.05223221 -0.05199205 -0.05177141 -0.05156964 -0.05137137 -0.05117558 -0.05097298 -0.05076335 -0.05054357
 -0.05031304 -0.05006666 -0.04980288 -0.04951274 -0.04919538 -0.04884347 -0.04845818 -0.04803745 -0.04758493 -0.0471033
 -0.04659851 -0.04607621 -0.04554144 -0.04499884 -0.04445033 -0.04389717 -0.04334225 -0.042786 -0.04223352 -0.04168608
 -0.04114483 -0.04061038 -0.04007854 -0.03954909 -0.03901869 -0.0384872 -0.03795252 -0.0374147 -0.03687171 -0.03632601
 -0.03578486 -0.03525371 -0.03475178 -0.03427983 -0.03385144 -0.03345618 -0.03308841 -0.03273306 -0.03237492 -0.03200508
 -0.03161286 -0.03119889 -0.0307598 -0.03030307 -0.02982975 -0.02934765 -0.02885873 -0.02836513 -0.02786765 -0.02736307
 -0.0268513 -0.02632651 -0.02578819 -0.02522681 -0.02464221 -0.02402706 -0.02338468 -0.02272276 -0.02204889 -0.02138577
 -0.02074206 -0.02014242 -0.01959593 -0.01912223 -0.01873144 -0.01843949 -0.01825007 -0.01817322 -0.0181967 -0.01832188
 -0.01852141 -0.01879117 -0.01909565 -0.01942939 -0.01975774 -0.02007621 -0.02036206 -0.02061341 -0.02081956 -0.02097984
 -0.02108274 -0.02112751 -0.02110133 -0.02100649 -0.02084412 -0.02062031 -0.02035188 -0.02004358 -0.0197113 -0.01935882
 -0.01899434 -0.01862876 -0.01827011 -0.01794006 -0.01765069 -0.017428 -0.01728488 -0.01723991 -0.01730331 -0.0174719
 -0.01774983 -0.01811013 -0.0185515 -0.01903982 -0.01957287 -0.02012098 -0.0206824 -0.02122597 -0.02175004 -0.02222548
 -0.02265509 -0.02303291 -0.02336752 -0.02367937 -0.02397466 -0.02427586 -0.02458162 -0.02489929 -0.02522598 -0.02555869
 -0.02590444 -0.02626131 -0.02665432 -0.02708943 -0.02760166 -0.02820322 -0.02891121 -0.0297347 -0.03065457 -0.03167157
 -0.03274828 -0.03388226 -0.035045 -0.03623523 -0.03743346 -0.0386381 -0.03982823 -0.04100176 -0.04213868 -0.04323778
 -0.04428563 -0.04528182 -0.04621847 -0.04709843 -0.04792063 -0.04869267 -0.04942038 -0.05011159 -0.05077297 -0.05140849
 -0.05202155 -0.05261309 -0.05318464 -0.05373321 -0.05425919 -0.05475501 -0.0552196 -0.05564946 -0.05604396 -0.05641042
 -0.05674931 -0.05707062 -0.05737428 -0.05766429 -0.05793971 -0.05819907 -0.05844052 -0.05865876 -0.05885115 -0.05900985
 -0.059134 -0.05921791 -0.05926556 -0.05927719 -0.05926079 -0.05922007 -0.05916547 -0.05910206 -0.05903753 -0.05897642
 -0.05891595 -0.05885695 -0.05879149 -0.05871771 -0.05864041 -0.05855943 -0.05849057 -0.05843413 -0.05839262 -0.05836399
 -0.05833199 -0.05829554 -0.05824057 -0.05816891 -0.05807943 -0.05797194 -0.05784647 -0.05770002 -0.05752779 -0.05732987
 -0.05710314 -0.05685326 -0.0565819 -0.05629702 -0.05600185 -0.05570392 -0.05540588 -0.05511317 -0.05482755 -0.05455037
 -0.05428233 -0.05402044 -0.05376456 -0.05351117 -0.05326045 -0.05301804 -0.05278617 -0.05258596 -0.05241982 -0.05231209
 -0.05225891 -0.05226454 -0.05231766 -0.05239896 -0.0524978 -0.05259136 -0.05267487 -0.05273603 -0.05277316 -0.05278159
 -0.05276183 -0.05271279 -0.05263657 -0.0525347 -0.05240338 -0.05224331 -0.052043 -0.05180047 -0.05151324 -0.05118024
 -0.05082022 -0.05043435 -0.05004792 -0.04966061 -0.04928131 -0.04890693 -0.04852771 -0.04814219 -0.04773921 -0.0473235
 -0.04689791 -0.04647025 -0.04605376 -0.04564969 -0.04526622 -0.04489524 -0.04453375 -0.04417546 -0.04381451 -0.04345703
 -0.04310202 -0.04276333 -0.04244328 -0.04215347 -0.04189594 -0.04167549 -0.04149295 -0.04134336 -0.04122612 -0.04112418
 -0.04103589 -0.04093948 -0.0408342 -0.04070457 -0.04055208 -0.0403725 -0.04016898 -0.03994564 -0.03970526 -0.03945395
 -0.03919164 -0.03892093 -0.0386394 -0.03834631 -0.03803942 -0.03771776 -0.03737913 -0.03702285 -0.03664651 -0.03624873
 -0.03583283 -0.03539792 -0.03495789 -0.03451336 -0.03408331 -0.03366857 -0.03328098 -0.03291949 -0.03258014 -0.03225991
 -0.03194231 -0.03162559 -0.0312949 -0.03095271 -0.03059671 -0.03023045 -0.02985875 -0.02948177 -0.02910106 -0.02871734
 -0.02832991 -0.02794506 -0.02756537 -0.02719586 -0.02684006 -0.0264935 -0.0261566 -0.02582054 -0.02548395 -0.02514331
 -0.02479814 -0.02444826 -0.02409361 -0.02373239 -0.02336479 -0.02299125 -0.02261318 -0.02223768 -0.02186593 -0.02150639
 -0.02115679 -0.0208173 -0.02048348 -0.02014835 -0.01981084 -0.01946635 -0.01911818 -0.01876736 -0.01841609 -0.01806502
 -0.01771782 -0.01737395 -0.01704508 -0.01673371 -0.0164475 -0.01618979 -0.01594568 -0.01571476 -0.01547366 -0.01522158
 -0.01495461 -0.01467365 -0.01438736 -0.01409391 -0.01378854 -0.01346893 -0.01312292 -0.01275555 -0.01236989 -0.0119752
 -0.01158675 -0.011209 -0.01085261 -0.01051679 -0.01020457 -0.009912785 -0.009641168 -0.009385128 -0.009143068 -0.008912417
 -0.008692333 -0.008481926 -0.008281503 -0.008085691 -0.007894278 -0.007699073 -0.00749973 -0.007292636 -0.00707813 -0.006857642
 -0.006632351 -0.006408058 -0.006187178 -0.005981794 -0.005789919 -0.005616507 -0.005450227 -0.005276081 -0.005087188 -0.004865842
 -0.004626138 -0.004370504 -0.004118149 -0.003882796 -0.003660357 -0.003454913 -0.003247921 -0.00303472 -0.002810337 -0.002571986
 -0.002331831 -0.002090367 -0.001862669 -0.001649407 -0.001458376 -0.001288328 -0.001130727 -0.0009821153 -0.0008204877 -0.0006436435
 -0.0004328447 -0.0001886338 9.74648E-05 0.0004224205 0.000788314 0.00118382 0.001600265 0.002022459 0.002434497 0.002836516
 0.003222392 0.003604239 0.003987884 0.004367271 0.004744012 0.005099305 0.005428423 0.005739172 0.00603062 0.006334325
 0.006651679 0.006998317 0.007372972 0.007768517 0.008182418 0.008599644 0.009015935 0.00941018 0.009779013 0.0101025
 0.01038607 0.01062753 0.01083753 0.01102729 0.01120115 0.01136671 0.01152153 0.01166677 0.01179786 0.01191323
 0.01201051 0.01208604 0.01215583 0.01221914 0.01231201 0.01243813 0.01261142 0.01283215 0.01306837 0.01331836
 0.01355002 0.01376827 0.01398153 0.01419728 0.01444437 0.0147261 0.0150659 0.01545781 0.01590877 0.01639561
 0.01689742 0.0173945 0.01785538 0.01830783 0.01874714 0.01924021 0.01981995 0.02047786 0.02123408 0.02197049
 0.02266894 0.02327923 0.02379284 0.02423092 0.02459419 0.02489378 0.0251308 0.02532085 0.02546563 0.02558783
 0.02567812 0.02571912 0.0256981 0.02557163 0.02535043 0.02502778 0.02462837 0.02417801 0.02368747 0.02317165
 0.02263767 0.02208891 0.02154363 0.02100736 0.020498 0.02001873 0.01959097 0.01921667 0.01892502 0.01872021
 0.01859921 0.01856146 0.01854508 0.01854502 0.01848334 0.0183595 0.01812755 0.01779541 0.01735709 0.01683816
 0.01628391 0.01573572 0.01528557 0.01493483 0.01474024 0.01462611 0.0145569 0.01446492 0.014292 0.01405898
 0.01375255 0.01343683 0.0131232 0.01286362 0.01266799 0.01256375 0.01255662 0.01262313 0.012762 0.01291326
 0.01307642 0.0132271 0.01336959 0.01351812 0.01367003 0.0138227 0.01397364 0.0141116 0.0142467 0.01439079
 0.01454961 0.01473759 0.01494531 0.01516974 0.0154045 0.01564561 0.01588949 0.01613793 0.01637075 0.01658428
 0.01675951 0.01689079 0.01698627 0.01704546 0.0170874 0.01711308 0.01713844 0.01716415 0.01720657 0.01726081
 0.01731208 0.0173467 0.01730338 0.01718755 0.0169668 0.01668881 0.01641138 0.01618118 0.01608486 0.01610553
 0.0162718 0.01651219 0.01680189 0.01707032 0.01728527 0.01741369 0.01743603 0.01737306 0.01722056 0.01703769
 0.0168291 0.01664334 0.01648319 0.01636926 0.0163016 0.01628834 0.01632614 0.01640246 0.01650992 0.01661375
 0.01671497 0.01679715 0.01686822 0.01693921 0.01700066 0.01704954 0.01706712 0.01703285 0.01695286 0.01682168
 0.01666005 0.01647601 0.01627534 0.0160593 0.01583848 0.0156124 0.0154083 0.0152296 0.01508206 0.01496614
 0.01486162 0.01476855 0.01468293 0.01460573 0.01454327 0.01449105 0.01443459 0.01437341 0.0142965 0.01421229
 0.01413433 0.01405592 0.01397872 0.01388335 0.01374973 0.01358394 0.01337921 0.01316156 0.01293967 0.01272791
 0.01252832 0.01236515 0.01223926 0.01219603 0.01224269 0.01236442 0.01256069</values></Ydata></AB><ScSm><Ydata ylabel="Single channel"><values byteorder="INTEL" format="FLOAT32" numvalues="1814"> 0.07335432 0.07335122 0.07340713 0.0735511 0.0737581 0.07396515 0.07411602 0.07419698 0.07422393 0.07420391
 0.07414229 0.07408915 0.07413085 0.0743065 0.07455102 0.07473751 0.07477954 0.07470904 0.07465877 0.07473187
 0.07486328 0.07483863 0.07449472 0.07390584 0.07333806 0.07300535 0.07293472 0.07311857 0.07364607 0.07445434
 0.07504743 0.07485013 0.07393081 0.07303403 0.07275526 0.07297021 0.07318231 0.07309663 0.07271092 0.07220472
 0.07199277 0.07261258 0.07419374 0.07602182 0.0767988 0.07546583 0.07195982 0.06744637 0.06388749 0.06299123
 0.0650085 0.06839071 0.07095239 0.0716148 0.07091966 0.06991985 0.06904791 0.06825779 0.06775628 0.06803491
 0.06918763 0.0704609 0.0706477 0.06911849 0.06657144 0.06453846 0.0639921 0.06473886 0.06623688 0.06818327
 0.06967774 0.06875549 0.06432143 0.05858562 0.05607215 0.05931937 0.0661749 0.07190382 0.07339874 0.07091546
 0.06669778 0.06311812 0.06178556 0.06311041 0.06622784 0.06971818 0.07246928 0.07372816 0.0729102 0.0701064
 0.06658225 0.06416495 0.06411983 0.06665184 0.07086214 0.07483329 0.07650429 0.07519461 0.07205471 0.0688508
 0.06680393 0.06660276 0.06857941 0.0723581 0.0768289 0.08079315 0.08345855 0.08451943 0.08421381 0.08317004
 0.08193 0.08086665 0.08052179 0.0812684 0.08242729 0.08252741 0.08090973 0.07860895 0.07728855 0.07752097
 0.07833037 0.07837815 0.07731859 0.07558233 0.07305076 0.06902467 0.06383049 0.05925398 0.05675334 0.05634646
 0.05767518 0.06057445 0.06381859 0.0650459 0.0633445 0.0609041 0.06084292 0.06387918 0.06795768 0.07075456
 0.07182716 0.07245819 0.07400498 0.07651298 0.07853809 0.07823902 0.07520562 0.07148636 0.07013888 0.072227
 0.07579659 0.07827714 0.0791911 0.07987271 0.08113733 0.08202262 0.08079442 0.07700656 0.0726109 0.07075341
 0.07303461 0.07790764 0.08180211 0.08177109 0.07747528 0.07125516 0.06630336 0.06445567 0.065698 0.06938212
 0.0749391 0.08124433 0.08632448 0.08846457 0.08745965 0.08450913 0.08084741 0.07661025 0.07148881 0.06661466
 0.06478135 0.06780252 0.07418968 0.08039393 0.08397149 0.08479814 0.0836861 0.08087686 0.07626697 0.07084966
 0.067187 0.06742314 0.07070284 0.07365426 0.07391939 0.07230416 0.07104275 0.07101128 0.07140569 0.07145175
 0.07150397 0.07242985 0.07436636 0.07639202 0.07741898 0.07718171 0.07628141 0.07548247 0.07502255 0.07444651
 0.0732522 0.07189219 0.07172588 0.07352759 0.0764173 0.07876687 0.07983722 0.08004294 0.0798602 0.07899947
 0.07683215 0.07357196 0.07075597 0.07010183 0.07184339 0.07458681 0.07676523 0.07776696 0.07777847 0.07721312
 0.07643431 0.07563759 0.0749093 0.0744817 0.07467797 0.07544585 0.07625239 0.07662194 0.07652585 0.0761401
 0.07550692 0.07460324 0.07358129 0.07277738 0.07247299 0.07268159 0.07318359 0.07372448 0.0741071 0.0741578
 0.07378979 0.07313229 0.072451 0.07190798 0.07150897 0.0712664 0.07125336 0.07146156 0.07172965 0.07187405
 0.07183313 0.07165297 0.07138777 0.0710579 0.07068259 0.07031952 0.07006139 0.06997274 0.07001265 0.07005861
 0.07004702 0.0700393 0.07008905 0.07010697 0.06995221 0.06962299 0.06926817 0.06902476 0.06890891 0.0688514
 0.06877359 0.06860979 0.0683039 0.06785437 0.06738146 0.06708738 0.06709564 0.06735644 0.06772619 0.06807704
 0.06831323 0.06837822 0.06829955 0.06816453 0.06801782 0.0678288 0.06757201 0.06729971 0.06712547 0.06714184
 0.06733752 0.06759549 0.06778988 0.06787288 0.06786714 0.06782639 0.0678164 0.06786872 0.06792813 0.06790143
 0.06777745 0.06765099 0.06761439 0.06766011 0.06770046 0.06766815 0.06759004 0.06755646 0.06761877 0.06773847
 0.06784534 0.06791721 0.06798555 0.06807671 0.06816122 0.06816816 0.06806407 0.06790851 0.06779996 0.06777351
 0.067792 0.06783 0.06791165 0.06805266 0.06820789 0.06830625 0.06832657 0.06831706 0.06833304 0.06836937
 0.06837379 0.06831999 0.068241 0.06818867 0.06818439 0.06821416 0.06825078 0.06827118 0.06826389 0.06822942
 0.06817504 0.0681074 0.0680295 0.06794775 0.06788529 0.06787671 0.06793168 0.06800555 0.06802501 0.0679521
 0.06781767 0.06768787 0.0676003 0.06753735 0.06746098 0.06736334 0.06727186 0.06721149 0.0671791 0.06715502
 0.06712301 0.0670785 0.06703609 0.06703395 0.0671095 0.06725378 0.06740095 0.06748211 0.06748808 0.06746718
 0.06746775 0.06749971 0.06754856 0.06760737 0.06768982 0.06781586 0.06797943 0.06813321 0.06822658 0.06826439
 0.06830658 0.06840529 0.06856523 0.06876266 0.06896804 0.06914606 0.06927158 0.06936161 0.06946618 0.0696142
 0.06978724 0.0699546 0.07011288 0.07027855 0.07045896 0.07065029 0.07085788 0.07110127 0.07139367 0.07172129
 0.0720434 0.07231677 0.07253172 0.07272984 0.07297646 0.07330574 0.07369216 0.07407531 0.07441124 0.07470304
 0.07498592 0.07528463 0.07559425 0.0759089 0.07625097 0.07664755 0.0770859 0.07752036 0.07792298 0.07830571
 0.07869279 0.07909204 0.07949685 0.07990234 0.08031283 0.08073507 0.08116521 0.0815848 0.08197576 0.08233821
 0.08269039 0.08305478 0.08344496 0.08385199 0.0842384 0.08456528 0.08484153 0.08512881 0.08547543 0.08585733
 0.08621106 0.08651765 0.08682165 0.08716618 0.08754158 0.08791161 0.08826577 0.08862537 0.08900741 0.08939612
 0.08974842 0.09002671 0.09023421 0.09041785 0.0906302 0.09089456 0.09121364 0.0915914 0.09201981 0.09245476
 0.09283651 0.09313679 0.09336919 0.09356427 0.0937563 0.0939814 0.09425841 0.09457125 0.09488274 0.0951585
 0.09537537 0.09553467 0.09568141 0.09588133 0.09615898 0.09648123 0.09681505 0.09716998 0.09756172 0.09796602
 0.09834787 0.09872035 0.09912978 0.09957848 0.1000006 0.1003316 0.1005711 0.1007607 0.1009316 0.1011097
 0.1013425 0.1016735 0.102092 0.1025388 0.1029637 0.1033559 0.1037235 0.1040659 0.1043717 0.1046322
 0.1048502 0.1050365 0.1052042 0.1053715 0.1055642 0.1057988 0.1060558 0.1062855 0.1064458 0.1065208
 0.106503 0.1063853 0.1061875 0.1059674 0.1057714 0.1055783 0.1053116 0.1049068 0.1043501 0.1036571
 0.1028404 0.1019155 0.1009285 0.09996401 0.09912208 0.09848341 0.09809372 0.09797597 0.09814391 0.09858556
 0.09923173 0.09995861 0.1006308 0.1011331 0.1013691 0.1012671 0.1008205 0.1001102 0.09926702 0.09840828
 0.09760787 0.09689751 0.09627504 0.09572755 0.09527715 0.09501024 0.09505408 0.09552667 0.09650442 0.09800415
 0.09995413 0.102174 0.1044149 0.106459 0.1082044 0.1096679 0.1109248 0.1120539 0.1131153 0.1141366
 0.1151042 0.1159844 0.1167633 0.1174574 0.1180868 0.1186505 0.1191309 0.1195077 0.1197706 0.1199307
 0.1200202 0.1200777 0.1201388 0.1202359 0.1203891 0.1205818 0.1207536 0.1208257 0.1207365 0.1204628
 0.1200325 0.1195417 0.1191728 0.1191889 0.1198592 0.1213137 0.1234271 0.1258586 0.1282315 0.1302943
 0.1319565 0.1332384 0.1342218 0.1350132 0.1357068 0.1363589 0.1369892 0.1375984 0.1381824 0.138741
 0.1392796 0.1398058 0.1403281 0.1408522 0.1413718 0.1418666 0.1423219 0.1427506 0.1431865 0.1436528
 0.1441401 0.14462 0.1450788 0.1455314 0.1459948 0.1464567 0.1468864 0.1472737 0.1476413 0.1480207
 0.1484272 0.1488562 0.1492882 0.1496974 0.1500681 0.1504056 0.1507284 0.1510527 0.1513854 0.1517276
 0.1520782 0.1524356 0.1527972 0.1531601 0.1535241 0.1538887 0.1542425 0.1545651 0.1548494 0.155116
 0.1553954 0.1556976 0.1560075 0.156308 0.1566025 0.1569169 0.1572761 0.1576759 0.1580788 0.1584414
 0.1587475 0.1590141 0.159272 0.1595465 0.1598487 0.160175 0.1605107 0.1608381 0.1611487 0.1614479
 0.1617476 0.1620544 0.1623663 0.1626801 0.1629975 0.1633205 0.1636454 0.1639658 0.1642808 0.1645999
 0.1649339 0.1652798 0.1656168 0.165925 0.1662044 0.1664715 0.1667406 0.1670137 0.1672885 0.1675664
 0.1678505 0.168142 0.1684413 0.1687479 0.1690577 0.1693636 0.1696619 0.1699572 0.170259 0.1705719
 0.1708928 0.1712169 0.1715423 0.1718662 0.1721839 0.1724929 0.172797 0.1731031 0.1734136 0.1737231
 0.1740218 0.1743061 0.1745833 0.1748648 0.1751539 0.1754462 0.1757384 0.176031 0.1763249 0.1766193
 0.1769125 0.1772017 0.1774841 0.1777611 0.1780408 0.178332 0.1786364 0.1789457 0.1792464 0.1795318
 0.1798074 0.180085 0.1803713 0.1806628 0.1809499 0.1812266 0.1814976 0.181771 0.1820464 0.1823169
 0.1825819 0.182851 0.1831318 0.1834219 0.1837123 0.1839959 0.1842736 0.1845542 0.1848443 0.1851414
 0.1854386 0.1857308 0.1860132 0.1862846 0.1865546 0.1868373 0.1871364 0.1874436 0.1877499 0.1880513
 0.188348 0.1886439 0.1889413 0.1892371 0.1895278 0.1898144 0.1900971 0.1903723 0.1906382 0.1908989
 0.1911599 0.1914267 0.1917025 0.1919848 0.1922691 0.1925559 0.1928476 0.1931405 0.1934299 0.1937148
 0.1939962 0.1942775 0.1945658 0.1948627 0.1951597 0.1954502 0.1957368 0.1960228 0.1963103 0.196605
 0.1969086 0.1972118 0.1975064 0.1977962 0.1980871 0.1983774 0.1986647 0.1989507 0.1992398 0.1995399
 0.1998535 0.2001673 0.2004638 0.2007419 0.2010138 0.2012886 0.2015697 0.2018586 0.2021513 0.2024422
 0.2027306 0.2030178 0.2033034 0.2035903 0.203881 0.20417 0.2044546 0.204744 0.2050436 0.2053458
 0.2056453 0.2059418 0.2062295 0.2065061 0.206781 0.2070577 0.2073274 0.207593 0.2078665 0.2081349
 0.208336 0.2083238 0.2077718 0.2060552 0.202223 0.1951739 0.1840915 0.1689595 0.1507471 0.1310668
 0.1115832 0.09357934 0.07782134 0.06464778 0.05413353 0.04620051 0.0406847 0.03744486 0.03647954 0.03804921
 0.0428051 0.05140034 0.06304619 0.07424442 0.08015555 0.07841764 0.07140166 0.06404996 0.05977445 0.05881542
 0.05971605 0.06123167 0.0629652 0.06513996 0.06814314 0.07208179 0.07676314 0.0821759 0.08872635 0.09672204
 0.1057504 0.1148532 0.1233556 0.1313916 0.1395728 0.1482374 0.1570898 0.165493 0.1729748 0.1794542
 0.1851337 0.1902816 0.1950868 0.1996379 0.2039741 0.2080862 0.2118331 0.2149044 0.2169646 0.2179077
 0.2179864 0.2176758 0.2173908 0.2173184 0.2174669 0.2177988 0.2182909 0.2189279 0.219694 0.2205666
 0.2215095 0.2224836 0.2234627 0.2244273 0.2253496 0.2262035 0.226982 0.2276946 0.2283532 0.2289651
 0.2295337 0.2300633 0.2305613 0.2310326 0.2314752 0.2318898 0.2322857 0.2326697 0.2330364 0.2333768
 0.233689 0.2339785 0.2342557 0.2345334 0.2348158 0.2350937 0.2353589 0.2356163 0.2358756 0.2361407
 0.2364098 0.2366797 0.2369473 0.2372141 0.2374852 0.2377598 0.2380262 0.2382758 0.238515 0.2387609
 0.2390257 0.2393056 0.2395821 0.2398384 0.2400776 0.2403184 0.2405763 0.2408513 0.2411304 0.2413989
 0.2416561 0.2419213 0.2422132 0.2425236 0.2428262 0.2431082 0.2433767 0.2436435 0.2439198 0.2442139
 0.2445149 0.2447916 0.2450238 0.2452293 0.2454529 0.2457291 0.2460532 0.246388 0.2466991 0.2469817
 0.2472501 0.2475146 0.2477743 0.2480228 0.2482634 0.2485258 0.2488478 0.2492241 0.2496027 0.2499447
 0.2502594 0.2505698 0.2508854 0.2512136 0.2515486 0.2518514 0.2520839 0.2522732 0.2525102 0.2528737
 0.2533551 0.2538581 0.2542852 0.2546234 0.2549322 0.2552704 0.255657 0.2560577 0.2563639 0.2564629
 0.2564075 0.2564491 0.2568114 0.2574711 0.2582165 0.2588658 0.2593745 0.2597866 0.2601481 0.2604595
 0.260677 0.2607651 0.2607775 0.2608843 0.2612608 0.261907 0.2626274 0.2632267 0.2636657 0.2640021
 0.2642862 0.2645467 0.2647409 0.2646954 0.264291 0.2637811 0.263722 0.2644334 0.2656372 0.2667524
 0.2674674 0.267899 0.2682682 0.2686335 0.2689499 0.2691109 0.2688183 0.2677549 0.2661868 0.265131
 0.2655137 0.2672411 0.2693643 0.2710271 0.2720076 0.2725173 0.2728364 0.273124 0.2732972 0.273038
 0.2721475 0.2710176 0.2705341 0.2712557 0.2727832 0.2741886 0.2749666 0.2753029 0.2755731 0.2759242
 0.2761812 0.2757974 0.2741608 0.2714931 0.2693093 0.2693532 0.2718885 0.275382 0.2780252 0.2792908
 0.2797878 0.2799277 0.2793148 0.2774592 0.2745206 0.2712321 0.2686634 0.2680775 0.2700976 0.2736589
 0.2766119 0.2778441 0.2782204 0.2791567 0.2809262 0.2826778 0.2835393 0.2832921 0.2822124 0.2805859
 0.2785702 0.2766491 0.2759104 0.2772746 0.2803766 0.2836903 0.2859396 0.2870663 0.2875739 0.2870438
 0.2838276 0.2770306 0.2690057 0.2647102 0.2673282 0.2749351 0.2825664 0.287103 0.2889812 0.2898585
 0.2903945 0.2900689 0.2874852 0.2811317 0.271755 0.2638601 0.2626696 0.2689626 0.2781942 0.2847378
 0.2857226 0.2813528 0.2739035 0.2670386 0.2643083 0.2669938 0.2735522 0.2811469 0.2873495 0.2907958
 0.2911692 0.2890775 0.286006 0.2839491 0.2839657 0.2846045 0.2830002 0.27849 0.2737191 0.2707573
 0.2678977 0.2628194 0.2576903 0.2577298 0.2644297 0.2730615 0.2779812 0.2783405 0.2770897 0.2756093
 0.2713643 0.2615715 0.248482 0.2394777 0.24061 0.2503239 0.2608514 0.2658113 0.2652776 0.2635053
 0.2632466 0.2629484 0.2589568 0.2502848 0.2410159 0.236876 0.2391494 0.2435191 0.2451707 0.2426524
 0.2362092 0.226203 0.215814 0.21203 0.2197338 0.2357027 0.2511597 0.2590297 0.2565239 0.2435072
 0.2234022 0.2051987 0.1990958 0.2073885 0.2216882 0.2306495 0.2289892 0.2184162 0.2027352 0.1852159
 0.1700695 0.1629307 0.1674589 0.1815982 0.1977501 0.2066184 0.2023355 0.1869523 0.170685 0.1645695
 0.1705221 0.1801072 0.1840213 0.180522 0.1740933 0.1695727 0.16932 0.1729439 0.1777671 0.1812858
 0.1831689 0.1825757 0.1754671 0.1594937 0.1406362 0.1293085 0.1295142 0.1367472 0.1463329 0.1576193
 0.1686498 0.1733124 0.1682455 0.1592454 0.156345 0.1631671 0.1738252 0.1801227 0.1796468 0.1761971
 0.1738577 0.1726255 0.1704541 0.1679732 0.168672 0.1740772 0.1810867 0.1854285 0.1861159 0.185076
 0.1838832 0.182576 0.1807669 0.1783381 0.1753483 0.1721362 0.1692345 0.1667706 0.1643574 0.1616982
 0.1585951 0.1541333 0.1469096 0.1371109 0.1277838 0.122486 0.121592 0.12249 0.1234237 0.1245608
 0.1244718 0.1190662 0.1070153 0.09424282 0.08963355 0.09647137 0.1100032 0.1228148 0.1304028 0.1315299
 0.1261261 0.1157937 0.1060098 0.1043959 0.1144385 0.1321202 0.1502655 0.1647193 0.174729 0.1795308
 0.1778847 0.170886 0.1630122 0.1595971 0.1636344 0.1744035 0.1875844 0.1962531 0.1942715 0.1824857
 0.1716295 0.174403 0.1920161 0.2120422 0.2223901 0.2236187 0.2239146 0.2263753 0.2275015 0.2262677
 0.227718 0.2359999 0.2481904 0.257145 0.2577597 0.2489778 0.2330753 0.2160992 0.2063076 0.2076396
 0.2153572 0.2212773 0.2217372 0.2171634 0.2072123 0.192677 0.1805708 0.1799302 0.191294 0.2054528
 0.2139122 0.216618 0.2181521 0.2198704 0.2183627 0.2107338 0.1994484 0.190796 0.1886671 0.1911543
 0.1937863 0.194261 0.1925322 0.1881701 0.1806189 0.1719764 0.1670069 0.1690544 0.1766622 0.1850085
 0.190278 0.1920854 0.1922719 0.1925363 0.1932652 0.1937344 0.1933703 0.1933786 0.196492 0.2039436
 0.2133161 0.2209347 0.2260503 0.2310795 0.2378039 0.2448532 0.2493089 0.2498764 0.2481673 0.2473685
 0.2497187 0.2547165 0.2594692 0.2611554 0.2597042 0.2580971 0.2596074 0.2646603 0.2707717 0.275367
 0.2778898 0.2792556 0.2803262 0.2811951 0.2811581 0.2792742 0.275786 0.272967 0.273537 0.2779561
 0.2839497 0.2888084 0.291535 0.2927124 0.2930609 0.2926508 0.2913168 0.2893689 0.287628 0.2867885
 0.28693 0.2876777 0.2886271 0.2895189 0.290213 0.2906871 0.2910178 0.2912958 0.291597 0.2920156
 0.2926131 0.293321 0.2940036 0.2946534 0.2954229 0.2964011 0.297439 0.2982726 0.2987513 0.2988476
 0.2985088 0.2976575 0.2963383 0.2947186 0.2928966 0.2908418 0.2886524 0.2868254 0.2861112 0.2869757
 0.289189 0.2919684 0.2945127 0.2963982 0.2975841 0.2982205 0.2985108 0.2986453 0.2987446 0.2988277
 0.2988498 0.298775 0.298613 0.2983975 0.2981552 0.2979128 0.297716 0.2976085 0.297585 0.2975851
 0.2975352 0.2973919 0.2971566 0.296865 0.2965528 0.2962132 0.2957874 0.2952051 0.2944412 0.2935411
 0.2926013 0.2917175 0.2909252 0.2901757 0.2893761 0.2884543 0.2873724 0.2860972 0.2846202 0.2830284
 0.2814949 0.2801421 0.2789394 0.2777669 0.2765389 0.275231 0.2738339 0.2723373 0.2707471 0.269085
 0.2673759 0.2656448 0.2639076 0.2621583 0.2603714 0.2585218 0.2565952 0.2545887 0.2525111 0.2503726
 0.2481498 0.2457547 0.2430522 0.23991 0.2362287 0.2319414 0.2270316 0.2215781 0.2157673 0.2098382
 0.2040103 0.198451 0.1932827 0.1886071 0.1845269 0.1811407 0.1785163 0.1766762 0.1756117 0.1753027
 0.1757241 0.1768388 0.1785785 0.180822 0.1833988 0.1861157 0.1887802 0.1912285 0.1933784 0.1952766
 0.1970684 0.198891 0.2007833 0.2026916 0.204541 0.2062793 0.2078631 0.2092398 0.2103691 0.2112464
 0.2118908 0.2123268 0.2125853 0.2127043 0.2127178 0.2126575 0.2125706 0.2125304 0.2126181 0.2128893
 0.2133489 0.2139618 0.2146891 0.2155049 0.2163834 0.2172886 0.2181882 0.2190704 0.2199498 0.2208595
 0.2218347 0.2229114 0.2241523 0.2256543 0.2275001 0.2297013 0.2321993 0.2348977 0.2376768 0.240398
 0.2429229 0.2451382 0.2469743 0.2484204 0.2495174 0.2503268 0.2509031 0.2512878 0.25151 0.2515892
 0.2515413 0.2513803 0.2511111 0.2507316 0.2502391 0.2496327 0.2489209 0.2481332 0.2473095 0.2464747
 0.24564 0.2448205 0.2440302 0.2432674 0.2425256 0.241805 0.2410999 0.2403902 0.2396561 0.2388878
 0.2380759 0.2372015 0.2362346 0.2351448 0.2339244 0.2325953 0.2311788 0.2296697 0.2280568 0.2263546
 0.2245984 0.2228199 0.2210368 0.2192507 0.2174442 0.2155788 0.213598 0.2114482 0.2091276 0.2067123
 0.2043133 0.2020058 0.1998102 0.1977189 0.1957175 0.1937913 0.1919325 0.1901424 0.1884264 0.1867936
 0.1852527 0.1838 0.1824214 0.1811121 0.1798877 0.1787748 0.1777993 0.1769735 0.1762817 0.1756832
 0.1751344 0.1746129 0.1741311 0.1737317 0.1734501 0.1732643 0.1730939 0.1728545 0.1725079 0.1720714
 0.1715991 0.1711484 0.1707488 0.1703982 0.1700775 0.1697467 0.1693315 0.1687343 0.1678638 0.1666591
 0.1651066 0.1632462 0.1611568 0.1589448 0.1567451 0.1546976 0.1528996 0.1513968 0.1502058 0.1493032
 0.1486021 0.1479955 0.1474423 0.1469933 0.1467343 0.1466925 0.1467736 0.1468103 0.1467143 0.1465711
 0.1465554 0.1467779 0.1472233 0.1477855 0.1483346 0.1487802 0.1490923 0.1492721 0.1493306 0.1492959
 0.1491939 0.1490183 0.1487516 0.1484052 0.1480045 0.1475587 0.1470675 0.1465259 0.1459132 0.1452081
 0.144411 0.1435322 0.1425778 0.1415444 0.1403975 0.1390934 0.1376911 0.1364169 0.1355542 0.1352726
 0.1355515 0.13621 0.1370247 0.1378699 0.1386923 0.1393238 0.1395121 0.1393065 0.1392809 0.140117
 0.141931 0.1441374 0.1459869 0.1471114 0.1475383 0.1473898 0.1467445 0.1456679 0.1441744 0.1422043
 0.1397577 0.1369706 0.1339986 0.130956 0.1279959 0.1252962 0.1229661 0.1210478 0.1195406 0.1184561
 0.1178883 0.1174749 0.1154332 0.1094778 0.1003524 0.093431 0.09421758 0.1021623 0.111043 0.1155616
 0.1155736 0.1138933 0.1124587 0.1115747 0.1111599 0.1113411 0.1122138 0.11363 0.1152149 0.1165623
 0.1174761 0.1179609 0.1179653 0.1171698 0.1149207 0.1104372 0.1034526 0.09479682 0.0861138 0.07889678
 0.07383408 0.07083759 0.06934098 0.06862057 0.06816544 0.06791998 0.06817209 0.06920758 0.07107326 0.07362369
 0.07667685 0.07999935 0.08319863 0.08586231 0.08787389 0.08942719 0.09068688 0.09159379 0.09202603 0.09198806
 0.09159604 0.09098405 0.09025849 0.08947576 0.08861978 0.08762683 0.08649604 0.08539557 0.08458129 0.08416001
 0.08400781 0.08395331 0.08393393 0.08394517 0.08396306 0.0839609 0.08393076 0.08390013 0.08396724 0.08424322
 0.08470596 0.08518447 0.08551893 0.08568576 0.08576804 0.08581652 0.08571692 0.08527547 0.08453299 0.08383384
 0.08338013 0.08288866 0.08197436 0.08075733 0.07980078 0.0794962 0.07972765 0.08009671 0.08028238 0.08019385
 0.0799651 0.0798839 0.0801928 0.08081208</values></Ydata></ScSm><ScRf><Ydata ylabel="Single channel"><values byteorder="INTEL" format="FLOAT32" numvalues="1820"> 0.06059145 0.06076151 0.0608632 0.06089593 0.0608869 0.06088581 0.06094518 0.06108866 0.0612921 0.06149407
 0.06163546 0.06169926 0.06170451 0.06166668 0.06159487 0.06153286 0.0615572 0.06170469 0.06191911 0.06208751
 0.06213006 0.06206945 0.06201983 0.06207586 0.06218687 0.06216799 0.06187749 0.0613824 0.06091362 0.06064897
 0.06060053 0.06075412 0.06118737 0.06185793 0.06235798 0.06220344 0.06144284 0.06069507 0.0604619 0.06064393
 0.06082509 0.06075472 0.06042831 0.0599967 0.05980942 0.0603191 0.06163701 0.06316818 0.06382754 0.06272551
 0.05980159 0.05602457 0.05303549 0.0522695 0.05394587 0.05677482 0.05892476 0.0594852 0.05890674 0.05807512
 0.05735416 0.05669788 0.05627168 0.05649149 0.05744972 0.0585227 0.0586923 0.05741967 0.05528744 0.05358503
 0.05313033 0.05375781 0.05501056 0.05663742 0.05788939 0.05712353 0.05342127 0.04862982 0.04653597 0.04926742
 0.05502283 0.05983167 0.06108433 0.05899656 0.05545878 0.05246612 0.05136095 0.05247482 0.05507904 0.05799192
 0.06029113 0.0613479 0.06067041 0.058335 0.05540267 0.05339976 0.05337682 0.05549908 0.05901749 0.06233778
 0.06374139 0.06265314 0.06002485 0.05733184 0.05560434 0.05542877 0.05708732 0.06026509 0.06403132 0.06737834
 0.06963384 0.07053147 0.07026871 0.06938399 0.06834682 0.06747159 0.06719956 0.06783286 0.06880479 0.06889047
 0.0675407 0.06562057 0.06452132 0.06472147 0.06540437 0.06545067 0.06457179 0.06312607 0.06100804 0.05762621
 0.0532566 0.04940734 0.04731153 0.04698619 0.0481284 0.05059807 0.05336196 0.05442654 0.05301504 0.05096405
 0.05089983 0.05343667 0.05685715 0.05921375 0.06013563 0.06069771 0.06203195 0.06416439 0.06587313 0.06561187
 0.06304511 0.05990889 0.05878674 0.06057619 0.06362504 0.06576128 0.06658175 0.06721168 0.06833408 0.0691287
 0.06812677 0.06495744 0.06128544 0.05978173 0.06179451 0.06599704 0.06935081 0.06935443 0.06572866 0.0604778
 0.05632791 0.05483925 0.05599453 0.05924711 0.06412411 0.0696689 0.0741832 0.07617497 0.07544268 0.07300808
 0.06994687 0.0663873 0.06205742 0.05793633 0.05646871 0.059257 0.06501263 0.07062997 0.07395917 0.07487793
 0.07408185 0.07176031 0.06780667 0.06311533 0.06000344 0.06041073 0.06356523 0.06641978 0.06684211 0.06556214
 0.06460725 0.06477384 0.06532499 0.06555186 0.06579188 0.06685981 0.06888385 0.07099764 0.07217805 0.07217276
 0.07154603 0.07102127 0.07082199 0.07050754 0.06959726 0.06853405 0.06862757 0.07061712 0.07365192 0.07616495
 0.07744478 0.07789195 0.07796435 0.07737027 0.07548584 0.07252184 0.06999996 0.06962369 0.07163211 0.07464884
 0.07711117 0.07839465 0.07867605 0.07837056 0.07784651 0.07730383 0.07683671 0.07668897 0.07719167 0.07828584
 0.07941586 0.08008531 0.08026364 0.08013372 0.07973567 0.07904522 0.07823437 0.0776709 0.0776501 0.07817174
 0.07899204 0.07984167 0.08051942 0.08084431 0.08071621 0.08026434 0.07977775 0.07944252 0.07926905 0.07926877
 0.07952158 0.08001588 0.08056454 0.08095877 0.08113606 0.08115762 0.08108886 0.08095093 0.08075905 0.08057436
 0.08050746 0.08063896 0.08091864 0.0811981 0.08140396 0.08161084 0.08188099 0.08211102 0.08213996 0.08196585
 0.08175886 0.08167556 0.08173256 0.08185068 0.08194515 0.08194044 0.08175831 0.08138673 0.08097664 0.08078556
 0.08096981 0.08147216 0.08211985 0.08275033 0.08323301 0.08349031 0.08355597 0.08353951 0.08349676 0.08339064
 0.08319376 0.0829816 0.08290576 0.08308017 0.08348098 0.08395708 0.0843481 0.08458228 0.08467808 0.08471516
 0.08480262 0.08499055 0.08519188 0.08526563 0.08519533 0.08511837 0.08515973 0.08528952 0.08537023 0.0853207
 0.08521023 0.08518653 0.08532193 0.08555292 0.08576917 0.08593167 0.08608832 0.08628759 0.08648828 0.08657214
 0.08647086 0.08626418 0.08610249 0.08604567 0.08604455 0.08607261 0.08618354 0.08640535 0.08665046 0.08679157
 0.08680393 0.08678447 0.08682701 0.08691134 0.08693456 0.0868331 0.08664776 0.08647765 0.08639824 0.08642201
 0.0865058 0.0865804 0.08658975 0.08652273 0.08641236 0.08630078 0.08620968 0.086153 0.08617008 0.08631099
 0.08656083 0.08679447 0.08685174 0.08668116 0.08639853 0.08618449 0.0861215 0.086135 0.0860877 0.08591406
 0.08565905 0.0854103 0.08522026 0.08508857 0.08499048 0.0849105 0.08486401 0.0848937 0.08502148 0.08518633
 0.08525639 0.08514066 0.08488311 0.08461926 0.08445126 0.08438846 0.0843833 0.08438408 0.08437106 0.08437374
 0.08443224 0.08452112 0.08455253 0.08448155 0.08436783 0.08431193 0.08437166 0.08454491 0.08477253 0.08494429
 0.08496906 0.0848693 0.08476423 0.08474445 0.08480029 0.08487781 0.08495435 0.08503716 0.08512655 0.08521753
 0.08532645 0.08548751 0.08571559 0.08598142 0.08622589 0.08640015 0.08650352 0.08659281 0.08674671 0.08700521
 0.0873358 0.08765981 0.08791572 0.08810427 0.08827437 0.08846468 0.08866952 0.08887241 0.08909269 0.08936568
 0.08968662 0.09001076 0.09030941 0.09059346 0.09088153 0.09117402 0.09146653 0.09177202 0.09212076 0.09253152
 0.09297205 0.0933574 0.09361346 0.09374884 0.09385557 0.09404184 0.0943582 0.09475629 0.09510793 0.09530625
 0.09537777 0.09546398 0.09566581 0.09594172 0.09619367 0.09641649 0.09670413 0.09711464 0.09757988 0.09796788
 0.09821228 0.09836468 0.09852593 0.09873611 0.09894057 0.09906884 0.09913029 0.09920354 0.09933852 0.09951736
 0.09972452 0.09999965 0.1003769 0.1008077 0.1011931 0.1014762 0.1016704 0.1018155 0.1019371 0.1020367
 0.1020973 0.1021136 0.1021233 0.1021786 0.102278 0.1023637 0.1024017 0.1024288 0.1025026 0.102644
 0.1028486 0.1031161 0.1034292 0.1037336 0.1039902 0.1042394 0.1045595 0.1049456 0.1052792 0.1054532
 0.1054903 0.1054945 0.1055242 0.1055716 0.105646 0.1057998 0.1060604 0.1063897 0.1067322 0.10707
 0.1074135 0.1077615 0.1080827 0.1083271 0.1084542 0.1084651 0.1084175 0.1084036 0.1085017 0.108733
 0.1090534 0.1093888 0.1096812 0.1098989 0.1100144 0.1100114 0.1099345 0.1098995 0.1100027 0.110214
 0.1103885 0.1103917 0.1101862 0.1098044 0.1092799 0.1086384 0.107934 0.1072582 0.1067011 0.1063106
 0.1060968 0.1060742 0.106282 0.1067392 0.1073843 0.1080896 0.108739 0.1092606 0.109581 0.1096053
 0.109285 0.1086837 0.1079428 0.1071942 0.1065108 0.1059033 0.1053325 0.1047597 0.1042278 0.1038899
 0.1039348 0.1044794 0.1055162 0.1069211 0.1084831 0.1099654 0.1112016 0.1121664 0.1129505 0.113659
 0.1143403 0.1150027 0.1156601 0.1163226 0.1169595 0.1175193 0.1179912 0.1184144 0.1188241 0.1192148
 0.119559 0.1198367 0.1200542 0.1202471 0.1204489 0.1206384 0.1207444 0.1207251 0.1206193 0.1204971
 0.1203811 0.1202325 0.1199936 0.1196336 0.119185 0.1187692 0.1185794 0.1187959 0.1194806 0.1205401
 0.1217969 0.1231021 0.124372 0.125533 0.1264886 0.1271735 0.1276159 0.127914 0.1281633 0.1284202
 0.1287076 0.1290235 0.1293468 0.1296555 0.1299434 0.1302246 0.130524 0.1308563 0.1312036 0.1315219
 0.1317824 0.1320094 0.1322669 0.1326 0.132989 0.133368 0.1336954 0.1339931 0.1342974 0.1345927
 0.13483 0.1350037 0.13517 0.1353905 0.1356876 0.1360479 0.1364297 0.1367679 0.1370131 0.1371787
 0.1373292 0.1375172 0.1377486 0.1380025 0.138261 0.1385156 0.1387653 0.1390222 0.1393088 0.1396289
 0.1399416 0.1401855 0.1403412 0.1404577 0.1406063 0.1408146 0.1410526 0.1412746 0.1414677 0.1416646
 0.1419128 0.1422217 0.1425417 0.1428019 0.1429734 0.1430906 0.1432133 0.1433764 0.1435754 0.1437868
 0.1439936 0.1441904 0.1443791 0.1445665 0.1447631 0.1449763 0.1452039 0.1454353 0.1456577 0.145865
 0.1460626 0.1462634 0.1464797 0.1467217 0.1469983 0.1473024 0.1475998 0.1478475 0.1480308 0.1481715
 0.148302 0.1484419 0.1485975 0.1487701 0.1489581 0.1491567 0.1493574 0.1495528 0.1497436 0.1499386
 0.1501437 0.1503556 0.1505693 0.1507864 0.1510112 0.151244 0.1514784 0.1517023 0.1519048 0.152085
 0.1522569 0.1524412 0.15265 0.1528755 0.1530938 0.1532854 0.1534534 0.1536185 0.1537967 0.1539889
 0.1541875 0.1543851 0.1545778 0.1547665 0.1549566 0.1551543 0.1553613 0.155573 0.155781 0.1559789
 0.1561671 0.1563499 0.1565314 0.1567154 0.1569064 0.1571058 0.157312 0.1575242 0.1577421 0.1579611
 0.1581722 0.15837 0.1585563 0.1587392 0.158927 0.1591218 0.1593188 0.1595142 0.1597104 0.1599099
 0.1601104 0.160309 0.160507 0.1607065 0.1609088 0.1611142 0.1613237 0.1615392 0.1617629 0.1619951
 0.1622296 0.1624563 0.1626683 0.1628685 0.1630698 0.1632858 0.1635176 0.1637521 0.1639743 0.164175
 0.1643521 0.164514 0.1646773 0.164852 0.1650339 0.1652168 0.1654026 0.165593 0.165783 0.1659689
 0.1661542 0.1663436 0.1665381 0.1667352 0.1669305 0.1671231 0.1673177 0.1675172 0.1677178 0.1679167
 0.168117 0.1683211 0.168527 0.1687335 0.1689429 0.1691585 0.1693829 0.1696135 0.1698398 0.1700537
 0.1702592 0.1704626 0.1706638 0.1708624 0.1710628 0.1712672 0.1714752 0.1716885 0.1719058 0.1721191
 0.1723239 0.172524 0.1727235 0.1729249 0.1731313 0.1733438 0.1735617 0.1737897 0.1740292 0.1742651
 0.1744808 0.1746779 0.1748685 0.1750592 0.175256 0.1754649 0.1756835 0.1759064 0.176134 0.1763635
 0.1765847 0.1767944 0.1769953 0.177176 0.1772952 0.1772428 0.1767442 0.1752569 0.1719578 0.1659052
 0.1564095 0.143462 0.1278917 0.111079 0.09444889 0.07909068 0.06564614 0.05439821 0.04541562 0.03863817
 0.0339284 0.0311663 0.03034968 0.03169484 0.03574736 0.04305889 0.05296301 0.06249052 0.06752431 0.06605014
 0.0600838 0.05383119 0.05018965 0.04935415 0.05008644 0.05134222 0.05279772 0.05464496 0.0572055 0.06056077
 0.06454238 0.06914443 0.07471801 0.08152221 0.08919667 0.09691986 0.1041196 0.1109164 0.1178395 0.1251857
 0.1327075 0.1398581 0.1462239 0.1517275 0.1565431 0.1609082 0.1649878 0.168852 0.1725275 0.1760094
 0.1791836 0.1817861 0.1835274 0.1843142 0.184361 0.184071 0.1837978 0.1837036 0.1838005 0.1840618
 0.1844702 0.1850104 0.1856611 0.186395 0.1871771 0.1879755 0.1887738 0.1895615 0.1903211 0.1910352
 0.1916977 0.1923089 0.1928703 0.1933862 0.1938598 0.1942909 0.1946836 0.1950487 0.1953967 0.1957346
 0.1960672 0.1963914 0.1966944 0.1969665 0.19721 0.197432 0.1976385 0.1978385 0.1980444 0.1982631
 0.1984929 0.1987267 0.1989537 0.1991654 0.1993629 0.1995563 0.1997536 0.1999556 0.2001586 0.2003586
 0.2005542 0.2007466 0.2009362 0.2011206 0.2012991 0.2014778 0.2016645 0.2018603 0.2020581 0.2022504
 0.2024377 0.202627 0.2028218 0.203018 0.2032161 0.2034276 0.2036577 0.2038913 0.2041087 0.2043079
 0.2044997 0.2046953 0.2049078 0.2051473 0.2053977 0.2056173 0.2057803 0.2059093 0.2060563 0.2062549
 0.2064945 0.2067367 0.2069522 0.2071417 0.2073241 0.2075143 0.2077112 0.2079 0.208071 0.2082424
 0.2084495 0.2087026 0.2089731 0.2092317 0.2094742 0.2097059 0.2099311 0.2101615 0.2103996 0.2106134
 0.2107644 0.210869 0.2110081 0.2112609 0.2116277 0.2120213 0.2123441 0.2125732 0.2127597 0.2129644
 0.2132172 0.2134963 0.2137102 0.2137612 0.2136916 0.2137117 0.2140045 0.2145382 0.2151205 0.2155959
 0.2159415 0.2162152 0.216467 0.2166924 0.21684 0.2168677 0.216822 0.2168581 0.2171319 0.2176384
 0.2182024 0.2186574 0.218976 0.2192091 0.2193942 0.2195527 0.2196548 0.2195647 0.2191861 0.218724
 0.2186298 0.2191608 0.2200897 0.2209504 0.221498 0.2218271 0.2221074 0.2223757 0.22259 0.2226669
 0.2223725 0.2214562 0.2201383 0.2192515 0.2195535 0.2209623 0.2226913 0.2240367 0.2248245 0.225235
 0.2254933 0.2257169 0.2258276 0.2255637 0.2247715 0.2237868 0.2233485 0.2239194 0.2251671 0.2263215
 0.2269605 0.2272328 0.2274433 0.2277105 0.2278898 0.227531 0.2261314 0.2238827 0.2220474 0.2220662
 0.2241442 0.2270017 0.229144 0.2301455 0.2305215 0.2306186 0.230106 0.2285683 0.2261283 0.2233899
 0.2212414 0.2207347 0.2223938 0.2253396 0.2277845 0.2287942 0.2290792 0.2298209 0.2312611 0.2327043
 0.2334262 0.2332366 0.2323546 0.2310088 0.2293317 0.2277351 0.2271242 0.2282504 0.2307988 0.2335097
 0.2353415 0.2362571 0.2366735 0.2362376 0.2335784 0.2279535 0.221314 0.2177659 0.219945 0.2262584
 0.2325931 0.2363607 0.2379218 0.2386572 0.2391197 0.2388763 0.2367608 0.2315119 0.2237492 0.2172204
 0.2162635 0.2215121 0.2291823 0.2346149 0.2354492 0.23186 0.225724 0.2200691 0.2178384 0.220101
 0.2255845 0.2319347 0.2371283 0.2400302 0.2403825 0.2386894 0.2361776 0.2345019 0.2345469 0.2351172
 0.2338442 0.2301808 0.2263148 0.2239577 0.2216921 0.2175873 0.21344 0.2135946 0.2193017 0.2266276
 0.2308737 0.2313419 0.2304901 0.2294475 0.2260736 0.2180348 0.2072225 0.199838 0.2009736 0.2093296
 0.218378 0.222759 0.2225369 0.2212793 0.2212916 0.2212677 0.218131 0.211054 0.2035063 0.2003487
 0.202664 0.2067838 0.208626 0.2069454 0.2019124 0.1938171 0.1854181 0.1827781 0.1901551 0.2047969
 0.2190932 0.2268345 0.2254819 0.2148146 0.1978239 0.1825421 0.1781302 0.1866684 0.2006253 0.2097857
 0.2093518 0.2007925 0.1874842 0.1724137 0.1595741 0.1543918 0.1604836 0.175994 0.1935975 0.2041115
 0.2015719 0.1879062 0.1734027 0.1693056 0.1775431 0.1893655 0.1951368 0.1930829 0.1879201 0.1848064
 0.1863728 0.1922346 0.1993895 0.2050454 0.2088456 0.2096822 0.2026857 0.1850774 0.1639114 0.1514289
 0.1523494 0.1614482 0.1733398 0.1873157 0.2009843 0.20695 0.20115 0.1905554 0.1872399 0.1955587
 0.2084208 0.2159711 0.2153518 0.2112143 0.2085386 0.2073317 0.2051278 0.2027397 0.2044519 0.2121161
 0.2219232 0.2286542 0.2311056 0.2316229 0.232117 0.2326097 0.2325824 0.2318534 0.2304961 0.22896
 0.2279373 0.2275851 0.2273753 0.2268895 0.2257967 0.2226397 0.2151515 0.2034443 0.1920358 0.1862704
 0.1866514 0.1892147 0.1914192 0.1936269 0.1936088 0.1849948 0.1656868 0.1447669 0.1358932 0.1441046
 0.1620677 0.1784389 0.1865539 0.1850098 0.1742854 0.1569434 0.1403309 0.1342769 0.1430811 0.1613936
 0.1799358 0.1934947 0.2015119 0.2036486 0.1988084 0.1883031 0.1771236 0.1710848 0.1732838 0.1827379
 0.1947154 0.2019576 0.1982333 0.1845283 0.1717684 0.1727545 0.1887346 0.2073268 0.2164422 0.2165286
 0.2156517 0.2169585 0.217121 0.2151469 0.2159121 0.2234731 0.2351073 0.2440024 0.2452411 0.2377424
 0.2236347 0.2087523 0.2011132 0.2044515 0.2139051 0.2212512 0.222838 0.2190955 0.2096813 0.1955157
 0.1839286 0.184256 0.1970251 0.2127245 0.222614 0.2266896 0.2297171 0.2330201 0.2328742 0.2261581
 0.2155808 0.2080078 0.2076739 0.2124878 0.2175747 0.2204148 0.2208576 0.2182027 0.2116396 0.2035749
 0.1996683 0.2039131 0.2144779 0.2253816 0.2318181 0.2331701 0.2316256 0.2293379 0.2269692 0.2238699
 0.2195207 0.2153744 0.2145571 0.218528 0.2247593 0.2293416 0.2314588 0.2336424 0.2377889 0.2425478
 0.2449685 0.243719 0.2403452 0.2379177 0.2385689 0.2418042 0.244872 0.2451126 0.2424905 0.2398664
 0.2403629 0.2443908 0.2496065 0.2535789 0.2557631 0.256987 0.2580282 0.2589326 0.2589735 0.2571951
 0.2537653 0.25077 0.2507373 0.2541322 0.2589125 0.2626402 0.2644576 0.264957 0.2648326 0.264154
 0.2627643 0.2609382 0.2594015 0.258749 0.2590148 0.2598277 0.2608009 0.2616921 0.2623763 0.2628343
 0.2631285 0.2633181 0.2634305 0.2635084 0.263592 0.2636391 0.2635693 0.2634235 0.2633861 0.2635838
 0.2639254 0.2641958 0.2642446 0.2640111 0.2634344 0.2624671 0.2611811 0.2597388 0.258219 0.2565691
 0.2548395 0.2534335 0.252986 0.2538871 0.2559183 0.2583857 0.2605951 0.262197 0.2631791 0.2636828
 0.2638776 0.2639142 0.2638906 0.2638317 0.263716 0.2635224 0.2632498 0.2629076 0.2625097 0.262087
 0.2616928 0.2613734 0.2611263 0.2608924 0.2605975 0.2601999 0.2597074 0.2591604 0.2585975 0.2580205
 0.2573853 0.2566345 0.255748 0.2547699 0.2537913 0.2528957 0.2521024 0.25136 0.2506016 0.2497933
 0.2489141 0.2479222 0.246797 0.2456169 0.2445404 0.2436768 0.2429978 0.242386 0.2417335 0.2409804
 0.2401044 0.2391195 0.2380724 0.237006 0.2359272 0.2348168 0.2336513 0.2324077 0.231068 0.2296339
 0.2281226 0.2265497 0.2249303 0.2232841 0.2216069 0.2198326 0.2178398 0.2154955 0.2126869 0.2093327
 0.2054058 0.2009666 0.1961718 0.1912347 0.1863616 0.1817119 0.1774025 0.1735302 0.1701786 0.1674137
 0.165288 0.1638466 0.1631222 0.163125 0.16384 0.1652274 0.1672159 0.1696919 0.1725027 0.1754776
 0.1784508 0.1812766 0.1838606 0.186202 0.1883856 0.1904923 0.1925152 0.194379 0.1960246 0.1974488
 0.1986739 0.1997123 0.2005688 0.2012613 0.2018298 0.2023181 0.2027505 0.2031295 0.2034532 0.2037258
 0.203956 0.2041568 0.2043432 0.2045241 0.2047027 0.2048889 0.2051036 0.2053752 0.2057337 0.2061929
 0.2067278 0.2072861 0.2078376 0.2083986 0.2090043 0.2096732 0.2104103 0.2112307 0.2121675 0.213254
 0.2144941 0.2158472 0.2172388 0.2185823 0.2197936 0.2208021 0.2215658 0.2220769 0.2223543 0.2224311
 0.2223436 0.2221255 0.2218089 0.221425 0.2209949 0.2205187 0.2199833 0.2193797 0.2187099 0.2179854
 0.2172306 0.2164809 0.2157635 0.2150792 0.2144113 0.213754 0.2131213 0.2125245 0.2119503 0.2113737
 0.2107871 0.2102009 0.2096219 0.2090441 0.2084614 0.2078673 0.2072383 0.2065358 0.205734 0.2048345
 0.203844 0.2027543 0.2015596 0.2002773 0.1989271 0.1975015 0.1959791 0.1943634 0.1926832 0.1909553
 0.1891584 0.1872567 0.185249 0.1831985 0.1812074 0.1793578 0.1776694 0.1761077 0.1746242 0.1731945
 0.1718264 0.1705352 0.1693169 0.1681556 0.1670483 0.1660037 0.1650219 0.1640926 0.1632105 0.1623832
 0.1616279 0.1609637 0.1604002 0.1599302 0.1595347 0.159198 0.1589236 0.1587403 0.1586772 0.1587175
 0.158792 0.158827 0.1587908 0.1586945 0.1585693 0.1584435 0.1583298 0.158233 0.1581581 0.1580881
 0.1579553 0.1576603 0.1571134 0.1562537 0.1550571 0.1535509 0.1518129 0.1499537 0.1481055 0.1464013
 0.1449357 0.1437514 0.1428565 0.1422208 0.1417642 0.1413966 0.1410849 0.1408747 0.140845 0.1410173
 0.1412874 0.1414846 0.1415395 0.14156 0.1417202 0.1421199 0.1427517 0.1435265 0.1443103 0.1449901
 0.1455182 0.1458905 0.1461207 0.146242 0.146284 0.1462419 0.1461052 0.1458944 0.1456386 0.1453443
 0.1450028 0.1445947 0.1440981 0.1435177 0.1428758 0.142167 0.1413668 0.140471 0.1394663 0.1383164
 0.1370672 0.135927 0.1351713 0.1349816 0.1353647 0.1361638 0.1371669 0.1382476 0.1393316 0.14022
 0.1406495 0.1406808 0.1408873 0.1419395 0.1439664 0.1464121 0.1485354 0.149952 0.1506647 0.1507647
 0.1503039 0.1493496 0.1479378 0.1460208 0.143598 0.1408036 0.1377948 0.1347082 0.1317395 0.1290841
 0.1268214 0.1249657 0.1235285 0.1225557 0.1221701 0.1219967 0.120143 0.1141764 0.1048725 0.09789971
 0.09905089 0.1077289 0.1173598 0.1223345 0.1224803 0.1207821 0.1193119 0.1183724 0.1178351 0.1178356
 0.1185115 0.1197285 0.1211039 0.1222331 0.122936 0.1232455 0.1231401 0.1222831 0.1199298 0.1151903
 0.107757 0.0985251 0.08928216 0.0816561 0.07636403 0.07323956 0.07163077 0.07079019 0.0702274 0.06991825
 0.07017585 0.0712825 0.07325578 0.07593324 0.07913525 0.08261976 0.0859758 0.08878835 0.09094831 0.09265004
 0.09405611 0.09509943 0.09563507 0.09564969 0.09526779 0.09464328 0.09389998 0.09310664 0.09223031 0.0911584
 0.08987944 0.08863656 0.08777601 0.08741556 0.0873666 0.08738352 0.08736583 0.08731913 0.08726008 0.08719717
 0.08713861 0.08711791 0.08722574 0.08755182 0.08806211 0.08858545 0.0889467 0.08909909 0.08912858 0.08910444
 0.08891568 0.08837115 0.0875333 0.08676344 0.08625762 0.08571941 0.08475309 0.08347252 0.08245394 0.08211073
 0.08231847 0.08264551 0.08276023 0.08258888 0.08228384 0.08215994 0.08249613 0.08320553 0.08379041 0.08380585
</values></Ydata></ScRf><Data_Parameters_AB><parameter name="DPF">1</parameter><parameter name="NPT">3497</parameter><parameter name="FXV">3996</parameter><parameter name="LXV">500</parameter><parameter name="CSF">1</parameter><parameter name="MXY">0.19184572994709</parameter><parameter name="MNY">-0.0847812294960022</parameter><parameter name="DAT">02/06/2022</parameter><parameter name="TIM">11:51:39.852 (GMT+2)</parameter><parameter name="DXU">WN</parameter></Data_Parameters_AB><AB__Qtest><MainReport name="Quality Test Report"><Header><Line><Legend>Test result ok/not ok [1/0]: </Legend><Value>0</Value></Line><Line><Legend>Method file: </Legend><Value>C:\Users\Public\Documents\Bruker\OPUS_8.2.28\QT\IRBT_v3_default.QT</Value></Line></Header><Matrix><Line><Legend></Legend><Legend>min</Legend><Legend>max</Legend><Legend>measured</Legend></Line><Line><Value>Absorption (X-Range 1):</Value><Value>0.400000</Value><Value>2.000000</Value><Value>0.196189</Value></Line><Line><Value>Noise (X-Range 4):</Value><Value></Value><Value>0.000300</Value><Value>0.000060</Value></Line><Line><Value>Signal/Noise (X-Range 2):</Value><Value>200.000000</Value><Value></Value><Value>43.729637</Value></Line><Line><Value>Signal/Noise (X-Range 3):</Value><Value>40.000000</Value><Value></Value><Value>30.658239</Value></Line><Line><Value>Water vapour (X-Range 5):</Value><Value></Value><Value>0.000300</Value><Value>0.000069</Value></Line><Line><Value>Signal/Water (X-Range 2):</Value><Value>100.000000</Value><Value></Value><Value>37.842059</Value></Line><Line><Value>Signal/Water (X-Range 3):</Value><Value>20.000000</Value><Value></Value><Value>26.530540</Value></Line><Line><Value>Fringes (X-Range 6):</Value><Value></Value><Value>0.000100</Value><Value>0.000059</Value></Line></Matrix></MainReport></AB__Qtest><Data_Parameters_ScSm><parameter name="DPF">1</parameter><parameter name="NPT">1814</parameter><parameter name="FXV">3996.33169228125</parameter><parameter name="LXV">499.541461535156</parameter><parameter name="CSF">1</parameter><parameter name="MXY">0.298849791288376</parameter><parameter name="MNY">0.036479540169239</parameter><parameter name="DAT">02/06/2022</parameter><parameter name="TIM">11:51:39.852 (GMT+2)</parameter><parameter name="DXU">WN</parameter></Data_Parameters_ScSm><Data_Parameters_ScRf><parameter name="DPF">1</parameter><parameter name="NPT">1820</parameter><parameter name="FXV">4004.04661832813</parameter><parameter name="LXV">495.683998511719</parameter><parameter name="CSF">1</parameter><parameter name="MXY">0.264957040548325</parameter><parameter name="MNY">0.030349675565958</parameter><parameter name="DAT">02/06/2022</parameter><parameter name="TIM">11:51:14.000 (GMT+2)</parameter><parameter name="DXU">WN</parameter></Data_Parameters_ScRf><Optic_Parameters_Rf><parameter name="APR">0</parameter><parameter name="APT">Open</parameter><parameter name="BMS">KBr</parameter><parameter name="DTC">RT-DLaTGS_IR-Biotyper [Microplate reader]</parameter><parameter name="HPF">0</parameter><parameter name="LPF">10.0</parameter><parameter name="LPV">4000</parameter><parameter name="PGR">0</parameter><parameter name="RCH">Module port</parameter><parameter name="RDX">0</parameter><parameter name="SRC">MIR</parameter><parameter name="VEL">10.0</parameter><parameter name="SON">Off</parameter></Optic_Parameters_Rf><Acquisition_Parameters_Rf><parameter name="ADT">1</parameter><parameter name="AQM">DD</parameter><parameter name="CFE">0</parameter><parameter name="COR">0</parameter><parameter name="DEL">0</parameter><parameter name="DLY">0</parameter><parameter name="HFW">8000</parameter><parameter name="LFW">0</parameter><parameter name="NSR">32</parameter><parameter name="PLF">AB</parameter><parameter name="RES">6</parameter><parameter name="RGN">-1</parameter><parameter name="STR">0</parameter><parameter name="TCL">MakeCompatibleScalar (0, {WSV=1.000000, ARV=0});</parameter><parameter name="TDL">37</parameter><parameter name="RPO">0</parameter></Acquisition_Parameters_Rf><FT_-_Parameters_Rf><parameter name="APF">B3</parameter><parameter name="HFQ">500</parameter><parameter name="LFQ">4000</parameter><parameter name="NLI">0</parameter><parameter name="PHR">24</parameter><parameter name="PHZ">ML</parameter><parameter name="SPZ">NO</parameter><parameter name="ZFF">1</parameter></FT_-_Parameters_Rf><Optic_Parameters_><parameter name="APR">0</parameter><parameter name="APT">Open</parameter><parameter name="BMS">KBr</parameter><parameter name="CHN">Module port</parameter><parameter name="DTC">RT-DLaTGS_IR-Biotyper [Microplate reader]</parameter><parameter name="HPF">0</parameter><parameter name="LPF">10.0</parameter><parameter name="LPV">4000</parameter><parameter name="PGN">0</parameter><parameter name="RDX">0</parameter><parameter name="SRC">MIR</parameter><parameter name="VEL">10.0</parameter><parameter name="SON">Off</parameter></Optic_Parameters_><FT_-_Parameters_><parameter name="APF">B3</parameter><parameter name="HFQ">500</parameter><parameter name="LFQ">4000</parameter><parameter name="NLI">0</parameter><parameter name="PHR">24</parameter><parameter name="PHZ">ML</parameter><parameter name="SPZ">NO</parameter><parameter name="ZFF">1</parameter></FT_-_Parameters_><Acquisition_Parameters_><parameter name="ADT">1</parameter><parameter name="AQM">DD</parameter><parameter name="CFE">0</parameter><parameter name="COR">0</parameter><parameter name="DEL">0</parameter><parameter name="DLY">0</parameter><parameter name="HFW">8000</parameter><parameter name="LFW">0</parameter><parameter name="NSS">32</parameter><parameter name="PLF">AB</parameter><parameter name="RES">6</parameter><parameter name="SOT">0</parameter><parameter name="TCL">MakeCompatibleScalar (0, {WSV=1.000000, ARV=0});</parameter><parameter name="TDL">37</parameter><parameter name="SPO">0</parameter><parameter name="SGN">-1</parameter></Acquisition_Parameters_><Instrument_Parameters_Rf><parameter name="HFL">15800.168544</parameter><parameter name="LFL">0</parameter><parameter name="LWN">15800.168544</parameter><parameter name="ABP">32197</parameter><parameter name="SSP">1</parameter><parameter name="ARG">2</parameter><parameter name="ASG">2</parameter><parameter name="ASS">32</parameter><parameter name="GFW">16</parameter><parameter name="GBW">16</parameter><parameter name="BFW">0</parameter><parameter name="BBW">0</parameter><parameter name="PKA">7266</parameter><parameter name="PKL">4996</parameter><parameter name="PRA">7448</parameter><parameter name="PRL">5001</parameter><parameter name="P2A">1</parameter><parameter name="P2L">1</parameter><parameter name="P2R">1</parameter><parameter name="P2K">1</parameter><parameter name="DAQ">0</parameter><parameter name="AG2">1</parameter><parameter name="SSM">1</parameter><parameter name="RSN">26103</parameter><parameter name="CRR">0</parameter><parameter name="SRT">1654170674.001</parameter><parameter name="DUR">19.6369934082031</parameter><parameter name="TSC">28.8</parameter><parameter name="MVD">0.209253877401352</parameter><parameter name="AN1">0.225806145914685</parameter><parameter name="AN2">0</parameter><parameter name="VSN">2.485 Apr  4 2017</parameter><parameter name="SRN">0085</parameter><parameter name="CAM">0</parameter><parameter name="INS">IR-Biotyper</parameter><parameter name="FOC">69</parameter><parameter name="RDY">1</parameter><parameter name="ARS">32</parameter></Instrument_Parameters_Rf><Sample_Parameters_><parameter name="BLD"></parameter><parameter name="CNM">Admin</parameter><parameter name="CPY"></parameter><parameter name="DPM"></parameter><parameter name="EXP">IRBT_v3_32Scans.XPM</parameter><parameter name="LCT"></parameter><parameter name="SFM">Microplate, HTS-XT</parameter><parameter name="SNM">220602-1054_RTF49M (D_20)_E6_eb4cab3d-8efb-4a13-9898-056a35ca3553.0</parameter><parameter name="XPP">C:\Users\Public\Documents\Bruker\OPUS_8.2.28\XPM</parameter><parameter name="IST">OK</parameter><parameter name="CPG">1252</parameter><parameter name="UID">6f5eb99a-0854-4fca-8e13-e3bd781c34ca</parameter></Sample_Parameters_><Instrument_Parameters_><parameter name="HFL">15800.168544</parameter><parameter name="LFL">0</parameter><parameter name="LWN">15800.168544</parameter><parameter name="ABP">32197</parameter><parameter name="SSP">1</parameter><parameter name="ASG">2</parameter><parameter name="ARG">2</parameter><parameter name="ASS">32</parameter><parameter name="GFW">16</parameter><parameter name="GBW">16</parameter><parameter name="BFW">0</parameter><parameter name="BBW">0</parameter><parameter name="PKA">7810</parameter><parameter name="PKL">4988</parameter><parameter name="PRA">8094</parameter><parameter name="PRL">4993</parameter><parameter name="P2A">1</parameter><parameter name="P2L">1</parameter><parameter name="P2R">1</parameter><parameter name="P2K">1</parameter><parameter name="DAQ">0</parameter><parameter name="AG2">1</parameter><parameter name="SSM">1</parameter><parameter name="RSN">13677</parameter><parameter name="CRR">0</parameter><parameter name="SRT">1654170699.853</parameter><parameter name="DUR">19.6379852294922</parameter><parameter name="TSC">28.8</parameter><parameter name="MVD">1.41237330436707</parameter><parameter name="AN1">0.225822766170444</parameter><parameter name="AN2">0</parameter><parameter name="VSN">2.485 Apr  4 2017</parameter><parameter name="SRN">0085</parameter><parameter name="CAM">0</parameter><parameter name="INS">IR-Biotyper</parameter><parameter name="FOC">69</parameter><parameter name="RDY">1</parameter></Instrument_Parameters_><History/></OPUSDataFile>
