<?xml version="1.0" encoding="UTF-8" ?>
<OPUSDataFile><AB><Ydata ylabel="Absorbance Units"><values byteorder="INTEL" format="FLOAT32" numvalues="3497"> -0.07051215 -0.07050861 -0.0704984 -0.07048137 -0.07045907 -0.07043159 -0.07040451 -0.07037792 -0.07035352 -0.07033201
 -0.07031824 -0.07031332 -0.07032514 -0.07035109 -0.0703906 -0.07043694 -0.07047865 -0.07051212 -0.07052779 -0.07052823
 -0.07051194 -0.07048333 -0.07044391 -0.07039822 -0.07034685 -0.070299 -0.07025623 -0.07022928 -0.07022075 -0.0702319
 -0.07026389 -0.07030457 -0.07035333 -0.07039413 -0.0704267 -0.07044294 -0.07044437 -0.07043514 -0.07041765 -0.07040251
 -0.07039111 -0.07039248 -0.07040558 -0.07043362 -0.07047267 -0.07052021 -0.07057083 -0.07061957 -0.07066297 -0.0706978
 -0.07072296 -0.07073785 -0.07073987 -0.07072802 -0.07070176 -0.0706593 -0.070613 -0.07056304 -0.07053155 -0.07051977
 -0.07053832 -0.07058588 -0.07064735 -0.07071983 -0.07077703 -0.07082046 -0.07084046 -0.07084273 -0.07083645 -0.0708248
 -0.0708176 -0.07081445 -0.07081874 -0.07082888 -0.07084538 -0.07086441 -0.0708852 -0.07090059 -0.0709075 -0.07090252
 -0.07088235 -0.07085627 -0.07082395 -0.0708034 -0.07079631 -0.07081617 -0.07086387 -0.07093855 -0.07103882 -0.07114651
 -0.07125824 -0.07134387 -0.07140196 -0.07140815 -0.07136995 -0.07129057 -0.07118392 -0.07107504 -0.07097159 -0.07089403
 -0.07083879 -0.0708115 -0.07080087 -0.07080226 -0.07080726 -0.07080931 -0.07081476 -0.07082327 -0.07084525 -0.07088412
 -0.07093298 -0.07099262 -0.07104049 -0.07107528 -0.0710881 -0.07108036 -0.0710715 -0.07106392 -0.07108376 -0.07112892
 -0.07120762 -0.07131185 -0.07142773 -0.07154538 -0.07164072 -0.0717118 -0.07174495 -0.07174778 -0.07172238 -0.07167402
 -0.07160542 -0.0715223 -0.07142312 -0.07133055 -0.07124718 -0.07120502 -0.07121027 -0.07128073 -0.07142144 -0.07161108
 -0.07184932 -0.07203772 -0.07217145 -0.07215056 -0.071991 -0.07174569 -0.07143378 -0.07115825 -0.07091814 -0.07076272
 -0.07068283 -0.07069023 -0.0707616 -0.07088083 -0.07100929 -0.07110833 -0.07116017 -0.07113396 -0.0710647 -0.07095507
 -0.07085161 -0.07077107 -0.07071897 -0.07070064 -0.07069956 -0.07071412 -0.07073828 -0.07077156 -0.07081565 -0.07086998
 -0.07092674 -0.07098414 -0.07102611 -0.07105254 -0.07105398 -0.0710326 -0.07098936 -0.0709253 -0.0708411 -0.07074147
 -0.07062905 -0.07051746 -0.0704177 -0.07034241 -0.0703033 -0.07030083 -0.07034045 -0.07040855 -0.07050455 -0.07060753
 -0.07071434 -0.07080806 -0.07088675 -0.07093811 -0.07096134 -0.07094472 -0.07088848 -0.07079396 -0.07066444 -0.07052149
 -0.0703692 -0.0702348 -0.0701197 -0.07004192 -0.06999898 -0.06999706 -0.07002663 -0.07008242 -0.07014519 -0.07019896
 -0.07022507 -0.07020473 -0.07014221 -0.070029 -0.06989794 -0.06975402 -0.06963299 -0.06954347 -0.06949511 -0.06949133
 -0.06951722 -0.0695722 -0.06963644 -0.06970894 -0.06977166 -0.06982449 -0.06985646 -0.0698704 -0.06987049 -0.06986148
 -0.0698582 -0.06986192 -0.06988277 -0.06991695 -0.06996438 -0.07001965 -0.07007693 -0.0701368 -0.07019584 -0.07026379
 -0.07034444 -0.07044198 -0.07056227 -0.07068517 -0.07081053 -0.07090423 -0.07096191 -0.07096932 -0.07092522 -0.07082681
 -0.07067427 -0.07046742 -0.07021111 -0.06993695 -0.06965327 -0.06941106 -0.06921233 -0.06909097 -0.06903761 -0.06905749
 -0.06912369 -0.06920635 -0.06928182 -0.06931231 -0.069311 -0.06927229 -0.06922154 -0.06917109 -0.06912318 -0.06908429
 -0.06903335 -0.06896716 -0.06887224 -0.06874435 -0.0686053 -0.06845585 -0.06833449 -0.0682423 -0.06819979 -0.06820398
 -0.06824706 -0.06832009 -0.06838492 -0.068431 -0.06840418 -0.06831689 -0.06815941 -0.06796564 -0.06777954 -0.06760898
 -0.06748325 -0.06737648 -0.06728284 -0.06717552 -0.06703694 -0.06687416 -0.06668124 -0.06649199 -0.06631265 -0.06616039
 -0.06604043 -0.06593192 -0.06583448 -0.06570052 -0.06552865 -0.0652901 -0.06499232 -0.06467528 -0.06434771 -0.06407093
 -0.0638381 -0.06366268 -0.06353372 -0.06343808 -0.06336665 -0.06330745 -0.06324086 -0.06315035 -0.06300806 -0.06278891
 -0.06249084 -0.06210097 -0.06164994 -0.06114324 -0.06060632 -0.06004361 -0.05947755 -0.05891035 -0.05836652 -0.05784818
 -0.05735585 -0.0568889 -0.05643195 -0.05598589 -0.05554982 -0.05512666 -0.05472981 -0.0543573 -0.05401208 -0.05368777
 -0.05337457 -0.05306628 -0.05275644 -0.052425 -0.05205944 -0.0516216 -0.05107571 -0.05043209 -0.04967168 -0.04887421
 -0.04806069 -0.04727563 -0.0465349 -0.04583003 -0.04516219 -0.0445169 -0.0438931 -0.04328654 -0.04269733 -0.04212939
 -0.04158213 -0.04105653 -0.04054523 -0.04002136 -0.03947091 -0.03883439 -0.03812176 -0.03731129 -0.03645068 -0.03559887
 -0.03477317 -0.03401975 -0.03330829 -0.03263459 -0.03196694 -0.03128855 -0.03059016 -0.02986358 -0.02911865 -0.02835568
 -0.02758545 -0.02681022 -0.02602669 -0.02523513 -0.02441898 -0.02357796 -0.02270761 -0.02181154 -0.02091614 -0.02002418
 -0.01916359 -0.01832955 -0.01752344 -0.01673884 -0.01596416 -0.01519571 -0.01442421 -0.01364752 -0.01285821 -0.01206354
 -0.01126368 -0.01047298 -0.009702762 -0.008940472 -0.008191583 -0.007408113 -0.006579759 -0.00568534 -0.00471509 -0.003726102
 -0.002721042 -0.001768119 -0.0008683349 -2.401321E-05 0.0007697379 0.00155027 0.00232035 0.003113001 0.003924374 0.004763772
 0.005619084 0.006471485 0.007312347 0.008116067 0.008898316 0.009657259 0.01043093 0.01124537 0.01211652 0.01306835
 0.01405972 0.0150872 0.01609778 0.01707823 0.01801167 0.01889258 0.01973406 0.02053609 0.02132756 0.02211003
 0.0229127 0.02373546 0.02459078 0.02547662 0.02639106 0.02733173 0.02829263 0.02926874 0.03024935 0.03122633
 0.03218357 0.03311872 0.03402194 0.03490024 0.03575438 0.03659354 0.03742179 0.03824552 0.03906797 0.03988974
 0.04071219 0.04152948 0.04234029 0.04314754 0.04395068 0.04477245 0.04561381 0.04649387 0.0474098 0.04834782
 0.04930226 0.05023915 0.0511581 0.05203896 0.05288785 0.05370621 0.0545023 0.05528779 0.05606839 0.0568554
 0.0576454 0.05844103 0.05923251 0.06001477 0.06078663 0.06154459 0.06230004 0.06305424 0.06381845 0.06459431
 0.06538816 0.0662007 0.0670331 0.06788494 0.06874289 0.06960502 0.07044818 0.07127289 0.0720685 0.0728384
 0.0735875 0.07431721 0.07503232 0.07573389 0.0764243 0.07710704 0.07778725 0.07846382 0.07913805 0.07980636
 0.08046471 0.08112217 0.08177939 0.08245035 0.08314037 0.08384226 0.08455692 0.08526459 0.08596339 0.08665188
 0.08733037 0.08801272 0.08869842 0.08938989 0.0900839 0.09076682 0.09143588 0.09207468 0.09268513 0.09326037
 0.09381077 0.09434616 0.09487969 0.09543072 0.09599657 0.09658495 0.09717736 0.09776586 0.09834301 0.09890186
 0.09945516 0.1000042 0.1005604 0.101126 0.1017001 0.102283 0.1028697 0.10346 0.1040466 0.1046296
 0.1052032 0.1057697 0.1063367 0.1069055 0.1074867 0.1080734 0.108657 0.1092291 0.1097709 0.1102876
 0.1107751 0.1112475 0.1117144 0.1121804 0.1126521 0.1131222 0.1135902 0.114048 0.1144933 0.1149231
 0.115336 0.1157367 0.1161249 0.1165128 0.1169007 0.1172971 0.1177014 0.118112 0.118528 0.1189452
 0.1193629 0.1197783 0.1201891 0.1205888 0.1209764 0.1213456 0.1217036 0.1220533 0.1224061 0.1227726
 0.1231532 0.1235546 0.1239586 0.1243627 0.1247431 0.125093 0.1254069 0.1256813 0.1259342 0.1261667
 0.1263936 0.1266151 0.1268217 0.1270123 0.1271713 0.1273021 0.1274119 0.1275074 0.1276131 0.127732
 0.1278828 0.1280618 0.1282737 0.1285072 0.1287552 0.1290026 0.1292343 0.1294519 0.1296451 0.1298479
 0.1300672 0.130338 0.1306754 0.1310592 0.1314946 0.1319047 0.1322845 0.1325676 0.1327518 0.1328402
 0.1328387 0.1328066 0.1327474 0.1327118 0.1326929 0.1326947 0.1327118 0.1327308 0.1327617 0.1328137
 0.1328951 0.1330259 0.1331832 0.1333631 0.1335255 0.1336452 0.133717 0.1337252 0.1337149 0.1336908
 0.1337014 0.1337571 0.1338608 0.1340157 0.1341775 0.1343437 0.1344595 0.1345247 0.1345143 0.1344363
 0.1343143 0.1341631 0.1340408 0.133958 0.1339701 0.1340663 0.1342643 0.1345224 0.1348114 0.1350792
 0.1352757 0.1353866 0.1353803 0.1353062 0.1351666 0.1350374 0.134936 0.1349095 0.1349684 0.135124
 0.1353785 0.1357325 0.1361859 0.1367251 0.1373443 0.1379844 0.1386312 0.1391812 0.1396262 0.1398762
 0.1399529 0.1398459 0.1396131 0.1393299 0.1390562 0.1388904 0.1388372 0.1389477 0.1391487 0.1394295
 0.139685 0.1398769 0.1399447 0.1398595 0.1396455 0.1392961 0.138894 0.1384449 0.1380222 0.1376292
 0.1372866 0.1369924 0.1367327 0.1365073 0.1363083 0.1361395 0.1360105 0.1359215 0.1358832 0.1358801
 0.1359026 0.1359115 0.1358683 0.1357284 0.1354417 0.1350068 0.134396 0.1336762 0.1328554 0.1320244
 0.1312056 0.1304518 0.1297759 0.1291848 0.1286814 0.1282476 0.1278824 0.1275407 0.127219 0.1268603
 0.1264687 0.1260316 0.1255652 0.1251195 0.1246979 0.1243424 0.1240221 0.1237118 0.1233753 0.1229549
 0.1224613 0.1218703 0.1212463 0.1206096 0.1200307 0.1195424 0.1191663 0.1189231 0.1187598 0.1186789
 0.1185732 0.1184343 0.1181732 0.1177858 0.1172748 0.1166482 0.1159938 0.1153196 0.1147169 0.1141792
 0.1137373 0.1133735 0.1130657 0.1127955 0.1125253 0.1122445 0.1119249 0.1115723 0.1111777 0.1107635
 0.1103385 0.10992 0.1095195 0.1091299 0.1087536 0.1083703 0.1079766 0.1075645 0.1071323 0.1066882
 0.1062324 0.1057747 0.1053151 0.1048583 0.1044047 0.1039577 0.1035179 0.1030897 0.1026726 0.1022692
 0.1018762 0.1014912 0.1011078 0.100719 0.1003183 0.09989775 0.0994576 0.09899376 0.09851614 0.09802624
 0.09753644 0.09705073 0.09657205 0.09610261 0.09563258 0.09516142 0.09467828 0.09418261 0.09367732 0.09316369
 0.09265859 0.09216245 0.09168798 0.0912313 0.09078661 0.09034838 0.08989972 0.08944112 0.08896389 0.08847612
 0.08798264 0.08749224 0.08701146 0.08655107 0.08611406 0.0857235 0.08538774 0.08512459 0.08494822 0.0848195
 0.08474334 0.08461305 0.08441999 0.08407387 0.08356991 0.08292957 0.08216223 0.08138872 0.080618 0.07996774
 0.07942806 0.07903468 0.07875696 0.07854792 0.07837016 0.07814113 0.07784628 0.07742606 0.07691765 0.07631979
 0.07570233 0.07510523 0.07455939 0.07409492 0.07367426 0.07329421 0.07291844 0.07253381 0.0721769 0.07184733
 0.07161857 0.07149448 0.07148623 0.07158645 0.07170711 0.07183536 0.0718478 0.07174753 0.0714708 0.07104856
 0.07051562 0.06991164 0.06932141 0.06875235 0.06825495 0.06779394 0.06735771 0.06691806 0.06644587 0.06596892
 0.0654854 0.06504582 0.06466803 0.06435098 0.0641024 0.06387021 0.06364936 0.06341332 0.0631604 0.06292523
 0.06270993 0.06255417 0.06245242 0.06239358 0.06236733 0.06232915 0.06227824 0.06218784 0.06206875 0.06192734
 0.06177137 0.06161755 0.06145278 0.06127951 0.06106152 0.0607817 0.06040915 0.05992013 0.05933703 0.05864899
 0.05794647 0.0572381 0.05662351 0.05611636 0.0557369 0.05548709 0.05528605 0.05512755 0.05490578 0.05462406
 0.05424394 0.05378357 0.05328649 0.0527692 0.05229627 0.05186508 0.05150417 0.05119421 0.05092598 0.05067746
 0.05042844 0.05016486 0.04987126 0.04955111 0.04919751 0.04883775 0.04847548 0.04814237 0.04784781 0.04758295
 0.04735123 0.04709267 0.04680401 0.04643705 0.04599458 0.04550503 0.04497811 0.04449217 0.04404418 0.04367075
 0.04334953 0.04304336 0.04273811 0.04238522 0.0420035 0.04159157 0.04118143 0.04080211 0.0404615 0.04017534
 0.03992965 0.03972016 0.03954617 0.0394037 0.03931169 0.03927431 0.03929407 0.03937487 0.03947293 0.03958617
 0.03963889 0.03962828 0.03949672 0.03925046 0.03889437 0.0384459 0.03797011 0.03748295 0.03705823 0.03669598
 0.03643187 0.03625293 0.03615734 0.03613453 0.03617427 0.03627365 0.03642955 0.03663703 0.03689642 0.03719201
 0.03752184 0.03786375 0.03821291 0.03856036 0.03890219 0.03926677 0.0396552 0.04013082 0.04069621 0.04140354
 0.04224693 0.04321899 0.0443046 0.04544384 0.04662546 0.04778945 0.04893828 0.05004766 0.05112826 0.05218359
 0.05322179 0.05425052 0.05527508 0.05629867 0.05733057 0.05837422 0.05943917 0.06053169 0.06164031 0.06276888
 0.06387114 0.06494495 0.06592754 0.06681502 0.06756324 0.06817166 0.06862772 0.06893259 0.06908649 0.06909139
 0.06894881 0.06867287 0.06828833 0.06783471 0.0673827 0.06698298 0.06672741 0.0666343 0.06676096 0.06706827
 0.06755655 0.06816438 0.06886466 0.06963221 0.07045003 0.07133832 0.07229696 0.07335262 0.07450929 0.07576966
 0.0771344 0.07858261 0.08011282 0.08169707 0.08333747 0.08502866 0.08678459 0.08865159 0.0906512 0.09286821
 0.09529757 0.09799894 0.1008768 0.1038963 0.1068055 0.1094486 0.1114339 0.1125162 0.1123752 0.110775
 0.1077906 0.1033114 0.09791318 0.09162942 0.08524708 0.07885048 0.07300596 0.06775696 0.06324498 0.05946063
 0.05624122 0.05356643 0.05122252 0.04920653 0.04739726 0.04579585 0.04435167 0.04304873 0.04184011 0.04070311
 0.03958729 0.03849304 0.03739721 0.03632861 0.03529547 0.03432824 0.03344244 0.03264939 0.03195596 0.03136092
 0.03086477 0.03046685 0.03016671 0.02996924 0.02987467 0.02989207 0.03002057 0.03025058 0.03057243 0.03092021
 0.03127415 0.03151841 0.03164544 0.0315651 0.03130934 0.0308811 0.03034553 0.02977918 0.02924385 0.02881829
 0.02853478 0.02843518 0.02852435 0.02881195 0.02930094 0.02998565 0.0309098 0.03207178 0.03356948 0.03541828
 0.03764592 0.04026166 0.04297301 0.04574233 0.04787392 0.04931952 0.04935938 0.04806422 0.04526956 0.04121096
 0.03639163 0.03106133 0.02591758 0.02104263 0.01685059 0.01323527 0.0102599 0.007754946 0.005634677 0.003788805
 0.002148034 0.0006773886 -0.0006452728 -0.001830699 -0.00288155 -0.003818104 -0.004641312 -0.005382907 -0.006044736 -0.006661768
 -0.007235382 -0.007789862 -0.008324488 -0.008845891 -0.009352369 -0.009841022 -0.01031006 -0.01075425 -0.01117034 -0.0115491
 -0.01189098 -0.01218783 -0.01245617 -0.01270298 -0.01295647 -0.01323785 -0.01355633 -0.01392843 -0.01432227 -0.0147368
 -0.01512178 -0.01546601 -0.01574881 -0.01596317 -0.01613856 -0.01627591 -0.01642471 -0.01658617 -0.01678004 -0.01700215
 -0.01723033 -0.01746178 -0.01766967 -0.01786193 -0.01804446 -0.01822983 -0.01844699 -0.01869539 -0.01899134 -0.0193151
 -0.01965776 -0.01999391 -0.02030531 -0.0205775 -0.0207978 -0.02097029 -0.02108977 -0.02118192 -0.02124764 -0.02132714
 -0.02142517 -0.02156963 -0.02176345 -0.02199672 -0.02226769 -0.0225383 -0.02280704 -0.02304392 -0.02325216 -0.02342915
 -0.02357932 -0.02371369 -0.02383387 -0.02394761 -0.02405573 -0.02416192 -0.02426762 -0.02437654 -0.02448553 -0.02459549
 -0.02469707 -0.0247857 -0.02485846 -0.02491027 -0.02495788 -0.02500166 -0.02506861 -0.02516275 -0.025294 -0.02546402
 -0.02565295 -0.02585933 -0.02605276 -0.02623364 -0.02639001 -0.02652608 -0.02665375 -0.02677562 -0.02690688 -0.02704307
 -0.02718442 -0.02732217 -0.02744382 -0.02754666 -0.02762036 -0.02767633 -0.02771527 -0.02775894 -0.02781654 -0.02790346
 -0.02802837 -0.02818686 -0.02838152 -0.02859279 -0.02881896 -0.02904241 -0.02926164 -0.02946911 -0.02966458 -0.02984592
 -0.03001329 -0.03016629 -0.03030624 -0.03043808 -0.03056434 -0.03069521 -0.03083094 -0.03097832 -0.03113256 -0.03129109
 -0.03144695 -0.03159239 -0.0317245 -0.03183747 -0.031937 -0.03202252 -0.03210593 -0.03219014 -0.03228567 -0.03239598
 -0.03252093 -0.0326619 -0.03280694 -0.03295546 -0.03309331 -0.03322005 -0.0333302 -0.03342431 -0.03350445 -0.03357105
 -0.03362639 -0.03367158 -0.03370934 -0.03374412 -0.03378489 -0.03383712 -0.03391328 -0.03401213 -0.03413927 -0.03428457
 -0.03444425 -0.03460686 -0.03476571 -0.03491737 -0.0350585 -0.03519354 -0.03532274 -0.03545083 -0.03557886 -0.03570521
 -0.03582997 -0.03594665 -0.03605508 -0.0361535 -0.03624296 -0.0363316 -0.03642042 -0.03651928 -0.03662631 -0.03674184
 -0.03686227 -0.0369799 -0.03709438 -0.03720078 -0.03730346 -0.03740485 -0.03750827 -0.03761826 -0.0377304 -0.03784535
 -0.03795274 -0.03804881 -0.03813031 -0.03819381 -0.03825281 -0.03830768 -0.0383786 -0.03846743 -0.0385794 -0.03871413
 -0.03885556 -0.03900227 -0.03913443 -0.03925319 -0.03935259 -0.03943608 -0.03951039 -0.03957862 -0.03965013 -0.03972632
 -0.03981354 -0.03991032 -0.0400185 -0.04013319 -0.04025209 -0.04037045 -0.04048503 -0.04059561 -0.04070105 -0.04080416
 -0.04090545 -0.04100619 -0.04110674 -0.04120613 -0.04130423 -0.04140181 -0.04149897 -0.04159903 -0.04170205 -0.04181039
 -0.04192309 -0.04203736 -0.04215129 -0.04225772 -0.04235577 -0.04243948 -0.04251099 -0.04256992 -0.0426208 -0.04266776
 -0.04271424 -0.04276389 -0.04281779 -0.04287732 -0.04294252 -0.04301363 -0.04309081 -0.04317429 -0.04326316 -0.04335764
 -0.04345404 -0.04355218 -0.04364643 -0.04373654 -0.04381877 -0.0438935 -0.04396239 -0.04402646 -0.04409155 -0.04415814
 -0.04423117 -0.04430957 -0.04439394 -0.044482 -0.04457092 -0.04465879 -0.04474246 -0.0448219 -0.04489587 -0.0449658
 -0.04503216 -0.04509564 -0.04515692 -0.0452145 -0.04526811 -0.04531693 -0.04536035 -0.0454021 -0.0454422 -0.04548841
 -0.04554105 -0.04560523 -0.0456805 -0.045765 -0.04585752 -0.0459514 -0.04604579 -0.0461346 -0.04621793 -0.04629315
 -0.04636049 -0.04641937 -0.04646931 -0.0465093 -0.04654 -0.04656034 -0.0465753 -0.04658591 -0.04659991 -0.04662025
 -0.04665029 -0.04669222 -0.04674092 -0.04679632 -0.04685082 -0.04690362 -0.04695342 -0.04700025 -0.04704781 -0.04709611
 -0.04714671 -0.04719922 -0.04725199 -0.04730595 -0.04736253 -0.04742394 -0.04749617 -0.0475787 -0.04767489 -0.04777911
 -0.04788747 -0.04799403 -0.04809238 -0.04818324 -0.04826427 -0.04834159 -0.04841709 -0.04849323 -0.04857174 -0.04864788
 -0.04872131 -0.04878749 -0.04884579 -0.04889879 -0.04894668 -0.04899618 -0.04904735 -0.04910361 -0.04916415 -0.049227
 -0.04929126 -0.049353 -0.04941238 -0.04946738 -0.04951971 -0.04957064 -0.04962258 -0.04967897 -0.04973955 -0.04980635
 -0.04987442 -0.04994216 -0.05000485 -0.05005952 -0.05010898 -0.0501524 -0.05019859 -0.05024884 -0.05030764 -0.05037586
 -0.05044786 -0.05052326 -0.05059207 -0.05065419 -0.05070458 -0.0507445 -0.05077738 -0.05080495 -0.05083472 -0.0508671
 -0.05090702 -0.05095313 -0.05100564 -0.05106303 -0.05112381 -0.05118708 -0.05125228 -0.0513171 -0.05138096 -0.05143957
 -0.05149098 -0.05153442 -0.05156836 -0.05159937 -0.05162791 -0.05166147 -0.05170105 -0.05174519 -0.05179374 -0.05183736
 -0.05187589 -0.05190377 -0.05192254 -0.05193706 -0.05194946 -0.05196958 -0.05199747 -0.05203867 -0.05209066 -0.05215235
 -0.05222061 -0.05229183 -0.05236385 -0.05243428 -0.05250118 -0.05256323 -0.05261861 -0.05266638 -0.05270584 -0.05273642
 -0.05275954 -0.0527751 -0.05278613 -0.05279283 -0.0527984 -0.05280301 -0.05280967 -0.05281851 -0.05283196 -0.05285013
 -0.05287519 -0.05290688 -0.05294611 -0.05299137 -0.05304052 -0.05309059 -0.05313608 -0.05317554 -0.05320419 -0.05322561
 -0.05323996 -0.05325361 -0.05327037 -0.05329186 -0.05332059 -0.05335117 -0.05338287 -0.05341117 -0.05343478 -0.05345602
 -0.05347487 -0.05349565 -0.05351855 -0.05354337 -0.05357016 -0.05359878 -0.05363053 -0.05367202 -0.05372475 -0.05379757
 -0.05388988 -0.05400461 -0.05414081 -0.05429678 -0.05447625 -0.05468085 -0.05491889 -0.05519707 -0.05552018 -0.05589402
 -0.05631373 -0.05677938 -0.05728412 -0.0578246 -0.05840737 -0.05903198 -0.05971358 -0.06045487 -0.06124489 -0.06208242
 -0.06289259 -0.0636671 -0.06428667 -0.0647485 -0.06497051 -0.06496622 -0.06473585 -0.06429588 -0.06367533 -0.06290349
 -0.06202284 -0.06109626 -0.06020489 -0.05939516 -0.0587317 -0.05821667 -0.05786829 -0.05767517 -0.05763748 -0.05774441
 -0.05800026 -0.05835944 -0.05882533 -0.05928188 -0.05971982 -0.06004093 -0.06024049 -0.06033789 -0.0603384 -0.06031229
 -0.06025772 -0.06020275 -0.06013603 -0.06003181 -0.05988665 -0.05967338 -0.0594108 -0.05911404 -0.05880588 -0.05852204
 -0.05825933 -0.0580311 -0.05781455 -0.05759881 -0.05737733 -0.05714079 -0.05690976 -0.05668712 -0.05649081 -0.05632598
 -0.05618614 -0.05607194 -0.05596413 -0.05586177 -0.05575424 -0.05564206 -0.05552845 -0.05541411 -0.05530462 -0.05519971
 -0.05510091 -0.05500847 -0.05492338 -0.05484647 -0.0547802 -0.05472297 -0.05467459 -0.05463152 -0.05459046 -0.05455096
 -0.05451119 -0.05447442 -0.05444196 -0.05441368 -0.05439075 -0.05436691 -0.05434125 -0.05431001 -0.05427226 -0.05423403
 -0.05419563 -0.05416699 -0.05414816 -0.05414304 -0.05415067 -0.05416776 -0.05419342 -0.05422288 -0.05425576 -0.05428913
 -0.05432243 -0.05435374 -0.054382 -0.05440516 -0.05442306 -0.05443446 -0.05444118 -0.05444383 -0.05444383 -0.05444269
 -0.05443726 -0.05442765 -0.05440779 -0.0543762 -0.0543332 -0.05427798 -0.05422221 -0.0541665 -0.05412485 -0.05409711
 -0.05408583 -0.05408895 -0.05409594 -0.05410515 -0.05410453 -0.05409562 -0.05407526 -0.0540475 -0.05401751 -0.05398822
 -0.05396573 -0.05394885 -0.05393934 -0.05393318 -0.05392864 -0.05392317 -0.05391471 -0.0539055 -0.05389528 -0.05388865
 -0.05388637 -0.05389101 -0.05390311 -0.05392056 -0.05394325 -0.05396581 -0.05398789 -0.05400368 -0.05401325 -0.05401379
 -0.0540061 -0.0539912 -0.05397052 -0.0539477 -0.05392436 -0.05390449 -0.05388965 -0.05388336 -0.05388568 -0.05389896
 -0.05391878 -0.05394454 -0.05396839 -0.0539871 -0.05399655 -0.05399394 -0.05398446 -0.053968 -0.05395349 -0.0539421
 -0.05393546 -0.05393376 -0.05392998 -0.05392387 -0.05390979 -0.05388869 -0.05386318 -0.0538347 -0.05381016 -0.05378955
 -0.05377643 -0.05376978 -0.05376926 -0.05377466 -0.05378555 -0.05380202 -0.05382479 -0.05385124 -0.05388098 -0.05390877
 -0.05393254 -0.05394902 -0.05395635 -0.05395663 -0.05394947 -0.05394028 -0.05392943 -0.05392246 -0.05391972 -0.05392541
 -0.05393949 -0.05396254 -0.05399369 -0.05402812 -0.05406447 -0.054095 -0.05411953 -0.05413321 -0.05413796 -0.05413418
 -0.05412535 -0.05411546 -0.05410771 -0.05410641 -0.05411184 -0.05412646 -0.05414538 -0.05416818 -0.05418719 -0.05420022
 -0.05420326 -0.05419465 -0.05417791 -0.05415282 -0.05412792 -0.05410369 -0.0540875 -0.05407938 -0.05408128 -0.05409246
 -0.05410921 -0.05413108 -0.05415411 -0.05417901 -0.05420555 -0.05423432 -0.05426691 -0.05430174 -0.05433819 -0.0543731
 -0.05440374 -0.05442801 -0.05444348 -0.05445114 -0.0544502 -0.05444445 -0.05443439 -0.05442467 -0.05441625 -0.05441118
 -0.05440991 -0.05441116 -0.05441487 -0.05442006 -0.05442681 -0.05443648 -0.05444909 -0.05446553 -0.05448536 -0.05450734
 -0.05453102 -0.0545546 -0.05457798 -0.05460024 -0.05462133 -0.05464071 -0.05465894 -0.0546761 -0.0546933 -0.05471143
 -0.05473036 -0.05475041 -0.05477043 -0.05478993 -0.05480956 -0.05482923 -0.05485073 -0.05487436 -0.05489981 -0.0549271
 -0.05495426 -0.05498127 -0.05500766 -0.05503348 -0.05505899 -0.05508383 -0.05510659 -0.05512721 -0.05514443 -0.05515944
 -0.05517385 -0.05518839 -0.05520494 -0.05522268 -0.05524147 -0.05526072 -0.0552798 -0.05529934 -0.05531979 -0.05534028
 -0.05536113 -0.05537906 -0.05539346 -0.05540268 -0.05540619 -0.05540691 -0.05540494 -0.05540518 -0.05540778 -0.05541599
 -0.05542957 -0.055449 -0.05547352 -0.05550075 -0.05552958 -0.05555589 -0.0555795 -0.05559759 -0.05561223 -0.05562451
 -0.05563714 -0.05565305 -0.05567299 -0.05569872 -0.05572813 -0.05576099 -0.0557948 -0.05582895 -0.05586135 -0.05589159
 -0.05591804 -0.05594043 -0.05595827 -0.05597148 -0.05598173 -0.05598913 -0.05599611 -0.05600265 -0.05600965 -0.05601732
 -0.05602665 -0.05603829 -0.05605463 -0.05607544 -0.05610211 -0.05613222 -0.05616362 -0.05619349 -0.05621816 -0.05623771
 -0.05625036 -0.05625977 -0.05626668 -0.05627507 -0.0562863 -0.05630195 -0.05632275 -0.05634743 -0.05637603 -0.05640597
 -0.05643709 -0.0564671 -0.05649589 -0.05652165 -0.05654429 -0.0565623 -0.05657569 -0.05658342 -0.05658602 -0.05658413
 -0.05657858 -0.05657109 -0.05656241 -0.05655389 -0.05654667 -0.05654175 -0.05654123 -0.05654673 -0.05655906 -0.0565799
 -0.05660522 -0.05663496 -0.05666215 -0.0566852 -0.0567017 -0.05671074 -0.05671716 -0.05672122 -0.05672699 -0.05673429
 -0.05673942 -0.05674176 -0.05673446 -0.05671849 -0.05669323 -0.05666175 -0.05663171 -0.05660542 -0.05659163 -0.05658818
 -0.05659717 -0.05661216 -0.05662857 -0.05664073 -0.05664318 -0.05663589 -0.05661658 -0.05659059 -0.05655854 -0.05652677
 -0.05649653 -0.05647193 -0.05645368 -0.05644292 -0.05643981 -0.05644238 -0.05645036 -0.05645894 -0.05646764 -0.05647038
 -0.05646725 -0.05645465 -0.05643432 -0.05640839 -0.05638017 -0.05635684 -0.0563402 -0.05633661 -0.05634295 -0.05635999
 -0.05638043 -0.05640027 -0.05641389 -0.05641702 -0.05641106 -0.0563946 -0.05637481 -0.0563527 -0.05633433 -0.05632085
 -0.05631214 -0.05630835 -0.05630467 -0.05630099 -0.05629513 -0.05628769 -0.05628224 -0.05627913 -0.05628215 -0.05628999
 -0.05630128 -0.0563142 -0.05632467 -0.05633184 -0.05633309 -0.05632777 -0.05631425 -0.05629283 -0.05626229 -0.05622662
 -0.05618652 -0.05614792 -0.05611282 -0.05608391 -0.05606255 -0.05604599 -0.05603429 -0.05602242 -0.05601004 -0.05599371
 -0.05597338 -0.05594842 -0.05591899 -0.05588567 -0.05584885 -0.05581003 -0.05577046 -0.05573425 -0.0557025 -0.05568003
 -0.05566487 -0.05565746 -0.05565283 -0.05564634 -0.05563563 -0.05561698 -0.05559312 -0.05556425 -0.05553319 -0.05550113
 -0.05546783 -0.0554334 -0.05539772 -0.0553607 -0.05532309 -0.05528491 -0.05524681 -0.05520895 -0.05517481 -0.05514501
 -0.05512654 -0.05511912 -0.05512654 -0.05514532 -0.05516917 -0.05519197 -0.05519879 -0.05518714 -0.05514491 -0.05508009
 -0.05499391 -0.05489934 -0.05480569 -0.05471811 -0.05464257 -0.05457396 -0.05451193 -0.0544518 -0.05439156 -0.05433551
 -0.05428367 -0.05424263 -0.05421295 -0.05419461 -0.05418747 -0.05418862 -0.05419752 -0.05420991 -0.05422337 -0.0542252
 -0.05421315 -0.05417168 -0.05410659 -0.05402002 -0.05392199 -0.05382802 -0.05374067 -0.05366862 -0.05360873 -0.0535613
 -0.05352374 -0.05349557 -0.0534726 -0.05345455 -0.05343334 -0.05340762 -0.05337017 -0.05331972 -0.05325441 -0.05317387
 -0.05308129 -0.05297705 -0.0528698 -0.05276025 -0.05265832 -0.05256353 -0.05247931 -0.05240436 -0.05233681 -0.05227572
 -0.05221942 -0.05216462 -0.05210738 -0.05204188 -0.05195959 -0.05186265 -0.05174693 -0.05162638 -0.05150627 -0.05139593
 -0.05130142 -0.05121592 -0.05113997 -0.05106094 -0.05097692 -0.05088376 -0.05078074 -0.0506742 -0.05056442 -0.05045717
 -0.0503513 -0.05024027 -0.05012155 -0.04997833 -0.04981296 -0.04962157 -0.04941187 -0.04919899 -0.04898341 -0.04877442
 -0.04856339 -0.04834411 -0.04811408 -0.04786583 -0.04761346 -0.0473597 -0.04712252 -0.04690946 -0.04672394 -0.04657084
 -0.04643125 -0.04630596 -0.04615348 -0.0459707 -0.04572865 -0.04542761 -0.04509629 -0.04473845 -0.044401 -0.04408031
 -0.04378541 -0.0435082 -0.04322956 -0.04294487 -0.04263523 -0.04230146 -0.04193503 -0.04154362 -0.04112991 -0.04070551
 -0.04028144 -0.03985549 -0.03943487 -0.03899248 -0.03852088 -0.03800312 -0.03742848 -0.03682931 -0.03620761 -0.03559798
 -0.03500446 -0.03441586 -0.03383157 -0.03323403 -0.03262514 -0.0320164 -0.03140796 -0.0308106 -0.0302143 -0.02959539
 -0.02894411 -0.02822329 -0.02744557 -0.02660853 -0.02573837 -0.02486323 -0.02398908 -0.02313056 -0.02227886 -0.02143187
 -0.0205883 -0.01974701 -0.01891039 -0.01808419 -0.01723657 -0.01637092 -0.01539312 -0.01429557 -0.01301806 -0.01156231
 -0.010053 -0.008499306 -0.007046399 -0.005674594 -0.004365582 -0.003096735 -0.001787391 -0.0004364673 0.000996129 0.00250464
 0.004087917 0.005768791 0.007553148 0.009509921 0.01168493 0.01413212 0.01691871 0.01994304 0.02321633 0.02650769
 0.02976689 0.03286522 0.03577052 0.03849968 0.04104856 0.04350167 0.04586544 0.04829455 0.05080394 0.05361656
 0.05670653 0.06010579 0.0637003 0.06712893 0.07038048 0.07321844 0.07578259 0.07818159 0.08050709 0.08290734
 0.08537021 0.08793376 0.09056196 0.09323999 0.09597019 0.09876111 0.1015637 0.1043774 0.1071104 0.1097427
 0.1122928 0.1147593 0.1172031 0.1196239 0.1219373 0.1241332 0.1260689 0.1277625 0.1292199 0.1304809
 0.1316804 0.1328194 0.133983 0.1351081 0.1361219 0.1370243 0.1377665 0.1384302 0.1390694 0.1397008
 0.1403634 0.1409838 0.1415468 0.141995 0.1423069 0.142491 0.1425425 0.1425035 0.1423762 0.1422069
 0.1419972 0.1417622 0.1414992 0.1411879 0.1408276 0.1404026 0.1399195 0.1393858 0.13882 0.1382603
 0.1377309 0.1372867 0.1369319 0.1366922 0.1365595 0.1365286 0.1366164 0.1368274 0.1371845 0.1377048
 0.1383593 0.1391474 0.1400257 0.1409836 0.1420363 0.1431829 0.1444666 0.145889 0.1474605 0.1491792
 0.1510281 0.1530064 0.1551025 0.1573152 0.1596353 0.1620608 0.16458 0.1672004 0.1699257 0.1727694
 0.1757477 0.1788651 0.18213 0.185543 0.1891023 0.1928241 0.1967089 0.2007903 0.2050786 0.2095809
 0.2143097 0.2191775 0.224183 0.2291649 0.2341149 0.2389079 0.2435364 0.2478969 0.2519539 0.2554689
 0.2584116 0.2605214 0.2618785 0.262507 0.2625453 0.2622094 0.2615941 0.260878 0.2601013 0.2593534
 0.2586167 0.2579241 0.2571727 0.2563624 0.2552847 0.2538876 0.2520561 0.249727 0.2472166 0.2445453
 0.2419814 0.2395346 0.2370985 0.2346683 0.23215 0.2295631 0.2269654 0.2243727 0.2218908 0.2194672
 0.217098 0.2145796 0.2116341 0.2080257 0.2032733 0.1976651 0.1911829 0.1843611 0.1775459 0.1707312
 0.1639866 0.1572369 0.1504272 0.143806 0.1373932 0.1314591 0.1260406 0.1210942 0.1166165 0.1123804
 0.1083805 0.1044807 0.1006976 0.0970514 0.09355569 0.09027299 0.08718861 0.08430523 0.08159358 0.07901046
 0.07653483 0.07413425 0.07177982 0.06945901 0.06709084 0.06463742 0.06202073 0.05915449 0.056242 0.05327979
 0.05065136 0.04844696 0.04661437 0.04516956 0.04381555 0.04253839 0.04118285 0.03975764 0.03831043 0.03685829
 0.03552533 0.03430169 0.03321767 0.03225973 0.03139916 0.03066211 0.03006991 0.02966489 0.02950969 0.02960174
 0.02996705 0.03056622 0.03138785 0.03239479 0.03357289 0.03489434 0.03634549 0.03793835 0.03966511 0.04160961
 0.04378146 0.0462082 0.04888951 0.0515755 0.05424647 0.05658054 0.05859549 0.06022622 0.06150188 0.06248908
 0.06319521 0.06365824 0.06390294 0.06396378 0.06391706 0.06383964 0.06384269 0.06404332 0.06447189 0.06521329
 0.06611042 0.06712708 0.06813943 0.069093 0.07003223 0.0709523 0.07193494 0.07298938 0.07413658 0.07537764
 0.07666259 0.07798896 0.07930727 0.08062715 0.08197234 0.08336399 0.08489319 0.08655912 0.08842345 0.09042856
 0.09250968 0.09462275 0.09667062 0.09870786 0.1007361 0.102836 0.1050631 0.1074167 0.1099217 0.1125025
 0.1151445 0.1177964 0.1204431 0.1231022 0.1257757 0.1284624 0.1311617 0.133734 0.1361669 0.1382627
 0.1400251 0.141375 0.142325 0.1428848 0.1430456 0.1427948 0.1421134 0.1409577 0.1393374 0.1372341
 0.1347003 0.1317623 0.1284857 0.1249113 0.121079 0.1170098 0.1127288 0.1082299 0.1036149 0.0988816
 0.09424306 0.08971919 0.08546037 0.08147552 0.07772188 0.07419199 0.07077185 0.06746811 0.06425775 0.06116389
 0.05826201 0.05555417 0.05309303 0.05084434 0.04878059 0.04685995 0.04502444 0.0432498 0.04149602 0.03976363
 0.03803849 0.03634271 0.03467991 0.03307372 0.03153353 0.03005693 0.02864785 0.02727672 0.02594093 0.02461959
 0.0233114 0.02204424 0.02082249 0.0197129 0.01871619 0.0178739 0.01717584 0.01660807 0.01616045 0.01580141
 0.015528 0.01532223 0.01518248 0.01510173 0.0150748 0.01509837 0.0151595 0.0152551 0.01535886 0.01546475
 0.01553637 0.01556556 0.01551881 0.01538933 0.01515886 0.01482377 0.01439077 0.01386002 0.01325975 0.0125918
 0.01188595 0.01114414 0.01039048 0.009630492 0.00889522 0.008192685 0.007558767 0.006994549 0.006520207 0.006126803
 0.005812592 0.005567121 0.005381654 0.005249133 0.005164389 0.005120397 0.005114533 0.005138137 0.005189541 0.00525842
 0.005344186 0.005430151 0.005515236 0.005578823 0.005619653 0.005627342 0.005602417 0.00555043 0.005472816 0.005381571
 0.00527645 0.005164013 0.005040728 0.004902726 0.004743506 0.004550825 0.004319489 0.004036981 0.003706361 0.00332333
 0.002900679 0.002442362 0.001964855 0.001474386 0.0009847898 0.0005008104 2.945386E-05 -0.0004271878 -0.0008680595 -0.001293057
 -0.001699458 -0.002087148 -0.002446881 -0.002778454 -0.003076416 -0.003342415 -0.003584279 -0.003803529 -0.004011606 -0.004205205
 -0.004383368 -0.004539066 -0.004659675 -0.004741312 -0.004772728 -0.004758071 -0.004695315 -0.004594464 -0.004459987 -0.004300858
 -0.004121653 -0.003926443 -0.003716251 -0.003497112 -0.003268284 -0.003048041 -0.002837319 -0.002660979 -0.002520605 -0.002428106
 -0.002382777 -0.002375338 -0.002403836 -0.002450862 -0.002516336 -0.002590307 -0.002674829 -0.002770189 -0.002877796 -0.003000816
 -0.003138184 -0.003289921 -0.00345476 -0.003630803 -0.003820142 -0.004022432 -0.00424325 -0.004484911 -0.004750156 -0.005041454
 -0.005352752 -0.005684479 -0.006023511 -0.006368641 -0.006709105 -0.007044108 -0.007373055 -0.007696398 -0.00802134 -0.008348622
 -0.008686507 -0.009035315 -0.009401049 -0.009782746 -0.01018226 -0.0105955 -0.01101723 -0.01144165 -0.01185886 -0.01226803
 -0.01266367 -0.01305155 -0.0134334 -0.01381409 -0.01419682 -0.01458029 -0.01496487 -0.01534824 -0.01573017 -0.01610847
 -0.0164834 -0.01684695 -0.01719873 -0.01752651 -0.01783003 -0.01810382 -0.01834873 -0.01856794 -0.01876226 -0.01893604
 -0.0190902 -0.01922853 -0.01935318 -0.01946995 -0.01957924 -0.01968562 -0.01978324 -0.0198705 -0.01993668 -0.01997576
 -0.01997858 -0.01994 -0.01985577 -0.01972376 -0.0195424 -0.01931083 -0.01903022 -0.01869999 -0.01832849 -0.01791603
 -0.01747978 -0.01702081 -0.01655827 -0.01609243 -0.01563493 -0.01518431 -0.01474196 -0.0143046 -0.01386543 -0.01342011
 -0.01295713 -0.01247603 -0.01196878 -0.01144513 -0.01090804 -0.01037417 -0.009854021 -0.009358187 -0.008894718 -0.008462235
 -0.008063043 -0.007688281 -0.007337744 -0.006997785 -0.006667554 -0.006329627 -0.005982855 -0.005614657 -0.00522484 -0.004810861
 -0.004372505 -0.003907972 -0.003414921 -0.002883025 -0.002310146 -0.00168418 -0.001007542 -0.0002772974 0.0004990281 0.001314668
 0.002159653 0.003024053 0.003898794 0.00477575 0.005650501 0.006518666 0.007382018 0.008239488 0.009097098 0.009955452
 0.01082101 0.01169444 0.0125809 0.0134807 0.01439975 0.01533837 0.01630382 0.01729478 0.01830829 0.01933742
 0.0203545 0.02134938 0.0222793 0.0231434 0.02391522 0.0246123 0.02524163 0.02583181 0.02640913 0.02699536
 0.02761406 0.02826348 0.02895285 0.02965668 0.03037041 0.03107071 0.03174982 0.03241401 0.03306147 0.03371925
 0.03438911 0.03508598 0.03580966 0.03655404 0.03731797 0.03809107 0.03887214 0.03965262 0.0404284 0.04118602
 0.0419181 0.04260645 0.04324229 0.04380868 0.04429625 0.04469132 0.04498826 0.04517758 0.04526593 0.04525025
 0.04515229 0.04497468 0.0447476 0.04447571 0.04418761 0.04388694 0.04359297 0.04330723 0.04304006 0.04279203
 0.04257314 0.04238417 0.04223669 0.04212963 0.04206605 0.04204158 0.04204621 0.04207599 0.04211857 0.04217318
 0.04223509 0.04230098 0.04237025 0.0424277 0.04246851 0.04246541 0.04240742 0.04227053 0.04204371 0.04172442
 0.04130819 0.04081243 0.04023805 0.03960428 0.03891239 0.03817784 0.0374019 0.03660767 0.03579719 0.03499784
 0.03420867 0.03344123 0.03269112 0.03195164 0.03122082 0.0304913 0.02976418 0.02903934 0.02831388 0.02758768
 0.02685028 0.02609809 0.02531348 0.02449136 0.02360694 0.02265381 0.02160761 0.0204621 0.01920685 0.01783863
 0.01636585 0.01478832 0.01312986 0.01139242 0.009614001 0.007798253 0.005990652 0.004193954 0.002444835 0.000742499
 -0.000895955 -0.002473759 -0.003988476 -0.005444613 -0.006846373 -0.008199202 -0.009509246 -0.01078067 -0.01201834 -0.01322224
 -0.01439438 -0.01553007 -0.01662916 -0.0176838 -0.0186924 -0.01964998 -0.02055485 -0.02141369 -0.0222265 -0.0230104
 -0.02376604 -0.02450466 -0.02522494 -0.02592197 -0.02659321 -0.02722502 -0.02781596 -0.02835496 -0.02884185 -0.02927077
 -0.02964321 -0.02995727 -0.03021878 -0.0304301 -0.03060318 -0.03074424 -0.03086832 -0.03098269 -0.03109922 -0.03122314
 -0.03135895 -0.03150863 -0.03167187 -0.03184915 -0.03203705 -0.03223563 -0.03243455 -0.0326331 -0.03281591 -0.03298317
 -0.03312901 -0.03325546 -0.03336957 -0.03347063 -0.03356187 -0.03363776 -0.03368818 -0.03371137 -0.03369823 -0.03365641
 -0.03358908 -0.033505 -0.03341181 -0.03331066 -0.03320425 -0.03309038 -0.03296807 -0.03283969 -0.03270473 -0.03257059
 -0.03243782 -0.03231481 -0.03220223 -0.03210553 -0.03202493 -0.03196216 -0.03191762 -0.03189512 -0.03189569 -0.0319267
 -0.03198733 -0.0320802 -0.03220117 -0.03234365 -0.0325038 -0.03267382 -0.03285128 -0.03303273 -0.03321205 -0.03338634
 -0.03354438 -0.03368115 -0.03378709 -0.03385844 -0.03388937 -0.0338784 -0.0338204 -0.03371424 -0.03355939 -0.03335526
 -0.03311355 -0.03283512 -0.03253916 -0.03222601 -0.03190718 -0.03158095 -0.03124513 -0.03089879 -0.03053623 -0.03016178
 -0.02977971 -0.02939808 -0.02903059 -0.02868021 -0.02835697 -0.02805373 -0.02776938 -0.02749555 -0.02722673 -0.02696383
 -0.02670506 -0.0264571 -0.02622154 -0.0259998 -0.02579263 -0.02559653 -0.02541116 -0.02523698 -0.02507419 -0.02492945
 -0.02480313 -0.02470192 -0.02462476 -0.0245716 -0.02453849 -0.02451568 -0.02449558 -0.02445932 -0.02439932 -0.02429521
 -0.02414913 -0.02395218 -0.02372016 -0.02346007 -0.02318674 -0.02291124 -0.02263096 -0.02234807 -0.0220544 -0.02174635
 -0.02143317 -0.02111473 -0.02080832 -0.02051599 -0.02023285 -0.01995821 -0.01966751 -0.01936088 -0.01902768 -0.01867264
 -0.01831254 -0.01795168 -0.01761306 -0.01729468 -0.01700526 -0.01673649 -0.01648165 -0.01623018 -0.01596895 -0.01569276
 -0.01539215 -0.01507303 -0.01473435 -0.01438779 -0.0140374 -0.01368806 -0.01334267 -0.01299554 -0.0126467 -0.01228741
 -0.01191682 -0.0115322 -0.01113367 -0.01072903 -0.01031958 -0.009920005 -0.009531715 -0.009169407 -0.008833176 -0.00853213
 -0.008262917 -0.008025439 -0.007810234 -0.00760538 -0.007399344 -0.007175106 -0.006930244 -0.006655352 -0.006360797 -0.006048098
 -0.005729758 -0.005410215 -0.005096354 -0.004789918 -0.004497104 -0.004218603 -0.00396202 -0.003728333 -0.003516707 -0.003326654
 -0.003138204 -0.002948599 -0.002723132 -0.00246089 -0.002136046 -0.001755906 -0.001326595 -0.0008617126 -0.0003925661 7.232363E-05
 0.0005057539 0.000909552 0.001275438 0.001608329 0.001908885 0.002182197 0.002428868 0.002660082 0.002877515 0.00309861
 0.003327495 0.003574917 0.003844273 0.004128677 0.004428685 0.004720409 0.00500264 0.005252723 0.005471691 0.005659912
 0.005821438 0.005977178 0.006128763 0.006292672 0.00646703 0.006654831 0.006856346 0.007073542 0.007305824 0.007556529
 0.007814578 0.008075192 0.008323543 0.008549573 0.008751648 0.0089247 0.009081688 0.009222886 0.009368555 0.009520901
 0.009699788 0.009907563 0.01014717 0.01041842 0.01070064 0.01099358 0.01128455 0.01157888 0.01189713 0.01224455
 0.01265083 0.01311204 0.01363581 0.01421235 0.01483221 0.01548282 0.01615088 0.01681875 0.01747173 0.01809343
 0.01867267 0.01919972 0.01967024 0.02007416 0.02040812 0.02066815 0.0208505 0.0209784 0.02105224 0.02111347
 0.02116421 0.02123704 0.02133297 0.02147413 0.02166069 0.02190815 0.02221093 0.02256259 0.02295067 0.02334558
 0.02373804 0.02410153 0.02443194 0.02471723 0.02495061 0.02512321 0.02523306 0.02527216 0.02525997 0.02519695
 0.02511846 0.02503119 0.02496596 0.02492849 0.02493376 0.0249843 0.02507485 0.02520503 0.02535554 0.02552629
 0.0257084 0.025905 0.02612788 0.02638022 0.02667871 0.02702414 0.02742868 0.02788567 0.02839594 0.02893722
 0.02948618 0.03002781 0.03053135 0.03103488 0.03153812 0.03211847 0.03281844 0.03361117 0.03451824 0.03538127
 0.03617298 0.03684707 0.0373931 0.0378664 0.03826917 0.0386214 0.0389211 0.03915091 0.03931107 0.03939505
 0.03940408 0.03934083 0.03920159 0.03897712 0.03867019 0.03827631 0.03781231 0.03729206 0.0367354 0.03615966
 0.03558135 0.03501113 0.03446488 0.03394829 0.03347893 0.03305968 0.03271391 0.03244527 0.03227169 0.03219699
 0.03220069 0.03228135 0.03237219 0.03246892 0.03250099 0.03246897 0.03233747 0.03211349 0.03179704 0.03140426
 0.03096469 0.0305062 0.03008387 0.02971771 0.02945738 0.02928699 0.02921939 0.02920565 0.02923083 0.02923445
 0.02919254 0.02906657 0.02883416 0.02853002 0.02814749 0.02779348 0.02747673 0.02727911 0.02720475 0.02724549
 0.0273976 0.02761493 0.02789537 0.0282059 0.02854405 0.02888367 0.02922431 0.02955057 0.02986741 0.03017902
 0.03048092 0.03077445 0.03104089 0.03126593 0.03143928 0.03154849 0.03160301 0.03160107 0.03156224 0.03148759
 0.03140933 0.03133094 0.03128818 0.03128606 0.03132521 0.03140568 0.03148939 0.03157508 0.03163613 0.03167488
 0.03169243 0.03168846 0.03166152 0.0316117 0.03153438 0.03144034 0.03134388 0.03125551 0.03119488 0.03115904
 0.03115228 0.03116906 0.03120842 0.03126315 0.03133514 0.03139795 0.03144761 0.0314537 0.03140834 0.03131483
 0.03117128 0.03100709 0.03082375 0.03063395 0.03043584 0.03020884 0.02995089 0.02963577 0.02927121 0.02886614
 0.0284379 0.02803393 0.02765809 0.02734448 0.02707075 0.02682404 0.02658818 0.02634009 0.02609401 0.02585467
 0.02562272 0.02540918 0.02516699 0.0248859 0.02453559 0.02410178 0.02363509 0.0231364 0.0226871 0.02229165
 0.02196869 0.02171356 0.02147004 0.02123223 0.02093329 0.02058004 0.02015377 0.01968034 0.0192081 0.01876391
 0.01842106 0.01816953 0.0180362 0.01797409 0.01795667 0.01794467 0.01790529 0.01783662 0.01772572 0.01760129
 0.0174656 0.01735521 0.0172783 0.01724285 0.01725314 0.01726725 0.01728301</values></Ydata></AB><ScSm><Ydata ylabel="Single channel"><values byteorder="INTEL" format="FLOAT32" numvalues="1814"> 0.07173946 0.07174093 0.0718093 0.07196902 0.07219222 0.07241194 0.07256806 0.07264587 0.07266151 0.07262161
 0.07253507 0.07246233 0.07249919 0.07268284 0.07293694 0.07312509 0.07316013 0.07308067 0.0730278 0.07310717
 0.07324636 0.07321975 0.07286117 0.0722543 0.07167628 0.07134184 0.07127105 0.07145451 0.07198865 0.07281309
 0.07341832 0.07321137 0.07226177 0.07133622 0.07104893 0.07127222 0.07149263 0.07140559 0.07101337 0.07050499
 0.07030027 0.07093653 0.07254092 0.07439406 0.07518758 0.07384881 0.0703072 0.06573607 0.06211876 0.06118666
 0.06320322 0.0666142 0.06921349 0.06990162 0.06921448 0.06821251 0.06733303 0.06652449 0.0659923 0.06624444
 0.06739648 0.06869473 0.06890768 0.06738611 0.06483468 0.06280342 0.06226823 0.06302268 0.06451585 0.06645182
 0.0679478 0.06705351 0.06267167 0.05698869 0.05449978 0.05773471 0.06455544 0.07024232 0.071693 0.06917019
 0.06493196 0.06135634 0.06003976 0.06137631 0.06449762 0.06798952 0.07074272 0.0720019 0.07117908 0.06836415
 0.06482621 0.06240074 0.06236005 0.06490916 0.06914446 0.07314348 0.07483876 0.07354015 0.07039158 0.06716393
 0.06509119 0.06487173 0.06684039 0.07062397 0.075118 0.07912274 0.08183032 0.08291377 0.08260158 0.08153012
 0.08025718 0.07916936 0.07881758 0.07957711 0.08075893 0.08087305 0.07924776 0.07692249 0.07557656 0.07579412
 0.07659976 0.07664699 0.07558212 0.07383601 0.07129852 0.06727543 0.06208747 0.0575147 0.05502022 0.05462548
 0.05595706 0.05882643 0.06200477 0.06315487 0.06139524 0.05892968 0.05886927 0.06191207 0.06598584 0.06876835
 0.06983556 0.07048504 0.07207029 0.07462046 0.07667783 0.0763959 0.07336472 0.06963654 0.06827697 0.07035967
 0.07393616 0.07643362 0.07736761 0.07806711 0.079344 0.08023085 0.07898941 0.07517945 0.07076965 0.06892072
 0.07123065 0.07613262 0.08003472 0.0799841 0.07565372 0.06940126 0.06442735 0.06256486 0.06379528 0.06747295
 0.07303676 0.07936481 0.08447336 0.08662917 0.08561667 0.08264145 0.07895297 0.07469407 0.06954855 0.06463719
 0.06275478 0.06572994 0.07208794 0.07827893 0.08184616 0.08265373 0.08151284 0.07867421 0.07404491 0.06861807
 0.0649429 0.06515165 0.06839286 0.07130867 0.07154699 0.06990635 0.06861416 0.06855112 0.06892119 0.06894857
 0.06897788 0.06987104 0.07176943 0.0737583 0.07475004 0.07447544 0.07353637 0.07270531 0.07222957 0.0716559
 0.07047096 0.06910977 0.06892341 0.07069517 0.0735602 0.075895 0.07695194 0.07713563 0.07692163 0.0760297
 0.07384108 0.07056941 0.06774133 0.06706631 0.0687828 0.07150901 0.07368402 0.07469119 0.07470712 0.0741363
 0.07333674 0.07250482 0.07173676 0.07128014 0.07146859 0.07224713 0.07307 0.07345083 0.07335958 0.07297555
 0.07234158 0.07143198 0.07039745 0.06957583 0.06925221 0.06944408 0.06993384 0.07046631 0.07084344 0.07089195
 0.07052495 0.06986904 0.06918642 0.06863692 0.06822596 0.06796785 0.06793951 0.06813511 0.06839182 0.06852427
 0.06847383 0.06829183 0.06803249 0.06770984 0.06733671 0.06696832 0.06669803 0.06659359 0.0666205 0.06666142
 0.0666491 0.06663392 0.06666404 0.06665939 0.06649464 0.06617168 0.0658257 0.06557791 0.06544469 0.0653716
 0.0652902 0.06512828 0.06481575 0.06434588 0.06384623 0.06353001 0.06352665 0.06378493 0.06415549 0.0645051
 0.06473586 0.06479104 0.06469849 0.06454676 0.06438133 0.06416999 0.06388687 0.06359145 0.06340835 0.06343274
 0.06364319 0.06390969 0.0640998 0.06416459 0.06412819 0.06404914 0.0640009 0.06402196 0.06406113 0.06402657
 0.06390411 0.06378096 0.06374227 0.06377754 0.06379887 0.0637392 0.06362823 0.06356238 0.06359817 0.06369877
 0.06379312 0.06385481 0.06390494 0.06396 0.06399468 0.06395727 0.06383076 0.06367223 0.06356397 0.06352861
 0.06352901 0.06354569 0.06360522 0.06372146 0.06385049 0.06392892 0.06394114 0.06392875 0.06393292 0.06394166
 0.06390831 0.06381495 0.06369843 0.0636123 0.06357902 0.06358176 0.06358874 0.06357892 0.06354938 0.06350561
 0.06344949 0.0633767 0.06328128 0.06316659 0.06305918 0.06300215 0.06301516 0.0630607 0.06306744 0.06299403
 0.06286475 0.06273984 0.06265518 0.06259497 0.0625231 0.06243078 0.0623422 0.06228073 0.06224696 0.06222807
 0.06221128 0.06218829 0.06216567 0.06217531 0.0622554 0.06240612 0.06257325 0.06269117 0.06274232 0.0627652
 0.0628077 0.06288569 0.06298482 0.06308916 0.06320263 0.06334397 0.06351516 0.06368034 0.06379628 0.06386662
 0.06394276 0.06406777 0.06424256 0.06444467 0.06464764 0.06481937 0.06493811 0.0650233 0.06512424 0.0652661
 0.06542701 0.06557746 0.06572136 0.06588268 0.06606825 0.06626576 0.06647503 0.06672007 0.06702135 0.06736343
 0.06769656 0.06797223 0.06818432 0.06838021 0.06862631 0.06895377 0.06933588 0.0697159 0.07005477 0.07035493
 0.07064451 0.07094153 0.07124113 0.07154296 0.07187434 0.07226269 0.07269189 0.07311282 0.07349823 0.07386509
 0.07424242 0.07463834 0.07504342 0.07544947 0.07585624 0.07626583 0.07667503 0.07707381 0.07745214 0.07780868
 0.07815374 0.07850643 0.07888518 0.07928774 0.07967739 0.08000812 0.08027802 0.08054364 0.08086143 0.08122315
 0.08157211 0.08187917 0.08217458 0.08249971 0.08285528 0.0832137 0.08356185 0.08391 0.0842668 0.0846213
 0.08494724 0.08522004 0.08543728 0.08562636 0.08582537 0.08605891 0.0863409 0.08668458 0.08708458 0.08749537
 0.08785692 0.08814273 0.08836695 0.08855644 0.08873983 0.08894977 0.08920459 0.08948941 0.08977024 0.09001783
 0.09021331 0.09035868 0.09049583 0.09068611 0.09095152 0.09125963 0.09158087 0.09192844 0.09231973 0.09272936
 0.09311818 0.09349393 0.0939009 0.09434551 0.09476912 0.09510949 0.09536025 0.09555206 0.0957105 0.09586501
 0.09607184 0.09638043 0.09677968 0.09720796 0.09761347 0.09798207 0.09831471 0.09860603 0.09885156 0.09905902
 0.09924342 0.09941568 0.09958257 0.09975877 0.09996906 0.1002241 0.100494 0.1007202 0.1008583 0.1008968
 0.1008345 0.1006682 0.1004169 0.1001345 0.09986542 0.09958781 0.09922551 0.0987164 0.09805319 0.09726001
 0.09635661 0.09535962 0.09430744 0.09326886 0.09232613 0.09155078 0.09099565 0.09070751 0.09073424 0.09109674
 0.09174184 0.09252983 0.09327623 0.09380814 0.09399997 0.09379487 0.09321877 0.09236524 0.09134754 0.09025549
 0.08914526 0.0880422 0.08693746 0.0857998 0.08462113 0.08346212 0.08245806 0.08180571 0.08176425 0.08262514
 0.08457498 0.08750509 0.09096365 0.0943597 0.09726869 0.09957939 0.1014082 0.1029304 0.1042785 0.10552
 0.1066682 0.1077136 0.1086568 0.109513 0.1102877 0.1109643 0.111517 0.1119268 0.1121908 0.1123278
 0.1123774 0.1123894 0.1124155 0.1124984 0.1126444 0.1127991 0.1128605 0.1127257 0.1123258 0.1116279
 0.1106182 0.1093215 0.1079072 0.1068223 0.1067382 0.1081848 0.111127 0.1149176 0.1187067 0.1219123
 0.124367 0.126172 0.1275104 0.1285495 0.1294087 0.1301599 0.1308468 0.131497 0.1321194 0.1327084
 0.1332617 0.1337916 0.1343177 0.13485 0.1353802 0.1358899 0.1363701 0.1368329 0.1373026 0.137794
 0.1382979 0.1387897 0.1392556 0.1397065 0.1401577 0.1406016 0.1410182 0.141407 0.1417907 0.1421912
 0.1426171 0.1430666 0.1435236 0.1439556 0.1443373 0.1446737 0.1449929 0.1453172 0.1456506 0.1459882
 0.1463273 0.1466683 0.1470108 0.1473571 0.1477159 0.1480903 0.1484607 0.148793 0.1490728 0.1493247
 0.1495902 0.1498906 0.1502132 0.1505286 0.1508215 0.15111 0.1514323 0.1518067 0.1522067 0.1525813
 0.1529009 0.1531783 0.15345 0.1537431 0.1540601 0.1543873 0.1547098 0.1550207 0.1553241 0.1556311
 0.1559502 0.1562777 0.1566028 0.1569191 0.1572299 0.1575405 0.1578506 0.1581558 0.1584568 0.158765
 0.1590944 0.1594449 0.1597949 0.160116 0.1603962 0.1606465 0.1608892 0.1611424 0.1614138 0.1617003
 0.1619921 0.1622803 0.1625651 0.1628547 0.1631556 0.1634641 0.1637708 0.1640716 0.1643708 0.1646739
 0.1649809 0.1652883 0.165594 0.1658992 0.1662041 0.166505 0.1667983 0.1670866 0.1673781 0.1676757
 0.1679721 0.1682591 0.1685393 0.1688223 0.169113 0.1694088 0.1697038 0.1699928 0.1702741 0.1705517
 0.1708325 0.1711193 0.1714082 0.1716938 0.1719742 0.1722508 0.1725256 0.1727986 0.1730699 0.1733438
 0.1736271 0.1739211 0.1742182 0.1745085 0.1747883 0.1750613 0.1753346 0.175611 0.1758862 0.176154
 0.176416 0.1766782 0.1769428 0.177207 0.1774703 0.1777362 0.1780092 0.1782928 0.1785868 0.1788862
 0.1791858 0.1794825 0.1797729 0.1800526 0.1803209 0.1805827 0.1808457 0.1811178 0.1814002 0.1816843
 0.1819615 0.1822355 0.182514 0.1827946 0.1830686 0.1833362 0.183605 0.1838778 0.1841485 0.1844096
 0.1846622 0.1849172 0.1851828 0.1854536 0.1857199 0.1859822 0.1862471 0.1865163 0.1867887 0.1870644
 0.1873414 0.1876167 0.1878926 0.1881722 0.1884509 0.1887227 0.1889898 0.189259 0.1895369 0.1898252
 0.1901162 0.1903972 0.1906674 0.1909397 0.1912232 0.1915139 0.1918021 0.1920801 0.1923458 0.192606
 0.1928707 0.1931415 0.193416 0.1936944 0.1939734 0.1942457 0.1945135 0.1947852 0.195059 0.1953291
 0.195601 0.1958806 0.196161 0.1964347 0.1967033 0.1969683 0.1972297 0.197492 0.1977563 0.1980174
 0.1982768 0.1985432 0.198818 0.1990967 0.1993773 0.1996532 0.1999154 0.2001673 0.2004144 0.2006387
 0.2007861 0.2007236 0.2001235 0.1983475 0.194438 0.187313 0.1762042 0.1611574 0.1431908 0.1239211
 0.1049644 0.08753027 0.07232643 0.05966273 0.04960149 0.04204953 0.03682016 0.03374995 0.03282358 0.03428704
 0.03875783 0.04685747 0.05785207 0.06844297 0.07404399 0.07240313 0.06576236 0.05881353 0.05479057 0.05390531
 0.05476244 0.05618239 0.05779564 0.05981892 0.06262906 0.06634748 0.07081044 0.07601173 0.0823283 0.09004025
 0.09874204 0.1075026 0.1156631 0.1233625 0.1312312 0.1396416 0.1483149 0.1565944 0.1639737 0.1703587
 0.1759611 0.1810593 0.1858419 0.1903905 0.1947336 0.1988502 0.202591 0.2056479 0.2076932 0.208624
 0.208689 0.208358 0.2080479 0.2079522 0.2080822 0.2083978 0.208874 0.2094948 0.2102402 0.2110817
 0.2119839 0.2129164 0.2138609 0.2147978 0.2156952 0.216523 0.217271 0.2179473 0.2185657 0.2191372
 0.2196678 0.220162 0.2206268 0.2210669 0.2214823 0.2218756 0.2222548 0.2226194 0.2229565 0.223257
 0.2235272 0.2237787 0.2240209 0.2242635 0.2245121 0.2247596 0.2249938 0.2252142 0.2254328 0.2256592
 0.2258926 0.2261263 0.2263559 0.2265815 0.2268052 0.227027 0.2272478 0.2274732 0.2277091 0.2279526
 0.2281948 0.2284306 0.2286613 0.2288899 0.2291187 0.2293475 0.2295741 0.2297969 0.2300167 0.2302334
 0.2304499 0.2306778 0.2309287 0.2311973 0.2314654 0.2317217 0.2319663 0.2322031 0.232439 0.2326813
 0.2329242 0.2331486 0.2333467 0.2335385 0.233756 0.2340149 0.2342975 0.2345671 0.2348042 0.2350244
 0.2352533 0.2354949 0.2357338 0.2359563 0.2361647 0.2363847 0.2366493 0.236959 0.2372759 0.2375717
 0.2378527 0.2381316 0.2384102 0.2386947 0.2389864 0.2392525 0.2394508 0.2395962 0.2397758 0.2400779
 0.2405061 0.2409673 0.2413568 0.2416517 0.2419069 0.2421839 0.2425089 0.2428507 0.2430985 0.2431388
 0.2430306 0.243033 0.243369 0.2440028 0.244706 0.2452897 0.2457221 0.2460688 0.2463871 0.2466668
 0.2468444 0.2468779 0.2468329 0.246893 0.247231 0.2478329 0.2484962 0.249035 0.2494233 0.2497191
 0.2499595 0.2501625 0.2502906 0.2501844 0.2497307 0.249175 0.2490619 0.2497079 0.2508411 0.251889
 0.2525442 0.2529204 0.2532336 0.2535401 0.2537943 0.2538906 0.2535384 0.2524336 0.250846 0.2497764
 0.2501286 0.2517992 0.2538468 0.2554308 0.2563437 0.2568058 0.2570938 0.2573523 0.2574809 0.2571544
 0.2561842 0.2549786 0.25443 0.2550933 0.2565692 0.2579339 0.2586791 0.2589797 0.2592047 0.2595023
 0.2597008 0.2592622 0.257589 0.2549064 0.2527061 0.2526981 0.2551371 0.2585146 0.2610537 0.2622377
 0.2626705 0.2627673 0.2621448 0.2603137 0.2574185 0.2541763 0.2516396 0.251038 0.2529665 0.2563793
 0.2591844 0.2603062 0.2605984 0.2614515 0.2631347 0.2648101 0.265614 0.2653244 0.2642147 0.262577
 0.260577 0.2586839 0.2579423 0.2592349 0.2622022 0.265363 0.2674837 0.2685154 0.2689543 0.2683991
 0.2652515 0.258634 0.250811 0.2465807 0.2490405 0.2563466 0.2636995 0.2680716 0.2698733 0.2707025
 0.2711939 0.2708381 0.2682855 0.2620986 0.2530308 0.2454307 0.244293 0.250322 0.2591351 0.2653483
 0.2662305 0.2619823 0.2547777 0.2481282 0.2454512 0.2479938 0.2542831 0.2615852 0.2675475 0.2708413
 0.271151 0.2690575 0.2659986 0.2639166 0.2638528 0.2644157 0.2628356 0.2584571 0.2538211 0.2509385
 0.248199 0.2433763 0.238513 0.2385668 0.2449502 0.2531501 0.2577828 0.2580436 0.2567621 0.2552837
 0.2512156 0.2418984 0.229437 0.2208225 0.2218161 0.2309735 0.2409272 0.2455856 0.2449776 0.243134
 0.2426953 0.2422187 0.2382432 0.2298111 0.2207743 0.2165816 0.2185157 0.2225443 0.2241087 0.2218008
 0.2158326 0.2065262 0.1968266 0.1932662 0.2004637 0.2154648 0.2300532 0.2375306 0.2352115 0.2229607
 0.2040201 0.1868368 0.1809781 0.1886199 0.2019207 0.2102228 0.2085336 0.198471 0.1836677 0.1672061
 0.1529396 0.1460062 0.149754 0.162287 0.1766226 0.1842723 0.1799506 0.1655828 0.15044 0.1444977
 0.1495061 0.15787 0.1611648 0.1577586 0.1516689 0.1472696 0.1466962 0.1495972 0.1535742 0.1563727
 0.1576853 0.1568343 0.1503749 0.1362885 0.1197588 0.1098131 0.1099181 0.1161726 0.1245557 0.1345201
 0.1443128 0.1485279 0.1442082 0.1364714 0.1341661 0.1404878 0.1502304 0.1561277 0.1560232 0.1532789
 0.1515251 0.1507584 0.1491474 0.1472483 0.1481803 0.1533093 0.1598454 0.1639429 0.1647077 0.1638691
 0.1628416 0.1616599 0.1599796 0.1576976 0.1548615 0.151767 0.1488845 0.1463157 0.1436861 0.1406913
 0.1371356 0.1322602 0.1249723 0.1156211 0.1070081 0.1022808 0.101733 0.1030009 0.1044133 0.105958
 0.106281 0.1017813 0.09130394 0.08003239 0.07574803 0.08135065 0.09271198 0.1033607 0.1093586 0.1096438
 0.1042335 0.09462158 0.08559382 0.08372213 0.0920704 0.1073679 0.1236048 0.1371235 0.1469444 0.1520724
 0.1513058 0.1456451 0.1390699 0.1362931 0.1400034 0.1496606 0.1615234 0.169459 0.1679695 0.157789
 0.1485045 0.1514435 0.1676246 0.1858792 0.1953929 0.1967048 0.1971467 0.1994317 0.2003732 0.1991023
 0.2002626 0.2076138 0.2184155 0.2261032 0.2260794 0.2175276 0.2026428 0.186932 0.1778242 0.1788553
 0.1857789 0.1912632 0.192028 0.1884313 0.1800848 0.1675866 0.1571529 0.156904 0.1673853 0.1803661
 0.1882137 0.1908738 0.1924748 0.1942285 0.1930236 0.1862122 0.1760258 0.1682026 0.1663325 0.168724
 0.17129 0.1718545 0.1703039 0.1662462 0.1592226 0.1511736 0.1464318 0.1480399 0.1546997 0.1620511
 0.1666153 0.1680152 0.1679229 0.1679177 0.1683933 0.1687117 0.1683414 0.168349 0.1711905 0.1779776
 0.1865221 0.1935016 0.1982503 0.202961 0.2092189 0.2157333 0.219831 0.2203536 0.2188046 0.218116
 0.2203408 0.225014 0.2294714 0.2311095 0.2298574 0.228467 0.2299669 0.2347468 0.2404879 0.2447834
 0.2471154 0.2483517 0.2493086 0.2500695 0.249963 0.2481062 0.2447426 0.2420252 0.2425209 0.246673
 0.252358 0.2570296 0.2597213 0.2609369 0.2613238 0.2609478 0.259674 0.2578214 0.2561831 0.2554181
 0.2555965 0.2563662 0.257356 0.2583279 0.2591426 0.2597604 0.2602332 0.2606297 0.2610063 0.261438
 0.2619715 0.2625389 0.2630199 0.2634246 0.2639248 0.2646387 0.2654497 0.2661135 0.2664841 0.2665349
 0.2662153 0.26544 0.2642365 0.2627606 0.2611157 0.259276 0.2573097 0.2556373 0.2549251 0.2556108
 0.2575176 0.2599566 0.2622043 0.2638787 0.2649562 0.2655862 0.2659491 0.2661958 0.2664133 0.2666147
 0.2667767 0.2668869 0.2669548 0.2669913 0.2669989 0.2669929 0.2670154 0.267113 0.2672931 0.2675092
 0.2676853 0.2677608 0.2677295 0.2676378 0.2675337 0.2674131 0.2672202 0.26689 0.2663907 0.2657457
 0.2650326 0.2643422 0.2637117 0.2631014 0.2624438 0.2617016 0.2608508 0.2598338 0.2585924 0.2571694
 0.2557221 0.2543948 0.253204 0.2520667 0.2508962 0.2496396 0.2482665 0.2467726 0.2451835 0.2435356
 0.2418585 0.2401751 0.2384976 0.2368145 0.2350921 0.2332927 0.2313912 0.2293837 0.2272882 0.2251225
 0.2228679 0.2204494 0.2177542 0.2146703 0.2111086 0.2070085 0.2023568 0.1972232 0.1917674 0.1861968
 0.1807036 0.1754317 0.1704893 0.1659878 0.1620576 0.1588148 0.1563128 0.154537 0.1534438 0.1529934
 0.1531597 0.1539232 0.1552477 0.1570462 0.1591696 0.161434 0.1636586 0.1657038 0.1675095 0.1691142
 0.1706186 0.1721124 0.1736265 0.1751437 0.1766359 0.1780738 0.1794119 0.1805965 0.1816022 0.1824409
 0.1831303 0.1836755 0.1840878 0.1843977 0.1846365 0.1848219 0.184973 0.185131 0.185357 0.18571
 0.1862231 0.186901 0.1877303 0.188684 0.1897235 0.1908109 0.1919232 0.1930473 0.194178 0.1953262
 0.196521 0.1977996 0.1992188 0.2008683 0.2028401 0.2051733 0.2078363 0.2107468 0.2137896 0.2168248
 0.2197051 0.2223052 0.2245512 0.2264359 0.2280015 0.2293018 0.2303801 0.2312699 0.2319945 0.2325661
 0.2329947 0.2332929 0.2334656 0.2335087 0.2334172 0.2331866 0.2328168 0.2323279 0.2317636 0.2311703
 0.2305769 0.2299994 0.2294512 0.2289448 0.2284814 0.2280402 0.2275857 0.2270988 0.2265881 0.2260603
 0.2254936 0.2248514 0.2241034 0.2232286 0.2222204 0.2210956 0.2198793 0.2185816 0.2171994 0.2157357
 0.2142081 0.2126441 0.2110666 0.2094777 0.2078598 0.2061868 0.204419 0.2025015 0.2004111 0.1982085
 0.1960098 0.1939004 0.191892 0.1899568 0.1880755 0.1862536 0.184508 0.1828455 0.1812574 0.1797371
 0.1782893 0.1769204 0.1756323 0.1744281 0.1733142 0.1722987 0.1713938 0.1706112 0.1699483 0.1693902
 0.1689216 0.1685262 0.1681866 0.1679032 0.1676941 0.167554 0.1674255 0.1672345 0.1669473 0.1665897
 0.1662139 0.1658558 0.1655207 0.1652059 0.1649163 0.1646386 0.1643068 0.1638109 0.1630376 0.1619117
 0.1604235 0.1586286 0.1566158 0.1544844 0.1523512 0.1503465 0.1485791 0.1471117 0.1459621 0.1450969
 0.1444313 0.1438744 0.14339 0.143012 0.1428035 0.1427784 0.1428414 0.1428383 0.1427073 0.1425535
 0.1425476 0.1427784 0.1432119 0.1437413 0.1442509 0.1446693 0.1449784 0.1451763 0.1452576 0.1452326
 0.1451229 0.1449354 0.1446699 0.1443414 0.1439662 0.1435487 0.1430889 0.1425735 0.1419682 0.1412527
 0.1404449 0.1395693 0.1386319 0.1376271 0.1365224 0.1352689 0.1339076 0.1326475 0.1317669 0.1314355
 0.1316263 0.1321519 0.1327932 0.1334402 0.1340573 0.1344964 0.1345304 0.1342345 0.1341952 0.1350865
 0.1370022 0.1393295 0.1412911 0.1424957 0.1429615 0.1428179 0.1421539 0.1410416 0.1395144 0.1375498
 0.1351682 0.1324754 0.129572 0.1265544 0.1236088 0.1209493 0.1186794 0.116805 0.1153044 0.1142048
 0.1136258 0.1132127 0.1111967 0.1053345 0.09638609 0.08964296 0.09047854 0.098306 0.1069977 0.1113703
 0.1113182 0.1096375 0.1082377 0.1073958 0.1070116 0.1072223 0.108148 0.1096426 0.1113084 0.1127181
 0.113669 0.1141663 0.1141697 0.1133885 0.1112099 0.1068811 0.1001254 0.09172548 0.08327293 0.07623102
 0.07128128 0.06834562 0.06688701 0.06621797 0.06583807 0.06566496 0.06595095 0.06696554 0.06875649 0.07118401
 0.07407501 0.07721147 0.080224 0.08272937 0.08463687 0.08614865 0.08741968 0.08837637 0.08888207 0.08891758
 0.08857084 0.08796697 0.08723442 0.0864605 0.08563893 0.08469156 0.08360154 0.08253752 0.08176877 0.08140844
 0.08131737 0.08129655 0.08127116 0.08125394 0.08125032 0.08125186 0.08126026 0.08131605 0.08152187 0.0819617
 0.08256519 0.0831352 0.08352932 0.08375642 0.08390978 0.08403049 0.08400305 0.08364697 0.08300863 0.08241846
 0.08205923 0.08164016 0.0807848 0.07963432 0.07877003 0.07857431 0.07889309 0.07929496 0.07946083 0.07932629
 0.07905356 0.07895526 0.07929018 0.07996726</values></Ydata></ScSm><ScRf><Ydata ylabel="Single channel"><values byteorder="INTEL" format="FLOAT32" numvalues="1820"> 0.06069849 0.06085851 0.06095887 0.06099426 0.06098827 0.06099071 0.06105346 0.06119648 0.06139344 0.06158616
 0.06172072 0.06178093 0.06178221 0.06173808 0.06166227 0.06160631 0.06164901 0.06181891 0.06204572 0.06220736
 0.06222862 0.06214832 0.06209449 0.06216086 0.06228336 0.0622641 0.06195673 0.06143132 0.06092656 0.06062975
 0.06056113 0.060714 0.06117187 0.06188388 0.06241097 0.06223788 0.06141877 0.06061367 0.06035729 0.06054493
 0.06073476 0.06066214 0.060327 0.05989044 0.05971155 0.06025105 0.06161943 0.06320169 0.06387681 0.06272623
 0.0596926 0.05578479 0.05270044 0.05191551 0.05364955 0.05657155 0.05879635 0.0593862 0.05880174 0.05794968
 0.05719949 0.05650271 0.05603675 0.05624249 0.05722156 0.05832519 0.05849553 0.05717937 0.05498587 0.05324388
 0.05278596 0.0534339 0.05471778 0.05638386 0.05767172 0.05690859 0.05315647 0.0482887 0.04615401 0.048923
 0.0547735 0.05966432 0.06092532 0.05876979 0.0551382 0.05208357 0.05097533 0.05213472 0.054804 0.05777548
 0.06011121 0.0611721 0.06045894 0.05805359 0.05504214 0.05298627 0.05296505 0.05515294 0.05878098 0.06220531
 0.06365439 0.06253669 0.05983366 0.057064 0.05528458 0.05509301 0.05677836 0.06002503 0.0638867 0.06732845
 0.06964946 0.07056648 0.07028209 0.06935745 0.06828535 0.06739491 0.06713618 0.06780791 0.06881592 0.06889733
 0.0674919 0.06549614 0.06434502 0.06453194 0.06521747 0.06524938 0.06432812 0.06282569 0.0606498 0.05720581
 0.05276635 0.0488546 0.04672502 0.04639912 0.04756159 0.05005519 0.05282484 0.05385467 0.05237202 0.05025825
 0.05018894 0.0527792 0.0562628 0.05864824 0.0595697 0.06014284 0.06152993 0.06374763 0.06553172 0.06529159
 0.06268314 0.05948479 0.05834072 0.0601682 0.06327683 0.06544825 0.06627706 0.06691954 0.06807159 0.06888555
 0.0678563 0.06461355 0.06087034 0.05935545 0.06143238 0.0657312 0.06914467 0.06912588 0.06540149 0.06002644
 0.05578595 0.0542714 0.05546468 0.05880843 0.06381689 0.06950572 0.0741343 0.07617751 0.07542937 0.07293078
 0.06977837 0.06610537 0.06163917 0.05738746 0.05586044 0.05870908 0.06461834 0.07039728 0.07382382 0.07475919
 0.07392063 0.07152091 0.06746705 0.06267402 0.05949856 0.05991312 0.06312852 0.0660349 0.06645345 0.06512739
 0.06413124 0.0642899 0.06486022 0.06511533 0.06538653 0.06649555 0.06857292 0.07073687 0.07194055 0.07192209
 0.07125978 0.07070264 0.07048889 0.07016805 0.06924088 0.06815745 0.06826577 0.07033031 0.07347415 0.07607724
 0.07740253 0.07786585 0.07794343 0.07732952 0.07536817 0.07227394 0.06963558 0.06923719 0.07133183 0.07447951
 0.07704487 0.07837813 0.07866938 0.07835378 0.07781225 0.07724917 0.0767611 0.07660468 0.0771305 0.07828013
 0.07947057 0.0801787 0.08037207 0.08024345 0.07983336 0.0791126 0.07825929 0.07765924 0.07762443 0.07815905
 0.07901123 0.07989791 0.0806052 0.0809433 0.08080873 0.08033463 0.07981797 0.07945066 0.07924846 0.07923429
 0.07950045 0.08003412 0.08063132 0.08106658 0.08127217 0.08131103 0.08124949 0.0811082 0.08090231 0.08069528
 0.08060592 0.08072725 0.0810156 0.08131711 0.08154822 0.08177824 0.08206721 0.08230667 0.08232944 0.08213361
 0.08189817 0.08179224 0.08184025 0.08196142 0.08206247 0.08205958 0.08187154 0.08148848 0.08106751 0.08087505
 0.08107515 0.08161063 0.08229821 0.08295889 0.08345123 0.08370068 0.08375444 0.08373301 0.08369108 0.08358034
 0.08336405 0.0831224 0.08302644 0.08320729 0.08363726 0.08414331 0.08454821 0.08478124 0.08486988 0.08489744
 0.08497376 0.08515356 0.08535601 0.08543997 0.08538034 0.0853045 0.08533625 0.08545582 0.08553617 0.08549422
 0.08538906 0.0853644 0.08549742 0.08572707 0.08594035 0.08609875 0.08625588 0.08646225 0.08667221 0.08676255
 0.08666304 0.08645326 0.08628701 0.08623046 0.08623566 0.08626834 0.0863751 0.08658818 0.08683027 0.08697709
 0.08699583 0.08697356 0.08700301 0.08707246 0.08708803 0.0869868 0.08680314 0.08663152 0.08655018 0.08657859
 0.08667722 0.08677181 0.08679411 0.08672363 0.08659567 0.08646435 0.08636179 0.08630452 0.08632939 0.0864829
 0.08674561 0.08698782 0.08704738 0.08687465 0.08658868 0.08637324 0.08631313 0.08633384 0.0862947 0.08612591
 0.08587132 0.08562024 0.08542576 0.08528616 0.08517547 0.08507763 0.08500849 0.08501549 0.08513106 0.08530378
 0.08540066 0.08531641 0.08507589 0.08480436 0.08461177 0.08452793 0.08452071 0.08453667 0.08454318 0.08456042
 0.08462796 0.08472253 0.08475481 0.08467686 0.08455038 0.08448417 0.08454271 0.08472146 0.08495228 0.0851183
 0.08512865 0.08501132 0.08489304 0.08487016 0.08493294 0.08502081 0.08510312 0.08518501 0.08527227 0.08536682
 0.08548523 0.08565605 0.0858913 0.0861643 0.08641596 0.08659127 0.08668659 0.08676548 0.08691533 0.08717629
 0.08751002 0.08783568 0.08809479 0.0882884 0.08845933 0.08864047 0.08882902 0.08901809 0.08923402 0.08951285
 0.08984619 0.09018163 0.09047978 0.09074783 0.09101586 0.09130143 0.09160456 0.09192832 0.09229451 0.09272283
 0.09318134 0.09357695 0.09382829 0.0939502 0.0940488 0.09423763 0.09456058 0.0949631 0.09531742 0.0955161
 0.0955804 0.09565033 0.09583449 0.09610039 0.09635168 0.09657957 0.09687474 0.09729271 0.09776223 0.09815063
 0.09839572 0.09855255 0.09871754 0.09892218 0.09911058 0.09922003 0.09926569 0.0993241 0.09944399 0.09961494
 0.09983149 0.1001344 0.100547 0.1010052 0.1014008 0.1016816 0.1018724 0.1020188 0.102143 0.1022427
 0.1023017 0.1023167 0.1023257 0.1023821 0.1024845 0.1025698 0.1025994 0.1026142 0.102682 0.1028261
 0.1030361 0.1033088 0.1036312 0.1039511 0.1042228 0.1044789 0.1047979 0.1051814 0.1055148 0.1056902
 0.1057271 0.1057264 0.1057433 0.1057701 0.1058245 0.1059704 0.106238 0.1065794 0.1069293 0.1072708
 0.1076209 0.1079762 0.1082934 0.1085142 0.1086055 0.1085892 0.1085393 0.1085461 0.108671 0.1089198
 0.1092448 0.1095755 0.1098569 0.1100605 0.1101629 0.110151 0.1100709 0.1100376 0.1101439 0.1103549
 0.1105249 0.1105226 0.1103141 0.1099315 0.1094082 0.108771 0.1080736 0.1074045 0.1068491 0.106451
 0.1062195 0.1061731 0.1063582 0.1068005 0.1074435 0.1081604 0.1088282 0.109364 0.1096875 0.1097067
 0.1093816 0.1087824 0.1080509 0.107313 0.1066359 0.1060304 0.1054619 0.1048919 0.1043581 0.1040112
 0.1040481 0.1045957 0.1056454 0.1070592 0.1086154 0.1100834 0.1113153 0.1122968 0.1131082 0.1138322
 0.1145056 0.1151489 0.1157992 0.116476 0.117135 0.1177042 0.1181646 0.1185634 0.118948 0.1193215
 0.1196598 0.1199444 0.1201781 0.1203889 0.1206039 0.1208013 0.1209128 0.120897 0.1207898 0.1206592
 0.1205299 0.12037 0.1201286 0.1197763 0.119339 0.1189292 0.1187356 0.1189429 0.1196228 0.120686
 0.1219507 0.1232618 0.1245362 0.1257055 0.1266717 0.1273633 0.1278079 0.1281119 0.1283767 0.1286524
 0.1289488 0.1292564 0.1295583 0.1298418 0.1301089 0.1303797 0.130685 0.1310388 0.1314085 0.1317304
 0.1319744 0.1321844 0.1324424 0.1327899 0.1331897 0.1335662 0.1338857 0.1341827 0.1344985 0.1348138
 0.1350719 0.1352575 0.1354197 0.1356234 0.1359053 0.1362643 0.136656 0.1370032 0.1372487 0.1374075
 0.1375482 0.1377253 0.1379446 0.1381875 0.1384407 0.1386981 0.1389546 0.1392159 0.139503 0.1398244
 0.1401431 0.1403952 0.1405546 0.1406663 0.1408032 0.1409978 0.1412234 0.1414354 0.141623 0.1418234
 0.1420844 0.14241 0.1427426 0.1430097 0.1431847 0.143302 0.1434176 0.1435667 0.1437548 0.1439687
 0.1441873 0.1443909 0.1445762 0.1447608 0.1449678 0.1452027 0.1454497 0.1456868 0.1459023 0.1460996
 0.1462923 0.1464929 0.1467091 0.1469491 0.1472226 0.1475234 0.147816 0.1480551 0.1482249 0.1483503
 0.1484712 0.1486125 0.1487773 0.1489569 0.1491438 0.1493371 0.1495385 0.1497454 0.1499521 0.1501564
 0.1503609 0.1505673 0.1507734 0.1509771 0.1511832 0.1514026 0.1516396 0.1518795 0.1520976 0.152284
 0.1524547 0.1526365 0.1528431 0.153067 0.1532869 0.153486 0.1536656 0.1538424 0.1540298 0.1542273
 0.1544264 0.1546205 0.1548088 0.154994 0.1551782 0.1553617 0.1555454 0.155735 0.1559365 0.1561495
 0.1563662 0.1565779 0.1567811 0.1569785 0.1571762 0.1573765 0.1575773 0.157777 0.1579768 0.1581777
 0.1583778 0.1585735 0.1587608 0.1589402 0.1591188 0.1593041 0.1594962 0.1596917 0.1598915 0.1601
 0.1603164 0.1605339 0.1607458 0.1609506 0.1611529 0.1613589 0.1615694 0.1617819 0.1619974 0.1622194
 0.1624471 0.162675 0.1628976 0.1631132 0.1633241 0.1635356 0.1637503 0.1639641 0.1641707 0.1643668
 0.1645504 0.1647213 0.1648849 0.1650487 0.1652161 0.1653887 0.165569 0.165758 0.165953 0.1661512
 0.1663498 0.1665462 0.1667422 0.1669438 0.1671514 0.1673588 0.1675615 0.1677606 0.1679598 0.1681622
 0.1683668 0.168568 0.1687648 0.1689661 0.1691784 0.1693969 0.1696152 0.1698336 0.1700527 0.1702694
 0.1704787 0.1706765 0.1708655 0.1710592 0.1712685 0.1714862 0.1716997 0.1719109 0.1721292 0.172355
 0.1725823 0.1728037 0.1730098 0.173199 0.1733849 0.1735796 0.1737819 0.1739892 0.1742044 0.1744272
 0.1746532 0.1748814 0.1751086 0.1753261 0.1755323 0.1757343 0.1759386 0.1761522 0.1763808 0.1766138
 0.1768314 0.1770314 0.1772257 0.1774055 0.1775205 0.1774471 0.1768957 0.175301 0.1718072 0.1654479
 0.1555473 0.1421578 0.1261857 0.1090608 0.09221779 0.07673844 0.06325464 0.05203286 0.04311605 0.03641795
 0.03178108 0.02906907 0.0282652 0.0295747 0.03353737 0.04070982 0.05045285 0.05984914 0.06483193 0.0633951
 0.05751098 0.05133079 0.04773095 0.04691729 0.04765971 0.04890579 0.05032466 0.05211728 0.05462486 0.05794616
 0.06191923 0.06653335 0.07213198 0.07897092 0.08668613 0.09444508 0.1016669 0.1084848 0.1154617 0.1229235
 0.1306198 0.1379693 0.1445222 0.1501906 0.1551612 0.1596854 0.1639316 0.1679673 0.1718169 0.1754698
 0.1788002 0.1815278 0.1833487 0.184166 0.1842042 0.1838861 0.1835853 0.1834767 0.1835746 0.1838453
 0.184264 0.1848137 0.1854813 0.1862509 0.1870916 0.1879593 0.1888169 0.1896441 0.1904297 0.1911661
 0.1918479 0.1924704 0.1930334 0.1935451 0.194018 0.1944619 0.1948803 0.19527 0.1956263 0.1959548
 0.1962711 0.1965842 0.1968869 0.1971688 0.1974277 0.1976648 0.1978806 0.1980807 0.1982782 0.1984828
 0.1986928 0.1989011 0.1991037 0.1993062 0.1995182 0.1997422 0.1999694 0.2001878 0.2003934 0.2005869
 0.2007698 0.2009472 0.2011297 0.2013255 0.201534 0.2017485 0.201961 0.2021648 0.2023547 0.2025303
 0.2026985 0.2028717 0.2030586 0.203256 0.2034552 0.2036549 0.2038619 0.2040796 0.2043066 0.2045413
 0.2047791 0.205009 0.2052249 0.2054302 0.205626 0.2058018 0.2059511 0.2060893 0.2062485 0.2064513
 0.206689 0.2069288 0.2071468 0.2073483 0.2075513 0.2077611 0.2079656 0.2081506 0.2083168 0.2084894
 0.2087011 0.2089542 0.2092162 0.209461 0.2096916 0.2099189 0.2101462 0.2103782 0.2106131 0.2108223
 0.2109718 0.2110756 0.2112105 0.2114567 0.2118191 0.2122116 0.2125384 0.2127802 0.2129867 0.2132112
 0.2134783 0.2137664 0.2139811 0.2140177 0.2139196 0.2139094 0.2141831 0.214714 0.2153092 0.2158075
 0.216176 0.2164641 0.216718 0.2169322 0.217056 0.217057 0.2169962 0.2170362 0.2173257 0.2178482
 0.2184238 0.2188866 0.2192092 0.2194412 0.2196225 0.219779 0.2198803 0.2197797 0.2193691 0.2188602
 0.2187333 0.2192708 0.2202379 0.2211355 0.2216966 0.222023 0.2223021 0.2225792 0.2228102 0.2228977
 0.2225806 0.221589 0.2201672 0.2192073 0.2195072 0.2209687 0.2227589 0.2241469 0.2249623 0.2253973
 0.2256776 0.2259122 0.2260128 0.2257116 0.2248611 0.223824 0.2233738 0.2239849 0.2252982 0.2264999
 0.2271473 0.2274032 0.227603 0.2278827 0.2280847 0.2277192 0.2262479 0.2238731 0.2219235 0.221916
 0.2240746 0.2270621 0.2293056 0.2303501 0.2307344 0.2308265 0.2302831 0.2286679 0.2261123 0.2232559
 0.2210299 0.2205182 0.2222442 0.2252821 0.2277808 0.2287878 0.2290572 0.2298203 0.2313206 0.2328233
 0.2335674 0.2333533 0.2324116 0.2309896 0.2292362 0.2275792 0.2269475 0.2281147 0.2307588 0.2335766
 0.2354819 0.2364301 0.2368558 0.236398 0.2336352 0.2277909 0.2208784 0.2171569 0.2193759 0.2259023
 0.2324762 0.2364078 0.238062 0.2388563 0.2393431 0.2390602 0.2368156 0.2313469 0.2233308 0.2166315
 0.2156822 0.2210969 0.2289732 0.2345326 0.2353579 0.2316298 0.2252792 0.2194273 0.2171101 0.2194374
 0.2251049 0.2316805 0.237062 0.2400629 0.240405 0.2386075 0.2359592 0.2342049 0.2342705 0.2348922
 0.2335846 0.2297724 0.2257365 0.2232743 0.2209437 0.2167534 0.2125339 0.2127328 0.2186224 0.2261563
 0.2305098 0.2309728 0.2300808 0.2290082 0.2255653 0.2173466 0.2062716 0.1986933 0.1998488 0.2084229
 0.2177168 0.222205 0.2219338 0.2205811 0.2205548 0.2205316 0.2173217 0.210029 0.2022039 0.1988725
 0.2011988 0.2054499 0.2074339 0.2058516 0.2008542 0.1927044 0.184178 0.1814542 0.1889281 0.2038567
 0.2184879 0.2264385 0.2250661 0.2141347 0.1967181 0.1810412 0.1764831 0.1851919 0.1994757 0.2088635
 0.2084208 0.1996707 0.1861247 0.1708507 0.1578648 0.152635 0.1588408 0.1746128 0.1924893 0.2031212
 0.2004753 0.1865491 0.1717941 0.1676156 0.1759873 0.1880487 0.1939929 0.1919523 0.186677 0.1834445
 0.1850093 0.1910224 0.1983997 0.2042452 0.208175 0.2090777 0.2020181 0.1841667 0.1626661 0.1499145
 0.1506948 0.1597681 0.1717814 0.186058 0.2000738 0.2061817 0.200226 0.1893808 0.1860115 0.1945494
 0.2077151 0.2154203 0.2147465 0.210463 0.2076893 0.2064649 0.2042737 0.2019051 0.2036834 0.2114856
 0.2214542 0.2283027 0.2308191 0.231387 0.2319414 0.2325026 0.2325437 0.2318697 0.2305382 0.2290066
 0.2279989 0.22769 0.2275423 0.2271242 0.2260887 0.2229282 0.2153064 0.2033326 0.1916318 0.1856768
 0.1859908 0.1885285 0.1906962 0.1928763 0.1928263 0.1840772 0.1644771 0.1432237 0.134167 0.1424175
 0.1605428 0.1770527 0.1851997 0.1835599 0.1726195 0.1549976 0.1381674 0.132081 0.1410397 0.1595708
 0.1782806 0.1919338 0.1999815 0.2020572 0.1970425 0.1862993 0.1749107 0.1687534 0.1709434 0.1804956
 0.1926321 0.1999734 0.1961668 0.1822356 0.1693411 0.1705038 0.1869185 0.2059174 0.2152073 0.2152954
 0.2144024 0.2156902 0.2157517 0.2136387 0.2144172 0.2222524 0.2342959 0.2434968 0.2447893 0.2370835
 0.2225958 0.2073421 0.1995642 0.2030826 0.2128801 0.2204921 0.222154 0.2183089 0.2086381 0.1941223
 0.1822744 0.1826277 0.195704 0.2117751 0.2219098 0.2261108 0.2292587 0.232705 0.2326232 0.2258002
 0.2149959 0.2072307 0.2068469 0.2117324 0.2169254 0.219846 0.2203174 0.2176049 0.2108778 0.2026077
 0.198599 0.2029493 0.213786 0.2249812 0.2316039 0.2330075 0.231419 0.2290443 0.2265719 0.2233368
 0.2188007 0.2144676 0.2135836 0.2176704 0.2241112 0.2288493 0.2310301 0.2332693 0.237529 0.2424078
 0.2448473 0.2434704 0.2398931 0.2373241 0.2379984 0.2414033 0.2446522 0.2449397 0.2422065 0.2394438
 0.2399375 0.2441316 0.2495655 0.2536796 0.255905 0.2571238 0.2581598 0.2590606 0.2590592 0.2571472
 0.2534972 0.2503036 0.2502313 0.2537719 0.2587759 0.2626825 0.2645969 0.2651408 0.2650294 0.2643195
 0.2628391 0.2608824 0.2592271 0.2585152 0.2587923 0.2596648 0.2607127 0.2616718 0.2624122 0.2629189
 0.2632568 0.2634803 0.2636097 0.2636865 0.2637555 0.2637815 0.2636907 0.2635332 0.2635017 0.2637182
 0.2640732 0.2643425 0.2643918 0.2641785 0.2636301 0.2626715 0.2613662 0.2598968 0.2583608 0.2567037
 0.2549647 0.2535457 0.2530928 0.2540047 0.2560567 0.258539 0.2607491 0.2623433 0.2633193 0.2638243
 0.2640308 0.26409 0.2640924 0.2640469 0.2639158 0.2636788 0.2633579 0.2629925 0.2626093 0.2622249
 0.2618656 0.2615579 0.2612961 0.2610335 0.2607147 0.26031 0.2598266 0.259298 0.2587567 0.2581992
 0.2575766 0.2568326 0.2559544 0.2549898 0.2540245 0.253138 0.2523551 0.2516263 0.2508721 0.2500492
 0.2491499 0.2481501 0.2470217 0.2458186 0.2446946 0.2437841 0.243085 0.2424825 0.2418546 0.2411267
 0.2402684 0.2392932 0.2382528 0.2371942 0.2361221 0.2350116 0.2338415 0.2325982 0.2312659 0.2298356
 0.2283159 0.2267266 0.2250902 0.2234292 0.2217446 0.2199813 0.2180238 0.2157308 0.212972 0.2096498
 0.2057293 0.2012754 0.1964565 0.1914926 0.1865885 0.1819013 0.1775533 0.1736531 0.1702954 0.1675458
 0.16544 0.1640031 0.1632634 0.1632404 0.1639215 0.1652584 0.1671826 0.1696094 0.172417 0.175431
 0.1784501 0.181306 0.1839148 0.1862883 0.1884951 0.1905901 0.1925672 0.1943807 0.196002 0.1974334
 0.198677 0.1997249 0.2005844 0.2012893 0.2018782 0.2023761 0.2027985 0.203159 0.203467 0.2037292
 0.203954 0.20415 0.2043242 0.2044873 0.2046631 0.2048821 0.2051615 0.2054996 0.2058938 0.2063486
 0.2068567 0.2073914 0.2079325 0.2084897 0.209085 0.209732 0.2104484 0.2112725 0.2122458 0.2133783
 0.2146408 0.2159829 0.217351 0.2186857 0.2199107 0.2209398 0.2217101 0.222209 0.2224648 0.2225199
 0.2224168 0.2221996 0.2219084 0.2215665 0.2211732 0.2207115 0.2201678 0.2195493 0.2188782 0.2181731
 0.2174453 0.2167129 0.2160007 0.215319 0.2146563 0.2139978 0.2133437 0.2127048 0.2120887 0.2114947
 0.2109154 0.2103422 0.2097718 0.2092081 0.208652 0.208084 0.2074611 0.2067396 0.2059054 0.2049756
 0.2039695 0.2028835 0.2017002 0.2004129 0.1990346 0.1975842 0.1960721 0.1944996 0.192866 0.1911659
 0.1893749 0.1874586 0.1854192 0.1833316 0.1813137 0.179451 0.1777529 0.1761746 0.17467 0.1732278
 0.1718666 0.1705984 0.1694038 0.1682506 0.1671282 0.1660515 0.165038 0.1640928 0.1632137 0.1624061
 0.1616858 0.1610636 0.1605287 0.1600595 0.1596442 0.1592857 0.1590004 0.1588216 0.1587744 0.1588288
 0.1589024 0.1589226 0.1588671 0.158749 0.158597 0.158451 0.1583459 0.1582906 0.1582656 0.158227
 0.1581024 0.1578023 0.1572443 0.1563721 0.1551696 0.1536721 0.1519556 0.1501214 0.1482929 0.1465997
 0.1451387 0.1439537 0.143046 0.1423745 0.1418623 0.1414441 0.1411144 0.1409192 0.1409103 0.1410844
 0.1413369 0.1415068 0.1415234 0.1414926 0.1416085 0.1420003 0.1426634 0.1434791 0.1442863 0.1449734
 0.1455094 0.1458956 0.1461342 0.1462513 0.1462922 0.1462786 0.146203 0.1460519 0.145816 0.1455015
 0.1451344 0.1447217 0.1442329 0.1436496 0.1429897 0.1422597 0.1414412 0.1405218 0.1394828 0.1382989
 0.1370346 0.1359064 0.1351786 0.1350156 0.1354171 0.1362265 0.1372263 0.1382855 0.139338 0.1401926
 0.1405782 0.1405513 0.1407098 0.1417568 0.1438176 0.1462974 0.1484207 0.149806 0.150489 0.1505891
 0.1501509 0.1492049 0.1477604 0.1457749 0.1432651 0.1403702 0.1372447 0.1340302 0.1309408 0.1281955
 0.1258834 0.1240027 0.1225436 0.1215538 0.1211725 0.1210154 0.119149 0.1131202 0.1037543 0.096806
 0.09809449 0.1069467 0.1166863 0.1216748 0.1217816 0.1200339 0.1185153 0.1175327 0.1169688 0.1169739
 0.1177021 0.1190233 0.1205306 0.1217847 0.1225925 0.1229895 0.1229529 0.1221488 0.1198483 0.1151704
 0.1077936 0.09858884 0.08932464 0.0816288 0.07625513 0.07309999 0.07154527 0.07080887 0.0703264 0.07002697
 0.07023871 0.07129495 0.07324626 0.0759223 0.07912163 0.08259633 0.08594111 0.08874565 0.09090516 0.09261268
 0.09401689 0.09504113 0.09555402 0.09556241 0.09518991 0.09457207 0.09381872 0.09300371 0.0921203 0.09108382
 0.08987646 0.08869624 0.08785117 0.08746523 0.08738463 0.08738878 0.08737654 0.08733806 0.08727944 0.08721088
 0.08714253 0.08710353 0.08718728 0.08749431 0.08798763 0.08848073 0.08880514 0.08894883 0.08901794 0.0890577
 0.08891129 0.08836421 0.08750117 0.0867276 0.08624715 0.08571346 0.08468659 0.08331087 0.08224071 0.08193029
 0.08222717 0.08264069 0.08279532 0.08261345 0.0822826 0.08215453 0.08250514 0.08321549 0.08377561 0.0837628
</values></Ydata></ScRf><Data_Parameters_AB><parameter name="DPF">1</parameter><parameter name="NPT">3497</parameter><parameter name="FXV">3996</parameter><parameter name="LXV">500</parameter><parameter name="CSF">1</parameter><parameter name="MXY">0.262545347213745</parameter><parameter name="MNY">-0.0721714496612549</parameter><parameter name="DAT">01/06/2022</parameter><parameter name="TIM">11:53:32.627 (GMT+2)</parameter><parameter name="DXU">WN</parameter></Data_Parameters_AB><AB__Qtest><MainReport name="Quality Test Report"><Header><Line><Legend>Test result ok/not ok [1/0]: </Legend><Value>0</Value></Line><Line><Legend>Method file: </Legend><Value>C:\Users\Public\Documents\Bruker\OPUS_8.2.28\QT\IRBT_v3_default.QT</Value></Line></Header><Matrix><Line><Legend></Legend><Legend>min</Legend><Legend>max</Legend><Legend>measured</Legend></Line><Line><Value>Absorption (X-Range 1):</Value><Value>0.400000</Value><Value>2.000000</Value><Value>0.221322</Value></Line><Line><Value>Noise (X-Range 4):</Value><Value></Value><Value>0.000300</Value><Value>0.000038</Value></Line><Line><Value>Signal/Noise (X-Range 2):</Value><Value>200.000000</Value><Value></Value><Value>98.012245</Value></Line><Line><Value>Signal/Noise (X-Range 3):</Value><Value>40.000000</Value><Value></Value><Value>72.768353</Value></Line><Line><Value>Water vapour (X-Range 5):</Value><Value></Value><Value>0.000300</Value><Value>0.000064</Value></Line><Line><Value>Signal/Water (X-Range 2):</Value><Value>100.000000</Value><Value></Value><Value>58.562455</Value></Line><Line><Value>Signal/Water (X-Range 3):</Value><Value>20.000000</Value><Value></Value><Value>43.479194</Value></Line><Line><Value>Fringes (X-Range 6):</Value><Value></Value><Value>0.000100</Value><Value>0.000081</Value></Line></Matrix></MainReport></AB__Qtest><Data_Parameters_ScSm><parameter name="DPF">1</parameter><parameter name="NPT">1814</parameter><parameter name="FXV">3996.33169228125</parameter><parameter name="LXV">499.541461535156</parameter><parameter name="CSF">1</parameter><parameter name="MXY">0.27119392156601</parameter><parameter name="MNY">0.0328235849738121</parameter><parameter name="DAT">01/06/2022</parameter><parameter name="TIM">11:53:32.627 (GMT+2)</parameter><parameter name="DXU">WN</parameter></Data_Parameters_ScSm><Data_Parameters_ScRf><parameter name="DPF">1</parameter><parameter name="NPT">1820</parameter><parameter name="FXV">4004.04661832813</parameter><parameter name="LXV">495.683998511719</parameter><parameter name="CSF">1</parameter><parameter name="MXY">0.265140801668167</parameter><parameter name="MNY">0.0282652005553246</parameter><parameter name="DAT">01/06/2022</parameter><parameter name="TIM">11:53:06.773 (GMT+2)</parameter><parameter name="DXU">WN</parameter></Data_Parameters_ScRf><Optic_Parameters_Rf><parameter name="APR">0</parameter><parameter name="APT">Open</parameter><parameter name="BMS">KBr</parameter><parameter name="DTC">RT-DLaTGS_IR-Biotyper [Microplate reader]</parameter><parameter name="HPF">0</parameter><parameter name="LPF">10.0</parameter><parameter name="LPV">4000</parameter><parameter name="PGR">0</parameter><parameter name="RCH">Module port</parameter><parameter name="RDX">0</parameter><parameter name="SRC">MIR</parameter><parameter name="VEL">10.0</parameter><parameter name="SON">Off</parameter></Optic_Parameters_Rf><Acquisition_Parameters_Rf><parameter name="ADT">1</parameter><parameter name="AQM">DD</parameter><parameter name="CFE">0</parameter><parameter name="COR">0</parameter><parameter name="DEL">0</parameter><parameter name="DLY">0</parameter><parameter name="HFW">8000</parameter><parameter name="LFW">0</parameter><parameter name="NSR">32</parameter><parameter name="PLF">AB</parameter><parameter name="RES">6</parameter><parameter name="RGN">-1</parameter><parameter name="STR">0</parameter><parameter name="TCL">MakeCompatibleScalar (0, {WSV=1.000000, ARV=0});</parameter><parameter name="TDL">37</parameter><parameter name="RPO">0</parameter></Acquisition_Parameters_Rf><FT_-_Parameters_Rf><parameter name="APF">B3</parameter><parameter name="HFQ">500</parameter><parameter name="LFQ">4000</parameter><parameter name="NLI">0</parameter><parameter name="PHR">24</parameter><parameter name="PHZ">ML</parameter><parameter name="SPZ">NO</parameter><parameter name="ZFF">1</parameter></FT_-_Parameters_Rf><Optic_Parameters_><parameter name="APR">0</parameter><parameter name="APT">Open</parameter><parameter name="BMS">KBr</parameter><parameter name="CHN">Module port</parameter><parameter name="DTC">RT-DLaTGS_IR-Biotyper [Microplate reader]</parameter><parameter name="HPF">0</parameter><parameter name="LPF">10.0</parameter><parameter name="LPV">4000</parameter><parameter name="PGN">0</parameter><parameter name="RDX">0</parameter><parameter name="SRC">MIR</parameter><parameter name="VEL">10.0</parameter><parameter name="SON">Off</parameter></Optic_Parameters_><FT_-_Parameters_><parameter name="APF">B3</parameter><parameter name="HFQ">500</parameter><parameter name="LFQ">4000</parameter><parameter name="NLI">0</parameter><parameter name="PHR">24</parameter><parameter name="PHZ">ML</parameter><parameter name="SPZ">NO</parameter><parameter name="ZFF">1</parameter></FT_-_Parameters_><Acquisition_Parameters_><parameter name="ADT">1</parameter><parameter name="AQM">DD</parameter><parameter name="CFE">0</parameter><parameter name="COR">0</parameter><parameter name="DEL">0</parameter><parameter name="DLY">0</parameter><parameter name="HFW">8000</parameter><parameter name="LFW">0</parameter><parameter name="NSS">32</parameter><parameter name="PLF">AB</parameter><parameter name="RES">6</parameter><parameter name="SOT">0</parameter><parameter name="TCL">MakeCompatibleScalar (0, {WSV=1.000000, ARV=0});</parameter><parameter name="TDL">37</parameter><parameter name="SPO">0</parameter><parameter name="SGN">-1</parameter></Acquisition_Parameters_><Instrument_Parameters_Rf><parameter name="HFL">15800.168544</parameter><parameter name="LFL">0</parameter><parameter name="LWN">15800.168544</parameter><parameter name="ABP">32197</parameter><parameter name="SSP">1</parameter><parameter name="ARG">2</parameter><parameter name="ASG">2</parameter><parameter name="ASS">32</parameter><parameter name="GFW">16</parameter><parameter name="GBW">16</parameter><parameter name="BFW">0</parameter><parameter name="BBW">0</parameter><parameter name="PKA">7310</parameter><parameter name="PKL">4990</parameter><parameter name="PRA">7479</parameter><parameter name="PRL">5001</parameter><parameter name="P2A">1</parameter><parameter name="P2L">1</parameter><parameter name="P2R">1</parameter><parameter name="P2K">1</parameter><parameter name="DAQ">0</parameter><parameter name="AG2">1</parameter><parameter name="SSM">1</parameter><parameter name="RSN">25955</parameter><parameter name="CRR">0</parameter><parameter name="SRT">1654084386.773</parameter><parameter name="DUR">19.6389923095703</parameter><parameter name="TSC">29</parameter><parameter name="MVD">0.236840635538101</parameter><parameter name="AN1">0.225817167742789</parameter><parameter name="AN2">0</parameter><parameter name="VSN">2.485 Apr  4 2017</parameter><parameter name="SRN">0085</parameter><parameter name="CAM">0</parameter><parameter name="INS">IR-Biotyper</parameter><parameter name="FOC">69</parameter><parameter name="RDY">1</parameter><parameter name="ARS">32</parameter></Instrument_Parameters_Rf><Sample_Parameters_><parameter name="BLD"></parameter><parameter name="CNM">Admin</parameter><parameter name="CPY"></parameter><parameter name="DPM"></parameter><parameter name="EXP">IRBT_v3_32Scans.XPM</parameter><parameter name="LCT"></parameter><parameter name="SFM">Microplate, HTS-XT</parameter><parameter name="SNM">220601-1028(v.3)_RTF49M (D_13)_D8_68259b7a-a0a4-4438-864f-a9e3411ae2c7.0</parameter><parameter name="XPP">C:\Users\Public\Documents\Bruker\OPUS_8.2.28\XPM</parameter><parameter name="IST">OK</parameter><parameter name="CPG">1252</parameter><parameter name="UID">b0945d3e-4af3-4da8-8bcc-9e46f7f1052d</parameter></Sample_Parameters_><Instrument_Parameters_><parameter name="HFL">15800.168544</parameter><parameter name="LFL">0</parameter><parameter name="LWN">15800.168544</parameter><parameter name="ABP">32197</parameter><parameter name="SSP">1</parameter><parameter name="ASG">2</parameter><parameter name="ARG">2</parameter><parameter name="ASS">32</parameter><parameter name="GFW">16</parameter><parameter name="GBW">16</parameter><parameter name="BFW">0</parameter><parameter name="BBW">0</parameter><parameter name="PKA">7353</parameter><parameter name="PKL">4988</parameter><parameter name="PRA">7625</parameter><parameter name="PRL">4993</parameter><parameter name="P2A">1</parameter><parameter name="P2L">1</parameter><parameter name="P2R">1</parameter><parameter name="P2K">1</parameter><parameter name="DAQ">0</parameter><parameter name="AG2">1</parameter><parameter name="SSM">1</parameter><parameter name="RSN">13603</parameter><parameter name="CRR">0</parameter><parameter name="SRT">1654084412.627</parameter><parameter name="DUR">19.6389923095703</parameter><parameter name="TSC">29</parameter><parameter name="MVD">0.451584011316299</parameter><parameter name="AN1">0.225815749603349</parameter><parameter name="AN2">0</parameter><parameter name="VSN">2.485 Apr  4 2017</parameter><parameter name="SRN">0085</parameter><parameter name="CAM">0</parameter><parameter name="INS">IR-Biotyper</parameter><parameter name="FOC">69</parameter><parameter name="RDY">1</parameter></Instrument_Parameters_><History/></OPUSDataFile>
