<?xml version="1.0" encoding="UTF-8" ?>
<OPUSDataFile><AB><Ydata ylabel="Absorbance Units"><values byteorder="INTEL" format="FLOAT32" numvalues="3497"> 0.05496631 0.05498907 0.05500972 0.05502756 0.05505433 0.05509061 0.05513266 0.05517903 0.0552094 0.05522342
 0.05520653 0.05516404 0.05510587 0.05503894 0.05498654 0.05494617 0.05492726 0.05491658 0.05490241 0.05487635
 0.0548244 0.05475568 0.05466899 0.05458178 0.05450108 0.05443375 0.05438398 0.05434681 0.05432204 0.0543052
 0.05429567 0.05429397 0.05430013 0.05431274 0.05433126 0.05434815 0.05436268 0.05436634 0.0543598 0.05434022
 0.05430993 0.0542727 0.05423104 0.05419065 0.054153 0.0541219 0.0540978 0.0540821 0.05407523 0.05407763
 0.05409016 0.05411395 0.0541464 0.05418876 0.05422923 0.05426714 0.05428521 0.05428123 0.05424967 0.05419009
 0.05411988 0.0540407 0.05398003 0.05393687 0.05392065 0.05392586 0.05393733 0.05395184 0.05395325 0.05394341
 0.0539186 0.05388017 0.05382777 0.05376387 0.05368651 0.05361056 0.05354009 0.05349877 0.05349934 0.05354276
 0.05363842 0.05374434 0.05385829 0.05392366 0.05393402 0.05385992 0.05369923 0.05346784 0.0531702 0.05286822
 0.05257094 0.05236807 0.05225875 0.05229877 0.05245705 0.05269112 0.05296365 0.05318651 0.0533588 0.05343964
 0.05345571 0.05341357 0.05334076 0.05325524 0.05316925 0.05309306 0.05302308 0.05296043 0.05289923 0.05283756
 0.05277976 0.0527253 0.05268932 0.05267269 0.05268386 0.05272098 0.05275993 0.05279582 0.05278272 0.05272385
 0.05260039 0.05243206 0.05225589 0.05209128 0.05199691 0.05195572 0.05197659 0.05202227 0.05205707 0.05208461
 0.0520937 0.05210719 0.05214272 0.05216506 0.05217553 0.0521043 0.05193331 0.05166356 0.05128324 0.05093526
 0.05062651 0.05058973 0.05082025 0.05129668 0.05197542 0.05254639 0.05301613 0.05324166 0.05326501 0.0531197
 0.05283583 0.05247186 0.05206403 0.05166901 0.05133474 0.05112352 0.05104549 0.0511426 0.05133659 0.05161471
 0.05188164 0.05210243 0.05226353 0.05235381 0.05240458 0.05241937 0.05240234 0.05235408 0.05225936 0.05211949
 0.05195019 0.05175838 0.05159783 0.05147167 0.05142457 0.05144585 0.05153363 0.05167144 0.05183133 0.0519992
 0.05214912 0.05226807 0.05233538 0.05234993 0.05230129 0.05220792 0.05207151 0.05191995 0.0517595 0.05161513
 0.05149095 0.05140971 0.051374 0.05140256 0.05149698 0.05164702 0.05185033 0.05206674 0.05229437 0.05250171
 0.05268874 0.05284041 0.05295362 0.05301131 0.05301519 0.05295476 0.0528488 0.05271181 0.0525709 0.05245494
 0.05237552 0.05235092 0.05236999 0.05243585 0.05252318 0.0526299 0.05271659 0.05277721 0.0527769 0.05270885
 0.05258149 0.05239429 0.05219971 0.05200085 0.05185556 0.05176215 0.05174113 0.05178167 0.05185323 0.05194541
 0.05201358 0.05206024 0.05206778 0.05204669 0.05200584 0.05194454 0.05187085 0.05176368 0.05161192 0.05140425
 0.05112381 0.0508088 0.05045806 0.05014666 0.04988886 0.04972527 0.04966414 0.04969688 0.04982323 0.05005177
 0.05038036 0.05078015 0.05123528 0.05161657 0.05191922 0.05204352 0.05202148 0.05187613 0.0516603 0.05148226
 0.05136507 0.05140335 0.05153076 0.05172936 0.05191925 0.05203491 0.05207882 0.05202716 0.05193713 0.05181598
 0.05172759 0.05168715 0.05171653 0.05182485 0.05196074 0.05212233 0.05222432 0.05226436 0.05219606 0.05202834
 0.05179385 0.05151616 0.05130868 0.05118404 0.05125492 0.05146708 0.05178334 0.05213096 0.05238368 0.05255834
 0.05261134 0.05262192 0.05262593 0.05267875 0.05282515 0.0530331 0.05331253 0.05357599 0.05380669 0.05396097
 0.0540261 0.05404871 0.05402964 0.05407502 0.0541876 0.05442406 0.05476758 0.05512226 0.05547165 0.0556878
 0.05578885 0.055757 0.0556175 0.0554064 0.05514494 0.05486527 0.05460681 0.05440966 0.05431487 0.05436981
 0.05455227 0.05487246 0.05526961 0.05572314 0.05622284 0.05676494 0.05734134 0.05795495 0.05854918 0.05912039
 0.05963007 0.06007824 0.0604731 0.06081543 0.06111461 0.06136862 0.06157115 0.06172552 0.06183479 0.06190914
 0.06196581 0.06201991 0.06208797 0.06220907 0.0624177 0.06275839 0.0632925 0.06395222 0.06474478 0.06552026
 0.06622536 0.06682716 0.0673018 0.06771133 0.0680602 0.06839755 0.06872769 0.06905422 0.06937619 0.06966781
 0.06992996 0.07014986 0.07034333 0.0705632 0.07083853 0.07129148 0.07190026 0.07270943 0.07361309 0.07448146
 0.07526841 0.07586336 0.07633329 0.07667989 0.07699388 0.07731803 0.07769354 0.07815033 0.07865326 0.07920372
 0.07974575 0.08027019 0.08076901 0.08123979 0.0817258 0.08222916 0.08279322 0.08341374 0.08407962 0.08478114
 0.08546977 0.08614244 0.08676515 0.08734158 0.08786099 0.08833326 0.08876284 0.08917005 0.08957581 0.08999028
 0.09043219 0.09088084 0.0913289 0.09177118 0.09219316 0.09265509 0.09316524 0.09377828 0.09451149 0.09529018
 0.09611242 0.09684137 0.09747425 0.09798361 0.09838068 0.09874336 0.09907822 0.09945957 0.099875 0.1003314
 0.1008065 0.1012577 0.1016799 0.1020392 0.1023677 0.1026736 0.1030155 0.1034371 0.1039607 0.104624
 0.1053577 0.1061563 0.1069278 0.1076491 0.1082924 0.1088479 0.1093421 0.1097755 0.1101919 0.1105931
 0.1110131 0.1114509 0.1119147 0.1124025 0.1129093 0.1134373 0.1139913 0.1145699 0.115179 0.1158002
 0.1164139 0.1169992 0.1175237 0.117996 0.1184064 0.1187872 0.1191519 0.1195172 0.1198944 0.1202719
 0.120649 0.1210167 0.1213712 0.1217338 0.1221052 0.1225193 0.1229766 0.123483 0.1240336 0.1245924
 0.1251538 0.1256724 0.1261518 0.1265756 0.1269569 0.1273129 0.1276554 0.12801 0.1283752 0.1287616
 0.129156 0.1295516 0.1299426 0.1303201 0.1307008 0.1310859 0.1314996 0.1319492 0.1324364 0.1329646
 0.1335081 0.1340658 0.1346074 0.1351317 0.135622 0.1360791 0.1365022 0.1368935 0.1372616 0.1376089
 0.1379461 0.138275 0.138604 0.1389332 0.1392667 0.1396024 0.1399394 0.1402772 0.1406129 0.1409547
 0.141305 0.1416724 0.1420642 0.1424637 0.1428724 0.1432529 0.1435985 0.1439043 0.1441673 0.1444424
 0.1447325 0.1450984 0.1455359 0.1460388 0.1465933 0.1471301 0.1476426 0.1480695 0.1484246 0.148703
 0.148928 0.1491329 0.149325 0.149528 0.1497259 0.1499135 0.1500819 0.1502191 0.1503494 0.1504754
 0.150629 0.1508205 0.15105 0.1513211 0.1516097 0.1519143 0.1522187 0.1525225 0.1528252 0.1531278
 0.1534388 0.153761 0.1541137 0.1544982 0.1549323 0.1554058 0.1559101 0.1564257 0.1569208 0.1573847
 0.157793 0.1581518 0.1584567 0.1587188 0.1589423 0.1591334 0.159294 0.1594319 0.1595474 0.1596553
 0.1597566 0.1598692 0.1599943 0.1601446 0.1603206 0.1605249 0.1607569 0.1610109 0.1612858 0.1615729
 0.16187 0.1621667 0.1624593 0.1627348 0.162993 0.163224 0.1634398 0.1636448 0.1638599 0.1641036
 0.1643795 0.1647027 0.1650355 0.1653737 0.1656646 0.1658918 0.1660525 0.1661385 0.1662105 0.1662727
 0.1663738 0.1665144 0.1666635 0.1668154 0.1669012 0.1669258 0.1668724 0.1667604 0.1666398 0.1665255
 0.166476 0.166487 0.1665813 0.166738 0.166947 0.1671835 0.1674257 0.1676655 0.1678877 0.1681163
 0.168353 0.1686312 0.1689637 0.1693387 0.1697626 0.1701619 0.1705323 0.1707976 0.1709552 0.1710005
 0.1709408 0.1708425 0.1707118 0.1706143 0.1705454 0.170523 0.1705438 0.1706066 0.1707189 0.1708958
 0.17113 0.1714311 0.1717537 0.1720726 0.1723425 0.1725245 0.1726381 0.1726701 0.1726996 0.1727413
 0.1728518 0.1730471 0.1733027 0.1736206 0.1739187 0.1741928 0.1743698 0.1744515 0.1744234 0.1742981
 0.1741266 0.173926 0.1737772 0.1736871 0.1737154 0.1738431 0.1740772 0.1743713 0.1746852 0.1749721
 0.17518 0.1753077 0.1753294 0.1753024 0.1752355 0.1751942 0.1751978 0.1752653 0.175404 0.1755994
 0.1758504 0.1761581 0.1765225 0.1769589 0.1774636 0.1780107 0.1785856 0.1791001 0.1795418 0.1798172
 0.1799432 0.1798982 0.1797357 0.17952 0.1793083 0.1791914 0.1791762 0.1793115 0.1795326 0.1798313
 0.1801123 0.1803413 0.1804623 0.1804491 0.1803213 0.1800723 0.1797767 0.1794395 0.1791304 0.1788528
 0.1786302 0.1784608 0.1783337 0.1782486 0.1781978 0.1781851 0.1782202 0.178303 0.1784446 0.1786265
 0.1788359 0.1790279 0.1791562 0.1791738 0.1790238 0.1787123 0.178211 0.1776026 0.1769008 0.1762054
 0.1755447 0.1749589 0.1744615 0.1740348 0.1736789 0.1733669 0.1730972 0.1728436 0.1726039 0.1723443
 0.1720675 0.1717649 0.1714491 0.1711596 0.1708991 0.1707039 0.1705446 0.1703972 0.1702221 0.1699598
 0.1696141 0.1691535 0.1686456 0.1681069 0.1676234 0.1672323 0.1669651 0.1668478 0.166817 0.1668754
 0.1668972 0.1668719 0.1667069 0.166398 0.165961 0.1654044 0.164828 0.1642391 0.1637308 0.1632966
 0.1629665 0.1627242 0.1625507 0.162429 0.1623257 0.1622277 0.1621078 0.1619626 0.1617784 0.1615657
 0.1613242 0.1610702 0.1608086 0.160553 0.1603072 0.1600798 0.1598734 0.1596875 0.159523 0.1593646
 0.1592114 0.1590419 0.1588557 0.1586428 0.1584054 0.1581498 0.157879 0.1576059 0.1573332 0.1570729
 0.1568261 0.1566015 0.1563939 0.156204 0.1560185 0.1558286 0.155622 0.1553879 0.1551287 0.1548401
 0.154539 0.1542282 0.1539217 0.1536231 0.1533321 0.1530493 0.1527681 0.1524882 0.1522107 0.1519362
 0.1516729 0.1514199 0.151178 0.1509437 0.150706 0.150463 0.1502029 0.1499313 0.1496492 0.1493678
 0.1490995 0.1488524 0.1486377 0.1484562 0.1483111 0.1482017 0.1481292 0.1480887 0.1480837 0.1480844
 0.1480912 0.1480444 0.1479389 0.1477288 0.1474116 0.1470084 0.1465257 0.1460476 0.145581 0.1452128
 0.1449365 0.1447828 0.1447256 0.1447258 0.1447492 0.1447213 0.1446314 0.1444281 0.1441485 0.1437968
 0.1434315 0.1430894 0.1427872 0.1425471 0.1423341 0.1421423 0.1419521 0.1417536 0.1415879 0.1414565
 0.1414154 0.1414678 0.1416117 0.1418417 0.1420871 0.1423393 0.1425103 0.1426013 0.1425636 0.1424152
 0.1421696 0.1418539 0.1415195 0.1411788 0.140871 0.1405821 0.1403139 0.1400526 0.1397844 0.1395281
 0.1392846 0.1390842 0.1389402 0.1388395 0.1387867 0.1387272 0.1386551 0.1385482 0.1384049 0.1382758
 0.1381644 0.1381352 0.138182 0.138306 0.1384919 0.1386852 0.1388802 0.1390333 0.139155 0.1392437
 0.1393079 0.1393628 0.1393947 0.1394039 0.1393582 0.1392395 0.1390301 0.13871 0.1383139 0.1378366
 0.1373652 0.1369105 0.1365536 0.1363068 0.1361713 0.136148 0.1361505 0.1361734 0.136118 0.135989
 0.1357577 0.1354427 0.1350936 0.1347267 0.134409 0.1341373 0.1339405 0.133798 0.1336996 0.1336225
 0.1335452 0.133456 0.1333399 0.1332033 0.133041 0.1328793 0.1327226 0.1325957 0.1325074 0.1324406
 0.1323977 0.1323157 0.1321909 0.1319789 0.131683 0.1313388 0.1309563 0.1306183 0.1303219 0.1301057
 0.1299473 0.1298105 0.12968 0.1295067 0.1293075 0.1290778 0.1288522 0.1286585 0.1285153 0.1284433
 0.1284387 0.1285043 0.1286348 0.1288286 0.1290862 0.1294094 0.1297839 0.1302111 0.1306429 0.1310768
 0.1314382 0.1317234 0.1318652 0.1318667 0.1317072 0.131401 0.1309855 0.1304814 0.1299566 0.1294269
 0.12895 0.1285316 0.1282016 0.1279557 0.1278026 0.1277283 0.127731 0.1277881 0.1278934 0.1280199
 0.1281608 0.1282936 0.1284116 0.1285151 0.1286002 0.1287103 0.1288474 0.1290904 0.1294422 0.1299618
 0.1306416 0.1314655 0.1324152 0.1334131 0.1344479 0.135449 0.1364248 0.1373559 0.1382605 0.1391537
 0.1400466 0.1409533 0.1418786 0.1428261 0.1438082 0.144829 0.1459032 0.1470391 0.1482241 0.1494629
 0.1507014 0.1519366 0.1531031 0.1541967 0.1551856 0.15607 0.1568514 0.1575291 0.1580989 0.1585564
 0.158877 0.1590684 0.1591265 0.1590879 0.1590059 0.1589289 0.1589395 0.1590544 0.1593232 0.1597182
 0.1602384 0.1608521 0.1615412 0.1623097 0.1631521 0.1640933 0.1651373 0.1662952 0.1675699 0.1689511
 0.1704389 0.1720037 0.1736419 0.1752963 0.1769618 0.1785738 0.1801366 0.1816292 0.1830681 0.1844884
 0.1858927 0.1873183 0.188716 0.1900662 0.1912515 0.1921913 0.1927256 0.1927471 0.1921379 0.1908051
 0.1887896 0.1860475 0.1828299 0.1791481 0.1753722 0.1715382 0.1679544 0.1646432 0.1617245 0.1591952
 0.1570051 0.1551415 0.1534971 0.152066 0.1507704 0.1496072 0.1485332 0.1475375 0.1465829 0.145658
 0.1447305 0.1438062 0.1428746 0.1419596 0.1410707 0.1402305 0.1394509 0.1387413 0.1381066 0.1375499
 0.1370717 0.1366782 0.1363691 0.1361579 0.1360452 0.1360501 0.1361726 0.1364125 0.1367616 0.1371667
 0.1376115 0.1380005 0.138328 0.1385221 0.1386063 0.1385811 0.1384925 0.1383933 0.1383295 0.1383561
 0.1385042 0.1388082 0.1392771 0.139925 0.1407397 0.1417209 0.1428556 0.1441402 0.1455786 0.1471751
 0.1488909 0.1507276 0.1524704 0.1540965 0.1551845 0.1557102 0.1552718 0.1539175 0.1515858 0.1484234
 0.1447623 0.140762 0.1368706 0.1331473 0.1298655 0.1269624 0.1244857 0.1223288 0.1204392 0.1187484
 0.1172135 0.1158133 0.1145344 0.11337 0.1123181 0.1113684 0.1105205 0.1097589 0.1090829 0.1084654
 0.1079047 0.1073671 0.1068521 0.1063384 0.1058294 0.1053265 0.1048358 0.1043743 0.1039461 0.1035694
 0.1032382 0.1029572 0.1027053 0.1024685 0.1022217 0.1019426 0.1016286 0.1012666 0.1008884 0.1004963
 0.1001359 0.09981693 0.09956072 0.09937384 0.09923198 0.09913465 0.09903104 0.09891953 0.09877129 0.09859066
 0.09839664 0.09819392 0.09801629 0.09785597 0.09771197 0.09756868 0.0973934 0.09718521 0.09692349 0.09663023
 0.09631535 0.09600481 0.09571853 0.09546708 0.09526155 0.09509667 0.09497558 0.09487964 0.09480837 0.09473079
 0.0946437 0.0945204 0.09435833 0.09415905 0.09392378 0.09368004 0.09342948 0.09319797 0.09298379 0.09279348
 0.09262431 0.09247172 0.0923353 0.09221224 0.09210275 0.0920066 0.09192212 0.09184778 0.09178218 0.09172354
 0.09167296 0.09163132 0.0915963 0.09156994 0.09153727 0.09149723 0.0914287 0.09132797 0.09119248 0.09102099
 0.09084254 0.09065896 0.09050757 0.09038696 0.09030525 0.0902552 0.09020995 0.09016435 0.09008757 0.08998553
 0.08985183 0.08970191 0.08955283 0.08941749 0.08931641 0.08924659 0.08921683 0.08920436 0.08920469 0.08918767
 0.08914289 0.0890554 0.08891782 0.08874298 0.08852968 0.08830962 0.08808483 0.08788247 0.08770314 0.0875522
 0.08742757 0.08731543 0.0872138 0.08710621 0.08699384 0.08687092 0.08674098 0.0866081 0.08647471 0.08634638
 0.08622231 0.0861038 0.08598945 0.08587813 0.0857711 0.08566802 0.08557251 0.0854859 0.085409 0.08534297
 0.08528275 0.08522823 0.08517163 0.08511233 0.08504595 0.08497252 0.08489426 0.08481211 0.08473454 0.08466275
 0.08460721 0.08456682 0.08454579 0.08453787 0.08453453 0.0845268 0.08449853 0.08444599 0.08435791 0.0842406
 0.0840933 0.08392745 0.08374728 0.08356293 0.08337794 0.08319971 0.08302996 0.08287469 0.08273496 0.08261321
 0.08250991 0.08242085 0.08234561 0.08227431 0.0822062 0.08213068 0.08204793 0.08195249 0.08184647 0.0817325
 0.08161382 0.08149819 0.08138706 0.0812865 0.08119413 0.08111028 0.08103113 0.0809534 0.08087797 0.08080334
 0.08073559 0.08067682 0.08062857 0.0805933 0.08055907 0.08052538 0.08047558 0.08040812 0.08031995 0.08021143
 0.08009635 0.07997577 0.07986519 0.0797636 0.07967505 0.07959679 0.07952332 0.07945186 0.07937423 0.07928925
 0.07919092 0.07908212 0.07896202 0.07883798 0.07871411 0.07859702 0.07849137 0.07839788 0.07831839 0.07824884
 0.07818908 0.07813374 0.07808238 0.0780288 0.07797254 0.07790773 0.07783419 0.07775012 0.07765616 0.07755658
 0.07745256 0.07735153 0.0772545 0.07716845 0.07709336 0.07703348 0.07698586 0.07694948 0.07691805 0.07688555
 0.07684625 0.07679373 0.07672814 0.07664647 0.07655634 0.07645885 0.07636305 0.07627145 0.07618668 0.07611012
 0.07603519 0.0759616 0.07588125 0.07579398 0.07570049 0.07560173 0.07550693 0.0754162 0.07533567 0.07526335
 0.0751965 0.07513325 0.07506789 0.07500122 0.07493176 0.07486112 0.07479061 0.07472059 0.07465158 0.07458398
 0.07451807 0.07445415 0.07439295 0.07433178 0.07427067 0.07420421 0.07413141 0.0740511 0.07396285 0.07387254
 0.07378048 0.07369357 0.0736118 0.07353785 0.07347152 0.07341318 0.07336291 0.07332159 0.07328835 0.07326274
 0.07324172 0.07322102 0.07319771 0.07316652 0.07312866 0.07308244 0.07303288 0.07298198 0.07293294 0.07288773
 0.07284512 0.07280508 0.07276701 0.07273056 0.07269835 0.07267065 0.07264788 0.07262991 0.07261082 0.07259013
 0.07256065 0.072523 0.07247607 0.07242142 0.07236329 0.07230252 0.07224321 0.07218468 0.07212843 0.07207156
 0.07201226 0.07194664 0.071871 0.07178479 0.07168512 0.07157923 0.0714676 0.07136166 0.07126424 0.07118076
 0.07111327 0.07105554 0.07100754 0.07095684 0.0709029 0.07083856 0.07076439 0.07068294 0.07059504 0.07050656
 0.07041702 0.0703279 0.07023843 0.07014707 0.07005474 0.06996191 0.06987004 0.06978129 0.06969506 0.06961194
 0.06952996 0.0694481 0.06936572 0.0692822 0.06919843 0.06911436 0.06903169 0.06895053 0.06887341 0.06880061
 0.06873314 0.068671 0.06861088 0.06855244 0.06849054 0.0684256 0.06835658 0.06828535 0.06821694 0.06815334
 0.06810182 0.06806148 0.06803569 0.06801828 0.06800551 0.06798832 0.06795885 0.06791287 0.06784425 0.06776028
 0.06766021 0.06755929 0.06746032 0.0673763 0.06731012 0.06726328 0.06723671 0.06721926 0.06721028 0.06719415
 0.06717066 0.0671313 0.06707755 0.06701208 0.06693725 0.06686192 0.06678756 0.06672198 0.06666452 0.06661839
 0.06658006 0.06654782 0.06651658 0.06648166 0.06644183 0.06639423 0.06634329 0.06628983 0.06623773 0.06618866
 0.06614072 0.06609394 0.06604557 0.06599519 0.06594484 0.06589465 0.06584861 0.06580656 0.06576829 0.06573303
 0.06569649 0.06565833 0.06561471 0.06556677 0.06551474 0.06546088 0.06540877 0.06535993 0.06531791 0.06528135
 0.06525103 0.0652232 0.06519603 0.06516763 0.06513641 0.06510428 0.06507146 0.06503926 0.06500844 0.06497518
 0.0649394 0.06489445 0.06484002 0.06477346 0.06469498 0.06460676 0.06450844 0.06440004 0.0642796 0.06414136
 0.06398218 0.06379281 0.06357028 0.06330596 0.06299888 0.0626436 0.06224415 0.06180051 0.06132074 0.06081031
 0.06026885 0.05970097 0.059088 0.0584273 0.05769934 0.05689733 0.05603942 0.05512414 0.05420939 0.05329827
 0.05245063 0.05167005 0.051011 0.05048232 0.05015909 0.05005072 0.05023476 0.05069948 0.05147834 0.05250112
 0.05369696 0.05494641 0.05609227 0.05706809 0.05776365 0.05819852 0.05834598 0.05826974 0.0579749 0.05756008
 0.05703693 0.05654259 0.05609957 0.05579486 0.05564486 0.05558523 0.05561289 0.05562918 0.05563591 0.05562482
 0.05560365 0.05561197 0.05565072 0.05574554 0.05588887 0.05607722 0.05630124 0.05654294 0.05680211 0.05706968
 0.05735413 0.05766206 0.05798951 0.05834218 0.05869219 0.0590322 0.05933688 0.05959582 0.05981338 0.05998671
 0.06013987 0.06027476 0.06040912 0.06054389 0.06067934 0.06081458 0.06093894 0.06105196 0.06114522 0.06122019
 0.0612768 0.06131809 0.06135041 0.061377 0.0614056 0.0614383 0.06148078 0.06153214 0.06159457 0.06166285
 0.06173567 0.06180593 0.06187063 0.0619262 0.06197058 0.06200613 0.06203271 0.06205415 0.06207092 0.06208365
 0.0620924 0.06209458 0.06209011 0.06207693 0.06205536 0.0620259 0.06198956 0.06194985 0.06190791 0.06186841
 0.06183113 0.06179841 0.06176784 0.06173766 0.06170582 0.06166949 0.06162979 0.06158599 0.06154158 0.06149761
 0.06145678 0.06141998 0.06138851 0.06136265 0.06134343 0.06133107 0.06132485 0.06132475 0.06132624 0.06132893
 0.06132617 0.06131829 0.06130305 0.06128259 0.06126291 0.06124637 0.06124246 0.06124975 0.06127169 0.06130189
 0.06133488 0.06136471 0.06138403 0.06139305 0.06138917 0.06137674 0.06135712 0.06133189 0.06130188 0.06126631
 0.06122451 0.06118094 0.06113549 0.06109917 0.06107258 0.06106246 0.06106818 0.06108364 0.06110728 0.06112627
 0.06114067 0.0611433 0.06113659 0.06112273 0.06110388 0.06108515 0.06106603 0.06104843 0.0610299 0.06100903
 0.0609845 0.0609545 0.0609213 0.06088483 0.06084934 0.06081593 0.06078709 0.06076366 0.06074452 0.06072971
 0.06071711 0.06070661 0.06069656 0.06068682 0.060675 0.06066079 0.06064092 0.06061549 0.06058285 0.06054391
 0.06050007 0.06045207 0.06040174 0.06034951 0.06029596 0.06024327 0.06019264 0.06014794 0.06011215 0.06008549
 0.06007 0.06005931 0.06005253 0.06004295 0.06002872 0.0600108 0.05998883 0.0599686 0.05995044 0.05993518
 0.05992251 0.05990771 0.0598909 0.05987015 0.05984661 0.0598238 0.05980192 0.05978368 0.05976762 0.05975218
 0.05973703 0.05972045 0.05970467 0.05969115 0.05968075 0.05967553 0.05967104 0.05966686 0.05965589 0.05963567
 0.05960478 0.05956165 0.05951376 0.05946141 0.05941455 0.0593738 0.05934236 0.05931991 0.05930193 0.05928797
 0.05927293 0.05925677 0.05923696 0.05921301 0.05918245 0.05914483 0.05909735 0.05904249 0.05898084 0.05891827
 0.05885959 0.05880921 0.05877184 0.05874587 0.05873284 0.05872568 0.05872335 0.05871817 0.05870855 0.0586907
 0.0586637 0.05863019 0.05859024 0.05855057 0.05851141 0.05847758 0.05844851 0.0584231 0.05840044 0.05837622
 0.05835063 0.05832173 0.05829064 0.05825843 0.05822581 0.0581942 0.05816349 0.05813396 0.05810573 0.05807901
 0.05805358 0.05802985 0.05800575 0.057981 0.05795303 0.05792106 0.05788555 0.05784621 0.0578069 0.05776782
 0.05773319 0.0577031 0.05767969 0.05766254 0.05765033 0.0576418 0.05763149 0.0576183 0.05759602 0.05756614
 0.05752756 0.05748436 0.05744123 0.05740054 0.05736683 0.05733751 0.05731293 0.05728851 0.0572624 0.05723216
 0.0571968 0.05715515 0.05710697 0.05705082 0.05698627 0.05691539 0.0568382 0.05676354 0.05669199 0.05663467
 0.05659108 0.05656403 0.05655105 0.05654411 0.05654107 0.05653201 0.05651736 0.05649345 0.05646114 0.05642055
 0.05637089 0.05631084 0.05624223 0.05616398 0.05608428 0.05600587 0.05593557 0.05587703 0.05582671 0.05578515
 0.05574409 0.05570217 0.05566028 0.05561827 0.05558605 0.05556385 0.05555665 0.05556303 0.0555759 0.05559322
 0.05560293 0.05560483 0.05559172 0.05556572 0.05552689 0.05547829 0.05542387 0.05536515 0.05530521 0.05524288
 0.05517862 0.05511012 0.05503602 0.05495724 0.05487276 0.05478895 0.05470617 0.05463336 0.05457161 0.05452584
 0.05449653 0.05448082 0.05447828 0.05448089 0.05448793 0.0544906 0.05448837 0.05447419 0.05444865 0.05440891
 0.0543578 0.05429864 0.05423493 0.05417307 0.05411281 0.05405696 0.05400151 0.05394405 0.05388452 0.05382048
 0.05376057 0.05370626 0.05366644 0.05364422 0.05363579 0.05364201 0.0536478 0.05365224 0.05364379 0.05362242
 0.05358796 0.05354141 0.0534895 0.05343314 0.05337949 0.05332895 0.05328657 0.05325142 0.05322485 0.05320377
 0.05318534 0.05316579 0.05314047 0.05310855 0.05306729 0.05302044 0.05296826 0.05291654 0.05286704 0.0528228
 0.05278495 0.05275268 0.05272608 0.05270386 0.05268594 0.05267336 0.05266611 0.05266433 0.05266732 0.05267033
 0.05267223 0.05266584 0.05265086 0.05262232 0.05258163 0.05252838 0.05246583 0.05239688 0.05232713 0.05226168
 0.05220672 0.05216818 0.05214659 0.05214552 0.05215567 0.05217625 0.05219428 0.05220679 0.05220863 0.05219818
 0.05218131 0.05215826 0.05213713 0.05211791 0.05209942 0.05208046 0.05205102 0.05201122 0.051955 0.05188585
 0.05180915 0.05173006 0.05166045 0.05160384 0.0515705 0.05155878 0.05157328 0.05160306 0.05164497 0.05168266
 0.05170774 0.05171351 0.05169399 0.05165982 0.05161084 0.05156447 0.05152313 0.05149395 0.05147788 0.05146704
 0.05146085 0.05144679 0.05142499 0.05139013 0.05134415 0.0512922 0.05123638 0.05118572 0.0511395 0.05110122
 0.05106786 0.05103639 0.05100618 0.05097478 0.05094494 0.05091788 0.05089501 0.05087788 0.05086432 0.05085415
 0.05084483 0.05083576 0.05082599 0.05081538 0.05080314 0.0507893 0.05077097 0.05074781 0.05071251 0.05066457
 0.05059556 0.05050716 0.05040004 0.05028057 0.05016555 0.0500626 0.04999651 0.04996445 0.04997697 0.05001697
 0.05007331 0.05013069 0.05017447 0.0502033 0.0502116 0.05020779 0.05019296 0.05017513 0.05015661 0.05013812
 0.05012057 0.05009748 0.05006856 0.05002512 0.04996694 0.04989023 0.04979672 0.04969696 0.04959537 0.04951786
 0.04946511 0.04945633 0.04948037 0.04952572 0.04958065 0.0496221 0.04965152 0.0496615 0.04965806 0.04964408
 0.04962 0.04958628 0.0495442 0.04949206 0.04944187 0.04939459 0.04936664 0.0493608 0.04938117 0.0494287
 0.04949094 0.04956701 0.0496378 0.04970276 0.04974825 0.04977578 0.04978432 0.04977664 0.04975997 0.04973626
 0.0497121 0.04968972 0.04967443 0.04966861 0.04967814 0.04969824 0.04972956 0.04976067 0.04978491 0.0498023
 0.04980816 0.0498216 0.04984538 0.04989601 0.04997804 0.05007877 0.05019833 0.05030419 0.05039528 0.05045575
 0.05048851 0.05051035 0.05052565 0.05056564 0.05062637 0.05071529 0.05082037 0.0509193 0.0510095 0.05107438
 0.05112621 0.05117018 0.0512183 0.05128349 0.05135956 0.05144978 0.05153511 0.05160897 0.05166506 0.05169657
 0.05173049 0.05176606 0.05185967 0.05201595 0.05226343 0.0526012 0.05297856 0.05339128 0.05377738 0.05414367
 0.05448728 0.05482052 0.05517876 0.05556718 0.05601589 0.05651653 0.05707368 0.05766793 0.05828328 0.05890298
 0.0595068 0.06010247 0.06068195 0.06128209 0.06191443 0.06259643 0.06334206 0.06410189 0.06487306 0.06559888
 0.06627348 0.06689572 0.0674658 0.0679982 0.06849155 0.06893718 0.06933582 0.06968199 0.06998639 0.07027659
 0.07056426 0.0708911 0.07124884 0.07164796 0.0720647 0.07247674 0.07287701 0.07325087 0.0736093 0.0739539
 0.07429373 0.07463201 0.07497288 0.07531337 0.07568192 0.07607604 0.07657625 0.07718903 0.07796787 0.07891131
 0.07991121 0.08095895 0.08192278 0.08281916 0.08365755 0.0844586 0.0852906 0.086159 0.08710431 0.08813193
 0.08925424 0.09050898 0.09191984 0.09357004 0.09552383 0.09782972 0.1005691 0.103583 0.1068741 0.1101379
 0.1133029 0.1162234 0.1188591 0.1212548 0.1234072 0.1254322 0.1273376 0.1292977 0.1313277 0.1336604
 0.1362709 0.1392012 0.1423374 0.1453277 0.1481541 0.1505713 0.1527115 0.1546654 0.1565283 0.158442
 0.1604105 0.1624832 0.1646287 0.166844 0.1691027 0.1714077 0.1736834 0.1759187 0.178031 0.179999
 0.1818569 0.1836043 0.1853095 0.1869731 0.1885353 0.1899883 0.1912239 0.1922589 0.1931117 0.193819
 0.1945127 0.1951929 0.1959438 0.1966962 0.1973699 0.1979549 0.1983881 0.1987507 0.1990912 0.1994308
 0.1998085 0.200158 0.2004639 0.2006831 0.2007953 0.2008306 0.2007871 0.2007239 0.2006465 0.2005779
 0.2005182 0.2004185 0.2002766 0.2000478 0.1997382 0.1993565 0.1989075 0.1984117 0.1978683 0.197285
 0.1966598 0.1959931 0.1952818 0.1945249 0.1937126 0.1928377 0.1918943 0.1908699 0.1897955 0.1886707
 0.1875581 0.1864729 0.1854455 0.1844843 0.1835802 0.1827325 0.1819438 0.1812147 0.1805689 0.1800065
 0.1795395 0.1791644 0.1788699 0.1786536 0.1785019 0.1784161 0.1783916 0.1784323 0.1785399 0.1787236
 0.1789905 0.1793554 0.1798293 0.180426 0.181153 0.1820254 0.183046 0.1842409 0.1856174 0.1871869
 0.1889585 0.1908777 0.1929443 0.1950497 0.1971885 0.1992686 0.2012851 0.2031626 0.2048846 0.2063236
 0.2074695 0.2082034 0.2085699 0.2085932 0.2083523 0.2079716 0.2075134 0.2070944 0.2067241 0.2064525
 0.2062448 0.206092 0.2059829 0.2058996 0.2058979 0.2059851 0.2062203 0.2066281 0.2071051 0.2076474
 0.2081133 0.2084971 0.2088126 0.2090654 0.2093204 0.2095775 0.2098697 0.2101919 0.2105461 0.2109242
 0.2113244 0.2117031 0.2120307 0.2121673 0.2119577 0.2112985 0.2100175 0.2082437 0.2059887 0.2033997
 0.2005235 0.1974748 0.1942669 0.1910919 0.1879761 0.1850745 0.1824092 0.1799603 0.1777264 0.175596
 0.1735676 0.1715869 0.1696659 0.1678428 0.166125 0.1645659 0.1631436 0.1618438 0.1606255 0.1594202
 0.1582012 0.1569144 0.1555495 0.1540886 0.1525092 0.1507928 0.148936 0.1468994 0.1448501 0.142804
 0.1409849 0.1394516 0.1381337 0.1370367 0.1359752 0.1349404 0.1338598 0.1327396 0.1316271 0.13053
 0.1295171 0.12858 0.1277224 0.1269431 0.1262311 0.1256149 0.1251327 0.1248104 0.1247005 0.1247839
 0.1250678 0.1255158 0.1261097 0.1268307 0.1276671 0.1286151 0.1296661 0.1308532 0.1321724 0.1337216
 0.1355118 0.1375842 0.1399394 0.1423397 0.1447647 0.1468873 0.1487237 0.1501967 0.1513372 0.1522133
 0.1528331 0.1532415 0.1534532 0.1534951 0.1534223 0.1532889 0.1531819 0.1531906 0.1533401 0.1536987
 0.1541364 0.1546244 0.1550533 0.1553775 0.1556244 0.1557882 0.1559332 0.1560657 0.1562121 0.156374
 0.156533 0.1566878 0.1568166 0.1569225 0.1570108 0.1570873 0.1571763 0.1572757 0.1573977 0.1575269
 0.1576428 0.157739 0.1577924 0.1578281 0.1578525 0.1579042 0.158006 0.1581777 0.1584353 0.1587684
 0.1591793 0.159647 0.1601686 0.1607309 0.1613334 0.1619506 0.1625809 0.1631607 0.1636859 0.164088
 0.164369 0.1645053 0.1645038 0.1643762 0.1641282 0.163778 0.1633296 0.1627963 0.1621829 0.1614978
 0.1607489 0.1599437 0.1590903 0.1581955 0.1572601 0.156286 0.1552734 0.1542192 0.1531442 0.1520482
 0.1509691 0.1499108 0.14889 0.1479077 0.1469522 0.1460235 0.1451186 0.1442419 0.1434182 0.1426501
 0.1419639 0.1413497 0.1408019 0.1403 0.1398105 0.1393132 0.1387715 0.1381773 0.1375074 0.1367795
 0.1359901 0.1351812 0.1343661 0.1335787 0.1328336 0.1321272 0.1314639 0.1308122 0.1301695 0.1295106
 0.1288339 0.1281483 0.1274564 0.1267971 0.1261721 0.1256124 0.1251124 0.1246692 0.1242758 0.1239127
 0.123579 0.1232629 0.1229698 0.1227009 0.1224633 0.1222645 0.1221031 0.1219833 0.121891 0.1218224
 0.1217645 0.1217103 0.1216697 0.1216404 0.1216529 0.1217102 0.1218295 0.122012 0.1222374 0.1225039
 0.122779 0.1230654 0.1233598 0.1236711 0.1240302 0.1244433 0.1249443 0.1255254 0.1261937 0.1269248
 0.1276984 0.1284806 0.1292436 0.1299478 0.1305692 0.1310668 0.1314205 0.1316054 0.1316076 0.1314376
 0.1310911 0.1306098 0.1299956 0.1292993 0.1285238 0.1277167 0.1268801 0.126055 0.1252424 0.1244716
 0.1237413 0.1230634 0.1224338 0.1218493 0.1213059 0.1207952 0.1203171 0.1198678 0.1194485 0.1190599
 0.1186989 0.1183645 0.1180519 0.117758 0.1174855 0.1172337 0.1170113 0.1168202 0.1166619 0.1165375
 0.1164374 0.1163614 0.1162982 0.1162474 0.1162006 0.1161569 0.1161067 0.1160494 0.1159771 0.1158932
 0.1158009 0.115708 0.1156286 0.1155683 0.1155408 0.1155434 0.1155801 0.1156424 0.1157262 0.1158264
 0.1159388 0.1160667 0.11621 0.1163729 0.1165574 0.1167572 0.1169729 0.1171873 0.1173993 0.1175921
 0.1177654 0.1179139 0.118039 0.1181483 0.118244 0.1183393 0.1184338 0.1185351 0.1186379 0.1187383
 0.1188282 0.1188964 0.1189375 0.1189425 0.1189117 0.118842 0.1187379 0.118601 0.1184328 0.1182353
 0.1180027 0.1177349 0.117424 0.1170684 0.1166702 0.1162291 0.1157602 0.1152644 0.1147585 0.1142425
 0.1137238 0.113202 0.1126784 0.1121543 0.1116333 0.1111187 0.110618 0.110133 0.1096692 0.1092253
 0.1088022 0.1083987 0.1080143 0.1076493 0.1073045 0.1069767 0.1066664 0.1063636 0.1060666 0.1057682
 0.1054667 0.1051687 0.1048746 0.1046012 0.104349 0.1041297 0.1039427 0.1037876 0.1036634 0.103565
 0.1034934 0.1034479 0.1034317 0.1034503 0.1035047 0.1035997 0.1037299 0.1038932 0.1040814 0.1042878
 0.1045132 0.1047538 0.1050226 0.1053216 0.1056633 0.1060513 0.1064862 0.1069691 0.1074905 0.10805
 0.1086343 0.1092428 0.1098618 0.1104906 0.1111181 0.1117442 0.1123636 0.1129774 0.1135858 0.1141885
 0.1147861 0.1153747 0.1159509 0.1165092 0.1170439 0.1175517 0.1180292 0.1184748 0.1188876 0.1192639
 0.1196025 0.1198998 0.1201539 0.1203706 0.1205491 0.1207061 0.1208424 0.1209786 0.1211159 0.1212745
 0.1214558 0.1216781 0.1219415 0.1222564 0.1226207 0.1230337 0.1234945 0.1240001 0.124553 0.125156
 0.1258078 0.1265121 0.1272556 0.1280351 0.1288281 0.1296256 0.1304098 0.1311725 0.1319122 0.132626
 0.1333257 0.1340123 0.1346967 0.1353797 0.1360624 0.1367446 0.137426 0.138107 0.1387919 0.1394783
 0.1401619 0.1408344 0.1414721 0.142068 0.1425958 0.1430617 0.1434588 0.1438069 0.1441189 0.1444148
 0.1447116 0.145015 0.1453345 0.1456571 0.1459829 0.1462913 0.1465778 0.1468327 0.1470531 0.1472501
 0.147424 0.1476012 0.147783 0.1479941 0.1482328 0.1485023 0.1487964 0.1490924 0.149385 0.1496469
 0.1498805 0.1500768 0.1502426 0.1503837 0.1505016 0.1506011 0.1506767 0.1507276 0.1507451 0.1507259
 0.1506608 0.1505451 0.1503806 0.1501638 0.1499199 0.1496498 0.1493881 0.1491374 0.1489152 0.1487216
 0.1485545 0.1484134 0.1482935 0.148194 0.1481107 0.1480407 0.1479742 0.1479087 0.147834 0.1477517
 0.1476595 0.1475593 0.1474531 0.147339 0.1472161 0.1470844 0.1469416 0.1467965 0.1466504 0.1465145
 0.1463928 0.1462813 0.1461819 0.1460702 0.1459446 0.1457822 0.145583 0.1453521 0.1450922 0.1448282
 0.1445596 0.1442985 0.1440384 0.1437675 0.1434808 0.1431621 0.1428139 0.1424319 0.1420235 0.1415936
 0.1411478 0.1406922 0.140226 0.1397511 0.1392611 0.1387538 0.138227 0.1376784 0.1371172 0.1365438
 0.1359694 0.135395 0.134824 0.1342565 0.133693 0.1331339 0.1325822 0.1320373 0.1314989 0.1309636
 0.130423 0.1298729 0.1293016 0.1287063 0.1280777 0.1274169 0.1267192 0.1259945 0.1252455 0.1244873
 0.1237283 0.1229725 0.1222261 0.1214732 0.1207128 0.119924 0.1191032 0.1182476 0.1173562 0.1164491
 0.1155273 0.1146157 0.1137137 0.1128301 0.1119626 0.1111047 0.1102575 0.1094186 0.1085945 0.1077965
 0.1070292 0.1063056 0.1056215 0.1049791 0.1043702 0.1037898 0.1032339 0.1026995 0.102186 0.1016935
 0.1012176 0.1007588 0.1003046 0.09985404 0.09939374 0.09892244 0.09843696 0.09793754 0.09743285 0.09692324
 0.09641566 0.09590892 0.09540024 0.09489057 0.0943791 0.09387197 0.09338086 0.0929101 0.09247293 0.09206346
 0.09168219 0.09131906 0.09096593 0.09062301 0.09028637 0.08996652 0.08966663 0.08939042 0.08914137 0.08890573
 0.08868295 0.08845435 0.08821823 0.08797051 0.08771142 0.08745135 0.08719076 0.08693796 0.08669274 0.08645736
 0.08623377 0.08602819 0.08584367 0.08569071 0.085567 0.08547635 0.08540815 0.08535601 0.08530483 0.08524399
 0.08516051 0.08504396 0.08489632 0.0847111 0.08451726 0.0843164 0.08415089 0.08402716 0.08396479 0.08396693
 0.08401269 0.08410043 0.08418955 0.08427878 0.0843391 0.08437315 0.08437652 0.08435456 0.08431993 0.0842774
 0.0842417 0.08421712 0.08421368 0.08423917 0.08430377 0.08441443 0.08458196 0.08479781 0.0850645 0.08535862
 0.08567257 0.08599508 0.0863201 0.08665958 0.08701482 0.08739191 0.08779273 0.08818804 0.08857556 0.08890146
 0.08916333 0.08931585 0.08936185 0.08928672 0.08910177 0.08882817 0.0884854 0.08812018 0.08775121 0.0874259
 0.08714805 0.08694217 0.08679286 0.08669874 0.08664026 0.08660594 0.08659267 0.08659478 0.08662502 0.08668578
 0.08678301 0.08691987 0.08707864 0.08725885 0.08743062 0.0875927 0.08772686 0.0878344 0.08791859 0.08798282
 0.08804439 0.08810612 0.08818629 0.08828359 0.08840592 0.08854618 0.08869827 0.0888547 0.0890043 0.08914796
 0.08928171 0.08941235 0.08954393 0.08967396 0.0898049 0.08992174 0.09002078 0.09009713 0.09014753 0.09019139
 0.09022979 0.090283 0.09035151 0.09043141 0.09052198 0.09061321 0.09070818 0.09081782 0.09094372 0.09110051
 0.09127819 0.09146453 0.09164709 0.09179882 0.09192446 0.09201455 0.09208981 0.09216087 0.09224508 0.09235471
 0.09249274 0.09266435 0.0928605 0.09308178 0.09331068 0.09354531 0.09376919 0.09398024 0.09418074 0.09437133
 0.09457879 0.09480552 0.09508578 0.09541939 0.09582494 0.09629793 0.09683606 0.09743141 0.09807014 0.09873747
 0.09941278 0.1000673 0.1006698 0.101186 0.1015802 0.1018433 0.1019532 0.1019464 0.1018235 0.1016454
 0.1014239 0.1012069 0.1010035 0.100833 0.1006984 0.1005979 0.1005315 0.1004908 0.1004758 0.1004839
 0.1005153 0.1005708 0.1006479 0.1007387 0.1008399 0.1009389 0.1010392 0.1011395 0.1012466 0.1013691
 0.1015053 0.1016585 0.1018199 0.1019854 0.1021508 0.1023126 0.1024747 0.1026365 0.1028083 0.1029912
 0.103197 0.1034272 0.1036782 0.1039494 0.1042178 0.1044834 0.104736 0.1049814 0.1052444 0.1055303
 0.1058705 0.1062616 0.1067114 0.107214 0.1077634 0.1083549 0.1089846 0.1096388 0.1103125 0.1109761
 0.1116186 0.1122024 0.1127127 0.1131266 0.113431 0.1136483 0.1137752 0.1138755 0.1139541 0.1140594
 0.1141935 0.1143552 0.1145427 0.1147374 0.1149398 0.1151446 0.1153515 0.1155578 0.1157603 0.1159501
 0.1161272 0.1162884 0.1164327 0.1165609 0.1166633 0.1167326 0.1167651 0.1167528 0.1167128 0.1166481
 0.1165753 0.1165009 0.1164207 0.116335 0.1162396 0.1161332 0.1160323 0.1159381 0.1158752 0.1158443
 0.11586 0.1159203 0.1160243 0.1161667 0.1163307 0.1165122 0.1166931 0.1168746 0.1170512 0.117224
 0.1173909 0.1175563 0.1177158 0.117897 0.1181101 0.118384 0.1187484 0.1191335 0.1195392 0.1198442
 0.1200199 0.1200854 0.1200361 0.1199615 0.1198657 0.1197913 0.1197358 0.1196858 0.1196374 0.1195603
 0.1194583 0.1193254 0.1191731 0.1190245 0.1188871 0.1187883 0.1187138 0.1186648 0.1186073 0.1185142
 0.1183714 0.1181547 0.1179009 0.1176096 0.1173462 0.1171253 0.1169937 0.116964 0.1170342 0.1172079
 0.1174337 0.1177086 0.1179646 0.1181995 0.1183677 0.1184703 0.1184899 0.1184297 0.1182855 0.1180729
 0.1178152 0.1175486 0.1173416 0.1172128 0.1172262 0.1173301 0.117518 0.1177061 0.117842 0.1179036
 0.1178572 0.1177684 0.1176383 0.117569 0.1175775 0.1177198 0.1180074 0.1183876 0.1188577 0.119303
 0.1197214 0.1200496 0.1202951 0.1204655 0.1205672 0.1206222 0.1206383 0.1206406 0.1206437 0.1206849
 0.1207639 0.1209019 0.1210713 0.121259 0.1214399 0.1215936 0.1217214 0.1218193 0.1218931 0.1219455
 0.1219688 0.121962 0.1219215 0.1218458 0.1217522 0.1216417 0.1215461 0.1214662 0.121424 0.1214146
 0.1214235 0.1214423 0.1214304 0.121394 0.1213203 0.1212371 0.1211828 0.1211773 0.1212659 0.1214307
 0.12168 0.1219693 0.122279 0.1225736 0.1228332 0.1230525 0.1232241 0.1233651 0.1234786 0.123566
 0.1236299 0.1236335 0.1235749 0.1234273 0.1231942 0.1229105 0.1225836 0.1222769 0.1219894 0.1217524
 0.1215581 0.1214051 0.1212834 0.1211796 0.1210775 0.1209532 0.1207992 0.120596 0.1203622 0.1201023
 0.1198339 0.1195699 0.1192937 0.1190046 0.1186825 0.1183209 0.1179344 0.1175232 0.1171136 0.1167072
 0.1163043 0.1159034 0.115483 0.1150415 0.1145576 0.1140356 0.1134741 0.1128899 0.1123197 0.1117815
 0.1113285 0.1109472 0.1106529 0.1103981 0.1101521 0.1098756 0.1095315 0.1091312 0.1086597 0.1081848
 0.1077167 0.1073273 0.1070363 0.106832 0.1067207 0.106597 0.1064554</values></Ydata></AB><ScSm><Ydata ylabel="Single channel"><values byteorder="INTEL" format="FLOAT32" numvalues="1814"> 0.05369139 0.05368864 0.05373836 0.05385741 0.05402355 0.05418944 0.05431324 0.054382 0.05440338 0.05438261
 0.05433045 0.05429234 0.05433413 0.05447884 0.05467129 0.05481506 0.05484687 0.05479203 0.05475263 0.05480997
 0.05491522 0.05490075 0.05463725 0.05418245 0.05374455 0.05348888 0.05343332 0.05357042 0.05397204 0.05459553
 0.05506185 0.05492365 0.05422416 0.05353152 0.05330879 0.05346879 0.05363304 0.05357401 0.05328926 0.0529134
 0.05275513 0.05321771 0.05440465 0.05578834 0.0563969 0.05542706 0.05281513 0.04942086 0.04671387 0.04599176
 0.04747108 0.05001049 0.05196497 0.05250007 0.05200268 0.05126218 0.05060892 0.05000699 0.04961036 0.04979847
 0.05065755 0.05162739 0.05179338 0.0506689 0.04876745 0.04723762 0.04681733 0.04736837 0.04848384 0.04994182
 0.05109059 0.05047424 0.04724168 0.0429813 0.04104866 0.04339055 0.04847257 0.0527771 0.05394162 0.0521129
 0.04895763 0.04626039 0.04523669 0.04620675 0.04853563 0.05115993 0.05323569 0.05419404 0.05359965 0.0515161
 0.04888008 0.04705931 0.04701387 0.04890981 0.05208059 0.05509145 0.05638838 0.05543956 0.05309197 0.05067415
 0.04911336 0.04893094 0.05038161 0.05319828 0.05656191 0.05957354 0.06162595 0.06246916 0.06226233 0.06147288
 0.06052072 0.05970071 0.05942883 0.05999611 0.06089937 0.06101812 0.05982666 0.05808971 0.05707472 0.05723642
 0.05784808 0.05789102 0.05709287 0.05578458 0.05389667 0.05090323 0.04702181 0.04357715 0.04168078 0.04136163
 0.04233801 0.04447417 0.0468672 0.04776406 0.04647182 0.04461756 0.04454918 0.04682633 0.04990923 0.05203657
 0.05286298 0.05335546 0.05454584 0.0564761 0.05805804 0.05789097 0.05563904 0.05282552 0.05176952 0.05331783
 0.05602677 0.05794194 0.05866592 0.05918976 0.06014282 0.06081734 0.05990471 0.05705182 0.0537219 0.0523063
 0.05404594 0.05778825 0.06081902 0.06087634 0.05767366 0.05297095 0.04919894 0.0477754 0.04870791 0.0515085
 0.05574905 0.06058203 0.06450175 0.06618339 0.06545638 0.06323821 0.06048123 0.05728874 0.05340573 0.04967341
 0.04823133 0.05050974 0.05541625 0.06023801 0.06306639 0.06377098 0.06296863 0.06085694 0.05736017 0.0532252
 0.05040494 0.05056244 0.05308135 0.05539096 0.05565491 0.05445736 0.05351199 0.05351506 0.0538624 0.05395098
 0.05404161 0.05480172 0.05634372 0.05795842 0.05880056 0.05866231 0.05801322 0.05745072 0.05716048 0.0567856
 0.05592417 0.05491407 0.05481924 0.05627728 0.05863248 0.06060278 0.06156811 0.06182458 0.06175131 0.06113916
 0.05949708 0.05698176 0.05479982 0.05432363 0.05576666 0.05804215 0.05990004 0.0608313 0.06096184 0.06060892
 0.06006179 0.05948237 0.05894795 0.05866025 0.05890264 0.05964602 0.06044423 0.06088333 0.06092933 0.06073328
 0.06033038 0.05968823 0.05892345 0.0583228 0.05813993 0.05840459 0.05893854 0.05951625 0.05995456 0.0601013
 0.05988932 0.05943281 0.05895337 0.05858015 0.05831275 0.05816699 0.05821915 0.05847248 0.0587882 0.0590039
 0.05906408 0.05900651 0.05887542 0.05868681 0.05845335 0.05821753 0.05805914 0.05804837 0.05816649 0.05830517
 0.05838461 0.05843327 0.05850006 0.05853879 0.05845769 0.05825719 0.05804673 0.0579314 0.05792756 0.05797947
 0.05801202 0.05795387 0.05774742 0.05739542 0.05701581 0.05679642 0.05684776 0.05712109 0.05748376 0.05782119
 0.05805416 0.05814083 0.0581098 0.05803784 0.05796193 0.05784995 0.05767311 0.05747721 0.05736938 0.05743518
 0.05765869 0.05792782 0.0581288 0.05822211 0.05823139 0.05820541 0.05820061 0.05824509 0.05829896 0.05829205
 0.05821329 0.05812935 0.05810945 0.05815487 0.05820439 0.05820165 0.05815879 0.05814506 0.0582052 0.05830988
 0.05840071 0.05845848 0.05850587 0.05855751 0.05858642 0.05854531 0.05842608 0.05828828 0.05820569 0.05819058
 0.05819955 0.05820724 0.05823504 0.05830316 0.05838795 0.05844288 0.05844805 0.05842556 0.05840436 0.05837956
 0.0583207 0.05821963 0.05811118 0.05803844 0.05801137 0.05800621 0.05799491 0.05796647 0.05792436 0.05787212
 0.05780695 0.05772574 0.05763165 0.05753554 0.05745851 0.05742747 0.05745073 0.05749366 0.05749483 0.05741833
 0.05728741 0.05715997 0.05707182 0.05700841 0.05693286 0.05683231 0.05672771 0.05664368 0.05658366 0.05653469
 0.05648302 0.05642262 0.05636285 0.05633319 0.05636643 0.05646267 0.05657519 0.05664591 0.05665681 0.05663965
 0.05663826 0.0566706 0.05672552 0.05678614 0.05685365 0.05694625 0.05706774 0.05718485 0.05725712 0.05728894
 0.05732748 0.05740842 0.0575292 0.05767291 0.05782473 0.05796083 0.05805615 0.05811694 0.05818082 0.05827219
 0.05837669 0.05847025 0.05855507 0.05865159 0.05876842 0.05889916 0.05904472 0.05922006 0.05943367 0.05966911
 0.05989075 0.0600671 0.0601961 0.06031563 0.06048196 0.06072424 0.06101754 0.06130479 0.06154665 0.06174925
 0.06194509 0.06215183 0.06235967 0.06256258 0.06278503 0.06305701 0.06337041 0.06368418 0.06397126 0.0642399
 0.06450795 0.0647772 0.06504006 0.06529951 0.06557325 0.06587753 0.06620598 0.06652705 0.06680845 0.06704459
 0.06725889 0.06748449 0.06774373 0.06803066 0.06830409 0.06851593 0.06866543 0.06881244 0.0690151 0.06926376
 0.06950149 0.06970317 0.06990299 0.07013901 0.0704004 0.07064706 0.0708632 0.07107133 0.07129808 0.07153989
 0.07176302 0.07193396 0.0720515 0.07214904 0.07226454 0.07241541 0.07260561 0.07283932 0.07310842 0.07337774
 0.07360545 0.07377557 0.07389869 0.07399282 0.07408061 0.07418996 0.07433438 0.07449849 0.07465484 0.07478477
 0.07487909 0.0749418 0.07500406 0.07511003 0.07527414 0.07547231 0.07568477 0.07592179 0.07619151 0.07646871
 0.07672372 0.07696859 0.07724217 0.07754875 0.07783959 0.07806443 0.07821714 0.07831955 0.07839036 0.07845524
 0.07856246 0.07875092 0.07900576 0.07926999 0.07949705 0.07967682 0.07981829 0.07992934 0.08001587 0.08008866
 0.08016462 0.08026192 0.08039536 0.08057652 0.08081296 0.08109556 0.08138703 0.08163633 0.08181168 0.08191036
 0.08193624 0.08188656 0.08177064 0.08162171 0.08146703 0.08129029 0.08103942 0.08067191 0.08018124 0.07958248
 0.07888842 0.07810765 0.07726099 0.0763953 0.07557946 0.07488288 0.07435623 0.07403383 0.0739466 0.07411079
 0.07449227 0.0749907 0.07547067 0.07580809 0.07591353 0.07573704 0.07527651 0.07458045 0.0737277 0.07279646
 0.07184733 0.07091953 0.07002924 0.06918016 0.06839538 0.06774616 0.06734554 0.06731477 0.06775448 0.06872307
 0.07020166 0.07205798 0.07406171 0.07597069 0.07763018 0.07900672 0.08015005 0.0811381 0.08204129 0.08289959
 0.08371359 0.08446474 0.08514793 0.08577655 0.08635826 0.08687893 0.08731163 0.08763337 0.08783701 0.0879369
 0.08796252 0.08794169 0.08789372 0.08783702 0.08778618 0.08772877 0.08761048 0.08735517 0.08690596 0.0862535
 0.08543779 0.08454749 0.08374836 0.08331633 0.08358422 0.08476375 0.08676915 0.08922714 0.09168407 0.0938212
 0.09552123 0.09681116 0.0977859 0.09855504 0.09920602 0.09978938 0.1003292 0.1008382 0.1013213 0.101777
 0.1022059 0.1026159 0.1030183 0.1034194 0.1038139 0.1041897 0.1045412 0.1048794 0.1052253 0.1055904
 0.1059654 0.1063305 0.1066773 0.1070146 0.1073493 0.107672 0.1079705 0.1082506 0.1085325 0.1088302
 0.109147 0.1094803 0.1098179 0.110136 0.1104162 0.1106645 0.1109048 0.111155 0.111416 0.1116787
 0.1119352 0.1121823 0.1124232 0.1126691 0.1129337 0.1132183 0.1135024 0.1137568 0.1139693 0.1141536
 0.1143332 0.1145238 0.1147293 0.1149462 0.1151715 0.1154086 0.1156646 0.1159367 0.1162067 0.1164542
 0.1166742 0.1168787 0.1170833 0.1172976 0.1175255 0.1177662 0.1180118 0.1182494 0.1184728 0.1186908
 0.1189181 0.1191578 0.1193976 0.1196232 0.1198325 0.1200343 0.1202381 0.120447 0.1206616 0.1208871
 0.1211312 0.121391 0.1216465 0.1218762 0.1220767 0.1222633 0.1224535 0.1226554 0.1228697 0.1230931
 0.1233193 0.1235415 0.1237579 0.1239737 0.1241948 0.1244214 0.1246481 0.1248702 0.1250876 0.1253027
 0.1255161 0.1257274 0.1259379 0.1261502 0.1263654 0.1265832 0.1268025 0.1270227 0.1272448 0.1274683
 0.1276885 0.1278993 0.1281009 0.1283021 0.1285113 0.1287265 0.128938 0.1291393 0.1293351 0.1295364
 0.12975 0.1299722 0.1301931 0.1304047 0.1306064 0.1308049 0.1310085 0.1312196 0.131432 0.1316383
 0.1318387 0.1320399 0.1322501 0.1324732 0.1327049 0.1329327 0.1331459 0.133344 0.1335358 0.133731
 0.1339357 0.1341498 0.1343669 0.1345804 0.1347906 0.1350012 0.1352138 0.1354267 0.1356379 0.1358457
 0.13605 0.1362529 0.1364553 0.136657 0.1368604 0.1370685 0.1372798 0.1374899 0.1376957 0.1378961
 0.1380922 0.1382893 0.1384934 0.1387039 0.1389134 0.1391147 0.1393051 0.1394862 0.139665 0.1398504
 0.1400461 0.1402493 0.1404553 0.1406615 0.1408702 0.1410871 0.1413127 0.1415395 0.1417626 0.1419851
 0.1422099 0.1424332 0.1426514 0.1428659 0.143082 0.1433063 0.1435416 0.1437801 0.144009 0.144224
 0.1444319 0.1446424 0.1448605 0.1450819 0.1452947 0.1454955 0.1456971 0.1459141 0.146146 0.1463825
 0.1466126 0.146827 0.1470244 0.1472176 0.14742 0.1476322 0.1478481 0.1480637 0.1482756 0.1484832
 0.1486933 0.1489116 0.149133 0.14935 0.149562 0.1497719 0.1499833 0.1501977 0.1504106 0.150616
 0.1508191 0.151029 0.1512426 0.1514531 0.1516624 0.1518735 0.1520837 0.1522939 0.1525033 0.1526923
 0.1528184 0.1527867 0.1523575 0.1510449 0.1481109 0.1427247 0.1343037 0.1228867 0.1092431 0.09459157
 0.08015611 0.06686559 0.05527292 0.04561763 0.03793778 0.03215768 0.02814759 0.0257992 0.02509945 0.02621733
 0.02960917 0.03575569 0.04412325 0.05222083 0.05654784 0.05534995 0.05029629 0.04496048 0.04184426 0.04114735
 0.04181287 0.04292246 0.04417735 0.04574123 0.04790462 0.05075387 0.05415172 0.05809123 0.0628764 0.06874421
 0.07539503 0.0821086 0.08836535 0.09426209 0.1002803 0.1067087 0.1133417 0.1196841 0.125349 0.1302541
 0.1345491 0.1384435 0.1420875 0.1455541 0.1488763 0.1520446 0.1549422 0.1573202 0.1589157 0.1596467
 0.1597073 0.1594603 0.1592261 0.1591558 0.1592643 0.1595232 0.159908 0.1604 0.160984 0.1616428
 0.1623512 0.1630827 0.1638207 0.1645528 0.1652602 0.165921 0.1665203 0.1670538 0.1675308 0.1679696
 0.1683852 0.1687835 0.169167 0.1695363 0.1698841 0.1702003 0.1704866 0.1707543 0.1710106 0.1712546
 0.1714835 0.1716975 0.1719009 0.1721018 0.1723071 0.1725156 0.1727212 0.172921 0.1731173 0.1733128
 0.1735085 0.1737042 0.1738995 0.1740948 0.1742928 0.1744947 0.1746969 0.1748922 0.1750758 0.1752515
 0.175432 0.1756276 0.1758328 0.1760307 0.1762123 0.1763835 0.1765541 0.1767293 0.1769113 0.1770995
 0.1772908 0.1774852 0.1776861 0.1778925 0.1781009 0.1783128 0.1785295 0.1787433 0.178946 0.1791408
 0.1793326 0.1795161 0.1796844 0.1798464 0.1800246 0.180234 0.1804642 0.1806862 0.1808813 0.1810591
 0.1812412 0.1814355 0.1816318 0.1818168 0.1819904 0.1821743 0.1823953 0.1826524 0.1829126 0.1831507
 0.1833722 0.183593 0.1838221 0.1840644 0.1843128 0.1845352 0.1846986 0.1848158 0.1849529 0.1851802
 0.1855076 0.1858678 0.1861783 0.1864181 0.1866292 0.1868602 0.187133 0.187425 0.1876514 0.1877195
 0.1876656 0.1876812 0.1879379 0.188417 0.188956 0.189419 0.1897811 0.1900867 0.1903725 0.1906248
 0.1907926 0.1908435 0.1908268 0.1908798 0.1911343 0.1915864 0.1920899 0.1925059 0.1928133 0.1930558
 0.1932641 0.1934543 0.1935962 0.1935635 0.1932641 0.1928819 0.1928307 0.1933503 0.1942338 0.1950495
 0.1955727 0.1958979 0.1961865 0.1964677 0.1966946 0.1967886 0.1965384 0.1957139 0.1945142 0.1937038
 0.1939871 0.195298 0.1969153 0.1981839 0.1989339 0.1993272 0.199574 0.1997902 0.1999106 0.1996946
 0.198995 0.1981167 0.1977403 0.1982932 0.1994679 0.2005498 0.2011443 0.2013887 0.2015749 0.2018258
 0.2020129 0.2017158 0.2004615 0.1984151 0.196732 0.1967442 0.1986557 0.2012974 0.2032886 0.2042283
 0.2045883 0.2046923 0.2042414 0.2028537 0.2006411 0.1981592 0.1962198 0.1957742 0.1972914 0.1999726
 0.2021978 0.2031217 0.2033939 0.2040934 0.2054422 0.206803 0.2075048 0.2073595 0.2065608 0.205329
 0.2038012 0.202354 0.2018063 0.2028491 0.2052068 0.2077268 0.2094434 0.2103161 0.2107316 0.2103733
 0.2079847 0.2028724 0.1968021 0.1935276 0.1954843 0.2012463 0.2070642 0.2105606 0.2120459 0.2127658
 0.2132153 0.2129965 0.2110554 0.2062619 0.1991939 0.1932562 0.1923827 0.1971523 0.2041354 0.2090916
 0.2098562 0.2065772 0.2009614 0.1957707 0.1936987 0.19574 0.2007475 0.2065687 0.2113421 0.2140139
 0.214333 0.2127552 0.2104115 0.2088345 0.2088511 0.2093653 0.2081771 0.2047472 0.2010818 0.1988013
 0.1966652 0.1929128 0.1891393 0.189263 0.1944162 0.2010345 0.2048461 0.2051983 0.2043201 0.2032678
 0.200138 0.1928187 0.1829785 0.1761678 0.1769673 0.1842367 0.1921232 0.1957787 0.1952145 0.1936287
 0.1931282 0.1925873 0.1892771 0.1824444 0.1751403 0.1716833 0.1731035 0.1762294 0.1774668 0.1757037
 0.1711041 0.1639177 0.1564722 0.1539477 0.1600197 0.1723503 0.1843964 0.1907934 0.1893476 0.1798877
 0.1649743 0.1514212 0.1470119 0.1535685 0.1647548 0.1718901 0.1708676 0.1629604 0.1510915 0.1377475
 0.1260835 0.1203678 0.123448 0.1338579 0.1458836 0.1524883 0.1492191 0.1375881 0.1252555 0.120542
 0.1249587 0.1322087 0.1352542 0.1326943 0.127856 0.1244128 0.12421 0.1269963 0.1307492 0.1335438
 0.1351028 0.1348035 0.1296235 0.1177737 0.103715 0.09528203 0.09552909 0.1011112 0.1085465 0.1173588
 0.1260204 0.1298001 0.1260806 0.1193092 0.1172352 0.1226911 0.1311495 0.1362579 0.1361419 0.1337928
 0.1324517 0.1321461 0.1312763 0.1303539 0.1321544 0.1378715 0.1449839 0.1500246 0.1521597 0.1529118
 0.1535435 0.1540815 0.1541866 0.153727 0.1527352 0.1515029 0.1504857 0.1497704 0.1489725 0.1477731
 0.1459407 0.142594 0.1364268 0.1276961 0.1194247 0.1150897 0.1150295 0.116665 0.1182322 0.1198058
 0.1199141 0.1145396 0.1023522 0.08905379 0.0832554 0.08817811 0.0992555 0.1093611 0.1142814 0.1131223
 0.1062093 0.09520149 0.08477384 0.08118616 0.08726169 0.09976266 0.1128991 0.1232619 0.1301863 0.1330998
 0.1311086 0.1250923 0.1184497 0.1151606 0.1174216 0.1246928 0.1338202 0.139755 0.1380155 0.129205
 0.1211257 0.1230181 0.135768 0.150325 0.1578499 0.1586972 0.1588014 0.1604266 0.1610422 0.1599229
 0.1607784 0.1666582 0.1754144 0.1817918 0.1820585 0.1754906 0.1637941 0.1513734 0.1442203 0.1452105
 0.1509351 0.1554712 0.1561541 0.153265 0.1465031 0.1363949 0.1280352 0.1280575 0.1369312 0.1479712
 0.1549518 0.1578127 0.1599145 0.1622122 0.1620695 0.1572472 0.1496394 0.1441308 0.143786 0.1471672
 0.1507827 0.1527489 0.1528874 0.150711 0.1457064 0.139627 0.1364953 0.1391585 0.1463839 0.1540209
 0.1587051 0.1599674 0.1592959 0.1581727 0.1570446 0.1554278 0.1529342 0.150607 0.1507148 0.1543239
 0.159587 0.1636242 0.1658078 0.1679792 0.1715317 0.1754724 0.177636 0.1770766 0.1749987 0.1737258
 0.1748402 0.1779188 0.1808345 0.1815548 0.1800664 0.1785705 0.1794595 0.183031 0.1874535 0.1908349
 0.1927632 0.1938982 0.1948441 0.1956239 0.1956696 0.194246 0.1914888 0.189027 0.1888462 0.191327
 0.1948738 0.1975499 0.1986288 0.1985279 0.1977978 0.196568 0.1948269 0.1928982 0.191436 0.1909548
 0.1914766 0.1926523 0.1940903 0.1955135 0.1967557 0.1977585 0.1985521 0.1991876 0.1997033 0.2001443
 0.2005422 0.2008642 0.2010521 0.2011434 0.2012847 0.2015755 0.2019409 0.2022135 0.2022983 0.2021834
 0.2018319 0.2011764 0.2002331 0.1991165 0.1979017 0.1965609 0.195132 0.1939193 0.1934141 0.1939293
 0.1953117 0.1970395 0.1985888 0.1996975 0.2003549 0.2006651 0.200761 0.2007707 0.200781 0.2008139
 0.2008501 0.200877 0.20091 0.2009717 0.2010677 0.2011927 0.2013525 0.2015619 0.2018155 0.2020722
 0.2022734 0.202376 0.2023763 0.2023053 0.2021976 0.2020555 0.2018439 0.2015194 0.2010652 0.200505
 0.1998969 0.1993036 0.1987479 0.1981908 0.1975655 0.1968337 0.1959904 0.195023 0.1939138 0.1927016
 0.1914953 0.1903892 0.1893817 0.1884005 0.1873804 0.1862928 0.1851313 0.1839058 0.1826446 0.1813803
 0.1801312 0.178901 0.1776876 0.1764849 0.1752793 0.1740516 0.1727847 0.1714665 0.1700877 0.1686379
 0.1670996 0.1654324 0.1635605 0.1613846 0.1588152 0.1558045 0.1523644 0.148573 0.1445632 0.1404898
 0.1364938 0.1326821 0.1291299 0.1259044 0.1230855 0.1207562 0.1189708 0.1177403 0.1170494 0.1168782
 0.1172092 0.1180209 0.1192726 0.1208907 0.1227658 0.1247641 0.1267468 0.1286009 0.1302776 0.1318049
 0.1332524 0.1346697 0.1360492 0.1373464 0.1385348 0.1396262 0.1406316 0.1415273 0.1422816 0.1428971
 0.1434036 0.1438263 0.1441817 0.1444901 0.1447694 0.1450234 0.1452488 0.145451 0.1456464 0.1458505
 0.1460705 0.1463129 0.1465965 0.1469465 0.1473734 0.1478654 0.1484041 0.14898 0.1495962 0.150265
 0.1509952 0.1517845 0.1526353 0.1535755 0.154645 0.1558574 0.1571858 0.1585817 0.159994 0.1613718
 0.1626638 0.1638258 0.1648343 0.1656934 0.1664221 0.1670347 0.1675403 0.1679573 0.1683156 0.1686408
 0.1689431 0.169217 0.169449 0.1696312 0.1697675 0.1698608 0.1699018 0.1698823 0.16981 0.1697019
 0.1695697 0.1694194 0.1692609 0.1691107 0.1689834 0.1688793 0.1687857 0.1686929 0.1686023 0.1685099
 0.1683946 0.1682307 0.1680008 0.1676905 0.1672817 0.1667624 0.1661341 0.1654093 0.1646064 0.1637405
 0.1628147 0.1618196 0.1607423 0.1595729 0.1583091 0.1569554 0.1555157 0.1539965 0.1524266 0.1508591
 0.1493384 0.1478768 0.1464724 0.1451332 0.143871 0.1426879 0.1415753 0.1405178 0.1394972 0.1385017
 0.1375266 0.136566 0.1356133 0.1346696 0.1337442 0.1328534 0.1320272 0.1313052 0.1307204 0.1302928
 0.1300299 0.1299133 0.1298939 0.1299238 0.1299846 0.1300668 0.1301361 0.1301424 0.130056 0.1298908
 0.1296969 0.1295274 0.1294042 0.1293149 0.1292317 0.129118 0.1289234 0.1285909 0.1280642 0.1272903
 0.1262394 0.1249374 0.1234635 0.1219144 0.1203859 0.1189719 0.1177479 0.1167509 0.1159785 0.1153943
 0.1149358 0.1145432 0.1141979 0.1139347 0.1138106 0.113842 0.1139533 0.1140169 0.1139746 0.1138984
 0.1139114 0.1140753 0.1143617 0.1146886 0.1149697 0.1151663 0.1153056 0.1154367 0.1155819 0.1157328
 0.1158602 0.1159201 0.1158799 0.1157424 0.1155305 0.1152623 0.114947 0.1145818 0.1141504 0.1136456
 0.1130769 0.1124482 0.1117516 0.1109785 0.1101021 0.1090811 0.107953 0.1069023 0.1061746 0.1059192
 0.106112 0.1065888 0.1071596 0.1077236 0.1082383 0.1085744 0.1085586 0.1082803 0.108231 0.1089423
 0.110469 0.1123217 0.113902 0.1149133 0.1153632 0.1153383 0.1148996 0.1140995 0.1129535 0.1114253
 0.1095209 0.1073384 0.1049928 0.1025907 0.1002787 0.09819775 0.0964068 0.09491906 0.09374526 0.09292828
 0.09256874 0.09236731 0.0908556 0.08617119 0.07893181 0.07351082 0.07436796 0.08103782 0.08844629 0.09226766
 0.09237608 0.09107612 0.08996111 0.08926597 0.08889732 0.08896036 0.08956614 0.09062269 0.0918299 0.09284814
 0.09350885 0.09381518 0.0937416 0.09305482 0.09123965 0.08765471 0.08206226 0.07511787 0.0681448 0.06234255
 0.05825514 0.05580956 0.05456688 0.05396159 0.05357152 0.05331897 0.05341767 0.05411537 0.05548551 0.05743639
 0.0598269 0.06246086 0.06500818 0.06712472 0.06871724 0.0699589 0.07100132 0.07179575 0.07222203 0.07226378
 0.0720107 0.07157274 0.07103364 0.07043912 0.06977957 0.06899582 0.06806819 0.06712639 0.06639723 0.06599461
 0.06583048 0.0657617 0.06572668 0.0657116 0.06569532 0.06566888 0.06564493 0.06565277 0.06575968 0.06603671
 0.06645809 0.06689343 0.06722604 0.06743757 0.0675786 0.06767074 0.06762035 0.06729108 0.06673995 0.06625584
 0.06599745 0.06572279 0.06510714 0.06424204 0.06358418 0.06344391 0.06370979 0.06405514 0.06424603 0.0642362
 0.06412898 0.06414008 0.06447582 0.06509049</values></Ydata></ScSm><ScRf><Ydata ylabel="Single channel"><values byteorder="INTEL" format="FLOAT32" numvalues="1820"> 0.06064628 0.06080556 0.06090227 0.06093776 0.06093447 0.06093746 0.06099924 0.06114401 0.0613445 0.06153704
 0.06166771 0.06172832 0.06174035 0.06171294 0.06164834 0.06158896 0.06161264 0.06175569 0.06196081 0.06211709
 0.06215063 0.06209009 0.06205015 0.06211901 0.06223706 0.0622132 0.06190359 0.0613777 0.06087417 0.06058136
 0.06052003 0.06068233 0.06114843 0.06186403 0.06239066 0.06221842 0.06140554 0.0606091 0.06035684 0.0605415
 0.0607259 0.0606503 0.06031235 0.05986651 0.05967154 0.06019811 0.06156668 0.06316102 0.06385018 0.06270827
 0.05967784 0.05577082 0.05268647 0.05190036 0.05363116 0.05654888 0.05877147 0.059362 0.05877725 0.05792114
 0.05716712 0.05647198 0.05601131 0.05621981 0.05719779 0.05830115 0.05847558 0.05716684 0.05498044 0.05324063
 0.05277494 0.05340365 0.05466381 0.05631523 0.05760777 0.05686629 0.05313963 0.0482889 0.04616029 0.04892887
 0.05477636 0.05966212 0.06091521 0.05874823 0.05510154 0.05203012 0.05090839 0.05206289 0.05473709 0.05771893
 0.06006431 0.06113192 0.06042536 0.05802919 0.05502803 0.05297874 0.05295578 0.05513169 0.05874099 0.0621492
 0.06359402 0.06248515 0.059798 0.05704554 0.05528152 0.05509892 0.0567815 0.06001528 0.06386378 0.06730103
 0.06962666 0.07055205 0.07027481 0.06935284 0.06827595 0.06737216 0.06709503 0.06775002 0.06874817 0.06882755
 0.06742646 0.06544028 0.06430425 0.06451072 0.06521569 0.06526142 0.06434699 0.06284788 0.06067454 0.0572311
 0.052788 0.04886895 0.04673115 0.0463997 0.04756198 0.05005834 0.05282495 0.05384032 0.05233946 0.05021914
 0.0501611 0.05277106 0.05626769 0.05865008 0.05955243 0.06009983 0.06146913 0.06368606 0.06548087 0.06524866
 0.06263787 0.05943267 0.05828693 0.06011976 0.06323409 0.06540527 0.06622899 0.06686899 0.06802752 0.06885616
 0.06784316 0.06461169 0.06087179 0.0593522 0.0614193 0.06571032 0.06912515 0.06911626 0.06540161 0.06002807
 0.05577885 0.05424725 0.05541994 0.05874875 0.0637565 0.06945743 0.07410001 0.07615009 0.07540151 0.07290053
 0.06974909 0.06608351 0.06163023 0.05739102 0.05586876 0.05871193 0.06460968 0.0703777 0.07379803 0.07473227
 0.07389664 0.07150263 0.06745493 0.06266606 0.05949255 0.05990856 0.06312479 0.06602907 0.06644231 0.06511117
 0.06411339 0.06427233 0.06483936 0.06508386 0.06534052 0.06644006 0.06851953 0.07069484 0.07191072 0.07189836
 0.0712347 0.07067236 0.07045427 0.07013114 0.06920069 0.06811123 0.06821401 0.07027754 0.07342485 0.07603329
 0.0773631 0.07782595 0.07789555 0.07727215 0.07531124 0.07223026 0.06960656 0.06921144 0.07129879 0.07444088
 0.07701237 0.07836254 0.07867277 0.07836924 0.07782858 0.07725687 0.076757 0.0765918 0.0771133 0.07826036
 0.07944833 0.0801554 0.08035033 0.0802253 0.07981983 0.07910274 0.07824757 0.07763646 0.07758486 0.07810734
 0.07895996 0.07985717 0.08057402 0.08091135 0.08076715 0.0802865 0.07977802 0.07943373 0.07925636 0.07925249
 0.0795078 0.0800173 0.0805916 0.08101425 0.08121648 0.081256 0.08119607 0.08105733 0.08085619 0.08065735
 0.08057831 0.08070695 0.08099383 0.08128485 0.08150339 0.08172683 0.08201665 0.08225907 0.08228314 0.0820905
 0.08186577 0.08177602 0.08183608 0.08195875 0.08205369 0.08204367 0.08184963 0.08145995 0.08103037 0.08082753
 0.08101627 0.08154234 0.08222811 0.08289884 0.08341002 0.08367761 0.08374003 0.08371556 0.08366379 0.08354498
 0.08332832 0.0830925 0.08300131 0.08318084 0.08360487 0.08410487 0.08450677 0.08474205 0.08483939 0.08488038
 0.08497001 0.08515795 0.08535939 0.08543081 0.0853498 0.08525337 0.0852753 0.08539662 0.08548222 0.08544208
 0.0853356 0.08531079 0.08544776 0.08568607 0.0859116 0.08608247 0.08624743 0.08645365 0.08665513 0.08673102
 0.08661593 0.08639565 0.08622746 0.08617659 0.08619269 0.08623976 0.08636071 0.08658168 0.08682311 0.08696657
 0.08698776 0.08697696 0.08702252 0.08710359 0.08711769 0.08700125 0.08679894 0.08661751 0.08653605 0.08656289
 0.08664908 0.08672298 0.08672774 0.08665209 0.08653248 0.08641761 0.0863321 0.08628532 0.08630944 0.08645241
 0.08670375 0.08694369 0.08701177 0.08685049 0.08656968 0.08635049 0.08628251 0.08629813 0.08625964 0.08609438
 0.08584186 0.08559079 0.08539605 0.08525576 0.08514281 0.08504374 0.08497939 0.08499758 0.08512367 0.08529812
 0.0853864 0.08528996 0.08504321 0.0847751 0.08458871 0.08450272 0.08448136 0.08447967 0.08447704 0.08449794
 0.08457731 0.08468589 0.08473209 0.08466555 0.084542 0.08446655 0.08451021 0.08468173 0.08491995 0.08510259
 0.08512755 0.08501486 0.08488998 0.08485383 0.08490439 0.08498713 0.08507269 0.08516303 0.08525845 0.08535502
 0.08546747 0.08562939 0.08586046 0.08613694 0.08639677 0.0865796 0.08667582 0.08674521 0.08687922 0.08712979
 0.08746704 0.08780567 0.08807515 0.08826992 0.08843538 0.08860887 0.08878779 0.08896463 0.08917008 0.08944751
 0.08979049 0.09014031 0.09044947 0.09072153 0.09098607 0.0912611 0.09154968 0.09186068 0.09221949 0.09264483
 0.09310407 0.09350669 0.09377204 0.09390914 0.09401694 0.09420873 0.09453412 0.09494065 0.09529594 0.09548914
 0.09554547 0.09561057 0.09579268 0.09605569 0.09630403 0.09653257 0.0968312 0.09725052 0.09771828 0.09810669
 0.09835639 0.09851837 0.09868427 0.0988878 0.09907952 0.09919925 0.09925961 0.09933394 0.09946702 0.09964061
 0.09984237 0.1001171 0.1005028 0.1009489 0.101349 0.1016432 0.1018466 0.1019961 0.102111 0.1021933
 0.1022379 0.1022499 0.1022675 0.1023367 0.1024486 0.1025383 0.1025684 0.1025794 0.1026395 0.1027782
 0.1029918 0.1032743 0.1036034 0.1039235 0.1041954 0.1044588 0.1047896 0.1051804 0.1055132 0.1056841
 0.1057172 0.1057134 0.1057263 0.1057512 0.1058073 0.1059535 0.106215 0.1065475 0.1068925 0.1072329
 0.1075802 0.1079313 0.1082504 0.1084846 0.1085969 0.1085973 0.108548 0.1085382 0.1086424 0.108883
 0.1092165 0.1095617 0.1098508 0.1100506 0.1101422 0.1101208 0.1100384 0.1100097 0.1101214 0.1103314
 0.1104911 0.1104719 0.1102473 0.1098587 0.1093438 0.1087243 0.108042 0.1073762 0.1068131 0.1064042
 0.1061674 0.1061262 0.1063271 0.1067905 0.1074489 0.1081659 0.1088195 0.1093362 0.1096458 0.1096603
 0.1093389 0.1087451 0.1080099 0.1072543 0.1065554 0.1059414 0.1053844 0.1048357 0.1043183 0.1039773
 0.1040118 0.1045522 0.1055936 0.1070038 0.1085653 0.1100437 0.1112802 0.1122518 0.1130418 0.113746
 0.1144132 0.1150644 0.1157257 0.1164061 0.1170609 0.1176266 0.1180921 0.1185047 0.1189072 0.1192968
 0.1196439 0.1199254 0.1201461 0.120344 0.120555 0.1207568 0.120874 0.1208615 0.1207578 0.1206345
 0.1205143 0.120358 0.1201105 0.1197475 0.119306 0.1189042 0.1187246 0.1189404 0.1196186 0.1206756
 0.1219375 0.1232511 0.1245286 0.125696 0.1266542 0.1273335 0.1277642 0.1280543 0.1283079 0.1285803
 0.1288863 0.1292134 0.1295328 0.1298211 0.1300829 0.1303501 0.1306581 0.1310123 0.1313716 0.1316763
 0.1319059 0.1321083 0.1323634 0.1327131 0.1331222 0.1335126 0.1338441 0.1341488 0.1344698 0.1347879
 0.1350447 0.1352277 0.1353912 0.1355979 0.1358759 0.1362204 0.136595 0.1369337 0.137183 0.1373513
 0.1374986 0.1376761 0.1378923 0.1381304 0.1383769 0.1386269 0.1388813 0.1391507 0.1394528 0.1397863
 0.1401082 0.1403573 0.1405152 0.1406311 0.1407751 0.1409734 0.141197 0.1414051 0.1415919 0.1417938
 0.1420534 0.1423728 0.1427007 0.1429692 0.1431485 0.1432657 0.1433763 0.1435243 0.1437206 0.1439479
 0.1441767 0.1443852 0.1445724 0.1447574 0.1449595 0.145181 0.1454081 0.1456284 0.1458408 0.1460503
 0.1462591 0.1464659 0.1466743 0.1469014 0.1471692 0.1474766 0.1477832 0.1480354 0.1482122 0.1483369
 0.1484481 0.1485722 0.1487217 0.148901 0.149106 0.1493233 0.1495387 0.149745 0.1499433 0.1501389
 0.150337 0.1505405 0.150748 0.1509557 0.1511642 0.1513809 0.1516101 0.1518405 0.1520533 0.1522439
 0.1524275 0.1526225 0.1528343 0.1530536 0.1532621 0.1534443 0.1536028 0.1537613 0.1539424 0.1541473
 0.1543598 0.1545649 0.1547598 0.15495 0.1551419 0.1553368 0.1555333 0.1557317 0.1559364 0.15615
 0.1563685 0.1565803 0.1567751 0.1569539 0.1571299 0.1573159 0.1575138 0.1577186 0.1579262 0.1581335
 0.1583347 0.1585249 0.1587062 0.1588887 0.1590823 0.1592882 0.1594996 0.1597096 0.1599147 0.1601121
 0.1603019 0.1604895 0.1606814 0.1608791 0.1610837 0.1612982 0.1615215 0.1617445 0.1619606 0.1621725
 0.1623864 0.1626027 0.1628174 0.1630284 0.1632403 0.1634595 0.1636853 0.1639076 0.1641168 0.1643111
 0.164493 0.1646654 0.164831 0.1649914 0.1651477 0.1653068 0.1654802 0.1656738 0.1658829 0.1660978
 0.1663095 0.1665125 0.1667089 0.1669044 0.1671003 0.1672941 0.1674852 0.1676755 0.167868 0.1680688
 0.1682822 0.1685016 0.1687155 0.1689203 0.1691194 0.1693173 0.1695197 0.1697297 0.1699451 0.170164
 0.1703888 0.1706152 0.1708305 0.1710313 0.1712278 0.1714297 0.171639 0.1718557 0.1720738 0.1722823
 0.172479 0.1726735 0.1728741 0.173084 0.1733046 0.1735306 0.1737511 0.173963 0.174172 0.1743799
 0.1745871 0.1747982 0.175013 0.1752239 0.1754306 0.1756383 0.1758452 0.1760505 0.1762631 0.1764854
 0.176708 0.1769275 0.1771451 0.1773399 0.177457 0.1773771 0.1768182 0.1752196 0.171726 0.1653685
 0.1554665 0.1420687 0.1260843 0.108952 0.09211162 0.07664087 0.06316379 0.05194364 0.04302513 0.03632428
 0.03168484 0.02897147 0.02816644 0.02947067 0.0334214 0.04058012 0.05031442 0.05970407 0.06467193 0.06321142
 0.05731074 0.05113607 0.04755953 0.04676983 0.04752753 0.04878521 0.05021894 0.05202643 0.05453809 0.05784647
 0.06179474 0.06638335 0.07196379 0.07879485 0.08651438 0.09429053 0.1015375 0.1083781 0.1153662 0.1228239
 0.1305044 0.1378354 0.1443779 0.1500482 0.1550281 0.1595612 0.1638132 0.1678562 0.17172 0.1753949
 0.1787506 0.1815009 0.1833382 0.1841651 0.1842066 0.1838882 0.1835871 0.1834804 0.1835802 0.1838478
 0.1842553 0.184787 0.1854304 0.1861686 0.1869745 0.1878162 0.1886676 0.1895046 0.1903033 0.1910497
 0.1917424 0.1923797 0.1929561 0.1934743 0.1939472 0.1943877 0.1948024 0.1951917 0.1955544 0.1958962
 0.1962289 0.1965555 0.1968637 0.197141 0.1973896 0.1976194 0.1978376 0.1980491 0.198258 0.1984662
 0.1986742 0.1988837 0.1990963 0.1993116 0.1995276 0.1997402 0.1999431 0.2001347 0.200321 0.2005073
 0.2006921 0.2008735 0.2010553 0.2012443 0.2014446 0.2016561 0.2018727 0.2020837 0.2022801 0.2024617
 0.202637 0.2028182 0.2030119 0.2032141 0.2034189 0.203631 0.2038569 0.2040879 0.2043066 0.2045105
 0.2047129 0.2049215 0.2051324 0.2053419 0.205547 0.2057365 0.2058973 0.2060356 0.2061827 0.2063719
 0.206605 0.2068484 0.2070686 0.2072618 0.2074453 0.2076318 0.2078208 0.208005 0.2081818 0.2083688
 0.2085936 0.2088574 0.209126 0.2093714 0.2096 0.2098302 0.2100681 0.2103147 0.2105623 0.2107804
 0.2109388 0.2110557 0.2112031 0.2114509 0.2117991 0.2121714 0.2124861 0.2127298 0.2129475 0.2131852
 0.2134614 0.2137476 0.2139442 0.21395 0.2138217 0.2137966 0.2140734 0.2146148 0.2152166 0.2157164
 0.2160854 0.216372 0.2166216 0.2168356 0.2169717 0.216989 0.2169297 0.216951 0.2172188 0.2177363
 0.2183236 0.2188001 0.2191285 0.2193607 0.2195421 0.2196986 0.2197956 0.2196849 0.2192633 0.2187516
 0.2186353 0.2191958 0.2201929 0.221123 0.2217145 0.2220609 0.2223414 0.2225989 0.2227955 0.222847
 0.2225061 0.2215112 0.220104 0.2191671 0.2194918 0.2209775 0.2227869 0.2241781 0.2249715 0.2253651
 0.2256065 0.2258275 0.2259447 0.2256722 0.2248384 0.2237945 0.2233216 0.2239092 0.2252093 0.2264131
 0.2270766 0.2273543 0.2275662 0.2278364 0.2280106 0.2276158 0.2261306 0.2237616 0.2218317 0.2218475
 0.2240221 0.2270115 0.2292465 0.2302838 0.2306698 0.2307667 0.2302193 0.2285886 0.226017 0.2231597
 0.2209539 0.2204731 0.2222216 0.2252606 0.2277445 0.2287374 0.2290039 0.2297739 0.2312841 0.232794
 0.2335388 0.2333189 0.232371 0.230949 0.2291993 0.2275407 0.2268991 0.2280553 0.2306957 0.233519
 0.2354373 0.2364032 0.2368449 0.2363926 0.2336209 0.2277617 0.2208421 0.2171235 0.2193453 0.2258679
 0.232437 0.2363668 0.2380182 0.2388067 0.2392912 0.2390132 0.236774 0.2313037 0.2232791 0.2165673
 0.2156009 0.2209964 0.2288599 0.2344203 0.2352589 0.2315457 0.2252002 0.2193419 0.2170177 0.2193496
 0.2250337 0.2316251 0.2370098 0.2400027 0.2403379 0.2385441 0.2359056 0.2341524 0.2342035 0.2348033
 0.2334796 0.2296631 0.2256342 0.2231886 0.2208783 0.2167002 0.2124791 0.2126707 0.2185578 0.226092
 0.2304377 0.2308807 0.2299634 0.2288688 0.2254142 0.2172037 0.2061628 0.198633 0.1998245 0.2084047
 0.2176826 0.2221571 0.2218903 0.2205577 0.2205523 0.2205389 0.2173274 0.2100288 0.2021988 0.198864
 0.2011871 0.2054324 0.2074026 0.2057957 0.200771 0.1926089 0.1840966 0.1814047 0.1889025 0.2038268
 0.2184294 0.2263518 0.2249755 0.2140666 0.1966812 0.1810254 0.1764755 0.18519 0.1994827 0.2088754
 0.2084255 0.199661 0.1861019 0.1708153 0.1578105 0.1525578 0.1587504 0.1745296 0.1924296 0.2030854
 0.2004487 0.1865134 0.1717394 0.1675451 0.1759139 0.1879866 0.1939483 0.1919225 0.1866586 0.1834384
 0.1850143 0.1910277 0.1983911 0.2042161 0.2081254 0.2090088 0.2019358 0.1840868 0.1626073 0.1498859
 0.1506931 0.1597814 0.1717899 0.1860398 0.2000207 0.2061114 0.20017 0.1893574 0.1860104 0.1945437
 0.2076831 0.2153593 0.2146717 0.2103978 0.2076506 0.2064527 0.2042736 0.2019035 0.2036776 0.2114798
 0.2214484 0.2282898 0.2307922 0.2313475 0.2318996 0.2324687 0.2325172 0.2318402 0.2304968 0.2289553
 0.2279472 0.2276466 0.2275096 0.2270991 0.2260657 0.2229042 0.2152835 0.2033145 0.1916171 0.1856562
 0.1859554 0.1884816 0.1906532 0.1928505 0.1928144 0.1840596 0.1644317 0.1431428 0.1340639 0.1423189
 0.1604729 0.1770202 0.1851982 0.1835768 0.1726421 0.1550151 0.1381744 0.1320795 0.1410321 0.1595517
 0.1782383 0.1918642 0.1998956 0.2019729 0.1969693 0.1862324 0.1748396 0.1686764 0.1708732 0.1804506
 0.19262 0.1999832 0.1961748 0.1822192 0.16929 0.1704242 0.1868285 0.2058344 0.215135 0.2152244
 0.2143221 0.2156004 0.2156573 0.2135392 0.2143058 0.2221271 0.2341632 0.243364 0.2446608 0.2369693
 0.2225131 0.2072984 0.1995419 0.20305 0.2128173 0.2204036 0.2220596 0.2182271 0.2085775 0.1940803
 0.1822385 0.1825815 0.1956394 0.2117037 0.2218559 0.2260896 0.2292629 0.2327147 0.2326235 0.2257826
 0.2149512 0.2071547 0.2067557 0.2116593 0.2168933 0.2198447 0.2203159 0.2175859 0.210852 0.2025929
 0.1985946 0.2029384 0.2137572 0.2249392 0.2315623 0.2329771 0.2314038 0.2290421 0.2265764 0.2233405
 0.2187985 0.21446 0.2135772 0.2176708 0.2241128 0.2288343 0.2309849 0.2332017 0.2374623 0.2423587
 0.24481 0.2434253 0.2398281 0.2372438 0.2379124 0.2413102 0.2445418 0.2448114 0.2420776 0.2393357
 0.2398582 0.2440748 0.2495192 0.2536319 0.25585 0.2570668 0.258111 0.2590171 0.2590017 0.2570595
 0.2533876 0.2502006 0.2501602 0.2537387 0.2587692 0.2626836 0.2645862 0.2651013 0.2649541 0.2642191
 0.2627391 0.2608056 0.2591794 0.2584893 0.2587802 0.2596615 0.2607102 0.2616572 0.2623727 0.2628468
 0.2631485 0.2633372 0.2634427 0.2635156 0.2635982 0.2636386 0.2635483 0.2633812 0.2633483 0.2635838
 0.26397 0.2642642 0.2643221 0.2641061 0.2635526 0.2625888 0.2612779 0.2598066 0.2582762 0.2566286
 0.2548954 0.2534776 0.2530261 0.2539405 0.2559884 0.2584525 0.2606341 0.262205 0.2631792 0.2637064
 0.2639432 0.2640201 0.2640215 0.2639685 0.2638449 0.2636396 0.2633612 0.263023 0.2626365 0.2622264
 0.2618366 0.2615032 0.2612239 0.2609566 0.2606465 0.2602539 0.2597755 0.2592494 0.2587205 0.2581839
 0.2575726 0.2568158 0.2559056 0.2549073 0.2539183 0.2530176 0.2522235 0.251487 0.2507374 0.2499341
 0.249056 0.2480616 0.2469241 0.2457177 0.2446085 0.2437198 0.243031 0.2424223 0.2417813 0.2410471
 0.2401997 0.2392513 0.2382365 0.2371841 0.2360984 0.2349715 0.2337947 0.2325519 0.2312188 0.2297818
 0.228251 0.2266507 0.2250082 0.223344 0.2216518 0.2198737 0.2179012 0.2156028 0.2128514 0.209545
 0.2056412 0.2011997 0.19639 0.1914401 0.1865603 0.1819007 0.1775673 0.1736599 0.1702811 0.1675118
 0.1653956 0.1639552 0.1632136 0.1631915 0.1638865 0.1652566 0.1672176 0.1696516 0.1724194 0.1753699
 0.1783432 0.1811834 0.1837842 0.1861395 0.1883327 0.1904449 0.1924717 0.19434 0.1959926 0.1974254
 0.1986538 0.1996838 0.2005279 0.2012208 0.2018042 0.2023056 0.2027389 0.203113 0.2034341 0.2037038
 0.203921 0.2040905 0.2042347 0.2043909 0.2045896 0.204835 0.2051138 0.2054241 0.2057886 0.2062311
 0.2067429 0.2072857 0.2078326 0.2083949 0.2090014 0.2096655 0.2103921 0.2112072 0.2121593 0.21328
 0.2145505 0.215911 0.2172934 0.2186336 0.2198596 0.2208927 0.2216753 0.2221928 0.2224674 0.2225413
 0.2224648 0.2222781 0.2219949 0.2216109 0.2211336 0.2205915 0.2200108 0.2193971 0.2187461 0.218062
 0.2173608 0.2166586 0.2159642 0.2152801 0.2146085 0.2139534 0.2133178 0.2127001 0.2120947 0.2114962
 0.2109023 0.2103123 0.2097244 0.2091368 0.2085496 0.207956 0.2073284 0.2066247 0.2058181 0.2049115
 0.2039148 0.202822 0.201625 0.2003355 0.1989732 0.197541 0.1960288 0.1944375 0.1927816 0.1910665
 0.1892708 0.187364 0.18535 0.1832926 0.181291 0.1794249 0.1777213 0.176159 0.1746936 0.1732865
 0.1719239 0.1706097 0.1693487 0.168149 0.1670286 0.1659993 0.1650426 0.164124 0.1632339 0.1624047
 0.1616788 0.1610661 0.1605365 0.1600568 0.1596231 0.1592539 0.1589703 0.158795 0.1587428 0.1587866
 0.1588518 0.1588663 0.1588085 0.1587034 0.15859 0.1584951 0.1584223 0.1583616 0.1583038 0.1582291
 0.1580842 0.1577848 0.157241 0.1563828 0.1551819 0.153668 0.151919 0.1500473 0.1481936 0.146497
 0.1450468 0.1438795 0.1430054 0.142393 0.1419432 0.1415449 0.1411701 0.1408923 0.1408132 0.1409631
 0.1412396 0.1414639 0.141544 0.141572 0.1417321 0.1421417 0.1427877 0.1435632 0.1443352 0.1450095
 0.1455483 0.1459353 0.1461659 0.1462696 0.1462898 0.1462373 0.1461003 0.1458825 0.1456038 0.1452834
 0.144932 0.1445341 0.1440539 0.1434829 0.1428467 0.1421513 0.1413745 0.1404976 0.1394898 0.138311
 0.1370209 0.1358485 0.1350825 0.1349065 0.1353215 0.1361564 0.1371791 0.1382523 0.1393093 0.1401581
 0.1405255 0.140467 0.1405838 0.1415898 0.1436293 0.1461249 0.1483014 0.1497513 0.1504753 0.1505789
 0.1501274 0.1491826 0.1477604 0.1457966 0.1432912 0.1403944 0.1372803 0.1340877 0.1310055 0.1282353
 0.1258786 0.1239652 0.1225042 0.1215314 0.1211586 0.1209887 0.1190964 0.1130404 0.1036511 0.09668975
 0.09798157 0.1068468 0.1165946 0.1215844 0.1216957 0.1199559 0.1184366 0.1174453 0.1168868 0.1169255
 0.1176944 0.1190229 0.120486 0.1216701 0.1224272 0.1228188 0.1228148 0.1220576 0.1197993 0.1151491
 0.1077824 0.09857786 0.0893226 0.08165754 0.0763234 0.07318065 0.0715863 0.0707749 0.07022876 0.06990735
 0.07012568 0.07118403 0.07312014 0.07577802 0.07897358 0.08246101 0.08582512 0.08864389 0.09080894 0.09252584
 0.09396492 0.09505487 0.09563883 0.09568928 0.09532271 0.09469873 0.09395261 0.09315975 0.09229336 0.09124479
 0.08998619 0.08873026 0.08781553 0.08738634 0.08728679 0.08729178 0.08730972 0.08733229 0.08733219 0.08727311
 0.08715539 0.08704412 0.08707379 0.08736033 0.08786578 0.08840112 0.08878607 0.08897997 0.08906204 0.08907742
 0.08889377 0.08831817 0.0874363 0.08664556 0.08615308 0.08562697 0.08463168 0.08329366 0.08223977 0.08190817
 0.0821515 0.08250216 0.08261457 0.08242974 0.08212888 0.08204086 0.08242472 0.08315818 0.0837308 0.08371902
</values></Ydata></ScRf><Data_Parameters_AB><parameter name="DPF">1</parameter><parameter name="NPT">3497</parameter><parameter name="FXV">3996</parameter><parameter name="LXV">500</parameter><parameter name="CSF">1</parameter><parameter name="MXY">0.212167277932167</parameter><parameter name="MNY">0.0493608042597771</parameter><parameter name="DAT">01/06/2022</parameter><parameter name="TIM">12:09:05.091 (GMT+2)</parameter><parameter name="DXU">WN</parameter></Data_Parameters_AB><AB__Qtest><MainReport name="Quality Test Report"><Header><Line><Legend>Test result ok/not ok [1/0]: </Legend><Value>0</Value></Line><Line><Legend>Method file: </Legend><Value>C:\Users\Public\Documents\Bruker\OPUS_8.2.28\QT\IRBT_v3_default.QT</Value></Line></Header><Matrix><Line><Legend></Legend><Legend>min</Legend><Legend>max</Legend><Legend>measured</Legend></Line><Line><Value>Absorption (X-Range 1):</Value><Value>0.400000</Value><Value>2.000000</Value><Value>0.151470</Value></Line><Line><Value>Noise (X-Range 4):</Value><Value></Value><Value>0.000300</Value><Value>0.000083</Value></Line><Line><Value>Signal/Noise (X-Range 2):</Value><Value>200.000000</Value><Value></Value><Value>49.314211</Value></Line><Line><Value>Signal/Noise (X-Range 3):</Value><Value>40.000000</Value><Value></Value><Value>20.229561</Value></Line><Line><Value>Water vapour (X-Range 5):</Value><Value></Value><Value>0.000300</Value><Value>0.000081</Value></Line><Line><Value>Signal/Water (X-Range 2):</Value><Value>100.000000</Value><Value></Value><Value>50.435229</Value></Line><Line><Value>Signal/Water (X-Range 3):</Value><Value>20.000000</Value><Value></Value><Value>20.689423</Value></Line><Line><Value>Fringes (X-Range 6):</Value><Value></Value><Value>0.000100</Value><Value>0.000080</Value></Line></Matrix></MainReport></AB__Qtest><Data_Parameters_ScSm><parameter name="DPF">1</parameter><parameter name="NPT">1814</parameter><parameter name="FXV">3996.33169228125</parameter><parameter name="LXV">499.541461535156</parameter><parameter name="CSF">1</parameter><parameter name="MXY">0.214333042502403</parameter><parameter name="MNY">0.0250994488596916</parameter><parameter name="DAT">01/06/2022</parameter><parameter name="TIM">12:09:05.091 (GMT+2)</parameter><parameter name="DXU">WN</parameter></Data_Parameters_ScSm><Data_Parameters_ScRf><parameter name="DPF">1</parameter><parameter name="NPT">1820</parameter><parameter name="FXV">4004.04661832813</parameter><parameter name="LXV">495.683998511719</parameter><parameter name="CSF">1</parameter><parameter name="MXY">0.265101313591003</parameter><parameter name="MNY">0.0281664431095123</parameter><parameter name="DAT">01/06/2022</parameter><parameter name="TIM">12:08:38.667 (GMT+2)</parameter><parameter name="DXU">WN</parameter></Data_Parameters_ScRf><Optic_Parameters_Rf><parameter name="APR">0</parameter><parameter name="APT">Open</parameter><parameter name="BMS">KBr</parameter><parameter name="DTC">RT-DLaTGS_IR-Biotyper [Microplate reader]</parameter><parameter name="HPF">0</parameter><parameter name="LPF">10.0</parameter><parameter name="LPV">4000</parameter><parameter name="PGR">0</parameter><parameter name="RCH">Module port</parameter><parameter name="RDX">0</parameter><parameter name="SRC">MIR</parameter><parameter name="VEL">10.0</parameter><parameter name="SON">Off</parameter></Optic_Parameters_Rf><Acquisition_Parameters_Rf><parameter name="ADT">1</parameter><parameter name="AQM">DD</parameter><parameter name="CFE">0</parameter><parameter name="COR">0</parameter><parameter name="DEL">0</parameter><parameter name="DLY">0</parameter><parameter name="HFW">8000</parameter><parameter name="LFW">0</parameter><parameter name="NSR">32</parameter><parameter name="PLF">AB</parameter><parameter name="RES">6</parameter><parameter name="RGN">-1</parameter><parameter name="STR">0</parameter><parameter name="TCL">MakeCompatibleScalar (0, {WSV=1.000000, ARV=0});</parameter><parameter name="TDL">37</parameter><parameter name="RPO">0</parameter></Acquisition_Parameters_Rf><FT_-_Parameters_Rf><parameter name="APF">B3</parameter><parameter name="HFQ">500</parameter><parameter name="LFQ">4000</parameter><parameter name="NLI">0</parameter><parameter name="PHR">24</parameter><parameter name="PHZ">ML</parameter><parameter name="SPZ">NO</parameter><parameter name="ZFF">1</parameter></FT_-_Parameters_Rf><Optic_Parameters_><parameter name="APR">0</parameter><parameter name="APT">Open</parameter><parameter name="BMS">KBr</parameter><parameter name="CHN">Module port</parameter><parameter name="DTC">RT-DLaTGS_IR-Biotyper [Microplate reader]</parameter><parameter name="HPF">0</parameter><parameter name="LPF">10.0</parameter><parameter name="LPV">4000</parameter><parameter name="PGN">0</parameter><parameter name="RDX">0</parameter><parameter name="SRC">MIR</parameter><parameter name="VEL">10.0</parameter><parameter name="SON">Off</parameter></Optic_Parameters_><FT_-_Parameters_><parameter name="APF">B3</parameter><parameter name="HFQ">500</parameter><parameter name="LFQ">4000</parameter><parameter name="NLI">0</parameter><parameter name="PHR">24</parameter><parameter name="PHZ">ML</parameter><parameter name="SPZ">NO</parameter><parameter name="ZFF">1</parameter></FT_-_Parameters_><Acquisition_Parameters_><parameter name="ADT">1</parameter><parameter name="AQM">DD</parameter><parameter name="CFE">0</parameter><parameter name="COR">0</parameter><parameter name="DEL">0</parameter><parameter name="DLY">0</parameter><parameter name="HFW">8000</parameter><parameter name="LFW">0</parameter><parameter name="NSS">32</parameter><parameter name="PLF">AB</parameter><parameter name="RES">6</parameter><parameter name="SOT">0</parameter><parameter name="TCL">MakeCompatibleScalar (0, {WSV=1.000000, ARV=0});</parameter><parameter name="TDL">37</parameter><parameter name="SPO">0</parameter><parameter name="SGN">-1</parameter></Acquisition_Parameters_><Instrument_Parameters_Rf><parameter name="HFL">15800.168544</parameter><parameter name="LFL">0</parameter><parameter name="LWN">15800.168544</parameter><parameter name="ABP">32197</parameter><parameter name="SSP">1</parameter><parameter name="ARG">2</parameter><parameter name="ASG">2</parameter><parameter name="ASS">32</parameter><parameter name="GFW">16</parameter><parameter name="GBW">16</parameter><parameter name="BFW">0</parameter><parameter name="BBW">0</parameter><parameter name="PKA">7313</parameter><parameter name="PKL">4990</parameter><parameter name="PRA">7479</parameter><parameter name="PRL">5001</parameter><parameter name="P2A">1</parameter><parameter name="P2L">1</parameter><parameter name="P2R">1</parameter><parameter name="P2K">1</parameter><parameter name="DAQ">0</parameter><parameter name="AG2">1</parameter><parameter name="SSM">1</parameter><parameter name="RSN">25989</parameter><parameter name="CRR">0</parameter><parameter name="SRT">1654085318.667</parameter><parameter name="DUR">19.6389923095703</parameter><parameter name="TSC">28.9</parameter><parameter name="MVD">0.268611371517181</parameter><parameter name="AN1">0.22581713110198</parameter><parameter name="AN2">0</parameter><parameter name="VSN">2.485 Apr  4 2017</parameter><parameter name="SRN">0085</parameter><parameter name="CAM">0</parameter><parameter name="INS">IR-Biotyper</parameter><parameter name="FOC">69</parameter><parameter name="RDY">1</parameter><parameter name="ARS">32</parameter></Instrument_Parameters_Rf><Sample_Parameters_><parameter name="BLD"></parameter><parameter name="CNM">Admin</parameter><parameter name="CPY"></parameter><parameter name="DPM"></parameter><parameter name="EXP">IRBT_v3_32Scans.XPM</parameter><parameter name="LCT"></parameter><parameter name="SFM">Microplate, HTS-XT</parameter><parameter name="SNM">220601-1028(v.3)_RTF49M (D_14)_E10_1fd9d637-377f-4406-a222-c3dcc4284cc9.0</parameter><parameter name="XPP">C:\Users\Public\Documents\Bruker\OPUS_8.2.28\XPM</parameter><parameter name="IST">OK</parameter><parameter name="CPG">1252</parameter><parameter name="UID">7963960d-c657-495e-8e87-778105e6c1b2</parameter></Sample_Parameters_><Instrument_Parameters_><parameter name="HFL">15800.168544</parameter><parameter name="LFL">0</parameter><parameter name="LWN">15800.168544</parameter><parameter name="ABP">32197</parameter><parameter name="SSP">1</parameter><parameter name="ASG">4</parameter><parameter name="ARG">2</parameter><parameter name="ASS">32</parameter><parameter name="GFW">16</parameter><parameter name="GBW">16</parameter><parameter name="BFW">0</parameter><parameter name="BBW">0</parameter><parameter name="PKA">5798</parameter><parameter name="PKL">4988</parameter><parameter name="PRA">5999</parameter><parameter name="PRL">4993</parameter><parameter name="P2A">1</parameter><parameter name="P2L">1</parameter><parameter name="P2R">1</parameter><parameter name="P2K">1</parameter><parameter name="DAQ">0</parameter><parameter name="AG2">1</parameter><parameter name="SSM">1</parameter><parameter name="RSN">13620</parameter><parameter name="CRR">0</parameter><parameter name="SRT">1654085345.091</parameter><parameter name="DUR">19.6389923095703</parameter><parameter name="TSC">29</parameter><parameter name="MVD">0.750204682350159</parameter><parameter name="AN1">0.225802941354813</parameter><parameter name="AN2">0</parameter><parameter name="VSN">2.485 Apr  4 2017</parameter><parameter name="SRN">0085</parameter><parameter name="CAM">0</parameter><parameter name="INS">IR-Biotyper</parameter><parameter name="FOC">69</parameter><parameter name="RDY">1</parameter></Instrument_Parameters_><History/></OPUSDataFile>
