<?xml version="1.0" encoding="UTF-8" ?>
<OPUSDataFile><AB><Ydata ylabel="Absorbance Units"><values byteorder="INTEL" format="FLOAT32" numvalues="3497"> -0.07974713 -0.07973899 -0.07971236 -0.07966644 -0.07961238 -0.0795508 -0.07950175 -0.07946546 -0.07945076 -0.07945552
 -0.07947221 -0.07949848 -0.07952168 -0.07954182 -0.07955155 -0.07955471 -0.07955308 -0.07955319 -0.07956371 -0.07958682
 -0.07962997 -0.07968278 -0.07974427 -0.07979634 -0.07983117 -0.07984204 -0.07982317 -0.07978824 -0.07973725 -0.0796919
 -0.07965441 -0.07963753 -0.07964208 -0.07966552 -0.0797067 -0.07975012 -0.07979417 -0.07982029 -0.07983013 -0.07981755
 -0.07978962 -0.07975946 -0.07973357 -0.07973097 -0.07974728 -0.07978819 -0.07983791 -0.07988612 -0.07992117 -0.07993147
 -0.07992169 -0.07988939 -0.07984751 -0.07979897 -0.07975145 -0.07970669 -0.07966812 -0.07963597 -0.0796164 -0.07960977
 -0.07962079 -0.07964895 -0.07968879 -0.07973871 -0.07978578 -0.0798299 -0.07986346 -0.07988834 -0.07990538 -0.07991596
 -0.0799228 -0.07992647 -0.07992823 -0.07992941 -0.07993183 -0.07993516 -0.07994058 -0.0799443 -0.07994529 -0.07994007
 -0.07992645 -0.07990863 -0.07988568 -0.07987126 -0.0798661 -0.07988744 -0.07993631 -0.0800234 -0.08014769 -0.08029978
 -0.08047383 -0.0806305 -0.08076332 -0.08082293 -0.08081799 -0.08073936 -0.08061082 -0.08046874 -0.08032729 -0.08022027
 -0.08014305 -0.08010583 -0.08009141 -0.08009463 -0.08009671 -0.08008748 -0.08006486 -0.08002312 -0.07998283 -0.07994574
 -0.07993433 -0.07995226 -0.07999679 -0.0800681 -0.08013997 -0.08021178 -0.08026818 -0.08031218 -0.08035547 -0.08040012
 -0.08046259 -0.08053714 -0.08062002 -0.08070057 -0.08075715 -0.08078872 -0.08078197 -0.08075023 -0.08070032 -0.08064146
 -0.08058213 -0.08052117 -0.080458 -0.08039918 -0.08034313 -0.08031225 -0.08030958 -0.08035513 -0.08045356 -0.08058919
 -0.08076195 -0.0808827 -0.08094774 -0.08087676 -0.08068608 -0.08044167 -0.0801599 -0.07994106 -0.07977971 -0.07971411
 -0.07972892 -0.07982038 -0.07996164 -0.08012358 -0.08027536 -0.08037798 -0.08042891 -0.08040672 -0.08035252 -0.08027531
 -0.08021509 -0.0801883 -0.08019359 -0.08023536 -0.08029073 -0.08035763 -0.08042133 -0.08048076 -0.08053245 -0.0805761
 -0.08060747 -0.08062574 -0.08062271 -0.08059885 -0.08055096 -0.08048154 -0.08039512 -0.08029395 -0.08018261 -0.08006582
 -0.07994839 -0.07984133 -0.07975416 -0.07969764 -0.07968139 -0.07970745 -0.07978123 -0.0798914 -0.08003894 -0.08019914
 -0.08036975 -0.08052039 -0.08064817 -0.08072618 -0.08075252 -0.08071553 -0.0806163 -0.08047095 -0.08028312 -0.08008467
 -0.0798776 -0.07968621 -0.07951085 -0.07936418 -0.07924668 -0.0791662 -0.07911905 -0.0791067 -0.079117 -0.07914132
 -0.07916774 -0.07918421 -0.07919517 -0.07919726 -0.07920647 -0.07922775 -0.07926507 -0.07932169 -0.07938474 -0.07945334
 -0.07951607 -0.07957214 -0.07961577 -0.07964636 -0.07965302 -0.07963565 -0.07958536 -0.0795076 -0.07941724 -0.07932304
 -0.07925692 -0.07921879 -0.07922661 -0.07926728 -0.07933333 -0.07940938 -0.07947645 -0.07953698 -0.07958277 -0.07963532
 -0.07970263 -0.07979479 -0.07992163 -0.08005689 -0.08019986 -0.08031175 -0.08038709 -0.08041629 -0.08039839 -0.08033201
 -0.08021703 -0.08004651 -0.07982603 -0.07958861 -0.079345 -0.07915794 -0.07902841 -0.07899609 -0.07904359 -0.07916562
 -0.07932599 -0.07947586 -0.07959644 -0.07964551 -0.07964916 -0.07960961 -0.07955574 -0.07950313 -0.07945467 -0.07941645
 -0.07937377 -0.07932505 -0.0792575 -0.07916835 -0.07906329 -0.07894219 -0.07882635 -0.078717 -0.07863688 -0.07858595
 -0.07857668 -0.07860437 -0.0786596 -0.0787321 -0.0787878 -0.07882576 -0.07882337 -0.07879771 -0.07876345 -0.07872763
 -0.078707 -0.07868499 -0.07865777 -0.07860661 -0.078518 -0.07840256 -0.07825603 -0.07811374 -0.0779817 -0.07788297
 -0.07782285 -0.07779109 -0.07778802 -0.07777429 -0.07774791 -0.0776692 -0.07754221 -0.0773755 -0.07717842 -0.07699594
 -0.07682876 -0.07670185 -0.07661107 -0.07655989 -0.07654553 -0.07656916 -0.07661879 -0.0766904 -0.07675517 -0.07679556
 -0.07678983 -0.07672063 -0.07659639 -0.07641532 -0.07619111 -0.07592618 -0.07562752 -0.07529502 -0.07494614 -0.07458176
 -0.07422512 -0.07387737 -0.0735584 -0.07326951 -0.07303068 -0.07284103 -0.07271122 -0.07263181 -0.07258473 -0.07255768
 -0.07251715 -0.07246314 -0.07238189 -0.07227746 -0.07215443 -0.07199797 -0.07180068 -0.07155069 -0.07123239 -0.07087857
 -0.07049259 -0.0701149 -0.06975545 -0.06942578 -0.06912933 -0.06885936 -0.0686157 -0.06838978 -0.06818163 -0.06799323
 -0.06782562 -0.06769043 -0.06758367 -0.06750109 -0.06742474 -0.06730361 -0.06712405 -0.06682298 -0.06643397 -0.06596841
 -0.06547625 -0.0650124 -0.06458825 -0.06423187 -0.06392217 -0.06366017 -0.06341261 -0.06316931 -0.06291286 -0.06263585
 -0.06234837 -0.06205118 -0.06174944 -0.06144428 -0.06111126 -0.06074922 -0.06033296 -0.05986673 -0.05937023 -0.05885193
 -0.05836038 -0.05789614 -0.05748786 -0.05712651 -0.05681016 -0.05652596 -0.05625756 -0.05599261 -0.05571317 -0.05541631
 -0.05509282 -0.05475201 -0.05439717 -0.05402971 -0.05365413 -0.05325171 -0.05281851 -0.05234679 -0.05183116 -0.05131251
 -0.05079268 -0.05032574 -0.04991277 -0.04956365 -0.04927401 -0.04901478 -0.04878108 -0.04853595 -0.04827921 -0.04798899
 -0.04767337 -0.04733648 -0.04698836 -0.04664733 -0.04630976 -0.04598437 -0.04564757 -0.04528753 -0.0448852 -0.04442217
 -0.04391951 -0.04337459 -0.04283264 -0.04230265 -0.04181047 -0.04136198 -0.04095376 -0.04058653 -0.04023805 -0.03990698
 -0.03956744 -0.03921903 -0.03884654 -0.03845133 -0.03803084 -0.03758734 -0.03712453 -0.0366471 -0.03616401 -0.03568334
 -0.0352202 -0.03477765 -0.03436724 -0.03397792 -0.03360819 -0.03324082 -0.03286634 -0.03248053 -0.03207727 -0.03167168
 -0.0312653 -0.03087339 -0.03049965 -0.03013672 -0.0297849 -0.0294199 -0.02904103 -0.02863894 -0.02821633 -0.02779178
 -0.02736751 -0.02696555 -0.02658106 -0.02621274 -0.02585256 -0.02548283 -0.02510223 -0.02469865 -0.02428211 -0.02385586
 -0.02343441 -0.0230299 -0.02264483 -0.02228755 -0.02193921 -0.02159758 -0.02123904 -0.0208563 -0.02044934 -0.02001523
 -0.01957807 -0.01913927 -0.01872129 -0.01832477 -0.01795458 -0.01760967 -0.0172837 -0.01697545 -0.01667704 -0.01638627
 -0.0160935 -0.01579536 -0.01548007 -0.01514735 -0.01478928 -0.01441472 -0.01402676 -0.01364073 -0.01326871 -0.01291621
 -0.01259247 -0.01228263 -0.01198539 -0.01168155 -0.01136523 -0.01103627 -0.01069295 -0.01034759 -0.01000127 -0.009655084
 -0.009308772 -0.008951753 -0.008584497 -0.008205388 -0.007817944 -0.007437759 -0.007067421 -0.006724106 -0.006404726 -0.006112121
 -0.005840407 -0.005581205 -0.005334532 -0.005095791 -0.004871423 -0.004666305 -0.004478246 -0.004311621 -0.004146512 -0.003978808
 -0.003788456 -0.003568821 -0.003320088 -0.003040161 -0.002744454 -0.002433858 -0.002122585 -0.001811268 -0.001509189 -0.001215984
 -0.0009336505 -0.0006594723 -0.0003819778 -9.846737E-05 0.0002074376 0.0005310571 0.0008736269 0.001222534 0.001560693 0.001878899
 0.00215941 0.002406669 0.002615605 0.002801734 0.002970106 0.00313515 0.003303239 0.003478405 0.00366324 0.003854015
 0.004050555 0.004249614 0.004450791 0.004655229 0.004863039 0.005077652 0.005299225 0.005531256 0.005772644 0.006021556
 0.006273671 0.006515787 0.006742861 0.006935991 0.007098788 0.007224137 0.00732919 0.007425926 0.007534593 0.007674924
 0.00784983 0.0080709 0.008314263 0.008577877 0.008827736 0.009054985 0.009246359 0.009396599 0.00952315 0.009626672
 0.009728891 0.009830372 0.009927799 0.01001963 0.01008814 0.01013549 0.010161 0.01017205 0.01019091 0.01022282
 0.01029143 0.01039268 0.01053364 0.01070055 0.01088386 0.01106803 0.01123762 0.01139047 0.01151784 0.01163731
 0.01175202 0.01187928 0.01202709 0.01218209 0.01234656 0.01247907 0.01257632 0.01261063 0.01258151 0.01250874
 0.01239671 0.01229701 0.01221018 0.01216859 0.01216412 0.0121879 0.01223405 0.0122829 0.01234022 0.01240694
 0.01248647 0.01258833 0.01269587 0.01280302 0.01288801 0.0129342 0.01294801 0.01292251 0.01289306 0.0128657
 0.01286881 0.01290976 0.01298115 0.01308448 0.01318126 0.01326946 0.01330823 0.01329831 0.0132286 0.01310651
 0.01296164 0.01280326 0.01267748 0.01258488 0.01255226 0.01256737 0.01262671 0.01271043 0.01279843 0.01287288
 0.01291332 0.01291716 0.01287327 0.01280288 0.01270709 0.01261958 0.01254772 0.01251449 0.01252493 0.01258366
 0.01269169 0.01284684 0.01304885 0.01328952 0.01356593 0.01384815 0.0141291 0.01435619 0.01452598 0.01459471
 0.01457528 0.01446729 0.01430124 0.01411997 0.01395138 0.0138452 0.01379912 0.01383572 0.01391467 0.01402763
 0.01412173 0.01417682 0.01416391 0.01406827 0.01390571 0.01367259 0.01341997 0.01315124 0.01291543 0.01271473
 0.0125621 0.01245537 0.01237578 0.0123222 0.0122778 0.01224648 0.01223254 0.0122388 0.01227736 0.01233909
 0.01242097 0.01249909 0.01254984 0.01254897 0.01246805 0.01230736 0.0120525 0.01173814 0.01136854 0.0109904
 0.01061505 0.01027117 0.009965282 0.009704822 0.009491407 0.009321329 0.009194255 0.00909309 0.009015882 0.00893443
 0.008849366 0.008747298 0.008634445 0.008525496 0.008422272 0.00834044 0.008267474 0.008192766 0.008101016 0.007968104
 0.007797663 0.007578913 0.007338546 0.007083841 0.006847267 0.006642584 0.006484275 0.006382725 0.006315901 0.006285988
 0.006239433 0.006172005 0.006039813 0.005840902 0.005582277 0.005268101 0.004947308 0.004623024 0.004338812 0.00409094
 0.003890811 0.003731608 0.003604705 0.003503087 0.003414175 0.003328394 0.003231623 0.003115851 0.002968241 0.002794226
 0.002589965 0.002374438 0.002153108 0.00194051 0.001742856 0.001556549 0.001382592 0.0012102 0.001038057 0.0008663303
 0.0006950466 0.0005331953 0.0003804078 0.0002360418 9.766722E-05 -4.911583E-05 -0.000204874 -0.0003808561 -0.0005721492 -0.0007739383
 -0.0009800306 -0.001177719 -0.001366138 -0.001538307 -0.001699103 -0.001849525 -0.001995251 -0.002139195 -0.002285798 -0.002436731
 -0.00259669 -0.002767032 -0.002950813 -0.003149282 -0.003359049 -0.003580285 -0.003803915 -0.004029479 -0.00425155 -0.004470476
 -0.004689069 -0.004907614 -0.005129976 -0.005354329 -0.005576948 -0.005794997 -0.005999717 -0.006190717 -0.006361958 -0.006518604
 -0.006662593 -0.006802714 -0.006947604 -0.007098014 -0.00726123 -0.007417746 -0.007564175 -0.007676482 -0.007743404 -0.00777872
 -0.007777265 -0.007800659 -0.007853622 -0.007989988 -0.008212607 -0.008510376 -0.008878198 -0.009250534 -0.009622608 -0.009931717
 -0.0101822 -0.01035188 -0.01045622 -0.01051542 -0.01055255 -0.01061344 -0.01071138 -0.0108863 -0.01111765 -0.01141069
 -0.01171764 -0.01201318 -0.0122719 -0.0124714 -0.01263726 -0.01276962 -0.0129036 -0.01304876 -0.01319426 -0.01334202
 -0.01344729 -0.01350777 -0.01350657 -0.01344726 -0.0133698 -0.01328138 -0.01324586 -0.01326274 -0.01336822 -0.01354849
 -0.01379228 -0.01408039 -0.01437569 -0.01466998 -0.01493686 -0.01518434 -0.01541104 -0.01562255 -0.01582556 -0.01600753
 -0.01616535 -0.01628901 -0.01637055 -0.01643339 -0.01647766 -0.01654286 -0.01663435 -0.0167556 -0.01690702 -0.01704765
 -0.01717574 -0.01725603 -0.01729299 -0.01729436 -0.0172674 -0.01724304 -0.01722234 -0.01722421 -0.01724388 -0.0172814
 -0.0173337 -0.01739534 -0.01747057 -0.01755822 -0.01767137 -0.01781597 -0.01800375 -0.01824442 -0.01852593 -0.01885323
 -0.01918056 -0.01950346 -0.01977166 -0.01997792 -0.02011664 -0.02018704 -0.02024175 -0.02028476 -0.0203843 -0.02053816
 -0.02077173 -0.02107118 -0.02140249 -0.0217501 -0.02205727 -0.02232354 -0.02251766 -0.0226594 -0.02275652 -0.02283482
 -0.02291848 -0.02301922 -0.02315406 -0.02331017 -0.02349035 -0.02366529 -0.02382835 -0.023958 -0.0240466 -0.02410682
 -0.0241368 -0.02418238 -0.02424606 -0.02436369 -0.02453369 -0.02474199 -0.02498264 -0.02520917 -0.0254238 -0.02560629
 -0.02577065 -0.02594222 -0.0261279 -0.02635699 -0.0266128 -0.02689073 -0.02716534 -0.02741212 -0.02762407 -0.02778758
 -0.02791467 -0.02800736 -0.02807359 -0.02811677 -0.02813515 -0.02812767 -0.02810157 -0.02805585 -0.0280185 -0.02799102
 -0.0280087 -0.0280723 -0.02820043 -0.02838941 -0.02862806 -0.02890818 -0.02919477 -0.02947998 -0.02972641 -0.02993284
 -0.03007884 -0.03017102 -0.03020805 -0.03019992 -0.0301534 -0.03007816 -0.02998016 -0.02986924 -0.02974942 -0.02963082
 -0.02951686 -0.02941291 -0.02932149 -0.02923696 -0.02916001 -0.02907275 -0.02897427 -0.0288412 -0.02867284 -0.02845377
 -0.02818622 -0.02787502 -0.02752571 -0.02716091 -0.02678547 -0.02642335 -0.02607457 -0.02575049 -0.02544769 -0.02516636
 -0.02490369 -0.02465794 -0.02442553 -0.02420598 -0.02398953 -0.02377393 -0.02354535 -0.02329866 -0.02303123 -0.02273905
 -0.02244322 -0.02214422 -0.02187569 -0.02163978 -0.02145382 -0.02131685 -0.02121535 -0.0211467 -0.02108632 -0.0210353
 -0.02098503 -0.02093785 -0.02089814 -0.02086041 -0.02081892 -0.02076379 -0.02067775 -0.02056441 -0.0204159 -0.02025437
 -0.02008976 -0.01993977 -0.0198176 -0.01971448 -0.01963328 -0.01954983 -0.01946 -0.01934996 -0.01921664 -0.0190668
 -0.01890043 -0.01874114 -0.01859106 -0.01848662 -0.01843009 -0.01845701 -0.01856356 -0.01875811 -0.01902698 -0.01934164
 -0.01968729 -0.02002273 -0.02034716 -0.02063861 -0.02091524 -0.02118077 -0.02146421 -0.02178148 -0.02215777 -0.02260859
 -0.02313883 -0.02375778 -0.02443764 -0.02517928 -0.02592969 -0.02668425 -0.02739422 -0.02805608 -0.02865252 -0.02918436
 -0.02966546 -0.03009786 -0.03050241 -0.03087834 -0.03123353 -0.03156622 -0.03187418 -0.03216034 -0.03242711 -0.0326822
 -0.03293666 -0.03319364 -0.03346206 -0.03373395 -0.03400883 -0.0342737 -0.0345228 -0.03474985 -0.03495116 -0.0351291
 -0.03528342 -0.03541769 -0.03553265 -0.03562587 -0.03569737 -0.03573732 -0.03574556 -0.03571713 -0.03565529 -0.03557818
 -0.03549312 -0.03543948 -0.0354207 -0.03546897 -0.03557555 -0.03574222 -0.03595293 -0.03618872 -0.03643753 -0.03668244
 -0.03691835 -0.03713775 -0.03733929 -0.03752026 -0.03768305 -0.03782696 -0.03795885 -0.03807978 -0.03819473 -0.03830443
 -0.03841003 -0.03851137 -0.03862162 -0.03874281 -0.03891226 -0.03913271 -0.03944535 -0.03984429 -0.04033305 -0.04089331
 -0.04148016 -0.04207698 -0.04262907 -0.04314029 -0.04358941 -0.04399734 -0.04437539 -0.04473881 -0.04510239 -0.04546475
 -0.04582912 -0.04619018 -0.0465465 -0.04689737 -0.04724314 -0.0475791 -0.04790542 -0.04821072 -0.04849421 -0.04875065
 -0.04898039 -0.04919098 -0.0493833 -0.04956748 -0.04974322 -0.04991458 -0.05008072 -0.05024135 -0.05039624 -0.05054488
 -0.05068729 -0.05082294 -0.05095306 -0.05107769 -0.05120073 -0.05132436 -0.05145185 -0.05158662 -0.05172367 -0.05186389
 -0.05199425 -0.05211215 -0.05221061 -0.05228715 -0.05235394 -0.05241136 -0.05248111 -0.0525636 -0.05266521 -0.0527836
 -0.05290364 -0.05302425 -0.05313118 -0.05322909 -0.05332298 -0.05341818 -0.05352894 -0.05365248 -0.0537931 -0.05394089
 -0.05408907 -0.05422868 -0.05435212 -0.05445541 -0.0545344 -0.05459078 -0.05462232 -0.05464078 -0.05464612 -0.05466023
 -0.05468563 -0.05473797 -0.05481891 -0.05492166 -0.05504522 -0.05516757 -0.05528821 -0.05539254 -0.05548271 -0.05556015
 -0.05562665 -0.05568835 -0.05574445 -0.05579579 -0.0558426 -0.05588434 -0.05592484 -0.05596767 -0.05601441 -0.05606926
 -0.05612446 -0.05617865 -0.05622187 -0.05624904 -0.05626419 -0.05626508 -0.05627145 -0.05628534 -0.05632138 -0.05638117
 -0.05645729 -0.05654885 -0.0566356 -0.05671737 -0.05678266 -0.05683399 -0.05687567 -0.05691065 -0.05694998 -0.05699342
 -0.05704701 -0.05710585 -0.05716684 -0.05722342 -0.05726728 -0.05729843 -0.05731185 -0.05731856 -0.05732067 -0.05733236
 -0.05735883 -0.05740532 -0.05747482 -0.05756132 -0.05766506 -0.05777448 -0.05788895 -0.05799567 -0.05809415 -0.05817564
 -0.05824084 -0.05829082 -0.05832757 -0.05836039 -0.05839045 -0.05842623 -0.05846675 -0.05851432 -0.05856708 -0.05862365
 -0.05868212 -0.05874053 -0.0587969 -0.05884913 -0.05889721 -0.05893972 -0.05898101 -0.05902146 -0.05906747 -0.05912043
 -0.05918387 -0.0592588 -0.05934253 -0.05943511 -0.05952883 -0.05962315 -0.05970754 -0.05978149 -0.05983568 -0.05987108
 -0.05988565 -0.05988324 -0.05987283 -0.0598593 -0.0598569 -0.05986664 -0.05989727 -0.05994343 -0.06000379 -0.06007169
 -0.06014174 -0.06021258 -0.06028191 -0.06035171 -0.06042279 -0.06049354 -0.06056434 -0.06062999 -0.06068972 -0.06074136
 -0.06078452 -0.06082301 -0.06085705 -0.06089169 -0.06092653 -0.06096072 -0.060993 -0.06101669 -0.06103214 -0.06103544
 -0.06103121 -0.06102588 -0.06102524 -0.06104127 -0.06107296 -0.06112606 -0.06119029 -0.06126145 -0.06132911 -0.06138625
 -0.06143269 -0.0614656 -0.06149339 -0.06151707 -0.06154427 -0.06157636 -0.06161471 -0.06165964 -0.06170813 -0.06176003
 -0.06181265 -0.06186603 -0.06191945 -0.06197306 -0.06202717 -0.06208169 -0.06213663 -0.06219131 -0.0622447 -0.06229538
 -0.06234112 -0.06238061 -0.06241108 -0.06243444 -0.06244979 -0.06246357 -0.06247804 -0.06249939 -0.06253083 -0.0625716
 -0.06262293 -0.0626777 -0.06273522 -0.06278957 -0.06284013 -0.06288646 -0.06292862 -0.06296953 -0.0630092 -0.06304908
 -0.06308877 -0.0631272 -0.0631639 -0.06319673 -0.0632261 -0.0632514 -0.06327415 -0.06329578 -0.0633187 -0.06334566
 -0.06337824 -0.06341876 -0.06346613 -0.06352123 -0.06357951 -0.06364018 -0.06369794 -0.06375141 -0.0637982 -0.06383763
 -0.06387038 -0.06389648 -0.06391589 -0.06392864 -0.06393523 -0.06393629 -0.06393754 -0.06394006 -0.06395264 -0.06397426
 -0.06400721 -0.06404804 -0.06409036 -0.06413312 -0.06417106 -0.06420762 -0.06424499 -0.06428389 -0.0643275 -0.06436867
 -0.06440523 -0.0644304 -0.06443967 -0.06443875 -0.06442661 -0.06441817 -0.06441543 -0.0644275 -0.0644557 -0.06449549
 -0.06454646 -0.06459588 -0.06464315 -0.06467731 -0.06469917 -0.06470617 -0.06470084 -0.06468906 -0.06467365 -0.06466357
 -0.0646593 -0.06466587 -0.06468106 -0.06470484 -0.06473405 -0.0647665 -0.06480019 -0.06483375 -0.06486589 -0.06489611
 -0.06492297 -0.06494602 -0.06496478 -0.06497894 -0.06499007 -0.06499819 -0.06500602 -0.06501369 -0.06502298 -0.06503394
 -0.06504771 -0.06506454 -0.0650863 -0.065113 -0.06514592 -0.06518437 -0.0652275 -0.06527469 -0.06532478 -0.06537728
 -0.065432 -0.06548645 -0.06553953 -0.06558724 -0.06562689 -0.06565826 -0.06567988 -0.06569639 -0.06570856 -0.06571968
 -0.06573053 -0.06574055 -0.06574965 -0.06575892 -0.0657685 -0.0657836 -0.06580439 -0.06583478 -0.06587411 -0.06592136
 -0.06597531 -0.06603187 -0.06608975 -0.06614456 -0.06619507 -0.06623746 -0.06627183 -0.06629643 -0.06631324 -0.0663228
 -0.06632775 -0.06632936 -0.06632991 -0.06633023 -0.0663323 -0.06633677 -0.0663442 -0.06635492 -0.06636775 -0.06638268
 -0.06639752 -0.06641211 -0.06642412 -0.06643358 -0.06643928 -0.06644206 -0.06644516 -0.06645003 -0.06646356 -0.0664851
 -0.06651781 -0.06655737 -0.06659898 -0.06663845 -0.06666856 -0.06669072 -0.06670259 -0.06671028 -0.06671622 -0.06672455
 -0.06673796 -0.06675441 -0.06677421 -0.06679333 -0.06681097 -0.06682682 -0.06684069 -0.06685495 -0.06686965 -0.06688479
 -0.06690006 -0.06691243 -0.06692204 -0.06692767 -0.06693038 -0.06693299 -0.06693626 -0.06694338 -0.06695403 -0.06696945
 -0.0669882 -0.06700982 -0.06703141 -0.06705096 -0.06706587 -0.06707337 -0.06707612 -0.06707335 -0.06707259 -0.06707572
 -0.06708599 -0.06710507 -0.06712567 -0.06714752 -0.06716063 -0.06716462 -0.06715886 -0.0671443 -0.0671311 -0.0671201
 -0.06712171 -0.06713422 -0.0671585 -0.06719064 -0.06722253 -0.06725173 -0.06727022 -0.06727958 -0.06727775 -0.06726902
 -0.06725568 -0.06724149 -0.06722918 -0.06721961 -0.06721421 -0.06721011 -0.0672071 -0.06720137 -0.06719179 -0.06718057
 -0.06716749 -0.06716061 -0.06716034 -0.06717125 -0.06719282 -0.06722061 -0.06725412 -0.06728777 -0.06732294 -0.06736071
 -0.06740379 -0.06745825 -0.06752675 -0.0676156 -0.06772724 -0.06786662 -0.06803473 -0.06823445 -0.0684636 -0.06872197
 -0.06900706 -0.0693177 -0.0696537 -0.0700154 -0.07039985 -0.07080812 -0.07122537 -0.07165091 -0.07206538 -0.07246775
 -0.07284433 -0.07319345 -0.07349503 -0.07374325 -0.07389619 -0.07394909 -0.07386 -0.073637 -0.07326826 -0.07278682
 -0.07223002 -0.07164659 -0.07110377 -0.07062774 -0.07026233 -0.07000368 -0.06986275 -0.06982346 -0.0698864 -0.07002181
 -0.0702292 -0.07045092 -0.07068057 -0.07085842 -0.07097618 -0.07103594 -0.07103781 -0.07102427 -0.0709959 -0.07097191
 -0.07094985 -0.07092569 -0.07089812 -0.07086088 -0.0708137 -0.07075333 -0.07067896 -0.07058908 -0.07047982 -0.07034691
 -0.07018615 -0.06998959 -0.06976689 -0.06951579 -0.06926434 -0.06902137 -0.06880824 -0.06863447 -0.06849402 -0.06838892
 -0.06829788 -0.06821917 -0.06813735 -0.06805155 -0.06795699 -0.06785398 -0.06774449 -0.06762958 -0.0675156 -0.06740389
 -0.06730267 -0.06721175 -0.06713558 -0.06707136 -0.06701686 -0.06696893 -0.06692235 -0.06687811 -0.06683426 -0.06679581
 -0.06676582 -0.06674425 -0.06673402 -0.06672389 -0.06671237 -0.0666872 -0.06664506 -0.06658854 -0.06651681 -0.06644516
 -0.0663744 -0.06631608 -0.06627015 -0.0662387 -0.06622136 -0.06621745 -0.06622634 -0.06624666 -0.0662752 -0.06630468
 -0.06633082 -0.06634255 -0.06634039 -0.06631872 -0.06628538 -0.06624357 -0.06620267 -0.06616936 -0.06614569 -0.06613539
 -0.06613118 -0.06613275 -0.06612982 -0.06612039 -0.06610081 -0.06607008 -0.06603399 -0.06599282 -0.06595577 -0.065923
 -0.06589903 -0.06588293 -0.06587176 -0.06586406 -0.06585298 -0.06583834 -0.06581572 -0.06578705 -0.06575325 -0.06571655
 -0.06568005 -0.06564427 -0.0656106 -0.06557901 -0.06554954 -0.0655234 -0.06550112 -0.06548318 -0.06547029 -0.06545947
 -0.06545067 -0.06543874 -0.06542318 -0.06540061 -0.06537082 -0.06533501 -0.0652936 -0.06525219 -0.06521127 -0.06517681
 -0.06514846 -0.0651283 -0.06511528 -0.06510792 -0.06510568 -0.06510718 -0.06511175 -0.06511865 -0.06512579 -0.06513134
 -0.06513379 -0.06513138 -0.06512515 -0.06511501 -0.06510232 -0.06508752 -0.06507055 -0.06505127 -0.06503098 -0.06500967
 -0.06499045 -0.06497348 -0.06495805 -0.06494384 -0.06492586 -0.06490438 -0.06487801 -0.06484853 -0.06482192 -0.06479898
 -0.06478562 -0.06477913 -0.06477812 -0.06477883 -0.06477574 -0.06476853 -0.0647543 -0.06473651 -0.064716 -0.06469642
 -0.06467953 -0.06466664 -0.0646586 -0.06465486 -0.06465574 -0.06465866 -0.06466359 -0.06466564 -0.06466452 -0.06465564
 -0.06463908 -0.06461504 -0.06458435 -0.06455223 -0.06451931 -0.06449114 -0.06446687 -0.06444755 -0.06443134 -0.06441517
 -0.0643991 -0.06438103 -0.06436444 -0.06435143 -0.0643448 -0.06434827 -0.06435709 -0.0643718 -0.06438151 -0.06438327
 -0.06437127 -0.06434281 -0.06430519 -0.06425836 -0.06421562 -0.06417777 -0.06415015 -0.06413227 -0.06411788 -0.06410626
 -0.06408931 -0.0640684 -0.06404399 -0.06401856 -0.06399906 -0.06398538 -0.06398155 -0.06398386 -0.06398977 -0.06399558
 -0.06399709 -0.06399333 -0.06398243 -0.06396521 -0.06394129 -0.06391281 -0.06387976 -0.06384626 -0.06381277 -0.06378382
 -0.06376003 -0.06374282 -0.0637323 -0.06372638 -0.06372482 -0.06372388 -0.06372318 -0.0637183 -0.06370917 -0.06369258
 -0.06366993 -0.0636427 -0.06361312 -0.06358605 -0.0635619 -0.0635438 -0.06352938 -0.06351779 -0.0635068 -0.06349454
 -0.06348129 -0.06346656 -0.06345165 -0.06343713 -0.06342202 -0.06340659 -0.06338745 -0.06336423 -0.0633349 -0.06329925
 -0.06325979 -0.06321687 -0.06317644 -0.06313881 -0.06310902 -0.06308705 -0.06307559 -0.06307427 -0.06308411 -0.06310325
 -0.06312992 -0.06315999 -0.06318821 -0.06321064 -0.06322147 -0.06322152 -0.06320874 -0.0631883 -0.0631616 -0.06313301
 -0.06310422 -0.06307613 -0.06304902 -0.06302381 -0.06300034 -0.06298332 -0.06297304 -0.06297486 -0.06298865 -0.06301343
 -0.06304783 -0.06308246 -0.06311581 -0.06313642 -0.06314494 -0.06313639 -0.0631142 -0.06308144 -0.06304276 -0.06300498
 -0.06297117 -0.06294674 -0.06293104 -0.06292595 -0.06292726 -0.06293418 -0.06294169 -0.06294834 -0.06295085 -0.06294831
 -0.06293979 -0.06292497 -0.06290495 -0.06287974 -0.06285195 -0.06282172 -0.06279163 -0.06276179 -0.06273419 -0.06270897
 -0.06268781 -0.06267078 -0.06265902 -0.06265207 -0.06264989 -0.06265147 -0.0626558 -0.06266133 -0.06266662 -0.06267016
 -0.06267043 -0.06266761 -0.06266101 -0.06265293 -0.0626438 -0.0626357 -0.06262934 -0.06262369 -0.06261887 -0.06261158
 -0.06260162 -0.06258741 -0.06256909 -0.06254874 -0.06252672 -0.06250651 -0.06248803 -0.06247302 -0.06246053 -0.06244916
 -0.06243774 -0.06242332 -0.06240588 -0.06238374 -0.06235863 -0.06233102 -0.06230374 -0.06227841 -0.06225749 -0.0622428
 -0.06223376 -0.06223151 -0.06223014 -0.06222928 -0.06222086 -0.06220374 -0.06217509 -0.06213453 -0.06208705 -0.06203305
 -0.0619803 -0.06192903 -0.06188483 -0.0618472 -0.06181752 -0.06179455 -0.06177586 -0.06176035 -0.06174469 -0.06172881
 -0.06171113 -0.06169229 -0.06167234 -0.06165181 -0.06163085 -0.06161043 -0.06159103 -0.06157305 -0.06155736 -0.06154066
 -0.06152275 -0.06149921 -0.06146912 -0.06143427 -0.0613946 -0.06135814 -0.06132517 -0.06130058 -0.0612836 -0.06127093
 -0.06126159 -0.06124951 -0.06123504 -0.06121582 -0.06119311 -0.06116833 -0.06114197 -0.0611155 -0.06108826 -0.06106017
 -0.06103072 -0.06099938 -0.06096652 -0.06093234 -0.06089648 -0.06085919 -0.06081851 -0.06077394 -0.06072523 -0.06067195
 -0.06061802 -0.06056362 -0.06051424 -0.06047008 -0.06043451 -0.06040748 -0.06039041 -0.06038285 -0.06038449 -0.06039352
 -0.06040561 -0.06041769 -0.06042215 -0.0604169 -0.06039543 -0.06035915 -0.06030558 -0.06024131 -0.0601683 -0.0600963
 -0.06003009 -0.05997461 -0.05993345 -0.05990204 -0.05988079 -0.05986063 -0.0598404 -0.05981566 -0.05978591 -0.05975262
 -0.05971591 -0.05967801 -0.0596389 -0.05959934 -0.05955924 -0.05951857 -0.05947732 -0.05943512 -0.05939267 -0.05935078
 -0.05931087 -0.05927569 -0.05924452 -0.05921891 -0.05919377 -0.05916661 -0.05913294 -0.05908914 -0.0590376 -0.0589774
 -0.0589158 -0.0588542 -0.05879652 -0.05874379 -0.05869362 -0.05864596 -0.05859672 -0.0585459 -0.05849455 -0.05844344
 -0.05839948 -0.05836264 -0.05833783 -0.05832178 -0.05830894 -0.05829413 -0.05826372 -0.05821787 -0.0581485 -0.05806542
 -0.05797392 -0.05788442 -0.05780634 -0.05774066 -0.05769194 -0.05765083 -0.0576163 -0.05757682 -0.05752928 -0.05747128
 -0.05740128 -0.05732809 -0.05725208 -0.05718493 -0.057127 -0.05708363 -0.0570538 -0.0570327 -0.0570178 -0.05699547
 -0.0569643 -0.05691161 -0.05684175 -0.05675602 -0.05666154 -0.05656927 -0.05648121 -0.05640365 -0.05633456 -0.05627454
 -0.05622115 -0.05617388 -0.05612925 -0.05608673 -0.05604108 -0.0559912 -0.05593375 -0.05586796 -0.05579433 -0.05571281
 -0.05562517 -0.05553163 -0.0554364 -0.05534016 -0.0552508 -0.05516822 -0.05509716 -0.05503513 -0.05497779 -0.05492217
 -0.05485994 -0.05479094 -0.05471057 -0.05462225 -0.05452701 -0.05442949 -0.05433333 -0.05424004 -0.05415219 -0.05406561
 -0.05397991 -0.05388992 -0.05379371 -0.05369363 -0.05358905 -0.05348941 -0.05339541 -0.05331246 -0.05324045 -0.05317348
 -0.0531101 -0.05303558 -0.05294891 -0.05283616 -0.05270088 -0.05254471 -0.05237461 -0.05220602 -0.05204083 -0.05188964
 -0.05174722 -0.05161272 -0.05148029 -0.05134476 -0.05120651 -0.05106351 -0.05092105 -0.05078068 -0.05064472 -0.05051528
 -0.05038447 -0.05025268 -0.0501017 -0.04992996 -0.04973008 -0.04950261 -0.04927113 -0.04903752 -0.04882991 -0.04864561
 -0.04848804 -0.04835149 -0.04822127 -0.04809343 -0.04795218 -0.04779898 -0.04762731 -0.04744546 -0.04725831 -0.04707467
 -0.04690433 -0.04674316 -0.04659611 -0.04643991 -0.04626911 -0.04606351 -0.04581447 -0.04553465 -0.04522324 -0.04490601
 -0.04458528 -0.0442667 -0.04395043 -0.04363437 -0.04331909 -0.04301079 -0.04270785 -0.04240891 -0.0421061 -0.04177544
 -0.04141094 -0.04098372 -0.04050658 -0.0399815 -0.0394317 -0.0388832 -0.03834205 -0.03782146 -0.03731611 -0.03682562
 -0.03634927 -0.03588697 -0.03543799 -0.03500544 -0.03456843 -0.03412795 -0.03363433 -0.0330833 -0.03244872 -0.03173156
 -0.0309956 -0.03024491 -0.02954752 -0.02889386 -0.02827347 -0.02767634 -0.0270652 -0.02644074 -0.02578667 -0.02510698
 -0.02440486 -0.02367101 -0.02290508 -0.02207513 -0.02116166 -0.02013569 -0.01896616 -0.01769104 -0.01630264 -0.01490015
 -0.01350445 -0.01217311 -0.01092037 -0.009738472 -0.008629175 -0.007556299 -0.006517148 -0.005448161 -0.004342784 -0.003105725
 -0.001746705 -0.0002445617 0.001351103 0.002889505 0.004359146 0.005646753 0.006807229 0.007873334 0.008887039 0.009907906
 0.01093958 0.0120029 0.01308989 0.01420009 0.01533304 0.01649277 0.01765797 0.0188273 0.01996838 0.02107412
 0.02214995 0.02319584 0.02421893 0.02521833 0.02614532 0.02699761 0.02772753 0.02834681 0.02888424 0.02936001
 0.02985658 0.03037263 0.03095765 0.03156927 0.03216017 0.03271755 0.03319933 0.03364249 0.03406679 0.03447756
 0.03489127 0.03527007 0.03560442 0.03586983 0.03605657 0.03616976 0.036208 0.03618502 0.03610117 0.03597949
 0.03582137 0.03565857 0.03549087 0.03532936 0.03517051 0.03500156 0.03482181 0.03461958 0.03440269 0.03417926
 0.03396327 0.03377997 0.03363432 0.03354197 0.03349887 0.03350385 0.03356313 0.03367857 0.0338582 0.03410966
 0.03441483 0.03477251 0.03515886 0.03556818 0.03600658 0.03647364 0.03698578 0.03754344 0.03814181 0.03877931
 0.03943729 0.04011597 0.04080675 0.04151108 0.04222973 0.04296224 0.04370813 0.04446627 0.04523501 0.04601293
 0.04679795 0.04758942 0.04838513 0.04918895 0.05000174 0.05082845 0.05167214 0.05252993 0.0534034 0.05427958
 0.05515813 0.05601816 0.056858 0.0576601 0.05842395 0.05915852 0.05986637 0.06058114 0.06129888 0.06202184
 0.06273375 0.06337958 0.06395674 0.06442831 0.06481078 0.06511569 0.06534953 0.06552582 0.06563905 0.06568965
 0.06567152 0.06558877 0.06540974 0.06513623 0.06468908 0.06404513 0.06318274 0.06207666 0.06090073 0.0596688
 0.05848921 0.0573657 0.05622142 0.05505313 0.05379882 0.0524662 0.05106586 0.04960261 0.04810688 0.04655677
 0.04493186 0.04317999 0.04119405 0.03899635 0.03651183 0.03395837 0.03148175 0.02919614 0.02724289 0.02547526
 0.02387184 0.02231561 0.02076183 0.01923176 0.01771923 0.01628388 0.01493316 0.0136575 0.01245608 0.0112694
 0.01009683 0.008908502 0.007712854 0.006539362 0.005395945 0.004328507 0.003329003 0.00240538 0.001539199 0.0007054759
 -0.0001081372 -0.0009233193 -0.001748044 -0.002589864 -0.003468996 -0.004397828 -0.005388381 -0.006467043 -0.007544907 -0.008616609
 -0.009548414 -0.01030624 -0.01092584 -0.01140294 -0.0118545 -0.01228605 -0.01275471 -0.01325701 -0.01377207 -0.01429432
 -0.01477953 -0.01523381 -0.01565554 -0.01605054 -0.01643745 -0.01680219 -0.01713388 -0.01741209 -0.01760488 -0.01771845
 -0.01774338 -0.01770223 -0.01760643 -0.01746241 -0.01727775 -0.01704043 -0.01675111 -0.01638787 -0.01594924 -0.01540462
 -0.01475009 -0.01397801 -0.01308848 -0.01215904 -0.01119601 -0.01030242 -0.009471867 -0.008721896 -0.008040901 -0.007395649
 -0.006787718 -0.006204765 -0.005651341 -0.005136595 -0.004642746 -0.00415961 -0.003655186 -0.003091578 -0.0024864 -0.001824325
 -0.001182237 -0.0005914962 -6.879109E-05 0.0003675801 0.0007687608 0.001139963 0.001520669 0.001916432 0.002327561 0.002754193
 0.003175892 0.003592617 0.003996539 0.004391456 0.004793063 0.005207973 0.005667091 0.006174045 0.006756058 0.007403724
 0.008116133 0.008878505 0.009671494 0.010494 0.01133941 0.01220851 0.01310467 0.01401093 0.01492403 0.01582228
 0.01669763 0.01755037 0.01837791 0.01919699 0.02001017 0.02081161 0.02160094 0.02232588 0.02298352 0.02352067
 0.02394111 0.02423931 0.02442118 0.0245056 0.02449231 0.02439043 0.02419639 0.0239072 0.02352348 0.02304324
 0.02247226 0.0218146 0.0210735 0.02025334 0.01934913 0.01836015 0.01728111 0.01610663 0.01485603 0.01352708
 0.0121723 0.01079634 0.009438222 0.008100245 0.006772771 0.005454582 0.004123989 0.002785894 0.001456122 0.0001447499
 -0.001101476 -0.002283087 -0.003373951 -0.004389521 -0.00534212 -0.006247734 -0.007130583 -0.007995315 -0.008856507 -0.009703001
 -0.01053606 -0.01133283 -0.01208579 -0.01277729 -0.01339893 -0.01395658 -0.01444754 -0.01489816 -0.0153105 -0.01570721
 -0.01608967 -0.01645492 -0.01680158 -0.01710899 -0.01737778 -0.01760009 -0.01778055 -0.01793209 -0.01805691 -0.01816719
 -0.01826156 -0.01834228 -0.01841005 -0.01846511 -0.01851251 -0.01855547 -0.01860025 -0.01865059 -0.01871181 -0.01878696
 -0.01887755 -0.01898591 -0.01910433 -0.01923339 -0.01935531 -0.0194686 -0.01955741 -0.01962071 -0.01966018 -0.01967683
 -0.01968604 -0.01968779 -0.01969062 -0.01969172 -0.01968477 -0.01966876 -0.01963599 -0.01959208 -0.01954211 -0.01949311
 -0.01945731 -0.01943225 -0.01942236 -0.01941613 -0.01940836 -0.01939137 -0.01935987 -0.0193159 -0.01925902 -0.01919196
 -0.01911583 -0.01902666 -0.01892433 -0.01880335 -0.01866338 -0.01850448 -0.018327 -0.01813577 -0.01793134 -0.0177189
 -0.01749999 -0.0172812 -0.01706778 -0.01687369 -0.01670786 -0.01659117 -0.01652989 -0.01654134 -0.01662178 -0.01677634
 -0.01699184 -0.01726443 -0.0175769 -0.01792386 -0.01828617 -0.01865953 -0.01902393 -0.01937559 -0.01970126 -0.01999872
 -0.02026736 -0.02050698 -0.02072404 -0.02091872 -0.02109466 -0.02125162 -0.02138927 -0.02150837 -0.02161101 -0.0216992
 -0.02177937 -0.02185183 -0.02192124 -0.02198387 -0.02203768 -0.02207811 -0.02209968 -0.02210349 -0.02208725 -0.02205802
 -0.02201793 -0.02197241 -0.02192419 -0.02187093 -0.02181306 -0.02174479 -0.02166521 -0.02157464 -0.02147295 -0.02137056
 -0.02126815 -0.02117808 -0.02109984 -0.0210367 -0.02098679 -0.02094448 -0.02090916 -0.02087612 -0.02084662 -0.02082138
 -0.02079956 -0.02078168 -0.0207631 -0.02074002 -0.02070978 -0.02066825 -0.02062044 -0.02056615 -0.02051496 -0.02046943
 -0.02043529 -0.02041444 -0.02040581 -0.02040956 -0.02042324 -0.02044666 -0.02048141 -0.02052764 -0.0205881 -0.02066237
 -0.02074914 -0.02084752 -0.02095326 -0.02106603 -0.02118286 -0.02130393 -0.02142837 -0.02155601 -0.02168647 -0.02181911
 -0.02195409 -0.02208822 -0.02222109 -0.02234529 -0.02245805 -0.0225535 -0.02262854 -0.0226857 -0.02272414 -0.02275265
 -0.02277205 -0.0227887 -0.02280307 -0.02281618 -0.02282788 -0.02283548 -0.0228386 -0.02283333 -0.02281974 -0.02279574
 -0.02276216 -0.02272059 -0.02267024 -0.02261128 -0.02254044 -0.02245379 -0.02234892 -0.02222173 -0.02207358 -0.02190376
 -0.02171525 -0.02150881 -0.02128763 -0.02105236 -0.02080686 -0.02055196 -0.0202896 -0.02002019 -0.01974315 -0.01945842
 -0.01916747 -0.01887052 -0.01857176 -0.01827089 -0.01796829 -0.01766255 -0.01734809 -0.0170243 -0.01668603 -0.01633519
 -0.01597227 -0.01560055 -0.01522432 -0.01484567 -0.01446815 -0.01409139 -0.01371571 -0.01334194 -0.01296884 -0.01260418
 -0.01224897 -0.01191329 -0.01159983 -0.01130948 -0.01104326 -0.01079317 -0.01055881 -0.01033185 -0.01011175 -0.009889496
 -0.009664152 -0.009423941 -0.009169558 -0.008896749 -0.00860835 -0.008311082 -0.008003402 -0.007687618 -0.007356156 -0.006999101
 -0.006615181 -0.006195636 -0.005755434 -0.00529793 -0.004845859 -0.004409357 -0.004002011 -0.003631751 -0.003293061 -0.002988489
 -0.002695161 -0.002411382 -0.002113587 -0.001799931 -0.001464908 -0.001109043 -0.0007436617 -0.0003693771 3.996437E-06 0.0003772931
 0.0007493098 0.001119838 0.001488639 0.001852919 0.0022084 0.002550503 0.002871185 0.003169337 0.003437866 0.003688386
 0.003922361 0.004161723 0.00441639 0.004697873 0.005013725 0.005355731 0.005724004 0.006107607 0.006504787 0.006914766
 0.007337325 0.007775328 0.008228787 0.008697831 0.009182099 0.009679837 0.01018939 0.01070435 0.01122055 0.01172493
 0.01221135 0.01266389 0.01307549 0.01343085 0.01372606 0.01395001 0.01411006 0.0142044 0.01425129 0.01425664
 0.01423801 0.01420104 0.01415797 0.01411139 0.01407203 0.01404168 0.01402411 0.01401995 0.01402006 0.0140239
 0.01402094 0.01401204 0.01399846 0.01398239 0.01397351 0.01397323 0.01399075 0.01402501 0.01408046 0.01414963
 0.01422704 0.01429989 0.01435407 0.01438417 0.01438006 0.01435096 0.01429752 0.01423123 0.01415679 0.01407455
 0.0139866 0.01388285 0.01376297 0.01361224 0.01342958 0.01320595 0.01294173 0.01264663 0.0123229 0.01199316
 0.01165681 0.01132507 0.01099222 0.01064893 0.01028898 0.009896023 0.009467693 0.008992901 0.008475615 0.007912838
 0.007317675 0.006695631 0.006062337 0.005426518 0.004793854 0.00416823 0.003548334 0.00293388 0.002327796 0.001730525
 0.001143328 0.0005666442 -1.019338E-05 -0.0005878071 -0.001178853 -0.001782789 -0.002401315 -0.003032842 -0.003671578 -0.004316307
 -0.004961239 -0.005604734 -0.006241341 -0.006869251 -0.007484117 -0.008084293 -0.00866737 -0.009230693 -0.009771032 -0.01029013
 -0.01078532 -0.01126975 -0.01174575 -0.01222811 -0.0127219 -0.01322378 -0.01373563 -0.01423507 -0.01472083 -0.01517086
 -0.01558458 -0.01595467 -0.01628248 -0.01657545 -0.01683509 -0.01707283 -0.01728732 -0.01748105 -0.01765097 -0.01779061
 -0.01790259 -0.01798544 -0.01804889 -0.01810144 -0.01814988 -0.01820261 -0.01825678 -0.01831359 -0.0183677 -0.018417
 -0.01846159 -0.01850029 -0.01853971 -0.01858023 -0.0186302 -0.01869044 -0.01876107 -0.01884168 -0.01891973 -0.01899465
 -0.01905509 -0.01910298 -0.01914094 -0.01917093 -0.01920098 -0.01922925 -0.019256 -0.01927882 -0.01929439 -0.01930153
 -0.01929932 -0.0192828 -0.0192493 -0.01919277 -0.01910781 -0.01899984 -0.0188669 -0.01872678 -0.01858209 -0.01844921
 -0.01833107 -0.01823201 -0.01815293 -0.01808571 -0.01802971 -0.01796992 -0.01790624 -0.01783021 -0.01774459 -0.01765693
 -0.01757063 -0.01750052 -0.01744546 -0.01741209 -0.0173932 -0.01738323 -0.01737204 -0.01734808 -0.01730502 -0.01723305
 -0.01713813 -0.01701831 -0.01688881 -0.01675464 -0.01662213 -0.01649513 -0.01636416 -0.01622848 -0.01608011 -0.01591806
 -0.01574695 -0.01556698 -0.0153827 -0.01519347 -0.01499456 -0.0147864 -0.01456698 -0.01434035 -0.01411718 -0.01390106
 -0.01370628 -0.01352875 -0.01337122 -0.0132221 -0.01307112 -0.01291063 -0.01272966 -0.01253535 -0.01232633 -0.01211747
 -0.01191368 -0.01172161 -0.01154391 -0.0113799 -0.01122912 -0.01109755 -0.01098544 -0.01090279 -0.01084983 -0.01082575
 -0.01082922 -0.01084816 -0.01088134 -0.01091734 -0.01095507 -0.01098637 -0.01100858 -0.01101258 -0.01099656 -0.01095285
 -0.01088491 -0.01079169 -0.01068204 -0.01056089 -0.01043677 -0.01031567 -0.01019873 -0.01008904 -0.00997838 -0.009866005
 -0.009742728 -0.009606654 -0.009457808 -0.009295731 -0.009129078 -0.008958225 -0.008789513 -0.008622519 -0.008455612 -0.008288639
 -0.008119025 -0.007949103 -0.007784269 -0.007627276 -0.007487469 -0.007363124 -0.007256972 -0.00716316 -0.007076901 -0.00699403
 -0.00691064 -0.006823543 -0.006731724 -0.006627842 -0.006509455 -0.006371237 -0.006209571 -0.006034947 -0.005846643 -0.005669285
 -0.005504725 -0.005371478 -0.005270003 -0.005197094 -0.005150175 -0.005104881 -0.005057784 -0.004978401 -0.004867748 -0.004710427
 -0.004515219 -0.004291424 -0.004049898 -0.003811365 -0.003578525 -0.003363878 -0.003159279 -0.002963857 -0.002767084 -0.002562061
 -0.002349236 -0.002124153 -0.001904487 -0.00169216 -0.00150737 -0.001354417 -0.001233553 -0.001145947 -0.001072026 -0.001010847
 -0.0009454107 -0.0008760298 -0.0007992093 -0.0007158106 -0.0006282354 -0.0005365792 -0.0004425248 -0.0003453591 -0.0002450764 -0.0001392564
 -2.435482E-05 0.000101219 0.0002416076 0.000393391 0.0005560548 0.0007246119 0.0008963271 0.001069177 0.001242643 0.001412631
 0.001579002 0.001733762 0.001875666 0.002000609 0.002107917 0.0022002 0.002277666 0.002346414 0.002407528 0.002473545
 0.002546044 0.002641046 0.002756305 0.002894989 0.003050109 0.003208687 0.003365131 0.003505386 0.003627898 0.003725302
 0.00380015 0.003849287 0.003885036 0.003910305 0.003942846 0.003990533 0.004057156 0.004146814 0.004247415 0.004357837
 0.004468757 0.004579197 0.004685806 0.004788382 0.004883277 0.004971358 0.005059323 0.005149506 0.005259503 0.005386467
 0.005532392 0.005689341 0.005839418 0.005982157 0.006106791 0.006222113 0.006333581 0.006447168 0.006569701 0.006700973
 0.006842978 0.006992874 0.007150167 0.007312182 0.007476647 0.007651804 0.007837407 0.008051007 0.008294914 0.008565283
 0.008861549 0.009151821 0.009435302 0.009691247 0.009922824 0.01013719 0.01033455 0.01052012 0.01069043 0.01083823
 0.01096671 0.01107711 0.01117398 0.0112661 0.01134471 0.0114071 0.01144313 0.01144268 0.01141771 0.0113662
 0.01131697 0.01127502 0.01126666 0.01129685 0.01137764 0.01151165 0.01168426 0.01189449 0.01210668 0.01232
 0.01251299 0.01268755 0.01284426 0.01298167 0.01309503 0.01318276 0.01323528 0.01326204 0.01327182 0.01327652
 0.01329203 0.01332505 0.01337991 0.01347802 0.01362818 0.01385659 0.01418825 0.01456976 0.01500259 0.01538519
 0.0156952 0.01593691 0.0161068 0.01625374 0.01637969 0.01648648 0.01657242 0.01661673 0.01662233 0.01659353
 0.01653659 0.01647484 0.01641101 0.01636302 0.0163294 0.01631871 0.01631965 0.01632554 0.01632078 0.01628773
 0.01623155 0.01614656 0.01605444 0.01596299 0.01587971 0.01580805 0.01574813 0.01569911 0.01567298 0.01567149
 0.01569145 0.01573246 0.01575842 0.01576808 0.01573452 0.01566077 0.01555183 0.01540687 0.01522669 0.01500634
 0.014728 0.01440659 0.01404714 0.01369258 0.01338927 0.01317199 0.01308861 0.01312962 0.01331548 0.01358035
 0.01391569 0.01422658 0.01448639 0.0146518 0.01470376 0.01469944 0.01463983 0.01461282 0.01462288 0.01470711
 0.01486406 0.01509027 0.01537974 0.0157027 0.01604575 0.01634558 0.01659855 0.01675737 0.01684514 0.01687557
 0.01687405 0.01687853 0.01688815 0.01691742 0.01694946 0.01697839 0.01699449 0.01698961 0.01697464 0.01694594
 0.01694144 0.01696542 0.01705413 0.01721373 0.01742785 0.01769567 0.01796092 0.01822215 0.01844672 0.01863585
 0.01878217 0.01888215 0.01891659 0.01888836 0.01878752 0.01863606 0.01846437 0.01828935 0.01814557 0.018027
 0.01793809 0.01787691 0.01784007 0.0178402 0.01788483 0.01796549 0.01808646 0.01821045 0.01833316 0.01842136
 0.0184709 0.01847057 0.01841963 0.01832829 0.01819828 0.0180541 0.01789664 0.01774332 0.0175936 0.01745329
 0.0173249 0.01721997 0.01713324 0.01706817 0.01700022 0.01690133 0.01676027 0.01654782 0.01630087 0.01602824
 0.01577085 0.01555355 0.01536236 0.01520147 0.01503613 0.01485834 0.01467105 0.01447287 0.01428487 0.01410814
 0.01393321 0.01375733 0.01354112 0.01328369 0.01295378 0.01256457 0.01213777 0.01170396 0.01134932 0.01108424
 0.01098124 0.01098881 0.01108406 0.01119991 0.01126588 0.01127881 0.01120915 0.01110326 0.01097314 0.01084731
 0.01073669 0.01064602 0.01057688 0.01053581 0.01052398 0.01053905 0.01058093</values></Ydata></AB><ScSm><Ydata ylabel="Single channel"><values byteorder="INTEL" format="FLOAT32" numvalues="1814"> 0.07304759 0.07304792 0.07311571 0.07327786 0.07350549 0.0737288 0.07388415 0.07395551 0.07396425 0.0739276
 0.07385968 0.07381342 0.07387143 0.07406498 0.0743213 0.07450993 0.07454699 0.07447198 0.07442467 0.07450754
 0.07464622 0.07461868 0.07426625 0.07367572 0.07311791 0.07279831 0.07273433 0.07291945 0.07345036 0.07426724
 0.07487166 0.0746861 0.07377792 0.07288979 0.07261585 0.07283398 0.07304981 0.07296634 0.07257769 0.07206412
 0.07184315 0.07245126 0.07401559 0.07582688 0.0766005 0.07528777 0.07182224 0.06735403 0.06382658 0.06293641
 0.06493717 0.06829529 0.07083964 0.07149369 0.07079259 0.06978652 0.06891295 0.06812944 0.06763835 0.06792451
 0.0690822 0.07036469 0.07056879 0.0690608 0.06653203 0.06451166 0.06397289 0.06472081 0.06621021 0.06814022
 0.06962271 0.0687082 0.06430475 0.05860588 0.05611074 0.05934623 0.06617144 0.07187431 0.07336257 0.07089123
 0.06669313 0.06312943 0.06180365 0.06312788 0.06624353 0.06973571 0.07249174 0.07375619 0.07294597 0.07015543
 0.06664676 0.06423598 0.06417936 0.06668498 0.07086854 0.07482876 0.07651126 0.07522778 0.07211456 0.06893022
 0.06689698 0.06670283 0.06867345 0.07243045 0.07687223 0.08081231 0.08346426 0.08452199 0.0842222 0.08319224
 0.08197071 0.08092526 0.08059516 0.08135647 0.08253418 0.08265594 0.08105526 0.07875901 0.07742891 0.07764579
 0.07844999 0.0785145 0.07748784 0.07578154 0.07326353 0.06923795 0.06404385 0.05947562 0.05699158 0.05660338
 0.05794495 0.0608479 0.0640918 0.06532413 0.06363603 0.06121038 0.06115593 0.06418924 0.06826317 0.0710642
 0.07215337 0.07280737 0.07437148 0.07688153 0.07889419 0.07858034 0.07554452 0.07184218 0.0705277 0.07265615
 0.07626482 0.07877798 0.07971711 0.08041877 0.08170141 0.08260348 0.0813895 0.07761569 0.07324427 0.07143287
 0.07378208 0.07872976 0.08268455 0.08268565 0.07839531 0.07217064 0.06722566 0.06541019 0.06671453 0.07049103
 0.07616773 0.08260739 0.08781432 0.09005231 0.08911146 0.08620614 0.08258621 0.07838039 0.0732653 0.06839484
 0.06662564 0.06981419 0.07644298 0.08288836 0.08665295 0.08760767 0.08657883 0.08380368 0.07916605 0.07369059
 0.07003137 0.07040717 0.07392532 0.07708974 0.07746329 0.07589056 0.07469299 0.07477762 0.07530269 0.07545839
 0.07561721 0.07669255 0.07883263 0.08107252 0.08227079 0.08214922 0.08133976 0.08064337 0.08030085 0.07982023
 0.07866841 0.07733682 0.07728438 0.07934495 0.08258462 0.08526208 0.08657471 0.08695099 0.0868916 0.08608533
 0.08386482 0.080472 0.07756926 0.07700847 0.07904351 0.08217396 0.08470519 0.08596396 0.0861382 0.08566821
 0.08494896 0.08420044 0.08352838 0.08319913 0.08357561 0.08459997 0.08567275 0.08625258 0.08630186 0.0860213
 0.08546162 0.08459359 0.0835851 0.08281776 0.08261567 0.08299887 0.08371688 0.08447271 0.08503734 0.08521989
 0.08493304 0.08432679 0.08369519 0.0832112 0.08287786 0.08271889 0.08283019 0.08320242 0.08364169 0.08393535
 0.08401725 0.08393811 0.08375211 0.08348197 0.08315589 0.08284204 0.08264482 0.08264098 0.08279066 0.08295553
 0.08305427 0.0831444 0.08328369 0.08338086 0.08328804 0.08300589 0.08270065 0.08252839 0.08250889 0.0825599
 0.08258273 0.08248907 0.08220193 0.08172083 0.08120578 0.08091588 0.08100279 0.08140059 0.08193034 0.08243401
 0.08279505 0.08294804 0.08292921 0.08284244 0.08273573 0.082566 0.08230241 0.08201876 0.08186556 0.08195543
 0.08226301 0.08264039 0.082941 0.08311033 0.08316735 0.08316711 0.08318995 0.08328344 0.08338821 0.08339263
 0.08328116 0.08316728 0.08316015 0.08324296 0.08330218 0.08325855 0.08315539 0.08311126 0.08319089 0.08334724
 0.08349466 0.08360563 0.08371805 0.08386433 0.08400674 0.08405229 0.08395147 0.08377174 0.08363342 0.08358295
 0.08358065 0.08360475 0.08369428 0.08386858 0.08406102 0.08417441 0.08418512 0.08416174 0.08417658 0.08421974
 0.08421953 0.08413558 0.08400497 0.08389911 0.0838615 0.08388863 0.08394468 0.08398456 0.0839772 0.0839202
 0.08383394 0.08374071 0.08365004 0.08356966 0.08353053 0.08358078 0.08372764 0.08388941 0.08393924 0.08381858
 0.08359846 0.08341356 0.08333525 0.08331818 0.08326768 0.0831415 0.08297409 0.08282007 0.08270213 0.08261201
 0.08253464 0.08246234 0.08240663 0.08240588 0.08249639 0.08265418 0.08278332 0.08279376 0.08268872 0.08255538
 0.08247583 0.08246672 0.0824945 0.0825231 0.08255005 0.08260821 0.08271943 0.08284417 0.08290941 0.0828976
 0.08287348 0.08291321 0.08304186 0.08324102 0.08346732 0.0836536 0.08374439 0.08375593 0.0837682 0.08384056
 0.08396114 0.08408815 0.08420946 0.08434175 0.08449419 0.08466134 0.08484775 0.08507717 0.08536709 0.08569734
 0.0860098 0.08624738 0.08640631 0.08655287 0.08677645 0.08711478 0.08752365 0.08791772 0.08823951 0.08849534
 0.08873337 0.08898911 0.08925881 0.08953176 0.08983023 0.09019002 0.09060732 0.09103484 0.09143263 0.09179964
 0.09215449 0.09250942 0.09287019 0.09324719 0.09365627 0.09410401 0.09456745 0.09499475 0.09534197 0.09561503
 0.09587 0.09617323 0.09655659 0.09699076 0.09739375 0.09769191 0.09789579 0.09809792 0.09837388 0.09870427
 0.09902205 0.09931663 0.09964763 0.1000551 0.1004966 0.1008927 0.1012119 0.101493 0.1017914 0.1021164
 0.1024197 0.1026462 0.1027953 0.1029238 0.1030872 0.1033016 0.1035704 0.103914 0.1043359 0.104782
 0.1051728 0.1054706 0.1056925 0.1058732 0.1060416 0.1062169 0.1063997 0.1065765 0.1067451 0.1069143
 0.1070736 0.1071988 0.1073028 0.1074429 0.1076571 0.1079279 0.1082277 0.108563 0.1089409 0.1093262
 0.1096782 0.1100176 0.1104049 0.1108418 0.1112406 0.1115182 0.1116838 0.1118062 0.1119301 0.1120708
 0.1122609 0.1125438 0.1129179 0.1133314 0.1137367 0.1141243 0.114503 0.1148694 0.1152033 0.1154787
 0.1156798 0.115816 0.1159236 0.116053 0.1162463 0.116515 0.1168258 0.1171193 0.1173503 0.1175018
 0.1175621 0.1175201 0.1174055 0.1173018 0.1172763 0.1172983 0.1172557 0.1170532 0.1166725 0.1161425
 0.1154872 0.114721 0.1138806 0.1130427 0.1123027 0.1117368 0.111388 0.111286 0.1114605 0.1119096
 0.1125578 0.113271 0.1139198 0.1144127 0.1146713 0.1146208 0.1142355 0.1135788 0.1127723 0.1119319
 0.1111377 0.1104304 0.1098111 0.1092665 0.1088327 0.1086321 0.1088263 0.1095277 0.1107447 0.1123774
 0.11424 0.116109 0.1178011 0.1192397 0.1204558 0.1215225 0.1224952 0.1234081 0.1242934 0.1251673
 0.1260027 0.126754 0.1274131 0.1280152 0.1285876 0.1291189 0.129578 0.129944 0.1302192 0.1304304
 0.1306076 0.1307533 0.1308458 0.1308841 0.1309035 0.1309336 0.1309552 0.130909 0.1307375 0.130421
 0.1300059 0.1296244 0.1294799 0.1297805 0.1306401 0.1320117 0.1337105 0.1355146 0.13725 0.1387981
 0.1400753 0.1410509 0.1417743 0.1423482 0.1428631 0.143363 0.143858 0.1443453 0.1448179 0.1452695
 0.1457002 0.1461203 0.1465479 0.1469941 0.1474467 0.1478736 0.148256 0.1486141 0.1489951 0.1494302
 0.1499045 0.1503714 0.1508037 0.1512207 0.1516516 0.1520807 0.152459 0.152768 0.1530468 0.1533527
 0.1537171 0.1541368 0.1545787 0.154991 0.1553345 0.1556141 0.1558707 0.1561418 0.1564384 0.1567526
 0.1570738 0.1573925 0.1577046 0.1580191 0.1583566 0.1587247 0.159095 0.1594171 0.1596665 0.1598712
 0.1600834 0.1603319 0.1606047 0.1608754 0.1611383 0.1614189 0.1617485 0.1621256 0.1625037 0.1628269
 0.1630785 0.1632902 0.1635076 0.1637523 0.1640197 0.164299 0.1645832 0.1648663 0.1651428 0.1654141
 0.1656877 0.1659662 0.1662446 0.16652 0.1667961 0.167079 0.1673698 0.1676653 0.1679646 0.168274
 0.168602 0.1689437 0.1692731 0.1695609 0.1697999 0.1700096 0.1702166 0.1704355 0.1706689 0.1709139
 0.1711671 0.1714253 0.1716847 0.1719398 0.1721875 0.1724312 0.17268 0.1729417 0.1732168 0.173501
 0.1737909 0.1740857 0.174384 0.1746794 0.1749634 0.1752314 0.175486 0.1757371 0.1759953 0.1762632
 0.1765293 0.1767794 0.1770121 0.1772412 0.1774802 0.177732 0.177992 0.1782541 0.1785136 0.1787692
 0.1790243 0.1792831 0.1795452 0.1798058 0.1800612 0.1803125 0.1805642 0.1808194 0.1810774 0.1813367
 0.1815963 0.1818555 0.1821142 0.1823728 0.18263 0.182882 0.183127 0.1833681 0.1836114 0.1838634
 0.1841262 0.1843926 0.1846485 0.1848872 0.1851169 0.1853511 0.185598 0.1858588 0.1861269 0.1863911
 0.1866469 0.1869015 0.1871625 0.1874272 0.1876884 0.187944 0.1881972 0.1884523 0.1887124 0.1889786
 0.1892501 0.1895254 0.1898008 0.1900709 0.1903313 0.1905799 0.1908147 0.1910397 0.1912673 0.1915052
 0.1917477 0.1919867 0.1922229 0.1924588 0.1926935 0.1929276 0.1931651 0.1934097 0.1936656 0.1939345
 0.1942078 0.1944712 0.1947203 0.194963 0.195209 0.1954636 0.1957255 0.1959864 0.1962406 0.1964933
 0.1967502 0.1970082 0.197265 0.1975261 0.197793 0.1980599 0.1983222 0.1985787 0.1988285 0.1990775
 0.1993344 0.1995987 0.1998622 0.2001213 0.2003766 0.2006263 0.2008719 0.2011184 0.2013658 0.2016119
 0.2018609 0.202116 0.2023744 0.2026372 0.2029072 0.2031767 0.2034344 0.2036818 0.203928 0.2041796
 0.2044418 0.2047137 0.2049815 0.2052357 0.2054823 0.205726 0.2059649 0.2062049 0.2064506 0.2066773
 0.2068259 0.2067687 0.2061951 0.2044839 0.2006862 0.1937096 0.1827433 0.167764 0.1497269 0.1302314
 0.1109284 0.09308378 0.07744938 0.06435889 0.05389275 0.04598445 0.04048241 0.03725399 0.03629878 0.03786967
 0.04260374 0.05114207 0.06270127 0.07381399 0.07968013 0.07795244 0.07097775 0.06365912 0.05938807 0.0584105
 0.05928306 0.06076854 0.06247377 0.06462635 0.06761365 0.0715346 0.07618398 0.08154118 0.08800966 0.0958993
 0.1048029 0.1137676 0.1221211 0.1299957 0.1380025 0.1464897 0.1551815 0.1634544 0.170828 0.1771979
 0.1827492 0.1877546 0.1924211 0.1968499 0.2010759 0.2050781 0.2087115 0.2116754 0.2136495 0.214536
 0.2145826 0.2142482 0.2139298 0.2138086 0.2139049 0.2142001 0.2146782 0.2153109 0.2160617 0.2168975
 0.217787 0.2186998 0.2196133 0.2205086 0.2213643 0.2221639 0.222901 0.2235741 0.2241855 0.2247457
 0.2252656 0.2257484 0.2261945 0.2266081 0.2269942 0.2273573 0.227705 0.2280436 0.22837 0.2286748
 0.2289535 0.2292119 0.2294615 0.229711 0.2299597 0.2302005 0.2304296 0.2306512 0.2308707 0.2310893
 0.2313039 0.2315114 0.2317138 0.2319195 0.232134 0.232353 0.2325687 0.2327822 0.2330016 0.2332282
 0.233455 0.2336755 0.2338871 0.2340893 0.2342851 0.2344817 0.2346863 0.2349025 0.2351252 0.2353419
 0.2355467 0.2357541 0.2359842 0.2362341 0.2364811 0.2367124 0.2369369 0.2371673 0.2374063 0.2376467
 0.2378732 0.2380695 0.2382346 0.2383913 0.2385726 0.2387975 0.2390536 0.2393059 0.2395299 0.2397321
 0.2399351 0.2401501 0.2403689 0.240575 0.240762 0.2409522 0.2411826 0.2414596 0.2417489 0.2420208
 0.2422766 0.2425239 0.2427628 0.2430005 0.2432404 0.2434558 0.243613 0.2437314 0.2438938 0.2441827
 0.2446007 0.2450549 0.2454361 0.2457147 0.2459428 0.2461839 0.2464666 0.2467641 0.2469767 0.2470036
 0.2469029 0.2469149 0.2472411 0.2478396 0.2484942 0.2490322 0.2494269 0.249739 0.2500219 0.2502723
 0.2504367 0.250471 0.2504244 0.2504628 0.2507552 0.2512989 0.2519061 0.2523985 0.2527514 0.2530239
 0.253255 0.2534582 0.2535885 0.2534856 0.2530393 0.2524853 0.2523455 0.2529265 0.2539768 0.2549577
 0.2555782 0.2559427 0.2562467 0.2565314 0.2567491 0.2568078 0.2564441 0.2553739 0.2538524 0.2528298
 0.2531625 0.2547465 0.2566841 0.2581813 0.2590464 0.2594842 0.2597463 0.2599657 0.2600606 0.2597413
 0.2588324 0.2577064 0.2571957 0.2578253 0.25922 0.2605036 0.2611954 0.2614666 0.2616716 0.2619504
 0.2621347 0.2617048 0.2600838 0.2574861 0.2553473 0.2553164 0.2576436 0.260878 0.2633065 0.2644311
 0.2648346 0.2649156 0.2643047 0.2625328 0.2597341 0.2565816 0.2540797 0.2534346 0.2552571 0.2585559
 0.2612978 0.2624176 0.2627191 0.2635415 0.2651556 0.2667662 0.2675433 0.2672662 0.2661877 0.2645839
 0.2626225 0.260772 0.2600454 0.261283 0.2641265 0.2671512 0.2691784 0.2701682 0.2705945 0.2700552
 0.2669948 0.2605733 0.2530009 0.2489239 0.2513219 0.2583941 0.265498 0.269715 0.271446 0.2722318
 0.2726856 0.2723266 0.2698553 0.2638585 0.2550352 0.247608 0.2464686 0.2523345 0.260936 0.2670058
 0.2678706 0.2637317 0.2567173 0.2502521 0.2476601 0.2501454 0.2562626 0.2633468 0.2691194 0.2723087
 0.2726227 0.2706231 0.2676915 0.265697 0.2656413 0.2661769 0.2646312 0.2603854 0.2559108 0.2531469
 0.2505062 0.2458122 0.2410626 0.2411077 0.2473396 0.2553661 0.2599495 0.2603151 0.2592041 0.2578776
 0.2539535 0.2448349 0.2326282 0.2242315 0.225306 0.2344092 0.2442883 0.2489819 0.2485557 0.2469769
 0.24681 0.2466041 0.2429474 0.2349238 0.2263629 0.2226233 0.224892 0.2291154 0.2307942 0.2285843
 0.2227142 0.2135127 0.2039725 0.2006888 0.2082835 0.223728 0.2387296 0.2465769 0.2445881 0.2325882
 0.2138159 0.1968727 0.1915461 0.2000491 0.2143333 0.2234974 0.2224388 0.2127525 0.1980611 0.181536
 0.1673423 0.1610745 0.1663935 0.1813053 0.198267 0.2079537 0.2044047 0.189643 0.1740206 0.1687651
 0.1758013 0.1864673 0.1912341 0.1883441 0.1824322 0.1785168 0.1790892 0.1837496 0.1896497 0.194139
 0.1968827 0.1969232 0.1898123 0.1729708 0.1528975 0.1409188 0.1414075 0.1495031 0.1601712 0.1727367
 0.1850494 0.1903829 0.1850341 0.1753751 0.1724423 0.1802101 0.1921729 0.1992864 0.1989102 0.1952812
 0.1929397 0.1918741 0.1898123 0.1874913 0.1888414 0.1955727 0.2041982 0.2099264 0.211654 0.2115479
 0.2113802 0.2111865 0.2105023 0.209165 0.2072395 0.2051342 0.2034752 0.2023979 0.2014264 0.2002012
 0.1984584 0.194962 0.1877789 0.177025 0.1665975 0.1611096 0.1610245 0.1629442 0.1646586 0.1664569
 0.1664307 0.1591275 0.1427703 0.1251926 0.1181472 0.1259636 0.1423321 0.1574719 0.1655675 0.1652596
 0.1567878 0.1423309 0.1285282 0.1243929 0.1339295 0.1522702 0.1708927 0.1849649 0.1938582 0.1970746
 0.1934633 0.1842719 0.174333 0.1693155 0.1722981 0.1823974 0.1950117 0.202952 0.1999541 0.1869422
 0.174878 0.1766731 0.193579 0.2130415 0.2228153 0.2233944 0.2229932 0.2247857 0.2253496 0.2236818
 0.2247884 0.2328049 0.244883 0.2539784 0.2550185 0.2469009 0.2318376 0.2158446 0.2071734 0.209704
 0.2185363 0.2253065 0.2262795 0.2219071 0.2118978 0.1971826 0.1850701 0.184882 0.1971551 0.2123945
 0.221856 0.2255026 0.2280695 0.2309016 0.2303462 0.2233175 0.2124408 0.2044244 0.2034168 0.2073781
 0.2115373 0.2134362 0.2129813 0.2095918 0.202558 0.1941918 0.1898634 0.1933512 0.2029352 0.2129983
 0.2190385 0.2204871 0.2193931 0.21776 0.2161887 0.2140471 0.2108301 0.2079223 0.2083291 0.2134583
 0.2208484 0.2266737 0.2301101 0.2336082 0.2389986 0.2449094 0.248385 0.2480898 0.2455858 0.2439851
 0.2454524 0.2494715 0.2532185 0.2539717 0.2517063 0.2493688 0.2501748 0.2545543 0.2601016 0.2643187
 0.2666616 0.2680103 0.2691809 0.270215 0.2703547 0.2686164 0.2651779 0.2621865 0.2622361 0.2657948
 0.2707603 0.2746305 0.2765205 0.2770268 0.2768609 0.2761066 0.2746075 0.2726401 0.2709554 0.2701843
 0.2703683 0.2711046 0.2719643 0.2726869 0.2731582 0.2733855 0.2734612 0.2734798 0.2735126 0.2736415
 0.273919 0.2742858 0.2746258 0.2749356 0.2753487 0.2759426 0.276594 0.2770894 0.2773091 0.2772217
 0.2767635 0.2758645 0.2745886 0.2731136 0.27153 0.2697824 0.2679254 0.2663926 0.2658574 0.2667243
 0.2687557 0.2712262 0.2734237 0.2749993 0.27595 0.2764285 0.2766095 0.2766374 0.276595 0.2764983
 0.2763326 0.2760928 0.2757928 0.2754501 0.2750791 0.274706 0.2743757 0.2741275 0.2739581 0.273813
 0.2736208 0.2733397 0.2729759 0.272563 0.2721193 0.2716237 0.2710277 0.2702888 0.2694017 0.2684101
 0.2673953 0.2664373 0.2655633 0.2647271 0.2638475 0.2628677 0.2617618 0.2604994 0.2590685 0.2575533
 0.2561269 0.2549151 0.2538898 0.2529235 0.2519052 0.2507793 0.2495241 0.2481467 0.2466867 0.2451885
 0.2436699 0.2421215 0.2405264 0.2388727 0.2371565 0.235382 0.2335587 0.2316968 0.2298014 0.2278705
 0.2258839 0.2237791 0.2214393 0.2187221 0.215507 0.2117265 0.2073807 0.2025525 0.1974038 0.1921351
 0.1869374 0.1819684 0.177354 0.1731965 0.169583 0.1665851 0.1642561 0.1626326 0.1617327 0.1615465
 0.162037 0.1631561 0.1648415 0.16699 0.1694486 0.1720398 0.1745917 0.1769636 0.1790864 0.1809927
 0.1827892 0.18457 0.1863458 0.1880552 0.1896324 0.1910456 0.1922762 0.193302 0.194125 0.1947906
 0.1953541 0.1958415 0.1962526 0.1965857 0.1968491 0.1970615 0.1972459 0.1974194 0.1975965 0.1978019
 0.1980674 0.1984149 0.1988533 0.1993882 0.2000229 0.200752 0.2015601 0.2024304 0.2033607 0.2043703
 0.2054771 0.2066721 0.2079414 0.2093059 0.210811 0.2124784 0.2142917 0.216217 0.2182044 0.2201721
 0.2220147 0.2236395 0.2249988 0.2260925 0.2269449 0.2275824 0.2280342 0.2283382 0.228526 0.2286088
 0.2285859 0.2284561 0.2282177 0.2278721 0.2274299 0.2269028 0.226297 0.225632 0.2249492 0.2242859
 0.2236507 0.2230328 0.2224262 0.2218378 0.2212765 0.2207357 0.2201935 0.2196349 0.2190663 0.2184969
 0.2179167 0.2172988 0.2166069 0.2158006 0.2148554 0.2137824 0.2126132 0.2113695 0.2100549 0.2086642
 0.2071877 0.20562 0.2039716 0.202264 0.2005097 0.1986954 0.1967806 0.1947254 0.1925433 0.190321
 0.1881653 0.1861346 0.184231 0.1824346 0.1807252 0.1790902 0.1775324 0.1760622 0.1746766 0.1733561
 0.1720816 0.1708483 0.1696649 0.1685441 0.1674975 0.1665453 0.1657212 0.1650476 0.1645061 0.1640503
 0.1636453 0.1632814 0.1629707 0.1627452 0.1626338 0.1626166 0.1626192 0.1625651 0.1624195 0.1621925
 0.1619243 0.1616659 0.1614491 0.1612745 0.1611249 0.1609701 0.1607497 0.1603713 0.1597358 0.1587722
 0.1574613 0.1558378 0.1539737 0.1519761 0.1499935 0.1481826 0.1466431 0.1453976 0.1444236 0.1436688
 0.1430537 0.1425151 0.1420599 0.1417548 0.1416598 0.1417559 0.1419189 0.1419917 0.1419273 0.1418471
 0.1419315 0.1422754 0.1428497 0.1435461 0.1442342 0.1448166 0.1452527 0.1455332 0.1456628 0.1456716
 0.1456025 0.145473 0.1452804 0.14503 0.1447303 0.1443807 0.1439791 0.1435183 0.1429776 0.1423472
 0.1416414 0.1408681 0.1400176 0.1390787 0.1380264 0.1368294 0.1355448 0.1343829 0.1336107 0.1333929
 0.1337223 0.1344474 0.13537 0.1363583 0.1373219 0.1380662 0.1383523 0.1382543 0.1383315 0.1392257
 0.1410523 0.1432821 0.1452177 0.1464872 0.1470773 0.1470771 0.1465492 0.1455507 0.1441054 0.1421858
 0.1398162 0.1371163 0.1342028 0.1311812 0.1282406 0.1255973 0.1233599 0.1215417 0.1201252 0.1191394
 0.1187114 0.1184843 0.1166259 0.1107777 0.1016698 0.09476362 0.09567732 0.1038835 0.1130676 0.1178229
 0.1179746 0.1163745 0.114988 0.1141009 0.1136004 0.1136178 0.1142847 0.1154817 0.11684 0.1179595
 0.1186706 0.119007 0.1189221 0.1180716 0.1157663 0.1111945 0.104078 0.09526564 0.08644336 0.07913472
 0.0740191 0.07097402 0.06941155 0.06861579 0.06809515 0.06780031 0.06800689 0.06898343 0.07077277 0.07324598
 0.0762472 0.07956031 0.08279211 0.08551514 0.08759229 0.0892023 0.0905099 0.09146725 0.09195545 0.09196121
 0.09157585 0.09092925 0.09015384 0.08934022 0.08848262 0.08749539 0.08635101 0.08521973 0.08438843 0.08398885
 0.08388567 0.08386835 0.08384466 0.08381389 0.08377847 0.08373675 0.08369711 0.08369587 0.08382294 0.08415888
 0.08465478 0.08514851 0.08551443 0.08574434 0.08589815 0.0859912 0.08589654 0.08543836 0.08468819 0.0840117
 0.08361222 0.08319122 0.08234274 0.08117121 0.08023649 0.07993832 0.08017085 0.08053916 0.08072054 0.08062315
 0.0803838 0.08029675 0.08060883 0.08123177</values></Ydata></ScSm><ScRf><Ydata ylabel="Single channel"><values byteorder="INTEL" format="FLOAT32" numvalues="1820"> 0.06052629 0.06068056 0.06077401 0.06080338 0.0607939 0.06079701 0.06086554 0.06101634 0.06121571 0.06140137
 0.06152436 0.0615781 0.06158387 0.06155356 0.06149248 0.06144107 0.06147352 0.06162693 0.06184605 0.06201624
 0.06205658 0.06199304 0.06194326 0.0620006 0.06211239 0.06209584 0.06181005 0.06131636 0.0608398 0.06056233
 0.06050821 0.06067152 0.06112621 0.06181795 0.06232949 0.06217667 0.06141348 0.06066146 0.06042161 0.06059574
 0.06077182 0.06070102 0.06037731 0.05994933 0.05976424 0.06027035 0.06157554 0.0630881 0.06373204 0.06262583
 0.05971129 0.05595502 0.05299278 0.05225063 0.05393814 0.05676328 0.05890214 0.05945319 0.05886946 0.05803621
 0.05731995 0.05667615 0.05626275 0.05648394 0.05742881 0.05848282 0.05864065 0.05736947 0.05524886 0.05356105
 0.05311833 0.05375222 0.05500382 0.05662265 0.05786719 0.05710559 0.05342239 0.04865374 0.04657001 0.04929213
 0.05502636 0.0598154 0.06105765 0.05896924 0.05543827 0.05245718 0.05136313 0.05248021 0.05507517 0.05796783
 0.06024148 0.0612763 0.06059146 0.05826855 0.05535921 0.05337171 0.05334739 0.05545833 0.05896703 0.06228267
 0.06368335 0.06259173 0.05996185 0.05727226 0.05555319 0.05538604 0.05704588 0.06021454 0.06396495 0.067297
 0.06954484 0.0704453 0.07019561 0.06932934 0.06830695 0.06743439 0.06715184 0.06776916 0.06872985 0.06881449
 0.06747289 0.06556574 0.06447878 0.06468579 0.06536958 0.06541546 0.06453956 0.06310035 0.0609906 0.05762023
 0.05326759 0.04943843 0.04735888 0.04704023 0.04817918 0.05064014 0.05339625 0.05445767 0.05304569 0.05099086
 0.05091481 0.0534333 0.05683588 0.05918147 0.06009921 0.06065814 0.06198595 0.06411146 0.06582095 0.06557469
 0.06303587 0.05992886 0.05882094 0.06060047 0.06362034 0.06572298 0.06651714 0.0671313 0.06824552 0.06903727
 0.06804048 0.06488835 0.06124214 0.0597594 0.06177627 0.06596868 0.06931412 0.06932414 0.06571619 0.06047969
 0.05632995 0.05482959 0.05597021 0.05920932 0.06407178 0.0696001 0.07410066 0.07608724 0.07535877 0.07293217
 0.06988029 0.06633581 0.06203244 0.05794414 0.05649968 0.05928998 0.06502967 0.07062347 0.07392769 0.07482342
 0.07401332 0.07169481 0.06776129 0.06309709 0.06000675 0.06042355 0.06357844 0.06643159 0.06685403 0.06557192
 0.06460813 0.06476128 0.06530219 0.06552719 0.06577127 0.06684242 0.06886361 0.07096824 0.07213783 0.07212634
 0.07150011 0.07097841 0.07078062 0.07046919 0.06957048 0.06852663 0.06863576 0.07062568 0.0736446 0.0761335
 0.07738853 0.07781287 0.07786588 0.0772612 0.07538179 0.07243831 0.06994206 0.06958297 0.07159385 0.07460177
 0.07705182 0.07832551 0.07860135 0.0782938 0.07777147 0.07723606 0.07678051 0.07664164 0.07714331 0.07822791
 0.07934974 0.08002102 0.0802102 0.08009259 0.07970358 0.07901876 0.07820843 0.07763457 0.07759064 0.07808532
 0.07888794 0.0797333 0.08041275 0.0807374 0.08060766 0.08015853 0.07968082 0.07935628 0.07919008 0.07919094
 0.07943726 0.0799178 0.0804512 0.08083887 0.08102442 0.08106531 0.08101763 0.08089536 0.08070995 0.08051956
 0.08043487 0.08054502 0.08081368 0.0810992 0.08132119 0.08154193 0.08181822 0.08204912 0.08207689 0.08190058
 0.08169095 0.08160491 0.08165759 0.08176854 0.08185449 0.08184335 0.08165991 0.08129325 0.08089214 0.08070866
 0.08089465 0.08139405 0.08203954 0.082671 0.08315405 0.08340584 0.08346098 0.08343574 0.08339125 0.08328883
 0.08309541 0.08288313 0.08280486 0.08297723 0.08337726 0.08385304 0.08424461 0.08448207 0.08458286 0.08462085
 0.08470196 0.08488296 0.08508737 0.08517493 0.08511752 0.08504131 0.08507223 0.08519123 0.08527118 0.08523247
 0.08513758 0.08512591 0.08526625 0.08549638 0.08570965 0.08587126 0.08603201 0.086239 0.08644547 0.08652722
 0.08641413 0.08618999 0.08601472 0.08595757 0.08596998 0.08601539 0.08613564 0.08635522 0.08659122 0.0867218
 0.08672324 0.08669161 0.0867237 0.08680575 0.08683725 0.08674824 0.08657101 0.08640333 0.08632541 0.08635215
 0.08643793 0.08651054 0.08651289 0.08643412 0.08630998 0.08619002 0.08610313 0.08606239 0.08609822 0.086253
 0.08651073 0.08674763 0.08680218 0.08662198 0.08632731 0.08610657 0.08604631 0.08606909 0.08603065 0.08585939
 0.08559905 0.08534152 0.08514461 0.08500915 0.08490719 0.08481988 0.08476268 0.08478186 0.0849053 0.08507782
 0.08516792 0.08507501 0.08482767 0.084553 0.08435933 0.08427072 0.08425015 0.08424839 0.08424386 0.08426216
 0.08433641 0.084435 0.08447009 0.0844015 0.08429165 0.0842392 0.08429809 0.08446405 0.08467952 0.08483954
 0.08485748 0.08475491 0.08464704 0.08462411 0.08468118 0.08476743 0.08485697 0.08495041 0.08504409 0.08513372
 0.08523846 0.08539473 0.08561927 0.08588482 0.08613288 0.08631185 0.08641694 0.08650422 0.08665585 0.08691475
 0.08724803 0.08757603 0.08783865 0.08803663 0.08821324 0.08839945 0.08858881 0.08877288 0.08897999 0.08924934
 0.08957519 0.0899085 0.09021351 0.09049681 0.09078088 0.09107313 0.09136859 0.09167407 0.09202053 0.09243509
 0.092887 0.09327976 0.09352936 0.09364992 0.09374706 0.09393412 0.09425649 0.09466121 0.09502026 0.09522536
 0.09529734 0.09537432 0.09556149 0.09582506 0.09607205 0.09629817 0.09659402 0.09701035 0.09747346 0.09785439
 0.09809509 0.09824884 0.09840874 0.09861019 0.09880634 0.09893887 0.09901746 0.0991063 0.0992413 0.09940623
 0.09960079 0.09987588 0.1002618 0.100699 0.1010839 0.1013642 0.1015568 0.1016996 0.1018168 0.1019128
 0.1019742 0.1019968 0.1020173 0.1020878 0.102204 0.1022996 0.1023314 0.1023363 0.1023852 0.1025148
 0.1027247 0.1030031 0.1033201 0.1036201 0.1038717 0.1041216 0.1044483 0.1048443 0.1051892 0.1053747
 0.1054227 0.105437 0.1054741 0.1055218 0.1055862 0.1057221 0.1059642 0.1062811 0.1066207 0.1069661
 0.1073254 0.1076886 0.108012 0.10824 0.1083423 0.1083404 0.1083043 0.1083191 0.1084441 0.1086879
 0.1090063 0.10933 0.1096036 0.1097994 0.1099001 0.1099 0.1098428 0.1098277 0.1099308 0.1101174
 0.1102591 0.1102416 0.1100353 0.1096678 0.1091653 0.1085464 0.1078564 0.1071823 0.1066182 0.1062189
 0.1059968 0.1059665 0.1061683 0.1066215 0.107262 0.1079601 0.1086022 0.1091204 0.1094421 0.1094713
 0.10916 0.1085725 0.1078466 0.1071066 0.1064232 0.1058143 0.1052487 0.1046847 0.1041547 0.1038084
 0.1038421 0.1043798 0.1054118 0.106805 0.1083468 0.1098114 0.1110472 0.1120323 0.1128445 0.1135723
 0.1142575 0.1149135 0.1155638 0.1162246 0.1168654 0.1174289 0.117898 0.1183126 0.1187138 0.1191005
 0.1194436 0.1197209 0.1199374 0.1201267 0.1203195 0.1204968 0.1205966 0.1205855 0.1205002 0.120398
 0.120289 0.120133 0.1198821 0.1195166 0.1190725 0.1186652 0.1184783 0.118687 0.1193575 0.1204064
 0.1216643 0.1229818 0.1242648 0.1254281 0.1263737 0.1270488 0.1274946 0.127809 0.1280757 0.1283395
 0.1286213 0.128924 0.1292338 0.1295344 0.1298218 0.1301055 0.1304022 0.1307222 0.1310526 0.131359
 0.1316196 0.1318572 0.1321281 0.1324686 0.1328531 0.133218 0.1335329 0.1338311 0.1341525 0.1344754
 0.134739 0.1349255 0.135085 0.1352853 0.1355633 0.1359158 0.1363002 0.1366458 0.1368997 0.1370734
 0.1372267 0.1374087 0.1376271 0.137868 0.1381206 0.1383757 0.1386227 0.1388653 0.1391305 0.1394387
 0.1397618 0.1400338 0.1402162 0.140341 0.1404767 0.1406609 0.1408769 0.1410879 0.1412829 0.1414919
 0.1417568 0.1420804 0.1424083 0.1426715 0.1428464 0.1429665 0.1430855 0.1432375 0.1434287 0.1436474
 0.143876 0.1440985 0.1443076 0.1445077 0.1447098 0.1449203 0.1451363 0.1453494 0.1455549 0.1457529
 0.1459474 0.1461449 0.1463575 0.1466018 0.146886 0.1471917 0.1474756 0.1477007 0.1478669 0.1480033
 0.1481377 0.1482816 0.1484389 0.1486132 0.1488045 0.1490059 0.1492084 0.1494088 0.1496124 0.1498252
 0.1500432 0.1502543 0.1504543 0.1506545 0.1508701 0.1511046 0.1513467 0.1515809 0.1517973 0.1519951
 0.15218 0.1523615 0.1525485 0.1527436 0.152939 0.1531267 0.1533098 0.1534982 0.1536937 0.1538888
 0.1540787 0.1542669 0.154457 0.1546488 0.154842 0.1550385 0.1552397 0.1554439 0.1556483 0.1558501
 0.1560473 0.1562378 0.1564218 0.1566043 0.1567923 0.156989 0.1571943 0.1574083 0.1576287 0.1578441
 0.1580419 0.1582231 0.1584031 0.1585943 0.1587942 0.1589938 0.1591913 0.1593921 0.1595974 0.1597994
 0.1599924 0.1601826 0.1603807 0.1605914 0.1608132 0.1610426 0.1612722 0.1614922 0.1616983 0.1618948
 0.1620891 0.1622877 0.1624956 0.1627147 0.1629423 0.1631736 0.1634028 0.1636233 0.1638289 0.1640162
 0.164185 0.1643411 0.1644969 0.1646642 0.1648457 0.1650361 0.1652302 0.1654251 0.16562 0.1658135
 0.1660024 0.1661848 0.1663662 0.1665547 0.1667508 0.1669488 0.1671471 0.1673497 0.1675599 0.1677778
 0.1679988 0.1682146 0.1684219 0.1686281 0.1688414 0.1690601 0.1692769 0.1694866 0.1696877 0.1698861
 0.1700912 0.1703034 0.1705126 0.1707153 0.1709209 0.1711344 0.1713495 0.1715604 0.1717679 0.1719743
 0.1721821 0.1723911 0.172596 0.1727937 0.1729904 0.1731954 0.1734122 0.1736389 0.1738666 0.1740832
 0.1742885 0.1744973 0.1747179 0.1749416 0.1751585 0.1753684 0.1755743 0.1757816 0.1759968 0.1762163
 0.1764298 0.1766395 0.1768529 0.1770546 0.1771911 0.1771419 0.1766347 0.1751438 0.1718644 0.165859
 0.1564255 0.1435389 0.1280192 0.1112456 0.09464416 0.07930728 0.06587967 0.05464565 0.04567339 0.03890203
 0.03419442 0.03143214 0.03061619 0.03196708 0.0360335 0.04336526 0.05328768 0.06282167 0.06784634 0.06635141
 0.06035952 0.0540836 0.05042935 0.04959726 0.05034365 0.05161029 0.05306493 0.05490413 0.05745967 0.06081895
 0.06481396 0.06943555 0.07502724 0.08183809 0.08950269 0.09720417 0.1043791 0.1111524 0.1180521 0.1253755
 0.1328804 0.1400227 0.146384 0.1518766 0.1566662 0.1609869 0.165008 0.1688139 0.1724496 0.1759162
 0.1790884 0.1816872 0.1834195 0.1841965 0.1842318 0.1839235 0.183628 0.1835207 0.1836258 0.1839132
 0.1843482 0.1848988 0.1855436 0.1862706 0.1870597 0.1878768 0.1886888 0.1894728 0.1902155 0.1909142
 0.1915703 0.192179 0.1927355 0.1932453 0.1937166 0.19415 0.1945446 0.1949088 0.1952551 0.1955931
 0.1959272 0.1962539 0.1965605 0.1968361 0.1970796 0.1972992 0.1975078 0.1977188 0.1979362 0.1981529
 0.1983636 0.1985713 0.1987786 0.198982 0.1991799 0.1993772 0.1995768 0.1997751 0.1999678 0.2001565
 0.2003467 0.2005448 0.2007517 0.2009609 0.2011628 0.201352 0.2015307 0.2017065 0.2018896 0.2020852
 0.2022907 0.2024998 0.2027074 0.2029088 0.203101 0.2032892 0.2034828 0.2036866 0.2039009 0.2041267
 0.204361 0.2045934 0.2048171 0.2050361 0.2052498 0.2054419 0.2055987 0.2057342 0.2058852 0.2060799
 0.206313 0.2065538 0.2067773 0.2069816 0.2071782 0.2073738 0.2075649 0.207744 0.2079132 0.2080968
 0.2083224 0.2085851 0.2088501 0.2090955 0.2093282 0.2095556 0.2097758 0.2099964 0.210226 0.2104451
 0.2106201 0.2107576 0.2109199 0.2111737 0.2115203 0.211886 0.2121917 0.2124267 0.2126385 0.2128726
 0.2131441 0.2134266 0.2136317 0.2136639 0.2135646 0.2135445 0.2137954 0.2143019 0.2148845 0.2153844
 0.2157602 0.2160499 0.2162974 0.2165074 0.2166443 0.2166774 0.2166516 0.2167087 0.2169903 0.2174894
 0.2180397 0.2184835 0.2187973 0.2190332 0.2192284 0.2193999 0.2195135 0.2194312 0.2190534 0.21858
 0.2184642 0.2189772 0.2199039 0.2207742 0.2213299 0.2216586 0.2219331 0.2221957 0.2224076 0.2224857
 0.222194 0.2212795 0.2199635 0.2190802 0.2193864 0.2207981 0.2225294 0.223878 0.2246669 0.2250715
 0.2253154 0.2255216 0.2256222 0.2253655 0.2245975 0.2236393 0.2232121 0.2237776 0.2250183 0.2261712
 0.2268045 0.2270584 0.2272469 0.2275031 0.2276849 0.2273375 0.2259563 0.223728 0.221901 0.2219084
 0.223969 0.2268263 0.2289915 0.2300241 0.2304201 0.2305192 0.2299972 0.2284484 0.226001 0.2232592
 0.2211109 0.2206067 0.2222649 0.2252001 0.2276278 0.2286254 0.2289097 0.2296565 0.2311003 0.2325442
 0.233263 0.2330639 0.2321671 0.23081 0.2291327 0.2275437 0.2269395 0.2280662 0.2306099 0.2333136
 0.2351391 0.2360543 0.2364798 0.2360615 0.2334255 0.2278302 0.2212235 0.2176968 0.2198689 0.2261473
 0.2324404 0.2361812 0.2377353 0.2384759 0.238947 0.2387109 0.2366051 0.2313801 0.2236598 0.2171747
 0.216237 0.2214729 0.2291142 0.2345205 0.2353402 0.2317519 0.2256317 0.2199996 0.2177852 0.2200503
 0.2255242 0.2318567 0.237027 0.2399048 0.2402415 0.2385496 0.2360542 0.2343957 0.2344455 0.2350096
 0.2337351 0.2300837 0.2262334 0.2238824 0.2216192 0.2175296 0.2134075 0.2135702 0.2192512 0.2265337
 0.2307496 0.2312111 0.2303641 0.2293305 0.2259804 0.2179924 0.2072489 0.1999223 0.2010794 0.2094179
 0.2184262 0.2227638 0.22251 0.2212425 0.2212671 0.2212649 0.2181455 0.2110821 0.2035529 0.2004157
 0.2027363 0.206837 0.2086456 0.2069369 0.2018953 0.1938146 0.1854459 0.1828317 0.1902053 0.2048048
 0.2190376 0.2267263 0.2253568 0.2147152 0.1977817 0.1825603 0.1781781 0.1867018 0.2006218 0.2097621
 0.2093448 0.2008251 0.1875552 0.1725148 0.1597041 0.1545455 0.1606356 0.1761067 0.1936502 0.2041183
 0.2015729 0.1879415 0.1734875 0.1694221 0.1776564 0.1894497 0.1951893 0.1931171 0.1879486 0.1848297
 0.1863801 0.1922195 0.1993653 0.2050342 0.2088509 0.2096886 0.2026928 0.1851149 0.1640041 0.1515597
 0.1524731 0.1615339 0.1733827 0.1873185 0.2009519 0.206903 0.2011194 0.1905515 0.1872382 0.1955284
 0.2083598 0.2159021 0.2152916 0.2111584 0.2084754 0.2072605 0.2050577 0.2026732 0.2043726 0.2119975
 0.2217539 0.2284521 0.2309014 0.2314339 0.231944 0.232454 0.2324514 0.2317489 0.2304059 0.2288648
 0.2278209 0.2274389 0.2272004 0.2266955 0.2255961 0.2224456 0.2149802 0.2033122 0.1919466 0.1862113
 0.1866074 0.1891814 0.1913976 0.1936136 0.1936027 0.185012 0.1657565 0.1449065 0.1360868 0.1443096
 0.1622425 0.1785673 0.1866505 0.1851097 0.1744279 0.1571507 0.140592 0.134553 0.1433321 0.1615965
 0.180079 0.1935719 0.2015341 0.2036549 0.1988501 0.1884151 0.1773115 0.1713325 0.1735627 0.1830132
 0.1949568 0.2021579 0.1984152 0.184723 0.1719794 0.1729475 0.1888721 0.2074085 0.2164993 0.216583
 0.2156977 0.2169868 0.2171418 0.2151779 0.2159521 0.2235 0.2350979 0.2439515 0.2451674 0.2376859
 0.2236365 0.2088217 0.2012134 0.2045303 0.2139396 0.2212525 0.2228204 0.2190633 0.2096497 0.195518
 0.1839816 0.1843295 0.1970656 0.2127062 0.2225534 0.2266106 0.2296216 0.2329031 0.2327538 0.2260666
 0.215528 0.2079702 0.2076269 0.2124308 0.2175159 0.2203468 0.2207658 0.2180942 0.2115513 0.2035457
 0.1997003 0.2039627 0.214489 0.225334 0.2317405 0.2331071 0.2315982 0.2293391 0.2269848 0.2238901
 0.2195344 0.2153668 0.2145201 0.2184688 0.224692 0.2292695 0.2313691 0.233521 0.2376399 0.2423918
 0.2448231 0.2435852 0.2402127 0.2377795 0.2384297 0.2416795 0.2447784 0.2450552 0.2424574 0.2398374
 0.2403201 0.2443205 0.2494973 0.2534297 0.2555927 0.2568271 0.2578989 0.2588273 0.2588697 0.2570797
 0.2536466 0.2506633 0.2506399 0.2540185 0.2587597 0.262457 0.2642792 0.26481 0.2647097 0.2640242
 0.2626003 0.2607318 0.259161 0.2584911 0.2587571 0.259582 0.2605671 0.2614631 0.2621499 0.262621
 0.2629439 0.2631671 0.2632984 0.2633688 0.2634244 0.2634415 0.2633578 0.263222 0.2632121 0.2634342
 0.2637741 0.2640157 0.2640377 0.26381 0.2632658 0.262323 0.2610337 0.259577 0.2580559 0.2564187
 0.2547007 0.2532991 0.2528575 0.2537725 0.2558188 0.2582859 0.2604706 0.2620332 0.2629829 0.2634749
 0.2636747 0.2637225 0.2637126 0.2636716 0.2635757 0.2633969 0.263133 0.2628011 0.2624195 0.2620102
 0.2616112 0.2612635 0.2609738 0.2606971 0.2603681 0.2599486 0.2594475 0.2589059 0.258361 0.2578089
 0.2572001 0.2564761 0.2556177 0.254664 0.2536974 0.252802 0.2520073 0.2512665 0.2505048 0.2496808
 0.2487809 0.2477754 0.2466451 0.2454611 0.2443792 0.2435148 0.242842 0.242236 0.241583 0.2408298
 0.2399667 0.2390096 0.237992 0.2369436 0.2358708 0.2347626 0.2335999 0.2323549 0.2310031 0.2295455
 0.228006 0.2264113 0.2247848 0.2231455 0.2214792 0.2197119 0.2177286 0.2154112 0.2126494 0.2093419
 0.2054347 0.2009759 0.1961326 0.1911421 0.1862315 0.181566 0.1772544 0.1733863 0.1700487 0.1673141
 0.1652299 0.1638216 0.1631036 0.1630867 0.1637731 0.1651398 0.16712 0.1695977 0.1724185 0.1754073
 0.1783906 0.1812215 0.1838154 0.1861787 0.1883849 0.1904945 0.1924943 0.1943262 0.1959548 0.1973822
 0.1986145 0.1996486 0.2004938 0.2011832 0.201758 0.202248 0.2026706 0.2030404 0.20337 0.2036577
 0.2038876 0.2040548 0.2041861 0.2043291 0.2045203 0.2047659 0.20505 0.2053635 0.2057266 0.2061702
 0.2066943 0.2072601 0.2078302 0.2084016 0.2089934 0.209625 0.2103188 0.2111128 0.212053 0.2131649
 0.2144326 0.2158033 0.2172048 0.2185525 0.2197532 0.2207294 0.2214491 0.2219262 0.2221957 0.2222937
 0.2222486 0.2220727 0.2217675 0.2213479 0.220853 0.2203219 0.2197663 0.2191736 0.2185341 0.2178555
 0.2171551 0.2164474 0.215744 0.215057 0.2143947 0.2137567 0.213138 0.2125342 0.2119394 0.2113479
 0.2107593 0.2101777 0.2096035 0.2090318 0.2084542 0.2078528 0.2071989 0.2064664 0.2056462 0.2047407
 0.2037488 0.2026609 0.201472 0.2001903 0.1988304 0.1973989 0.1958911 0.1943028 0.1926386 0.1909043
 0.1890918 0.1871842 0.1851873 0.1831585 0.1811872 0.1793415 0.177635 0.1760428 0.1745398 0.1731194
 0.1717846 0.1705271 0.1693236 0.1681576 0.1670364 0.1659764 0.1649796 0.1640357 0.1631439 0.1623231
 0.1615987 0.1609807 0.1604531 0.1599875 0.1595664 0.159194 0.1588968 0.1587169 0.1586795 0.1587489
 0.1588359 0.1588609 0.1587997 0.1586746 0.1585256 0.158392 0.1582971 0.1582432 0.1582156 0.1581754
 0.1580503 0.1577479 0.1571818 0.1562925 0.1550681 0.1535535 0.1518267 0.1499797 0.1481287 0.1464074
 0.1449201 0.1437207 0.1428238 0.1421928 0.1417316 0.1413459 0.1410258 0.1408454 0.1408808 0.141116
 0.1414074 0.1415737 0.1415659 0.1415263 0.1416543 0.1420493 0.1426801 0.1434369 0.1441908 0.1448506
 0.1453809 0.1457685 0.1460098 0.1461304 0.1461672 0.1461278 0.1460037 0.1458031 0.1455428 0.1452381
 0.1449053 0.1445375 0.1440936 0.1435416 0.1428849 0.1421324 0.1412919 0.1403773 0.1393714 0.1382299
 0.1369989 0.1358862 0.1351591 0.1349934 0.1354007 0.1362275 0.137251 0.1383263 0.1393733 0.1402072
 0.140588 0.1405873 0.1407703 0.1418003 0.1438167 0.1462791 0.1484407 0.1498954 0.1506341 0.150751
 0.1503004 0.1493446 0.147918 0.1459812 0.143543 0.1407401 0.1377292 0.1346507 0.1317106 0.1291127
 0.1269313 0.1251588 0.123778 0.1228143 0.1223929 0.1221624 0.1202589 0.1142653 0.1049529 0.09797259
 0.0991003 0.1077441 0.1173606 0.1223654 0.1225696 0.1209137 0.1194472 0.1184927 0.1179526 0.1179685
 0.1186615 0.1198818 0.1212449 0.1223583 0.1230581 0.1233823 0.1232936 0.1224311 0.1200447 0.1152696
 0.1078268 0.09860564 0.08935278 0.08166829 0.07629978 0.07315038 0.07160728 0.07088853 0.07042505 0.0701358
 0.07033516 0.07135018 0.07324982 0.07590272 0.07913034 0.08266617 0.08606768 0.08890317 0.09106533 0.09275176
 0.09412161 0.09511419 0.09561289 0.09563409 0.09530127 0.09473705 0.09403647 0.0932679 0.09241749 0.0913824
 0.09013402 0.08888444 0.087966 0.08751942 0.08740259 0.08740552 0.08742701 0.08743943 0.08741988 0.08735742
 0.08726808 0.08720725 0.0872815 0.0875801 0.08805963 0.08854721 0.08888071 0.08902981 0.08908381 0.08909699
 0.08893418 0.08838952 0.08753752 0.08676946 0.08628761 0.08575644 0.08474077 0.08337609 0.08230729 0.08198696
 0.08226464 0.08265873 0.08281475 0.0826679 0.08238377 0.08227094 0.08258692 0.08324058 0.08376795 0.08376637
</values></Ydata></ScRf><Data_Parameters_AB><parameter name="DPF">1</parameter><parameter name="NPT">3497</parameter><parameter name="FXV">3996</parameter><parameter name="LXV">500</parameter><parameter name="CSF">1</parameter><parameter name="MXY">0.0656896457076073</parameter><parameter name="MNY">-0.0809477418661118</parameter><parameter name="DAT">02/06/2022</parameter><parameter name="TIM">11:29:18.118 (GMT+2)</parameter><parameter name="DXU">WN</parameter></Data_Parameters_AB><AB__Qtest><MainReport name="Quality Test Report"><Header><Line><Legend>Test result ok/not ok [1/0]: </Legend><Value>0</Value></Line><Line><Legend>Method file: </Legend><Value>C:\Users\Public\Documents\Bruker\OPUS_8.2.28\QT\IRBT_v3_default.QT</Value></Line></Header><Matrix><Line><Legend></Legend><Legend>min</Legend><Legend>max</Legend><Legend>measured</Legend></Line><Line><Value>Absorption (X-Range 1):</Value><Value>0.400000</Value><Value>2.000000</Value><Value>0.107096</Value></Line><Line><Value>Noise (X-Range 4):</Value><Value></Value><Value>0.000300</Value><Value>0.000061</Value></Line><Line><Value>Signal/Noise (X-Range 2):</Value><Value>200.000000</Value><Value></Value><Value>26.631350</Value></Line><Line><Value>Signal/Noise (X-Range 3):</Value><Value>40.000000</Value><Value></Value><Value>18.558713</Value></Line><Line><Value>Water vapour (X-Range 5):</Value><Value></Value><Value>0.000300</Value><Value>0.000045</Value></Line><Line><Value>Signal/Water (X-Range 2):</Value><Value>100.000000</Value><Value></Value><Value>36.190245</Value></Line><Line><Value>Signal/Water (X-Range 3):</Value><Value>20.000000</Value><Value></Value><Value>25.220065</Value></Line><Line><Value>Fringes (X-Range 6):</Value><Value></Value><Value>0.000100</Value><Value>0.000075</Value></Line></Matrix></MainReport></AB__Qtest><Data_Parameters_ScSm><parameter name="DPF">1</parameter><parameter name="NPT">1814</parameter><parameter name="FXV">3996.33169228125</parameter><parameter name="LXV">499.541461535156</parameter><parameter name="CSF">1</parameter><parameter name="MXY">0.277309060096741</parameter><parameter name="MNY">0.0362987816333771</parameter><parameter name="DAT">02/06/2022</parameter><parameter name="TIM">11:29:18.118 (GMT+2)</parameter><parameter name="DXU">WN</parameter></Data_Parameters_ScSm><Data_Parameters_ScRf><parameter name="DPF">1</parameter><parameter name="NPT">1820</parameter><parameter name="FXV">4004.04661832813</parameter><parameter name="LXV">495.683998511719</parameter><parameter name="CSF">1</parameter><parameter name="MXY">0.264809966087341</parameter><parameter name="MNY">0.0306161865592003</parameter><parameter name="DAT">02/06/2022</parameter><parameter name="TIM">11:28:52.460 (GMT+2)</parameter><parameter name="DXU">WN</parameter></Data_Parameters_ScRf><Optic_Parameters_Rf><parameter name="APR">0</parameter><parameter name="APT">Open</parameter><parameter name="BMS">KBr</parameter><parameter name="DTC">RT-DLaTGS_IR-Biotyper [Microplate reader]</parameter><parameter name="HPF">0</parameter><parameter name="LPF">10.0</parameter><parameter name="LPV">4000</parameter><parameter name="PGR">0</parameter><parameter name="RCH">Module port</parameter><parameter name="RDX">0</parameter><parameter name="SRC">MIR</parameter><parameter name="VEL">10.0</parameter><parameter name="SON">Off</parameter></Optic_Parameters_Rf><Acquisition_Parameters_Rf><parameter name="ADT">1</parameter><parameter name="AQM">DD</parameter><parameter name="CFE">0</parameter><parameter name="COR">0</parameter><parameter name="DEL">0</parameter><parameter name="DLY">0</parameter><parameter name="HFW">8000</parameter><parameter name="LFW">0</parameter><parameter name="NSR">32</parameter><parameter name="PLF">AB</parameter><parameter name="RES">6</parameter><parameter name="RGN">-1</parameter><parameter name="STR">0</parameter><parameter name="TCL">MakeCompatibleScalar (0, {WSV=1.000000, ARV=0});</parameter><parameter name="TDL">37</parameter><parameter name="RPO">0</parameter></Acquisition_Parameters_Rf><FT_-_Parameters_Rf><parameter name="APF">B3</parameter><parameter name="HFQ">500</parameter><parameter name="LFQ">4000</parameter><parameter name="NLI">0</parameter><parameter name="PHR">24</parameter><parameter name="PHZ">ML</parameter><parameter name="SPZ">NO</parameter><parameter name="ZFF">1</parameter></FT_-_Parameters_Rf><Optic_Parameters_><parameter name="APR">0</parameter><parameter name="APT">Open</parameter><parameter name="BMS">KBr</parameter><parameter name="CHN">Module port</parameter><parameter name="DTC">RT-DLaTGS_IR-Biotyper [Microplate reader]</parameter><parameter name="HPF">0</parameter><parameter name="LPF">10.0</parameter><parameter name="LPV">4000</parameter><parameter name="PGN">0</parameter><parameter name="RDX">0</parameter><parameter name="SRC">MIR</parameter><parameter name="VEL">10.0</parameter><parameter name="SON">Off</parameter></Optic_Parameters_><FT_-_Parameters_><parameter name="APF">B3</parameter><parameter name="HFQ">500</parameter><parameter name="LFQ">4000</parameter><parameter name="NLI">0</parameter><parameter name="PHR">24</parameter><parameter name="PHZ">ML</parameter><parameter name="SPZ">NO</parameter><parameter name="ZFF">1</parameter></FT_-_Parameters_><Acquisition_Parameters_><parameter name="ADT">1</parameter><parameter name="AQM">DD</parameter><parameter name="CFE">0</parameter><parameter name="COR">0</parameter><parameter name="DEL">0</parameter><parameter name="DLY">0</parameter><parameter name="HFW">8000</parameter><parameter name="LFW">0</parameter><parameter name="NSS">32</parameter><parameter name="PLF">AB</parameter><parameter name="RES">6</parameter><parameter name="SOT">0</parameter><parameter name="TCL">MakeCompatibleScalar (0, {WSV=1.000000, ARV=0});</parameter><parameter name="TDL">37</parameter><parameter name="SPO">0</parameter><parameter name="SGN">-1</parameter></Acquisition_Parameters_><Instrument_Parameters_Rf><parameter name="HFL">15800.168544</parameter><parameter name="LFL">0</parameter><parameter name="LWN">15800.168544</parameter><parameter name="ABP">32197</parameter><parameter name="SSP">1</parameter><parameter name="ARG">2</parameter><parameter name="ASG">2</parameter><parameter name="ASS">32</parameter><parameter name="GFW">16</parameter><parameter name="GBW">16</parameter><parameter name="BFW">0</parameter><parameter name="BBW">0</parameter><parameter name="PKA">7270</parameter><parameter name="PKL">4996</parameter><parameter name="PRA">7445</parameter><parameter name="PRL">5001</parameter><parameter name="P2A">1</parameter><parameter name="P2L">1</parameter><parameter name="P2R">1</parameter><parameter name="P2K">1</parameter><parameter name="DAQ">0</parameter><parameter name="AG2">1</parameter><parameter name="SSM">1</parameter><parameter name="RSN">26053</parameter><parameter name="CRR">0</parameter><parameter name="SRT">1654169332.461</parameter><parameter name="DUR">19.6379852294922</parameter><parameter name="TSC">28.2</parameter><parameter name="MVD">0.214717358350754</parameter><parameter name="AN1">0.225809028453659</parameter><parameter name="AN2">0</parameter><parameter name="VSN">2.485 Apr  4 2017</parameter><parameter name="SRN">0085</parameter><parameter name="CAM">0</parameter><parameter name="INS">IR-Biotyper</parameter><parameter name="FOC">69</parameter><parameter name="RDY">1</parameter><parameter name="ARS">32</parameter></Instrument_Parameters_Rf><Sample_Parameters_><parameter name="BLD"></parameter><parameter name="CNM">Admin</parameter><parameter name="CPY"></parameter><parameter name="DPM"></parameter><parameter name="EXP">IRBT_v3_32Scans.XPM</parameter><parameter name="LCT"></parameter><parameter name="SFM">Microplate, HTS-XT</parameter><parameter name="SNM">220602-1054_RTF49M (D_19)_D3_fc6fac48-2846-4290-a610-acb327467bab.0</parameter><parameter name="XPP">C:\Users\Public\Documents\Bruker\OPUS_8.2.28\XPM</parameter><parameter name="IST">OK</parameter><parameter name="CPG">1252</parameter><parameter name="UID">718bf3c2-1bc6-4d13-b9d0-a6f7b420cd39</parameter></Sample_Parameters_><Instrument_Parameters_><parameter name="HFL">15800.168544</parameter><parameter name="LFL">0</parameter><parameter name="LWN">15800.168544</parameter><parameter name="ABP">32197</parameter><parameter name="SSP">1</parameter><parameter name="ASG">2</parameter><parameter name="ARG">2</parameter><parameter name="ASS">32</parameter><parameter name="GFW">16</parameter><parameter name="GBW">16</parameter><parameter name="BFW">0</parameter><parameter name="BBW">0</parameter><parameter name="PKA">7843</parameter><parameter name="PKL">4988</parameter><parameter name="PRA">8133</parameter><parameter name="PRL">4993</parameter><parameter name="P2A">1</parameter><parameter name="P2L">1</parameter><parameter name="P2R">1</parameter><parameter name="P2K">1</parameter><parameter name="DAQ">0</parameter><parameter name="AG2">1</parameter><parameter name="SSM">1</parameter><parameter name="RSN">13652</parameter><parameter name="CRR">0</parameter><parameter name="SRT">1654169358.119</parameter><parameter name="DUR">19.6369934082031</parameter><parameter name="TSC">28.2</parameter><parameter name="MVD">0.500368356704712</parameter><parameter name="AN1">0.22583169167837</parameter><parameter name="AN2">0</parameter><parameter name="VSN">2.485 Apr  4 2017</parameter><parameter name="SRN">0085</parameter><parameter name="CAM">0</parameter><parameter name="INS">IR-Biotyper</parameter><parameter name="FOC">69</parameter><parameter name="RDY">1</parameter></Instrument_Parameters_><History/></OPUSDataFile>
