<?xml version="1.0" encoding="UTF-8" ?>
<OPUSDataFile><AB><Ydata ylabel="Absorbance Units"><values byteorder="INTEL" format="FLOAT32" numvalues="3497"> -0.08964459 -0.08965591 -0.08965281 -0.08963447 -0.08961266 -0.08958797 -0.08957224 -0.08956531 -0.08956844 -0.08958092
 -0.08959918 -0.08962319 -0.08965139 -0.08968287 -0.08971538 -0.08974659 -0.08977201 -0.08978942 -0.08979468 -0.08978648
 -0.08976191 -0.08972261 -0.08966652 -0.08960388 -0.08953628 -0.08947873 -0.089436 -0.08941282 -0.08941206 -0.0894229
 -0.08944482 -0.08946536 -0.08948383 -0.08949924 -0.08951202 -0.08952779 -0.08954658 -0.08957156 -0.08960187 -0.08963642
 -0.08967374 -0.08971031 -0.08974392 -0.08976904 -0.08978543 -0.0897894 -0.08978555 -0.08977503 -0.08976582 -0.08976277
 -0.08976974 -0.08979169 -0.08981875 -0.08985171 -0.08986909 -0.08986691 -0.08983517 -0.08977074 -0.08969525 -0.08960971
 -0.08955137 -0.0895204 -0.08952986 -0.08957451 -0.08962891 -0.08968995 -0.08973014 -0.08975644 -0.08977147 -0.08978305
 -0.08980845 -0.08984291 -0.08989041 -0.08993686 -0.08997176 -0.08998749 -0.08997417 -0.08994012 -0.08988405 -0.08982334
 -0.08976203 -0.08971218 -0.08967693 -0.08965799 -0.08965602 -0.08966839 -0.08969501 -0.0897353 -0.08978928 -0.08985791
 -0.08994007 -0.09003117 -0.09012662 -0.09020802 -0.09027033 -0.09028986 -0.09027049 -0.090205 -0.09010701 -0.08998768
 -0.08986285 -0.08974832 -0.08965474 -0.08959391 -0.08956327 -0.08956673 -0.08958989 -0.08963019 -0.0896754 -0.08972266
 -0.08976857 -0.08981257 -0.08985265 -0.08988867 -0.08991565 -0.08993359 -0.08994105 -0.0899395 -0.08993699 -0.08993538
 -0.08994676 -0.08996955 -0.09000801 -0.0900549 -0.09010026 -0.09013762 -0.09015265 -0.09015101 -0.0901308 -0.09010381
 -0.09007768 -0.09005412 -0.09003648 -0.09001954 -0.09000059 -0.08998649 -0.08997593 -0.08999117 -0.09003501 -0.09011704
 -0.0902385 -0.09034361 -0.09042766 -0.09040134 -0.09027472 -0.09006575 -0.08979359 -0.08954227 -0.08931584 -0.08916687
 -0.08908931 -0.0891003 -0.08918156 -0.08932435 -0.08949518 -0.08966658 -0.08980782 -0.08988921 -0.08991461 -0.08987246
 -0.08980011 -0.0897042 -0.08961689 -0.08954646 -0.08949729 -0.08947166 -0.08945622 -0.08945028 -0.0894425 -0.08943315
 -0.08942505 -0.08941974 -0.08942984 -0.08945396 -0.08949639 -0.08954868 -0.08959253 -0.08961985 -0.08960465 -0.08955378
 -0.08946103 -0.08934703 -0.08922527 -0.08911541 -0.08903279 -0.08898617 -0.08898444 -0.08902156 -0.08910047 -0.0891995
 -0.08931715 -0.08942489 -0.08951996 -0.08957836 -0.08959843 -0.08956646 -0.0894831 -0.08935613 -0.08918955 -0.08901312
 -0.08883055 -0.08867274 -0.08853877 -0.08844323 -0.08838037 -0.08834836 -0.08833824 -0.08833964 -0.08834295 -0.08833587
 -0.08831594 -0.08827527 -0.08822599 -0.08816954 -0.08812249 -0.08809139 -0.08807641 -0.08808021 -0.08808801 -0.08809816
 -0.08810394 -0.08810467 -0.08810705 -0.08811127 -0.08812223 -0.08813838 -0.08815213 -0.08816081 -0.08814911 -0.08811744
 -0.08805729 -0.08797462 -0.08787403 -0.08776586 -0.08766337 -0.08757728 -0.08752118 -0.08750035 -0.08752248 -0.08758563
 -0.08769331 -0.08783197 -0.08800326 -0.08817196 -0.08833361 -0.0884522 -0.08852132 -0.08854461 -0.08852178 -0.08846899
 -0.08838586 -0.08826275 -0.08810124 -0.08790383 -0.08768019 -0.08747001 -0.08728124 -0.08715777 -0.0870942 -0.08710876
 -0.08717246 -0.08726 -0.08733918 -0.08736636 -0.08734875 -0.08727288 -0.0871715 -0.08705518 -0.08694576 -0.08685356
 -0.08677752 -0.08672043 -0.08666806 -0.08661884 -0.08656576 -0.0865081 -0.08645186 -0.08639754 -0.08635473 -0.08632351
 -0.08631082 -0.08631328 -0.08632454 -0.08633424 -0.08631024 -0.08624971 -0.08612517 -0.085959 -0.08576669 -0.08557152
 -0.08540384 -0.0852607 -0.08515384 -0.08505761 -0.08496462 -0.08485414 -0.08471555 -0.08455613 -0.0843736 -0.0841902
 -0.08400851 -0.08384042 -0.08368716 -0.08354259 -0.08340594 -0.08326144 -0.08310938 -0.08294373 -0.08276718 -0.08258794
 -0.08240717 -0.08223221 -0.08206253 -0.08190079 -0.08174521 -0.08159619 -0.08144738 -0.08129472 -0.08112933 -0.08094376
 -0.08073664 -0.08050621 -0.08025105 -0.07997303 -0.07965688 -0.07929924 -0.07889459 -0.07843963 -0.0779589 -0.07745352
 -0.0769542 -0.07646198 -0.07599372 -0.07554941 -0.07513786 -0.07475729 -0.07440706 -0.07408125 -0.07376305 -0.07344969
 -0.07312505 -0.07279788 -0.07247413 -0.0721577 -0.07186265 -0.07156215 -0.07124836 -0.07088432 -0.07044514 -0.06994167
 -0.06936724 -0.06876113 -0.0681299 -0.06749818 -0.06686978 -0.06625673 -0.06566009 -0.06508733 -0.06453873 -0.06401896
 -0.06352758 -0.06306601 -0.06262929 -0.06220137 -0.06176922 -0.06128664 -0.06075098 -0.06012566 -0.05944134 -0.05872243
 -0.05799564 -0.05729966 -0.05662813 -0.0559901 -0.05536817 -0.05475638 -0.05414517 -0.05353007 -0.0529095 -0.05228298
 -0.05164726 -0.05100264 -0.0503384 -0.04965381 -0.04894057 -0.04819923 -0.04744367 -0.04667683 -0.0459299 -0.04520128
 -0.04450259 -0.04382634 -0.04315686 -0.04249074 -0.04181356 -0.04112678 -0.0404281 -0.03971478 -0.03898339 -0.0382325
 -0.03745661 -0.03666874 -0.03587272 -0.03508027 -0.03429887 -0.03351755 -0.03273575 -0.03194051 -0.03112781 -0.03031598
 -0.02950564 -0.02872586 -0.02797699 -0.02725982 -0.02657112 -0.02588604 -0.02520147 -0.02448924 -0.02375213 -0.02298023
 -0.02218505 -0.02138402 -0.0205855 -0.01981309 -0.01905453 -0.01831191 -0.01755702 -0.01676987 -0.01594186 -0.01505629
 -0.01414662 -0.01321689 -0.01230598 -0.01142464 -0.01057963 -0.009775258 -0.008988989 -0.008219986 -0.007436 -0.006635993
 -0.005804834 -0.004944937 -0.004069332 -0.003180169 -0.002295099 -0.001411317 -0.0005290649 0.0003529403 0.001239669 0.002124375
 0.003000241 0.003861294 0.00469704 0.005512745 0.006306576 0.007091477 0.007872262 0.008659489 0.009458559 0.01026864
 0.01109193 0.01191591 0.01273903 0.0135545 0.01436124 0.01516961 0.01598014 0.01680433 0.01764104 0.01848539
 0.01933612 0.0201843 0.02103124 0.02187712 0.02272119 0.02356323 0.02439913 0.02522238 0.02603252 0.02682576
 0.02760619 0.02837534 0.02913656 0.02989108 0.03064322 0.03139327 0.03215005 0.0329149 0.03369671 0.0344971
 0.03531849 0.03616161 0.03701644 0.03788198 0.0387337 0.03957056 0.04037119 0.04113893 0.04187681 0.04259038
 0.04329877 0.04400175 0.04470876 0.04541532 0.04611813 0.04681656 0.04750813 0.04819522 0.04887844 0.04956046
 0.05024166 0.05092776 0.05162091 0.05232348 0.05303816 0.05375339 0.05446844 0.0551696 0.05585534 0.0565283
 0.05718884 0.05784936 0.05850983 0.05917554 0.05984512 0.06051549 0.0611847 0.06184576 0.06249707 0.06313039
 0.06374993 0.06435612 0.06495865 0.06556869 0.06618728 0.06682202 0.06745873 0.06809347 0.06871298 0.06931085
 0.06988721 0.07044025 0.07097674 0.07149666 0.07201131 0.07252118 0.07304338 0.07357861 0.07413743 0.07471874
 0.07531714 0.07593146 0.07655302 0.07718243 0.07781821 0.07845879 0.07910202 0.07974198 0.08037022 0.08098038
 0.081563 0.08211553 0.08263221 0.08311726 0.08356946 0.08399993 0.08441132 0.08481415 0.0852114 0.08560649
 0.08600011 0.08639427 0.08678897 0.08719066 0.08759971 0.08802368 0.08846273 0.08892176 0.08939963 0.08989532
 0.09040391 0.09091127 0.09141052 0.09187845 0.09231772 0.0927177 0.09309623 0.09346583 0.09384395 0.09425035
 0.09467972 0.09514011 0.09560114 0.09605621 0.09647647 0.09685129 0.09718583 0.09747648 0.09776011 0.09803976
 0.09833393 0.09864247 0.0989331 0.09920328 0.09941214 0.09956647 0.09967561 0.09975249 0.09984342 0.09995179
 0.1001091 0.1003072 0.1005486 0.100823 0.1011217 0.1014352 0.1017537 0.1020755 0.1023937 0.1027249
 0.1030727 0.1034523 0.1038735 0.1043063 0.1047527 0.1051411 0.1054654 0.1056776 0.1057765 0.1057886
 0.1057203 0.1056446 0.105563 0.1055235 0.1055179 0.1055434 0.105597 0.1056671 0.105765 0.1059051
 0.1060877 0.1063291 0.1065928 0.1068631 0.1070958 0.1072578 0.1073571 0.1073788 0.1073885 0.1073962
 0.1074609 0.1075967 0.1077966 0.108064 0.1083276 0.1085836 0.1087492 0.108825 0.1087802 0.1086283
 0.1084163 0.1081644 0.1079615 0.1078157 0.1077936 0.107875 0.1080676 0.1083251 0.1086073 0.1088683
 0.1090579 0.1091722 0.1091858 0.1091502 0.1090719 0.1090159 0.108999 0.1090507 0.1091787 0.1093842
 0.1096676 0.1100348 0.110486 0.1110199 0.111631 0.1122666 0.1129119 0.1134632 0.113913 0.114173
 0.1142665 0.1141879 0.1139936 0.1137598 0.1135412 0.1134312 0.1134297 0.1135829 0.1138155 0.1141143
 0.1143736 0.1145539 0.1145966 0.1144718 0.114213 0.1138137 0.1133726 0.1128968 0.1124711 0.1120994
 0.1118002 0.1115708 0.111387 0.1112489 0.1111438 0.1110773 0.1110627 0.111099 0.1111975 0.1113355
 0.1114937 0.1116245 0.1116755 0.1116012 0.1113432 0.110912 0.1102799 0.1095362 0.1086944 0.1078691
 0.1070898 0.106419 0.1058742 0.1054483 0.1051446 0.1049126 0.1047492 0.1045776 0.1043941 0.1041297
 0.1037926 0.1033852 0.1029298 0.1025051 0.102116 0.1018252 0.1015944 0.1013983 0.101188 0.1008928
 0.1005134 0.1000129 0.09945707 0.09886036 0.09830792 0.09783451 0.09748033 0.09727138 0.0971608 0.09715455
 0.09713113 0.09708165 0.09689564 0.09656798 0.09609204 0.09547658 0.09481661 0.09412159 0.09349467 0.09293035
 0.09246755 0.09209003 0.09178209 0.09152835 0.09129938 0.0910838 0.09085882 0.09061858 0.0903501 0.09005798
 0.08973933 0.08940688 0.08906405 0.0887213 0.08838227 0.08804887 0.08772242 0.08739828 0.08707631 0.08675025
 0.08641975 0.0860817 0.08573636 0.08538571 0.08503036 0.08467483 0.08431931 0.08396722 0.08361736 0.08326926
 0.08292046 0.08256686 0.08220689 0.08183643 0.08145768 0.08107007 0.08067872 0.0802861 0.07989568 0.07950991
 0.07912706 0.07874778 0.07836638 0.07798213 0.07759053 0.07719076 0.07678565 0.07637534 0.07596894 0.07556656
 0.07517305 0.07478695 0.07440254 0.07401859 0.07362676 0.07322916 0.07282614 0.07242109 0.0720204 0.07162368
 0.07123282 0.07084695 0.0704625 0.07009085 0.06973254 0.06941317 0.06914306 0.0689342 0.06879932 0.06869684
 0.06862889 0.06850628 0.06832116 0.06800574 0.06755637 0.06699148 0.0663185 0.06563249 0.06494226 0.06434957
 0.06384985 0.06348838 0.06323984 0.0630757 0.06295731 0.06280975 0.06261177 0.06229986 0.06190404 0.06141574
 0.06090252 0.06039972 0.05994394 0.05956573 0.05923502 0.05895186 0.05867676 0.05839788 0.05813708 0.05789266
 0.05772823 0.05764709 0.05766765 0.05778368 0.05792341 0.05807426 0.05812336 0.05807154 0.05785357 0.05749649
 0.05702498 0.05647723 0.0559289 0.05539407 0.05492517 0.05449892 0.05411461 0.05374818 0.0533793 0.05302204
 0.05267418 0.05236334 0.05210171 0.05187374 0.05168276 0.05147937 0.05125747 0.05100689 0.05072682 0.05046995
 0.05023875 0.05008225 0.04999389 0.0499614 0.04997359 0.0499823 0.04998622 0.04995641 0.04990151 0.04982393
 0.04972838 0.04962558 0.04950405 0.04936385 0.04917649 0.048928 0.04859443 0.04815666 0.04763477 0.04701972
 0.04639025 0.04575381 0.04519811 0.04473519 0.04438281 0.0441427 0.0439412 0.04377238 0.04353618 0.04323533
 0.04282986 0.04233864 0.04180581 0.04125167 0.04075046 0.04030168 0.03994357 0.03965203 0.03941657 0.03920939
 0.03900383 0.03878741 0.03854365 0.03827899 0.03798934 0.03769514 0.03739978 0.03712387 0.0368738 0.03664247
 0.03643228 0.03619908 0.03594048 0.0356189 0.03523641 0.03481301 0.03435597 0.03392382 0.03351334 0.03314864
 0.03281152 0.03246811 0.0321093 0.03169673 0.03125088 0.03077632 0.03030497 0.02986668 0.02947219 0.02913864
 0.02885536 0.02862145 0.02842985 0.02827748 0.02816703 0.0280999 0.0280686 0.02807448 0.02808524 0.02809925
 0.02806724 0.02798717 0.02781846 0.02756491 0.02722513 0.02681299 0.02637569 0.02593029 0.02554361 0.02522005
 0.02500112 0.02487272 0.02483664 0.02487251 0.02496327 0.02509921 0.02526883 0.02547461 0.0257163 0.0259918
 0.02630389 0.02663194 0.02697404 0.02730557 0.02762186 0.02793215 0.02823634 0.0285927 0.02900467 0.02953669
 0.03018439 0.0309571 0.03183846 0.03277371 0.0337477 0.03469289 0.03561011 0.03646719 0.03727899 0.03805
 0.038795 0.03952823 0.04025671 0.04098849 0.04172492 0.0424694 0.04321668 0.04396913 0.04470556 0.04542562
 0.04609229 0.04670221 0.04722302 0.04765239 0.04798699 0.04822834 0.04840068 0.0485057 0.0485671 0.04858285
 0.0485557 0.04848744 0.04837744 0.04824407 0.0481137 0.04801425 0.04799305 0.04805625 0.04823337 0.04849285
 0.04882855 0.04920071 0.04958952 0.04998377 0.05037463 0.05077214 0.05117786 0.05159218 0.05201634 0.05243668
 0.05285253 0.05324769 0.05362082 0.05394913 0.05423031 0.05443486 0.05456649 0.05461743 0.05460618 0.05457202
 0.05453815 0.05456964 0.05465994 0.05484729 0.05505658 0.05526444 0.05532473 0.05516026 0.05462823 0.05364052
 0.05218113 0.05019931 0.0478684 0.04518998 0.04244956 0.03967445 0.03710188 0.03474932 0.0326991 0.0309481
 0.02944384 0.02817636 0.02705434 0.02607398 0.02517363 0.0243524 0.02357935 0.02284957 0.02214032 0.0214493
 0.02076114 0.02008726 0.01942924 0.01880663 0.01823217 0.01771489 0.01726369 0.01687125 0.0165382 0.01625247
 0.01601155 0.01581077 0.01564848 0.01553306 0.0154648 0.01546149 0.01552287 0.0156494 0.01583312 0.01602328
 0.01620483 0.01628863 0.0162709 0.01608859 0.01576548 0.01530836 0.0147575 0.01416455 0.01355968 0.0129878
 0.01245727 0.01198664 0.01157004 0.01120868 0.01089797 0.01063344 0.01043012 0.01028596 0.01024321 0.01030725
 0.01050243 0.0108328 0.01121243 0.01162897 0.01185378 0.01186993 0.01143313 0.0105664 0.009208527 0.007441761
 0.005439148 0.003290306 0.001245358 -0.0006746034 -0.002326599 -0.0037704 -0.005003427 -0.006102629 -0.007118525 -0.00808106
 -0.00901992 -0.009919268 -0.01078107 -0.01158456 -0.01232475 -0.01299867 -0.01360432 -0.01415424 -0.0146489 -0.01510758
 -0.01553129 -0.01593827 -0.01632887 -0.01671449 -0.01709462 -0.01747437 -0.01785101 -0.01822145 -0.0185797 -0.01891269
 -0.01921841 -0.01948488 -0.01972493 -0.01994205 -0.02015886 -0.02039154 -0.02064851 -0.02094205 -0.02125267 -0.02158052
 -0.02189256 -0.0221821 -0.02243148 -0.02263591 -0.02280902 -0.02295093 -0.0230943 -0.02324016 -0.02340744 -0.02359346
 -0.02378672 -0.02398493 -0.02416957 -0.02434694 -0.0245231 -0.02470821 -0.02492727 -0.02517713 -0.02546908 -0.02578224
 -0.02610421 -0.02641198 -0.02668678 -0.02692005 -0.02710146 -0.02723909 -0.02733043 -0.02739765 -0.02744222 -0.0274956
 -0.02756143 -0.02766318 -0.02780319 -0.02797765 -0.02818545 -0.02840155 -0.02862494 -0.02883593 -0.02903626 -0.02922331
 -0.02939803 -0.02956249 -0.02971476 -0.02985152 -0.0299729 -0.03007656 -0.03016641 -0.03024572 -0.03031551 -0.03037827
 -0.03043061 -0.03046983 -0.03050097 -0.03052159 -0.03055338 -0.03059915 -0.03068085 -0.03080306 -0.03096169 -0.03115755
 -0.03135816 -0.03156176 -0.03173389 -0.03187578 -0.03197934 -0.03205057 -0.03211044 -0.03216408 -0.03223848 -0.03233035
 -0.03244889 -0.03258165 -0.03271645 -0.03284268 -0.03294327 -0.03302331 -0.03307726 -0.03312517 -0.03317394 -0.03323926
 -0.03332931 -0.03344078 -0.03357544 -0.0337208 -0.03387506 -0.03403493 -0.03419989 -0.03437464 -0.03455904 -0.03474917
 -0.03494352 -0.03512774 -0.03530204 -0.03545851 -0.03560092 -0.03573604 -0.03586642 -0.03600164 -0.0361384 -0.03627702
 -0.03641172 -0.0365364 -0.03665011 -0.03674893 -0.03683902 -0.03692114 -0.03700406 -0.0370907 -0.03718572 -0.03729139
 -0.03740409 -0.03752423 -0.03764238 -0.03775789 -0.03786425 -0.03796138 -0.03805068 -0.03813233 -0.03820885 -0.03827962
 -0.03834258 -0.03839834 -0.03844593 -0.03849015 -0.03853925 -0.0385985 -0.03867994 -0.03878164 -0.03890811 -0.03904961
 -0.03920177 -0.03935562 -0.03950601 -0.03964884 -0.03978217 -0.039903 -0.04001053 -0.04010233 -0.04017737 -0.04024072
 -0.04029235 -0.04034603 -0.04040246 -0.04047506 -0.04056342 -0.04067058 -0.04079448 -0.04092792 -0.04106845 -0.04120517
 -0.04133723 -0.04145727 -0.04156708 -0.04166564 -0.04175598 -0.04184097 -0.04192139 -0.04199921 -0.04207228 -0.04213988
 -0.04220134 -0.04225511 -0.04230709 -0.04235731 -0.04241613 -0.04248492 -0.04256993 -0.04267203 -0.04278667 -0.04291335
 -0.04303922 -0.0431635 -0.04327369 -0.04337057 -0.04345009 -0.04351522 -0.04357174 -0.04362382 -0.04368246 -0.04375002
 -0.04383554 -0.04393595 -0.04405305 -0.04417877 -0.04430877 -0.04443594 -0.04455529 -0.04466614 -0.04476662 -0.04486093
 -0.04494961 -0.045036 -0.04512065 -0.04520473 -0.04528829 -0.04537298 -0.0454589 -0.04554867 -0.0456422 -0.04574001
 -0.04584149 -0.04594417 -0.04604727 -0.04614725 -0.04624372 -0.046334 -0.04641867 -0.0464967 -0.04657077 -0.04664239
 -0.04671574 -0.04679421 -0.04687971 -0.04697488 -0.04707639 -0.04718454 -0.0472926 -0.04739936 -0.04749951 -0.047592
 -0.04767566 -0.04775017 -0.0478188 -0.04788177 -0.04794469 -0.04800767 -0.04807426 -0.04814384 -0.04821546 -0.04828826
 -0.04835888 -0.04842754 -0.04849278 -0.04855593 -0.04861825 -0.04868087 -0.04874565 -0.04881225 -0.04888142 -0.0489512
 -0.04902074 -0.04908909 -0.04915513 -0.04922149 -0.04928825 -0.04935956 -0.04943641 -0.04951763 -0.04960348 -0.04968627
 -0.04976563 -0.04983488 -0.04989441 -0.04994478 -0.04998707 -0.05002678 -0.05006444 -0.05010441 -0.0501468 -0.05019356
 -0.05024548 -0.05030421 -0.05037087 -0.05044792 -0.05053341 -0.05062818 -0.05072552 -0.05082327 -0.05091381 -0.0509938
 -0.05106105 -0.0511138 -0.05115626 -0.05118845 -0.05121669 -0.05124139 -0.05126869 -0.05129891 -0.05133745 -0.05138422
 -0.05144095 -0.05150668 -0.05157772 -0.05165326 -0.05172837 -0.05180407 -0.05187966 -0.05195764 -0.05204147 -0.05213249
 -0.05223411 -0.05234423 -0.05246358 -0.05258609 -0.05270958 -0.05282776 -0.05293753 -0.05303846 -0.05312921 -0.05321519
 -0.05329708 -0.05337814 -0.05345899 -0.05353463 -0.05360478 -0.05366243 -0.05370816 -0.05374429 -0.05377317 -0.05380804
 -0.05385002 -0.05391097 -0.05398712 -0.05407717 -0.05417509 -0.05427049 -0.05436257 -0.05444534 -0.05452403 -0.05460081
 -0.05467873 -0.05476117 -0.05484398 -0.05492669 -0.05500495 -0.05507702 -0.05514492 -0.05520851 -0.05527189 -0.05533551
 -0.05539938 -0.05546346 -0.0555258 -0.05558648 -0.0556454 -0.0557028 -0.05575997 -0.05581686 -0.05587399 -0.05593114
 -0.05598805 -0.05604466 -0.0561003 -0.05615613 -0.05621272 -0.05627213 -0.05633644 -0.05640526 -0.05647985 -0.05655575
 -0.05663178 -0.05670452 -0.05677219 -0.05683799 -0.05690193 -0.05696878 -0.05703922 -0.05711105 -0.0571841 -0.05725003
 -0.05730877 -0.05735616 -0.05739347 -0.05742491 -0.05745191 -0.05748141 -0.05751326 -0.05755065 -0.05759237 -0.05763792
 -0.05768644 -0.05773683 -0.05778855 -0.05784098 -0.05789348 -0.05794564 -0.05799682 -0.05804675 -0.05809492 -0.05814125
 -0.05818504 -0.05822624 -0.05826405 -0.05829839 -0.05832922 -0.05835656 -0.05838201 -0.05840584 -0.05843124 -0.0584588
 -0.05849342 -0.05853521 -0.05858771 -0.05864921 -0.05871852 -0.0587921 -0.05886406 -0.0589322 -0.05899125 -0.05904286
 -0.05908588 -0.0591247 -0.05916119 -0.05919847 -0.05923835 -0.05928079 -0.05932644 -0.05937268 -0.05941939 -0.05946313
 -0.05950364 -0.05953763 -0.05956495 -0.05958527 -0.05959914 -0.05961177 -0.05962484 -0.05964965 -0.05968776 -0.05975034
 -0.05983746 -0.05995462 -0.06010136 -0.06027876 -0.06048784 -0.06072997 -0.06100612 -0.06131861 -0.06166383 -0.06204159
 -0.06244487 -0.06287046 -0.06331743 -0.06378336 -0.0642788 -0.0648049 -0.06537057 -0.06597763 -0.06661634 -0.06728597
 -0.06795266 -0.06861188 -0.06920592 -0.06972567 -0.07009331 -0.07030041 -0.07027271 -0.07001951 -0.06950793 -0.06879459
 -0.06793628 -0.06702312 -0.06617615 -0.06544109 -0.06489699 -0.06453157 -0.06436191 -0.06435527 -0.0645091 -0.06477555
 -0.06515213 -0.0655543 -0.06597383 -0.06631251 -0.06655866 -0.0666844 -0.06668835 -0.06661139 -0.06645679 -0.06627207
 -0.06606082 -0.06586736 -0.06569266 -0.06556711 -0.06548102 -0.06542997 -0.06539889 -0.06536162 -0.06531056 -0.06522655
 -0.06511069 -0.06495603 -0.06477175 -0.06455772 -0.06433311 -0.06410356 -0.06388659 -0.06368844 -0.06351233 -0.06336027
 -0.06322686 -0.06311186 -0.06301058 -0.06292276 -0.06284229 -0.06276875 -0.06269462 -0.06262059 -0.06254601 -0.06247303
 -0.06240934 -0.06235506 -0.06231531 -0.06228654 -0.0622656 -0.06224892 -0.06223068 -0.06221118 -0.06218823 -0.06216492
 -0.06214215 -0.06212276 -0.06210807 -0.06209909 -0.06209641 -0.06209959 -0.06210867 -0.0621229 -0.06214225 -0.0621658
 -0.0621935 -0.06222209 -0.06225123 -0.06227578 -0.06229593 -0.06230955 -0.06231817 -0.06232595 -0.06233408 -0.0623482
 -0.0623665 -0.06238923 -0.06241266 -0.06243213 -0.06244701 -0.0624542 -0.06245789 -0.06245925 -0.06246235 -0.06246976
 -0.06247985 -0.06249315 -0.06250497 -0.06251436 -0.06252045 -0.06252284 -0.06252468 -0.06252612 -0.0625292 -0.06253383
 -0.06253919 -0.06254525 -0.0625515 -0.06255809 -0.06256534 -0.06257322 -0.06258154 -0.06259084 -0.0626016 -0.0626151
 -0.06263356 -0.06265575 -0.06268265 -0.06270883 -0.06273174 -0.06274736 -0.06275216 -0.062751 -0.06274331 -0.06273987
 -0.06274255 -0.06275693 -0.06278428 -0.06281878 -0.06286018 -0.06289761 -0.06293085 -0.06295445 -0.06296936 -0.06297866
 -0.06298316 -0.06298798 -0.06299215 -0.06299596 -0.06299809 -0.06299581 -0.06299033 -0.06298126 -0.06297221 -0.06296586
 -0.06296458 -0.06297091 -0.06298378 -0.06300373 -0.06302771 -0.06305524 -0.06308337 -0.0631116 -0.06313803 -0.06316243
 -0.06318399 -0.06320266 -0.06321868 -0.06323206 -0.06324301 -0.0632517 -0.06325886 -0.0632652 -0.06327341 -0.06328435
 -0.06330197 -0.06332543 -0.06335582 -0.06339015 -0.06342534 -0.06345934 -0.06348871 -0.06351539 -0.06353917 -0.0635634
 -0.06358977 -0.0636182 -0.06364949 -0.0636799 -0.06370894 -0.06373397 -0.0637546 -0.06377079 -0.06378253 -0.06379053
 -0.06379484 -0.0637959 -0.0637942 -0.06379254 -0.06379184 -0.06379726 -0.06380883 -0.06382997 -0.06385832 -0.06389182
 -0.0639274 -0.06396002 -0.06399003 -0.06401507 -0.06403952 -0.06406526 -0.06409519 -0.06413188 -0.06417205 -0.06421594
 -0.06425735 -0.06429505 -0.06432637 -0.06435062 -0.06437012 -0.06438493 -0.06439911 -0.06441277 -0.06442846 -0.06444599
 -0.06446551 -0.06448687 -0.06450948 -0.06453357 -0.06455953 -0.06458724 -0.06461724 -0.06464779 -0.06467741 -0.06470376
 -0.0647238 -0.0647384 -0.06474597 -0.06475244 -0.06475922 -0.06477282 -0.06479581 -0.06482848 -0.06487212 -0.06491923
 -0.06496949 -0.06501269 -0.06504817 -0.06507124 -0.06508221 -0.06508475 -0.06507983 -0.06507529 -0.06507159 -0.06507469
 -0.06508432 -0.06510291 -0.06512986 -0.06516562 -0.06520865 -0.06525783 -0.06531038 -0.06536382 -0.0654158 -0.06546399
 -0.06550862 -0.06554883 -0.06558717 -0.06562413 -0.06566158 -0.06570017 -0.06573904 -0.06577829 -0.06581537 -0.06585014
 -0.06588179 -0.06591053 -0.0659394 -0.06596905 -0.06600536 -0.06604831 -0.06610168 -0.06616366 -0.06623228 -0.06630445
 -0.06637394 -0.06643895 -0.0664942 -0.06654117 -0.06657845 -0.0666106 -0.0666392 -0.06666978 -0.066705 -0.06674763
 -0.06679978 -0.06685781 -0.06692213 -0.06698424 -0.06704333 -0.06709282 -0.06713218 -0.06716219 -0.06718322 -0.06720119
 -0.0672166 -0.0672354 -0.0672579 -0.06728855 -0.0673271 -0.06737564 -0.06743271 -0.06749702 -0.06756667 -0.06763842
 -0.06771223 -0.0677868 -0.06786311 -0.067942 -0.06802194 -0.06810328 -0.06818141 -0.0682552 -0.06832132 -0.06837852
 -0.06842862 -0.06847133 -0.06851282 -0.06855346 -0.06859846 -0.06864773 -0.0686999 -0.06875411 -0.06880358 -0.0688484
 -0.06888466 -0.06891456 -0.06894138 -0.06896776 -0.06900036 -0.06903934 -0.06908814 -0.06914438 -0.06920733 -0.06927466
 -0.06934463 -0.06941648 -0.06948942 -0.0695636 -0.0696393 -0.06971481 -0.06979021 -0.06986148 -0.06992811 -0.06998789
 -0.07004054 -0.07008915 -0.07013399 -0.0701806 -0.07022881 -0.07028037 -0.07033438 -0.07038811 -0.0704412 -0.07049104
 -0.07053848 -0.07058378 -0.07062808 -0.07067313 -0.07071902 -0.07076649 -0.07081518 -0.07086484 -0.07091602 -0.07096869
 -0.07102407 -0.07108283 -0.07114384 -0.07120741 -0.07126938 -0.0713293 -0.07138424 -0.07143392 -0.07148027 -0.07152346
 -0.07156727 -0.07161163 -0.0716581 -0.07170618 -0.07175457 -0.07180291 -0.07184938 -0.07189432 -0.07193733 -0.07197943
 -0.07202189 -0.072065 -0.07211007 -0.07215512 -0.07219962 -0.07224084 -0.0722768 -0.07230891 -0.07233635 -0.07236493
 -0.07239578 -0.07243173 -0.07247373 -0.07251728 -0.07256217 -0.07260239 -0.07263789 -0.07266802 -0.07269336 -0.07271776
 -0.07274148 -0.07276745 -0.0727957 -0.07282748 -0.07286347 -0.07290545 -0.07295402 -0.07301138 -0.07307565 -0.07314704
 -0.07322031 -0.07329316 -0.0733592 -0.07341474 -0.07345816 -0.073487 -0.07350783 -0.07352065 -0.07353654 -0.07355684
 -0.07358834 -0.07363173 -0.07368486 -0.07374745 -0.07381278 -0.07388063 -0.0739461 -0.07400946 -0.07406901 -0.07412527
 -0.07417849 -0.07422972 -0.07428119 -0.07433296 -0.07438698 -0.07444001 -0.07449012 -0.07453384 -0.07456739 -0.07459307
 -0.07460997 -0.07462455 -0.07463863 -0.07465586 -0.07467758 -0.07470296 -0.07473224 -0.07476218 -0.07479259 -0.07481968
 -0.07484334 -0.0748623 -0.07487713 -0.07489152 -0.07490618 -0.07492673 -0.07495224 -0.0749834 -0.07501828 -0.07505313
 -0.07508777 -0.07511979 -0.0751515 -0.07518427 -0.0752194 -0.07525909 -0.07530024 -0.07534245 -0.07538147 -0.07541525
 -0.07544475 -0.07546922 -0.07549429 -0.0755208 -0.07555012 -0.07558259 -0.07561238 -0.07563937 -0.07566069 -0.07567756
 -0.07569835 -0.07572418 -0.07576571 -0.07582011 -0.07588662 -0.07595844 -0.07602197 -0.07607358 -0.07610042 -0.07610908
 -0.07609956 -0.07608312 -0.07606754 -0.07605758 -0.07605839 -0.07606605 -0.07608071 -0.07609724 -0.07611423 -0.07613147
 -0.07614862 -0.07616755 -0.07618836 -0.0762125 -0.07624014 -0.07627546 -0.07631846 -0.07637271 -0.07643545 -0.07649738
 -0.07655405 -0.07658599 -0.07659576 -0.07657669 -0.07653905 -0.07649424 -0.07644841 -0.07641194 -0.07638513 -0.07637094
 -0.07636884 -0.07637969 -0.07640113 -0.07643399 -0.07646947 -0.0765067 -0.07653478 -0.07655213 -0.0765533 -0.07653762
 -0.07650675 -0.07646098 -0.07640752 -0.0763472 -0.07628994 -0.07623609 -0.07619287 -0.07615956 -0.07613818 -0.07612715
 -0.07612518 -0.07612906 -0.07613482 -0.07613767 -0.07613121 -0.07611453 -0.07608365 -0.07604454 -0.07599851 -0.07595161
 -0.07590665 -0.07586342 -0.07582279 -0.07578085 -0.07573725 -0.07568846 -0.07563411 -0.07557414 -0.07550858 -0.07543933
 -0.07536571 -0.07528339 -0.07519041 -0.07507423 -0.07493649 -0.07477351 -0.07459249 -0.07440674 -0.07421932 -0.07404188
 -0.07386929 -0.07370076 -0.07353169 -0.07335707 -0.07318044 -0.07300121 -0.0728268 -0.07265968 -0.07250331 -0.07236006
 -0.07222348 -0.0720946 -0.07195208 -0.07179451 -0.07160208 -0.07137477 -0.07112587 -0.07085799 -0.07060058 -0.07035256
 -0.07012466 -0.06991322 -0.06971318 -0.06952192 -0.06933278 -0.0691423 -0.06894302 -0.06873289 -0.06850526 -0.06826623
 -0.06801797 -0.06776506 -0.06751406 -0.06725066 -0.06697377 -0.06666202 -0.06630854 -0.06591576 -0.06548226 -0.06502139
 -0.06453447 -0.06401877 -0.06347434 -0.06290198 -0.06230376 -0.06170053 -0.06109126 -0.06048593 -0.05987381 -0.05922801
 -0.05854044 -0.05777508 -0.0569479 -0.05606238 -0.05514458 -0.05422556 -0.05330735 -0.05240304 -0.05150016 -0.05059442
 -0.04968317 -0.04876386 -0.04784107 -0.0469192 -0.04597784 -0.04501981 -0.04397854 -0.04284853 -0.04159088 -0.04020698
 -0.03878881 -0.03734266 -0.03597113 -0.03465975 -0.03339297 -0.03215434 -0.03088383 -0.02958138 -0.02821908 -0.02680056
 -0.02532781 -0.02377955 -0.02214883 -0.02037738 -0.01842762 -0.01624816 -0.01378568 -0.01109775 -0.008168934 -0.005163181
 -0.002111137 0.0008692428 0.003753437 0.006522 0.00916891 0.01174261 0.01424802 0.01682196 0.01948044 0.02244744
 0.02570138 0.02929563 0.03311865 0.03683334 0.0404161 0.04361569 0.04656292 0.04934468 0.05205657 0.05484454
 0.05769645 0.06065203 0.0636671 0.06672365 0.06981754 0.0729533 0.07608521 0.07921246 0.08224756 0.08517116
 0.08799996 0.09073219 0.09343089 0.09609615 0.09865431 0.1010966 0.103295 0.1052714 0.1070565 0.1086991
 0.1103799 0.1120954 0.1139573 0.1158592 0.1176757 0.1193792 0.1208644 0.1222328 0.1235391 0.1248051
 0.1260779 0.1272651 0.1283455 0.129255 0.1299698 0.130498 0.1308369 0.1310056 0.1310049 0.1308554
 0.1305589 0.1301636 0.1296712 0.1291208 0.1285082 0.1278315 0.1270914 0.1262816 0.1254218 0.1245436
 0.1236798 0.1228952 0.1222 0.1216343 0.1211785 0.1208288 0.120575 0.1204087 0.1203349 0.120358
 0.1204612 0.1206443 0.1208755 0.1211485 0.1214598 0.1218076 0.1222122 0.1226744 0.1232061 0.1238059
 0.1244675 0.1251884 0.1259536 0.1267616 0.1275991 0.128469 0.1293689 0.1303061 0.1312903 0.1323267
 0.133425 0.134584 0.1358057 0.1370886 0.1384313 0.1398356 0.1413002 0.142834 0.1444381 0.1461243
 0.1478971 0.1497411 0.1516573 0.1535964 0.1555559 0.1575024 0.1594353 0.161345 0.1632171 0.1649765
 0.1665979 0.1679465 0.1690408 0.1698444 0.1704107 0.1708088 0.1710633 0.1712307 0.1713018 0.1712885
 0.1711735 0.1709613 0.1705986 0.1700857 0.1693005 0.1682081 0.1667695 0.1649473 0.1629865 0.1609059
 0.1588671 0.1568755 0.1548219 0.1527014 0.1504201 0.1479917 0.1454414 0.1427817 0.1400827 0.1373112
 0.1344561 0.1314137 0.1280066 0.12421 0.1198392 0.1151974 0.110442 0.1058167 0.1015531 0.09749147
 0.09362539 0.08980642 0.08597227 0.08220191 0.07849254 0.0749735 0.07166167 0.06853691 0.06559766 0.06272721
 0.05992408 0.05712892 0.05435554 0.05164778 0.04901669 0.04652915 0.04416936 0.04194014 0.039811 0.03773564
 0.03569596 0.03365994 0.03160603 0.02952518 0.02734829 0.02504143 0.02254529 0.01978209 0.01696048 0.01408155
 0.01151778 0.009356431 0.007555349 0.006131601 0.004787932 0.003510261 0.002129225 0.0006532466 -0.0008776672 -0.002445559
 -0.003923865 -0.005324655 -0.006621664 -0.007835879 -0.009016077 -0.01013741 -0.01119419 -0.01212876 -0.0128687 -0.01340163
 -0.01368382 -0.013759 -0.01363729 -0.01335761 -0.01293854 -0.01238952 -0.01172061 -0.0109068 -0.00995099 -0.008785521
 -0.007403315 -0.00576811 -0.003879152 -0.001886644 0.0001940857 0.002127498 0.003922293 0.005505218 0.006898555 0.008144655
 0.009243747 0.01021416 0.01105589 0.0117609 0.01237493 0.01292869 0.0135066 0.01419185 0.01500073 0.01599346
 0.01704441 0.01812084 0.01913566 0.02004789 0.02089914 0.02168692 0.0224783 0.02328028 0.0241209 0.02500172
 0.02590552 0.0268308 0.02775123 0.02867173 0.02960226 0.03055749 0.03159325 0.03271898 0.03399159 0.03539264
 0.0369194 0.03854963 0.04024813 0.04203145 0.04389958 0.04587352 0.04797564 0.05017408 0.05247089 0.05479994
 0.05714295 0.05947295 0.0617784 0.06409029 0.06641161 0.0687544 0.07111903 0.07340308 0.07559602 0.07753499
 0.07921994 0.08056788 0.08158711 0.08226772 0.08260459 0.08258275 0.08219112 0.08139937 0.08021805 0.07863794
 0.07669958 0.07442475 0.07186373 0.0690477 0.06600918 0.06276518 0.05933555 0.05571676 0.05198164 0.04812786
 0.04431632 0.04056125 0.03698863 0.03360585 0.03039403 0.02734763 0.0243846 0.02150985 0.01870733 0.01599478
 0.01343084 0.01101725 0.008794446 0.006737934 0.004828515 0.003038221 0.001328229 -0.0003183376 -0.001927591 -0.003503742
 -0.0050588 -0.006579962 -0.008067971 -0.009498939 -0.01086585 -0.0121602 -0.01337705 -0.01453499 -0.01563528 -0.01669471
 -0.0177143 -0.01867329 -0.0195687 -0.02035348 -0.02102919 -0.02157779 -0.02201046 -0.02235679 -0.02262724 -0.0228617
 -0.02306319 -0.02325404 -0.0234339 -0.0236101 -0.02378304 -0.02395418 -0.02412706 -0.02430216 -0.02448842 -0.02468732
 -0.02491327 -0.02516926 -0.02546942 -0.02581726 -0.02621505 -0.02666448 -0.027149 -0.02766779 -0.02820007 -0.02874602
 -0.02930381 -0.02987509 -0.03047101 -0.03108858 -0.03172515 -0.03237172 -0.033006 -0.03362025 -0.03419093 -0.03471684
 -0.03518713 -0.03560447 -0.03596691 -0.03627956 -0.03654345 -0.03676702 -0.0369526 -0.03711005 -0.03724135 -0.03735716
 -0.03745829 -0.03756066 -0.03766544 -0.03779058 -0.03793717 -0.03811431 -0.03832177 -0.03855788 -0.03882201 -0.03910995
 -0.03942128 -0.03975308 -0.04010367 -0.04046823 -0.04084361 -0.04122249 -0.04160265 -0.04197818 -0.04234976 -0.04271571
 -0.04307823 -0.04343852 -0.0437967 -0.04415377 -0.04450635 -0.04485369 -0.04519376 -0.04552582 -0.04585144 -0.04617095
 -0.04648268 -0.04678661 -0.04707445 -0.04734601 -0.04759621 -0.04782626 -0.04804139 -0.04824277 -0.04843839 -0.04862659
 -0.04880803 -0.04897918 -0.04913445 -0.04927109 -0.04938335 -0.04947107 -0.04953159 -0.04956773 -0.04957984 -0.04957218
 -0.04954625 -0.04950555 -0.04945096 -0.04938596 -0.04931076 -0.04923125 -0.04914772 -0.04906852 -0.04899414 -0.0489338
 -0.04888791 -0.04886445 -0.04886296 -0.04888514 -0.04892888 -0.04898727 -0.04905825 -0.04913265 -0.04921117 -0.04929055
 -0.04937291 -0.04945937 -0.04955216 -0.04965227 -0.04976514 -0.04989248 -0.05004406 -0.0502244 -0.05043804 -0.05068909
 -0.05096785 -0.05127467 -0.05159117 -0.05191541 -0.05223548 -0.05255048 -0.0528609 -0.05316708 -0.05347434 -0.05378268
 -0.05409447 -0.05440965 -0.05472913 -0.05505313 -0.05538355 -0.0557182 -0.05605533 -0.05638972 -0.05671388 -0.05702602
 -0.05732029 -0.05760307 -0.05787603 -0.05814583 -0.058417 -0.05868642 -0.05895467 -0.05921518 -0.05946584 -0.05971008
 -0.05994739 -0.06018968 -0.06043772 -0.06069591 -0.06096351 -0.06122867 -0.06148942 -0.06172607 -0.06193896 -0.06211759
 -0.06226652 -0.06239112 -0.06249756 -0.06259944 -0.06269936 -0.06280754 -0.06291926 -0.06303676 -0.0631461 -0.06324261
 -0.06330626 -0.06332871 -0.06329497 -0.06319802 -0.06303795 -0.06281257 -0.06253284 -0.06219947 -0.06182356 -0.06140579
 -0.06095672 -0.06047723 -0.05998228 -0.05947284 -0.05896366 -0.05845356 -0.05794684 -0.05743939 -0.0569233 -0.05639438
 -0.05584081 -0.05526276 -0.05465365 -0.05402146 -0.05336811 -0.05270879 -0.0520508 -0.0514116 -0.05079884 -0.05022697
 -0.04970143 -0.04922954 -0.04881437 -0.04845261 -0.04814509 -0.04787827 -0.0476515 -0.04744552 -0.04725906 -0.04706994
 -0.04687653 -0.04665644 -0.04640958 -0.04612262 -0.04579877 -0.04543941 -0.04504794 -0.04463214 -0.04419111 -0.04372734
 -0.04323784 -0.04271963 -0.04217463 -0.04160078 -0.04100879 -0.04040065 -0.03979201 -0.03918724 -0.03859798 -0.03802784
 -0.03747715 -0.03694705 -0.03642825 -0.03592031 -0.0354127 -0.03490506 -0.03439033 -0.03386912 -0.03334112 -0.03280917
 -0.03228394 -0.03176917 -0.03128114 -0.03081926 -0.03039149 -0.02999164 -0.02961618 -0.02925668 -0.0289062 -0.02855401
 -0.02819257 -0.02781272 -0.02740712 -0.02697921 -0.02652718 -0.02606283 -0.02558977 -0.02510419 -0.02460767 -0.02407702
 -0.02351081 -0.02289176 -0.02221998 -0.02149937 -0.02073168 -0.0199307 -0.01909862 -0.01824994 -0.01738965 -0.01653587
 -0.01569814 -0.01489952 -0.0141534 -0.01348418 -0.01290522 -0.01243674 -0.01208464 -0.01186047 -0.01175673 -0.01177648
 -0.01189794 -0.01211994 -0.01240486 -0.01274915 -0.01310286 -0.01346054 -0.01378128 -0.01406162 -0.01428973 -0.01446582
 -0.01459781 -0.01468603 -0.01473628 -0.01474787 -0.0147207 -0.01465453 -0.01454928 -0.01440362 -0.01421484 -0.01398265
 -0.01370193 -0.01338411 -0.01303147 -0.01267302 -0.0123224 -0.01201615 -0.01177159 -0.01161522 -0.01155941 -0.01161001
 -0.01177183 -0.01203277 -0.01239271 -0.01283403 -0.01335571 -0.01394017 -0.01458609 -0.01526896 -0.01598667 -0.0167109
 -0.01744222 -0.018167 -0.01888918 -0.01961331 -0.02034082 -0.02107684 -0.02182041 -0.02256953 -0.02333164 -0.02410902
 -0.02491966 -0.0257745 -0.02668813 -0.027671 -0.02872328 -0.02984841 -0.03103703 -0.03228828 -0.03359282 -0.03494968
 -0.0363508 -0.03779584 -0.03927092 -0.04077481 -0.04228358 -0.04379522 -0.04528322 -0.04674682 -0.04816878 -0.04954938
 -0.05088125 -0.05216341 -0.05339076 -0.05456215 -0.0556732 -0.05672601 -0.05772017 -0.05866023 -0.05954865 -0.0603895
 -0.06118478 -0.06193802 -0.06265013 -0.06332558 -0.06396463 -0.06457495 -0.06515668 -0.06572368 -0.06627678 -0.06683116
 -0.06738714 -0.06794757 -0.06851028 -0.06905989 -0.06959322 -0.07008795 -0.07054336 -0.07094496 -0.07129597 -0.07159458
 -0.07184717 -0.07206103 -0.07224208 -0.07239869 -0.07253285 -0.07264801 -0.07274513 -0.07282438 -0.07289041 -0.07294429
 -0.07299085 -0.07303145 -0.07306694 -0.0730974 -0.07312509 -0.07315008 -0.07317825 -0.07320963 -0.07324342 -0.07327826
 -0.0733026 -0.07331559 -0.0733071 -0.07327827 -0.07322755 -0.0731554 -0.07306224 -0.07294755 -0.07280973 -0.07265151
 -0.0724737 -0.07228241 -0.07208188 -0.07187578 -0.07166714 -0.07145587 -0.07124196 -0.07102765 -0.07081276 -0.07060309
 -0.07039945 -0.07020468 -0.07001922 -0.0698396 -0.06966573 -0.06949582 -0.06933083 -0.06917799 -0.06903837 -0.06892154
 -0.06882621 -0.06875399 -0.06870236 -0.06866699 -0.06864657 -0.0686384 -0.06863917 -0.06864696 -0.06865276 -0.06865118
 -0.0686328 -0.06859161 -0.0685248 -0.06842977 -0.06830879 -0.06816178 -0.06799157 -0.06779846 -0.06758477 -0.06735072
 -0.06709737 -0.06682476 -0.06653325 -0.06622317 -0.06589765 -0.06555758 -0.06520863 -0.06485154 -0.06449077 -0.06412802
 -0.06376813 -0.06341387 -0.06307194 -0.06274127 -0.0624246 -0.06211572 -0.06181075 -0.06150746 -0.06120287 -0.06090067
 -0.06060236 -0.06030601 -0.06001212 -0.05971416 -0.05941024 -0.05910668 -0.05880336 -0.05851764 -0.05825004 -0.05800465
 -0.05777969 -0.05756049 -0.05734615 -0.05712407 -0.05689613 -0.05666219 -0.05642227 -0.05617744 -0.05592435 -0.05565823
 -0.05537817 -0.05508042 -0.05476881 -0.05444533 -0.05411104 -0.05376836 -0.0534115 -0.05303864 -0.05264772 -0.05223614
 -0.05181525 -0.05138548 -0.05096297 -0.05054923 -0.0501493 -0.04976323 -0.04938691 -0.04902013 -0.04866004 -0.04830584
 -0.04795333 -0.04759948 -0.04723215 -0.04685111 -0.0464471 -0.04602921 -0.0456049 -0.04518605 -0.04478925 -0.04441429
 -0.04406945 -0.04373951 -0.04342042 -0.04309673 -0.04276168 -0.04241141 -0.04204307 -0.04166162 -0.04126678 -0.04086802
 -0.04046569 -0.04007487 -0.03969624 -0.03934167 -0.03900964 -0.03869185 -0.0383845 -0.03806321 -0.03772921 -0.03737118
 -0.03699791 -0.03662274 -0.03625073 -0.03589726 -0.03555672 -0.0352293 -0.03490877 -0.03458992 -0.03427241 -0.03395597
 -0.03363646 -0.03331421 -0.03297779 -0.03262408 -0.03225003 -0.03185305 -0.03144917 -0.03103894 -0.03064621 -0.03027193
 -0.02992597 -0.02960638 -0.029299 -0.02900093 -0.02868902 -0.02836552 -0.02802447 -0.02767137 -0.02731703 -0.02695951
 -0.02660236 -0.02623768 -0.02585589 -0.02546071 -0.0250475 -0.02463557 -0.02423236 -0.02385344 -0.023507 -0.02319344
 -0.02291486 -0.02266534 -0.02244462 -0.02224594 -0.02206906 -0.02190293 -0.02174689 -0.02158797 -0.02142581 -0.02125166
 -0.02106618 -0.0208676 -0.02065744 -0.02043969 -0.02021498 -0.01998737 -0.01975482 -0.01951596 -0.0192693 -0.01901186
 -0.01874601 -0.01847262 -0.01819325 -0.01790893 -0.0176202 -0.01732552 -0.0170346 -0.01674823 -0.01648051 -0.01623475
 -0.01600834 -0.01580189 -0.0156001 -0.01540245 -0.0152076 -0.01501651 -0.01484047 -0.01467697 -0.01452076 -0.01436513
 -0.01418529 -0.01397858 -0.0137255 -0.01343107 -0.01309343 -0.01272045 -0.01231952 -0.01189612 -0.01145565 -0.01100319
 -0.01053958 -0.01007928 -0.009624614 -0.009198134 -0.008807315 -0.008453962 -0.008142966 -0.007839354 -0.007541215 -0.007210016
 -0.006844126 -0.006435749 -0.005986354 -0.005507716 -0.005001951 -0.004483694 -0.003958012 -0.003447365 -0.00295848 -0.002517838
 -0.002125962 -0.001796315 -0.001523153 -0.001306326 -0.001137815 -0.001014427 -0.0009217472 -0.0008537222 -0.0007939991 -0.0007343792
 -0.0006726534 -0.0006061614 -0.0005408909 -0.000478839 -0.0004112549 -0.0003381307 -0.0002413365 -0.0001200704 3.148916E-05 0.0002127434
 0.0004197061 0.0006511373 0.0008992112 0.001162004 0.00142672 0.001697889 0.001976792 0.00227415 0.002611632 0.002982239
 0.003391052 0.003816398 0.004236853 0.00466322 0.005086938 0.005554161 0.006090546 0.00667171 0.007309929 0.007896399
 0.008410174 0.008837174 0.009171299 0.009469211 0.009733225 0.009977671 0.01019955 0.01036874 0.01048437 0.01052487
 0.0104954 0.01040184 0.01024862 0.0100478 0.009802777 0.009522824 0.009212537 0.008878598 0.008528663 0.008167694
 0.007809524 0.007461743 0.007135049 0.00683563 0.006564056 0.00631958 0.006112661 0.005942934 0.005835495 0.005794185
 0.005809923 0.005881791 0.005940582 0.005982172 0.00593445 0.005802179 0.005571322 0.005254544 0.004885804 0.00447529
 0.004063192 0.003651036 0.003260003 0.002883912 0.002521633 0.002174637 0.00183842 0.001532761 0.001268509 0.001051752
 0.0008935113 0.0007634092 0.0006551909 0.0005518719 0.0004450333 0.0003699526 0.0003285033 0.0003584218 0.0004614918 0.0006293607
 0.0008596786 0.001123568 0.001418004 0.001712642 0.002004316 0.002261331 0.002493639 0.002702252 0.002912207 0.003167305
 0.003472837 0.003861707 0.004298555 0.004771931 0.005237498 0.005667203 0.006043424 0.006351824 0.006596544 0.006774371
 0.00690086 0.006976086 0.007026635 0.007054343 0.007086884 0.00712581 0.007193145 0.007288575 0.0074191 0.007576955
 0.007724878 0.007849969 0.007880895 0.007827289 0.007664353 0.007435604 0.007199195 0.006987361 0.006868552 0.006823611
 0.006865614 0.00695213 0.007063367 0.007174235 0.007270281 0.007344869 0.007391372 0.007423175 0.007439059 0.00747056
 0.007521109 0.007604036 0.007720103 0.007845398 0.007977651 0.008082879 0.008159214 0.008178593 0.008140836 0.008025847
 0.007844638 0.007607823 0.007337519 0.007075536 0.006831477 0.006635226 0.006478512 0.006363569 0.006284459 0.006240391
 0.006220672 0.006227898 0.006224111 0.006201872 0.006127035 0.005988881 0.005802895 0.005567495 0.005329368 0.005090995
 0.004877505 0.004687728 0.004512582 0.00434952 0.004178434 0.004000134 0.003806179 0.003600348 0.003389572 0.00317105
 0.0029455 0.002703599 0.002428471 0.002134596 0.00181756 0.001524995 0.001282254 0.001116879 0.001052957 0.001063418
 0.001148209 0.001270774 0.001424706 0.001592966 0.001774896 0.001933854 0.002067735</values></Ydata></AB><ScSm><Ydata ylabel="Single channel"><values byteorder="INTEL" format="FLOAT32" numvalues="1814"> 0.07482138 0.0748425 0.07492116 0.07508475 0.07531007 0.07553244 0.0756911 0.0757722 0.07579823 0.0757836
 0.0757343 0.07569346 0.07573916 0.07590893 0.07614477 0.07632969 0.07638235 0.07633248 0.07630647 0.07640193
 0.07655376 0.07655434 0.07624801 0.07570736 0.07518633 0.07488768 0.07483695 0.07502682 0.0755387 0.07630762
 0.076864 0.07667489 0.07581972 0.07500434 0.07477726 0.07500676 0.07522163 0.07514699 0.07478012 0.07428911
 0.07407006 0.0746387 0.07612441 0.07785743 0.07860996 0.0773661 0.07404474 0.06974441 0.06634695 0.06550257
 0.06745661 0.07071611 0.07317564 0.07379846 0.07310897 0.07212813 0.07128755 0.0705556 0.07012448 0.07044255
 0.07158257 0.07282488 0.0730205 0.07156041 0.06910478 0.06713408 0.06660868 0.0673558 0.06884174 0.0707512
 0.07219084 0.07123934 0.06683855 0.06117777 0.0587088 0.06191064 0.06864893 0.07428384 0.07580231 0.07346734
 0.06943665 0.06598037 0.06466258 0.06591436 0.06892042 0.07230532 0.07498414 0.07622074 0.0754438 0.07274214
 0.06934215 0.06700161 0.06692912 0.06932668 0.07335123 0.07717118 0.07879671 0.07756326 0.0745762 0.07153316
 0.06960344 0.06944675 0.07137714 0.07501708 0.0792888 0.08305882 0.08560254 0.08664311 0.08639206 0.08542588
 0.08425407 0.08323986 0.0829085 0.08361551 0.08470961 0.08479459 0.08325832 0.08109433 0.07987547 0.08012801
 0.08091618 0.08097552 0.07998729 0.07834546 0.07589293 0.07193905 0.06683242 0.06233928 0.05987244 0.0594369
 0.06070365 0.06354189 0.06675014 0.06798655 0.06633192 0.06391531 0.06377971 0.0666386 0.07052802 0.07323104
 0.07432714 0.07502535 0.07659536 0.07906163 0.08103597 0.0807562 0.07783616 0.07424841 0.07292619 0.0748857
 0.07825916 0.08060138 0.0814677 0.08213115 0.08336145 0.08423309 0.08308306 0.0794773 0.07528464 0.07353263
 0.07577118 0.08051882 0.08433276 0.08435507 0.08023653 0.07422799 0.06942771 0.06763604 0.06885377 0.07244261
 0.07782715 0.08390883 0.08879401 0.09084632 0.08987653 0.08704295 0.08354107 0.0795067 0.07463747 0.07001068
 0.06830348 0.07124846 0.07739738 0.08332711 0.0866985 0.0874192 0.08628796 0.0835269 0.07901619 0.07371809
 0.07013658 0.07036516 0.07357056 0.07647726 0.07680392 0.07533368 0.07421219 0.0742513 0.07464181 0.07463257
 0.07459591 0.07540906 0.07722566 0.07915443 0.08013597 0.07990728 0.07903931 0.07825485 0.07777497 0.07717416
 0.07599684 0.07469454 0.07456066 0.07631183 0.07909157 0.08134592 0.08237103 0.08255494 0.08234917 0.08149513
 0.07941942 0.07633294 0.07367852 0.07305978 0.07468355 0.07723352 0.07924187 0.08014344 0.08011927 0.07955778
 0.07879845 0.07802546 0.077323 0.07690859 0.07707731 0.0777725 0.07849683 0.07881133 0.07868885 0.07828976
 0.07765618 0.07677556 0.07579642 0.0750304 0.07472873 0.07488889 0.07530074 0.07574021 0.0760443 0.07605979
 0.07569811 0.07506786 0.07441148 0.07388113 0.07348245 0.0732225 0.07316518 0.07330591 0.07350187 0.07358603
 0.07350145 0.07329258 0.07301058 0.07267158 0.07229147 0.071925 0.07165654 0.07153918 0.07153176 0.07152745
 0.07147793 0.07144408 0.07146944 0.07146133 0.07128531 0.07094423 0.07057988 0.07031602 0.07016455 0.07006752
 0.06996219 0.06978905 0.06948746 0.06904668 0.0685751 0.06826285 0.06823036 0.06843822 0.06875609 0.06905997
 0.06925105 0.06927291 0.06915888 0.06900198 0.06884632 0.0686542 0.06839257 0.06811157 0.0679255 0.06792377
 0.06808976 0.0683081 0.06846214 0.06851003 0.06847138 0.06839465 0.06834672 0.06836627 0.06840427 0.06836662
 0.06823321 0.06808903 0.06802559 0.06804299 0.06805907 0.06800249 0.06789254 0.06781746 0.06783243 0.06790399
 0.06796458 0.06799137 0.06801227 0.06805272 0.0680915 0.06807137 0.06796416 0.06781822 0.06771387 0.0676764
 0.06767037 0.06767427 0.06771202 0.06780015 0.0679034 0.06796548 0.06796932 0.0679479 0.06793515 0.06792137
 0.0678715 0.06777918 0.06768121 0.06761818 0.06759825 0.06759978 0.0675955 0.0675711 0.06752793 0.06747141
 0.0674009 0.06731282 0.06720756 0.06709269 0.06698906 0.0669301 0.06693323 0.06696603 0.06696004 0.0668714
 0.06672201 0.06657411 0.06646905 0.06639689 0.06632397 0.06623814 0.06615728 0.06610042 0.06606689 0.066043
 0.06601461 0.06597278 0.06592496 0.06590529 0.06595558 0.06608105 0.06623228 0.0663449 0.06639621 0.0664139
 0.06643657 0.06648006 0.06654061 0.06661514 0.06671151 0.06683961 0.06698932 0.06712331 0.06721011 0.0672655
 0.06734076 0.06746796 0.06763674 0.06782141 0.06800143 0.06815597 0.06827193 0.06836831 0.06848665 0.06864509
 0.06881897 0.06897613 0.06911553 0.06925924 0.0694207 0.06959847 0.06979644 0.07003158 0.07031403 0.07062668
 0.07092901 0.07118336 0.07138546 0.0715754 0.07181235 0.07212736 0.07249752 0.07286644 0.07319099 0.07347178
 0.07374182 0.07402746 0.07432686 0.07463124 0.07495292 0.07531306 0.07570833 0.07611112 0.0765022 0.07688478
 0.0772673 0.07764885 0.07802438 0.07839513 0.07877143 0.07916507 0.07957442 0.07997784 0.08035123 0.08069356
 0.08102822 0.08138132 0.08176242 0.08215595 0.08252379 0.08283128 0.08308828 0.08335245 0.08366995 0.08402143
 0.08435001 0.08463668 0.08492008 0.0852403 0.08559084 0.08593745 0.08626482 0.08658849 0.08692719 0.08727314
 0.08759028 0.08784296 0.08803213 0.08820049 0.08839647 0.08863939 0.08892602 0.08925403 0.08961704 0.08998506
 0.09031563 0.09058711 0.09080768 0.09099853 0.09118426 0.09138946 0.09162428 0.09187666 0.09212782 0.09236453
 0.09257326 0.09274866 0.09291835 0.09313127 0.09340565 0.09371383 0.09403148 0.09437115 0.09474571 0.09512949
 0.09549082 0.09584675 0.09624393 0.09668303 0.09709822 0.09742606 0.09766737 0.09786437 0.09804846 0.09824057
 0.09847908 0.09880243 0.09920399 0.0996322 0.100038 0.1004062 0.100745 0.1010628 0.1013582 0.1016212
 0.1018422 0.1020213 0.102172 0.1023179 0.1024865 0.1026927 0.1029202 0.1031239 0.1032582 0.1032988
 0.1032384 0.103083 0.1028641 0.1026359 0.1024304 0.1022166 0.1019215 0.1014918 0.1009235 0.1002367
 0.099445 0.09856089 0.09762327 0.09670827 0.09590867 0.09530008 0.09492487 0.09480388 0.09495039 0.09535493
 0.09595488 0.09663283 0.09725374 0.09770051 0.09788369 0.09774954 0.09730419 0.0966237 0.09582193 0.09500211
 0.09423088 0.09353498 0.09290969 0.09234726 0.09188053 0.09159762 0.09160843 0.09200527 0.0928576 0.09421033
 0.09604149 0.09820877 0.100465 0.1025615 0.1043582 0.1058492 0.1071073 0.1082189 0.1092527 0.110245
 0.1111915 0.112064 0.1128458 0.1135429 0.1141653 0.1147099 0.115164 0.1155154 0.1157632 0.1159265
 0.116041 0.1161402 0.1162469 0.116381 0.1165575 0.1167637 0.1169469 0.117036 0.1169778 0.1167569
 0.1163999 0.1159842 0.1156645 0.115687 0.1163292 0.1177453 0.1198301 0.1222443 0.1245982 0.1266305
 0.1282566 0.1295151 0.1304991 0.1313064 0.1320098 0.1326518 0.1332554 0.1338325 0.1343864 0.1349189
 0.135437 0.1359483 0.1364548 0.1369541 0.1374418 0.1379116 0.1383611 0.1388007 0.1392517 0.1397286
 0.140222 0.1407043 0.1411586 0.1415964 0.1420387 0.1424836 0.1429101 0.1433088 0.1436939 0.1440842
 0.1444905 0.1449158 0.1453498 0.1457647 0.146135 0.1464639 0.1467795 0.1471064 0.1474477 0.1477933
 0.1481349 0.1484709 0.1488008 0.1491262 0.1494558 0.1498008 0.1501561 0.1504953 0.1507964 0.151067
 0.1513353 0.1516196 0.1519156 0.1522096 0.1524989 0.1527999 0.1531347 0.1535061 0.1538847 0.1542284
 0.1545192 0.1547785 0.1550458 0.1553464 0.1556762 0.1560149 0.156345 0.1566604 0.1569637 0.1572612
 0.1575603 0.1578649 0.1581738 0.1584828 0.1587888 0.1590907 0.1593886 0.1596849 0.1599859 0.1603014
 0.1606381 0.1609899 0.1613367 0.1616564 0.1619412 0.1621999 0.1624474 0.1626942 0.1629444 0.1631999
 0.1634637 0.1637408 0.1640352 0.164344 0.1646577 0.1649649 0.1652591 0.1655415 0.1658188 0.1660976
 0.166384 0.1666827 0.1669951 0.1673146 0.1676301 0.1679334 0.1682224 0.1684984 0.1687672 0.1690375
 0.1693153 0.1696014 0.1698942 0.1701922 0.1704919 0.1707869 0.1710719 0.1713479 0.1716224 0.1719052
 0.1722007 0.1725021 0.1727984 0.1730855 0.1733667 0.1736465 0.1739271 0.1742092 0.1744933 0.1747797
 0.1750666 0.175349 0.1756242 0.175899 0.1761833 0.1764757 0.1767645 0.1770407 0.177307 0.1775723
 0.1778429 0.1781175 0.1783925 0.1786686 0.1789508 0.1792395 0.1795278 0.1798093 0.1800826 0.1803511
 0.1806223 0.1809043 0.181198 0.1814966 0.1817957 0.182095 0.1823918 0.1826813 0.1829627 0.18324
 0.1835191 0.1838064 0.1841048 0.1844081 0.1847051 0.1849873 0.1852525 0.1855074 0.1857657 0.1860364
 0.1863147 0.1865914 0.1868661 0.1871436 0.1874256 0.1877097 0.1879915 0.1882682 0.1885456 0.1888327
 0.1891289 0.1894251 0.1897189 0.1900157 0.190316 0.1906134 0.1909037 0.1911878 0.1914719 0.1917635
 0.1920634 0.1923646 0.1926628 0.1929586 0.1932502 0.1935342 0.1938135 0.1940932 0.1943741 0.1946584
 0.1949512 0.1952504 0.1955488 0.1958427 0.1961309 0.1964127 0.1966937 0.1969811 0.1972708 0.197555
 0.1978354 0.1981154 0.1983927 0.1986683 0.1989479 0.1992297 0.1995095 0.1997908 0.200075 0.2003562
 0.2006367 0.2009255 0.201219 0.2015062 0.2017866 0.2020652 0.202344 0.2026263 0.2029099 0.2031684
 0.2033434 0.2033033 0.2027316 0.2010072 0.1971856 0.1901775 0.1791808 0.1641932 0.1461959 0.1267998
 0.107646 0.08998285 0.07454989 0.0616737 0.0514222 0.04370694 0.03835276 0.03521173 0.03427816 0.03580152
 0.04041114 0.04874772 0.06006305 0.07097037 0.07675393 0.07508796 0.06825913 0.06108153 0.05689306 0.05593503
 0.05678387 0.05822586 0.05988587 0.0619956 0.06493437 0.06879811 0.07339196 0.07870361 0.08512887 0.09296595
 0.1018115 0.1107296 0.11906 0.1269348 0.1349604 0.1434805 0.1522124 0.1605252 0.1679388 0.1743589
 0.179981 0.1850741 0.18983 0.1943386 0.1986389 0.2027227 0.2064504 0.2095128 0.2115733 0.2125197
 0.2125949 0.2122684 0.2119597 0.2118664 0.2120025 0.2123282 0.2128162 0.2134488 0.2142071 0.2150654
 0.2159903 0.2169479 0.2179122 0.2188584 0.2197613 0.2206063 0.2213902 0.2221092 0.2227601 0.22335
 0.2238926 0.224398 0.2248736 0.2253279 0.2257658 0.2261868 0.2265906 0.2269764 0.227339 0.2276702
 0.2279644 0.228224 0.2284639 0.2287055 0.2289603 0.229225 0.2294921 0.2297581 0.2300192 0.2302729
 0.2305224 0.2307703 0.2310147 0.2312582 0.231511 0.2317756 0.23204 0.2322919 0.232533 0.232772
 0.2330146 0.2332612 0.2335091 0.2337528 0.2339894 0.2342216 0.2344554 0.2346964 0.2349456 0.2351982
 0.235452 0.2357154 0.2359976 0.2362919 0.2365825 0.2368632 0.2371356 0.2373996 0.2376588 0.2379232
 0.2381922 0.2384467 0.238671 0.2388756 0.2390886 0.2393305 0.2395979 0.2398726 0.2401437 0.2404149
 0.2406892 0.2409561 0.2412025 0.2414265 0.241642 0.2418788 0.2421663 0.2425021 0.2428507 0.2431853
 0.2435088 0.24383 0.2441496 0.2444704 0.2447888 0.2450755 0.2453016 0.2454903 0.245722 0.2460699
 0.2465281 0.2470066 0.2474127 0.2477322 0.2480193 0.2483326 0.2486993 0.2490921 0.2494048 0.2495247
 0.2494973 0.2495545 0.249903 0.2505227 0.2512203 0.2518287 0.2523105 0.2527129 0.253081 0.2534108
 0.2536584 0.2537922 0.2538602 0.2540097 0.2543888 0.2549906 0.2556403 0.2561747 0.2565747 0.2568996
 0.2571896 0.2574632 0.2576827 0.2576993 0.2574061 0.257016 0.2570076 0.257662 0.2587466 0.2597625
 0.2604379 0.2608693 0.2612447 0.2616102 0.2619209 0.2620834 0.2618462 0.2609453 0.2596231 0.2587693
 0.2591839 0.2607675 0.2626811 0.2641856 0.2651053 0.2656294 0.2659851 0.2662922 0.2664781 0.2662784
 0.2655292 0.2645717 0.2641787 0.2648447 0.2662286 0.2675196 0.2682686 0.268629 0.2689239 0.269283
 0.2695559 0.2692638 0.2678658 0.2655528 0.2636582 0.2637238 0.2659912 0.2691123 0.2714899 0.2726567
 0.2731523 0.2733425 0.2728788 0.2713212 0.268786 0.2658899 0.2635824 0.2630367 0.2648692 0.2681464
 0.2709116 0.2721195 0.2725174 0.2733781 0.2749684 0.2765492 0.2773554 0.2771963 0.2763098 0.2749319
 0.2731925 0.2715319 0.2709368 0.2722304 0.2750718 0.2780864 0.2801377 0.2811855 0.2816839 0.2812481
 0.2783921 0.2723234 0.2651798 0.2614237 0.2638913 0.2708194 0.2777401 0.2818694 0.2836103 0.2844465
 0.2849743 0.2847396 0.282468 0.2767383 0.2681957 0.2609752 0.2599123 0.2657517 0.2743044 0.280371
 0.2813222 0.2773901 0.2706865 0.264539 0.2621442 0.264645 0.2706402 0.2775671 0.2832325 0.2864051
 0.2868081 0.2849999 0.282311 0.2805141 0.2805514 0.2811232 0.2796639 0.2756003 0.2713379 0.2687151
 0.2661121 0.2613966 0.2566054 0.2565723 0.26267 0.2705503 0.2750567 0.2754472 0.2744148 0.2731439
 0.2692212 0.2600821 0.2478721 0.2394693 0.2404705 0.2494108 0.259095 0.2636445 0.2631611 0.2615796
 0.261397 0.2611291 0.257417 0.2494372 0.2410315 0.2374409 0.2396962 0.2436765 0.2449328 0.2422137
 0.2358151 0.2261178 0.2161664 0.2125464 0.2197577 0.2346361 0.2488976 0.2559938 0.2534281 0.2411245
 0.2222762 0.2052591 0.1995478 0.2072137 0.220407 0.2286096 0.2269543 0.2169698 0.2020652 0.1852662
 0.1706356 0.1635347 0.1673167 0.1799573 0.1943878 0.2020564 0.1975693 0.1828101 0.1671833 0.1608264
 0.1654674 0.1733626 0.1760585 0.1720809 0.1655878 0.1608954 0.1599616 0.1623542 0.1657626 0.1680523
 0.1689392 0.1677037 0.1608794 0.1464518 0.1296153 0.1194313 0.1193828 0.125452 0.1333939 0.1425879
 0.1515536 0.1553089 0.1510451 0.1435918 0.1413831 0.1475022 0.157004 0.162935 0.1631844 0.160899
 0.159486 0.1589011 0.1574163 0.1556782 0.1568127 0.162182 0.1690532 0.1736448 0.1750484 0.1749256
 0.1746606 0.174312 0.1735581 0.1722926 0.1705509 0.168611 0.1669224 0.1655796 0.1642293 0.1626031
 0.1604945 0.1569834 0.150676 0.1417499 0.1332164 0.1286063 0.1282993 0.1297031 0.1310552 0.1324755
 0.1324785 0.1269596 0.1146339 0.1015032 0.0965145 0.1029492 0.1159952 0.128196 0.1350922 0.1355764
 0.1297257 0.1191607 0.1091318 0.1069219 0.1159123 0.1323396 0.1493459 0.1628734 0.17217 0.1766011
 0.175079 0.1686014 0.1612844 0.1580818 0.1617863 0.1717144 0.1838737 0.1919542 0.1903843 0.1799058
 0.1702613 0.1730708 0.1895254 0.2082893 0.2182201 0.2197395 0.2203563 0.2230077 0.2245537 0.2239965
 0.2258143 0.2337095 0.2450266 0.2533043 0.2539073 0.2458365 0.2311384 0.2153853 0.2062443 0.207395
 0.2144551 0.2198333 0.2201436 0.2157964 0.2064523 0.1928211 0.1814575 0.1808576 0.1915773 0.2050141
 0.2131982 0.2160493 0.2178295 0.2197773 0.2186655 0.2117699 0.2014415 0.1936499 0.1920579 0.1947788
 0.1974918 0.1980039 0.1963203 0.1920653 0.1847089 0.1762598 0.1712901 0.1729956 0.1799596 0.1875633
 0.1921835 0.1934785 0.1932118 0.1930068 0.1932651 0.1933569 0.1927609 0.1925483 0.1951859 0.201805
 0.2102323 0.2171414 0.2218469 0.2265283 0.2327897 0.2393858 0.2436723 0.244462 0.2431756 0.2426508
 0.2448851 0.2494312 0.2537113 0.2552146 0.253884 0.2523857 0.2536556 0.2581045 0.2635517 0.2677218
 0.270123 0.2715722 0.2728348 0.2739747 0.2743287 0.2730299 0.2702759 0.2680573 0.2687474 0.2727457
 0.2780949 0.2824827 0.2850733 0.286364 0.2869431 0.2868402 0.2859042 0.2844157 0.2831023 0.282581
 0.2829358 0.2838529 0.2849817 0.286091 0.2870589 0.2878705 0.2885843 0.2892404 0.2898426 0.2904167
 0.2909956 0.2915358 0.2919531 0.2922783 0.2926874 0.2933048 0.2940325 0.2946432 0.2949848 0.2950084
 0.2946544 0.2938541 0.292649 0.2911809 0.2895226 0.2876391 0.2856309 0.2839751 0.2833749 0.284254
 0.2863837 0.2890313 0.2914553 0.2932659 0.2944274 0.2950839 0.2954261 0.2956241 0.2957819 0.2959261
 0.2960432 0.2961226 0.2961648 0.2961695 0.2961404 0.2961056 0.2961145 0.2961987 0.2963414 0.2964846
 0.2965586 0.2965153 0.2963578 0.2961369 0.2958977 0.2956243 0.2952512 0.2947265 0.2940533 0.2932827
 0.2924845 0.2917193 0.2910119 0.2903361 0.2896377 0.2888694 0.2879835 0.2869059 0.2855787 0.2840612
 0.28253 0.2811293 0.2798468 0.278565 0.277189 0.2756879 0.2740589 0.2723053 0.270441 0.2684891
 0.2664763 0.2644362 0.2624044 0.2604038 0.2584364 0.2564885 0.2545378 0.2525613 0.2505396 0.2484514
 0.2462584 0.2438875 0.2412282 0.2381507 0.2345336 0.2302907 0.225405 0.2199652 0.2141643 0.2082441
 0.2024275 0.1968834 0.1917331 0.187081 0.1830377 0.1797056 0.1771419 0.1753512 0.1743127 0.174003
 0.1743994 0.1754705 0.1771518 0.1793152 0.1817743 0.1843277 0.1867953 0.1890337 0.1909718 0.1926559
 0.1942319 0.1958438 0.1975382 0.1992697 0.2009802 0.2026339 0.204178 0.2055262 0.2066202 0.2074824
 0.208175 0.2087277 0.209132 0.2093803 0.2094843 0.2094691 0.2093781 0.209284 0.2092792 0.2094437
 0.2098161 0.2103963 0.2111695 0.2121194 0.2132202 0.2144315 0.2157083 0.2170143 0.2183361 0.2196936
 0.2211327 0.2227053 0.2244659 0.2264751 0.2287801 0.2313854 0.2342502 0.2373005 0.2404334 0.2435213
 0.2464274 0.2490281 0.2512382 0.2530311 0.2544346 0.2555022 0.2562926 0.2568618 0.2572552 0.2575076
 0.2576518 0.2577145 0.257698 0.2575796 0.2573313 0.256937 0.2564045 0.255775 0.2551054 0.2544292
 0.2537465 0.2530528 0.2523576 0.2516769 0.2510209 0.2503849 0.2497456 0.2490763 0.2483675 0.2476224
 0.2468357 0.2459854 0.2450388 0.2439656 0.2427572 0.2414357 0.2400284 0.2385376 0.2369478 0.2352543
 0.2334765 0.2316454 0.229783 0.2278893 0.2259474 0.223934 0.2218158 0.2195538 0.2171433 0.2146508
 0.2121865 0.2098358 0.2076213 0.2055182 0.2034915 0.2015266 0.1996325 0.1978201 0.1960897 0.1944432
 0.1928882 0.1914219 0.1900256 0.1886846 0.1874047 0.1862141 0.1851496 0.1842259 0.1834177 0.1826861
 0.1820181 0.1814236 0.180913 0.1804986 0.1801943 0.1799808 0.1797864 0.1795265 0.1791594 0.1787008
 0.1782016 0.1777162 0.1772819 0.1769117 0.1765871 0.176247 0.1757995 0.175157 0.1742511 0.1730216
 0.1714322 0.1695074 0.1673346 0.1650359 0.1627539 0.1606359 0.1587894 0.1572555 0.1560257 0.1550578
 0.1542763 0.1536026 0.1530122 0.1525551 0.1523077 0.152279 0.1523469 0.1523252 0.1521375 0.1519034
 0.1518227 0.1520062 0.1524264 0.1529752 0.1535287 0.153991 0.1543109 0.1544734 0.1544952 0.1544202
 0.1542831 0.1540794 0.1537949 0.153441 0.1530384 0.1525961 0.1521175 0.1515891 0.1509711 0.1502348
 0.1493894 0.1484491 0.147413 0.1462841 0.1450551 0.1437048 0.1422889 0.1410159 0.1401597 0.1398919
 0.1401944 0.1408845 0.1417345 0.1426094 0.1434352 0.1440254 0.144138 0.143863 0.1438074 0.1446508
 0.1464908 0.1487333 0.150621 0.1517645 0.1521716 0.1519677 0.1512497 0.150098 0.1485367 0.1465117
 0.1440136 0.1411532 0.1380703 0.1348999 0.131837 0.1290745 0.1266898 0.1246848 0.1230599 0.1218753
 0.1212767 0.1208934 0.1188443 0.1127246 0.1032962 0.09615162 0.09703209 0.1053814 0.1147145 0.1194799
 0.1195083 0.1177592 0.116287 0.115402 0.1149867 0.1151669 0.116059 0.117505 0.1190928 0.1204047
 0.121279 0.121751 0.1217559 0.120935 0.1186099 0.1139892 0.1067946 0.09785989 0.08887693 0.08141106
 0.07618832 0.07310122 0.07154542 0.0707802 0.0702952 0.07003435 0.07028405 0.07133186 0.07322568 0.07582064
 0.07893528 0.08232442 0.08556917 0.08824128 0.09023644 0.09177154 0.09302655 0.09395225 0.09442897 0.09444402
 0.0940876 0.09348325 0.09274099 0.09191895 0.09100394 0.08994417 0.08874866 0.08758608 0.0867174 0.08626372
 0.08610497 0.08605362 0.08602881 0.08602102 0.08600941 0.08597261 0.08591757 0.08589602 0.08601747 0.08637069
 0.08689268 0.08739258 0.08772543 0.08788661 0.08795391 0.08796728 0.08783341 0.08740287 0.08673152 0.08612701
 0.08574779 0.08530723 0.08443928 0.08326083 0.08231573 0.08199902 0.08222034 0.08259445 0.08279622 0.0827322
 0.08253 0.0824528 0.08272289 0.08327622</values></Ydata></ScSm><ScRf><Ydata ylabel="Single channel"><values byteorder="INTEL" format="FLOAT32" numvalues="1820"> 0.06058125 0.06073153 0.06082522 0.06086301 0.06086784 0.06088245 0.06095104 0.06109031 0.06127564 0.06145363
 0.06157655 0.06163419 0.0616467 0.06162906 0.06158932 0.06156451 0.06161761 0.06177335 0.06197584 0.0621264
 0.06216368 0.06211806 0.06209314 0.06216568 0.06228118 0.06227159 0.06201286 0.06156762 0.06114389 0.06090374
 0.06086237 0.06101056 0.06141909 0.06204624 0.06251592 0.06238416 0.06169699 0.06102339 0.06082298 0.06100145
 0.06117269 0.06110369 0.06079261 0.06038622 0.06021365 0.06069121 0.06191525 0.06333398 0.06394649 0.06292725
 0.0602116 0.05669462 0.05391052 0.05320858 0.05479722 0.05746651 0.05949759 0.0600322 0.05948457 0.05868429
 0.05798995 0.05738266 0.05702105 0.05727072 0.0581928 0.05920259 0.05936189 0.05816983 0.05616277 0.05455123
 0.05412271 0.05473543 0.05594922 0.05750555 0.05868018 0.05790801 0.05431938 0.04969414 0.04767277 0.05029752
 0.05583467 0.06047983 0.06174425 0.05982859 0.05650656 0.05365599 0.05257001 0.05359951 0.05606684 0.05883789
 0.06102492 0.06203344 0.06140355 0.05920587 0.05643323 0.05451658 0.05444964 0.05640914 0.05971136 0.06285361
 0.06419739 0.06318985 0.06073424 0.0582267 0.05663357 0.05650167 0.05809257 0.06109795 0.06462844 0.0677435
 0.06984121 0.0706962 0.07049052 0.06970607 0.06876323 0.06795155 0.06768931 0.06826559 0.06915608 0.06922494
 0.06796935 0.06619844 0.06520094 0.06541477 0.06608017 0.06615952 0.06537955 0.06404917 0.06203394 0.05877175
 0.05455897 0.05085666 0.04883001 0.0484793 0.04953058 0.05188229 0.05455404 0.05561215 0.05427893 0.0522913
 0.05216083 0.05449706 0.05769963 0.05994124 0.06086233 0.06144975 0.06274971 0.0647865 0.06642003 0.06620017
 0.0638068 0.06086331 0.0597923 0.0614396 0.06426282 0.06623231 0.06697483 0.06754987 0.0686053 0.06937833
 0.06848554 0.06555814 0.06213814 0.06073298 0.06263022 0.06660771 0.06981586 0.06988338 0.06651533 0.06157754
 0.0576449 0.05621671 0.05730198 0.06038664 0.06500609 0.07024181 0.07449321 0.07636622 0.07568089 0.07340334
 0.07054891 0.06723931 0.06321117 0.05937099 0.05800886 0.0606333 0.0660359 0.07129402 0.07438482 0.07520156
 0.07440968 0.07218722 0.06842338 0.06395839 0.06099129 0.06136986 0.0643721 0.06711929 0.06759544 0.06648189
 0.06567176 0.06589001 0.06642735 0.06662187 0.06680772 0.067765 0.06962319 0.07157879 0.07268152 0.07269424
 0.0721305 0.07164973 0.07145759 0.07115627 0.0703145 0.06935087 0.0694762 0.07136275 0.07420905 0.07656008
 0.07776169 0.07818876 0.07826704 0.07773088 0.07600883 0.07329787 0.07100162 0.07068489 0.07255273 0.07532191
 0.07755741 0.07871 0.07896683 0.07871185 0.07826772 0.07780479 0.07740697 0.07729551 0.07776437 0.07875432
 0.07976731 0.0803659 0.08052719 0.08041196 0.08005278 0.07942957 0.07869987 0.07819389 0.07817367 0.07863651
 0.07936612 0.08012711 0.080741 0.08104032 0.08092982 0.08052519 0.08008818 0.07978924 0.0796421 0.07965761
 0.07990037 0.0803519 0.08084409 0.08119608 0.08135708 0.08138093 0.08132041 0.08119105 0.08101165 0.08084579
 0.0807932 0.080917 0.0811649 0.08140752 0.08159095 0.08179209 0.08206446 0.08229935 0.08233555 0.08216933
 0.08196689 0.08188339 0.08193794 0.08205374 0.08214625 0.0821436 0.08197801 0.08164375 0.08127949 0.08111748
 0.08129911 0.08177428 0.08238754 0.08298767 0.08344628 0.08368373 0.08373329 0.08370876 0.08367205 0.0835859
 0.08341321 0.0832167 0.08314059 0.08330035 0.08368001 0.08413669 0.08451438 0.08474283 0.08484111 0.08488657
 0.08498371 0.08518185 0.08539778 0.08549033 0.08543486 0.08536142 0.08539692 0.08552049 0.08560324 0.08556516
 0.08546616 0.08544084 0.08555823 0.08576492 0.08596349 0.08612072 0.08628364 0.08649643 0.08671193 0.08680684
 0.08671098 0.08650486 0.08634247 0.08628949 0.0862989 0.08633725 0.086448 0.08665767 0.08688823 0.08702241
 0.08703567 0.08701702 0.08705573 0.08713746 0.08716773 0.08708055 0.08690462 0.08673216 0.08664432 0.08666245
 0.08674517 0.08681924 0.08682531 0.08675195 0.08663456 0.08652085 0.08643842 0.08640112 0.08643954 0.08659261
 0.08684106 0.08706485 0.0871131 0.0869397 0.08665799 0.08644323 0.08637793 0.08639298 0.08635238 0.08618398
 0.08592839 0.08567889 0.08549504 0.08537373 0.08528143 0.08519895 0.08514505 0.0851662 0.08528586 0.08544527
 0.0855161 0.08540782 0.08515854 0.08489676 0.08472582 0.0846656 0.08467609 0.08469923 0.08469943 0.08469638
 0.08473608 0.08481018 0.08484344 0.08478709 0.08468488 0.0846264 0.0846725 0.08483078 0.0850479 0.08521391
 0.08523533 0.08513168 0.08502185 0.08500077 0.08506346 0.085154 0.08524233 0.08533159 0.08542491 0.08552084
 0.08563381 0.08579352 0.0860147 0.0862733 0.08651535 0.08669288 0.08680236 0.08689609 0.08704813 0.08729474
 0.0876037 0.08790318 0.08814223 0.08832654 0.08849971 0.08869267 0.088899 0.08910476 0.08932649 0.08959553
 0.0899108 0.09023494 0.09053926 0.09082881 0.09111931 0.09141144 0.09169899 0.09199383 0.09233154 0.09273873
 0.09318338 0.09357184 0.09382319 0.09395047 0.09405562 0.09424852 0.09457101 0.094969 0.09532008 0.09552526
 0.09560937 0.09570646 0.09591497 0.09619661 0.09645525 0.09668361 0.09697309 0.09738163 0.09784234 0.098224
 0.0984601 0.09860177 0.09874979 0.09894584 0.09913952 0.09926464 0.09932971 0.09940669 0.09954038 0.09971429
 0.09991609 0.1001835 0.1005465 0.1009591 0.1013319 0.1016158 0.1018235 0.1019868 0.1021225 0.1022258
 0.1022792 0.1022822 0.1022813 0.1023379 0.1024542 0.1025645 0.1026175 0.1026383 0.1026916 0.1028168
 0.1030189 0.1032897 0.1036031 0.1039068 0.1041672 0.1044208 0.104738 0.1051143 0.1054418 0.1056216
 0.1056732 0.105692 0.1057283 0.1057692 0.1058228 0.1059471 0.1061796 0.1064885 0.1068167 0.1071416
 0.107473 0.1078129 0.1081307 0.1083719 0.1084912 0.1084923 0.1084401 0.1084285 0.1085266 0.1087452
 0.1090396 0.109344 0.1096085 0.1098047 0.1099057 0.1098949 0.1098146 0.1097738 0.109862 0.1100497
 0.1102011 0.110189 0.109977 0.1095967 0.1090846 0.1084675 0.1077917 0.1071365 0.1065855 0.1061913
 0.1059746 0.1059574 0.1061762 0.1066408 0.1072848 0.1079829 0.1086222 0.1091313 0.1094395 0.1094589
 0.109149 0.1085749 0.1078687 0.1071465 0.1064717 0.1058598 0.1052852 0.1047159 0.1041902 0.103854
 0.1038965 0.1044394 0.1054751 0.1068696 0.1084033 0.1098458 0.1110497 0.1120021 0.1127883 0.113501
 0.1141846 0.1148511 0.1155141 0.1161782 0.1168125 0.1173737 0.1178556 0.1182925 0.1187119 0.1191072
 0.1194538 0.1197346 0.1199568 0.1201564 0.1203662 0.1205639 0.1206787 0.1206706 0.1205788 0.1204706
 0.1203631 0.120214 0.1199696 0.1196104 0.1191786 0.1187937 0.1186323 0.1188571 0.1195265 0.1205608
 0.1218003 0.1231035 0.1243796 0.1255443 0.1264961 0.1271735 0.1276134 0.1279205 0.1281899 0.1284692
 0.1287691 0.129081 0.1293886 0.1296813 0.1299613 0.1302423 0.1305436 0.1308744 0.1312141 0.1315214
 0.1317755 0.1320051 0.1322686 0.1326018 0.1329832 0.1333528 0.1336748 0.1339726 0.134284 0.1345956
 0.1348563 0.1350505 0.1352234 0.1354347 0.135715 0.1360618 0.1364398 0.1367855 0.1370477 0.1372325
 0.1373937 0.1375762 0.1377865 0.1380135 0.1382542 0.1385084 0.13877 0.1390371 0.1393215 0.1396279
 0.1399258 0.1401641 0.1403254 0.1404533 0.1406125 0.1408273 0.1410668 0.1412856 0.1414743 0.1416712
 0.1419241 0.1422357 0.1425521 0.1428102 0.1429934 0.1431352 0.1432769 0.1434379 0.1436197 0.1438199
 0.1440306 0.1442365 0.1444283 0.1446143 0.1448123 0.1450307 0.1452612 0.1454875 0.1456995 0.1458994
 0.1460985 0.1463066 0.1465286 0.1467707 0.1470413 0.1473337 0.1476149 0.1478469 0.1480196 0.1481554
 0.1482841 0.1484236 0.1485828 0.1487665 0.1489713 0.1491853 0.1493958 0.1495971 0.1497908 0.1499814
 0.1501729 0.1503666 0.150563 0.1507654 0.1509812 0.1512163 0.1514643 0.1517062 0.1519235 0.1521145
 0.1522929 0.1524758 0.1526722 0.1528802 0.1530879 0.153283 0.1534649 0.1536461 0.153837 0.1540353
 0.1542317 0.1544224 0.1546121 0.1548077 0.1550096 0.1552115 0.1554072 0.155598 0.1557906 0.1559895
 0.1561914 0.1563884 0.1565758 0.1567577 0.1569418 0.1571311 0.1573255 0.1575269 0.157737 0.1579505
 0.1581581 0.1583565 0.1585496 0.1587429 0.1589384 0.1591348 0.1593316 0.1595313 0.1597351 0.1599379
 0.160135 0.1603302 0.1605307 0.1607385 0.1609527 0.1611742 0.1614001 0.1616209 0.161829 0.1620264
 0.1622219 0.1624241 0.1626373 0.1628603 0.1630897 0.1633225 0.1635542 0.1637771 0.1639869 0.1641824
 0.1643615 0.1645236 0.1646754 0.1648271 0.1649845 0.1651507 0.1653275 0.1655127 0.1657033 0.1659033
 0.1661175 0.166339 0.1665538 0.1667545 0.1669458 0.1671377 0.1673369 0.1675412 0.1677445 0.1679459
 0.1681483 0.1683508 0.1685533 0.1687621 0.1689804 0.169202 0.1694214 0.1696385 0.169852 0.1700595
 0.1702612 0.1704569 0.1706467 0.1708394 0.171045 0.1712583 0.1714666 0.1716696 0.1718772 0.1720941
 0.1723185 0.1725464 0.1727694 0.172982 0.1731883 0.173393 0.1735957 0.1737988 0.174008 0.1742229
 0.1744411 0.1746656 0.1748951 0.1751194 0.1753332 0.1755398 0.1757401 0.1759362 0.1761376 0.1763485
 0.176563 0.1767775 0.1769891 0.1771784 0.1772997 0.1772431 0.1767328 0.1752186 0.1718601 0.1656933
 0.1560183 0.1428446 0.1270414 0.1100272 0.09324688 0.07779723 0.06431913 0.05308447 0.0441415 0.03740826
 0.03273075 0.02998028 0.02915433 0.0304751 0.03449652 0.04177795 0.05165749 0.06116612 0.06618441 0.06469566
 0.0587141 0.05244716 0.04879976 0.04797549 0.04873418 0.05001676 0.05148324 0.05332014 0.05585724 0.05919261
 0.06317294 0.06779525 0.07340078 0.08023843 0.08794846 0.09571604 0.1029695 0.1098235 0.1168061 0.124221
 0.1318235 0.139058 0.1455013 0.1510761 0.1559604 0.1603903 0.1645277 0.1684451 0.1721736 0.1757057
 0.1789211 0.1815533 0.1833157 0.1841188 0.1841758 0.1838862 0.1836052 0.1835054 0.1836092 0.1838866
 0.1843076 0.1848489 0.185495 0.186231 0.1870296 0.1878574 0.1886887 0.189503 0.1902792 0.1910044
 0.1916754 0.1922874 0.1928335 0.1933213 0.1937735 0.194208 0.1946249 0.195014 0.1953695 0.1956993
 0.1960201 0.1963395 0.196648 0.1969307 0.1971828 0.1974109 0.1976265 0.1978392 0.198052 0.1982625
 0.1984694 0.1986749 0.1988794 0.1990823 0.1992859 0.1994921 0.1996974 0.1998988 0.2000983 0.200298
 0.2004956 0.2006881 0.200875 0.2010574 0.2012393 0.2014271 0.201623 0.2018228 0.2020229 0.2022242
 0.2024266 0.2026257 0.2028177 0.2030044 0.2031951 0.2034002 0.203619 0.2038389 0.2040507 0.2042596
 0.2044726 0.2046862 0.2048968 0.205109 0.2053218 0.2055196 0.2056882 0.2058367 0.2059947 0.2061868
 0.2064106 0.206639 0.2068495 0.2070431 0.2072348 0.2074327 0.2076335 0.2078292 0.2080179 0.2082144
 0.2084397 0.2086916 0.2089444 0.2091832 0.2094177 0.209657 0.2098971 0.210137 0.2103744 0.2105884
 0.2107552 0.2108891 0.2110489 0.211292 0.2116188 0.2119665 0.2122668 0.2125079 0.2127264 0.2129597
 0.2132238 0.2135006 0.2137141 0.2137794 0.2137347 0.2137681 0.2140456 0.2145417 0.2150874 0.2155438
 0.2158863 0.2161583 0.216397 0.2166018 0.2167442 0.2168043 0.2168206 0.2169083 0.217185 0.2176473
 0.2181577 0.2185829 0.2188983 0.2191402 0.2193363 0.2195063 0.2196246 0.2195672 0.2192438 0.2188393
 0.2187681 0.2192735 0.2201517 0.2209688 0.2214908 0.2218053 0.2220769 0.2223434 0.2225626 0.2226532
 0.2224021 0.2215843 0.2204035 0.2196173 0.2199114 0.221206 0.2227859 0.2240176 0.2247499 0.225146
 0.2254019 0.2256196 0.2257342 0.2255199 0.2248422 0.2239967 0.2236362 0.2241682 0.2252979 0.2263463
 0.2269441 0.2272224 0.2274475 0.2277232 0.227919 0.2276256 0.2263826 0.2243557 0.2226854 0.2226895
 0.2245768 0.2271976 0.2291823 0.2301231 0.2304788 0.2305706 0.2301145 0.2287429 0.2265533 0.2240609
 0.2220635 0.2215572 0.2230704 0.225814 0.2281274 0.2291219 0.2294275 0.2301217 0.231436 0.2327503
 0.2334132 0.2332542 0.2324736 0.2312786 0.2297829 0.2283519 0.2278108 0.2288566 0.2312116 0.2337195
 0.2354154 0.2362628 0.2366534 0.2362681 0.2338423 0.228693 0.2226248 0.2194164 0.2214706 0.2272979
 0.2331204 0.2365834 0.2380289 0.2387127 0.2391369 0.2389176 0.236982 0.2321313 0.2249053 0.2187948
 0.2178872 0.2228124 0.2300297 0.2351507 0.2359585 0.232646 0.2269905 0.2218011 0.2197785 0.2218907
 0.2269618 0.2328311 0.2376403 0.2403403 0.2406939 0.2391748 0.2369136 0.2354173 0.2354842 0.2360125
 0.2348338 0.231464 0.2279292 0.2257807 0.2236583 0.219767 0.2158269 0.215926 0.2212294 0.2280556
 0.2320342 0.2325377 0.2318467 0.230955 0.2278044 0.2202108 0.2099964 0.203023 0.2040748 0.211909
 0.2203804 0.2244651 0.2242469 0.2230873 0.2231347 0.2231368 0.2202092 0.2136249 0.2066888 0.203936
 0.2062711 0.2101513 0.2117449 0.2099466 0.2049527 0.1970591 0.1889519 0.1864515 0.1935525 0.2075017
 0.2209992 0.2282179 0.2268559 0.2167332 0.2006578 0.1862356 0.1821558 0.1903605 0.2036737 0.212428
 0.2121044 0.2040347 0.1912997 0.1767209 0.1642463 0.1591925 0.1650149 0.1798852 0.1968013 0.2069888
 0.2046786 0.1916507 0.1777814 0.1738946 0.1818113 0.1930789 0.1984831 0.1964413 0.1915467 0.1886722
 0.1902045 0.1957294 0.2024416 0.2077488 0.2113229 0.2120639 0.2052656 0.1882619 0.1678867 0.1559978
 0.1571557 0.1661965 0.1777328 0.1910345 0.2039807 0.2096675 0.2042028 0.1941235 0.1908958 0.1987355
 0.2109731 0.2182395 0.2177566 0.2138794 0.2113088 0.2100541 0.207804 0.2053856 0.2069218 0.2141874
 0.2235367 0.2299683 0.2323037 0.2327524 0.2331333 0.2334931 0.2333725 0.2326223 0.2313085 0.2298251
 0.2287863 0.2283241 0.2279585 0.2273314 0.2261635 0.2231005 0.2160024 0.204957 0.1942257 0.1888811
 0.1894132 0.1920447 0.1943213 0.1965331 0.1964898 0.1880837 0.1693798 0.1492077 0.1407354 0.1487536
 0.166117 0.1818655 0.1896145 0.1880836 0.1777825 0.1611629 0.1452451 0.1394841 0.1480853 0.1659498
 0.1840932 0.1973934 0.2052836 0.2074992 0.2030243 0.1930826 0.1824419 0.1767305 0.1789557 0.1881184
 0.1996093 0.2064983 0.2028905 0.1897158 0.1773509 0.1780552 0.1931572 0.2109103 0.2196881 0.219784
 0.2188873 0.2201317 0.2204405 0.2187796 0.2195871 0.2266189 0.2373853 0.2455957 0.246677 0.2395793
 0.226247 0.2121418 0.2048243 0.2078459 0.2166547 0.2235111 0.2249667 0.2213972 0.212426 0.1988972
 0.1877881 0.1880097 0.2000898 0.2149833 0.224356 0.2281739 0.2309527 0.2339726 0.2337438 0.2273327
 0.2173049 0.2101596 0.2099043 0.2145292 0.2193721 0.222036 0.2224113 0.2198624 0.2136203 0.2059626
 0.202253 0.206254 0.2161974 0.2264271 0.2324564 0.2337568 0.2323892 0.2303386 0.2282062 0.2254001
 0.2214423 0.2176544 0.2169131 0.2205878 0.2263694 0.2306438 0.2326373 0.2346843 0.2385544 0.2430182
 0.2453548 0.2443224 0.2413212 0.239156 0.2397861 0.2427763 0.2456182 0.2458701 0.2434866 0.2410899
 0.2415612 0.2452965 0.2501467 0.2538636 0.2559306 0.2571043 0.2581026 0.2589748 0.259071 0.2575397
 0.2545404 0.2519475 0.2520186 0.2551503 0.2594965 0.2628747 0.2645291 0.2649947 0.2648883 0.2642717
 0.2630105 0.2613512 0.2599387 0.2593116 0.2595184 0.260234 0.2610971 0.2618747 0.2624578 0.2628424
 0.2630907 0.2632543 0.2633579 0.2634421 0.2635403 0.2636083 0.263569 0.2634578 0.2634388 0.2636212
 0.2639204 0.2641491 0.2641813 0.2639623 0.2634228 0.2625035 0.2612591 0.259833 0.2582959 0.2566098
 0.2548522 0.2534384 0.2529873 0.2538645 0.2558493 0.258267 0.2604382 0.2620111 0.2629704 0.2634666
 0.2636772 0.263749 0.2637661 0.2637351 0.2636169 0.2633874 0.2630666 0.2626945 0.2623015 0.2619132
 0.2615625 0.2612717 0.2610231 0.2607631 0.2604396 0.2600339 0.2595622 0.2590558 0.2585357 0.2579916
 0.2573801 0.25665 0.2557811 0.2548102 0.2538242 0.2529162 0.2521266 0.251415 0.2506982 0.249911
 0.2490184 0.2479936 0.2468405 0.24565 0.2445784 0.2437285 0.2430655 0.2424636 0.2418087 0.2410441
 0.2401605 0.2391804 0.2381427 0.2370768 0.2359862 0.2348576 0.233675 0.2324223 0.2310839 0.229654
 0.2281401 0.2265605 0.224942 0.2233074 0.221645 0.2198821 0.2179008 0.215577 0.2128032 0.2094927
 0.2056024 0.2011764 0.1963649 0.1913869 0.1864626 0.1817659 0.1774206 0.173524 0.170164 0.1674158
 0.1653292 0.1639248 0.1632082 0.1631849 0.1638564 0.1651957 0.1671311 0.1695499 0.1723105 0.1752505
 0.1781972 0.1809942 0.1835465 0.1858595 0.18802 0.1901057 0.1921057 0.1939438 0.1955654 0.1969695
 0.1981701 0.1991695 0.1999833 0.2006577 0.2012432 0.2017603 0.2022012 0.20256 0.2028537 0.2031097
 0.2033425 0.2035525 0.203744 0.2039316 0.2041337 0.2043665 0.2046445 0.2049824 0.2053972 0.2058965
 0.2064586 0.2070396 0.2076167 0.2082076 0.2088356 0.209503 0.2102196 0.2110305 0.2119895 0.2131127
 0.2143727 0.2157233 0.2171122 0.2184728 0.2197185 0.2207605 0.2215417 0.2220547 0.2223269 0.2223986
 0.2223128 0.2221113 0.221825 0.2214695 0.2210475 0.2205558 0.2199931 0.2193705 0.2187071 0.2180157
 0.2173021 0.2165796 0.2158724 0.2151966 0.2145475 0.2139112 0.2132857 0.2126816 0.2121029 0.2115363
 0.2109648 0.2103861 0.2098095 0.2092406 0.2086741 0.2080926 0.2074614 0.2067387 0.2059062 0.2049798
 0.2039784 0.2028938 0.2017079 0.2004213 0.1990523 0.1976152 0.1961141 0.1945483 0.1929131 0.1911969
 0.1893824 0.1874579 0.1854404 0.1833943 0.1814104 0.179556 0.1778462 0.1762573 0.1747577 0.1733294
 0.1719711 0.170684 0.169459 0.168287 0.1671734 0.1661269 0.1651378 0.1641895 0.1632895 0.1624708
 0.1617575 0.1611421 0.1605981 0.1601112 0.1596864 0.1593332 0.1590611 0.1588897 0.1588362 0.1588791
 0.1589525 0.158989 0.1589547 0.1588489 0.1586956 0.1585355 0.1584069 0.1583261 0.1582843 0.1582441
 0.1581317 0.1578492 0.1573027 0.1564281 0.1552121 0.1537007 0.1519803 0.1501551 0.148342 0.146657
 0.1451873 0.1439836 0.143068 0.1424132 0.1419304 0.1415282 0.1411873 0.1409647 0.1409347 0.1411125
 0.1413998 0.1416285 0.1417094 0.1417261 0.1418547 0.1422165 0.1428131 0.1435497 0.1442972 0.144964
 0.1455157 0.1459362 0.146213 0.1463615 0.1464094 0.1463584 0.1462038 0.14597 0.1456923 0.1453898
 0.1450672 0.1447062 0.144264 0.1437154 0.1430728 0.1423464 0.1415325 0.1406316 0.1396247 0.1384748
 0.1372373 0.1361292 0.1354171 0.1352581 0.1356452 0.1364334 0.1374265 0.1384943 0.1395512 0.1404029
 0.1408013 0.1408115 0.1409972 0.1420219 0.1440235 0.1464664 0.1486183 0.1500793 0.1508314 0.1509607
 0.1505215 0.1495736 0.1481451 0.1461973 0.1437465 0.1409291 0.1378915 0.1347634 0.1317485 0.1290575
 0.1267734 0.1248927 0.1234069 0.1223651 0.1219212 0.1217281 0.1198867 0.1139272 0.1046018 0.09760368
 0.09876952 0.1075074 0.1172051 0.1222187 0.1223677 0.1206424 0.1191273 0.1181499 0.1176053 0.1176345
 0.1183659 0.1196492 0.1210827 0.1222581 0.1230167 0.123408 0.123391 0.1225918 0.1202531 0.1155067
 0.1080746 0.09885849 0.08961976 0.08195209 0.07657386 0.07336557 0.07172507 0.07091014 0.07039043 0.07009828
 0.07033805 0.07141866 0.07338687 0.07608433 0.07931209 0.08280554 0.08614937 0.08895129 0.09112942 0.09287363
 0.09431572 0.09537749 0.09593329 0.09598051 0.09563188 0.09503552 0.09432013 0.09354638 0.09266713 0.09157611
 0.09027691 0.08900587 0.08809073 0.0876536 0.08753534 0.08751804 0.08751011 0.08751035 0.0875196 0.08752567
 0.08751908 0.08752741 0.08764102 0.0879379 0.0883681 0.08877697 0.08904513 0.08916917 0.08922324 0.08923785
 0.08908811 0.08859508 0.087825 0.0871222 0.08666445 0.08615538 0.08521169 0.08394703 0.08291468 0.08250967
 0.08262786 0.08289066 0.08301366 0.08293326 0.08276372 0.0827427 0.08307859 0.08368409 0.08414124 0.08409162
</values></Ydata></ScRf><Data_Parameters_AB><parameter name="DPF">1</parameter><parameter name="NPT">3497</parameter><parameter name="FXV">3996</parameter><parameter name="LXV">500</parameter><parameter name="CSF">1</parameter><parameter name="MXY">0.171301826834679</parameter><parameter name="MNY">-0.0904276594519615</parameter><parameter name="DAT">20/05/2022</parameter><parameter name="TIM">10:51:07.051 (GMT+2)</parameter><parameter name="DXU">WN</parameter></Data_Parameters_AB><AB__Qtest><MainReport name="Quality Test Report"><Header><Line><Legend>Test result ok/not ok [1/0]: </Legend><Value>0</Value></Line><Line><Legend>Method file: </Legend><Value>C:\Users\Public\Documents\Bruker\OPUS_8.2.28\QT\IRBT_v3_default.QT</Value></Line></Header><Matrix><Line><Legend></Legend><Legend>min</Legend><Legend>max</Legend><Legend>measured</Legend></Line><Line><Value>Absorption (X-Range 1):</Value><Value>0.400000</Value><Value>2.000000</Value><Value>0.207601</Value></Line><Line><Value>Noise (X-Range 4):</Value><Value></Value><Value>0.000300</Value><Value>0.000055</Value></Line><Line><Value>Signal/Noise (X-Range 2):</Value><Value>200.000000</Value><Value></Value><Value>77.377806</Value></Line><Line><Value>Signal/Noise (X-Range 3):</Value><Value>40.000000</Value><Value></Value><Value>41.835135</Value></Line><Line><Value>Water vapour (X-Range 5):</Value><Value></Value><Value>0.000300</Value><Value>0.000075</Value></Line><Line><Value>Signal/Water (X-Range 2):</Value><Value>100.000000</Value><Value></Value><Value>57.238057</Value></Line><Line><Value>Signal/Water (X-Range 3):</Value><Value>20.000000</Value><Value></Value><Value>30.946365</Value></Line><Line><Value>Fringes (X-Range 6):</Value><Value></Value><Value>0.000100</Value><Value>0.000053</Value></Line></Matrix></MainReport></AB__Qtest><Data_Parameters_ScSm><parameter name="DPF">1</parameter><parameter name="NPT">1814</parameter><parameter name="FXV">3996.33169228125</parameter><parameter name="LXV">499.541461535156</parameter><parameter name="CSF">1</parameter><parameter name="MXY">0.296558558940887</parameter><parameter name="MNY">0.0342781580984592</parameter><parameter name="DAT">20/05/2022</parameter><parameter name="TIM">10:51:07.051 (GMT+2)</parameter><parameter name="DXU">WN</parameter></Data_Parameters_ScSm><Data_Parameters_ScRf><parameter name="DPF">1</parameter><parameter name="NPT">1820</parameter><parameter name="FXV">4004.04661832813</parameter><parameter name="LXV">495.683998511719</parameter><parameter name="CSF">1</parameter><parameter name="MXY">0.264994710683823</parameter><parameter name="MNY">0.0291543304920197</parameter><parameter name="DAT">20/05/2022</parameter><parameter name="TIM">10:50:41.198 (GMT+2)</parameter><parameter name="DXU">WN</parameter></Data_Parameters_ScRf><Optic_Parameters_Rf><parameter name="APR">0</parameter><parameter name="APT">Open</parameter><parameter name="BMS">KBr</parameter><parameter name="DTC">RT-DLaTGS_IR-Biotyper [Microplate reader]</parameter><parameter name="HPF">0</parameter><parameter name="LPF">10.0</parameter><parameter name="LPV">4000</parameter><parameter name="PGR">0</parameter><parameter name="RCH">Module port</parameter><parameter name="RDX">0</parameter><parameter name="SRC">MIR</parameter><parameter name="VEL">10.0</parameter><parameter name="SON">Off</parameter></Optic_Parameters_Rf><Acquisition_Parameters_Rf><parameter name="ADT">1</parameter><parameter name="AQM">DD</parameter><parameter name="CFE">0</parameter><parameter name="COR">0</parameter><parameter name="DEL">0</parameter><parameter name="DLY">0</parameter><parameter name="HFW">8000</parameter><parameter name="LFW">0</parameter><parameter name="NSR">32</parameter><parameter name="PLF">AB</parameter><parameter name="RES">6</parameter><parameter name="RGN">-1</parameter><parameter name="STR">0</parameter><parameter name="TCL">MakeCompatibleScalar (0, {WSV=1.000000, ARV=0});</parameter><parameter name="TDL">37</parameter><parameter name="RPO">0</parameter></Acquisition_Parameters_Rf><FT_-_Parameters_Rf><parameter name="APF">B3</parameter><parameter name="HFQ">500</parameter><parameter name="LFQ">4000</parameter><parameter name="NLI">0</parameter><parameter name="PHR">24</parameter><parameter name="PHZ">ML</parameter><parameter name="SPZ">NO</parameter><parameter name="ZFF">1</parameter></FT_-_Parameters_Rf><Optic_Parameters_><parameter name="APR">0</parameter><parameter name="APT">Open</parameter><parameter name="BMS">KBr</parameter><parameter name="CHN">Module port</parameter><parameter name="DTC">RT-DLaTGS_IR-Biotyper [Microplate reader]</parameter><parameter name="HPF">0</parameter><parameter name="LPF">10.0</parameter><parameter name="LPV">4000</parameter><parameter name="PGN">0</parameter><parameter name="RDX">0</parameter><parameter name="SRC">MIR</parameter><parameter name="VEL">10.0</parameter><parameter name="SON">Off</parameter></Optic_Parameters_><FT_-_Parameters_><parameter name="APF">B3</parameter><parameter name="HFQ">500</parameter><parameter name="LFQ">4000</parameter><parameter name="NLI">0</parameter><parameter name="PHR">24</parameter><parameter name="PHZ">ML</parameter><parameter name="SPZ">NO</parameter><parameter name="ZFF">1</parameter></FT_-_Parameters_><Acquisition_Parameters_><parameter name="ADT">1</parameter><parameter name="AQM">DD</parameter><parameter name="CFE">0</parameter><parameter name="COR">0</parameter><parameter name="DEL">0</parameter><parameter name="DLY">0</parameter><parameter name="HFW">8000</parameter><parameter name="LFW">0</parameter><parameter name="NSS">32</parameter><parameter name="PLF">AB</parameter><parameter name="RES">6</parameter><parameter name="SOT">0</parameter><parameter name="TCL">MakeCompatibleScalar (0, {WSV=1.000000, ARV=0});</parameter><parameter name="TDL">37</parameter><parameter name="SPO">0</parameter><parameter name="SGN">-1</parameter></Acquisition_Parameters_><Instrument_Parameters_Rf><parameter name="HFL">15800.168544</parameter><parameter name="LFL">0</parameter><parameter name="LWN">15800.168544</parameter><parameter name="ABP">32197</parameter><parameter name="SSP">1</parameter><parameter name="ARG">2</parameter><parameter name="ASG">2</parameter><parameter name="ASS">32</parameter><parameter name="GFW">16</parameter><parameter name="GBW">16</parameter><parameter name="BFW">0</parameter><parameter name="BBW">0</parameter><parameter name="PKA">7376</parameter><parameter name="PKL">4990</parameter><parameter name="PRA">7521</parameter><parameter name="PRL">5001</parameter><parameter name="P2A">1</parameter><parameter name="P2L">1</parameter><parameter name="P2R">1</parameter><parameter name="P2K">1</parameter><parameter name="DAQ">0</parameter><parameter name="AG2">1</parameter><parameter name="SSM">1</parameter><parameter name="RSN">24485</parameter><parameter name="CRR">0</parameter><parameter name="SRT">1653043841.199</parameter><parameter name="DUR">19.6369934082031</parameter><parameter name="TSC">28.9</parameter><parameter name="MVD">0.275393486022949</parameter><parameter name="AN1">0.225791038851743</parameter><parameter name="AN2">0</parameter><parameter name="VSN">2.485 Apr  4 2017</parameter><parameter name="SRN">0085</parameter><parameter name="CAM">0</parameter><parameter name="INS">IR-Biotyper</parameter><parameter name="FOC">69</parameter><parameter name="RDY">1</parameter><parameter name="ARS">32</parameter></Instrument_Parameters_Rf><Sample_Parameters_><parameter name="BLD"></parameter><parameter name="CNM">Admin</parameter><parameter name="CPY"></parameter><parameter name="DPM"></parameter><parameter name="EXP">IRBT_v3_32Scans.XPM</parameter><parameter name="LCT"></parameter><parameter name="SFM">Microplate, HTS-XT</parameter><parameter name="SNM">220520-0930(v.3)_RTF49M (D_16)_C2_cc397b2c-bd35-4788-8bfc-1c79a097f2d8.0</parameter><parameter name="XPP">C:\Users\Public\Documents\Bruker\OPUS_8.2.28\XPM</parameter><parameter name="IST">OK</parameter><parameter name="CPG">1252</parameter><parameter name="UID">fac66540-5022-400d-b1b7-8cab1a7e42aa</parameter></Sample_Parameters_><Instrument_Parameters_><parameter name="HFL">15800.168544</parameter><parameter name="LFL">0</parameter><parameter name="LWN">15800.168544</parameter><parameter name="ABP">32197</parameter><parameter name="SSP">1</parameter><parameter name="ASG">2</parameter><parameter name="ARG">2</parameter><parameter name="ASS">32</parameter><parameter name="GFW">16</parameter><parameter name="GBW">16</parameter><parameter name="BFW">0</parameter><parameter name="BBW">0</parameter><parameter name="PKA">7833</parameter><parameter name="PKL">4988</parameter><parameter name="PRA">8063</parameter><parameter name="PRL">4993</parameter><parameter name="P2A">1</parameter><parameter name="P2L">1</parameter><parameter name="P2R">1</parameter><parameter name="P2K">1</parameter><parameter name="DAQ">0</parameter><parameter name="AG2">1</parameter><parameter name="SSM">1</parameter><parameter name="RSN">12867</parameter><parameter name="CRR">0</parameter><parameter name="SRT">1653043867.051</parameter><parameter name="DUR">19.6369934082031</parameter><parameter name="TSC">28.9</parameter><parameter name="MVD">0.618553996086121</parameter><parameter name="AN1">0.225765609740993</parameter><parameter name="AN2">0</parameter><parameter name="VSN">2.485 Apr  4 2017</parameter><parameter name="SRN">0085</parameter><parameter name="CAM">0</parameter><parameter name="INS">IR-Biotyper</parameter><parameter name="FOC">69</parameter><parameter name="RDY">1</parameter></Instrument_Parameters_><History/></OPUSDataFile>
