<?xml version="1.0" encoding="UTF-8" ?>
<OPUSDataFile><AB><Ydata ylabel="Absorbance Units"><values byteorder="INTEL" format="FLOAT32" numvalues="3497"> -0.0345344 -0.03458036 -0.03461317 -0.03463406 -0.03462335 -0.03458009 -0.03451298 -0.03442466 -0.03435098 -0.0342937
 -0.03428439 -0.03431625 -0.03438469 -0.03447718 -0.03456049 -0.03463147 -0.03466605 -0.03467791 -0.03467205 -0.03466396
 -0.03467071 -0.03468956 -0.03472701 -0.03476461 -0.03479626 -0.03481238 -0.03480641 -0.03479194 -0.03476898 -0.03475907
 -0.03476505 -0.03479002 -0.0348343 -0.03487696 -0.03491683 -0.03493172 -0.03492381 -0.03489346 -0.03484598 -0.03480076
 -0.03476004 -0.03473988 -0.03473707 -0.03475408 -0.03478581 -0.03482786 -0.03487519 -0.03492355 -0.0349664 -0.03499955
 -0.0350177 -0.03501638 -0.03500011 -0.03496713 -0.03493343 -0.03490088 -0.03488422 -0.03488549 -0.03490762 -0.03495089
 -0.03500809 -0.03507842 -0.03515034 -0.0352224 -0.03527992 -0.03532219 -0.03533711 -0.03532855 -0.03529707 -0.03525285
 -0.03521238 -0.03518424 -0.03518821 -0.03521722 -0.03527681 -0.03534347 -0.03540652 -0.03544753 -0.03545363 -0.03543215
 -0.03537983 -0.03532067 -0.03525783 -0.03520988 -0.03517913 -0.03517412 -0.03519546 -0.03524706 -0.0353284 -0.03543496
 -0.03556324 -0.03569068 -0.03581208 -0.03589409 -0.03593956 -0.03593494 -0.0358945 -0.03583559 -0.03577014 -0.03572029
 -0.03568713 -0.03568117 -0.03569193 -0.03571854 -0.03574435 -0.03576224 -0.03576468 -0.03574634 -0.03571635 -0.03567521
 -0.0356328 -0.03559097 -0.03554478 -0.03549408 -0.03543117 -0.03535703 -0.03528387 -0.03521464 -0.03517523 -0.035165
 -0.03519772 -0.03526588 -0.03535979 -0.03546898 -0.03557073 -0.03566101 -0.03572468 -0.03576626 -0.03578478 -0.03578394
 -0.03576451 -0.03573269 -0.03568678 -0.03564981 -0.03562457 -0.03564259 -0.03571061 -0.03584206 -0.03604272 -0.03627205
 -0.03652871 -0.03668695 -0.03674355 -0.03661726 -0.03633109 -0.03599641 -0.03562922 -0.03535291 -0.0351563 -0.03507395
 -0.03508822 -0.03518976 -0.03535124 -0.0355423 -0.03572739 -0.03586495 -0.03594359 -0.03593517 -0.03587959 -0.03578215
 -0.03569144 -0.03562612 -0.03558749 -0.03558117 -0.03558102 -0.03558397 -0.03558324 -0.03557805 -0.0355844 -0.03560248
 -0.03563884 -0.03569027 -0.035739 -0.03578193 -0.03579608 -0.03578469 -0.03574331 -0.03567858 -0.03559943 -0.0355119
 -0.03542518 -0.03534735 -0.03528788 -0.03525199 -0.03524747 -0.03526774 -0.03531456 -0.03537055 -0.03543203 -0.03548397
 -0.03552189 -0.03554738 -0.03555921 -0.03557258 -0.03558837 -0.03561714 -0.03565824 -0.03570269 -0.03574758 -0.03576845
 -0.03576485 -0.03571913 -0.03563917 -0.03553358 -0.03541538 -0.03531251 -0.03522899 -0.03518551 -0.03516697 -0.03517088
 -0.03517352 -0.03515818 -0.03511884 -0.03504417 -0.03495653 -0.03485697 -0.03477823 -0.03472726 -0.03471711 -0.03475154
 -0.03481621 -0.03491065 -0.03501034 -0.03511421 -0.03520273 -0.03527625 -0.03532675 -0.03535693 -0.03537235 -0.0353767
 -0.03538254 -0.03539083 -0.03540996 -0.03543677 -0.03547039 -0.03550879 -0.03554683 -0.03559401 -0.03565175 -0.03573741
 -0.03586074 -0.03602209 -0.03622985 -0.03644684 -0.0366712 -0.03684994 -0.03697602 -0.03702872 -0.03700607 -0.03691036
 -0.03674264 -0.03651775 -0.03624234 -0.03596881 -0.03570442 -0.03550925 -0.03537823 -0.03533377 -0.03535535 -0.03542148
 -0.03550305 -0.03554995 -0.03556133 -0.03551072 -0.03543393 -0.03534553 -0.03526976 -0.03522382 -0.0352025 -0.03521013
 -0.03522579 -0.0352468 -0.03525511 -0.03524761 -0.03522305 -0.03518092 -0.03513541 -0.0350875 -0.0350556 -0.03503948
 -0.03504866 -0.03507803 -0.03511372 -0.03514794 -0.03514885 -0.03512292 -0.0350631 -0.03498856 -0.03492526 -0.03487248
 -0.03484429 -0.03481698 -0.03478021 -0.03471665 -0.03461081 -0.03448001 -0.03432226 -0.03417355 -0.03404177 -0.03393937
 -0.03387117 -0.03381277 -0.03376332 -0.03368083 -0.03356469 -0.03340204 -0.03320019 -0.03300726 -0.03282781 -0.03271037
 -0.03264444 -0.03262666 -0.03264623 -0.03268178 -0.03272753 -0.03277038 -0.03279981 -0.03280388 -0.03277098 -0.03268645
 -0.03256069 -0.03239124 -0.0322028 -0.03200483 -0.03179741 -0.03158341 -0.03134958 -0.03109372 -0.03081863 -0.03052418
 -0.03022115 -0.02991015 -0.02960062 -0.02929437 -0.02900882 -0.02874634 -0.02852821 -0.02835078 -0.02821748 -0.02811816
 -0.02803619 -0.02796301 -0.0278834 -0.02778547 -0.02765781 -0.02747947 -0.02722894 -0.02691471 -0.02652517 -0.0261145
 -0.02569662 -0.02530518 -0.02495199 -0.0246307 -0.02434287 -0.02406963 -0.02380978 -0.02355045 -0.0232917 -0.0230374
 -0.02278894 -0.02256144 -0.02235058 -0.02215173 -0.02194828 -0.02168998 -0.02137114 -0.02094354 -0.02044757 -0.01991328
 -0.01938229 -0.01891085 -0.0184946 -0.01815299 -0.01785185 -0.01758402 -0.01731201 -0.01702103 -0.0167022 -0.01634832
 -0.01598121 -0.01560311 -0.01522567 -0.0148505 -0.01446042 -0.01405467 -0.01361675 -0.0131497 -0.01266942 -0.01218008
 -0.01170956 -0.01125578 -0.01082777 -0.01042068 -0.01002983 -0.009650989 -0.009277809 -0.008904536 -0.00852348 -0.008132332
 -0.007725306 -0.007310109 -0.006889538 -0.006466136 -0.006044392 -0.005608018 -0.005154141 -0.004672785 -0.004159264 -0.003643101
 -0.003125526 -0.002647645 -0.002210294 -0.00182127 -0.001477484 -0.001158984 -0.0008620883 -0.0005605445 -0.0002527429 8.065169E-05
 0.0004359535 0.0008161656 0.001214713 0.001622383 0.002039755 0.002461353 0.002898066 0.003356554 0.003839865 0.004356157
 0.004883584 0.005419303 0.005936626 0.006427946 0.006889983 0.007319658 0.007736605 0.008141753 0.008558475 0.008987283
 0.009432627 0.00989244 0.01035101 0.0108083 0.01125404 0.01169385 0.01213914 0.01259305 0.01307043 0.01356277
 0.0140666 0.01456886 0.01505465 0.01552082 0.01595889 0.01637704 0.01677618 0.01716593 0.01754989 0.01793105
 0.01831084 0.01868793 0.0190618 0.01943606 0.01981062 0.02019805 0.02059879 0.02102017 0.02146041 0.02190818
 0.02236069 0.02279793 0.02322206 0.02362722 0.02402063 0.02441413 0.02481159 0.02522622 0.02565013 0.02608333
 0.02650965 0.026917 0.02730074 0.02765067 0.02798819 0.02831522 0.02866118 0.02903442 0.02943928 0.02987939
 0.03033298 0.03079879 0.03125804 0.03171023 0.03215342 0.03258801 0.03301706 0.03343945 0.03385148 0.03425191
 0.03463433 0.03500038 0.03534931 0.03568545 0.03601507 0.0363394 0.0366632 0.03698206 0.03729367 0.03759745
 0.03788988 0.03818258 0.03847812 0.03878654 0.03911249 0.03944705 0.03979049 0.04012585 0.04045141 0.040768
 0.04107621 0.04139562 0.04172673 0.04208402 0.04246338 0.04285502 0.04325193 0.04362737 0.04397996 0.04429085
 0.04457062 0.04482448 0.04506631 0.0453138 0.04556758 0.04583587 0.046107 0.04637673 0.04663985 0.04689211
 0.04714018 0.04738441 0.04763236 0.04788515 0.0481464 0.0484165 0.04869767 0.04898996 0.04929237 0.04960463
 0.04992378 0.0502499 0.05058278 0.05092083 0.05126076 0.05159754 0.05191883 0.05222284 0.05249899 0.05275589
 0.05299684 0.05323319 0.05347537 0.0537237 0.05398266 0.05424319 0.0545029 0.05475729 0.05500402 0.05524757
 0.05548835 0.05572927 0.05597092 0.05620676 0.05643649 0.05665311 0.0568579 0.05705953 0.05726049 0.05747941
 0.05771326 0.05796514 0.05822512 0.05847344 0.05870533 0.05890163 0.05907329 0.05922096 0.05936482 0.05951925
 0.05969552 0.05990589 0.06014076 0.06040276 0.06066697 0.06092885 0.06116946 0.06138451 0.06157472 0.06173962
 0.06188594 0.06201367 0.0621152 0.06219013 0.06222907 0.06223629 0.06222643 0.06220666 0.06220843 0.06223135
 0.06229202 0.06238116 0.06249279 0.06261815 0.06274562 0.06287245 0.06299186 0.06310869 0.06322107 0.06334359
 0.06347997 0.06364343 0.06384073 0.06405909 0.06430087 0.06452388 0.06472516 0.06486829 0.06495214 0.06498054
 0.06495711 0.06491854 0.06486719 0.06483491 0.06481887 0.06482626 0.06485502 0.06490304 0.06497242 0.06506782
 0.06518397 0.06532241 0.06546218 0.06558958 0.0656892 0.06574389 0.06577241 0.06577248 0.06578435 0.06581828
 0.06588945 0.06600514 0.0661357 0.06628031 0.06639446 0.06647614 0.06650156 0.06647257 0.06639659 0.0662795
 0.06615259 0.06602351 0.06593329 0.06588391 0.06590395 0.06597955 0.0661079 0.06626088 0.06640958 0.06653243
 0.06660044 0.06662142 0.06658625 0.06652797 0.06645443 0.06639434 0.06635645 0.06635004 0.06637748 0.06644259
 0.06654552 0.06669669 0.06689642 0.06714538 0.06744039 0.06775176 0.0680721 0.06834809 0.06857533 0.06870805
 0.06875521 0.06870691 0.06859094 0.06843971 0.06828713 0.06818431 0.06813751 0.0681778 0.06826328 0.06838805
 0.0684922 0.06855104 0.06854369 0.06845449 0.06831863 0.06813674 0.06795858 0.06778926 0.06764635 0.06753054
 0.06742716 0.06733577 0.06724536 0.06715928 0.06708934 0.0670389 0.06702719 0.06704995 0.06711078 0.06719579
 0.067289 0.06737047 0.06741509 0.06740545 0.06731896 0.06715569 0.06690378 0.0665918 0.06622127 0.06584018
 0.06545805 0.06511555 0.06482123 0.06458683 0.06441551 0.06428691 0.06419978 0.06411367 0.06402714 0.06390826
 0.0637616 0.06359257 0.06341022 0.06325008 0.06311041 0.06301073 0.06293039 0.06284781 0.06274273 0.06257945
 0.06236685 0.06209193 0.06179503 0.06148921 0.06121814 0.06100217 0.06085471 0.06078883 0.06076936 0.06079764
 0.06080436 0.0607837 0.06068342 0.06050121 0.06024789 0.05992851 0.05960363 0.05927641 0.05899779 0.05876132
 0.05857368 0.05842476 0.05829477 0.05817909 0.05806188 0.05794245 0.05781512 0.05767781 0.05752728 0.05736257
 0.05718037 0.05698844 0.05678697 0.05659031 0.05640254 0.05622884 0.05607215 0.05592043 0.05577325 0.05561456
 0.05544361 0.05525877 0.05506096 0.05486053 0.05465784 0.05446034 0.054267 0.05407824 0.0538932 0.05371046
 0.05352893 0.05334691 0.05316213 0.05297112 0.05277362 0.05256734 0.05235629 0.05214175 0.05192744 0.05171555
 0.05150515 0.05129657 0.05108757 0.05087746 0.05066813 0.05045952 0.05025605 0.05005794 0.04986723 0.0496837
 0.04950555 0.04933247 0.04916199 0.0489939 0.0488264 0.04865888 0.04848907 0.04831659 0.0481394 0.04795868
 0.0477742 0.04758957 0.04740606 0.04723106 0.04706664 0.04692574 0.04681361 0.04673781 0.04670558 0.04669454
 0.04670694 0.04668587 0.04662678 0.04648007 0.04624311 0.04592364 0.04552681 0.04511709 0.04470072 0.04434859
 0.04405727 0.04385689 0.04373067 0.04365886 0.04361827 0.04356271 0.04347991 0.04333281 0.04313667 0.04288559
 0.04261467 0.04234151 0.04208674 0.04186608 0.04166768 0.04149197 0.04132367 0.04115713 0.04101 0.04088198
 0.04081161 0.04080094 0.04085877 0.04098098 0.04111968 0.04126652 0.0413466 0.04136023 0.04126289 0.04107288
 0.04080638 0.04048996 0.0401761 0.0398739 0.03962003 0.03939457 0.03919461 0.03899954 0.03879124 0.03858244
 0.03837035 0.03818378 0.03803369 0.03791379 0.03782864 0.03773611 0.03763164 0.03749874 0.03733629 0.03718304
 0.0370414 0.03695584 0.03692145 0.03693323 0.0369813 0.03702607 0.0370662 0.03707682 0.03706623 0.03703811
 0.03699675 0.0369519 0.03689484 0.03682445 0.03672484 0.03658691 0.03640158 0.03615987 0.03587411 0.03554061
 0.03519877 0.03485178 0.03454854 0.03429511 0.0341103 0.03399555 0.03391472 0.03386394 0.03378053 0.03366514
 0.03348625 0.03325515 0.03299415 0.03271591 0.0324638 0.03223855 0.03206383 0.03192707 0.03182535 0.03174026
 0.03165738 0.0315612 0.0314375 0.03128623 0.03109953 0.03090182 0.03069555 0.03051221 0.03035978 0.03023874
 0.03015242 0.03006127 0.02996321 0.02982094 0.02963569 0.02941659 0.02916935 0.02893586 0.02871512 0.02852909
 0.02836565 0.0282058 0.02804151 0.027846 0.02763021 0.02739337 0.02715573 0.0269354 0.02673833 0.02657562
 0.02643632 0.0263182 0.02621443 0.02612094 0.02604532 0.02598841 0.02595601 0.0259503 0.02595436 0.02596751
 0.02594985 0.02589951 0.02577979 0.0255939 0.02533975 0.02502895 0.02470137 0.02436958 0.02408601 0.02385158
 0.02369459 0.02360219 0.02357151 0.02358732 0.0236359 0.0237092 0.02379889 0.02390275 0.02401896 0.02414366
 0.02427647 0.02440972 0.02454181 0.02466925 0.02479034 0.02491898 0.02505573 0.02523262 0.02545102 0.02573805
 0.02609054 0.0265038 0.02696983 0.02745615 0.02795774 0.02844469 0.02891927 0.02937161 0.02980632 0.03022509
 0.03063142 0.03102698 0.03141985 0.03181265 0.03221957 0.03264739 0.03310179 0.03358928 0.03409101 0.03460756
 0.03510298 0.03557368 0.03599375 0.03636123 0.03667758 0.03694387 0.03717846 0.03738141 0.03756291 0.0377202
 0.03784654 0.0379431 0.03800515 0.03804563 0.03808213 0.0381317 0.03822479 0.03836186 0.03855871 0.03879356
 0.03905916 0.03933561 0.03961014 0.03988661 0.04016207 0.04045136 0.04075808 0.04108151 0.04142324 0.04176493
 0.04210566 0.04242373 0.04271784 0.04296582 0.04316613 0.04329628 0.04335784 0.04334181 0.04325721 0.04312069
 0.04294348 0.04275524 0.04255526 0.04236037 0.04214839 0.0419124 0.04161472 0.04123337 0.04073858 0.04010859
 0.03935026 0.03845306 0.0374715 0.03640803 0.03534213 0.03428182 0.03329001 0.03237141 0.03154578 0.03081231
 0.03015733 0.0295787 0.02905606 0.02858818 0.02816128 0.02777167 0.02740461 0.02705345 0.02669865 0.02633948
 0.02596382 0.0255839 0.02520429 0.02484055 0.02450491 0.0241994 0.02392996 0.02368497 0.02346252 0.02325304
 0.02305362 0.02286533 0.02268708 0.02253114 0.02239801 0.02230943 0.02226614 0.02228455 0.02236062 0.02247788
 0.02262541 0.02275104 0.02284741 0.02286481 0.02281228 0.02267901 0.022487 0.02225844 0.02201183 0.02177121
 0.02154373 0.02134005 0.02116181 0.02101135 0.0208911 0.02080216 0.02074576 0.02072312 0.02072908 0.0207645
 0.02081148 0.02086955 0.02089556 0.0208856 0.02076803 0.02053912 0.02013243 0.01955794 0.01881145 0.01792366
 0.01696858 0.01597902 0.01505268 0.0141933 0.01345285 0.01279931 0.01222585 0.01169366 0.01117479 0.0106561
 0.0101214 0.009586674 0.009051294 0.008539998 0.008057578 0.007617714 0.007223538 0.0068703 0.006558178 0.006269124
 0.006002247 0.005741014 0.00548574 0.005230642 0.004977075 0.004727429 0.004482669 0.004246098 0.004019122 0.003805544
 0.003606919 0.003427952 0.003265708 0.00312177 0.002984996 0.002850097 0.002705754 0.00254336 0.002368191 0.002176644
 0.001992692 0.001819909 0.001677767 0.001570725 0.001489426 0.001433996 0.001375699 0.00131368 0.001232717 0.001135089
 0.001031187 0.0009224369 0.0008223787 0.0007260049 0.0006270988 0.0005198068 0.0003877951 0.0002351416 5.754928E-05 -0.0001313716
 -0.0003215139 -0.0005014911 -0.0006604784 -0.0007964239 -0.0009051873 -0.0009905662 -0.001051391 -0.001098371 -0.001131384 -0.001171614
 -0.001221149 -0.001299255 -0.001407821 -0.001542792 -0.001703062 -0.001863751 -0.002023987 -0.002164829 -0.002288799 -0.002396785
 -0.002490902 -0.002578287 -0.002657371 -0.002728254 -0.002789814 -0.00283964 -0.002880116 -0.002912765 -0.002938826 -0.002960491
 -0.002974557 -0.002979452 -0.002975626 -0.002960312 -0.002947698 -0.002938344 -0.00295461 -0.002999729 -0.003083453 -0.003207318
 -0.003354123 -0.003522391 -0.003680635 -0.003828652 -0.003948982 -0.004045859 -0.004128058 -0.004199577 -0.004278087 -0.004359882
 -0.004448182 -0.004533203 -0.00460238 -0.004651777 -0.004669737 -0.004667541 -0.004645879 -0.004625112 -0.004614124 -0.00462605
 -0.004668158 -0.004738068 -0.004837616 -0.004955421 -0.005090699 -0.005231554 -0.005377185 -0.005516918 -0.005650246 -0.005768216
 -0.005871126 -0.005956308 -0.006025954 -0.006087549 -0.006144185 -0.006209231 -0.006282207 -0.006370375 -0.006466942 -0.006566459
 -0.006661674 -0.006741838 -0.006809947 -0.006862165 -0.006911881 -0.006964728 -0.007027062 -0.007104684 -0.007185664 -0.007269509
 -0.007340118 -0.007394352 -0.007433535 -0.007457072 -0.007482266 -0.007509808 -0.007551873 -0.007607294 -0.00767209 -0.007744423
 -0.007813475 -0.007879842 -0.007939103 -0.007993974 -0.008048133 -0.008102329 -0.008159894 -0.008218416 -0.008276408 -0.008333175
 -0.00838617 -0.008441337 -0.008500127 -0.008569305 -0.008652574 -0.00874687 -0.00885349 -0.008960337 -0.009066026 -0.009162341
 -0.009248332 -0.009326438 -0.009396922 -0.009466627 -0.009535717 -0.009608532 -0.009684749 -0.009765497 -0.009849891 -0.009936574
 -0.0100235 -0.01010615 -0.01018281 -0.01024836 -0.01030478 -0.01035112 -0.01039265 -0.01043272 -0.01047413 -0.01051988
 -0.01056705 -0.01061552 -0.01066187 -0.01070483 -0.01074608 -0.0107854 -0.01082738 -0.01087243 -0.01092204 -0.0109762
 -0.01103287 -0.01109192 -0.01115136 -0.01121131 -0.01127156 -0.01133176 -0.01139087 -0.01144827 -0.01150146 -0.01155205
 -0.01159996 -0.01165026 -0.0117078 -0.01177601 -0.01186058 -0.01195571 -0.01206208 -0.01216677 -0.01226558 -0.01235192
 -0.01242233 -0.01248324 -0.01253464 -0.01258634 -0.01263927 -0.01269552 -0.01275501 -0.01281218 -0.01286684 -0.01291479
 -0.01295693 -0.01299521 -0.01303093 -0.01306921 -0.01311002 -0.01315608 -0.01320582 -0.01325774 -0.01331187 -0.01336678
 -0.01342578 -0.01349056 -0.01356375 -0.0136484 -0.01373986 -0.01383857 -0.01393451 -0.01402589 -0.01410474 -0.01416948
 -0.01421868 -0.01425193 -0.01427285 -0.01428175 -0.01428654 -0.014288 -0.01429652 -0.0143124 -0.01434348 -0.01438769
 -0.01444396 -0.01450788 -0.01457009 -0.01462756 -0.01467071 -0.0147026 -0.01472115 -0.01473481 -0.01474834 -0.01476855
 -0.01480078 -0.01484424 -0.01490095 -0.01496339 -0.01503105 -0.01509393 -0.0151507 -0.01519411 -0.01522325 -0.01523938
 -0.01524281 -0.01524511 -0.01524722 -0.01526289 -0.01529161 -0.01533883 -0.015402 -0.01547696 -0.01556021 -0.01564317
 -0.01572234 -0.01578911 -0.0158417 -0.0158741 -0.01588985 -0.0158878 -0.01587745 -0.01586214 -0.01585154 -0.01585008
 -0.01586015 -0.01588413 -0.01591514 -0.01595301 -0.0159879 -0.01601889 -0.01604175 -0.01605642 -0.01606706 -0.01607423
 -0.01608496 -0.01609956 -0.01612305 -0.01615583 -0.01620162 -0.01626074 -0.01633652 -0.01642651 -0.01653013 -0.01664084
 -0.01675264 -0.01685865 -0.01695179 -0.01703024 -0.01709018 -0.01713664 -0.0171694 -0.01719774 -0.0172232 -0.01725478
 -0.01729433 -0.01734365 -0.01740346 -0.01746466 -0.01752673 -0.01757703 -0.01761594 -0.01764144 -0.0176561 -0.01767197
 -0.01769051 -0.01772401 -0.01776882 -0.01782419 -0.01788386 -0.01793725 -0.01798364 -0.01801649 -0.01804294 -0.01806535
 -0.01809149 -0.01812702 -0.01817098 -0.01822594 -0.01828162 -0.01833677 -0.01838043 -0.0184102 -0.01842572 -0.01842615
 -0.01842484 -0.01842253 -0.0184361 -0.01846537 -0.01851568 -0.01858465 -0.01866347 -0.01874974 -0.01883085 -0.01890703
 -0.01897238 -0.01902872 -0.01907635 -0.0191165 -0.01915066 -0.01917916 -0.01920203 -0.01922155 -0.01923772 -0.01925658
 -0.01927972 -0.01931307 -0.01935927 -0.01941518 -0.01948182 -0.0195458 -0.0196062 -0.01965051 -0.01967827 -0.01969056
 -0.0196886 -0.01968546 -0.01968199 -0.01969013 -0.01970828 -0.01973818 -0.01977682 -0.01981845 -0.01986137 -0.01990033
 -0.01993544 -0.01996486 -0.01998924 -0.02000839 -0.02002323 -0.02003339 -0.02004272 -0.02005164 -0.02006649 -0.02008887
 -0.02012241 -0.02016854 -0.02022281 -0.0202853 -0.02034527 -0.02040218 -0.02044698 -0.02048001 -0.020501 -0.0205114
 -0.02051869 -0.02052383 -0.02053431 -0.0205491 -0.02056991 -0.02059475 -0.02062126 -0.02064832 -0.02067387 -0.02069754
 -0.02071851 -0.02073643 -0.02075087 -0.02076185 -0.02076915 -0.0207733 -0.02077417 -0.02077341 -0.02077086 -0.02077102
 -0.02077416 -0.0207859 -0.02080651 -0.0208372 -0.02087742 -0.02092154 -0.02096918 -0.02101463 -0.02105944 -0.02110479
 -0.02115411 -0.02121492 -0.02129098 -0.02139132 -0.02151767 -0.02167624 -0.02186408 -0.02208233 -0.02232345 -0.0225839
 -0.02285875 -0.02314358 -0.02344526 -0.02376254 -0.02411372 -0.02450139 -0.02493811 -0.02542635 -0.02595461 -0.02652203
 -0.02708906 -0.02765182 -0.02815671 -0.02859766 -0.02891605 -0.02910473 -0.02910504 -0.02892302 -0.02852753 -0.02796813
 -0.02729525 -0.02658312 -0.0259352 -0.02538105 -0.02498148 -0.02471863 -0.02460092 -0.02459952 -0.02470899 -0.02489671
 -0.02515907 -0.02544688 -0.02575484 -0.02602877 -0.02626259 -0.02643476 -0.02654406 -0.02659144 -0.02657714 -0.02650167
 -0.02636795 -0.02619053 -0.02597546 -0.02575078 -0.02552005 -0.02530509 -0.02510602 -0.02493302 -0.02478324 -0.02465968
 -0.02455229 -0.02445626 -0.0243583 -0.02424852 -0.0241264 -0.02398696 -0.02384474 -0.02370199 -0.02357138 -0.02345615
 -0.02335508 -0.02326882 -0.02318754 -0.02311076 -0.023031 -0.02294863 -0.02286582 -0.02278359 -0.02270941 -0.02264263
 -0.02258562 -0.02253577 -0.02248789 -0.02244101 -0.02239029 -0.02233862 -0.02228706 -0.02223904 -0.02219843 -0.02216419
 -0.02213752 -0.02211421 -0.02209292 -0.02207113 -0.02204777 -0.02202288 -0.02199639 -0.02196806 -0.02193787 -0.02190505
 -0.02186956 -0.02183431 -0.02179983 -0.02177372 -0.02175625 -0.02175367 -0.02176428 -0.02178611 -0.02181618 -0.0218465
 -0.02187578 -0.02189787 -0.02191441 -0.0219246 -0.02193115 -0.02193587 -0.02194073 -0.0219474 -0.0219562 -0.02196827
 -0.02198032 -0.02199244 -0.02199815 -0.0219964 -0.0219832 -0.02195766 -0.02192409 -0.02188269 -0.02184409 -0.02180858
 -0.02178349 -0.02176773 -0.02175876 -0.02175518 -0.02174986 -0.02174434 -0.02173797 -0.02173449 -0.02174096 -0.02175635
 -0.02178452 -0.02181651 -0.0218469 -0.02186817 -0.02187273 -0.02186519 -0.02184405 -0.02182101 -0.0217993 -0.02178337
 -0.02177539 -0.02176904 -0.02176409 -0.02175299 -0.02173529 -0.0217111 -0.02168093 -0.02165159 -0.02162363 -0.02160411
 -0.02159239 -0.02159037 -0.02159611 -0.0216063 -0.02161876 -0.02162821 -0.02163399 -0.02163266 -0.02162627 -0.0216146
 -0.02160189 -0.02159037 -0.02158281 -0.02158159 -0.02158416 -0.02159088 -0.02159618 -0.02159894 -0.02159754 -0.02159133
 -0.02158505 -0.02157892 -0.02157822 -0.02158279 -0.021592 -0.02160486 -0.02161511 -0.02162221 -0.02162032 -0.02161103
 -0.02159459 -0.0215743 -0.02155577 -0.02154091 -0.02153492 -0.02153577 -0.02154408 -0.02155592 -0.02156907 -0.0215819
 -0.02159283 -0.0216035 -0.02161399 -0.02162608 -0.02164024 -0.02165621 -0.02167405 -0.02169293 -0.02171279 -0.02173259
 -0.02175217 -0.02176927 -0.0217836 -0.02179187 -0.02179436 -0.02179019 -0.0217802 -0.02176622 -0.02174822 -0.02172709
 -0.02170226 -0.02167244 -0.02164021 -0.02160583 -0.02157595 -0.02155426 -0.02154532 -0.02155311 -0.0215734 -0.02160698
 -0.02164357 -0.02168172 -0.02171339 -0.02173737 -0.02175232 -0.02175806 -0.02175775 -0.02175159 -0.02174291 -0.02173184
 -0.02172054 -0.02170953 -0.02170182 -0.02169798 -0.02170176 -0.02171136 -0.02172659 -0.02174243 -0.02175265 -0.02175451
 -0.02174158 -0.02172021 -0.02169034 -0.02166437 -0.02164725 -0.02164594 -0.02166478 -0.02169808 -0.02174658 -0.02179696
 -0.02184809 -0.02188868 -0.02191798 -0.02193207 -0.02193118 -0.02191814 -0.02189382 -0.02186478 -0.02183221 -0.02180391
 -0.02178062 -0.0217687 -0.02176669 -0.02177586 -0.02179218 -0.02181152 -0.02183049 -0.02184427 -0.0218534 -0.02185634
 -0.02185638 -0.02185454 -0.02185273 -0.02185177 -0.02185168 -0.02185245 -0.02185483 -0.02185879 -0.02186618 -0.02187714
 -0.02189192 -0.02191038 -0.02193008 -0.02195077 -0.02196956 -0.02198654 -0.02200048 -0.02201143 -0.02201891 -0.02202277
 -0.02202215 -0.02201808 -0.02201074 -0.0220033 -0.02199839 -0.02199839 -0.02200635 -0.02201969 -0.02203899 -0.02205788
 -0.02207459 -0.02208587 -0.02209011 -0.02209165 -0.02209043 -0.02209443 -0.02210416 -0.02212166 -0.02214654 -0.02217236
 -0.02219874 -0.02221934 -0.02223548 -0.0222488 -0.0222609 -0.02227755 -0.02229737 -0.0223212 -0.02234556 -0.02236602
 -0.02238184 -0.02238986 -0.02239377 -0.0223944 -0.02239639 -0.0224021 -0.02241296 -0.02243038 -0.02245152 -0.02247646
 -0.02250029 -0.02252246 -0.02254 -0.02255265 -0.02256061 -0.02256397 -0.02256431 -0.02256191 -0.02255907 -0.02255654
 -0.02255846 -0.02256546 -0.02258182 -0.0226062 -0.02263888 -0.02267656 -0.0227154 -0.02275266 -0.02278417 -0.02281046
 -0.02282989 -0.02284661 -0.02286153 -0.02287937 -0.02290209 -0.02292988 -0.02296379 -0.02299807 -0.02303234 -0.02306078
 -0.02308294 -0.02309814 -0.0231065 -0.02311077 -0.02311105 -0.02310924 -0.0231053 -0.02309995 -0.02309343 -0.02308645
 -0.02307979 -0.02307494 -0.02307299 -0.02307615 -0.02308429 -0.02309881 -0.0231168 -0.02313722 -0.02315687 -0.02317375
 -0.02318813 -0.0231995 -0.02320974 -0.02321934 -0.02322787 -0.02323533 -0.02324129 -0.02324568 -0.0232518 -0.02325979
 -0.02327258 -0.02328944 -0.02330681 -0.0233232 -0.02333011 -0.02332776 -0.02331111 -0.02328421 -0.02325095 -0.0232177
 -0.0231946 -0.02318391 -0.02319317 -0.02321557 -0.0232508 -0.02328706 -0.02331922 -0.02334064 -0.0233472 -0.02334273
 -0.02332655 -0.02330786 -0.02328766 -0.02327193 -0.02326122 -0.02325489 -0.02325278 -0.02325154 -0.02325119 -0.02325058
 -0.02324976 -0.02324863 -0.02324669 -0.02324202 -0.02323544 -0.02322659 -0.02321908 -0.0232179 -0.02322415 -0.02324278
 -0.02326628 -0.02329246 -0.02331187 -0.02331814 -0.02331408 -0.02329769 -0.02328077 -0.02326569 -0.02325724 -0.02325686
 -0.02325961 -0.02326528 -0.02326898 -0.02327076 -0.02327192 -0.02327299 -0.02327846 -0.02328829 -0.02330523 -0.02332767
 -0.02335319 -0.02337911 -0.02339907 -0.02341203 -0.02341308 -0.02340519 -0.02338861 -0.02336835 -0.02334755 -0.02332945
 -0.02331655 -0.02330876 -0.02330708 -0.02330813 -0.02331186 -0.02331274 -0.02331012 -0.02330016 -0.02328245 -0.02325911
 -0.02323043 -0.02320251 -0.0231754 -0.02315256 -0.02313304 -0.02311448 -0.02309619 -0.02307415 -0.02305026 -0.02302567
 -0.02300365 -0.02298981 -0.02298351 -0.02298786 -0.02299577 -0.02300411 -0.02300631 -0.02299745 -0.02297998 -0.02295239
 -0.02292414 -0.02289677 -0.02287707 -0.02286652 -0.02286376 -0.02286896 -0.02287536 -0.02288274 -0.02288665 -0.02288773
 -0.0228887 -0.02289044 -0.02289892 -0.02291288 -0.02293292 -0.02295488 -0.02297103 -0.02297868 -0.0229693 -0.02294737
 -0.02291274 -0.02287372 -0.02283603 -0.02280302 -0.02277871 -0.02275888 -0.02274366 -0.02272639 -0.02270545 -0.02267894
 -0.02264598 -0.02261092 -0.02257385 -0.02254257 -0.02251746 -0.02250582 -0.02250727 -0.02252319 -0.02255089 -0.02257994
 -0.02260672 -0.02261419 -0.02260427 -0.02257089 -0.02252166 -0.02246414 -0.02240427 -0.02235006 -0.0223048 -0.02227273
 -0.02225543 -0.02225608 -0.02226887 -0.02229475 -0.02231853 -0.02233758 -0.02234013 -0.0223235 -0.02229077 -0.0222418
 -0.02218558 -0.02212235 -0.02205411 -0.02198072 -0.02190116 -0.02181693 -0.02173349 -0.02165379 -0.02158963 -0.02154153
 -0.02151821 -0.02151308 -0.02152286 -0.021536 -0.02153931 -0.02152941 -0.02149706 -0.02145394 -0.02140236 -0.0213544
 -0.02131613 -0.02128458 -0.02126148 -0.02123381 -0.02119975 -0.0211542 -0.02109628 -0.02103443 -0.02096898 -0.02090718
 -0.02084779 -0.02078357 -0.02071269 -0.02062105 -0.02051221 -0.02038769 -0.02025509 -0.02013155 -0.02001787 -0.01992431
 -0.01984332 -0.01977171 -0.01970219 -0.01962795 -0.01954886 -0.01946252 -0.01937309 -0.01928153 -0.01919032 -0.01910083
 -0.01900988 -0.01891795 -0.01881452 -0.01869872 -0.01856552 -0.0184153 -0.01826468 -0.01811479 -0.01798413 -0.01786985
 -0.01776902 -0.01767736 -0.01757988 -0.01747657 -0.0173595 -0.01723243 -0.01709769 -0.01695706 -0.0168137 -0.01666628
 -0.01651559 -0.0163577 -0.01619249 -0.01601103 -0.01581041 -0.01558538 -0.01533259 -0.01506172 -0.01477335 -0.01447789
 -0.01417648 -0.01386678 -0.01354879 -0.01322326 -0.01289122 -0.0125639 -0.01223966 -0.01191898 -0.01159482 -0.01124561
 -0.0108687 -0.01044327 -0.009983836 -0.009500242 -0.00900986 -0.008536976 -0.008079098 -0.007643385 -0.007218716 -0.006800559
 -0.006385592 -0.005971292 -0.005559968 -0.005154152 -0.004740785 -0.004321894 -0.003852498 -0.003329069 -0.002720685 -0.002028077
 -0.001309465 -0.0005694567 0.0001209425 0.0007711908 0.001389377 0.001986706 0.002602888 0.003237967 0.003910614 0.004617803
 0.005357312 0.006143169 0.00697933 0.007905393 0.008948426 0.01013718 0.01150807 0.01300658 0.01463741 0.01628368
 0.01791955 0.01948218 0.02095605 0.02234688 0.02365268 0.02490736 0.02611366 0.0273396 0.02859288 0.02998206
 0.03149727 0.03316729 0.03493856 0.03665032 0.03829205 0.03974549 0.04107357 0.04231979 0.04352813 0.0447675
 0.04603025 0.04733434 0.0486559 0.04998513 0.05131692 0.05265152 0.05396855 0.05526662 0.056512 0.05769636
 0.05883399 0.05992475 0.06099966 0.06205889 0.06307014 0.06402939 0.06487928 0.06562845 0.06628522 0.0668693
 0.06745014 0.06802972 0.06865688 0.06929561 0.06990822 0.070484 0.07098697 0.07145268 0.07190087 0.0723382
 0.07278153 0.07319473 0.07356904 0.07388032 0.07411857 0.07429199 0.0743993 0.07445951 0.07447396 0.07445799
 0.07441223 0.07434163 0.07424578 0.07412253 0.07397152 0.07378975 0.07357723 0.07333098 0.07305423 0.07274953
 0.07242687 0.07210123 0.07178148 0.07148353 0.07120705 0.07095566 0.07073043 0.07052992 0.07036619 0.07024317
 0.07016763 0.07014375 0.07016159 0.07022032 0.07031148 0.07043377 0.07059257 0.07078825 0.07103272 0.07132607
 0.07167479 0.07207655 0.07252443 0.07301348 0.07352471 0.07405452 0.07458416 0.07511763 0.07565046 0.07619389
 0.07675683 0.07735041 0.07798631 0.07866655 0.07939781 0.08016799 0.08097637 0.08180479 0.0826491 0.083498
 0.08434942 0.08519693 0.08604005 0.08686994 0.08768623 0.08848733 0.08927373 0.09005342 0.09082212 0.09156419
 0.09227023 0.0928968 0.09344955 0.09391605 0.09431385 0.09466805 0.09497923 0.09526131 0.09549838 0.09568215
 0.09580473 0.0958611 0.09584417 0.09575479 0.0955677 0.09527364 0.09487725 0.0943702 0.09383346 0.09327511
 0.09271826 0.09216323 0.09154819 0.09087148 0.09009326 0.08921911 0.08825728 0.0872141 0.0861195 0.08496422
 0.08375205 0.08244817 0.08099294 0.07938674 0.07756919 0.07567254 0.07377591 0.0719676 0.0703431 0.06881632
 0.06737822 0.06595298 0.06451083 0.06307402 0.06163882 0.06025759 0.05893658 0.05767535 0.05647366 0.05529138
 0.05412772 0.05295938 0.051791 0.05063463 0.04949595 0.04840158 0.04735028 0.04635523 0.04540541 0.04449167
 0.04359959 0.0427126 0.04181501 0.0408959 0.03992686 0.03889069 0.03776978 0.0365319 0.03527695 0.03400907
 0.03288798 0.03195284 0.0311725 0.03055281 0.02996477 0.02940229 0.02880236 0.02816869 0.02752377 0.02687286
 0.02625995 0.02567719 0.02511996 0.02458168 0.0240378 0.02350532 0.02299532 0.02253577 0.02216598 0.02188753
 0.02171846 0.0216383 0.02164034 0.02171209 0.02184622 0.0220433 0.02229992 0.0226309 0.02303463 0.0235519
 0.02418651 0.02496799 0.02589723 0.02689786 0.02796118 0.02895573 0.02988659 0.03071381 0.03145106 0.03212703
 0.032742 0.03331034 0.03382842 0.03428885 0.03471143 0.03510688 0.03551579 0.03598017 0.03649693 0.03709364
 0.03768753 0.03825239 0.03874324 0.03913518 0.03946452 0.03973079 0.03998692 0.04023791 0.04051623 0.04082364
 0.04115878 0.04152019 0.04188847 0.0422646 0.0426426 0.04302812 0.04343781 0.0438752 0.04435994 0.04488399
 0.04544317 0.04603017 0.04663043 0.04725539 0.04790852 0.04860162 0.04934757 0.0501302 0.05095083 0.05177598
 0.0525964 0.05339891 0.05417815 0.05494665 0.05570567 0.05645748 0.05720214 0.0579026 0.05855634 0.05911949
 0.0595947 0.05997458 0.06026411 0.06047804 0.06061591 0.06068514 0.06068039 0.06059602 0.06042891 0.06017165
 0.05982841 0.0593992 0.05889074 0.05830828 0.05764947 0.05691647 0.05609732 0.05518691 0.05419117 0.05310512
 0.05197757 0.05081149 0.04966091 0.04852886 0.04742477 0.04634724 0.04527865 0.0442202 0.04316935 0.04213101
 0.04112265 0.04014435 0.03920682 0.03830331 0.03742789 0.0365744 0.03573309 0.03490221 0.03407613 0.03325902
 0.03244947 0.03165951 0.03089207 0.03016065 0.02947061 0.0288212 0.02821494 0.02763407 0.02707712 0.02653
 0.02599182 0.02547577 0.02498404 0.02455087 0.02417567 0.02387512 0.0236411 0.02345441 0.02330603 0.02316455
 0.0230271 0.02287381 0.02270896 0.02252829 0.02234136 0.02215377 0.02197426 0.02181005 0.02166181 0.02153254
 0.02141581 0.02131054 0.02121198 0.02111885 0.02103155 0.02095004 0.02087449 0.02080492 0.02073667 0.02066948
 0.02059813 0.02052338 0.02044653 0.02036959 0.02030048 0.02024067 0.02019829 0.02017217 0.02016469 0.02017244
 0.02019274 0.02022198 0.0202568 0.02029387 0.0203309 0.02036475 0.02039388 0.02041613 0.02043057 0.0204367
 0.02043382 0.02042538 0.02041104 0.02040205 0.02039901 0.0204165 0.02045457 0.02051737 0.02060254 0.02069773
 0.02080031 0.02089384 0.02097791 0.02104405 0.02109115 0.02111563 0.02111122 0.02107054 0.02098523 0.020845
 0.0206491 0.02039112 0.02008476 0.01973079 0.01935287 0.01895592 0.01856222 0.01817611 0.01781104 0.01746898
 0.01715505 0.01686967 0.01661326 0.01638556 0.01618301 0.01600468 0.01584319 0.01569712 0.01555705 0.01542264
 0.01528726 0.01515418 0.01502434 0.01490517 0.01480576 0.01473115 0.01469058 0.01467882 0.01469749 0.01473378
 0.01478308 0.01483706 0.01489183 0.01494824 0.01500579 0.01506671 0.01513148 0.01519794 0.01526602 0.01533181
 0.01539517 0.01545354 0.01550698 0.01555448 0.0155964 0.01563334 0.01566589 0.01569613 0.01572349 0.01574883
 0.01576889 0.01578068 0.01578008 0.01576178 0.01572659 0.01567198 0.01560531 0.015529 0.01544771 0.01536478
 0.01527324 0.01517312 0.01505289 0.01491078 0.01474633 0.01455929 0.01436205 0.01415516 0.013949 0.01374257
 0.0135343 0.01332292 0.01310179 0.01287267 0.01263578 0.01239529 0.01215901 0.01192839 0.01170925 0.01149857
 0.0112952 0.0110982 0.01090523 0.01072165 0.01054908 0.01039135 0.01025115 0.01012283 0.01000636 0.009892796
 0.009780984 0.009667566 0.009552242 0.009434994 0.009315882 0.009195451 0.009074376 0.00895701 0.008844801 0.008745699
 0.008660588 0.008595415 0.008551041 0.008531149 0.008537473 0.008573988 0.008640343 0.008738516 0.008864557 0.009016393
 0.009192391 0.009390253 0.009614659 0.00986629 0.01014959 0.010466 0.01081398 0.01119363 0.01160205 0.01203901
 0.01250707 0.01300646 0.01354235 0.01411396 0.01471945 0.01535594 0.0160112 0.01668291 0.0173585 0.01803819
 0.01871791 0.01939537 0.02006907 0.02072853 0.02136576 0.02196894 0.0225277 0.02304037 0.02350309 0.02392048
 0.02429347 0.02462352 0.02491074 0.02515765 0.02536384 0.02553958 0.02568542 0.02581247 0.02592117 0.02601817
 0.02610477 0.02619176 0.02628298 0.02639921 0.02654418 0.02673925 0.02698304 0.02728481 0.02763647 0.02803247
 0.02846378 0.02891951 0.02939848 0.02989607 0.0304167 0.03096375 0.03152945 0.03211596 0.03269752 0.03327028
 0.03381268 0.03432036 0.0347982 0.03524583 0.03568824 0.03612683 0.03658726 0.03706957 0.03758776 0.03813833
 0.03871661 0.03931522 0.03991322 0.0405037 0.04106406 0.0415925 0.04207703 0.04252049 0.04292042 0.04328284
 0.04360968 0.04390884 0.04418376 0.04444019 0.04467985 0.04490826 0.04512531 0.04534387 0.04556448 0.04580649
 0.04607112 0.04637637 0.0467229 0.04712214 0.04757284 0.04807353 0.04861932 0.04919047 0.04978075 0.05036313
 0.05093533 0.05148071 0.05199975 0.05248775 0.05294213 0.05336062 0.05373647 0.05406685 0.05434057 0.0545538
 0.05469314 0.05475235 0.05473201 0.05462703 0.05446937 0.05425971 0.05404891 0.0538403 0.05367383 0.05355058
 0.05348666 0.0534803 0.05352756 0.05362414 0.05375081 0.05390302 0.05405809 0.05421571 0.05436438 0.05450686
 0.05464285 0.05477271 0.05489748 0.05501462 0.05512405 0.05521972 0.05530113 0.05535531 0.05537916 0.05536016
 0.05529401 0.05518361 0.05502774 0.05484226 0.05462815 0.05439811 0.05415247 0.05389518 0.05362603 0.05334523
 0.05305283 0.05274872 0.05243408 0.05211169 0.05178358 0.05145543 0.05112681 0.05079987 0.05047235 0.05014175
 0.0498104 0.04947824 0.04915022 0.04882943 0.04851463 0.0482065 0.0479012 0.04759765 0.0472968 0.04699915
 0.04670026 0.04640028 0.04608081 0.04574079 0.04535963 0.0449369 0.04446044 0.04392955 0.04333464 0.04267523
 0.04194336 0.04114321 0.04027709 0.03935391 0.03838527 0.03738045 0.03635113 0.03530503 0.0342504 0.03319049
 0.03212948 0.03106436 0.02999457 0.02891948 0.02783704 0.02675952 0.02568715 0.02463984 0.02361892 0.0226412
 0.02170748 0.02083105 0.02001216 0.01925984 0.0185721 0.01794665 0.01737827 0.01685211 0.01636226 0.01589
 0.01543361 0.01498068 0.01453901 0.0141091 0.01370555 0.01333933 0.01301425 0.01273894 0.0124953 0.01228136
 0.01207463 0.01186947 0.01165838 0.01143943 0.01121315 0.01097952 0.01073601 0.01048269 0.01022175 0.009954376
 0.009691139 0.009433062 0.009189873 0.008962529 0.008758035 0.008578466 0.008432458 0.008317623 0.00823717 0.008179903
 0.008137499 0.008098568 0.008052023 0.00799659 0.007927676 0.007852243 0.007770573 0.00769269 0.007620192 0.007562678
 0.007521948 0.007499957 0.007497332 0.007504637 0.007521312 0.007535808 0.007547987 0.007551956 0.007547703 0.007531988
 0.007504782 0.00746335 0.00741 0.007346895 0.007278861 0.007213158 0.007153663 0.007107316 0.007073593 0.007055305
 0.007046987 0.007046997 0.007050655 0.007054566 0.007064391 0.007079379 0.007113437 0.007168616 0.007250889 0.007361338
 0.007490043 0.007636374 0.007786178 0.007939478 0.008090435 0.008239878 0.008388821 0.008537209 0.008685924 0.008833265
 0.008976713 0.009113704 0.009239158 0.009352981 0.009452187 0.0095409 0.00962051 0.009695773 0.009769388 0.009843221
 0.009918139 0.009996028 0.01007719 0.01016437 0.01025846 0.01035629 0.01045799 0.01055332 0.0106419 0.01071827
 0.01078355 0.01084518 0.01090466 0.01097379 0.01105113 0.01113959 0.01123465 0.01132865 0.01141818 0.01149407
 0.01155841 0.01160817 0.01165156 0.01169232 0.01173928 0.01179857 0.0118704 0.01195828 0.01204973 0.01214333
 0.01222566 0.01229361 0.01235037 0.01239544 0.01244575 0.01250193 0.01257242 0.01265595 0.01274394 0.01283569
 0.0129226 0.01300659 0.01308963 0.01317214 0.01325677 0.01334095 0.01342129 0.01349816 0.01356874 0.01364014
 0.01371595 0.0138026 0.01390574 0.01402148 0.01415148 0.01428313 0.01441371 0.01453658 0.01464936 0.01476005
 0.01486892 0.01498664 0.01511347 0.01524731 0.01538741 0.01552531 0.01566174 0.01579635 0.01592935 0.0160621
 0.01619213 0.01631392 0.01642827 0.01653204 0.01663231 0.01673544 0.0168452 0.01696721 0.01709887 0.01723932
 0.01739018 0.01755134 0.01772676 0.01791915 0.01811917 0.01832728 0.0185228 0.01870399 0.01885836 0.01898565
 0.0190933 0.01918352 0.01927997 0.01938477 0.01952247 0.01968992 0.0198927 0.02012124 0.02035877 0.02059725
 0.02081664 0.02101704 0.02119045 0.02134176 0.02147156 0.02158548 0.02168581 0.02177823 0.02186513 0.02194911
 0.02203105 0.02211241 0.02219289 0.02227927 0.02237208 0.02247688 0.02259368 0.02271391 0.02283661 0.0229481
 0.02304954 0.02313928 0.02321965 0.02329747 0.02337299 0.02344968 0.02352765 0.0236086 0.0236922 0.02378019
 0.02386759 0.02395172 0.024028 0.02409182 0.02414795 0.02419576 0.02424535 0.0242987 0.02436319 0.02444019
 0.02453336 0.02464338 0.02476705 0.02490412 0.0250451 0.02518993 0.02533477 0.02547999 0.02562685 0.02577294
 0.02591073 0.02603917 0.02614921 0.02624941 0.02634747 0.02645357 0.02658269 0.02673539 0.02691681 0.02712469
 0.02735964 0.02761781 0.02790184 0.02819071 0.02848215 0.02874874 0.0289841 0.02919107 0.0293683 0.02954176
 0.02971256 0.029892 0.03007926 0.03026941 0.03046192 0.03065293 0.03084059 0.03101704 0.03118063 0.03132077
 0.03144525 0.03155971 0.03167511 0.03180942 0.03195499 0.03211712 0.03226953 0.0324007 0.03249234 0.03253195
 0.0325288 0.03247844 0.03241668 0.03234621 0.0323094 0.03231097 0.03236387 0.03246836 0.03259471 0.03274048
 0.03286806 0.03297925 0.0330625 0.03312399 0.03317594 0.03322653 0.0333006 0.0333999 0.03354385 0.03371358
 0.03389837 0.0340769 0.03422053 0.03435157 0.03446347 0.03461863 0.03484797 0.03514092 0.03551645 0.03585704
 0.03614255 0.0363392 0.03643804 0.03650301 0.03653711 0.03659538 0.03667686 0.03679103 0.03693138 0.03706823
 0.03719705 0.03728408 0.03733643 0.03735187 0.03734192 0.03732761 0.03730388 0.03727542 0.03722895 0.03714931
 0.03705147 0.03693327 0.03683075 0.03675871 0.03672709 0.03674466 0.03679021 0.03686316 0.03693607 0.03700749
 0.03704172 0.03703681 0.0369566 0.03680289 0.03658121 0.03630058 0.03601287 0.03572451 0.03548525 0.03529336
 0.03517031 0.03510911 0.03511288 0.03516202 0.03523994 0.03532212 0.03537768 0.03541901 0.03543795 0.03547442
 0.03554545 0.03565514 0.03581199 0.03598619 0.03617444 0.0363556 0.03652791 0.03667033 0.03678173 0.03684639
 0.03686772 0.03688151 0.03689244 0.03695184 0.03704751 0.0371659 0.03729185 0.03737637 0.03743213 0.03745349
 0.0374664 0.03750075 0.03756269 0.03766993 0.03780958 0.03798152 0.03816692 0.03836076 0.03854299 0.03870663
 0.03884746 0.03896132 0.03906965 0.03917388 0.03929335 0.03942903 0.039577 0.03973619 0.03989359 0.04004747
 0.04018214 0.0402955 0.04036887 0.0404085 0.04041715 0.04040695 0.04040255 0.04039989 0.04040683 0.04040825
 0.04039072 0.04035882 0.04031055 0.040255 0.04019944 0.04012835 0.04003768 0.03992439 0.03978323 0.03965059
 0.03953005 0.0394388 0.03937779 0.03931306 0.03924357 0.03914487 0.03902183 0.03889206 0.03875733 0.03863459
 0.0385188 0.03840547 0.03829267 0.03817545 0.03805298 0.03792385 0.03778354 0.03762789 0.03745481 0.03726259
 0.03704869 0.03681264 0.03654876 0.03625305 0.03593646 0.03559756 0.0352668 0.03494721 0.03465642 0.03439552
 0.03415528 0.03393435 0.03371427 0.03349257 0.03324562 0.03297154 0.03264644 0.03228046 0.03188104 0.03146911
 0.03108516 0.03073356 0.03043889 0.03018649 0.02997012 0.02978641 0.0296292 0.02950841 0.0294292 0.0293862
 0.02938276 0.02939229 0.02941236 0.0294133 0.02939143 0.02933632 0.02924723</values></Ydata></AB><ScSm><Ydata ylabel="Single channel"><values byteorder="INTEL" format="FLOAT32" numvalues="1814"> 0.06588338 0.0658984 0.06597474 0.06612931 0.06633571 0.06653643 0.06667984 0.06675218 0.06676723 0.06673364
 0.06666337 0.0666106 0.06665548 0.06682493 0.06705031 0.06721759 0.06725754 0.06720319 0.06716844 0.06723839
 0.06735365 0.06732773 0.06702121 0.06650402 0.06601238 0.06573109 0.06567708 0.06584188 0.06631161 0.06703815
 0.06757832 0.06741069 0.06659234 0.06579347 0.0655506 0.06574802 0.06593472 0.06584899 0.06549807 0.06504665
 0.06486076 0.0654173 0.06683703 0.068487 0.06920081 0.06801559 0.06486396 0.0607938 0.05757739 0.05675915
 0.05856979 0.06161791 0.06393467 0.06454316 0.06392436 0.06302319 0.06223047 0.06150811 0.06104594 0.06129103
 0.06233271 0.06349266 0.06367591 0.06230603 0.06001233 0.05818515 0.05770674 0.05839512 0.05975042 0.06150082
 0.06284997 0.06203835 0.05807124 0.05292001 0.05064996 0.05355648 0.05971722 0.06487568 0.0662312 0.06400856
 0.06022196 0.05700161 0.05579576 0.05698211 0.05979153 0.06294614 0.06543669 0.06657919 0.06584728 0.06332352
 0.06014503 0.05795616 0.05790103 0.06017219 0.06396651 0.067559 0.06908868 0.06793146 0.06511278 0.06222184
 0.06036664 0.06017829 0.06196272 0.06538238 0.06943402 0.07303274 0.07545967 0.07643398 0.07616584 0.0752217
 0.07409442 0.07312547 0.07280909 0.07348904 0.0745559 0.07467438 0.07323525 0.07116482 0.06996976 0.07017829
 0.07091816 0.07098129 0.07004784 0.06849667 0.06621517 0.06257209 0.0578669 0.05372163 0.05146366 0.05111193
 0.05233532 0.05497463 0.05791788 0.05903199 0.0574955 0.05529016 0.05523666 0.05798595 0.06168205 0.06422605
 0.0652179 0.06581321 0.06723173 0.06950904 0.07134045 0.07106723 0.06832369 0.06496458 0.0637577 0.06566866
 0.06892905 0.07120667 0.07206231 0.0727022 0.07386818 0.07469092 0.0735954 0.07017242 0.06619605 0.06453463
 0.06665316 0.07114501 0.07474985 0.07476947 0.07088684 0.06523898 0.06074771 0.05909723 0.06027977 0.06370398
 0.0688467 0.07467584 0.07938492 0.08140374 0.08054341 0.07790366 0.07461804 0.0708062 0.06617282 0.06175227
 0.06012345 0.06297365 0.06894409 0.07476243 0.07816344 0.07902186 0.07808173 0.07555804 0.07134493 0.06636597
 0.06302072 0.06332289 0.06647795 0.069332 0.06967601 0.06825992 0.06717126 0.06722759 0.06767353 0.06778596
 0.06790894 0.06887002 0.07079941 0.07281877 0.07389182 0.07376638 0.07301533 0.07236388 0.07203008 0.07157152
 0.07051109 0.06929506 0.06923719 0.07108329 0.0739863 0.07637616 0.07753365 0.07785147 0.07778681 0.07705992
 0.07506301 0.07200542 0.06938154 0.06886296 0.07068238 0.0734881 0.07575043 0.07686157 0.07699518 0.07655613
 0.07590432 0.07523271 0.07462633 0.07431886 0.07463835 0.07553843 0.07648641 0.07700023 0.07704556 0.07679671
 0.07629356 0.07551078 0.07460371 0.07391553 0.07373251 0.07406907 0.07470165 0.07536761 0.0758647 0.07602353
 0.07576557 0.07522243 0.07465483 0.07421818 0.07391685 0.07377091 0.07386307 0.07418384 0.07456024 0.07480205
 0.07485189 0.07476152 0.07458609 0.07434653 0.07406335 0.073793 0.07362676 0.07363139 0.07376935 0.07391793
 0.07400815 0.07409251 0.07421767 0.07429744 0.0742037 0.07394511 0.07366937 0.07350524 0.07346474 0.07348314
 0.07348686 0.07340316 0.0731577 0.07273886 0.07228022 0.07201093 0.07207279 0.07241723 0.07289042 0.07334751
 0.0736739 0.07380337 0.07377031 0.07367671 0.07357193 0.07341538 0.07317287 0.07290787 0.0727606 0.07284032
 0.07312576 0.07347421 0.07373962 0.07386719 0.07388395 0.0738586 0.07387535 0.07397014 0.07407103 0.07406621
 0.07394658 0.07382658 0.07381168 0.07388666 0.07394527 0.07391124 0.07382143 0.0737855 0.0738643 0.07401138
 0.07414259 0.07423137 0.074315 0.07442477 0.07452781 0.07454497 0.07443848 0.07427208 0.07415053 0.07410783
 0.07410145 0.07411024 0.07417382 0.07431614 0.07448113 0.07458018 0.07458671 0.07455699 0.07455553 0.07457793
 0.07456313 0.07447474 0.07434635 0.07424361 0.0742028 0.07421394 0.07424407 0.07426158 0.07424645 0.07419388
 0.07411443 0.07402585 0.07394011 0.0738657 0.07382655 0.07385994 0.07396944 0.07408614 0.07410836 0.07399546
 0.07381047 0.07365911 0.07359101 0.07356563 0.07350786 0.07338391 0.07322043 0.0730653 0.07294589 0.072861
 0.07279401 0.07273032 0.0726773 0.07267266 0.07275257 0.07289582 0.07301554 0.07303093 0.07294333 0.07282449
 0.07274124 0.0727118 0.07272082 0.07274853 0.07278936 0.07285815 0.07296576 0.07308164 0.07314956 0.07315537
 0.07315053 0.07319631 0.07331289 0.07348527 0.07367782 0.07383482 0.07391113 0.07392231 0.07393585 0.07400014
 0.07410492 0.07421702 0.07432619 0.07444285 0.07457316 0.07471646 0.07487963 0.07507935 0.07532749 0.075613
 0.07589567 0.07612577 0.07628797 0.07642852 0.07662361 0.07691232 0.0772638 0.07760945 0.07790095 0.07814124
 0.07836722 0.07860519 0.07884993 0.07909331 0.07935689 0.07967097 0.08002873 0.08038859 0.08072244 0.08103862
 0.0813569 0.08168225 0.08200908 0.0823396 0.08269018 0.08307551 0.08348188 0.08386315 0.0841775 0.08442912
 0.08466721 0.08494762 0.08529422 0.08567785 0.08602513 0.08627455 0.08644494 0.086628 0.08689001 0.08720021
 0.08748431 0.08772981 0.08799914 0.08834006 0.08872126 0.08907151 0.08935945 0.08961506 0.08988193 0.0901632
 0.09041809 0.09060709 0.09073763 0.09085882 0.09101389 0.09121352 0.0914603 0.09177038 0.09214475 0.0925366
 0.09287861 0.0931389 0.09333166 0.09348627 0.0936279 0.09377445 0.0939288 0.09408148 0.09423055 0.09438144
 0.094522 0.09462996 0.09471775 0.09483778 0.09502546 0.09526601 0.09553372 0.09583107 0.09616351 0.0965047
 0.09682529 0.09714352 0.09750442 0.09790203 0.0982599 0.0985105 0.09866428 0.0987769 0.09888139 0.09899131
 0.09914488 0.09939093 0.09973015 0.1001087 0.1004755 0.1008202 0.1011541 0.1014792 0.1017805 0.1020364
 0.1022305 0.1023636 0.10246 0.1025643 0.1027229 0.1029546 0.1032324 0.1035003 0.1037133 0.1038515
 0.1039007 0.10385 0.1037261 0.1036036 0.1035437 0.1035238 0.1034479 0.1032267 0.1028341 0.1022922
 0.1016284 0.100863 0.10003 0.09919593 0.09844929 0.09786673 0.09749135 0.09734498 0.09744657 0.09779508
 0.09833203 0.09894256 0.09950407 0.09992087 0.1001146 0.1000188 0.09961469 0.09896232 0.0981745 0.09736111
 0.09659767 0.09591876 0.09531945 0.09478328 0.09434146 0.0941048 0.09422115 0.0947971 0.09585108 0.09730817
 0.09901235 0.1007603 0.1023698 0.1037504 0.1049149 0.1059257 0.1068357 0.1076798 0.1084921 0.1092944
 0.1100689 0.1107729 0.1113894 0.1119436 0.1124656 0.1129568 0.1133937 0.1137513 0.1140219 0.1142218
 0.1143744 0.1144824 0.1145324 0.1145325 0.1145222 0.1145314 0.114541 0.1144928 0.114328 0.1140205
 0.1136047 0.1131982 0.1129933 0.1131984 0.1139458 0.1152182 0.1168535 0.1186273 0.1203424 0.1218614
 0.123103 0.124052 0.1247666 0.1253431 0.1258579 0.1263445 0.1268122 0.1272657 0.1277076 0.1281371
 0.1285524 0.1289596 0.1293753 0.1298116 0.1302521 0.1306582 0.1310104 0.1313363 0.1316871 0.1320875
 0.1325148 0.1329265 0.133306 0.1336758 0.1340593 0.1344418 0.1347845 0.1350754 0.1353453 0.1356363
 0.1359714 0.1363505 0.1367498 0.1371263 0.1374462 0.1377149 0.1379686 0.1382372 0.1385235 0.138815
 0.1391017 0.1393825 0.1396612 0.139946 0.1402474 0.1405662 0.1408828 0.1411663 0.1414048 0.1416198
 0.1418453 0.142096 0.1423592 0.1426144 0.1428577 0.1431087 0.1433923 0.1437105 0.1440324 0.1443186
 0.1445556 0.1447641 0.1449774 0.1452157 0.1454772 0.1457479 0.1460153 0.1462763 0.1465341 0.1467932
 0.1470564 0.1473244 0.147594 0.1478573 0.1481062 0.1483414 0.1485738 0.1488155 0.1490744 0.1493572
 0.1496691 0.1500015 0.1503257 0.1506078 0.1508345 0.1510217 0.151201 0.1513993 0.1516262 0.1518736
 0.1521268 0.1523773 0.1526265 0.1528795 0.1531387 0.1534024 0.1536661 0.153925 0.1541773 0.1544261
 0.1546777 0.1549387 0.1552104 0.1554844 0.1557456 0.155984 0.1562055 0.1564273 0.1566632 0.1569106
 0.1571535 0.1573826 0.1576098 0.1578557 0.1581228 0.1583916 0.1586446 0.1588835 0.1591201 0.1593598
 0.1595984 0.159831 0.1600601 0.1602936 0.1605379 0.1607923 0.1610503 0.1613055 0.1615561 0.1618052
 0.162057 0.162309 0.1625525 0.1627817 0.1630015 0.1632245 0.1634595 0.163703 0.1639435 0.1641719
 0.1643901 0.1646066 0.1648293 0.1650612 0.1653 0.1655375 0.1657669 0.1659919 0.1662229 0.166466
 0.1667198 0.1669818 0.1672475 0.1675067 0.1677479 0.1679699 0.1681854 0.1684134 0.168663 0.1689266
 0.1691886 0.1694406 0.1696835 0.1699218 0.1701595 0.1703992 0.1706413 0.1708844 0.1711274 0.1713648
 0.1715884 0.1717982 0.1720064 0.172226 0.1724597 0.1727006 0.1729383 0.1731671 0.1733935 0.1736293
 0.1738763 0.1741267 0.1743746 0.1746198 0.1748637 0.1751093 0.1753583 0.1756055 0.1758455 0.1760828
 0.1763261 0.1765762 0.1768303 0.1770873 0.1773452 0.1776009 0.1778544 0.1781035 0.1783441 0.1785812
 0.178827 0.1790825 0.1793352 0.1795773 0.1798117 0.1800451 0.1802843 0.1805325 0.1807831 0.1810286
 0.1812691 0.1815071 0.1817418 0.1819776 0.1822217 0.1824728 0.1827258 0.1829808 0.1832346 0.1834789
 0.183716 0.1839563 0.1841999 0.1844411 0.1846803 0.1849159 0.1851422 0.1853624 0.1855833 0.1857924
 0.185946 0.185929 0.1854491 0.1839302 0.1805082 0.1742039 0.1643026 0.1507984 0.1345562 0.1170105
 0.09963915 0.08357757 0.06950398 0.057723 0.04831015 0.04120546 0.03626977 0.03338015 0.03253253 0.03395072
 0.03820604 0.04587858 0.05627218 0.06627555 0.07157087 0.07003914 0.06378451 0.05721795 0.05339526 0.0525387
 0.05334396 0.05468943 0.0562154 0.05812558 0.06077491 0.06426748 0.06843534 0.07326593 0.07911452 0.08624946
 0.09430081 0.1024114 0.1099725 0.1170976 0.1243385 0.1320164 0.1398851 0.1473747 0.1540445 0.1598047
 0.1648342 0.1693821 0.1736249 0.1776448 0.1814775 0.1851137 0.1884235 0.1911272 0.1929287 0.193739
 0.1937849 0.1934865 0.1932117 0.1931292 0.1932504 0.1935441 0.193989 0.1945665 0.1952531 0.1960194
 0.1968307 0.1976582 0.1984889 0.1993126 0.2001081 0.2008546 0.2015454 0.202184 0.2027719 0.2033083
 0.2037944 0.2042372 0.2046473 0.2050324 0.2053942 0.205736 0.2060672 0.2063912 0.2067001 0.2069858
 0.2072506 0.2074999 0.2077355 0.2079596 0.2081782 0.2083955 0.2086111 0.2088236 0.2090349 0.2092503
 0.2094744 0.2097031 0.2099251 0.2101323 0.2103275 0.2105182 0.2107108 0.2109103 0.2111196 0.2113365
 0.2115549 0.2117705 0.2119818 0.2121894 0.2123947 0.2125993 0.2128042 0.2130116 0.2132213 0.2134264
 0.2136229 0.2138219 0.2140385 0.2142715 0.2145059 0.2147349 0.2149612 0.2151862 0.2154102 0.2156352
 0.2158552 0.216055 0.2162287 0.2163909 0.2165669 0.2167739 0.2170086 0.2172499 0.2174803 0.2177023
 0.217927 0.2181525 0.2183643 0.218552 0.2187226 0.2189057 0.2191333 0.2194041 0.2196827 0.2199442
 0.2201958 0.2204482 0.2206995 0.2209523 0.2212085 0.2214433 0.221623 0.2217612 0.2219308 0.2222055
 0.2225868 0.2229955 0.2233447 0.2236169 0.2238564 0.2241082 0.2243891 0.2246755 0.2248825 0.2249214
 0.2248423 0.2248593 0.2251568 0.2257081 0.2263292 0.2268633 0.2272715 0.2275946 0.227881 0.2281365
 0.2283158 0.2283732 0.22835 0.2284028 0.2286925 0.2292164 0.2297974 0.2302687 0.2306082 0.2308736
 0.231104 0.2313132 0.2314585 0.2313915 0.2310135 0.2305457 0.2304685 0.2310587 0.2320751 0.2330124
 0.2335987 0.2339351 0.2342129 0.2344824 0.2347068 0.2348008 0.2345129 0.233568 0.2321911 0.2312586
 0.2315724 0.2330546 0.2348864 0.2363266 0.2371764 0.2376066 0.2378503 0.2380485 0.2381459 0.2378819
 0.2370837 0.2360774 0.2356207 0.2362038 0.2374969 0.2387052 0.2393825 0.2396713 0.2398853 0.2401552
 0.2403386 0.2399687 0.2385185 0.2361803 0.2342635 0.2342758 0.2364484 0.2394569 0.2417313 0.2428092
 0.2432192 0.2433246 0.2427851 0.2411713 0.2386122 0.2357351 0.233468 0.2329182 0.2346391 0.2377106
 0.2402614 0.2413172 0.2416227 0.2424082 0.243921 0.2454318 0.2461793 0.2459576 0.2449957 0.2435481
 0.2417703 0.240093 0.2394519 0.2406287 0.2432988 0.2461454 0.2480737 0.2490399 0.2494764 0.2490082
 0.246198 0.2402756 0.2332954 0.2295649 0.2318429 0.2384548 0.2450913 0.2490442 0.2506878 0.2514553
 0.2519152 0.2516156 0.2493501 0.2438163 0.235671 0.2288259 0.2278074 0.2332805 0.2412945 0.2469703
 0.2478275 0.2440524 0.2376155 0.2316799 0.2293152 0.2316416 0.2373361 0.2439364 0.249323 0.2523117
 0.2526413 0.2508434 0.2481929 0.2464062 0.2464073 0.2469592 0.2455927 0.2417259 0.237633 0.2351003
 0.2326521 0.2282779 0.2238565 0.22392 0.2297728 0.2373186 0.241662 0.2420674 0.241087 0.239901
 0.23629 0.2278293 0.2164836 0.2086951 0.209753 0.2183108 0.2275895 0.2320116 0.2316333 0.2301683
 0.2300268 0.2298552 0.2264533 0.2189556 0.2109467 0.20745 0.2095862 0.2135674 0.2151791 0.2131523
 0.207695 0.1991151 0.1902102 0.1871448 0.1942482 0.2087085 0.222783 0.2301829 0.2283747 0.2171814
 0.1996361 0.1837917 0.178808 0.1867607 0.2001239 0.2086938 0.2076906 0.198609 0.1848391 0.1693339
 0.1559702 0.149974 0.1547734 0.1685099 0.1841504 0.1930246 0.1896121 0.1758027 0.1611954 0.1561917
 0.1625727 0.1723096 0.1765697 0.173729 0.1680965 0.1643311 0.1647337 0.1689284 0.1742877 0.1783621
 0.1808264 0.180795 0.1741946 0.1586741 0.1402074 0.1291874 0.1296173 0.1370263 0.1467922 0.1582969
 0.1695649 0.1744181 0.1694543 0.1605233 0.1577621 0.1648368 0.1757962 0.1823435 0.1820452 0.1787892
 0.1767574 0.1759498 0.1742761 0.1724052 0.173941 0.1804431 0.1886922 0.1942766 0.1961779 0.1963748
 0.196477 0.1965097 0.1960586 0.1949928 0.1933762 0.191573 0.19015 0.1892351 0.1883998 0.1873147
 0.1857219 0.1824497 0.1756884 0.1655663 0.1557597 0.1506012 0.1505144 0.1522951 0.1538547 0.1554587
 0.1553352 0.148399 0.1329753 0.1163462 0.1094604 0.1163641 0.1311977 0.1448774 0.1520297 0.1514428
 0.1433812 0.1298561 0.1169354 0.1128527 0.1212714 0.1377592 0.1545468 0.167227 0.1752286 0.1781055
 0.17481 0.16646 0.1574273 0.152855 0.1555467 0.1647119 0.1761833 0.1834436 0.180808 0.1691067
 0.1582789 0.1600459 0.1755486 0.1933807 0.2024035 0.2030589 0.2028212 0.2045844 0.2052333 0.2038541
 0.2050157 0.2124924 0.2236711 0.2320955 0.2331179 0.2257325 0.2119659 0.1973177 0.1893344 0.1915749
 0.1995807 0.2057303 0.2066256 0.2026747 0.1935851 0.1801808 0.1691362 0.1689891 0.1802561 0.1942733
 0.2030406 0.2064976 0.2089446 0.2115964 0.2111172 0.2047056 0.1947955 0.1875522 0.1867736 0.1905644
 0.1945227 0.196382 0.1960543 0.1930004 0.1865633 0.1788775 0.1748996 0.1781103 0.1869086 0.196102
 0.2015412 0.2027161 0.2015329 0.1998493 0.1982222 0.1960687 0.192923 0.1900547 0.190215 0.1946866
 0.2012118 0.2062908 0.2091743 0.2121177 0.2168241 0.2220718 0.2251661 0.2248615 0.2225552 0.2210802
 0.2224219 0.2261223 0.2296151 0.2304193 0.2284988 0.2265141 0.2273745 0.2314674 0.2366104 0.2405417
 0.2427741 0.2441085 0.245279 0.2463088 0.2464905 0.244916 0.2417544 0.2389929 0.239033 0.2423197
 0.246926 0.2505478 0.2523611 0.2528992 0.2527978 0.252124 0.2507473 0.2489525 0.2474525 0.2468269
 0.2471007 0.2478933 0.2488032 0.2495842 0.2501302 0.2504541 0.2506411 0.2507616 0.2508573 0.2509967
 0.2512472 0.2515807 0.251902 0.2522052 0.2526127 0.2532014 0.2538585 0.2543775 0.2546385 0.2546142
 0.2542549 0.2534961 0.2523808 0.2510546 0.2495995 0.2479818 0.2462679 0.2448539 0.244349 0.2451295
 0.2469962 0.2492945 0.2513622 0.2528628 0.2537838 0.2542599 0.2544504 0.2544999 0.254509 0.2545051
 0.2544617 0.2543558 0.2542027 0.2540331 0.2538618 0.2536951 0.2535582 0.2534866 0.2534829 0.2534971
 0.2534569 0.2533165 0.2530788 0.2527766 0.2524346 0.2520438 0.2515649 0.2509575 0.2502178 0.2493971
 0.248579 0.247826 0.247137 0.2464508 0.2456954 0.2448319 0.2438446 0.242705 0.2413923 0.2399672
 0.2385748 0.2373281 0.2362052 0.2350851 0.2338578 0.2324778 0.2309534 0.2293237 0.2276432 0.2259593
 0.2243018 0.222685 0.2211084 0.2195572 0.2180122 0.2164601 0.2148935 0.2133092 0.2117081 0.2100846
 0.2083985 0.2065558 0.2044267 0.2018876 0.1988469 0.1952496 0.1910955 0.1864737 0.1815606 0.1765647
 0.1716667 0.1670005 0.1626613 0.1587253 0.1552725 0.1523894 0.1501462 0.1485781 0.1476934 0.1474876
 0.1479439 0.1490223 0.1506475 0.1527009 0.1550268 0.1574533 0.1598153 0.1619812 0.1638904 0.1655773
 0.1671401 0.1686597 0.1701425 0.1715474 0.172859 0.1741025 0.1752835 0.176351 0.1772401 0.1779283
 0.1784354 0.1787951 0.179045 0.179224 0.1793628 0.17948 0.1795865 0.1796902 0.1798078 0.1799711
 0.1802105 0.1805312 0.1809213 0.1813782 0.181915 0.1825387 0.1832331 0.1839651 0.1847138 0.1854902
 0.1863181 0.1872018 0.1881349 0.1891335 0.1902369 0.1914775 0.192865 0.194386 0.1960024 0.1976593
 0.1993048 0.2008944 0.2023845 0.2037367 0.2049326 0.2059775 0.2068938 0.2077076 0.2084296 0.2090501
 0.2095567 0.2099412 0.2101881 0.2102782 0.2102136 0.2100275 0.2097662 0.2094654 0.2091358 0.2087645
 0.2083437 0.2078967 0.2074652 0.2070766 0.2067317 0.2064136 0.2060971 0.205761 0.2053961 0.2049959
 0.2045474 0.2040417 0.2034753 0.2028337 0.2020898 0.2012272 0.2002482 0.1991624 0.1979824 0.1967246
 0.1953997 0.1940072 0.1925471 0.1910272 0.1894542 0.1878217 0.1861023 0.1842595 0.1822881 0.180249
 0.1782453 0.1763578 0.1746093 0.1729787 0.1714319 0.1699457 0.1685154 0.1671435 0.165829 0.164574
 0.1633916 0.1622908 0.1612616 0.1602862 0.1593599 0.1584975 0.1577226 0.1570467 0.1564601 0.1559468
 0.1555025 0.1551306 0.1548347 0.1546294 0.1545336 0.1545312 0.154553 0.154523 0.1544153 0.1542563
 0.1540859 0.1539284 0.1537896 0.1536689 0.1535583 0.1534275 0.1532156 0.1528453 0.1522406 0.1513406
 0.1501211 0.1486114 0.1468811 0.1450226 0.1431538 0.1414107 0.1399031 0.1386811 0.1377406 0.1370382
 0.1364996 0.136051 0.1356669 0.1353895 0.1352876 0.1353719 0.1355371 0.1356269 0.1355855 0.1355204
 0.1355986 0.1359074 0.1364169 0.1370235 0.1376131 0.1381175 0.1385199 0.1388126 0.1389818 0.1390358
 0.1390024 0.1388932 0.1387052 0.1384473 0.1381377 0.1377879 0.1374033 0.136976 0.1364826 0.1359089
 0.1352612 0.1345424 0.133747 0.1328694 0.1318766 0.1307221 0.1294613 0.1283189 0.1275724 0.1273809
 0.1277219 0.128429 0.129294 0.130187 0.1310371 0.1316762 0.1318787 0.1317133 0.1317329 0.1325805
 0.1343705 0.1365648 0.1384595 0.1396882 0.1402506 0.1402511 0.1397645 0.1388468 0.1375 0.1356698
 0.1333757 0.1307617 0.1279706 0.1251055 0.1223226 0.1198051 0.1176555 0.1159029 0.1145423 0.1135929
 0.1131587 0.1129007 0.1110996 0.105534 0.09689578 0.09035859 0.09125377 0.09908649 0.1078581 0.1124109
 0.1125492 0.1109756 0.1095857 0.1086884 0.1081894 0.1081982 0.1088236 0.1099495 0.1112273 0.1122729
 0.1129236 0.113224 0.1131506 0.1123859 0.1102616 0.1059788 0.09924662 0.09085858 0.08242133 0.07540447
 0.07048261 0.06755596 0.06605608 0.06527747 0.06474268 0.06442787 0.06463467 0.06563509 0.06743926 0.0698646
 0.07272078 0.07580969 0.07880062 0.08132666 0.08327175 0.08480144 0.08605967 0.08698311 0.08744541 0.08744071
 0.08707964 0.0864976 0.08580089 0.08504172 0.08420014 0.08321019 0.08207275 0.08096801 0.08017117 0.07979684
 0.07970577 0.07970373 0.07971939 0.07975151 0.07977781 0.0797757 0.07975242 0.079746 0.07984367 0.08014046
 0.08061768 0.08111873 0.08148673 0.08169046 0.08180687 0.08188543 0.08181982 0.08143419 0.08077495 0.08016323
 0.07977744 0.07934763 0.07852503 0.07744313 0.07663967 0.07646364 0.07676829 0.07715571 0.07733518 0.0772466
 0.0770293 0.07695988 0.07727475 0.07789356</values></Ydata></ScSm><ScRf><Ydata ylabel="Single channel"><values byteorder="INTEL" format="FLOAT32" numvalues="1820"> 0.0605711 0.06073391 0.06082961 0.06085895 0.0608499 0.06085185 0.06091782 0.06107178 0.06128474 0.06148573
 0.06161211 0.06165583 0.06164913 0.0616122 0.06154934 0.06149741 0.06152865 0.06167765 0.06188755 0.06204723
 0.06208203 0.06202061 0.06197824 0.06204403 0.06216213 0.06214966 0.06186919 0.06138483 0.0609189 0.0606469
 0.06058957 0.06074303 0.06118509 0.06186339 0.06236101 0.06219472 0.06142122 0.06066537 0.06042938 0.06061184
 0.06079463 0.06072467 0.06039666 0.05996367 0.05977765 0.06029095 0.06161371 0.06315123 0.06381727 0.06271816
 0.0597912 0.05600879 0.05301712 0.05225081 0.05392423 0.05674644 0.05889095 0.05945111 0.05887428 0.05804089
 0.05731601 0.05666088 0.05624579 0.05648457 0.05746286 0.05854969 0.05872275 0.05744471 0.05530453 0.05359798
 0.05314487 0.05377641 0.0550303 0.05665309 0.05789948 0.05713196 0.05343193 0.04864115 0.04654343 0.04926981
 0.05502342 0.05983416 0.06108975 0.05900388 0.05546673 0.05247441 0.05137003 0.05248419 0.05508633 0.05799463
 0.06028879 0.06134217 0.06066299 0.05832559 0.05538747 0.0533728 0.0533354 0.05544817 0.05896622 0.06229155
 0.06370073 0.06262015 0.06000628 0.05733284 0.05562001 0.05544217 0.05707626 0.06021488 0.0639462 0.06728144
 0.0695523 0.07047907 0.07024136 0.06936951 0.06833722 0.06746684 0.06720267 0.06784339 0.06881757 0.06889924
 0.06754115 0.06560993 0.06449821 0.06468816 0.06536796 0.06541929 0.06454863 0.06310748 0.06098706 0.05759723
 0.05321708 0.04935829 0.04725912 0.04694096 0.04809884 0.05058359 0.05335381 0.05441579 0.05299979 0.05094977
 0.05089389 0.05344187 0.05686947 0.05922516 0.06013758 0.06068183 0.06199227 0.06410347 0.06580567 0.06555869
 0.06302101 0.05991369 0.05880506 0.06058607 0.06361051 0.06572041 0.06652392 0.06714825 0.06827174 0.06907082
 0.06807899 0.06492882 0.06128107 0.05979401 0.06180597 0.06599452 0.06933637 0.06934173 0.06573036 0.06049659
 0.05635677 0.05486812 0.05601579 0.05925514 0.06411193 0.0696307 0.07412327 0.07611121 0.07539567 0.0729856
 0.06994189 0.06639153 0.06207148 0.05796347 0.05650336 0.05928573 0.06502475 0.07062148 0.07392883 0.07482769
 0.07402234 0.07170875 0.06777491 0.0631023 0.06000122 0.06041451 0.06357522 0.0664364 0.0668629 0.06558261
 0.06462213 0.06477822 0.06531713 0.06553555 0.06577322 0.06684105 0.06886195 0.07097015 0.07214852 0.07214887
 0.0715327 0.07101595 0.07081725 0.07049824 0.06958523 0.06852471 0.06862283 0.07061246 0.07363935 0.07613668
 0.07739463 0.07781796 0.07787363 0.07728009 0.0754156 0.07248138 0.06998542 0.06962267 0.07163055 0.07463484
 0.07707976 0.07835257 0.07863843 0.07834873 0.07783942 0.0773022 0.07683298 0.0766819 0.0771839 0.07828033
 0.07941438 0.08008875 0.0802725 0.08014813 0.07975554 0.07906944 0.07825889 0.07768756 0.07765029 0.07815287
 0.07895957 0.07980366 0.08047986 0.08080265 0.08067104 0.08021611 0.07972869 0.07939592 0.07922792 0.07923418
 0.07949258 0.07999244 0.08054961 0.08095564 0.08114329 0.08116823 0.08109535 0.08095041 0.08075267 0.08056259
 0.08048795 0.08060992 0.08088329 0.08116341 0.08137488 0.0815876 0.08186148 0.0820931 0.08212055 0.08194055
 0.08172461 0.0816332 0.0816859 0.0818035 0.08189908 0.08189504 0.08171336 0.08134332 0.08093522 0.08074509
 0.0809311 0.08143949 0.08209461 0.08272351 0.08318973 0.08342424 0.08347748 0.08346763 0.08344455 0.08335817
 0.0831718 0.08295916 0.08287586 0.08304298 0.0834434 0.0839268 0.08432616 0.08456148 0.08464939 0.08467503
 0.08475554 0.08494652 0.08516118 0.08525268 0.08519523 0.08511929 0.08515023 0.08526583 0.08533879 0.08529355
 0.08519621 0.08518432 0.08532049 0.08553873 0.08573546 0.08588235 0.08603402 0.08623768 0.08644725 0.08654155
 0.08645099 0.08625235 0.08609346 0.08603647 0.08603749 0.08607106 0.08618575 0.08640465 0.08664128 0.08677442
 0.0867839 0.08676548 0.08680782 0.0868867 0.08689989 0.08678812 0.08659722 0.08642907 0.08635803 0.08639187
 0.08648165 0.08655475 0.08655603 0.08647853 0.08635958 0.08624452 0.08615707 0.08611108 0.08614126 0.08629005
 0.08653861 0.08676616 0.08682047 0.08665345 0.08637813 0.08617163 0.08611439 0.08612941 0.08607729 0.08589564
 0.08563724 0.08539309 0.08520876 0.0850742 0.08496358 0.08486885 0.0848116 0.08483476 0.08496098 0.08513556
 0.08523086 0.08514611 0.08490394 0.08462596 0.08442205 0.08432343 0.08429858 0.0842969 0.08429115 0.08430435
 0.08437436 0.08447552 0.08451858 0.08445516 0.08434308 0.08428595 0.0843463 0.08452228 0.08475061 0.0849191
 0.08493929 0.08483668 0.08473086 0.08471209 0.08477135 0.08485392 0.08493409 0.08501752 0.08510724 0.08520062
 0.08531103 0.08546845 0.08569105 0.08595859 0.08621441 0.08640075 0.08650734 0.08659199 0.08674127 0.08699776
 0.08732414 0.08763921 0.08788704 0.08807423 0.088246 0.08843194 0.08862466 0.08881623 0.08903395 0.08931318
 0.08964489 0.08998053 0.09028699 0.09057163 0.09085502 0.09114359 0.09143513 0.09174001 0.09208886 0.09250575
 0.09295914 0.09335428 0.09360665 0.09372717 0.09382102 0.09400514 0.09432636 0.09472862 0.09508286 0.09528607
 0.0953642 0.09545307 0.09565046 0.09591739 0.09616063 0.09637928 0.09667079 0.09709309 0.09757212 0.09796849
 0.09821434 0.09836505 0.09852326 0.09872644 0.09891868 0.09903381 0.09908661 0.09915536 0.0992849 0.09945486
 0.09965476 0.0999317 0.1003205 0.100764 0.1011546 0.1014368 0.1016306 0.101776 0.1018928 0.1019823
 0.1020352 0.1020503 0.1020596 0.1021111 0.1022083 0.1022973 0.1023405 0.1023709 0.1024497 0.1026021
 0.1028205 0.103098 0.1034151 0.1037206 0.1039779 0.1042272 0.1045457 0.1049292 0.1052642 0.1054479
 0.1055003 0.1055165 0.1055482 0.1055892 0.1056557 0.1058061 0.106068 0.1063976 0.1067333 0.107057
 0.1073863 0.1077278 0.1080508 0.1082971 0.1084181 0.1084165 0.1083604 0.1083496 0.1084593 0.1087007
 0.1090227 0.1093516 0.1096343 0.109845 0.1099611 0.1099677 0.1099059 0.1098829 0.1099867 0.1101869
 0.110349 0.1103474 0.1101438 0.1097642 0.1092431 0.1086121 0.1079237 0.1072566 0.1066907 0.1062779
 0.1060431 0.1060118 0.1062207 0.1066774 0.1073131 0.1080025 0.1086365 0.1091473 0.1094627 0.1094889
 0.1091799 0.1085995 0.1078829 0.1071504 0.1064694 0.1058585 0.1052927 0.1047354 0.1042172 0.1038807
 0.103919 0.10446 0.1054984 0.1069013 0.1084516 0.1099198 0.1111532 0.1121298 0.112929 0.1136425
 0.1143184 0.114976 0.1156374 0.1163081 0.1169466 0.1174971 0.1179556 0.1183716 0.118785 0.1191872
 0.1195433 0.1198273 0.1200434 0.1202304 0.1204266 0.120614 0.1207216 0.1207062 0.1206055 0.1204876
 0.1203719 0.1202174 0.1199691 0.1196031 0.119157 0.1187484 0.1185598 0.1187656 0.1194323 0.1204763
 0.1217278 0.1230409 0.124329 0.1255101 0.1264771 0.1271588 0.1275882 0.1278773 0.1281322 0.1284044
 0.1286998 0.1290049 0.1293054 0.1295941 0.1298722 0.1301505 0.1304514 0.1307923 0.1311542 0.1314823
 0.1317396 0.1319567 0.1322116 0.1325513 0.1329447 0.1333199 0.1336443 0.1339514 0.1342776 0.1345981
 0.1348547 0.1350355 0.1351937 0.1353939 0.1356671 0.1360102 0.1363866 0.136729 0.136982 0.137155
 0.1373111 0.1375008 0.1377256 0.1379652 0.13821 0.1384614 0.1387199 0.1389913 0.1392892 0.1396144
 0.1399308 0.1401814 0.1403424 0.1404541 0.1405857 0.1407705 0.1409843 0.1411863 0.1413729 0.1415841
 0.1418593 0.1421875 0.1425082 0.1427606 0.1429305 0.1430512 0.1431707 0.1433218 0.1435133 0.1437336
 0.1439599 0.144172 0.1443664 0.1445591 0.1447702 0.145001 0.1452303 0.1454391 0.1456319 0.145829
 0.1460404 0.1462591 0.1464787 0.1467109 0.1469736 0.1472632 0.147546 0.1477847 0.1479694 0.1481176
 0.1482525 0.1483905 0.1485431 0.1487169 0.1489079 0.1491056 0.1493032 0.1495004 0.1496985 0.1498985
 0.1501035 0.1503158 0.1505328 0.1507485 0.1509632 0.1511858 0.1514222 0.1516625 0.1518866 0.1520829
 0.1522592 0.1524349 0.152624 0.1528257 0.1530271 0.1532169 0.1533956 0.1535745 0.1537622 0.1539584
 0.1541569 0.154353 0.1545462 0.1547388 0.1549329 0.1551289 0.155326 0.1555249 0.1557285 0.1559385
 0.1561494 0.1563496 0.1565322 0.1567057 0.1568879 0.1570879 0.1573003 0.1575147 0.1577252 0.1579304
 0.158129 0.1583216 0.1585123 0.1587071 0.1589066 0.1591045 0.1592944 0.1594776 0.1596616 0.1598522
 0.1600533 0.1602665 0.1604869 0.1607024 0.1609053 0.1611006 0.1612992 0.1615067 0.1617215 0.1619394
 0.162157 0.1623756 0.1625984 0.1628262 0.163057 0.1632885 0.1635166 0.1637358 0.1639424 0.1641333
 0.1643048 0.1644603 0.1646142 0.1647786 0.1649529 0.165131 0.1653111 0.1654922 0.1656736 0.1658607
 0.1660596 0.1662664 0.1664701 0.1666659 0.16686 0.1670634 0.1672792 0.1674967 0.1677021 0.1678969
 0.1680967 0.1683127 0.168541 0.1687682 0.1689801 0.1691709 0.1693513 0.1695391 0.1697409 0.1699528
 0.1701716 0.1703936 0.1706108 0.1708179 0.1710168 0.1712117 0.1714092 0.171619 0.1718423 0.1720672
 0.1722837 0.1724934 0.1727003 0.1729065 0.1731155 0.1733294 0.1735458 0.1737627 0.1739766 0.1741802
 0.1743746 0.1745749 0.1747906 0.1750137 0.1752352 0.1754538 0.175668 0.175877 0.1760858 0.176295
 0.1765003 0.1767051 0.1769151 0.1771159 0.1772589 0.1772264 0.1767386 0.1752547 0.1719598 0.1659184
 0.1564391 0.1435081 0.127953 0.1111559 0.09454229 0.07920036 0.06576878 0.0545252 0.04553491 0.03874185
 0.03401716 0.03124513 0.03042263 0.03176682 0.0358276 0.0431558 0.05307475 0.06260513 0.06763078 0.06614551
 0.06016815 0.05390254 0.05025068 0.0494204 0.05017979 0.05147357 0.05295794 0.05481295 0.05736345 0.06070311
 0.06467298 0.06926772 0.07483502 0.08163463 0.08931047 0.09704077 0.1042457 0.1110382 0.1179474 0.1252761
 0.1327833 0.139925 0.1462883 0.1517931 0.1566052 0.1609532 0.1650036 0.16884 0.1725009 0.1759782
 0.1791488 0.1817476 0.1834881 0.1842737 0.1843112 0.184005 0.1837195 0.1836256 0.183734 0.1840094
 0.1844263 0.1849655 0.1856097 0.1863412 0.1871336 0.1879534 0.1887725 0.1895705 0.1903315 0.1910461
 0.1917071 0.1923047 0.192838 0.1933251 0.1937871 0.1942264 0.1946339 0.1950074 0.1953569 0.1956974
 0.1960375 0.1963698 0.1966753 0.1969441 0.197186 0.1974167 0.1976442 0.1978681 0.198085 0.198292
 0.1984918 0.1986922 0.1988981 0.1991079 0.1993175 0.1995247 0.1997292 0.1999328 0.2001353 0.2003314
 0.200517 0.200698 0.2008856 0.2010822 0.2012803 0.2014725 0.2016576 0.2018374 0.2020154 0.2021971
 0.2023887 0.2025934 0.2028077 0.2030237 0.2032387 0.2034574 0.2036791 0.2038906 0.2040833 0.2042681
 0.2044624 0.2046707 0.2048886 0.2051121 0.2053312 0.2055258 0.2056841 0.2058241 0.2059859 0.2061979
 0.2064472 0.2066881 0.2068874 0.207055 0.2072238 0.2074118 0.2076128 0.2078115 0.2080027 0.2081994
 0.2084209 0.2086661 0.2089132 0.2091509 0.2093884 0.2096301 0.2098697 0.2101091 0.2103486 0.2105615
 0.2107157 0.2108281 0.2109732 0.2112232 0.2115809 0.2119719 0.2123108 0.2125722 0.2127906 0.213012
 0.2132645 0.2135326 0.2137292 0.2137566 0.2136591 0.2136508 0.2139173 0.214429 0.2150011 0.2154854
 0.2158557 0.2161566 0.2164275 0.2166632 0.216816 0.2168471 0.2168045 0.2168425 0.2171138 0.2176128
 0.2181666 0.2186085 0.2189098 0.2191271 0.2193086 0.2194786 0.2195984 0.2195194 0.2191376 0.2186613
 0.218556 0.2190944 0.2200492 0.2209369 0.2214963 0.2218212 0.2220913 0.2223501 0.2225572 0.2226304
 0.2223376 0.2214259 0.2201096 0.2192164 0.2195068 0.2209069 0.2226351 0.2239844 0.2247738 0.2251815
 0.2254358 0.2256571 0.2257663 0.2255009 0.2247088 0.2237264 0.2232894 0.2238577 0.2251022 0.2262582
 0.226903 0.2271773 0.2273811 0.2276386 0.2278184 0.2274761 0.2260988 0.2238615 0.2220214 0.2220298
 0.2241047 0.2269698 0.2291263 0.230143 0.2305295 0.2306278 0.2301071 0.2285564 0.2261054 0.2233633
 0.2212188 0.2207157 0.222366 0.2252882 0.227707 0.2287048 0.2289982 0.2297605 0.2312227 0.2326825
 0.2334122 0.2332212 0.2323331 0.2309841 0.2293081 0.2277112 0.227097 0.2282247 0.2307851 0.2335117
 0.2353515 0.2362636 0.2366707 0.2362248 0.2335568 0.2279258 0.2212835 0.2177343 0.2199106 0.2262191
 0.2325522 0.236327 0.2379036 0.2386554 0.2391265 0.23888 0.2367548 0.2315005 0.2237421 0.2172179
 0.2162552 0.2214929 0.229162 0.2346048 0.2354467 0.2318558 0.225716 0.2200628 0.217834 0.2200907
 0.2255639 0.2319117 0.23712 0.2400479 0.2404183 0.2387204 0.2361856 0.234488 0.234527 0.2351047
 0.233842 0.2301857 0.2263241 0.2239685 0.2216996 0.2175897 0.2134422 0.2136017 0.2193112 0.2266318
 0.2308685 0.2313282 0.2304691 0.2294242 0.2260626 0.2180553 0.2072831 0.1999294 0.2010743 0.2094156
 0.2184302 0.2227679 0.222505 0.2212188 0.2212183 0.2211958 0.2180707 0.2110104 0.2034789 0.200333
 0.2026549 0.2067815 0.2086358 0.2069741 0.2019661 0.1939019 0.1855334 0.1829055 0.1902596 0.2048465
 0.2190799 0.2267766 0.2254089 0.2147503 0.197778 0.1825104 0.1780996 0.186625 0.2005634 0.2097142
 0.2092905 0.2007564 0.1874727 0.172417 0.1595878 0.1544169 0.1605156 0.1760214 0.1936146 0.2041283
 0.2016079 0.1879757 0.1735046 0.1694223 0.1776496 0.1894438 0.195186 0.1931149 0.1879451 0.1848233
 0.1863729 0.1922133 0.1993537 0.2050076 0.2088161 0.2096705 0.2027056 0.1851417 0.1640175 0.1515526
 0.1524579 0.16152 0.1733729 0.1873204 0.200973 0.2069332 0.201137 0.1905493 0.187235 0.1955502
 0.2084159 0.2159812 0.2153722 0.2112237 0.2085242 0.2073064 0.2051147 0.2027433 0.2044491 0.2120759
 0.2218318 0.2285234 0.2309613 0.2314903 0.2320146 0.2325464 0.2325526 0.2318354 0.2304637 0.2289007
 0.2278609 0.2275151 0.2273299 0.2268696 0.2257912 0.2226433 0.2151712 0.2034855 0.1920878 0.1863148
 0.1866836 0.189248 0.1914668 0.1936874 0.1936702 0.1850481 0.16573 0.1448035 0.1359295 0.1441469
 0.1621157 0.1784827 0.1865817 0.1850192 0.1742883 0.1569605 0.1403808 0.1343661 0.1432006 0.1615234
 0.1800537 0.1935847 0.2015691 0.2036829 0.1988439 0.1883661 0.1772235 0.1712062 0.1733997 0.1828302
 0.1947821 0.2020073 0.1982762 0.1845697 0.1718048 0.1727774 0.1887421 0.2073289 0.2164508 0.2165463
 0.2156727 0.2169786 0.2171412 0.2151684 0.2159311 0.2234821 0.2351007 0.2439834 0.2452228 0.2377417
 0.2236618 0.2088034 0.2011709 0.2044959 0.2139296 0.2212658 0.2228552 0.2191157 0.2096971 0.195525
 0.1839361 0.1842623 0.1970222 0.2127033 0.2225693 0.2266176 0.229616 0.2328991 0.2327584 0.2260755
 0.2155418 0.2079972 0.2076633 0.2124549 0.2175137 0.2203336 0.220769 0.2181189 0.2115745 0.2035428
 0.1996705 0.2039257 0.2144632 0.2253224 0.2317374 0.2331115 0.2316164 0.2293763 0.2270419 0.2239686
 0.2196355 0.215481 0.2146245 0.2185432 0.2247371 0.2293059 0.231419 0.2335938 0.2377327 0.242498
 0.2449364 0.2436986 0.2403199 0.2378778 0.2385183 0.2417535 0.2448296 0.245079 0.2424585 0.2398307
 0.2403332 0.244388 0.24964 0.253631 0.2558032 0.2569993 0.2580202 0.2589211 0.2589672 0.257194
 0.2537698 0.2507806 0.2507444 0.2541155 0.2588608 0.2625685 0.2643957 0.2649219 0.2648171 0.2641405
 0.26274 0.2609009 0.2593601 0.2587189 0.2590023 0.2598187 0.2607716 0.2616332 0.2622996 0.2627558
 0.2630529 0.2632423 0.2633523 0.2634253 0.2634962 0.2635239 0.263439 0.2632942 0.263273 0.2634893
 0.2638387 0.2641079 0.2641646 0.2639635 0.2634316 0.2624891 0.2611907 0.2597176 0.2581799 0.256535
 0.2548189 0.2534178 0.2529607 0.2538415 0.2558511 0.2583043 0.2605092 0.2621146 0.2631088 0.2636356
 0.2638594 0.2639174 0.2638968 0.2638238 0.2636878 0.2634784 0.263198 0.2628545 0.2624613 0.2620504
 0.261669 0.26135 0.261083 0.2608204 0.2605093 0.2601166 0.2596412 0.259113 0.2585693 0.2580109
 0.257387 0.2566374 0.2557499 0.2547765 0.2538049 0.2529094 0.2521069 0.2513494 0.2505737 0.2497503
 0.2488652 0.247879 0.2467638 0.2455892 0.2445126 0.2436475 0.2429665 0.2423498 0.2416919 0.2409382
 0.240068 0.239093 0.2380571 0.2369969 0.2359097 0.2347735 0.2335769 0.2323129 0.2309666 0.2295311
 0.2280192 0.2264497 0.2248391 0.223206 0.2215503 0.219813 0.2178674 0.2155576 0.2127509 0.2093722
 0.2054208 0.2009729 0.1961704 0.1912014 0.1862706 0.1815638 0.1772243 0.1733541 0.1700296 0.1673123
 0.1652465 0.1638576 0.1631593 0.1631612 0.163862 0.1652307 0.1671949 0.1696433 0.1724326 0.1754007
 0.1783833 0.1812312 0.1838434 0.1862108 0.1884113 0.1905222 0.1925385 0.194395 0.196047 0.1974933
 0.1987355 0.1997653 0.200593 0.2012619 0.2018231 0.2023067 0.2027194 0.2030632 0.2033513 0.2036043
 0.2038348 0.2040469 0.2042464 0.2044438 0.2046493 0.2048709 0.2051199 0.2054152 0.2057783 0.206218
 0.2067161 0.2072416 0.2077817 0.2083521 0.2089746 0.2096577 0.2104045 0.2112326 0.2121791 0.2132798
 0.2145361 0.2158998 0.2172901 0.2186203 0.2198118 0.2208014 0.2215517 0.2220555 0.2223325 0.2224199
 0.2223578 0.2221733 0.2218782 0.2214863 0.2210224 0.2205117 0.219964 0.2193751 0.2187397 0.2180591
 0.2173406 0.2165985 0.2158563 0.2151379 0.2144509 0.2137881 0.2131484 0.2125416 0.211967 0.2114037
 0.2108308 0.2102458 0.2096578 0.2090749 0.2084997 0.2079214 0.2073069 0.2066074 0.205785 0.2048337
 0.2037745 0.2026348 0.2014309 0.2001642 0.1988265 0.1974069 0.1959 0.194311 0.1926544 0.1909412
 0.1891591 0.1872741 0.1852713 0.1832035 0.1811826 0.1793107 0.1776193 0.1760728 0.1746163 0.1732177
 0.1718731 0.1705858 0.1693491 0.1681566 0.1670184 0.1659506 0.1649522 0.1640097 0.1631214 0.1623066
 0.1615848 0.1609553 0.160402 0.1599189 0.1595168 0.1592008 0.1589617 0.1587999 0.1587345 0.1587625
 0.1588295 0.1588608 0.158814 0.1586977 0.158556 0.1584341 0.1583485 0.1582877 0.1582333 0.1581566
 0.1579974 0.1576704 0.1570961 0.1562229 0.1550378 0.1535672 0.151866 0.1500199 0.1481595 0.1464376
 0.1449656 0.1437865 0.142896 0.14225 0.1417647 0.1413625 0.14103 0.1408202 0.1408042 0.1409951
 0.1412883 0.1415103 0.1415791 0.1415925 0.1417338 0.142123 0.1427576 0.1435326 0.1443027 0.1449662
 0.1454939 0.1458812 0.1461225 0.1462354 0.1462536 0.1461918 0.1460548 0.1458579 0.1456099 0.1453077
 0.1449554 0.1445537 0.1440825 0.1435294 0.1429011 0.1421928 0.1413907 0.1404934 0.1394784 0.138306
 0.1370391 0.1359115 0.1352073 0.1350912 0.1355407 0.1363706 0.1373524 0.1383638 0.139354 0.1401532
 0.14052 0.140521 0.1407198 0.1417713 0.1438007 0.1462611 0.148413 0.1498575 0.1505865 0.150699
 0.1502631 0.1493525 0.1479957 0.1461284 0.1437327 0.1409336 0.1378949 0.1347707 0.1317762 0.1291209
 0.1268827 0.1250552 0.1236241 0.1226276 0.1222077 0.1220149 0.1201657 0.1142162 0.1049265 0.09795418
 0.0990834 0.1077177 0.1173081 0.1222833 0.1224777 0.120837 0.1193918 0.1184473 0.1179032 0.1179026
 0.1185647 0.1197451 0.1210762 0.1221814 0.1229013 0.1232665 0.1232216 0.1223836 0.1199923 0.1151951
 0.1077409 0.09854503 0.08936059 0.08176363 0.0764541 0.0732957 0.07167645 0.07085727 0.07032622 0.07004173
 0.07031886 0.0714421 0.07341546 0.07606097 0.079201 0.08261009 0.08589457 0.08865434 0.0907938 0.09251125
 0.0939574 0.09504569 0.09561825 0.09566204 0.09531258 0.0947323 0.09403461 0.09326589 0.09239098 0.09132489
 0.09007525 0.08886145 0.0879887 0.08756873 0.08744906 0.08742341 0.08740364 0.08738578 0.08736931 0.08734129
 0.0872879 0.08723512 0.08729053 0.08756915 0.0880464 0.08854637 0.08889496 0.08905274 0.08910054 0.08908957
 0.08890001 0.08834954 0.08751165 0.08674774 0.08624405 0.08569418 0.08470438 0.08340621 0.08239175 0.08206903
 0.08229595 0.08263692 0.08277602 0.08265572 0.08242226 0.08235326 0.08268077 0.08330996 0.08379797 0.08377164
</values></Ydata></ScRf><Data_Parameters_AB><parameter name="DPF">1</parameter><parameter name="NPT">3497</parameter><parameter name="FXV">3996</parameter><parameter name="LXV">500</parameter><parameter name="CSF">1</parameter><parameter name="MXY">0.0958610996603966</parameter><parameter name="MNY">-0.037028718739748</parameter><parameter name="DAT">02/06/2022</parameter><parameter name="TIM">11:43:37.630 (GMT+2)</parameter><parameter name="DXU">WN</parameter></Data_Parameters_AB><AB__Qtest><MainReport name="Quality Test Report"><Header><Line><Legend>Test result ok/not ok [1/0]: </Legend><Value>0</Value></Line><Line><Legend>Method file: </Legend><Value>C:\Users\Public\Documents\Bruker\OPUS_8.2.28\QT\IRBT_v3_default.QT</Value></Line></Header><Matrix><Line><Legend></Legend><Legend>min</Legend><Legend>max</Legend><Legend>measured</Legend></Line><Line><Value>Absorption (X-Range 1):</Value><Value>0.400000</Value><Value>2.000000</Value><Value>0.097997</Value></Line><Line><Value>Noise (X-Range 4):</Value><Value></Value><Value>0.000300</Value><Value>0.000038</Value></Line><Line><Value>Signal/Noise (X-Range 2):</Value><Value>200.000000</Value><Value></Value><Value>49.970608</Value></Line><Line><Value>Signal/Noise (X-Range 3):</Value><Value>40.000000</Value><Value></Value><Value>45.710980</Value></Line><Line><Value>Water vapour (X-Range 5):</Value><Value></Value><Value>0.000300</Value><Value>0.000060</Value></Line><Line><Value>Signal/Water (X-Range 2):</Value><Value>100.000000</Value><Value></Value><Value>31.572766</Value></Line><Line><Value>Signal/Water (X-Range 3):</Value><Value>20.000000</Value><Value></Value><Value>28.881420</Value></Line><Line><Value>Fringes (X-Range 6):</Value><Value></Value><Value>0.000100</Value><Value>0.000064</Value></Line></Matrix></MainReport></AB__Qtest><Data_Parameters_ScSm><parameter name="DPF">1</parameter><parameter name="NPT">1814</parameter><parameter name="FXV">3996.33169228125</parameter><parameter name="LXV">499.541461535156</parameter><parameter name="CSF">1</parameter><parameter name="MXY">0.254638493061066</parameter><parameter name="MNY">0.0325325317680836</parameter><parameter name="DAT">02/06/2022</parameter><parameter name="TIM">11:43:37.630 (GMT+2)</parameter><parameter name="DXU">WN</parameter></Data_Parameters_ScSm><Data_Parameters_ScRf><parameter name="DPF">1</parameter><parameter name="NPT">1820</parameter><parameter name="FXV">4004.04661832813</parameter><parameter name="LXV">495.683998511719</parameter><parameter name="CSF">1</parameter><parameter name="MXY">0.264921903610229</parameter><parameter name="MNY">0.0304226279258728</parameter><parameter name="DAT">02/06/2022</parameter><parameter name="TIM">11:43:11.778 (GMT+2)</parameter><parameter name="DXU">WN</parameter></Data_Parameters_ScRf><Optic_Parameters_Rf><parameter name="APR">0</parameter><parameter name="APT">Open</parameter><parameter name="BMS">KBr</parameter><parameter name="DTC">RT-DLaTGS_IR-Biotyper [Microplate reader]</parameter><parameter name="HPF">0</parameter><parameter name="LPF">10.0</parameter><parameter name="LPV">4000</parameter><parameter name="PGR">0</parameter><parameter name="RCH">Module port</parameter><parameter name="RDX">0</parameter><parameter name="SRC">MIR</parameter><parameter name="VEL">10.0</parameter><parameter name="SON">Off</parameter></Optic_Parameters_Rf><Acquisition_Parameters_Rf><parameter name="ADT">1</parameter><parameter name="AQM">DD</parameter><parameter name="CFE">0</parameter><parameter name="COR">0</parameter><parameter name="DEL">0</parameter><parameter name="DLY">0</parameter><parameter name="HFW">8000</parameter><parameter name="LFW">0</parameter><parameter name="NSR">32</parameter><parameter name="PLF">AB</parameter><parameter name="RES">6</parameter><parameter name="RGN">-1</parameter><parameter name="STR">0</parameter><parameter name="TCL">MakeCompatibleScalar (0, {WSV=1.000000, ARV=0});</parameter><parameter name="TDL">37</parameter><parameter name="RPO">0</parameter></Acquisition_Parameters_Rf><FT_-_Parameters_Rf><parameter name="APF">B3</parameter><parameter name="HFQ">500</parameter><parameter name="LFQ">4000</parameter><parameter name="NLI">0</parameter><parameter name="PHR">24</parameter><parameter name="PHZ">ML</parameter><parameter name="SPZ">NO</parameter><parameter name="ZFF">1</parameter></FT_-_Parameters_Rf><Optic_Parameters_><parameter name="APR">0</parameter><parameter name="APT">Open</parameter><parameter name="BMS">KBr</parameter><parameter name="CHN">Module port</parameter><parameter name="DTC">RT-DLaTGS_IR-Biotyper [Microplate reader]</parameter><parameter name="HPF">0</parameter><parameter name="LPF">10.0</parameter><parameter name="LPV">4000</parameter><parameter name="PGN">0</parameter><parameter name="RDX">0</parameter><parameter name="SRC">MIR</parameter><parameter name="VEL">10.0</parameter><parameter name="SON">Off</parameter></Optic_Parameters_><FT_-_Parameters_><parameter name="APF">B3</parameter><parameter name="HFQ">500</parameter><parameter name="LFQ">4000</parameter><parameter name="NLI">0</parameter><parameter name="PHR">24</parameter><parameter name="PHZ">ML</parameter><parameter name="SPZ">NO</parameter><parameter name="ZFF">1</parameter></FT_-_Parameters_><Acquisition_Parameters_><parameter name="ADT">1</parameter><parameter name="AQM">DD</parameter><parameter name="CFE">0</parameter><parameter name="COR">0</parameter><parameter name="DEL">0</parameter><parameter name="DLY">0</parameter><parameter name="HFW">8000</parameter><parameter name="LFW">0</parameter><parameter name="NSS">32</parameter><parameter name="PLF">AB</parameter><parameter name="RES">6</parameter><parameter name="SOT">0</parameter><parameter name="TCL">MakeCompatibleScalar (0, {WSV=1.000000, ARV=0});</parameter><parameter name="TDL">37</parameter><parameter name="SPO">0</parameter><parameter name="SGN">-1</parameter></Acquisition_Parameters_><Instrument_Parameters_Rf><parameter name="HFL">15800.168544</parameter><parameter name="LFL">0</parameter><parameter name="LWN">15800.168544</parameter><parameter name="ABP">32197</parameter><parameter name="SSP">1</parameter><parameter name="ARG">2</parameter><parameter name="ASG">2</parameter><parameter name="ASS">32</parameter><parameter name="GFW">16</parameter><parameter name="GBW">16</parameter><parameter name="BFW">0</parameter><parameter name="BBW">0</parameter><parameter name="PKA">7265</parameter><parameter name="PKL">4996</parameter><parameter name="PRA">7449</parameter><parameter name="PRL">5001</parameter><parameter name="P2A">1</parameter><parameter name="P2L">1</parameter><parameter name="P2R">1</parameter><parameter name="P2K">1</parameter><parameter name="DAQ">0</parameter><parameter name="AG2">1</parameter><parameter name="SSM">1</parameter><parameter name="RSN">26085</parameter><parameter name="CRR">0</parameter><parameter name="SRT">1654170191.778</parameter><parameter name="DUR">19.6379852294922</parameter><parameter name="TSC">28.8</parameter><parameter name="MVD">0.284477174282074</parameter><parameter name="AN1">0.225776749084845</parameter><parameter name="AN2">0</parameter><parameter name="VSN">2.485 Apr  4 2017</parameter><parameter name="SRN">0085</parameter><parameter name="CAM">0</parameter><parameter name="INS">IR-Biotyper</parameter><parameter name="FOC">69</parameter><parameter name="RDY">1</parameter><parameter name="ARS">32</parameter></Instrument_Parameters_Rf><Sample_Parameters_><parameter name="BLD"></parameter><parameter name="CNM">Admin</parameter><parameter name="CPY"></parameter><parameter name="DPM"></parameter><parameter name="EXP">IRBT_v3_32Scans.XPM</parameter><parameter name="LCT"></parameter><parameter name="SFM">Microplate, HTS-XT</parameter><parameter name="SNM">220602-1054_RTF49M (D_19)_D5_e3765d9d-ae5f-405a-8370-024c87292f43.0</parameter><parameter name="XPP">C:\Users\Public\Documents\Bruker\OPUS_8.2.28\XPM</parameter><parameter name="IST">OK</parameter><parameter name="CPG">1252</parameter><parameter name="UID">20a88a88-6413-4fc6-aa04-5599e3a3bc5a</parameter></Sample_Parameters_><Instrument_Parameters_><parameter name="HFL">15800.168544</parameter><parameter name="LFL">0</parameter><parameter name="LWN">15800.168544</parameter><parameter name="ABP">32197</parameter><parameter name="SSP">1</parameter><parameter name="ASG">2</parameter><parameter name="ARG">2</parameter><parameter name="ASS">32</parameter><parameter name="GFW">16</parameter><parameter name="GBW">16</parameter><parameter name="BFW">0</parameter><parameter name="BBW">0</parameter><parameter name="PKA">7124</parameter><parameter name="PKL">4988</parameter><parameter name="PRA">7389</parameter><parameter name="PRL">4993</parameter><parameter name="P2A">1</parameter><parameter name="P2L">1</parameter><parameter name="P2R">1</parameter><parameter name="P2K">1</parameter><parameter name="DAQ">0</parameter><parameter name="AG2">1</parameter><parameter name="SSM">1</parameter><parameter name="RSN">13668</parameter><parameter name="CRR">0</parameter><parameter name="SRT">1654170217.63</parameter><parameter name="DUR">19.6379852294922</parameter><parameter name="TSC">28.8</parameter><parameter name="MVD">0.280547589063644</parameter><parameter name="AN1">0.225826516248444</parameter><parameter name="AN2">0</parameter><parameter name="VSN">2.485 Apr  4 2017</parameter><parameter name="SRN">0085</parameter><parameter name="CAM">0</parameter><parameter name="INS">IR-Biotyper</parameter><parameter name="FOC">69</parameter><parameter name="RDY">1</parameter></Instrument_Parameters_><History/></OPUSDataFile>
