<?xml version="1.0" encoding="UTF-8" ?>
<OPUSDataFile><AB><Ydata ylabel="Absorbance Units"><values byteorder="INTEL" format="FLOAT32" numvalues="3497"> -0.10933 -0.1093621 -0.1093711 -0.1093571 -0.1093185 -0.1092554 -0.1091797 -0.1090925 -0.1090068 -0.1089237
 -0.108855 -0.1088014 -0.1087723 -0.1087664 -0.1087859 -0.1088275 -0.108887 -0.1089617 -0.1090478 -0.109142
 -0.1092426 -0.1093404 -0.1094315 -0.1095051 -0.1095546 -0.109582 -0.1095844 -0.1095783 -0.1095656 -0.1095588
 -0.1095601 -0.1095646 -0.1095723 -0.1095719 -0.1095639 -0.1095503 -0.1095335 -0.1095292 -0.109538 -0.1095724
 -0.1096281 -0.1097025 -0.1097891 -0.1098755 -0.109958 -0.1100263 -0.1100826 -0.1101249 -0.1101572 -0.1101823
 -0.1101991 -0.1102089 -0.1102047 -0.1101844 -0.1101448 -0.1100837 -0.1100121 -0.1099301 -0.1098586 -0.1097986
 -0.109765 -0.1097573 -0.109774 -0.1098132 -0.1098619 -0.1099191 -0.1099744 -0.1100285 -0.1100782 -0.1101234
 -0.1101626 -0.1101954 -0.1102201 -0.110238 -0.1102495 -0.1102549 -0.1102553 -0.110248 -0.1102319 -0.1102064
 -0.1101701 -0.1101302 -0.1100864 -0.1100531 -0.1100308 -0.1100382 -0.1100763 -0.1101619 -0.1102946 -0.1104725
 -0.1106886 -0.1109022 -0.1111025 -0.1112239 -0.1112726 -0.1112233 -0.1111049 -0.1109538 -0.1107931 -0.1106666
 -0.1105771 -0.1105446 -0.1105525 -0.1106013 -0.1106615 -0.1107218 -0.1107633 -0.1107753 -0.1107698 -0.1107452
 -0.1107289 -0.1107242 -0.1107384 -0.1107723 -0.1108066 -0.1108407 -0.1108614 -0.110872 -0.1108859 -0.1109063
 -0.1109547 -0.1110264 -0.1111244 -0.1112352 -0.1113371 -0.1114207 -0.1114625 -0.111471 -0.1114436 -0.111395
 -0.1113333 -0.1112658 -0.1111958 -0.111133 -0.1110778 -0.1110521 -0.1110588 -0.1111203 -0.1112412 -0.1114115
 -0.1116315 -0.1118071 -0.1119332 -0.1119041 -0.1117367 -0.1114862 -0.1111744 -0.1109163 -0.1107104 -0.1106119
 -0.1106062 -0.1106999 -0.1108613 -0.1110624 -0.1112603 -0.1114083 -0.1114905 -0.1114744 -0.1114006 -0.1112726
 -0.1111454 -0.1110377 -0.1109629 -0.1109287 -0.1109172 -0.1109271 -0.1109454 -0.1109713 -0.1110075 -0.1110539
 -0.1111128 -0.1111825 -0.1112519 -0.1113186 -0.1113662 -0.1113956 -0.1114011 -0.1113848 -0.1113482 -0.1112916
 -0.1112138 -0.1111227 -0.1110206 -0.1109261 -0.1108492 -0.110806 -0.1108076 -0.1108512 -0.110942 -0.1110537
 -0.1111842 -0.1113018 -0.1114027 -0.1114711 -0.1115058 -0.1115017 -0.1114586 -0.1113743 -0.1112505 -0.111096
 -0.110916 -0.1107352 -0.11056 -0.1104201 -0.1103159 -0.1102646 -0.1102542 -0.1102803 -0.1103227 -0.1103629
 -0.1103873 -0.1103797 -0.1103467 -0.1102841 -0.1102136 -0.1101395 -0.1100816 -0.1100448 -0.1100345 -0.1100525
 -0.1100911 -0.1101502 -0.1102185 -0.1102954 -0.1103706 -0.1104438 -0.1105063 -0.1105586 -0.1105969 -0.110624
 -0.1106447 -0.1106631 -0.1106893 -0.1107234 -0.1107711 -0.1108262 -0.1108847 -0.1109442 -0.1109988 -0.1110601
 -0.1111303 -0.1112217 -0.1113415 -0.1114775 -0.1116315 -0.1117722 -0.1118965 -0.111983 -0.1120303 -0.1120178
 -0.1119446 -0.1117902 -0.1115608 -0.1112864 -0.1109803 -0.1107135 -0.1104909 -0.1103661 -0.1103269 -0.110385
 -0.1105039 -0.1106448 -0.1107752 -0.1108449 -0.1108676 -0.1108336 -0.1107749 -0.1107042 -0.1106348 -0.1105751
 -0.1105176 -0.1104633 -0.1103982 -0.1103199 -0.1102287 -0.1101238 -0.1100258 -0.1099361 -0.1098828 -0.109866
 -0.1099034 -0.1099879 -0.1101055 -0.1102388 -0.1103318 -0.1103801 -0.1103404 -0.1102414 -0.1101022 -0.1099457
 -0.1098045 -0.1096689 -0.1095444 -0.1094112 -0.1092579 -0.1090902 -0.1089028 -0.1087283 -0.1085722 -0.1084546
 -0.1083806 -0.1083356 -0.1083194 -0.108292 -0.1082518 -0.1081661 -0.1080392 -0.1078852 -0.1077109 -0.1075545
 -0.1074143 -0.1073045 -0.1072205 -0.1071594 -0.1071201 -0.1071015 -0.1071001 -0.1071157 -0.1071352 -0.107153
 -0.107152 -0.107124 -0.1070574 -0.1069481 -0.1067871 -0.1065714 -0.1063012 -0.1059748 -0.1056118 -0.1052131
 -0.1048063 -0.104393 -0.1039999 -0.1036289 -0.1033077 -0.1030362 -0.1028316 -0.1026857 -0.1025871 -0.1025252
 -0.1024727 -0.1024291 -0.102384 -0.102335 -0.1022851 -0.1022044 -0.1020771 -0.1018761 -0.1015745 -0.1012101
 -0.1007833 -0.1003534 -0.09993317 -0.09954907 -0.09920681 -0.0989067 -0.09864944 -0.09842173 -0.09822289 -0.09804024
 -0.09787413 -0.09772339 -0.09758547 -0.09745385 -0.09731536 -0.0971299 -0.09688971 -0.09654927 -0.09614114 -0.09568474
 -0.09522117 -0.09480045 -0.09442616 -0.09412017 -0.09385697 -0.09363389 -0.09341738 -0.09319581 -0.09295569 -0.09269008
 -0.09241235 -0.09212361 -0.09183177 -0.09153803 -0.09122495 -0.0908915 -0.0905154 -0.09009908 -0.08964933 -0.08917292
 -0.0887023 -0.08824182 -0.08782101 -0.0874382 -0.08710687 -0.08681588 -0.08655974 -0.08631847 -0.08607134 -0.08580787
 -0.08551115 -0.08519419 -0.08485857 -0.0845162 -0.08417541 -0.08381927 -0.08344688 -0.08303608 -0.08258069 -0.08210383
 -0.08160572 -0.08114055 -0.08070995 -0.08033893 -0.08002393 -0.0797492 -0.07950927 -0.07927207 -0.07903542 -0.07877494
 -0.07849583 -0.07819507 -0.07788242 -0.07757088 -0.0772633 -0.07697104 -0.07668044 -0.07638935 -0.07607514 -0.07572433
 -0.07533599 -0.07490209 -0.07445204 -0.0739893 -0.07354236 -0.07311631 -0.07271589 -0.07234231 -0.07198078 -0.0716305
 -0.07127575 -0.07091674 -0.07054859 -0.07017174 -0.06978548 -0.06939001 -0.06898385 -0.0685711 -0.06815704 -0.06775004
 -0.06736503 -0.06700293 -0.06667398 -0.06636336 -0.06606647 -0.06576499 -0.06544734 -0.06511275 -0.06475492 -0.06439573
 -0.06403778 -0.06370272 -0.06339552 -0.06310931 -0.06284479 -0.06256975 -0.06228291 -0.06196195 -0.06160937 -0.06123574
 -0.06084513 -0.0604626 -0.06008688 -0.05972845 -0.05938115 -0.05903724 -0.05869358 -0.05834034 -0.05798353 -0.05762345
 -0.0572715 -0.0569368 -0.05662061 -0.05632999 -0.0560458 -0.05576532 -0.05546568 -0.05513975 -0.05478752 -0.05440659
 -0.0540157 -0.05361606 -0.05322082 -0.0528304 -0.05244775 -0.05207364 -0.05171558 -0.05137527 -0.05106603 -0.05078574
 -0.05053738 -0.05031274 -0.05009751 -0.04988425 -0.04965487 -0.04941148 -0.04914802 -0.04887348 -0.04859285 -0.04830954
 -0.04802742 -0.04774271 -0.04745328 -0.04716457 -0.04687553 -0.0466031 -0.0463504 -0.04611884 -0.04590979 -0.04569494
 -0.04547282 -0.04521386 -0.04492033 -0.0445979 -0.04425351 -0.04392306 -0.0436092 -0.04334127 -0.04311103 -0.042918
 -0.04274855 -0.0425821 -0.0424139 -0.04222859 -0.04203677 -0.04184029 -0.04165071 -0.04147684 -0.04131288 -0.04116129
 -0.04100371 -0.04083641 -0.04064891 -0.04043817 -0.04021029 -0.03996506 -0.03971866 -0.03947186 -0.03923889 -0.03901861
 -0.03880832 -0.03860362 -0.03838129 -0.03814059 -0.03786324 -0.03756043 -0.03724356 -0.03692894 -0.03664661 -0.03639969
 -0.03620632 -0.03605092 -0.03593024 -0.03582498 -0.03572436 -0.0356212 -0.03550972 -0.0353944 -0.0352749 -0.03515776
 -0.03504398 -0.03493627 -0.03483517 -0.03473693 -0.03464117 -0.0345367 -0.03442258 -0.03428458 -0.03412409 -0.03393821
 -0.03373318 -0.03352581 -0.03332204 -0.03314469 -0.0329894 -0.03286301 -0.03275015 -0.03263785 -0.03251573 -0.03236848
 -0.032207 -0.03202881 -0.03185959 -0.03170799 -0.03158653 -0.03150286 -0.0314395 -0.03139639 -0.0313458 -0.03128475
 -0.03121158 -0.03112683 -0.03105848 -0.03100727 -0.03099323 -0.03101158 -0.03105009 -0.03110291 -0.03114452 -0.03117521
 -0.03118266 -0.03117125 -0.03114215 -0.03109913 -0.03104608 -0.03098631 -0.0309243 -0.03085806 -0.03079073 -0.0307079
 -0.03060626 -0.0304718 -0.03029675 -0.03009904 -0.02987613 -0.02968112 -0.02951791 -0.02942924 -0.02941627 -0.02946666
 -0.0295755 -0.02968952 -0.02980722 -0.02989115 -0.02994845 -0.02998289 -0.02999861 -0.03000933 -0.03000757 -0.02998716
 -0.02994449 -0.0298676 -0.02977465 -0.02967115 -0.02958326 -0.02952804 -0.02950817 -0.02953261 -0.02957683 -0.02963791
 -0.02969155 -0.02973261 -0.02975891 -0.02976903 -0.02978073 -0.02979499 -0.02983288 -0.02989408 -0.02998522 -0.03010181
 -0.03022666 -0.03035217 -0.03044503 -0.03050199 -0.03049627 -0.03043824 -0.03032667 -0.03018611 -0.03003901 -0.02990926
 -0.02982365 -0.02978354 -0.02980167 -0.02985236 -0.02993235 -0.03000984 -0.03007692 -0.03011637 -0.03012436 -0.03009588
 -0.03003028 -0.02992285 -0.02977342 -0.02958161 -0.02934981 -0.0290996 -0.02883796 -0.02861152 -0.02842587 -0.02832732
 -0.02830741 -0.02837729 -0.02850935 -0.02867066 -0.02883117 -0.02894308 -0.02900441 -0.02898986 -0.02893751 -0.02885418
 -0.02879073 -0.02876742 -0.02880667 -0.02892174 -0.02909237 -0.02931998 -0.02956373 -0.02982024 -0.03006208 -0.03028804
 -0.0304963 -0.03068757 -0.03086967 -0.03104137 -0.03120083 -0.03134496 -0.03146185 -0.03155174 -0.03160604 -0.03163495
 -0.0316455 -0.03165939 -0.03169983 -0.0317877 -0.03194905 -0.03218088 -0.03249535 -0.03285756 -0.03326216 -0.03366535
 -0.03405572 -0.03440996 -0.03472166 -0.03499263 -0.03522177 -0.0354246 -0.03560201 -0.03577679 -0.03594991 -0.03614152
 -0.03634875 -0.03656856 -0.03679425 -0.03700022 -0.03718694 -0.03733855 -0.03746948 -0.03759371 -0.03772602 -0.03789118
 -0.03808494 -0.03831677 -0.03856334 -0.03881779 -0.0390539 -0.03926068 -0.03942521 -0.03953942 -0.0396165 -0.03965355
 -0.03969441 -0.03974157 -0.03984698 -0.04001318 -0.04025931 -0.04058203 -0.04095197 -0.04136242 -0.04176172 -0.04214729
 -0.04248197 -0.04277049 -0.04300344 -0.04319071 -0.0433416 -0.04346861 -0.04358746 -0.0437092 -0.04384751 -0.04400542
 -0.04419006 -0.04439285 -0.04461434 -0.04483793 -0.04506015 -0.04526817 -0.04545829 -0.04563419 -0.0457949 -0.04596073
 -0.04613272 -0.04633106 -0.04655518 -0.04680614 -0.04708 -0.04735637 -0.04763115 -0.04787851 -0.04809997 -0.04828381
 -0.04843946 -0.04857507 -0.04870225 -0.04883755 -0.04898511 -0.04915494 -0.04934132 -0.04954424 -0.04975685 -0.04997596
 -0.05020104 -0.05043114 -0.05066849 -0.0509137 -0.05116501 -0.05142249 -0.05168194 -0.05194314 -0.05220342 -0.05246252
 -0.05271707 -0.05296638 -0.05320442 -0.0534316 -0.0536453 -0.05384811 -0.05404475 -0.05423702 -0.05443085 -0.05462402
 -0.05481674 -0.05500568 -0.05518865 -0.05536267 -0.05552709 -0.05567453 -0.05580253 -0.05590444 -0.05597461 -0.05603014
 -0.05606876 -0.05613861 -0.05624357 -0.05642518 -0.05668564 -0.05701319 -0.05740293 -0.05779199 -0.05817502 -0.05848668
 -0.05873194 -0.05888835 -0.05897475 -0.05901948 -0.05904664 -0.05910904 -0.05921474 -0.05940079 -0.05964153 -0.05993532
 -0.06023875 -0.06052543 -0.06078015 -0.0609851 -0.06116739 -0.0613306 -0.06149612 -0.06167231 -0.06183379 -0.06198026
 -0.06206929 -0.06209866 -0.06206875 -0.06198371 -0.06189625 -0.06181145 -0.06178772 -0.06182139 -0.06193382 -0.06211133
 -0.06233421 -0.06258801 -0.06283846 -0.06308447 -0.06330805 -0.06352379 -0.0637382 -0.06395981 -0.06420036 -0.06444237
 -0.06468442 -0.06490142 -0.06508392 -0.06523399 -0.06534828 -0.0654513 -0.06554575 -0.06563949 -0.0657331 -0.06580897
 -0.06586675 -0.06589581 -0.06589957 -0.0658929 -0.06587914 -0.06587908 -0.06589112 -0.06592207 -0.06596809 -0.06602547
 -0.06609261 -0.06616525 -0.06624614 -0.06633396 -0.06643838 -0.0665627 -0.06671966 -0.06691723 -0.0671515 -0.06742824
 -0.06771244 -0.06800157 -0.06825146 -0.06845602 -0.06860805 -0.06870677 -0.06879637 -0.06887992 -0.06901146 -0.06918795
 -0.06942179 -0.06970127 -0.06999144 -0.07028253 -0.07053126 -0.07074077 -0.07089376 -0.07100522 -0.07108402 -0.07114735
 -0.0712118 -0.07128707 -0.07138504 -0.07150079 -0.07163834 -0.07177721 -0.07191397 -0.07202821 -0.07211359 -0.07217767
 -0.07221841 -0.07227552 -0.07235116 -0.0724763 -0.07264931 -0.07285403 -0.07308517 -0.07329913 -0.07349883 -0.07366873
 -0.07382151 -0.07398242 -0.07415492 -0.07436226 -0.07458629 -0.0748169 -0.07503297 -0.07521032 -0.07535004 -0.07544227
 -0.07550732 -0.07555144 -0.07558624 -0.0756185 -0.07563862 -0.07564649 -0.07562916 -0.07558384 -0.07552189 -0.07544365
 -0.07538956 -0.07536164 -0.07539902 -0.07549805 -0.07565879 -0.07587019 -0.07609234 -0.07631579 -0.07649606 -0.07663365
 -0.07670806 -0.07672705 -0.07669061 -0.07660954 -0.07649022 -0.07634787 -0.0761906 -0.07603514 -0.07589046 -0.07576238
 -0.07565624 -0.07556134 -0.0754778 -0.0753885 -0.07529198 -0.07517353 -0.07503226 -0.07485345 -0.07463656 -0.07436958
 -0.07405467 -0.07369755 -0.0733047 -0.07290334 -0.07249831 -0.07211696 -0.07175601 -0.07142267 -0.071111 -0.07081456
 -0.07053567 -0.07027277 -0.07003305 -0.06982272 -0.06963701 -0.06947871 -0.06932857 -0.06918133 -0.06902729 -0.06886041
 -0.06870338 -0.06855618 -0.06846063 -0.06841934 -0.06845382 -0.06856254 -0.06872467 -0.06893542 -0.06915264 -0.06937557
 -0.06957834 -0.06976468 -0.06993265 -0.07008147 -0.07021094 -0.07031421 -0.07038113 -0.07041264 -0.0704016 -0.07036542
 -0.07031037 -0.07025526 -0.07021078 -0.07017907 -0.07016436 -0.07015584 -0.07015233 -0.07014501 -0.07013248 -0.07011335
 -0.07008736 -0.07006074 -0.07003464 -0.07002749 -0.07004137 -0.07010094 -0.070204 -0.07035846 -0.07055373 -0.07076875
 -0.07099099 -0.07118683 -0.07135567 -0.07147787 -0.07157394 -0.07164747 -0.07173855 -0.0718665 -0.07207503 -0.07238737
 -0.07282158 -0.07339378 -0.07407288 -0.07486224 -0.07568925 -0.07654844 -0.07736438 -0.07813187 -0.07881197 -0.079405
 -0.07991511 -0.08034542 -0.08071899 -0.0810371 -0.08131631 -0.08155715 -0.08176729 -0.08195166 -0.08212082 -0.08228275
 -0.08245289 -0.08263128 -0.08282681 -0.08302535 -0.08322322 -0.08340196 -0.08355259 -0.08366718 -0.08374043 -0.08377725
 -0.08377708 -0.08374936 -0.08369509 -0.08362021 -0.08352517 -0.08341192 -0.08328101 -0.08314028 -0.08299337 -0.08286776
 -0.08276938 -0.08273815 -0.08277324 -0.08289717 -0.08309548 -0.08335552 -0.08365752 -0.08397146 -0.08428634 -0.08458152
 -0.08485694 -0.0851065 -0.08533455 -0.08554118 -0.08573151 -0.08590713 -0.08607052 -0.08622351 -0.08635853 -0.08647528
 -0.08656257 -0.08661919 -0.08665819 -0.08668239 -0.0867447 -0.0868493 -0.08705544 -0.08735624 -0.08776194 -0.08824962
 -0.08876642 -0.08929058 -0.08975326 -0.0901592 -0.09047955 -0.09074666 -0.09097761 -0.0912017 -0.09144625 -0.09170844
 -0.09199814 -0.09228753 -0.09257104 -0.09282694 -0.09304858 -0.09323664 -0.0933893 -0.09352275 -0.09363782 -0.09375221
 -0.09386648 -0.09399009 -0.09412202 -0.09426033 -0.09440274 -0.09453933 -0.09466776 -0.09477667 -0.09486528 -0.09492576
 -0.09496186 -0.09497283 -0.09496932 -0.09495836 -0.09495404 -0.09496738 -0.09500466 -0.09507413 -0.0951645 -0.09527706
 -0.09538703 -0.09549043 -0.09556766 -0.09561473 -0.09563473 -0.0956272 -0.09561316 -0.09559346 -0.09558392 -0.09558339
 -0.09558995 -0.09560306 -0.09561785 -0.09563822 -0.09567245 -0.09572343 -0.09580332 -0.09590486 -0.09602608 -0.09615297
 -0.09627201 -0.09637544 -0.09645338 -0.09650792 -0.09653726 -0.09654619 -0.09653478 -0.0965111 -0.09647503 -0.0964435
 -0.09641803 -0.0964158 -0.09643841 -0.09648523 -0.09655554 -0.09663188 -0.09671343 -0.0967852 -0.09684876 -0.09690297
 -0.09694946 -0.09699272 -0.09703193 -0.09706774 -0.0970986 -0.09712205 -0.09713904 -0.097149 -0.09715481 -0.09715865
 -0.09716034 -0.09716124 -0.09715673 -0.09714519 -0.09712587 -0.09709676 -0.09706888 -0.09704267 -0.09703378 -0.09704351
 -0.09707545 -0.09712908 -0.09719065 -0.09725873 -0.09731562 -0.097362 -0.09739066 -0.09740467 -0.09740873 -0.09740531
 -0.09740198 -0.09739777 -0.09739529 -0.0973907 -0.09738074 -0.09736492 -0.09733983 -0.0973137 -0.09728771 -0.09727453
 -0.09727873 -0.09730508 -0.09735673 -0.09742513 -0.09751032 -0.09759788 -0.09768683 -0.09776693 -0.09783787 -0.09789655
 -0.09794318 -0.09797764 -0.09800032 -0.09801225 -0.09801463 -0.09801088 -0.09800309 -0.09799707 -0.09799362 -0.09799672
 -0.09800468 -0.09801727 -0.09803311 -0.09805059 -0.09807142 -0.0980961 -0.09812541 -0.09816083 -0.09819677 -0.09823304
 -0.09826088 -0.09827869 -0.09828559 -0.09828105 -0.09827521 -0.09826858 -0.09827133 -0.09828244 -0.09829883 -0.09831792
 -0.09832589 -0.09832302 -0.09830117 -0.09826601 -0.09822395 -0.09818138 -0.0981505 -0.09813198 -0.09813175 -0.0981455
 -0.09817255 -0.09820794 -0.09824999 -0.09829298 -0.09833542 -0.0983711 -0.09839799 -0.09841618 -0.09842461 -0.09843309
 -0.09844221 -0.09846136 -0.09849063 -0.09852774 -0.09857147 -0.09861059 -0.09864473 -0.09866583 -0.09867545 -0.09867372
 -0.09866263 -0.09864597 -0.09862553 -0.09860468 -0.09858617 -0.09857363 -0.0985691 -0.09857633 -0.09859116 -0.09861451
 -0.09863494 -0.09864929 -0.09864906 -0.09863063 -0.0985988 -0.09855281 -0.09850681 -0.0984618 -0.09842789 -0.09840532
 -0.09839427 -0.09839416 -0.09840032 -0.09841258 -0.09842774 -0.09844593 -0.09846618 -0.0984879 -0.09850992 -0.09853037
 -0.09854636 -0.09855627 -0.09855679 -0.09854961 -0.09853367 -0.09851499 -0.09849547 -0.09848152 -0.09847601 -0.09848006
 -0.09849528 -0.0985157 -0.09854119 -0.09856258 -0.09857913 -0.09858527 -0.09858089 -0.09856731 -0.098545 -0.09851876
 -0.09848863 -0.09845725 -0.09842455 -0.09839115 -0.09835829 -0.09832855 -0.09830353 -0.09828729 -0.0982786 -0.09827858
 -0.09828316 -0.09829 -0.0982961 -0.09829917 -0.09829906 -0.09829533 -0.09828821 -0.09827775 -0.09826361 -0.09824555
 -0.09822559 -0.09820375 -0.09818517 -0.09817006 -0.09816122 -0.09815824 -0.09815834 -0.09816099 -0.09816175 -0.09816137
 -0.09815963 -0.09815773 -0.09815873 -0.09816138 -0.09816606 -0.09816902 -0.09816683 -0.09815645 -0.09813384 -0.098101
 -0.0980566 -0.0980079 -0.0979564 -0.09790979 -0.09787026 -0.09784015 -0.09782054 -0.09780738 -0.09780049 -0.09779507
 -0.09779089 -0.09778572 -0.09777935 -0.09776906 -0.09775443 -0.09773137 -0.09770079 -0.09766253 -0.09761973 -0.09757896
 -0.097542 -0.09751558 -0.0974961 -0.09748341 -0.09747114 -0.09745415 -0.09743106 -0.09739844 -0.09736275 -0.09732473
 -0.09729256 -0.09726877 -0.09725411 -0.09724966 -0.09724873 -0.09725092 -0.09724983 -0.09724526 -0.09723691 -0.09722497
 -0.09721148 -0.097196 -0.09717745 -0.09715523 -0.09712646 -0.09709214 -0.09705244 -0.09700983 -0.09696806 -0.09692855
 -0.09689472 -0.09686501 -0.09683981 -0.0968161 -0.09679241 -0.0967674 -0.09673994 -0.09671155 -0.09668212 -0.09665452
 -0.09662896 -0.0966092 -0.09659556 -0.09659072 -0.0965947 -0.09660456 -0.09661943 -0.09662975 -0.09663497 -0.09662668
 -0.09660679 -0.09657627 -0.09653842 -0.09650099 -0.09646526 -0.09643714 -0.09641469 -0.09639853 -0.09638531 -0.09637295
 -0.09635897 -0.09634145 -0.09632003 -0.0962939 -0.09626452 -0.09623198 -0.09619773 -0.09616192 -0.09612604 -0.09609014
 -0.09605712 -0.09602713 -0.09600253 -0.09598296 -0.09596568 -0.09594977 -0.09592868 -0.09590299 -0.09587025 -0.09583332
 -0.09579705 -0.09576366 -0.09573951 -0.09572258 -0.09571434 -0.09570877 -0.09570263 -0.09568984 -0.09566601 -0.09563031
 -0.09558025 -0.09552266 -0.09545773 -0.09539623 -0.0953397 -0.09529518 -0.09526373 -0.09524292 -0.09523252 -0.09522197
 -0.09521075 -0.09518914 -0.09515816 -0.09511758 -0.09506984 -0.09502292 -0.09497775 -0.09494101 -0.09491043 -0.09488587
 -0.09486417 -0.09484168 -0.09481729 -0.09478886 -0.09475698 -0.09472127 -0.09468307 -0.09464256 -0.09460144 -0.09456005
 -0.09451982 -0.09448114 -0.0944437 -0.0944076 -0.09437074 -0.09433303 -0.09429361 -0.09425272 -0.09421272 -0.09417407
 -0.09414071 -0.09411217 -0.09408943 -0.09407085 -0.09405328 -0.09403572 -0.09401494 -0.09399182 -0.09396623 -0.09393881
 -0.09391065 -0.09387971 -0.09384523 -0.09380583 -0.09376012 -0.09371136 -0.09365967 -0.09361017 -0.09356404 -0.09352101
 -0.09348147 -0.09343902 -0.09339339 -0.09334011 -0.0932799 -0.09321853 -0.09315808 -0.09311279 -0.09308366 -0.09308241
 -0.09310644 -0.09315639 -0.09322793 -0.09331406 -0.09341387 -0.09352235 -0.09364437 -0.09378109 -0.09393929 -0.09412315
 -0.09433492 -0.09457693 -0.09484639 -0.09514306 -0.09546474 -0.09581086 -0.09618244 -0.0965797 -0.09700209 -0.09744938
 -0.09790441 -0.09836309 -0.09877714 -0.09913813 -0.09937489 -0.09948331 -0.09940675 -0.0991587 -0.09873024 -0.09816404
 -0.09751375 -0.09683385 -0.09620647 -0.09565156 -0.09521414 -0.09488013 -0.0946548 -0.09451839 -0.09446602 -0.09448052
 -0.09456049 -0.09467626 -0.09482697 -0.0949605 -0.09507229 -0.09512243 -0.09510897 -0.09504136 -0.0949229 -0.09479455
 -0.09465863 -0.09455137 -0.09446733 -0.09441017 -0.09436749 -0.09431248 -0.09423856 -0.09412062 -0.09396589 -0.09377111
 -0.09354907 -0.09330779 -0.09305783 -0.09280617 -0.09256034 -0.09232425 -0.09210256 -0.09189709 -0.09170977 -0.09154138
 -0.09139081 -0.09125839 -0.09113704 -0.09102634 -0.09091426 -0.0908006 -0.0906789 -0.09055064 -0.09042069 -0.09029065
 -0.09016911 -0.09005546 -0.08995277 -0.08985931 -0.08977357 -0.08969443 -0.08962031 -0.08955001 -0.0894824 -0.08941585
 -0.08934904 -0.08928182 -0.08921359 -0.08914573 -0.08907861 -0.08901237 -0.08894736 -0.08888131 -0.08881409 -0.08874342
 -0.0886692 -0.0885916 -0.08851089 -0.08843038 -0.0883506 -0.08827651 -0.08820823 -0.08814921 -0.08809832 -0.08805502
 -0.08801734 -0.08798182 -0.08794726 -0.08791067 -0.08787268 -0.08783284 -0.08779188 -0.08775066 -0.08770733 -0.08766176
 -0.08761085 -0.08755326 -0.08749024 -0.08742106 -0.08735304 -0.08728676 -0.08722871 -0.08717924 -0.08713612 -0.08709873
 -0.08705842 -0.08701511 -0.0869635 -0.08690512 -0.08684252 -0.08677711 -0.08671418 -0.0866522 -0.08659156 -0.08652914
 -0.08646069 -0.08638697 -0.08630547 -0.08622321 -0.08614293 -0.08607105 -0.08601187 -0.08596278 -0.08592507 -0.08588894
 -0.08585294 -0.08581083 -0.08576157 -0.08570652 -0.08564572 -0.08558375 -0.08552073 -0.08545931 -0.08539951 -0.08534271
 -0.08528905 -0.08524012 -0.08519535 -0.0851549 -0.08511657 -0.08507713 -0.08503406 -0.08498236 -0.0849235 -0.0848555
 -0.08478535 -0.08471595 -0.08465348 -0.08460187 -0.08455988 -0.08452865 -0.08450197 -0.08447903 -0.08445516 -0.08442983
 -0.08440033 -0.08436649 -0.084327 -0.08428209 -0.08423446 -0.08418465 -0.08413788 -0.08409327 -0.08405084 -0.08400874
 -0.0839617 -0.08391066 -0.0838537 -0.08379541 -0.08374102 -0.08369178 -0.0836523 -0.08361615 -0.08358168 -0.08354169
 -0.08349189 -0.08343378 -0.08336584 -0.08329655 -0.08322711 -0.08316319 -0.08310574 -0.08305397 -0.08300789 -0.08296509
 -0.08292549 -0.08288781 -0.08285173 -0.08281485 -0.08277655 -0.08273277 -0.08268416 -0.08262946 -0.0825714 -0.08251368
 -0.08245925 -0.08241338 -0.08237637 -0.08235097 -0.08233393 -0.08232503 -0.08231853 -0.08231272 -0.08230148 -0.08228287
 -0.08225366 -0.08221266 -0.08216106 -0.08209863 -0.08202965 -0.08195434 -0.08187818 -0.08180153 -0.0817305 -0.0816654
 -0.08161163 -0.08156829 -0.08153585 -0.08151142 -0.08148846 -0.08146425 -0.08143018 -0.08138796 -0.0813349 -0.08127713
 -0.08121885 -0.08116423 -0.08111801 -0.08107721 -0.08104248 -0.08100767 -0.08097086 -0.08093062 -0.08088598 -0.0808403
 -0.08079385 -0.08074919 -0.08070651 -0.0806651 -0.0806248 -0.08058339 -0.08054084 -0.08049585 -0.08044861 -0.08039921
 -0.08034787 -0.08029523 -0.08024128 -0.08018618 -0.08013015 -0.08007315 -0.0800165 -0.07996109 -0.07990863 -0.07986046
 -0.07981704 -0.079779 -0.07974566 -0.079717 -0.07969232 -0.07967176 -0.07965285 -0.07963566 -0.0796141 -0.07958779
 -0.07955225 -0.07950763 -0.07945595 -0.07939792 -0.07933937 -0.07928018 -0.07922313 -0.0791673 -0.0791115 -0.07905561
 -0.07899857 -0.0789414 -0.07888506 -0.07882991 -0.078777 -0.07872494 -0.07867339 -0.07862063 -0.0785656 -0.07850876
 -0.07844951 -0.07839121 -0.07833409 -0.07828251 -0.07823712 -0.07819933 -0.07816932 -0.07814246 -0.07811823 -0.07808778
 -0.07805098 -0.0780017 -0.07794164 -0.07787333 -0.07779991 -0.07773083 -0.07766772 -0.07761885 -0.07758135 -0.07755651
 -0.0775368 -0.0775167 -0.07748981 -0.07744961 -0.07739774 -0.07733192 -0.07726092 -0.07718655 -0.07711576 -0.07705054
 -0.07699085 -0.07693706 -0.07688611 -0.0768378 -0.07679001 -0.07674267 -0.0766945 -0.07664578 -0.07659772 -0.0765511
 -0.07651024 -0.07647455 -0.07644583 -0.07642046 -0.0763931 -0.07636032 -0.07631431 -0.07625785 -0.07618924 -0.07611628
 -0.07604318 -0.07597464 -0.07591465 -0.07586018 -0.07581181 -0.07576305 -0.0757127 -0.07565746 -0.07559652 -0.0755322
 -0.07546455 -0.07539789 -0.07533234 -0.07527026 -0.0752116 -0.07515741 -0.07510757 -0.0750626 -0.07502145 -0.07498208
 -0.07494242 -0.07489759 -0.07484694 -0.07478688 -0.07472003 -0.07464713 -0.07457128 -0.07449501 -0.07441834 -0.07434205
 -0.07426489 -0.07418621 -0.07410737 -0.07402795 -0.07395322 -0.07388372 -0.07382327 -0.07377227 -0.07372806 -0.07369027
 -0.07365112 -0.07361044 -0.07356301 -0.0735097 -0.07345124 -0.07338846 -0.07332421 -0.07325836 -0.07319185 -0.07312487
 -0.07305761 -0.07299148 -0.07292785 -0.07286727 -0.07281113 -0.07275683 -0.07270417 -0.07264879 -0.07258927 -0.07252367
 -0.07245091 -0.0723738 -0.07229242 -0.07221068 -0.0721289 -0.07204661 -0.07196367 -0.07187673 -0.07178615 -0.07169247
 -0.07159687 -0.07150459 -0.07141605 -0.07133526 -0.07126147 -0.07119516 -0.0711356 -0.07108256 -0.07103396 -0.07098895
 -0.0709425 -0.07089144 -0.0708322 -0.07076132 -0.07068246 -0.07059512 -0.07050705 -0.07041976 -0.07033752 -0.07026134
 -0.07018951 -0.07012206 -0.07005449 -0.06998674 -0.06991697 -0.06984586 -0.06977766 -0.06971297 -0.0696573 -0.06960908
 -0.06956752 -0.06952962 -0.06948907 -0.06944504 -0.06939355 -0.06933583 -0.06927201 -0.06920195 -0.06912579 -0.06904261
 -0.06895156 -0.06885411 -0.06875023 -0.06864239 -0.06853095 -0.06841822 -0.06830428 -0.06819281 -0.06808405 -0.06798146
 -0.06788511 -0.06779543 -0.06771235 -0.06763505 -0.06756394 -0.06750046 -0.06744462 -0.06739788 -0.06735794 -0.06732201
 -0.06728594 -0.0672434 -0.06719124 -0.06712397 -0.06704173 -0.06694189 -0.06682954 -0.06670506 -0.06657707 -0.06644752
 -0.0663249 -0.06621111 -0.06611162 -0.0660277 -0.06595847 -0.06590422 -0.06585497 -0.06581009 -0.0657568 -0.06569544
 -0.06562245 -0.06553979 -0.0654545 -0.06536701 -0.06528347 -0.06520018 -0.06511316 -0.06501868 -0.06490827 -0.06478582
 -0.06465013 -0.06451118 -0.06437497 -0.06424803 -0.06413584 -0.06403612 -0.06395042 -0.06386992 -0.0637933 -0.06371339
 -0.0636287 -0.06354018 -0.06344764 -0.0633586 -0.06327343 -0.06319922 -0.06313517 -0.06307913 -0.063028 -0.06296708
 -0.06289438 -0.06279447 -0.06267283 -0.06253143 -0.06237905 -0.06222932 -0.06208453 -0.06195213 -0.0618302 -0.06171944
 -0.06161834 -0.06152705 -0.06144192 -0.06136287 -0.06128229 -0.06119849 -0.06110744 -0.06100781 -0.06090438 -0.06079738
 -0.06069127 -0.06058603 -0.06047909 -0.06037004 -0.06025418 -0.06013168 -0.06000041 -0.05986172 -0.05971758 -0.05957086
 -0.05942786 -0.05929093 -0.05916696 -0.05905363 -0.05895238 -0.05885686 -0.05876339 -0.05866767 -0.05856659 -0.05845957
 -0.05834598 -0.05822533 -0.05809739 -0.05796182 -0.05781813 -0.0576705 -0.05751904 -0.05737107 -0.05722681 -0.05708988
 -0.05695934 -0.0568295 -0.05669822 -0.05655189 -0.05639094 -0.05620789 -0.05600813 -0.05579871 -0.05558386 -0.05537328
 -0.0551661 -0.05496504 -0.05476788 -0.05457288 -0.05438222 -0.05419547 -0.05401866 -0.05385352 -0.05370419 -0.05357319
 -0.05345387 -0.05334739 -0.05323078 -0.05310257 -0.05294049 -0.05274437 -0.0525242 -0.05228262 -0.05204789 -0.05181922
 -0.05160872 -0.05141196 -0.05122256 -0.05103642 -0.05084199 -0.05063846 -0.05041829 -0.05018693 -0.04994531 -0.0497033
 -0.04946883 -0.04924408 -0.04903587 -0.04882769 -0.04861768 -0.04838383 -0.04811887 -0.04782545 -0.04750137 -0.04716791
 -0.04682669 -0.04648776 -0.04615138 -0.04581725 -0.04548542 -0.04515752 -0.04483225 -0.04450599 -0.04417419 -0.04382114
 -0.04344462 -0.04302938 -0.04258436 -0.04211427 -0.04163111 -0.04115022 -0.04067236 -0.04020285 -0.03973892 -0.03927931
 -0.03882679 -0.03838197 -0.03794733 -0.03752603 -0.03710349 -0.03668097 -0.03621889 -0.0357141 -0.0351398 -0.03449646
 -0.03382761 -0.03313704 -0.03248037 -0.03185108 -0.03124692 -0.0306599 -0.03006376 -0.02945766 -0.02882805 -0.02817544
 -0.02749876 -0.02678752 -0.02603608 -0.0252207 -0.02432185 -0.02333113 -0.02222712 -0.02106096 -0.01983646 -0.01863199
 -0.01746799 -0.01637186 -0.01535246 -0.01439526 -0.01350045 -0.01264307 -0.01182118 -0.01098978 -0.01014357 -0.009208708
 -0.008191735 -0.007071961 -0.005886219 -0.004744154 -0.003654019 -0.002698158 -0.001835803 -0.001040894 -0.0002853283 0.0004735038
 0.001233405 0.00200572 0.002782665 0.003561215 0.004343922 0.005134153 0.005918409 0.006696417 0.007444299 0.008156638
 0.008839607 0.009493003 0.01013137 0.01075459 0.01133915 0.01188266 0.01235018 0.01274589 0.01307093 0.01333327
 0.01355942 0.01375061 0.01392396 0.01407292 0.01419258 0.01428514 0.0143478 0.01439341 0.01443078 0.01446595
 0.01450698 0.01454384 0.01457656 0.01458886 0.01457672 0.01453282 0.01445452 0.01434839 0.01421403 0.01407263
 0.01392524 0.01379071 0.01366797 0.01355345 0.01344558 0.01333338 0.01321964 0.01310512 0.01299845 0.01291768
 0.0128702 0.01287773 0.0129341 0.01304138 0.01319152 0.01337452 0.01360279 0.01387804 0.01421764 0.0146326
 0.01510903 0.0156481 0.01622227 0.01682593 0.01745926 0.01812124 0.01882656 0.01957573 0.02037038 0.02120957
 0.0220843 0.02299424 0.0239336 0.02490191 0.02589488 0.02691171 0.02794805 0.02900502 0.03008264 0.03118132
 0.03230244 0.03344311 0.03460172 0.03577628 0.03696502 0.03816866 0.03938724 0.04062103 0.04187122 0.04313142
 0.04440312 0.04566133 0.0469048 0.04810003 0.04924571 0.05033918 0.05138315 0.05240939 0.05341328 0.05439239
 0.05532935 0.05616147 0.05688943 0.05748003 0.05795147 0.05832155 0.05859138 0.05876939 0.0588514 0.05883411
 0.05872425 0.05853371 0.05823013 0.05782382 0.05719862 0.05632574 0.05514689 0.05362215 0.05198348 0.05024703
 0.04859669 0.04703913 0.04548661 0.04393338 0.04228627 0.0405543 0.0387392 0.03684931 0.03492265 0.03293769
 0.03087921 0.02869207 0.02626261 0.02362314 0.02069933 0.01774051 0.01491987 0.01235646 0.01020745 0.008298458
 0.006602442 0.004979539 0.003378616 0.001808858 0.000260579 -0.001205017 -0.002581354 -0.003862801 -0.005049385 -0.006184204
 -0.007268571 -0.008332432 -0.009371783 -0.01038093 -0.0113552 -0.01227505 -0.01314144 -0.01394539 -0.01469359 -0.01539073
 -0.01604688 -0.0166714 -0.0172806 -0.01788385 -0.01851005 -0.01917666 -0.01989981 -0.02070717 -0.02151704 -0.02232479
 -0.02300874 -0.02353813 -0.02394423 -0.02422366 -0.02447143 -0.02469195 -0.02492042 -0.025154 -0.02537024 -0.0255677
 -0.02572486 -0.02584885 -0.02595454 -0.02604362 -0.0261321 -0.02620596 -0.02625136 -0.02625413 -0.02618897 -0.02606356
 -0.02587322 -0.02563517 -0.02535835 -0.02504899 -0.02471265 -0.0243447 -0.02394735 -0.02350301 -0.02301233 -0.02243631
 -0.02177112 -0.02099093 -0.02009492 -0.01914973 -0.01816277 -0.01724585 -0.0163954 -0.01564907 -0.01499717 -0.01442531
 -0.01393118 -0.01350574 -0.01314211 -0.01283387 -0.01255245 -0.01227123 -0.0119488 -0.01153738 -0.0110422 -0.01043606
 -0.009801079 -0.009163929 -0.00856623 -0.008031936 -0.007523583 -0.007040042 -0.006538277 -0.00601293 -0.005456965 -0.004869953
 -0.00427676 -0.003678355 -0.003095362 -0.00252417 -0.001956727 -0.001385601 -0.0007804282 -0.0001383417 0.0005666473 0.00132229
 0.002121876 0.002950868 0.003786504 0.004633241 0.005486185 0.00635514 0.007247617 0.0081561 0.009082163 0.01000681
 0.01092486 0.01182912 0.01271668 0.01359455 0.01446396 0.01531911 0.01615962 0.01694083 0.01765932 0.01825907
 0.01874043 0.01907801 0.01927242 0.01931509 0.01919986 0.01890897 0.01843568 0.01775789 0.0168825 0.01580279
 0.01454505 0.01312264 0.01157003 0.009907528 0.008160268 0.006339769 0.00446624 0.002539871 0.0006098947 -0.0013212
 -0.003175909 -0.004945526 -0.006594729 -0.008121277 -0.00955813 -0.0109074 -0.01220737 -0.01345342 -0.01463863 -0.01575486
 -0.01676657 -0.01767661 -0.01846987 -0.01916284 -0.01977362 -0.02032037 -0.02083029 -0.02131435 -0.02179033 -0.02226001
 -0.02272953 -0.02319528 -0.02365761 -0.02411153 -0.02455597 -0.02498683 -0.02540302 -0.02580467 -0.02619159 -0.02656663
 -0.02692994 -0.02727595 -0.02760326 -0.02789204 -0.02814109 -0.02833205 -0.02846755 -0.02854641 -0.02857324 -0.0285582
 -0.02850458 -0.02842245 -0.02831268 -0.02817991 -0.02802453 -0.02784568 -0.02765217 -0.02744421 -0.02724447 -0.02705928
 -0.02691302 -0.02681413 -0.02676999 -0.02678474 -0.02684689 -0.02695647 -0.02709358 -0.02725712 -0.02742859 -0.02760734
 -0.02778089 -0.02794902 -0.02810452 -0.02824644 -0.02836791 -0.02846728 -0.02853682 -0.02857652 -0.02858201 -0.02855657
 -0.02850138 -0.02842205 -0.02832256 -0.02820948 -0.0280871 -0.02796042 -0.02783285 -0.0277041 -0.02757486 -0.02744303
 -0.02730736 -0.02717408 -0.02704296 -0.02692914 -0.02683348 -0.02676563 -0.02672507 -0.02670637 -0.02670773 -0.02671491
 -0.02672756 -0.02673588 -0.02674274 -0.02674939 -0.02676062 -0.02678549 -0.0268256 -0.02688807 -0.02696756 -0.02706299
 -0.02716685 -0.02727408 -0.02738244 -0.02748955 -0.0275968 -0.02770488 -0.02781072 -0.02791449 -0.0280092 -0.02809402
 -0.02816607 -0.02822513 -0.02827425 -0.02831354 -0.02834534 -0.02836919 -0.02838322 -0.02838707 -0.02837821 -0.02835686
 -0.02832256 -0.02827511 -0.02821418 -0.02813896 -0.02804776 -0.02794186 -0.02782063 -0.0276889 -0.02754893 -0.02740504
 -0.02725998 -0.02711331 -0.02696569 -0.02681445 -0.02665873 -0.0265004 -0.02633904 -0.02618305 -0.02603282 -0.0259003
 -0.02578596 -0.02569923 -0.02563921 -0.02560586 -0.02559625 -0.02559975 -0.02561352 -0.02562477 -0.0256333 -0.02563243
 -0.02562473 -0.02561001 -0.02559258 -0.02557496 -0.02556318 -0.02556082 -0.02557341 -0.0256049 -0.02565381 -0.0257225
 -0.02579792 -0.02587925 -0.02594887 -0.02600447 -0.02603929 -0.02605261 -0.02605598 -0.02605043 -0.02605432 -0.02606755
 -0.02609861 -0.02614579 -0.02620691 -0.02628087 -0.0263644 -0.02645596 -0.02655307 -0.0266504 -0.02674137 -0.02681995
 -0.02687763 -0.02691565 -0.02693024 -0.0269318 -0.0269227 -0.02691413 -0.02691005 -0.02691394 -0.02692775 -0.02694691
 -0.02697133 -0.02699479 -0.02701689 -0.02703488 -0.0270487 -0.0270576 -0.02706133 -0.02705755 -0.02704645 -0.02702716
 -0.02700086 -0.02697032 -0.02693581 -0.02689972 -0.02685993 -0.02681504 -0.02676249 -0.02669958 -0.02662512 -0.02653773
 -0.02643696 -0.02632255 -0.02619353 -0.02604991 -0.0258895 -0.0257121 -0.02551441 -0.02529553 -0.02505887 -0.02480437
 -0.02454895 -0.02429371 -0.02405932 -0.02384498 -0.02365618 -0.02348956 -0.0233347 -0.02318938 -0.02304226 -0.02289393
 -0.02274052 -0.02258244 -0.02241913 -0.02224968 -0.02207274 -0.02188903 -0.02169718 -0.02150321 -0.021308 -0.0211213
 -0.02094661 -0.02078654 -0.0206436 -0.02050726 -0.02037692 -0.02024091 -0.02009834 -0.01994946 -0.01979445 -0.01963735
 -0.01947736 -0.01931027 -0.01913561 -0.01894847 -0.01875067 -0.01854524 -0.01833201 -0.01811316 -0.01788495 -0.01764273
 -0.01738624 -0.01711191 -0.01682619 -0.01653149 -0.01623421 -0.0159378 -0.01564449 -0.01535532 -0.01507186 -0.01479396
 -0.01452638 -0.01426905 -0.0140323 -0.01381677 -0.01363148 -0.01347582 -0.01333918 -0.01321806 -0.0130814 -0.01292845
 -0.01273708 -0.01251454 -0.01226762 -0.01200555 -0.01174851 -0.01150085 -0.01127706 -0.01107535 -0.01090237 -0.0107442
 -0.01059819 -0.01043963 -0.01025638 -0.01003855 -0.009776374 -0.009491568 -0.0091851 -0.008885331 -0.008596735 -0.008324366
 -0.008069213 -0.00781611 -0.007564324 -0.00729946 -0.007022603 -0.006733736 -0.006436655 -0.006147009 -0.00586742 -0.005614691
 -0.00538485 -0.005179131 -0.00499122 -0.004811355 -0.004641978 -0.004479322 -0.004334964 -0.004214391 -0.004127506 -0.004080934
 -0.004074848 -0.004112979 -0.004181381 -0.004280156 -0.004383942 -0.004490007 -0.00457886 -0.004648706 -0.004699924 -0.004732853
 -0.004756221 -0.004769459 -0.004772274 -0.004763319 -0.004736411 -0.004691654 -0.004625728 -0.004540422 -0.004436076 -0.004318151
 -0.004191701 -0.004067098 -0.003955079 -0.003862944 -0.003799483 -0.003763036 -0.00375524 -0.00377219 -0.003812874 -0.003875764
 -0.003961011 -0.004063749 -0.004183805 -0.004313567 -0.004452536 -0.004594824 -0.004740014 -0.004880331 -0.005015318 -0.005136829
 -0.005246446 -0.005346193 -0.005438613 -0.005532951 -0.005627646 -0.005724337 -0.005820202 -0.005909707 -0.005998507 -0.006087282
 -0.006188981 -0.006311383 -0.006464521 -0.006655319 -0.006885392 -0.007158213 -0.007464862 -0.00780607 -0.008161906 -0.00853055
 -0.008892763 -0.009246775 -0.009590294 -0.009923868 -0.01026217 -0.01060611 -0.01097082 -0.01135384 -0.01175467 -0.01216612
 -0.0125686 -0.01295557 -0.01330363 -0.01361503 -0.013881 -0.01411195 -0.01431399 -0.01449624 -0.01466561 -0.01482921
 -0.01499049 -0.01515834 -0.01533699 -0.01552675 -0.01573067 -0.01593155 -0.01612807 -0.01630305 -0.01645484 -0.01658417
 -0.01669128 -0.01678356 -0.0168605 -0.01692064 -0.01696396 -0.0169883 -0.01699689 -0.01699746 -0.01699344 -0.01699593
 -0.01700413 -0.01702262 -0.01704644 -0.01707324 -0.01709694 -0.01711274 -0.01711806 -0.01711018 -0.0170903 -0.01705881
 -0.0170141 -0.01695643 -0.01688076 -0.01678595 -0.01667431 -0.01654555 -0.01641313 -0.01627784 -0.01615518 -0.0160456
 -0.01596024 -0.01589782 -0.01586074 -0.01584316 -0.01583123 -0.01581676 -0.0157753 -0.01570776 -0.01560179 -0.01547107
 -0.01532345 -0.01517169 -0.01502789 -0.01489324 -0.01477182 -0.01465939 -0.01455529 -0.0144571 -0.01436433 -0.01427492
 -0.01418861 -0.01410326 -0.0140187 -0.01393334 -0.01384719 -0.01376005 -0.01367288 -0.01359278 -0.01352206 -0.01347608
 -0.01345377 -0.01346264 -0.01349408 -0.01353541 -0.0135781 -0.01360288 -0.01361214 -0.01359974 -0.01357497 -0.01354375
 -0.01350691 -0.01346893 -0.01341786 -0.01335127 -0.01325853 -0.01313515 -0.01298798 -0.01281601 -0.01263937 -0.0124596
 -0.01228838 -0.01212584 -0.01196584 -0.01180783 -0.01164357 -0.01147459 -0.01130381 -0.01113279 -0.01096833 -0.01080934
 -0.01065712 -0.01050953 -0.01036439 -0.01021939 -0.01007181 -0.009919423 -0.009758951 -0.009592915 -0.009419993 -0.009249425
 -0.009083379 -0.008930221 -0.00879237 -0.008672344 -0.008571093 -0.008486653 -0.008419259 -0.008359727 -0.008307358 -0.008245304
 -0.008173436 -0.008082089 -0.007974471 -0.007860293 -0.007742912 -0.007639152 -0.007545921 -0.007466718 -0.007393163 -0.007314514
 -0.007226195 -0.007117598 -0.006994547 -0.006855701 -0.006713957 -0.006574352 -0.006447755 -0.006339737 -0.006250555 -0.006183024
 -0.006123967 -0.006073153 -0.006009372 -0.005930913 -0.005823688 -0.00568754 -0.005530763 -0.005355622 -0.005186897 -0.005024652
 -0.004884043 -0.004759657 -0.004643141 -0.004529747 -0.004403935 -0.004268677 -0.004120739 -0.003966476 -0.003812454 -0.003658392
 -0.003507131 -0.003353549 -0.003194125 -0.003032624 -0.002866823 -0.002713728 -0.002576967 -0.002466123 -0.002385251 -0.002316746
 -0.002260189 -0.002185924 -0.002092947 -0.001973862 -0.001830812 -0.001681434 -0.001526727 -0.001381152 -0.001242775 -0.001112096
 -0.0009896293 -0.0008758495 -0.0007738661 -0.0006894927 -0.0006214731 -0.0005726569 -0.000534974 -0.0005057489 -0.0004721817 -0.0004290853
 -0.0003624954 -0.0002660884 -0.0001355918 3.350426E-05 0.0002261539 0.0004424076 0.000656187 0.0008653664 0.001052666 0.001217549
 0.001361916 0.001487185 0.001607809 0.001724342 0.001848134 0.001976392 0.002106335 0.002235466 0.002355183 0.002469816
 0.002581228 0.002695666 0.00282268 0.002957815 0.003103238 0.003246107 0.00337995 0.00349988 0.00360139 0.003690723
 0.003768502 0.003839843 0.003906163 0.003964487 0.004014818 0.004051185 0.004073495 0.004085109 0.004088128 0.004104195
 0.004135909 0.004210086 0.004322621 0.004477622 0.004663376 0.004857483 0.005050854 0.005219171 0.005362744 0.005471302
 0.005553233 0.005609521 0.005653392 0.005691431 0.005732145 0.005781812 0.005833898 0.005888348 0.005936791 0.005976454
 0.006017051 0.006058804 0.006117505 0.006193658 0.006284612 0.00638904 0.006492391 0.006594089 0.006683927 0.006761998
 0.006821837 0.006867043 0.006899255 0.006929153 0.006973633 0.007038935 0.007141741 0.007271229 0.007426574 0.007592141
 0.007759137 0.007921802 0.008076321 0.008221124 0.008354983 0.008478966 0.00859226 0.008703642 0.008813873 0.008927663
 0.009045135 0.009160292 0.009273543 0.009386565 0.009501213 0.009629062 0.009769387 0.009925792 0.01009687 0.01028085
 0.01047798 0.01069187 0.01091108 0.01112969 0.01132415 0.01147173 0.011572 0.01161155 0.01162464 0.01162035
 0.0116222 0.01164119 0.01166364 0.01168933 0.01170278 0.01170168 0.01169404 0.01168036 0.01167893 0.01169084
 0.01173457 0.0118097 0.01192616 0.0120783 0.01225323 0.01244569 0.01263588 0.01282683 0.01301609 0.01320328
 0.01338951 0.01356681 0.0137257 0.01387509 0.01401237 0.01416436 0.01434589 0.01454495 0.01476728 0.01496296
 0.01512147 0.01524511 0.0153319 0.01541122 0.01548432 0.01555914 0.01563534 0.01571218 0.01578928 0.01586678
 0.01594015 0.01599414 0.01602583 0.01601681 0.01597818 0.01591905 0.0158489 0.01578691 0.01572006 0.01564615
 0.01554896 0.01541578 0.01525255 0.01505526 0.01484623 0.01462751 0.01442907 0.01425531 0.01412957 0.01405611
 0.01401821 0.01401483 0.01399588 0.01396088 0.01388623 0.013778 0.01365876 0.0135308 0.01341619 0.0133074
 0.01319795 0.01308196 0.01294597 0.01279152 0.01261409 0.01241989 0.0122079 0.01199759 0.01179609 0.01162646
 0.01150053 0.01142056 0.01139004 0.01140238 0.01145814 0.01154484 0.01166382 0.01176423 0.01184341 0.0118508
 0.01179035 0.01169252 0.01156653 0.01148437 0.01143995 0.01145074 0.01150553 0.01158293 0.0116874 0.01181839
 0.01197681 0.01216975 0.01237743 0.01258737 0.01278491 0.01295605 0.01310653 0.01323638 0.01334742 0.01344198
 0.01350943 0.01354834 0.01355169 0.01351794 0.01345426 0.01336112 0.0132689 0.01318007 0.01313667 0.01313456
 0.01317511 0.01324612 0.01330075 0.0133435 0.0133555 0.01336097 0.01339806 0.01346207 0.01357426 0.01368843
 0.01377199 0.0138061 0.01376031 0.01367641 0.01356041 0.01345646 0.01338036 0.01333437 0.01332381 0.01332197
 0.01332714 0.01331366 0.01328016 0.01323339 0.0131759 0.01314482 0.01313763 0.01316252 0.01320683 0.01322649
 0.01322167 0.01316512 0.01307698 0.01298199 0.01288353 0.01280176 0.01271348 0.01260403 0.01246671 0.0122871
 0.01209136 0.0118844 0.01169257 0.01152374 0.01139035 0.01129606 0.01124251 0.01123129 0.01124481 0.01128217
 0.01132314 0.01136866 0.01142733 0.01149961 0.01159705 0.01171029 0.01181221 0.01189458 0.0119193 0.01189683
 0.01182572 0.01172129 0.01160273 0.01147255 0.01133692 0.01120158 0.01106628 0.01095327 0.01086995 0.01083453
 0.01085703 0.01092366 0.01103805 0.01115193 0.01126163 0.01132241 0.01133159</values></Ydata></AB><ScSm><Ydata ylabel="Single channel"><values byteorder="INTEL" format="FLOAT32" numvalues="1814"> 0.07852573 0.07854255 0.07862058 0.0787888 0.07902353 0.0792566 0.07942223 0.07950339 0.07952245 0.07949473
 0.07943016 0.07938317 0.07944462 0.0796515 0.07992861 0.0801385 0.08019042 0.08012009 0.08007148 0.08015864
 0.08031217 0.08029496 0.07992356 0.07927923 0.07865836 0.07829934 0.07823102 0.07844144 0.07902499 0.07991098
 0.08055733 0.08033867 0.07933579 0.07836729 0.07808269 0.07833829 0.07858236 0.07849003 0.07806492 0.07751082
 0.07728058 0.07795341 0.07966559 0.08164257 0.08248063 0.08103625 0.07724435 0.07236778 0.06852646 0.06756286
 0.06974702 0.07340834 0.07618821 0.07692048 0.07618652 0.07511862 0.0741794 0.07331791 0.07276279 0.07305552
 0.07430583 0.07569719 0.07591363 0.07426666 0.07151553 0.06932536 0.06874727 0.06956251 0.07117991 0.07327843
 0.0748971 0.07391983 0.06916121 0.06299895 0.06030753 0.06381948 0.0712099 0.07737529 0.07897452 0.07629183
 0.07174583 0.06788871 0.06645396 0.06788854 0.07126332 0.07504506 0.07802773 0.07939176 0.07850316 0.0754647
 0.07165232 0.06904628 0.06901281 0.07176745 0.07633317 0.0806358 0.08244906 0.08103802 0.07764509 0.0741802
 0.07196742 0.07175422 0.07389676 0.07798339 0.08281428 0.08710033 0.08999006 0.09114937 0.09082729 0.08969902
 0.08835305 0.08719815 0.0868265 0.08764632 0.0889212 0.08905028 0.08731233 0.08482782 0.08340261 0.08365878
 0.08453999 0.0845982 0.08345939 0.08158651 0.07884784 0.07448789 0.06886524 0.06391693 0.06122195 0.06079619
 0.06224293 0.06537034 0.06884471 0.07012107 0.06823795 0.06558293 0.06552491 0.06882147 0.07323769 0.07626621
 0.0774428 0.07816085 0.07987966 0.08263227 0.08484483 0.08452421 0.08123545 0.07720888 0.07576267 0.07804523
 0.08193129 0.08463398 0.08564094 0.0864017 0.08779738 0.08877881 0.08746126 0.0833655 0.07862499 0.07666783
 0.07922583 0.08459591 0.08887874 0.08886829 0.0842085 0.07746311 0.07211649 0.07016636 0.07159613 0.07570355
 0.08186694 0.08884564 0.0944718 0.09687147 0.09583034 0.09266905 0.08873685 0.08416694 0.07860778 0.07331339
 0.07138367 0.07483131 0.08201009 0.08899292 0.09307361 0.09410763 0.0929823 0.08995292 0.08490214 0.07894988
 0.07497267 0.07536843 0.07916801 0.08259058 0.08300371 0.08132152 0.08004966 0.08016251 0.08074665 0.08092782
 0.08111297 0.08229177 0.08462073 0.08705005 0.08834388 0.08820675 0.08732882 0.08657996 0.08622029 0.08571371
 0.08447974 0.08305319 0.0830217 0.08529114 0.08884147 0.09177391 0.09321508 0.09363698 0.09359053 0.09273371
 0.09032936 0.08663797 0.08348228 0.08289311 0.08514623 0.08859483 0.09138224 0.09277183 0.09297067 0.0924645
 0.09168924 0.09088391 0.09016035 0.08981292 0.09024741 0.09140265 0.09261357 0.093278 0.09335449 0.09306839
 0.09247915 0.09155676 0.09048618 0.0896823 0.0894921 0.08993259 0.09073462 0.09158307 0.09223057 0.09246122
 0.09217042 0.09152089 0.09084064 0.09032468 0.08997683 0.08982203 0.08996677 0.09040181 0.09091207 0.0912616
 0.09137958 0.0913247 0.09115487 0.09088879 0.09055328 0.09022704 0.09003477 0.09006701 0.09027411 0.09049097
 0.09062175 0.09073488 0.09090297 0.09103116 0.09095854 0.09068294 0.09037833 0.09020738 0.09019311 0.09025595
 0.0902968 0.09021925 0.08993407 0.08943628 0.08889902 0.08860576 0.08872324 0.08917917 0.08977817 0.09035118
 0.0907758 0.09098005 0.09099669 0.09093419 0.09084667 0.09069012 0.09043007 0.0901459 0.09000518 0.09013468
 0.09050486 0.09094784 0.09129839 0.09149521 0.09156121 0.0915639 0.0916011 0.09172867 0.09187433 0.09190342
 0.09179276 0.09167236 0.09167513 0.09179226 0.09189495 0.09188187 0.09179353 0.09176982 0.09189481 0.09211436
 0.09231886 0.09246714 0.09260143 0.09276076 0.09290469 0.0929355 0.09281002 0.09261329 0.09248028 0.09245464
 0.09248036 0.09252399 0.09262799 0.09282075 0.0930365 0.09317189 0.09320174 0.0932007 0.09324422 0.09331368
 0.09332228 0.09322325 0.09306344 0.09293164 0.09288162 0.09290817 0.09296861 0.09301141 0.09300031 0.09293091
 0.09282824 0.09272186 0.09262367 0.0925402 0.09250522 0.0925705 0.09273755 0.09291081 0.09295566 0.0928188
 0.09258287 0.09239158 0.09231912 0.09231357 0.09226605 0.09212402 0.09192905 0.09175692 0.09164616 0.09158497
 0.09154177 0.09149706 0.09146487 0.09149545 0.09163341 0.09184806 0.09202318 0.09205148 0.0919394 0.09179419
 0.09171574 0.09172674 0.09179285 0.09187363 0.09195761 0.0920691 0.0922282 0.09239578 0.09249398 0.09249917
 0.09247831 0.09251864 0.09265864 0.09288758 0.09315635 0.09338 0.09349072 0.09351256 0.09354341 0.09364733
 0.09380049 0.09395114 0.09409093 0.0942456 0.09442778 0.09463084 0.09485871 0.09513342 0.09546715 0.0958368
 0.09618986 0.09647678 0.09669039 0.0968833 0.09713654 0.09749542 0.09793174 0.09836878 0.09874412 0.09905474
 0.09934582 0.09965552 0.09998052 0.1003081 0.1006628 0.1010847 0.1015661 0.1020491 0.1024907 0.1028993
 0.1033037 0.1037159 0.104134 0.1045647 0.1050289 0.1055408 0.1060761 0.1065706 0.1069689 0.1072787
 0.1075681 0.1079131 0.1083476 0.1088388 0.1092955 0.1096332 0.1098629 0.1100917 0.1104087 0.110789
 0.1111472 0.1114651 0.1118154 0.1122571 0.1127523 0.1132079 0.1135764 0.1138921 0.1142165 0.1145653
 0.114894 0.1151502 0.1153363 0.1155084 0.1157152 0.1159639 0.116259 0.1166339 0.1171055 0.1176174
 0.1180737 0.1184229 0.1186799 0.1188836 0.1190658 0.1192472 0.1194305 0.1196069 0.119781 0.1199681
 0.1201573 0.1203151 0.1204436 0.1205957 0.1208129 0.1210855 0.1213964 0.12176 0.122181 0.1226114
 0.123 0.1233713 0.1237979 0.124285 0.1247323 0.1250399 0.1252123 0.1253245 0.1254277 0.1255418
 0.1257103 0.1259911 0.1263876 0.1268362 0.1272747 0.1276908 0.1280972 0.1284897 0.1288402 0.129118
 0.1293095 0.1294253 0.1295007 0.1295893 0.1297468 0.1299991 0.1303176 0.1306353 0.1308944 0.1310636
 0.1311164 0.1310344 0.1308578 0.1306947 0.1306321 0.1306381 0.1305833 0.1303548 0.1299252 0.1293234
 0.1285809 0.1277265 0.126815 0.1259376 0.1251976 0.1246733 0.1244064 0.1244245 0.124755 0.1253911
 0.1262445 0.1271609 0.1279918 0.1286317 0.1289913 0.1289871 0.1285951 0.1278951 0.1270317 0.1261378
 0.125298 0.124547 0.1238753 0.1232639 0.1227568 0.1224958 0.1226617 0.123377 0.124655 0.1264017
 0.1284352 0.1305213 0.1324479 0.1341047 0.1355007 0.1367064 0.1377868 0.138788 0.1397488 0.1406844
 0.1415659 0.1423508 0.1430371 0.1436605 0.1442429 0.1447672 0.1451983 0.1455136 0.1457227 0.1458738
 0.1460228 0.1461824 0.146318 0.146405 0.1464649 0.1465272 0.1465741 0.1465403 0.1463601 0.1460138
 0.145556 0.1451285 0.1449476 0.1452434 0.1461543 0.1476381 0.1494868 0.1514427 0.1533059 0.1549488
 0.1562891 0.1573011 0.1580378 0.1586031 0.1590894 0.1595497 0.1600102 0.1604804 0.1609529 0.1614114
 0.1618459 0.1622628 0.1626821 0.1631196 0.1635645 0.1639837 0.1643579 0.1647101 0.1650909 0.1655299
 0.1660043 0.1664606 0.1668725 0.1672684 0.1676848 0.1681063 0.1684805 0.1687899 0.1690775 0.1694007
 0.1697859 0.1702227 0.1706703 0.1710717 0.1713922 0.1716514 0.1719035 0.1721862 0.1725015 0.1728352
 0.1731755 0.1735124 0.1738392 0.1741651 0.1745125 0.1748871 0.1752523 0.1755539 0.1757795 0.1759789
 0.1762156 0.1765057 0.1768111 0.1770867 0.1773294 0.1775838 0.1778985 0.1782754 0.1786623 0.1789977
 0.1792602 0.1794747 0.1796825 0.1799128 0.1801742 0.1804584 0.1807476 0.1810241 0.1812829 0.1815355
 0.1817992 0.182082 0.1823767 0.1826703 0.1829545 0.1832304 0.1835035 0.1837777 0.1840557 0.1843456
 0.1846585 0.1849914 0.1853177 0.1856049 0.1858426 0.1860474 0.1862427 0.1864429 0.1866547 0.1868841
 0.1871344 0.1874007 0.1876712 0.1879377 0.1882006 0.1884636 0.1887266 0.1889884 0.1892524 0.1895249
 0.1898061 0.1900879 0.1903605 0.1906197 0.1908672 0.1911083 0.1913501 0.1916005 0.1918641 0.192135
 0.192396 0.1926321 0.1928471 0.1930612 0.1932909 0.1935358 0.1937848 0.194029 0.1942668 0.1945022
 0.1947394 0.1949787 0.1952167 0.1954511 0.1956837 0.195919 0.1961593 0.1964022 0.1966429 0.1968795
 0.1971136 0.1973475 0.1975843 0.1978295 0.1980858 0.1983455 0.1985956 0.1988308 0.1990561 0.1992791
 0.1995037 0.1997301 0.1999589 0.2001913 0.2004254 0.2006558 0.2008813 0.2011096 0.2013469 0.2015892
 0.2018303 0.2020724 0.2023206 0.2025738 0.2028265 0.2030734 0.2033126 0.2035488 0.2037911 0.2040442
 0.2043046 0.2045671 0.2048277 0.2050792 0.2053134 0.2055259 0.2057202 0.2059079 0.2061038 0.2063121
 0.2065228 0.2067277 0.2069321 0.2071459 0.2073723 0.2076082 0.2078466 0.2080793 0.2083057 0.2085314
 0.2087581 0.2089826 0.2092064 0.2094333 0.2096623 0.2098925 0.2101248 0.210356 0.2105822 0.2108089
 0.2110439 0.2112846 0.2115236 0.2117596 0.2119958 0.212237 0.212487 0.21274 0.2129823 0.2132106
 0.2134362 0.2136663 0.2138993 0.2141342 0.2143684 0.214594 0.2148096 0.2150237 0.2152415 0.2154621
 0.2156868 0.2159165 0.2161473 0.2163814 0.2166242 0.2168708 0.2171099 0.2173396 0.2175638 0.2177869
 0.2180186 0.2182639 0.2185102 0.218746 0.2189775 0.21921 0.2194354 0.2196517 0.2198639 0.2200554
 0.2201665 0.2200498 0.2193543 0.2173973 0.2131462 0.2054229 0.1933787 0.1770387 0.1574833 0.1364599
 0.1157381 0.09665541 0.07999665 0.06610117 0.05503538 0.04670649 0.04093321 0.03755671 0.03655764 0.03818648
 0.04311131 0.05202295 0.06412188 0.07577431 0.08192597 0.08009671 0.07275403 0.06506135 0.06058386 0.0595674
 0.06048494 0.06203625 0.06380787 0.06603242 0.06911713 0.07318497 0.07804796 0.08369972 0.09055933 0.09893619
 0.1083845 0.1178886 0.1267381 0.1350861 0.143602 0.1526684 0.1619819 0.1708523 0.178751 0.1855741
 0.191538 0.1969381 0.2019819 0.2067656 0.2113312 0.2156668 0.2196145 0.2228342 0.2249634 0.225889
 0.2258834 0.2254588 0.2250665 0.2249126 0.2250047 0.2252946 0.2257503 0.226353 0.2270874 0.2279343
 0.2288597 0.2298226 0.2307913 0.2317428 0.2326523 0.2334986 0.234271 0.2349653 0.2355823 0.2361304
 0.2366244 0.2370806 0.2375147 0.2379348 0.2383366 0.2387118 0.2390611 0.239388 0.2396907 0.2399673
 0.2402221 0.2404584 0.2406753 0.2408756 0.2410691 0.241264 0.241463 0.2416676 0.2418775 0.2420897
 0.2423018 0.2425133 0.2427211 0.242917 0.2430961 0.2432641 0.2434334 0.2436109 0.2437907 0.2439626
 0.2441277 0.2442996 0.244488 0.2446877 0.2448865 0.2450785 0.2452673 0.245459 0.2456541 0.2458477
 0.2460408 0.2462474 0.2464772 0.2467176 0.2469445 0.2471467 0.2473291 0.2475017 0.2476799 0.2478777
 0.2480875 0.2482783 0.2484284 0.2485544 0.2487001 0.2488966 0.249133 0.2493672 0.2495708 0.2497548
 0.2499445 0.2501422 0.2503287 0.250489 0.2506312 0.2507892 0.2509986 0.2512554 0.2515171 0.2517554
 0.251981 0.2522115 0.25245 0.2526997 0.2529541 0.2531718 0.2533074 0.2533815 0.2534901 0.2537274
 0.2540966 0.2545007 0.2548326 0.2550696 0.2552665 0.2554827 0.2557426 0.2560187 0.2562069 0.2561966
 0.256041 0.2559904 0.256263 0.2568262 0.2574617 0.2579918 0.2583829 0.2586837 0.2589352 0.2591318
 0.2592284 0.2591916 0.2590805 0.2590732 0.2593445 0.2598816 0.2604793 0.2609514 0.2612745 0.261505
 0.2616749 0.2618024 0.2618552 0.2616763 0.2611494 0.2605175 0.2603276 0.2609006 0.2619678 0.2629583
 0.2635668 0.2639062 0.2641823 0.2644365 0.264618 0.2646309 0.2641954 0.263007 0.2613325 0.2601792
 0.2604621 0.2620793 0.2640799 0.2656141 0.2664729 0.2668794 0.2671116 0.2673117 0.2673807 0.2669992
 0.2659806 0.2647252 0.264117 0.2647109 0.2661123 0.2673997 0.2680637 0.2682797 0.2684205 0.2686395
 0.2687665 0.2682597 0.2665182 0.2637678 0.2615026 0.2614306 0.2638028 0.2671112 0.2695853 0.2707138
 0.2710962 0.2711343 0.270437 0.2685208 0.2655392 0.2622111 0.2595896 0.258913 0.2607839 0.2641506
 0.2669082 0.2679737 0.2682 0.2689795 0.2705863 0.2721897 0.272934 0.2726032 0.271466 0.2697949
 0.2677358 0.265758 0.2649229 0.266128 0.2690181 0.2721121 0.2741759 0.2751608 0.2755565 0.2749495
 0.2717342 0.2650466 0.2571738 0.2529165 0.255347 0.2625949 0.2698582 0.2741269 0.2758314 0.276577
 0.276995 0.2765752 0.2739733 0.2677489 0.2586395 0.2509851 0.2497901 0.2557696 0.2645335 0.2706828
 0.2714895 0.267178 0.2599419 0.2532836 0.2505891 0.2530841 0.2592983 0.2665104 0.2723769 0.2755794
 0.2758179 0.2736859 0.2706203 0.268545 0.2684762 0.269015 0.2674133 0.2630367 0.2584138 0.2555242
 0.2527471 0.2478736 0.2429662 0.2429843 0.2493322 0.2575022 0.2621372 0.2624521 0.2612552 0.2598466
 0.2558141 0.2465231 0.2341151 0.2255951 0.2267029 0.2359572 0.2459763 0.2506987 0.2501954 0.24851
 0.2482648 0.2479918 0.2442163 0.2359968 0.2272248 0.223359 0.2256282 0.2299332 0.2316998 0.2295327
 0.2236348 0.2143323 0.2046687 0.2013448 0.2090646 0.2247752 0.2400639 0.2480953 0.246121 0.2339586
 0.2149098 0.1977224 0.1923438 0.2010226 0.2155767 0.22492 0.2238661 0.214051 0.1991745 0.1824555
 0.1681078 0.1618212 0.1673499 0.1826851 0.2001358 0.2101867 0.2067628 0.1919289 0.1762439 0.1711746
 0.1786949 0.1899386 0.1951269 0.1924345 0.1866111 0.1828404 0.183731 0.1888878 0.1953471 0.2003464
 0.2035309 0.2038743 0.1967062 0.1793436 0.1586128 0.1463632 0.1471498 0.1558964 0.1673886 0.1809433
 0.194224 0.2000382 0.1944475 0.1842361 0.1811368 0.1893706 0.2020237 0.2094919 0.2089736 0.2049701
 0.2023149 0.2010271 0.1987155 0.1961397 0.197419 0.2043446 0.2132477 0.2190922 0.2207218 0.2204153
 0.2200327 0.2196102 0.2186602 0.2170094 0.2147208 0.2122217 0.2101739 0.2087283 0.2073935 0.2057931
 0.203654 0.1997159 0.1920149 0.18069 0.1697494 0.1639262 0.1636925 0.1655579 0.1672533 0.1690803
 0.169085 0.1616669 0.1449943 0.1271077 0.120076 0.128344 0.145428 0.1612773 0.1699009 0.1698559
 0.161324 0.1465271 0.1323802 0.1282963 0.138455 0.1577652 0.1773304 0.1921171 0.2014639 0.2048226
 0.2009715 0.1912279 0.1806737 0.1752589 0.1782143 0.1886172 0.2016401 0.2097469 0.206402 0.1926133
 0.1798454 0.1815371 0.1989477 0.2189865 0.2289173 0.2292555 0.2285318 0.2300487 0.2302775 0.2282017
 0.2290248 0.237037 0.2492918 0.2585029 0.2594376 0.2509812 0.2354326 0.2189798 0.2100842 0.21271
 0.2218197 0.2288475 0.2299867 0.2256939 0.2156181 0.2006628 0.1883165 0.1881613 0.2007558 0.2163526
 0.2259799 0.2296101 0.2321123 0.2348732 0.2341546 0.2268057 0.2155339 0.2072234 0.2061237 0.2101413
 0.2143857 0.2163297 0.2158592 0.2123686 0.2051337 0.1965233 0.1920284 0.1955193 0.2052635 0.2155575
 0.2218422 0.2235773 0.222888 0.2218231 0.2209507 0.2195338 0.2169614 0.2146115 0.2155822 0.2213236
 0.2292531 0.2353756 0.2388551 0.2422948 0.2476396 0.2534631 0.2566779 0.255906 0.2528169 0.2507102
 0.2518965 0.2558691 0.2596712 0.2604146 0.2580233 0.2555493 0.2563469 0.2608611 0.2665619 0.2708201
 0.2730576 0.2741955 0.2750969 0.2758337 0.275664 0.2736129 0.2698949 0.2667536 0.2668865 0.2707596
 0.2761374 0.2803608 0.2824724 0.2830803 0.2829234 0.2820981 0.2804678 0.2783479 0.2765269 0.2756515
 0.2757703 0.2764984 0.2774314 0.2783159 0.2790176 0.279508 0.2798414 0.280075 0.2802453 0.2804104
 0.2806166 0.2808104 0.2808888 0.2808779 0.2809635 0.2812775 0.2817186 0.2820544 0.2821324 0.2819009
 0.2812885 0.2802186 0.2787473 0.2770544 0.2752493 0.2733011 0.2712764 0.2696039 0.2689538 0.2697406
 0.2717404 0.2742278 0.2764753 0.2781131 0.2791192 0.2796339 0.2798361 0.2798929 0.2799132 0.2799171
 0.2798638 0.2797135 0.2794625 0.2791335 0.2787576 0.2783743 0.2780306 0.2777562 0.2775376 0.2773254
 0.277063 0.2767086 0.2762518 0.2757211 0.2751617 0.274587 0.2739558 0.2732034 0.2722998 0.2712823
 0.2702415 0.269267 0.2683883 0.2675582 0.2666996 0.265763 0.2647235 0.2635436 0.262202 0.2607737
 0.2594207 0.2582593 0.257269 0.2563473 0.255408 0.2544013 0.2532961 0.2520904 0.2508184 0.2495174
 0.2481933 0.2468271 0.2453991 0.2438971 0.2423114 0.2406386 0.2388898 0.2370876 0.2352499 0.2333757
 0.2314381 0.2293716 0.2270665 0.2243913 0.2212273 0.2174924 0.2131635 0.2083092 0.2030983 0.1977566
 0.1925044 0.1875165 0.182911 0.1787663 0.1751497 0.1721329 0.1697818 0.1681456 0.1672492 0.1670864
 0.1676246 0.1688221 0.1706246 0.1729342 0.1755976 0.1784318 0.181255 0.1839152 0.1863298 0.1885121
 0.1905423 0.1924935 0.1943759 0.19615 0.1977801 0.1992571 0.2005683 0.2016816 0.2025824 0.2033061
 0.2039059 0.204409 0.2048174 0.2051316 0.2053604 0.2055224 0.2056487 0.2057765 0.2059396 0.2061629
 0.2064557 0.2068092 0.2072137 0.2076722 0.2081905 0.2087642 0.2093807 0.2100225 0.2106752 0.2113426
 0.2120517 0.2128359 0.2137305 0.2147843 0.2160441 0.217516 0.2191583 0.2209118 0.2227163 0.2244959
 0.2261462 0.2275534 0.2286393 0.2293939 0.2298667 0.2301295 0.2302464 0.2302542 0.2301527 0.2299263
 0.2295829 0.2291548 0.2286599 0.2280918 0.2274473 0.2267409 0.225995 0.2252362 0.224489 0.223759
 0.2230333 0.2223059 0.2215859 0.2208813 0.2201896 0.2195048 0.2188267 0.2181637 0.217524 0.2168959
 0.2162482 0.2155515 0.2147858 0.2139279 0.2129583 0.2118823 0.2107208 0.209483 0.2081647 0.2067654
 0.2052913 0.2037516 0.2021565 0.2005115 0.1988126 0.1970505 0.1952058 0.1932466 0.1911572 0.1889827
 0.1868233 0.1847757 0.1828839 0.1811348 0.1794877 0.1779117 0.1764012 0.1749557 0.1735638 0.1722194
 0.1709367 0.1697341 0.1686133 0.1675627 0.1665751 0.16566 0.1648397 0.164125 0.1634992 0.1629404
 0.1624488 0.1620352 0.1617022 0.1614577 0.1613195 0.1612789 0.1612768 0.1612394 0.1611281 0.1609499
 0.1607376 0.1605247 0.1603289 0.1601549 0.1600026 0.1598509 0.159632 0.1592402 0.1585693 0.1575514
 0.1561831 0.1545305 0.1526992 0.1507977 0.1489286 0.1471888 0.1456556 0.1443788 0.143381 0.142641
 0.1420864 0.141638 0.1412693 0.1410188 0.1409433 0.141043 0.1412112 0.1412925 0.141232 0.141148
 0.1412274 0.1415736 0.1421567 0.1428567 0.1435358 0.1441051 0.1445411 0.1448451 0.1450192 0.1450833
 0.1450659 0.144973 0.1448008 0.1445628 0.1442732 0.1439269 0.1435129 0.1430229 0.1424483 0.1417987
 0.1411001 0.1403526 0.1395276 0.1386066 0.1375743 0.1364054 0.1351463 0.1339926 0.1332128 0.1329893
 0.1333314 0.1340844 0.1350303 0.1360221 0.1369735 0.1377041 0.137982 0.1378838 0.1379811 0.1389305
 0.1408423 0.1431595 0.1451604 0.1464738 0.1471018 0.1471362 0.1466234 0.1456092 0.1441226 0.1421449
 0.1396981 0.1369004 0.1338845 0.1307817 0.1277938 0.1251274 0.1228689 0.1210158 0.1195552 0.1185339
 0.1180847 0.1178309 0.115917 0.1099964 0.100857 0.0940199 0.09510042 0.1034918 0.1127874 0.1175501
 0.1176407 0.1159604 0.1145 0.1135538 0.1130207 0.1130495 0.1137844 0.1150993 0.1165995 0.1178582
 0.1186923 0.1191324 0.1191329 0.1183556 0.1161146 0.1115865 0.1044698 0.09560423 0.0866991 0.07932027
 0.07417819 0.07115292 0.06963715 0.06888858 0.06839417 0.06810083 0.0683075 0.06931897 0.07119355 0.07378201
 0.0768902 0.08026938 0.08351299 0.0862101 0.08826591 0.08989301 0.09124931 0.09225299 0.09276636 0.09278795
 0.09242916 0.09182248 0.09108517 0.09029245 0.08943212 0.08841417 0.08720815 0.0860004 0.08511735 0.08472172
 0.08466987 0.0847168 0.08474216 0.08473381 0.08469367 0.08462714 0.08455135 0.08450653 0.08459014 0.0849027
 0.08540827 0.08592572 0.08629219 0.08648358 0.08657714 0.08661249 0.08647007 0.08596793 0.08517284 0.08444878
 0.08398864 0.08347435 0.08249761 0.08120082 0.08019633 0.07989354 0.08014082 0.08049622 0.08063592 0.0804941
 0.08022138 0.08011465 0.08043066 0.08108826</values></Ydata></ScSm><ScRf><Ydata ylabel="Single channel"><values byteorder="INTEL" format="FLOAT32" numvalues="1820"> 0.06076928 0.06092181 0.06101825 0.06105443 0.0610517 0.0610569 0.06112178 0.06126915 0.06147475 0.06167861
 0.06182297 0.06188963 0.06189525 0.06185496 0.06177997 0.06171614 0.06174062 0.06188945 0.06210428 0.06227033
 0.06231041 0.0622541 0.06221829 0.06229014 0.0624076 0.06238054 0.06206936 0.06154592 0.061047 0.06075811
 0.06069913 0.06086086 0.06132027 0.06202468 0.06254817 0.06239434 0.06161816 0.06085658 0.06062085 0.06080464
 0.06098139 0.06090013 0.06056456 0.06013229 0.0599543 0.06048131 0.06181975 0.06336535 0.06402081 0.06288835
 0.05991141 0.05607767 0.0530541 0.0522921 0.054005 0.05687964 0.05906203 0.05963372 0.05905092 0.05820915
 0.05747907 0.05681681 0.05638723 0.0566063 0.05756677 0.05864124 0.05880361 0.05751122 0.05535468 0.0536376
 0.05318439 0.05382385 0.05509088 0.05673207 0.05799742 0.05723647 0.05352276 0.04870963 0.04660446 0.04934979
 0.05513591 0.05996771 0.06121756 0.05910311 0.05553179 0.05251831 0.05141672 0.05255609 0.05519306 0.05813033
 0.06043833 0.06148773 0.06078715 0.05841698 0.05544953 0.05342468 0.05340082 0.05554418 0.05910004 0.06245877
 0.06388161 0.06278454 0.06013081 0.05741548 0.05567902 0.05550583 0.05717354 0.06036679 0.06415561 0.06752862
 0.06980511 0.07071302 0.07045221 0.06956665 0.06852786 0.06765141 0.0673838 0.06802976 0.06901357 0.06909617
 0.06772513 0.0657768 0.06465612 0.06484595 0.06552339 0.06555954 0.0646622 0.06319457 0.06105778 0.05766189
 0.05328031 0.04941912 0.04731059 0.04697258 0.04810568 0.05057129 0.05332885 0.05437366 0.05292954 0.05084889
 0.05077307 0.05331584 0.05674792 0.0591129 0.06004072 0.06061281 0.06196751 0.06413177 0.0658742 0.06563108
 0.06305675 0.05989749 0.05875909 0.0605495 0.06360642 0.06574513 0.0665651 0.06720335 0.06834432 0.06915383
 0.06814973 0.06496485 0.06128259 0.05978906 0.06182994 0.06606308 0.06943624 0.06944296 0.06580455 0.06052867
 0.0563482 0.05483422 0.05598185 0.05925247 0.06416967 0.06976183 0.07431431 0.07632753 0.07560118 0.07315986
 0.07007875 0.06648366 0.06210543 0.05793875 0.05645252 0.0592631 0.06507085 0.0707406 0.07409553 0.07500482
 0.07417448 0.0718116 0.06782199 0.06310594 0.05998611 0.06040487 0.06358021 0.06644691 0.06686534 0.06557481
 0.06461427 0.06478205 0.06533772 0.06557067 0.06581862 0.06689705 0.06893371 0.07105825 0.07224108 0.07222743
 0.07158728 0.07105356 0.07085411 0.07054348 0.06963461 0.06857444 0.06868698 0.07071806 0.07380211 0.07634765
 0.07763237 0.0780662 0.07812215 0.07751289 0.07560707 0.07261121 0.07005967 0.06967728 0.07170998 0.07476619
 0.07726347 0.07856926 0.07886121 0.07855707 0.07802837 0.07747816 0.07700157 0.07684461 0.0773444 0.07844601
 0.07959075 0.08027679 0.08047012 0.08034915 0.07994899 0.07924637 0.07842049 0.07784399 0.07781205 0.07832605
 0.07914785 0.08001001 0.0807029 0.08103295 0.08089571 0.08042882 0.07993257 0.07959533 0.07942268 0.07942611
 0.07969198 0.08021049 0.08078605 0.08120028 0.08138929 0.08141775 0.08135185 0.08121123 0.08101273 0.08082236
 0.08075367 0.08088487 0.0811611 0.08143319 0.08163276 0.08183967 0.08211432 0.08234582 0.08236872 0.08218433
 0.08196908 0.08188254 0.0819401 0.08205943 0.08215272 0.0821448 0.08196223 0.08159653 0.08119457 0.08100656
 0.08118874 0.08169186 0.08234818 0.08299001 0.08347771 0.08373077 0.08378869 0.08376893 0.08373006 0.08362981
 0.08343179 0.08320716 0.08311328 0.08327525 0.08367547 0.08415952 0.08456065 0.08480461 0.08491056 0.08495701
 0.08504923 0.08523382 0.08542357 0.08548146 0.08539629 0.08530767 0.08534073 0.08546905 0.08556019 0.08552976
 0.08543471 0.08541422 0.0855445 0.08577032 0.08598508 0.08615099 0.08631846 0.08653519 0.08675185 0.08684002
 0.08672932 0.08650821 0.08634031 0.08629198 0.0863076 0.08634712 0.0864566 0.08666915 0.08690819 0.08705153
 0.08706841 0.08704507 0.08707061 0.08713056 0.08713187 0.08701639 0.08682451 0.086654 0.08658141 0.08662082
 0.08672643 0.08682017 0.08683582 0.08676007 0.08663426 0.08651179 0.08641906 0.08636734 0.08639151 0.08653893
 0.08679354 0.08703022 0.08708923 0.08691913 0.08663592 0.08642304 0.08636674 0.08639065 0.08634844 0.08616795
 0.08589962 0.08564298 0.08545388 0.08532343 0.08521761 0.08512034 0.08505335 0.08506726 0.08519104 0.08536692
 0.08545759 0.08535874 0.08510264 0.08482441 0.08463654 0.08456025 0.08455299 0.08456142 0.08456191 0.08458063
 0.0846545 0.08475612 0.08479787 0.08473532 0.08462672 0.0845705 0.08462515 0.08479354 0.08502291 0.08520528
 0.08524266 0.0851444 0.0850216 0.0849701 0.08499494 0.08505423 0.08512886 0.08522341 0.08533271 0.08544382
 0.08556542 0.08572999 0.08595864 0.08622874 0.08647916 0.08665166 0.08674006 0.08680758 0.08694606 0.08720294
 0.0875424 0.08787802 0.08814414 0.08834049 0.0885133 0.08869793 0.08889011 0.0890796 0.08929118 0.08956243
 0.08988927 0.09022478 0.09053227 0.0908149 0.09109353 0.09137944 0.09167479 0.0919892 0.09234807 0.09276983
 0.09322067 0.09360746 0.09384987 0.09396435 0.09405985 0.09425309 0.09458725 0.0950018 0.09536383 0.09556803
 0.0956414 0.09572345 0.09591404 0.09617393 0.09641132 0.09662799 0.09691864 0.09733351 0.09779753 0.09818296
 0.09843354 0.098601 0.09877291 0.09897807 0.0991663 0.09928116 0.0993382 0.09940881 0.09953593 0.09970762
 0.09992088 0.1002173 0.1006186 0.1010633 0.1014514 0.1017331 0.1019254 0.1020655 0.102179 0.1022729
 0.1023358 0.1023615 0.1023833 0.1024521 0.1025653 0.1026586 0.1026902 0.1026979 0.1027507 0.1028804
 0.1030855 0.1033618 0.1036875 0.1040047 0.1042707 0.1045247 0.1048474 0.1052379 0.105579 0.1057607
 0.1058015 0.1058014 0.1058141 0.1058311 0.105871 0.106002 0.1062594 0.1065974 0.1069461 0.1072818
 0.1076217 0.1079729 0.1083018 0.1085473 0.1086648 0.1086666 0.108623 0.1086237 0.1087351 0.1089752
 0.1093049 0.1096476 0.1099333 0.1101264 0.1102129 0.110193 0.1101149 0.1100831 0.1101807 0.1103735
 0.1105248 0.1105119 0.1103047 0.1099341 0.1094258 0.1087961 0.1080948 0.1074181 0.1068643 0.106482
 0.1062718 0.1062396 0.1064273 0.1068655 0.1075018 0.1082074 0.1088591 0.1093795 0.109696 0.1097192
 0.1094056 0.1088168 0.1080845 0.1073302 0.1066274 0.1059994 0.1054214 0.1048571 0.1043409 0.1040176
 0.1040751 0.1046316 0.1056776 0.1070834 0.1086378 0.1101115 0.1113465 0.1123167 0.1131035 0.1138068
 0.1144807 0.1151432 0.1158107 0.1164859 0.11713 0.1176884 0.1181523 0.1185668 0.1189737 0.1193715
 0.1197288 0.1200182 0.1202412 0.1204346 0.1206342 0.1208203 0.1209228 0.120902 0.1207986 0.120681
 0.1205661 0.120409 0.1201531 0.1197768 0.119322 0.1189118 0.1187325 0.1189577 0.1196479 0.1207111
 0.1219714 0.123282 0.1245609 0.1257323 0.126692 0.1273703 0.1278028 0.1281029 0.1283722 0.1286562
 0.1289601 0.1292726 0.129578 0.1298658 0.1301402 0.1304201 0.1307304 0.1310801 0.1314424 0.1317663
 0.1320227 0.1322407 0.1324891 0.1328149 0.1331982 0.1335745 0.133906 0.1342168 0.1345395 0.1348504
 0.1350949 0.1352681 0.1354311 0.1356483 0.1359427 0.1363007 0.1366796 0.137014 0.1372567 0.1374235
 0.1375769 0.1377634 0.1379859 0.1382279 0.1384798 0.1387368 0.1389932 0.1392518 0.1395301 0.139838
 0.1401473 0.1404027 0.1405764 0.1407042 0.1408526 0.1410545 0.1412873 0.141508 0.1417044 0.1419098
 0.1421692 0.1424866 0.1428095 0.1430714 0.1432471 0.1433652 0.1434758 0.1436145 0.1437925 0.1440033
 0.1442308 0.1444555 0.1446649 0.1448628 0.1450642 0.1452777 0.145496 0.1457074 0.145912 0.1461212
 0.146341 0.146563 0.1467784 0.1469981 0.1472479 0.1475334 0.1478215 0.1480667 0.1482522 0.1483956
 0.1485236 0.1486566 0.1488086 0.1489852 0.1491776 0.1493709 0.1495588 0.1497483 0.1499494 0.1501643
 0.1503865 0.1506083 0.1508246 0.151035 0.1512443 0.1514618 0.1516927 0.1519293 0.1521556 0.1523633
 0.1525574 0.1527496 0.152948 0.1531495 0.1533432 0.1535226 0.1536961 0.1538783 0.1540734 0.1542707
 0.1544586 0.1546367 0.1548156 0.1550059 0.1552093 0.1554202 0.1556321 0.1558418 0.156046 0.1562421
 0.1564322 0.1566213 0.1568119 0.1570037 0.1571982 0.1573973 0.1576008 0.1578068 0.158014 0.1582198
 0.1584194 0.1586083 0.1587866 0.1589618 0.1591451 0.1593446 0.1595594 0.1597802 0.1599938 0.1601915
 0.1603769 0.1605625 0.1607567 0.1609602 0.1611733 0.1613962 0.161622 0.1618405 0.1620513 0.1622625
 0.1624778 0.1626927 0.1629023 0.1631081 0.1633154 0.1635286 0.1637451 0.1639573 0.1641601 0.1643538
 0.1645395 0.1647193 0.1648994 0.1650841 0.1652704 0.1654547 0.1656395 0.1658287 0.1660194 0.1662059
 0.166387 0.1665693 0.1667631 0.16697 0.1671785 0.1673769 0.1675671 0.1677585 0.167956 0.1681605
 0.1683711 0.168583 0.1687908 0.1689948 0.1691985 0.169404 0.1696143 0.1698303 0.1700458 0.1702545
 0.1704603 0.1706699 0.1708853 0.1711078 0.1713371 0.1715632 0.1717742 0.1719722 0.1721696 0.1723734
 0.1725816 0.1727885 0.1729888 0.1731837 0.1733823 0.1735899 0.1738037 0.1740232 0.1742503 0.1744785
 0.1746992 0.1749134 0.1751252 0.1753348 0.1755445 0.1757575 0.1759696 0.1761768 0.176384 0.1765942
 0.1768042 0.1770149 0.1772259 0.1774164 0.177538 0.1774802 0.1769655 0.175433 0.172027 0.1657816
 0.1560177 0.1427751 0.1269396 0.1099227 0.0931506 0.07770603 0.06422721 0.05298862 0.04404 0.03730155
 0.03262524 0.02988584 0.02907342 0.03039529 0.03439382 0.0416268 0.05144331 0.06089846 0.06589958 0.06443827
 0.05850909 0.0522894 0.04866862 0.04785443 0.0486151 0.0498911 0.05133618 0.05313719 0.05563606 0.05894672
 0.06292179 0.06755166 0.0731689 0.0800195 0.08773984 0.09550414 0.1027339 0.1095556 0.1165212 0.1239477
 0.1315846 0.1388619 0.1453442 0.1509471 0.1558481 0.1602898 0.1644439 0.1683895 0.1721589 0.1757418
 0.1790126 0.1816968 0.1834981 0.1843181 0.1843704 0.1840674 0.1837795 0.1836824 0.183788 0.1840578
 0.1844644 0.1849956 0.1856442 0.186393 0.1872037 0.188033 0.1888582 0.1896733 0.1904657 0.1912133
 0.1918989 0.1925203 0.1930867 0.1936063 0.194078 0.1945009 0.1948899 0.1952672 0.1956399 0.1960002
 0.1963415 0.1966623 0.1969584 0.197226 0.1974697 0.1977003 0.1979271 0.1981526 0.1983708 0.1985742
 0.1987651 0.1989543 0.1991502 0.1993551 0.1995688 0.1997865 0.1999977 0.2001967 0.2003886 0.2005785
 0.2007643 0.2009447 0.2011255 0.2013139 0.2015108 0.2017136 0.2019204 0.2021271 0.2023273 0.2025188
 0.2027092 0.2029102 0.2031228 0.2033333 0.2035306 0.2037212 0.2039186 0.2041244 0.2043312 0.2045371
 0.2047447 0.2049553 0.2051718 0.2053953 0.2056108 0.2057936 0.2059398 0.2060797 0.2062514 0.2064664
 0.2067032 0.2069297 0.2071332 0.2073269 0.2075267 0.2077304 0.2079228 0.2080953 0.2082566 0.2084349
 0.2086585 0.2089236 0.209194 0.2094426 0.2096735 0.2098995 0.210124 0.210351 0.21058 0.2107865
 0.2109405 0.2110552 0.2112008 0.2114513 0.2118115 0.2122022 0.2125315 0.2127789 0.2129923 0.2132252
 0.213498 0.2137815 0.2139811 0.2140017 0.2138961 0.2138885 0.2141711 0.21471 0.2153036 0.2157873
 0.2161356 0.2164093 0.2166624 0.2168915 0.2170429 0.217074 0.217033 0.2170738 0.217347 0.217844
 0.2183902 0.2188221 0.2191189 0.2193419 0.2195344 0.2197103 0.2198244 0.2197312 0.2193363 0.2188556
 0.2187552 0.2193019 0.2202628 0.2211536 0.2217152 0.2220424 0.2223139 0.2225754 0.222791 0.2228754
 0.2225842 0.2216583 0.2203239 0.2194279 0.2197331 0.2211477 0.2228748 0.2242104 0.2249874 0.2253922
 0.2256537 0.2258897 0.2260149 0.225755 0.2249491 0.2239407 0.2234867 0.2240621 0.2253294 0.2265018
 0.2271482 0.2274221 0.2276374 0.2279136 0.2280984 0.2277314 0.2263039 0.2240138 0.2221434 0.2221544
 0.2242569 0.2271562 0.2293376 0.2303673 0.2307623 0.2308671 0.2303399 0.2287587 0.2262581 0.2234646
 0.2212842 0.2207728 0.2224459 0.2254107 0.2278697 0.2288926 0.2292012 0.2299777 0.2314507 0.232909
 0.2336209 0.2333977 0.2324677 0.2310735 0.2293582 0.2277388 0.2271286 0.2282887 0.2308985 0.2336691
 0.2355279 0.2364324 0.2368217 0.2363638 0.2336831 0.2280197 0.2213288 0.2177532 0.2199598 0.2263414
 0.2327389 0.2365344 0.2380949 0.2388209 0.2392721 0.2390065 0.2368468 0.2315332 0.2237088 0.2171559
 0.2162319 0.2215537 0.2292951 0.2347583 0.2355699 0.231921 0.2257198 0.2200215 0.2177771 0.2200493
 0.2255581 0.2319443 0.2371778 0.2401121 0.2404756 0.2387645 0.2362142 0.2345053 0.2345434 0.2351217
 0.2338414 0.2301464 0.2262457 0.2238652 0.2215737 0.2174287 0.2132491 0.2134142 0.2191786 0.2265745
 0.2308668 0.2313488 0.2304915 0.2294356 0.2260367 0.2179527 0.207084 0.199665 0.200818 0.209235
 0.2183411 0.2227311 0.2224691 0.2211668 0.2211707 0.221165 0.2180213 0.2108787 0.203236 0.2000178
 0.2023398 0.2065116 0.2084093 0.2067647 0.2017438 0.1936365 0.1852095 0.1825526 0.1899543 0.2046642
 0.2190391 0.2268273 0.2254647 0.214726 0.1976211 0.1822293 0.1777726 0.1863578 0.2004136 0.2096506
 0.2092281 0.2006274 0.187261 0.1721378 0.1592613 0.1540719 0.1601984 0.175773 0.1934325 0.2039581
 0.2013769 0.1876387 0.1730739 0.1689674 0.1772582 0.1891647 0.195 0.1929587 0.187764 0.1846082
 0.1861577 0.1920389 0.1992327 0.2049262 0.2087577 0.2096157 0.2026126 0.1849577 0.1637252 0.1511872
 0.1520706 0.1611486 0.1730559 0.1871024 0.200859 0.2068547 0.2010015 0.1903346 0.1870128 0.1954058
 0.2083606 0.2159544 0.2153162 0.2111346 0.2084311 0.2072219 0.2050222 0.2026314 0.2043431 0.212023
 0.2218579 0.2286132 0.2310804 0.2316156 0.2321431 0.2326884 0.2327226 0.2320442 0.2307102 0.2291727
 0.2281387 0.2277738 0.2275493 0.2270517 0.2259598 0.2228107 0.2153125 0.2035622 0.192094 0.1862835
 0.1866461 0.1892067 0.1914118 0.1936165 0.1935746 0.1848936 0.1654808 0.1444666 0.1355591 0.1437987
 0.1618075 0.1782 0.1863011 0.1847106 0.1739063 0.1564623 0.1397673 0.1336949 0.14255 0.1609445
 0.1795575 0.1931566 0.20118 0.2032928 0.1984149 0.1878813 0.1766915 0.1706507 0.1728497 0.1823156
 0.1943206 0.2015804 0.197827 0.1840499 0.1712369 0.1722532 0.1883409 0.2070444 0.2162157 0.2163131
 0.2154399 0.2167427 0.2168672 0.2148365 0.2155902 0.2232259 0.2349858 0.2439801 0.2452379 0.2376747
 0.2234516 0.2084594 0.2007776 0.2041645 0.21372 0.2211521 0.2227648 0.2189825 0.2094783 0.1952088
 0.1835612 0.1839115 0.1967669 0.2125547 0.2224967 0.226602 0.2296653 0.2330125 0.2328922 0.2261568
 0.2155213 0.2078906 0.2075385 0.2123754 0.2174936 0.2203426 0.2207684 0.2180825 0.2114841 0.203389
 0.1994739 0.2037475 0.2143741 0.2253508 0.2318498 0.2332418 0.2317095 0.2294098 0.2270132 0.2238693
 0.2194514 0.2152284 0.2143729 0.2183712 0.2246609 0.229271 0.2313685 0.2335259 0.2376836 0.2424861
 0.2449362 0.2436615 0.2402149 0.2377184 0.238356 0.241641 0.244781 0.2450609 0.2424202 0.2397482
 0.2402262 0.2442963 0.2495883 0.2536198 0.2558264 0.2570568 0.2581139 0.2590407 0.2590807 0.2572522
 0.2537337 0.2506595 0.2506059 0.2540436 0.2588962 0.2626874 0.264542 0.265052 0.2649193 0.2642255
 0.2628215 0.2609785 0.2594184 0.2587463 0.2590126 0.2598441 0.26083 0.2617118 0.2623749 0.2628235
 0.2631284 0.2633368 0.2634577 0.2635298 0.2636075 0.2636634 0.2636116 0.2634757 0.2634369 0.2636335
 0.2639772 0.2642446 0.2642885 0.2640647 0.263512 0.2625596 0.2612611 0.2597882 0.2582398 0.256573
 0.2548368 0.2534328 0.2529968 0.2539171 0.255968 0.2584422 0.2606341 0.2621959 0.2631323 0.2636066
 0.2638028 0.2638753 0.2639123 0.2639124 0.2638194 0.2635966 0.2632689 0.2628969 0.2625253 0.2621672
 0.2618286 0.2615193 0.261232 0.2609295 0.26057 0.2601385 0.2596524 0.2591422 0.2586262 0.2580884
 0.2574788 0.2567449 0.2558711 0.2548993 0.2539167 0.2530118 0.2522134 0.2514703 0.2507057 0.2498793
 0.2489771 0.247969 0.2468368 0.2456531 0.2445748 0.2437176 0.2430546 0.2424556 0.2417994 0.2410302
 0.2401414 0.2391554 0.2381137 0.2370538 0.2359842 0.234886 0.2337268 0.2324729 0.2311081 0.2296475
 0.228123 0.2265572 0.2249609 0.2233407 0.2216781 0.2199042 0.2179112 0.2155825 0.2128067 0.2094889
 0.2055888 0.2011638 0.196372 0.1914233 0.1865164 0.1818119 0.177446 0.1735416 0.1701924 0.1674517
 0.1653492 0.1639103 0.1631569 0.1631073 0.1637735 0.1651386 0.1671266 0.1696044 0.1724135 0.1753938
 0.1783869 0.1812418 0.1838511 0.1862007 0.1883693 0.1904456 0.1924402 0.1942898 0.1959343 0.1973586
 0.1985716 0.1995832 0.200413 0.2010976 0.2016779 0.2021819 0.2026219 0.2030038 0.2033318 0.2036058
 0.2038244 0.2039994 0.2041613 0.2043413 0.2045518 0.2047929 0.2050677 0.2053903 0.2057796 0.206244
 0.206766 0.2073127 0.2078681 0.2084442 0.209056 0.2097042 0.2103959 0.2111703 0.2120867 0.213185
 0.2144578 0.2158513 0.2172816 0.2186489 0.2198577 0.2208413 0.221574 0.2220611 0.2223283 0.2224173
 0.2223687 0.2221972 0.2219002 0.2214925 0.2210133 0.2204943 0.2199413 0.2193496 0.2187172 0.2180401
 0.2173171 0.2165669 0.215824 0.2151108 0.2144243 0.213758 0.2131235 0.2125365 0.2119902 0.2114557
 0.2109052 0.2103285 0.2097334 0.2091409 0.2085692 0.2080075 0.2074066 0.2067069 0.2058785 0.2049318
 0.2038921 0.2027722 0.2015721 0.2002936 0.1989419 0.1975124 0.1959905 0.1943751 0.192692 0.1909701
 0.1891977 0.1873266 0.1853361 0.1832876 0.1812954 0.179444 0.1777471 0.1761751 0.1746964 0.1732917
 0.1719507 0.1706634 0.1694181 0.1682141 0.1670722 0.1660167 0.1650464 0.1641364 0.1632664 0.1624415
 0.1616864 0.1610247 0.1604619 0.1599874 0.1595867 0.1592486 0.1589749 0.1587934 0.1587388 0.1587976
 0.1588909 0.1589269 0.1588646 0.1587274 0.1585754 0.1584596 0.1583861 0.1583283 0.1582682 0.1581987
 0.1580745 0.1577925 0.1572354 0.1563315 0.155084 0.1535533 0.1518222 0.1499859 0.1481673 0.1464972
 0.1450605 0.1438864 0.1429808 0.1423219 0.1418357 0.1414355 0.1410946 0.1408637 0.1408203 0.1409857
 0.1412619 0.1414769 0.1415456 0.1415656 0.1417263 0.1421484 0.1428144 0.1436 0.1443574 0.1450026
 0.1455259 0.1459255 0.1461848 0.1463135 0.1463459 0.1462945 0.1461525 0.1459275 0.1456393 0.1453098
 0.1449585 0.1445763 0.1441193 0.1435609 0.1429144 0.1421897 0.1413783 0.1404763 0.1394629 0.138303
 0.1370535 0.135929 0.1351988 0.1350326 0.1354283 0.1362233 0.1372031 0.138245 0.1392834 0.1401256
 0.1405116 0.1405064 0.140688 0.1417277 0.1437489 0.1461897 0.1483077 0.1497263 0.1504602 0.1506066
 0.1502099 0.1493147 0.1479267 0.1459801 0.1434871 0.1406124 0.1375264 0.1343527 0.131283 0.1285378
 0.126225 0.1243603 0.1229375 0.1219884 0.1216289 0.121469 0.1195927 0.1135625 0.1041927 0.09720953
 0.09842021 0.1071778 0.1168514 0.1218261 0.1219612 0.1202602 0.1187844 0.1178227 0.1172552 0.117251
 0.1179796 0.1192988 0.1207769 0.1219726 0.12272 0.1230846 0.1230447 0.1222356 0.1199017 0.1151742
 0.1077689 0.09857492 0.089348 0.08169066 0.07633196 0.07315013 0.07153133 0.0707268 0.07021219 0.06992902
 0.0701758 0.07123773 0.0731476 0.07576823 0.07894198 0.08242643 0.08579314 0.08862143 0.09081559 0.09257394
 0.09403918 0.09512621 0.09569314 0.09572972 0.09534504 0.09468229 0.09388693 0.09306634 0.09220485 0.09117384
 0.08993332 0.08870836 0.08784203 0.08745834 0.08738213 0.08738745 0.08738658 0.08737333 0.08733223 0.08725115
 0.08715272 0.08710255 0.08720329 0.08752613 0.08801736 0.08851244 0.08885658 0.08900584 0.08902899 0.08898559
 0.08877596 0.08822566 0.08740506 0.08667515 0.08622046 0.08571947 0.08475716 0.08345708 0.08242268 0.08207859
 0.08228713 0.08260231 0.08269892 0.08252804 0.08225961 0.08219012 0.0825512 0.08322963 0.08375522 0.08373182
</values></Ydata></ScRf><Data_Parameters_AB><parameter name="DPF">1</parameter><parameter name="NPT">3497</parameter><parameter name="FXV">3996</parameter><parameter name="LXV">500</parameter><parameter name="CSF">1</parameter><parameter name="MXY">0.0588513985276222</parameter><parameter name="MNY">-0.112030260264874</parameter><parameter name="DAT">31/05/2022</parameter><parameter name="TIM">14:21:12.469 (GMT+2)</parameter><parameter name="DXU">WN</parameter></Data_Parameters_AB><AB__Qtest><MainReport name="Quality Test Report"><Header><Line><Legend>Test result ok/not ok [1/0]: </Legend><Value>0</Value></Line><Line><Legend>Method file: </Legend><Value>C:\Users\Public\Documents\Bruker\OPUS_8.2.28\QT\IRBT_v3_default.QT</Value></Line></Header><Matrix><Line><Legend></Legend><Legend>min</Legend><Legend>max</Legend><Legend>measured</Legend></Line><Line><Value>Absorption (X-Range 1):</Value><Value>0.400000</Value><Value>2.000000</Value><Value>0.107601</Value></Line><Line><Value>Noise (X-Range 4):</Value><Value></Value><Value>0.000300</Value><Value>0.000051</Value></Line><Line><Value>Signal/Noise (X-Range 2):</Value><Value>200.000000</Value><Value></Value><Value>24.963476</Value></Line><Line><Value>Signal/Noise (X-Range 3):</Value><Value>40.000000</Value><Value></Value><Value>13.283812</Value></Line><Line><Value>Water vapour (X-Range 5):</Value><Value></Value><Value>0.000300</Value><Value>0.000059</Value></Line><Line><Value>Signal/Water (X-Range 2):</Value><Value>100.000000</Value><Value></Value><Value>21.731828</Value></Line><Line><Value>Signal/Water (X-Range 3):</Value><Value>20.000000</Value><Value></Value><Value>11.564155</Value></Line><Line><Value>Fringes (X-Range 6):</Value><Value></Value><Value>0.000100</Value><Value>0.000060</Value></Line></Matrix></MainReport></AB__Qtest><Data_Parameters_ScSm><parameter name="DPF">1</parameter><parameter name="NPT">1814</parameter><parameter name="FXV">3996.33169228125</parameter><parameter name="LXV">499.541461535156</parameter><parameter name="CSF">1</parameter><parameter name="MXY">0.283080339431763</parameter><parameter name="MNY">0.036557637155056</parameter><parameter name="DAT">31/05/2022</parameter><parameter name="TIM">14:21:12.469 (GMT+2)</parameter><parameter name="DXU">WN</parameter></Data_Parameters_ScSm><Data_Parameters_ScRf><parameter name="DPF">1</parameter><parameter name="NPT">1820</parameter><parameter name="FXV">4004.04661832813</parameter><parameter name="LXV">495.683998511719</parameter><parameter name="CSF">1</parameter><parameter name="MXY">0.265051960945129</parameter><parameter name="MNY">0.0290734153240919</parameter><parameter name="DAT">31/05/2022</parameter><parameter name="TIM">14:20:46.210 (GMT+2)</parameter><parameter name="DXU">WN</parameter></Data_Parameters_ScRf><Optic_Parameters_Rf><parameter name="APR">0</parameter><parameter name="APT">Open</parameter><parameter name="BMS">KBr</parameter><parameter name="DTC">RT-DLaTGS_IR-Biotyper [Microplate reader]</parameter><parameter name="HPF">0</parameter><parameter name="LPF">10.0</parameter><parameter name="LPV">4000</parameter><parameter name="PGR">0</parameter><parameter name="RCH">Module port</parameter><parameter name="RDX">0</parameter><parameter name="SRC">MIR</parameter><parameter name="VEL">10.0</parameter><parameter name="SON">Off</parameter></Optic_Parameters_Rf><Acquisition_Parameters_Rf><parameter name="ADT">1</parameter><parameter name="AQM">DD</parameter><parameter name="CFE">0</parameter><parameter name="COR">0</parameter><parameter name="DEL">0</parameter><parameter name="DLY">0</parameter><parameter name="HFW">8000</parameter><parameter name="LFW">0</parameter><parameter name="NSR">32</parameter><parameter name="PLF">AB</parameter><parameter name="RES">6</parameter><parameter name="RGN">-1</parameter><parameter name="STR">0</parameter><parameter name="TCL">MakeCompatibleScalar (0, {WSV=1.000000, ARV=0});</parameter><parameter name="TDL">37</parameter><parameter name="RPO">0</parameter></Acquisition_Parameters_Rf><FT_-_Parameters_Rf><parameter name="APF">B3</parameter><parameter name="HFQ">500</parameter><parameter name="LFQ">4000</parameter><parameter name="NLI">0</parameter><parameter name="PHR">24</parameter><parameter name="PHZ">ML</parameter><parameter name="SPZ">NO</parameter><parameter name="ZFF">1</parameter></FT_-_Parameters_Rf><Optic_Parameters_><parameter name="APR">0</parameter><parameter name="APT">Open</parameter><parameter name="BMS">KBr</parameter><parameter name="CHN">Module port</parameter><parameter name="DTC">RT-DLaTGS_IR-Biotyper [Microplate reader]</parameter><parameter name="HPF">0</parameter><parameter name="LPF">10.0</parameter><parameter name="LPV">4000</parameter><parameter name="PGN">0</parameter><parameter name="RDX">0</parameter><parameter name="SRC">MIR</parameter><parameter name="VEL">10.0</parameter><parameter name="SON">Off</parameter></Optic_Parameters_><FT_-_Parameters_><parameter name="APF">B3</parameter><parameter name="HFQ">500</parameter><parameter name="LFQ">4000</parameter><parameter name="NLI">0</parameter><parameter name="PHR">24</parameter><parameter name="PHZ">ML</parameter><parameter name="SPZ">NO</parameter><parameter name="ZFF">1</parameter></FT_-_Parameters_><Acquisition_Parameters_><parameter name="ADT">1</parameter><parameter name="AQM">DD</parameter><parameter name="CFE">0</parameter><parameter name="COR">0</parameter><parameter name="DEL">0</parameter><parameter name="DLY">0</parameter><parameter name="HFW">8000</parameter><parameter name="LFW">0</parameter><parameter name="NSS">32</parameter><parameter name="PLF">AB</parameter><parameter name="RES">6</parameter><parameter name="SOT">0</parameter><parameter name="TCL">MakeCompatibleScalar (0, {WSV=1.000000, ARV=0});</parameter><parameter name="TDL">37</parameter><parameter name="SPO">0</parameter><parameter name="SGN">-1</parameter></Acquisition_Parameters_><Instrument_Parameters_Rf><parameter name="HFL">15800.168544</parameter><parameter name="LFL">0</parameter><parameter name="LWN">15800.168544</parameter><parameter name="ABP">32197</parameter><parameter name="SSP">1</parameter><parameter name="ARG">2</parameter><parameter name="ASG">2</parameter><parameter name="ASS">32</parameter><parameter name="GFW">16</parameter><parameter name="GBW">16</parameter><parameter name="BFW">0</parameter><parameter name="BBW">0</parameter><parameter name="PKA">7263</parameter><parameter name="PKL">4996</parameter><parameter name="PRA">7449</parameter><parameter name="PRL">5001</parameter><parameter name="P2A">1</parameter><parameter name="P2L">1</parameter><parameter name="P2R">1</parameter><parameter name="P2K">1</parameter><parameter name="DAQ">0</parameter><parameter name="AG2">1</parameter><parameter name="SSM">1</parameter><parameter name="RSN">25783</parameter><parameter name="CRR">0</parameter><parameter name="SRT">1654006846.21</parameter><parameter name="DUR">19.6389923095703</parameter><parameter name="TSC">29.1</parameter><parameter name="MVD">0.22892390191555</parameter><parameter name="AN1">0.225817093981829</parameter><parameter name="AN2">0</parameter><parameter name="VSN">2.485 Apr  4 2017</parameter><parameter name="SRN">0085</parameter><parameter name="CAM">0</parameter><parameter name="INS">IR-Biotyper</parameter><parameter name="FOC">69</parameter><parameter name="RDY">1</parameter><parameter name="ARS">32</parameter></Instrument_Parameters_Rf><Sample_Parameters_><parameter name="BLD"></parameter><parameter name="CNM">Admin</parameter><parameter name="CPY"></parameter><parameter name="DPM"></parameter><parameter name="EXP">IRBT_v3_32Scans.XPM</parameter><parameter name="LCT"></parameter><parameter name="SFM">Microplate, HTS-XT</parameter><parameter name="SNM">220531-1301_RTF49M (D_3)_G9_ec9a6539-0852-4432-933f-a3addf140695.0</parameter><parameter name="XPP">C:\Users\Public\Documents\Bruker\OPUS_8.2.28\XPM</parameter><parameter name="IST">OK</parameter><parameter name="CPG">1252</parameter><parameter name="UID">790701d7-1e5b-4b42-aa66-260c391d564a</parameter></Sample_Parameters_><Instrument_Parameters_><parameter name="HFL">15800.168544</parameter><parameter name="LFL">0</parameter><parameter name="LWN">15800.168544</parameter><parameter name="ABP">32197</parameter><parameter name="SSP">1</parameter><parameter name="ASG">2</parameter><parameter name="ARG">2</parameter><parameter name="ASS">32</parameter><parameter name="GFW">16</parameter><parameter name="GBW">16</parameter><parameter name="BFW">0</parameter><parameter name="BBW">0</parameter><parameter name="PKA">8223</parameter><parameter name="PKL">4988</parameter><parameter name="PRA">8551</parameter><parameter name="PRL">4993</parameter><parameter name="P2A">1</parameter><parameter name="P2L">1</parameter><parameter name="P2R">1</parameter><parameter name="P2K">1</parameter><parameter name="DAQ">0</parameter><parameter name="AG2">1</parameter><parameter name="SSM">1</parameter><parameter name="RSN">13517</parameter><parameter name="CRR">0</parameter><parameter name="SRT">1654006872.469</parameter><parameter name="DUR">19.6389923095703</parameter><parameter name="TSC">29.1</parameter><parameter name="MVD">0.423625946044922</parameter><parameter name="AN1">0.225818384147131</parameter><parameter name="AN2">0</parameter><parameter name="VSN">2.485 Apr  4 2017</parameter><parameter name="SRN">0085</parameter><parameter name="CAM">0</parameter><parameter name="INS">IR-Biotyper</parameter><parameter name="FOC">69</parameter><parameter name="RDY">1</parameter></Instrument_Parameters_><History/></OPUSDataFile>
