<?xml version="1.0" encoding="UTF-8" ?>
<OPUSDataFile><AB><Ydata ylabel="Absorbance Units"><values byteorder="INTEL" format="FLOAT32" numvalues="3497"> -0.05790336 -0.05788313 -0.05786235 -0.05784053 -0.05782564 -0.05781809 -0.0578187 -0.05782704 -0.05783788 -0.05785096
 -0.05786195 -0.0578714 -0.05787909 -0.05788548 -0.05789155 -0.0578973 -0.05790329 -0.05790888 -0.05791379 -0.05791682
 -0.05791661 -0.0579135 -0.0579062 -0.05789958 -0.05789473 -0.05789696 -0.05790896 -0.0579268 -0.05795115 -0.05797083
 -0.05798473 -0.05798697 -0.05797718 -0.05795901 -0.05793265 -0.05790166 -0.05786576 -0.05782396 -0.05777802 -0.05773197
 -0.05769126 -0.05767044 -0.05767393 -0.05771793 -0.05779679 -0.0579148 -0.05805227 -0.05819827 -0.05832865 -0.05842656
 -0.05848226 -0.05848498 -0.05844806 -0.05837044 -0.05827748 -0.05817267 -0.05807591 -0.05798971 -0.05792246 -0.05787476
 -0.05784783 -0.05784122 -0.05784954 -0.05787144 -0.05789616 -0.05792275 -0.05794179 -0.05795412 -0.05795674 -0.05795177
 -0.05794079 -0.05792692 -0.05791444 -0.05790493 -0.05790263 -0.05790252 -0.05790429 -0.05789889 -0.0578814 -0.05785277
 -0.05781002 -0.05776845 -0.05772953 -0.05770887 -0.05770843 -0.05773411 -0.05778637 -0.05786476 -0.0579685 -0.05808903
 -0.05822225 -0.05833984 -0.05843606 -0.05847033 -0.05845019 -0.05836803 -0.05824664 -0.05812214 -0.05800631 -0.05793168
 -0.05788671 -0.05787598 -0.05787654 -0.05787586 -0.05786278 -0.05782578 -0.05778099 -0.05772827 -0.05769342 -0.05768229
 -0.05769913 -0.05774665 -0.05780119 -0.0578616 -0.05790153 -0.05792132 -0.05792011 -0.05790144 -0.05788758 -0.05787997
 -0.05789797 -0.05793547 -0.05798972 -0.05804871 -0.05808948 -0.05810843 -0.05808767 -0.05804221 -0.0579767 -0.05790902
 -0.05785108 -0.05781068 -0.05779263 -0.05780318 -0.05784387 -0.05792361 -0.0580457 -0.05820534 -0.05840595 -0.05859644
 -0.05877452 -0.05883567 -0.05878009 -0.05858586 -0.05827342 -0.05796971 -0.0576795 -0.05749085 -0.05738778 -0.05737547
 -0.05743664 -0.05754865 -0.05768853 -0.05782304 -0.05792974 -0.05797357 -0.05796341 -0.05788516 -0.05778746 -0.05768614
 -0.05761443 -0.05759006 -0.05759539 -0.05763154 -0.05766974 -0.05770577 -0.05773863 -0.0577679 -0.05780897 -0.0578616
 -0.05792538 -0.05799667 -0.05805139 -0.05808677 -0.05807722 -0.05802759 -0.05793508 -0.05781019 -0.05766922 -0.05752086
 -0.05738157 -0.05725669 -0.0571554 -0.05708155 -0.05703891 -0.0570321 -0.05706416 -0.05713597 -0.05725195 -0.05739255
 -0.05755924 -0.05770584 -0.05782818 -0.05788631 -0.05787719 -0.05780651 -0.05767653 -0.05752602 -0.05735625 -0.05719404
 -0.05703834 -0.05689765 -0.05677425 -0.05667854 -0.05661188 -0.0565848 -0.05658779 -0.05661661 -0.05665365 -0.05668184
 -0.05669301 -0.05667442 -0.05663636 -0.05657825 -0.05651694 -0.05645642 -0.05640959 -0.05637902 -0.05637426 -0.05639705
 -0.0564482 -0.0565281 -0.05662083 -0.05672472 -0.05680972 -0.05687518 -0.05689925 -0.05688798 -0.0568518 -0.05679999
 -0.05676337 -0.05674288 -0.05675696 -0.05679559 -0.05685434 -0.05692281 -0.05698702 -0.05705322 -0.05711724 -0.05720041
 -0.05731235 -0.05745905 -0.05765134 -0.05785066 -0.05805659 -0.05820427 -0.05828559 -0.05826927 -0.05815222 -0.05795038
 -0.05766667 -0.05735176 -0.05701241 -0.05672152 -0.05647957 -0.05633124 -0.05626433 -0.05627427 -0.05633938 -0.05642122
 -0.05649938 -0.05652598 -0.05651325 -0.05644903 -0.05636955 -0.05629643 -0.0562412 -0.05621908 -0.05620855 -0.05620913
 -0.05618923 -0.05614126 -0.05605768 -0.05593403 -0.05580201 -0.05566306 -0.05555993 -0.05549364 -0.055484 -0.05552706
 -0.05560844 -0.05571728 -0.05580315 -0.05585688 -0.05581937 -0.05571121 -0.05553566 -0.05533117 -0.05515428 -0.05500918
 -0.0549263 -0.05487553 -0.05484958 -0.05481598 -0.05475583 -0.05466674 -0.05453907 -0.05440487 -0.0542675 -0.05415856
 -0.05408398 -0.05404082 -0.05403004 -0.0540099 -0.0539783 -0.05389258 -0.05375808 -0.05359213 -0.05340446 -0.05324768
 -0.05311899 -0.05303839 -0.05299735 -0.05298981 -0.05300834 -0.05304442 -0.05308362 -0.05311275 -0.05311515 -0.05307343
 -0.05299271 -0.05286977 -0.05271743 -0.0525433 -0.05233059 -0.05207701 -0.05177055 -0.05140629 -0.05101637 -0.05060219
 -0.0502059 -0.04982871 -0.04948969 -0.0491884 -0.04893102 -0.0487168 -0.0485477 -0.04841977 -0.0483244 -0.04825623
 -0.04820193 -0.0481571 -0.04811607 -0.04806067 -0.04797981 -0.04783832 -0.04760363 -0.0472842 -0.04686213 -0.04641014
 -0.04594711 -0.04551499 -0.04512882 -0.04477937 -0.04446778 -0.04417713 -0.04390618 -0.04365025 -0.04340952 -0.04318973
 -0.04299034 -0.04281349 -0.04265167 -0.04247841 -0.04227841 -0.04198926 -0.04161905 -0.04113889 -0.04060183 -0.04006792
 -0.03956806 -0.03916166 -0.03882531 -0.03856578 -0.03834281 -0.03814137 -0.03793245 -0.0377028 -0.03744768 -0.03716295
 -0.03685767 -0.03653289 -0.0361909 -0.0358321 -0.03545097 -0.03504765 -0.03462538 -0.03418634 -0.03374935 -0.0333156
 -0.03290102 -0.03250331 -0.03212428 -0.03176124 -0.03141071 -0.03106907 -0.03073158 -0.03039177 -0.03004062 -0.02967915
 -0.02930241 -0.02892382 -0.02854997 -0.02818196 -0.02782626 -0.02745574 -0.02706552 -0.02663931 -0.02617016 -0.02569839
 -0.02522575 -0.0248062 -0.0244404 -0.02412842 -0.02386481 -0.02360651 -0.02335013 -0.02305572 -0.02272938 -0.02236481
 -0.02197595 -0.0215875 -0.0212063 -0.02085659 -0.02052504 -0.02021192 -0.01989179 -0.01954529 -0.01916817 -0.01874696
 -0.01831288 -0.01787192 -0.01745038 -0.01705742 -0.0166868 -0.01634013 -0.01599637 -0.01565412 -0.01529924 -0.01493152
 -0.01455114 -0.01415914 -0.01376463 -0.01336709 -0.01296983 -0.01256982 -0.01215898 -0.01173794 -0.01130152 -0.01085835
 -0.01041768 -0.009986735 -0.009577872 -0.0091869 -0.008815399 -0.008456214 -0.008104535 -0.007764221 -0.007434142 -0.007125138
 -0.006840626 -0.006578558 -0.006341094 -0.006104444 -0.005867386 -0.005601421 -0.005305845 -0.004974286 -0.004609642 -0.004233063
 -0.003847239 -0.003476722 -0.003118968 -0.002780548 -0.002455098 -0.00213352 -0.001810626 -0.001474651 -0.001125901 -0.0007583185
 -0.0003807329 4.776601E-06 0.0003846994 0.0007522188 0.001100267 0.00142349 0.001728276 0.002013536 0.002294927 0.00257385
 0.002865781 0.003172165 0.003498308 0.003843921 0.004196839 0.004555413 0.004899639 0.005230111 0.005538066 0.005827074
 0.006102956 0.006368527 0.006632616 0.006894976 0.007159384 0.007423484 0.00768658 0.007945986 0.008198586 0.008446896
 0.008689116 0.00893674 0.009193251 0.009465197 0.009757042 0.01005474 0.01035773 0.01064702 0.01092043 0.01118394
 0.01143848 0.01171258 0.01200626 0.01233432 0.01269043 0.01305434 0.01341782 0.01374398 0.01403397 0.01426843
 0.01446245 0.01462721 0.01477999 0.01494406 0.01512102 0.0153216 0.01553314 0.01575167 0.01597064 0.01618558
 0.01640173 0.01661948 0.01684308 0.01707359 0.01730881 0.01754879 0.017789 0.01802912 0.01826136 0.01848563
 0.01869605 0.01889581 0.0190959 0.01930142 0.01953605 0.01979598 0.02008908 0.02039882 0.02070583 0.02099613
 0.02124572 0.02145862 0.02162754 0.02176894 0.02188902 0.02199782 0.02210096 0.02219714 0.02228635 0.02237022
 0.02244758 0.02253332 0.02262832 0.02274843 0.02289406 0.02306415 0.02325709 0.02345732 0.02366441 0.02386773
 0.02406912 0.02426927 0.02446831 0.02466758 0.02486473 0.02505627 0.02524244 0.02542114 0.02559641 0.02577129
 0.02594545 0.02612174 0.02628996 0.02644777 0.02658603 0.02670027 0.02679903 0.02688145 0.02696934 0.02706475
 0.02717455 0.02729847 0.02741458 0.02752123 0.02759224 0.0276309 0.02763756 0.02762027 0.02760351 0.02759315
 0.02761425 0.02766543 0.0277575 0.02788087 0.02803187 0.02819641 0.02836311 0.02852523 0.02867377 0.02881898
 0.02896165 0.0291141 0.02928252 0.02945313 0.02962759 0.02976779 0.02987051 0.0299139 0.02989775 0.02984595
 0.0297623 0.02969421 0.02964079 0.02962461 0.0296374 0.02966393 0.02970081 0.02972995 0.02976123 0.02980163
 0.02985894 0.02994958 0.03005847 0.03018443 0.03029961 0.03038748 0.0304424 0.03045347 0.03044876 0.03043094
 0.03043178 0.03045805 0.03051126 0.03059343 0.03067565 0.03075641 0.03080383 0.03081847 0.03079202 0.03072951
 0.03065055 0.0305614 0.03049253 0.03044523 0.03043913 0.03046702 0.03052931 0.0306117 0.03070128 0.03078336
 0.03084253 0.03087496 0.03087144 0.03084638 0.03079982 0.03075652 0.03072109 0.03071471 0.03074082 0.03081301
 0.03093283 0.03110658 0.03133426 0.03160474 0.03191417 0.03222164 0.03252 0.03275011 0.03291032 0.032959
 0.0329109 0.03277041 0.03256954 0.03235444 0.03215646 0.03202952 0.03197517 0.03202107 0.03212509 0.03228094
 0.03242682 0.03254011 0.03258516 0.03254463 0.03243535 0.03225389 0.03204935 0.03182565 0.03161718 0.03142541
 0.03124897 0.03108706 0.03092866 0.030777 0.03064278 0.03053103 0.03046619 0.03044476 0.03047545 0.03054179
 0.03062672 0.03070625 0.03075087 0.03073988 0.03064683 0.03047073 0.03019768 0.02985861 0.0294554 0.02903823
 0.028618 0.02823146 0.02788668 0.02759271 0.02735175 0.02715463 0.02700076 0.02687028 0.02676145 0.02664754
 0.02652928 0.02639458 0.02624952 0.02610913 0.02597489 0.02586259 0.02575766 0.02564666 0.02551213 0.02532491
 0.02509291 0.02480404 0.02449865 0.02418958 0.02392239 0.02371864 0.02359008 0.02355057 0.02355742 0.02361098
 0.02363637 0.0236268 0.02353382 0.02335531 0.02310904 0.0227995 0.02248359 0.02216304 0.0218774 0.02162243
 0.02140412 0.02121962 0.0210654 0.02094064 0.02084522 0.02077137 0.02071375 0.0206572 0.02058911 0.02049926
 0.0203766 0.02022725 0.02004828 0.01985872 0.01966195 0.01947434 0.01929997 0.01913809 0.0189896 0.01884156
 0.01869334 0.01853901 0.01837928 0.01822126 0.01806521 0.01791718 0.0177746 0.01763189 0.01748673 0.01733006
 0.01716371 0.01698589 0.01680082 0.01661243 0.0164236 0.01623765 0.01605599 0.01588004 0.01571079 0.0155492
 0.01539444 0.0152476 0.01510143 0.01495593 0.01479767 0.01462543 0.01442904 0.01420803 0.01396888 0.01371333
 0.01346413 0.01322261 0.01300941 0.01282103 0.01265777 0.01251274 0.01236979 0.01222612 0.01206845 0.01190162
 0.01172529 0.01154621 0.01136944 0.01119915 0.0110376 0.0108915 0.0107626 0.01066046 0.0105898 0.01054434
 0.01052727 0.01050344 0.01047096 0.01038663 0.01024816 0.0100427 0.009773416 0.009473496 0.009150112 0.008862024
 0.008610983 0.008439593 0.008332939 0.008283626 0.008263017 0.008220793 0.008142312 0.007982518 0.007767866 0.007496678
 0.007218844 0.006963785 0.006749432 0.006596684 0.006472743 0.006374543 0.006268113 0.006143499 0.006014794 0.005880435
 0.005785685 0.005732901 0.005742218 0.00581042 0.005903721 0.006014484 0.006080039 0.006098914 0.006028363 0.005881488
 0.00566394 0.00539712 0.005119191 0.004840488 0.004590881 0.004361481 0.004154372 0.003961859 0.003775955 0.003609107
 0.003463913 0.003351511 0.003280329 0.003226231 0.003189323 0.003127141 0.003033957 0.00290547 0.002741186 0.002588728
 0.002450345 0.002370395 0.00234329 0.002360186 0.002410674 0.002451106 0.002480413 0.002471179 0.002435107 0.002379155
 0.002313434 0.00225647 0.002200241 0.002149559 0.002078881 0.001976301 0.001822213 0.001601331 0.001328236 0.0009970741
 0.0006598583 0.0003218562 3.813714E-05 -0.0001836409 -0.000333028 -0.0004089649 -0.0004592419 -0.0004877459 -0.0005602317 -0.0006748186
 -0.0008575107 -0.001095432 -0.001357428 -0.001630432 -0.001864454 -0.002062311 -0.002201992 -0.00230262 -0.00237667 -0.002442446
 -0.00252095 -0.002614024 -0.002731272 -0.00285869 -0.002994738 -0.003121296 -0.003232907 -0.003321458 -0.003382603 -0.003430069
 -0.003463294 -0.00351499 -0.003586998 -0.003703857 -0.003864357 -0.004057277 -0.004277892 -0.004489874 -0.004693729 -0.004869172
 -0.005025998 -0.005178264 -0.005332763 -0.005511312 -0.005704765 -0.005913645 -0.006120775 -0.006311018 -0.006478333 -0.006613046
 -0.006722774 -0.006808527 -0.006875831 -0.006927487 -0.006959527 -0.006971255 -0.006962101 -0.006930723 -0.006893618 -0.006851565
 -0.006833598 -0.006840899 -0.006896762 -0.006999386 -0.00715115 -0.007346025 -0.007564999 -0.007799478 -0.008019992 -0.008219325
 -0.008371073 -0.008475416 -0.008519203 -0.008514774 -0.008465246 -0.008389257 -0.008298473 -0.008202658 -0.008110087 -0.008015737
 -0.007919976 -0.007816669 -0.00770395 -0.0075853 -0.007461212 -0.007331176 -0.00719536 -0.007033436 -0.006843985 -0.006600611
 -0.006305248 -0.00595498 -0.005557043 -0.005136594 -0.00469978 -0.004275216 -0.003862953 -0.003476349 -0.003112086 -0.002771438
 -0.002451062 -0.002149463 -0.001861529 -0.001585202 -0.001312713 -0.001041044 -0.000763547 -0.0004773548 -0.0001818869 0.0001245904
 0.0004326296 0.0007422969 0.001035027 0.001309741 0.001549727 0.001755143 0.001926259 0.002065047 0.002185169 0.002286579
 0.002376435 0.002453157 0.0025135 0.002563308 0.00260806 0.002661468 0.002743793 0.002858968 0.003022378 0.003215611
 0.00343504 0.003655962 0.003865312 0.004059457 0.00423128 0.004402295 0.004573779 0.004772589 0.005002344 0.005273117
 0.005586061 0.005922434 0.006279742 0.006615303 0.006926623 0.007174052 0.007361551 0.007480655 0.007542094 0.007568423
 0.007568007 0.007568694 0.007565487 0.007569256 0.00755522 0.007513422 0.007401544 0.0071959 0.006857397 0.006360669
 0.005704733 0.004875608 0.003927311 0.002860806 0.001762773 0.0006410648 -0.0004268445 -0.001435523 -0.002344482 -0.003153711
 -0.003861371 -0.004470754 -0.005002181 -0.005458884 -0.00586353 -0.006218477 -0.006539728 -0.006831465 -0.007107037 -0.007372275
 -0.007640703 -0.007911958 -0.008193024 -0.008472668 -0.008747286 -0.009004592 -0.009237261 -0.009445192 -0.009625822 -0.009787419
 -0.009931883 -0.01005964 -0.01017218 -0.01025368 -0.01030337 -0.01030018 -0.01024419 -0.01013357 -0.009973886 -0.009800548
 -0.009622918 -0.009498665 -0.009429295 -0.009453142 -0.00955425 -0.009726116 -0.00994238 -0.01016813 -0.01038468 -0.01056219
 -0.01069939 -0.01078548 -0.01083103 -0.01083769 -0.01081498 -0.01076697 -0.01069304 -0.01059431 -0.01046386 -0.0102997
 -0.01011072 -0.009896441 -0.009707969 -0.00955019 -0.009513645 -0.009602592 -0.009896531 -0.01038441 -0.01107342 -0.01193107
 -0.01288132 -0.01388758 -0.01484629 -0.01574593 -0.01652348 -0.01720262 -0.01777825 -0.01828815 -0.01875437 -0.01919851
 -0.01963741 -0.020068 -0.02049454 -0.02090101 -0.02128539 -0.02163413 -0.0219448 -0.02221697 -0.02245016 -0.02265945
 -0.02284585 -0.02302895 -0.02320853 -0.02339317 -0.0235803 -0.0237644 -0.02394254 -0.02410407 -0.02424776 -0.02436568
 -0.02446009 -0.02452847 -0.02457981 -0.0246184 -0.02465982 -0.0247139 -0.02479309 -0.02490769 -0.02505154 -0.02522894
 -0.02541187 -0.02559722 -0.02575493 -0.02587997 -0.02596715 -0.02601526 -0.02604662 -0.02606243 -0.02608655 -0.02611799
 -0.02616036 -0.02621187 -0.02626545 -0.02632368 -0.0263896 -0.026467 -0.02656701 -0.02668432 -0.02681963 -0.02695849
 -0.02708785 -0.02719934 -0.02728111 -0.02734108 -0.02737817 -0.02740683 -0.0274312 -0.02745941 -0.02749377 -0.02753717
 -0.02759017 -0.02765468 -0.02773096 -0.0278164 -0.02791059 -0.02800496 -0.02809914 -0.02818589 -0.02826615 -0.02834007
 -0.02840855 -0.02847459 -0.02853757 -0.02859818 -0.02865447 -0.02870455 -0.02874604 -0.02877626 -0.0287934 -0.02879477
 -0.02878245 -0.02875496 -0.02872143 -0.02868266 -0.028653 -0.02863502 -0.02864024 -0.02867096 -0.02872759 -0.02881069
 -0.02890772 -0.02901777 -0.02912223 -0.02922052 -0.0292989 -0.02935891 -0.02939891 -0.02942245 -0.02943818 -0.02944936
 -0.02946697 -0.0294903 -0.02952419 -0.02956312 -0.02960371 -0.02964185 -0.0296721 -0.02969939 -0.02972326 -0.0297535
 -0.02979364 -0.0298461 -0.02991317 -0.02998662 -0.03006592 -0.03014278 -0.03021648 -0.03028481 -0.03034766 -0.03040359
 -0.03045226 -0.03048955 -0.03051632 -0.03053307 -0.03054339 -0.03055756 -0.03057841 -0.03061796 -0.0306723 -0.03074304
 -0.03082062 -0.03089668 -0.030965 -0.03101754 -0.03105769 -0.03108375 -0.03110476 -0.0311228 -0.03114527 -0.03117403
 -0.03121264 -0.03126192 -0.03132208 -0.03139335 -0.03147137 -0.03155577 -0.03163858 -0.03171932 -0.03179046 -0.03185197
 -0.03189931 -0.0319335 -0.03195417 -0.03196433 -0.03196889 -0.03197191 -0.03198139 -0.03199818 -0.03202716 -0.03206359
 -0.03210621 -0.03214991 -0.03219125 -0.0322311 -0.03226813 -0.03230835 -0.03235269 -0.03240571 -0.03246849 -0.03253948
 -0.03261886 -0.03269866 -0.03277839 -0.03284839 -0.03290877 -0.03295586 -0.03299117 -0.03301961 -0.03304258 -0.03306725
 -0.03309276 -0.03312099 -0.03315022 -0.03317832 -0.03320567 -0.03323144 -0.03325758 -0.03328523 -0.03331527 -0.03334879
 -0.03338436 -0.03342196 -0.03345947 -0.03349658 -0.03353087 -0.03356184 -0.03358931 -0.03361303 -0.03363845 -0.03366588
 -0.03370269 -0.03374843 -0.03380304 -0.03386461 -0.03392423 -0.03398079 -0.03402554 -0.03406067 -0.03408566 -0.03410472
 -0.03412347 -0.03414472 -0.03417426 -0.03420963 -0.03425253 -0.03429463 -0.03433294 -0.03436022 -0.03437195 -0.03437251
 -0.03436048 -0.03435056 -0.03434445 -0.03435291 -0.03437727 -0.03441437 -0.03446387 -0.03451544 -0.0345688 -0.0346171
 -0.03466105 -0.03470045 -0.03473594 -0.03476934 -0.03480072 -0.03483114 -0.03486029 -0.03488805 -0.03491458 -0.03493958
 -0.03496457 -0.03499034 -0.03501837 -0.03504983 -0.03508408 -0.03512151 -0.03515957 -0.03519782 -0.03523434 -0.03526883
 -0.03530024 -0.0353285 -0.03535199 -0.03537063 -0.03538283 -0.03538888 -0.03539025 -0.03538783 -0.03538664 -0.03538723
 -0.03539427 -0.03540654 -0.03542432 -0.03544493 -0.03546444 -0.03548184 -0.03549391 -0.03550318 -0.03550994 -0.03551791
 -0.03552913 -0.03554476 -0.03556608 -0.03559095 -0.03561934 -0.03564829 -0.03567752 -0.03570424 -0.03572825 -0.03574707
 -0.03576063 -0.03576806 -0.0357697 -0.03576795 -0.03576357 -0.03576148 -0.03576213 -0.03576993 -0.03578371 -0.03580362
 -0.03582721 -0.03585105 -0.03587337 -0.03589043 -0.03590389 -0.03591297 -0.03592218 -0.03593326 -0.03594997 -0.03597447
 -0.03600587 -0.03604513 -0.03608582 -0.03612749 -0.0361626 -0.03619041 -0.03620777 -0.03621462 -0.0362135 -0.03620499
 -0.03619514 -0.03618476 -0.03618106 -0.03618426 -0.03619949 -0.03622492 -0.0362598 -0.03630096 -0.03634319 -0.03638548
 -0.03642455 -0.03646153 -0.03649713 -0.03652913 -0.0365576 -0.03657706 -0.03658493 -0.03658145 -0.03656466 -0.03654547
 -0.03652471 -0.03651462 -0.03651657 -0.03653193 -0.03656058 -0.03659328 -0.03662945 -0.03665965 -0.03668472 -0.03670338
 -0.03671787 -0.03673454 -0.03675475 -0.03678527 -0.03682415 -0.03687245 -0.03692508 -0.03697747 -0.03702528 -0.0370634
 -0.03709213 -0.03710954 -0.03712003 -0.03712448 -0.03712688 -0.03712844 -0.03713012 -0.03713213 -0.03713536 -0.03713981
 -0.03714804 -0.03716013 -0.03717635 -0.03719627 -0.03721568 -0.03723422 -0.03724736 -0.03725609 -0.03726088 -0.03726358
 -0.03726835 -0.03727619 -0.03729082 -0.03731118 -0.03733834 -0.03736863 -0.03740019 -0.037429 -0.03745206 -0.03746968
 -0.03748032 -0.03748983 -0.03749932 -0.0375127 -0.03753132 -0.0375515 -0.03757327 -0.0375892 -0.03759895 -0.03759816
 -0.03758719 -0.03756757 -0.03754052 -0.03751273 -0.03748561 -0.03746747 -0.03745808 -0.03746203 -0.03747595 -0.03749749
 -0.03752191 -0.03754306 -0.037559 -0.03756558 -0.03756544 -0.03755819 -0.03754881 -0.03753887 -0.03753174 -0.0375286
 -0.0375301 -0.03753648 -0.03754815 -0.03756519 -0.03758767 -0.03761552 -0.03764467 -0.03767451 -0.037697 -0.03771209
 -0.03771468 -0.03770642 -0.03768964 -0.03766651 -0.03764298 -0.03761993 -0.0376015 -0.03758714 -0.03757786 -0.03757272
 -0.03757121 -0.03757321 -0.03757831 -0.03758748 -0.03760128 -0.03761899 -0.03764126 -0.03766308 -0.03768398 -0.03769865
 -0.0377064 -0.03770703 -0.03770056 -0.03769197 -0.03768174 -0.03767656 -0.03767719 -0.03769115 -0.03771874 -0.03776581
 -0.03783049 -0.03791219 -0.03800744 -0.03811013 -0.03821953 -0.03833069 -0.03844992 -0.03857838 -0.03872761 -0.03890328
 -0.03911439 -0.03936663 -0.03965783 -0.03998995 -0.04035119 -0.04074037 -0.04114674 -0.04156932 -0.04200195 -0.04244403
 -0.04287116 -0.04327914 -0.04361286 -0.04386874 -0.04399665 -0.04400068 -0.04386732 -0.04360343 -0.04320969 -0.0427114
 -0.0421354 -0.04153585 -0.04098145 -0.04050513 -0.04015917 -0.0399332 -0.03983884 -0.03984706 -0.03995411 -0.04012161
 -0.04034467 -0.04057119 -0.04079394 -0.0409684 -0.04108843 -0.04115294 -0.04116179 -0.0411344 -0.04107127 -0.04098259
 -0.04086923 -0.0407414 -0.0405999 -0.04045359 -0.040301 -0.04014124 -0.03997761 -0.03981257 -0.03965544 -0.03951958
 -0.03940365 -0.03931557 -0.03923588 -0.03915704 -0.03906332 -0.03894408 -0.03880732 -0.03865116 -0.03849491 -0.03834169
 -0.03820071 -0.03807354 -0.03795755 -0.03785261 -0.03775331 -0.03765949 -0.03756798 -0.03747905 -0.03739245 -0.0373088
 -0.03722989 -0.03715647 -0.03709155 -0.03703459 -0.03698681 -0.03694538 -0.03690767 -0.0368716 -0.03683363 -0.03679667
 -0.03676077 -0.03673063 -0.0367093 -0.03669336 -0.03668402 -0.0366691 -0.03664663 -0.03661008 -0.03655784 -0.03649912
 -0.03643439 -0.03638033 -0.03633717 -0.03631284 -0.0363056 -0.03630982 -0.03632324 -0.03633479 -0.03634419 -0.03634487
 -0.03633878 -0.03632606 -0.03630882 -0.03628966 -0.03626926 -0.03624878 -0.03622887 -0.03620998 -0.03619299 -0.03617856
 -0.03616597 -0.0361554 -0.03614473 -0.03613351 -0.03612169 -0.03610913 -0.03609745 -0.03608672 -0.03607613 -0.03606553
 -0.03605255 -0.03603741 -0.03602024 -0.03600121 -0.03598144 -0.03595983 -0.03593438 -0.03590417 -0.03586586 -0.03582174
 -0.03577234 -0.03572198 -0.03567445 -0.0356317 -0.03559659 -0.03556657 -0.03554172 -0.03551791 -0.03549388 -0.03546835
 -0.0354404 -0.03541389 -0.03538886 -0.03537163 -0.03536255 -0.03536438 -0.03537661 -0.03539348 -0.03541367 -0.03542613
 -0.03543066 -0.03541992 -0.03539624 -0.03536085 -0.03531738 -0.0352723 -0.03522771 -0.03518862 -0.03515523 -0.0351293
 -0.03511025 -0.03509863 -0.03509215 -0.0350908 -0.03508966 -0.03508773 -0.03508031 -0.03506619 -0.03504521 -0.03501702
 -0.03498484 -0.03494881 -0.0349127 -0.03487681 -0.03484604 -0.03482083 -0.03480699 -0.03480372 -0.03481215 -0.0348294
 -0.03484927 -0.03486924 -0.03488155 -0.03488722 -0.03488389 -0.03487483 -0.03486206 -0.03484755 -0.03483329 -0.03481873
 -0.03480422 -0.03478836 -0.03477086 -0.03475069 -0.03472757 -0.03470121 -0.0346714 -0.03463966 -0.03460605 -0.03457442
 -0.034545 -0.03452168 -0.03450427 -0.03449376 -0.03448924 -0.03448809 -0.0344894 -0.03448954 -0.03448842 -0.03448395
 -0.03447722 -0.03446833 -0.03445943 -0.03445219 -0.03444827 -0.03444954 -0.03445497 -0.03446519 -0.03447647 -0.03448812
 -0.03449671 -0.03450145 -0.03450124 -0.03449591 -0.03448487 -0.03446808 -0.03444374 -0.03441193 -0.03437277 -0.03432724
 -0.03428123 -0.03423628 -0.03420162 -0.03417701 -0.03416731 -0.03416947 -0.03418087 -0.03419802 -0.03421554 -0.03423216
 -0.03424519 -0.03425401 -0.03425787 -0.03425546 -0.03424574 -0.03422958 -0.03420618 -0.03418124 -0.03415546 -0.03413431
 -0.03411878 -0.0341078 -0.0341014 -0.03409419 -0.03408612 -0.03407553 -0.03406317 -0.03405322 -0.03404608 -0.03404605
 -0.03405177 -0.03406239 -0.0340756 -0.03408707 -0.0340954 -0.0340971 -0.03409227 -0.03407954 -0.03406046 -0.03403476
 -0.03400654 -0.03397665 -0.03395085 -0.03393114 -0.03391925 -0.03391674 -0.03391667 -0.03391882 -0.03391343 -0.03389986
 -0.0338763 -0.03384327 -0.03380871 -0.03377355 -0.03374811 -0.03373211 -0.03373075 -0.03374178 -0.03376293 -0.03379056
 -0.03381718 -0.03384096 -0.03385564 -0.03386413 -0.03386639 -0.03386658 -0.03386819 -0.03386956 -0.03387186 -0.03386868
 -0.03385798 -0.03383846 -0.03380856 -0.03377607 -0.0337414 -0.03371368 -0.03369354 -0.03368331 -0.03368279 -0.03368864
 -0.03370047 -0.03371419 -0.03372945 -0.03374304 -0.03375416 -0.03375898 -0.03375751 -0.03374723 -0.03373054 -0.03370883
 -0.03368561 -0.0336648 -0.03364678 -0.03363361 -0.03362206 -0.03361113 -0.0335992 -0.03358494 -0.03357141 -0.03355865
 -0.03355142 -0.03355039 -0.03355683 -0.03357093 -0.033589 -0.03361077 -0.03363075 -0.0336489 -0.03366223 -0.03367106
 -0.03367524 -0.03367475 -0.03366938 -0.03365934 -0.03364412 -0.03362609 -0.0336075 -0.0335914 -0.033582 -0.03357809
 -0.03358127 -0.03358575 -0.03358958 -0.03358869 -0.03358105 -0.03356762 -0.03354781 -0.03352597 -0.03350228 -0.03348269
 -0.03346758 -0.03346117 -0.03346331 -0.0334715 -0.03348476 -0.03349478 -0.03350117 -0.0334975 -0.03348489 -0.0334627
 -0.03343283 -0.03339765 -0.03336041 -0.03332513 -0.03329692 -0.03328195 -0.03328183 -0.03330159 -0.03333241 -0.03337388
 -0.03341032 -0.03343705 -0.03344544 -0.0334316 -0.03340284 -0.03335878 -0.03331518 -0.03327312 -0.03324026 -0.03321641
 -0.03319666 -0.03318041 -0.03316052 -0.03313803 -0.03311329 -0.03308772 -0.03306578 -0.03304678 -0.03303193 -0.03301915
 -0.03300608 -0.03299184 -0.03297456 -0.032955 -0.03293283 -0.03290971 -0.03288612 -0.03286385 -0.03284371 -0.0328256
 -0.03280989 -0.03279424 -0.03277851 -0.03276028 -0.03273939 -0.03271498 -0.03268701 -0.0326548 -0.03261852 -0.03257855
 -0.0325359 -0.03249462 -0.03245598 -0.032426 -0.03240397 -0.03239225 -0.03238745 -0.03238663 -0.03238601 -0.03238081
 -0.03237047 -0.0323524 -0.03233043 -0.03230528 -0.03228122 -0.0322602 -0.03224152 -0.03222578 -0.03220883 -0.0321902
 -0.03216743 -0.03214027 -0.0321102 -0.03207739 -0.0320452 -0.032014 -0.03198812 -0.03196784 -0.03195711 -0.03195494
 -0.03196141 -0.03197377 -0.03198739 -0.03199906 -0.03200267 -0.03199672 -0.03197696 -0.03194571 -0.03190201 -0.03185242
 -0.0317992 -0.03174806 -0.03170173 -0.03166001 -0.03162369 -0.03158891 -0.03155516 -0.03152133 -0.03148723 -0.03145475
 -0.03142389 -0.03139439 -0.031366 -0.03133652 -0.03130598 -0.03127323 -0.03123884 -0.03120361 -0.03116845 -0.03113523
 -0.03110501 -0.03108045 -0.03106057 -0.03104668 -0.0310336 -0.03101914 -0.03099717 -0.03096362 -0.03091899 -0.03086135
 -0.03079875 -0.03073205 -0.03066978 -0.03061329 -0.03056522 -0.03052594 -0.03049353 -0.03046792 -0.03044799 -0.03043386
 -0.03042661 -0.03042528 -0.03042723 -0.03042962 -0.03042298 -0.0304058 -0.03036889 -0.03031726 -0.03025252 -0.03018295
 -0.03011763 -0.03005875 -0.03001156 -0.02997133 -0.02993777 -0.02990483 -0.02987053 -0.02983178 -0.02978713 -0.02973873
 -0.02968627 -0.02963596 -0.0295882 -0.02954866 -0.02951747 -0.02949603 -0.02948358 -0.0294752 -0.02946917 -0.029455
 -0.02943219 -0.02939237 -0.02933976 -0.02927798 -0.02921215 -0.02915177 -0.02909627 -0.02904899 -0.02900654 -0.02896728
 -0.02893023 -0.02889485 -0.02885981 -0.02882589 -0.0287857 -0.02873836 -0.02867547 -0.02859512 -0.02849998 -0.02838974
 -0.02827864 -0.02816742 -0.02806999 -0.02798611 -0.02792046 -0.02787144 -0.02783464 -0.02780852 -0.02778624 -0.02776751
 -0.02774912 -0.02772992 -0.02770824 -0.02767999 -0.02764051 -0.02758817 -0.02751873 -0.02743867 -0.02734922 -0.0272579
 -0.02716799 -0.0270799 -0.02699421 -0.02691031 -0.02682772 -0.02675127 -0.02668137 -0.02661932 -0.02656474 -0.02650567
 -0.02644078 -0.02635245 -0.02624221 -0.0261055 -0.02594894 -0.02578939 -0.0256314 -0.02549406 -0.0253728 -0.02527088
 -0.02517847 -0.02508759 -0.02499079 -0.02487916 -0.02475531 -0.02461629 -0.02447382 -0.02433062 -0.02419628 -0.02407453
 -0.02396214 -0.02386052 -0.0237518 -0.02363473 -0.02349536 -0.02333375 -0.0231621 -0.02298207 -0.02281442 -0.02265741
 -0.02251474 -0.02238184 -0.02224758 -0.02210828 -0.02195024 -0.02177503 -0.02157665 -0.02136495 -0.0211464 -0.02093099
 -0.02073058 -0.02053838 -0.02035886 -0.0201656 -0.01995073 -0.0196988 -0.01940072 -0.01908009 -0.01873811 -0.01840151
 -0.01807326 -0.017748 -0.0174254 -0.01709456 -0.01675686 -0.01642134 -0.0160883 -0.01576673 -0.01544985 -0.01512228
 -0.01477798 -0.01439247 -0.01397684 -0.01353344 -0.01308133 -0.01264335 -0.01222049 -0.0118224 -0.01143815 -0.01106437
 -0.01069547 -0.01032894 -0.009962943 -0.009599805 -0.009219566 -0.008823394 -0.008360585 -0.007826691 -0.007197017 -0.006472912
 -0.005730479 -0.004974296 -0.004282752 -0.003644583 -0.00304691 -0.002477403 -0.001890989 -0.001286445 -0.0006405218 4.524147E-05
 0.000773249 0.001556422 0.002401271 0.003339642 0.004396973 0.005586326 0.006937583 0.008381518 0.009914299 0.01142382
 0.01288148 0.01424508 0.01550109 0.01667314 0.01776094 0.01880733 0.0198153 0.02085118 0.02192122 0.02311974
 0.02443549 0.02588071 0.02740641 0.02885695 0.03022695 0.03141334 0.03247605 0.03346033 0.03440757 0.03538273
 0.03638284 0.03742744 0.03849778 0.03958882 0.04069022 0.04180245 0.0428961 0.04396729 0.04498041 0.0459264
 0.0468205 0.04766255 0.04848459 0.04928697 0.05004392 0.05075172 0.05135959 0.0518742 0.05229846 0.05264847
 0.05297799 0.05329093 0.05362909 0.05396883 0.05428927 0.05458325 0.05482693 0.05504802 0.05526237 0.05547752
 0.05570843 0.05592613 0.05612458 0.05628046 0.05638479 0.05644304 0.05645344 0.05643535 0.05639013 0.05633369
 0.05626658 0.05618871 0.05609912 0.0559887 0.05585691 0.05569669 0.05550794 0.05528506 0.05503183 0.05475004
 0.05445197 0.05415457 0.05387153 0.05362338 0.05341619 0.05325983 0.05315761 0.05311443 0.05312742 0.05319977
 0.05331319 0.05346434 0.05363935 0.05383395 0.05405829 0.05431248 0.05461258 0.05495917 0.05535352 0.05579465
 0.0562729 0.05678771 0.05733145 0.0579039 0.05850039 0.05912079 0.05976184 0.06042535 0.06111269 0.061825
 0.06256482 0.06332987 0.06411916 0.06493142 0.06576489 0.06662259 0.06750508 0.06841517 0.06935497 0.07031801
 0.07130561 0.07229505 0.07328504 0.07424846 0.07518422 0.07608868 0.07696303 0.07782283 0.07866219 0.07946193
 0.08020871 0.0808432 0.08137214 0.08177671 0.08207973 0.08231153 0.08247663 0.0825943 0.08265293 0.08264835
 0.08257679 0.08243731 0.08222057 0.08192922 0.08152699 0.0810018 0.08035346 0.07956925 0.07875856 0.07793106
 0.07714064 0.076389 0.07561801 0.07482567 0.07396975 0.07305548 0.072089 0.07107519 0.07003841 0.06896777
 0.06786202 0.06668279 0.06536769 0.06390094 0.0622072 0.06039778 0.05852569 0.05669025 0.05498172 0.0533421
 0.05177049 0.05021118 0.0486399 0.0470931 0.04557015 0.04412858 0.04277574 0.0415064 0.04032009 0.0391718
 0.03806118 0.03696819 0.0358979 0.03486797 0.03388097 0.03295696 0.03208981 0.03127746 0.03050948 0.02977013
 0.02904944 0.02833331 0.02760901 0.02686727 0.02608579 0.02524919 0.02435073 0.02336593 0.02238455 0.02141488
 0.02057551 0.01989822 0.01934029 0.01890437 0.0184844 0.01807541 0.01763415 0.0171642 0.01669255 0.01622343
 0.01579693 0.01540617 0.01504789 0.01471687 0.01439393 0.01409264 0.01382277 0.01360468 0.01346882 0.01341235
 0.01344698 0.01355157 0.01371793 0.01393233 0.0141863 0.01448154 0.01481394 0.01520441 0.01565258 0.01620028
 0.0168522 0.01762551 0.01852052 0.01945377 0.02041812 0.02129898 0.02210288 0.02280752 0.02342441 0.02398366
 0.02448404 0.02493581 0.02533806 0.02568508 0.0260013 0.02630303 0.02663423 0.02704186 0.02752192 0.02810373
 0.0286992 0.02928013 0.02980008 0.03023317 0.03061712 0.03095254 0.03128542 0.031621 0.03197372 0.03234445
 0.03271982 0.03309922 0.03347025 0.03383554 0.0342027 0.03457642 0.03497778 0.03540705 0.03587806 0.03638183
 0.03690929 0.03745556 0.03800794 0.03857666 0.03916585 0.03978261 0.04043582 0.04111304 0.0418134 0.04251919
 0.0432242 0.04392831 0.04462972 0.04533944 0.04605959 0.04677968 0.04749911 0.04816939 0.04878791 0.04930721
 0.04972973 0.05004567 0.0502583 0.05037527 0.0503942 0.05031394 0.05012999 0.04983262 0.04942476 0.04890251
 0.04827998 0.04756538 0.04677338 0.04591605 0.04499275 0.04400716 0.04294961 0.04181379 0.04061883 0.03936107
 0.03810411 0.03685341 0.03565855 0.03452241 0.03343341 0.03238925 0.03135486 0.03033265 0.02931734 0.02831708
 0.02735966 0.02644668 0.02559936 0.02480635 0.0240603 0.02334666 0.02264495 0.0219502 0.02124833 0.02055139
 0.01985897 0.01919351 0.01856376 0.01798136 0.01745371 0.01696898 0.016528 0.01610693 0.01570343 0.0153022
 0.01490227 0.01450944 0.01412525 0.0137719 0.01345031 0.01317827 0.01295284 0.01277401 0.01263638 0.0125279
 0.01244322 0.01236817 0.01230039 0.01223032 0.0121623 0.01209567 0.01203804 0.01199463 0.0119655 0.01195395
 0.01194909 0.01194948 0.01194325 0.01192777 0.01189995 0.01185884 0.01180938 0.01175182 0.01169005 0.01162394
 0.01155188 0.01147446 0.01139327 0.01131176 0.01124305 0.01119055 0.01117043 0.01118044 0.01122571 0.01129865
 0.01139302 0.0115015 0.01161727 0.01173274 0.01184369 0.01193945 0.01201534 0.01206402 0.01208126 0.01207236
 0.01203658 0.01198679 0.01192416 0.01185774 0.0117881 0.01171903 0.01165079 0.01158792 0.01153079 0.01148461
 0.01144851 0.01142281 0.01140483 0.01138872 0.01137134 0.01134504 0.01130749 0.01125371 0.01118048 0.01108432
 0.01096116 0.0108063 0.01062339 0.01040955 0.01018264 0.009945069 0.009718614 0.009508032 0.009320702 0.009158709
 0.009013047 0.008883306 0.008761123 0.008646767 0.008543048 0.008450769 0.008377174 0.008320998 0.008282088 0.008257186
 0.008237827 0.008222781 0.008204699 0.00818773 0.008173071 0.008166956 0.008175691 0.008200363 0.008244415 0.008303154
 0.008375794 0.008457575 0.008547007 0.00864191 0.008741636 0.008845616 0.008953644 0.009066844 0.009185288 0.009308701
 0.009436579 0.009561365 0.009681994 0.009787028 0.009877483 0.009950382 0.01000895 0.0100605 0.01010541 0.01014902
 0.01018681 0.01021521 0.01023144 0.01023007 0.0102164 0.01019128 0.0101617 0.01013211 0.01009979 0.01006636
 0.01002046 0.009960214 0.009878848 0.009774816 0.009652794 0.009512906 0.009365137 0.00920993 0.009055428 0.008901579
 0.008752548 0.008607196 0.008463823 0.008320552 0.008171287 0.008016233 0.007852165 0.007682145 0.007509175 0.007333877
 0.007158914 0.006980349 0.006795833 0.006605478 0.006406584 0.006209653 0.006016291 0.005837866 0.005677493 0.00553527
 0.005412118 0.005299176 0.005195914 0.005098085 0.005006115 0.004926918 0.004861453 0.004820262 0.00480225 0.004809354
 0.004838687 0.004883581 0.00494281 0.005010674 0.00508851 0.005176043 0.005273648 0.005381578 0.005499947 0.005627656
 0.005769421 0.005925843 0.006104802 0.006308947 0.006540967 0.006802463 0.007088928 0.007400292 0.007730013 0.008077691
 0.008438092 0.008810908 0.009191062 0.00957796 0.009965217 0.01035206 0.01073161 0.01110446 0.01146768 0.01182452
 0.01217932 0.01253486 0.0128977 0.01326506 0.01363786 0.0140098 0.01437762 0.01473647 0.01508412 0.01541607
 0.01573142 0.01602365 0.01629145 0.01653059 0.01674012 0.0169215 0.01707467 0.01720674 0.01731852 0.01742443
 0.01752607 0.017642 0.01777202 0.01792572 0.01810081 0.01829503 0.01850919 0.01874289 0.01899958 0.01928527
 0.0195967 0.01993561 0.02029047 0.02065498 0.02102122 0.02138287 0.02174341 0.02210163 0.02246653 0.02283989
 0.02322607 0.02362683 0.02403195 0.02444118 0.02483189 0.02520344 0.02554321 0.02585377 0.02614787 0.02642804
 0.02671287 0.02699941 0.02728921 0.02757873 0.02786099 0.02813745 0.02840742 0.02867199 0.02893278 0.02918747
 0.02943442 0.02967458 0.02990706 0.03013683 0.03036505 0.03059525 0.03082785 0.0310675 0.03131441 0.03157585
 0.03185236 0.03214727 0.0324605 0.03278977 0.03313474 0.03349239 0.03386181 0.03423887 0.03462031 0.03499692
 0.03536241 0.03570246 0.03600915 0.03626643 0.03647042 0.0366096 0.03669181 0.03671633 0.03669846 0.0366446
 0.03656368 0.03645955 0.03633551 0.03619144 0.03603773 0.03587478 0.03571865 0.03557042 0.03544113 0.03533126
 0.03524924 0.03519557 0.03517938 0.03519879 0.03525256 0.03533485 0.03542928 0.03553157 0.03562518 0.03571133
 0.03578461 0.0358483 0.03590402 0.03595262 0.03599639 0.0360308 0.03605609 0.03606176 0.03604535 0.03599728
 0.03591472 0.03579659 0.03564203 0.03545573 0.03523779 0.03499658 0.03473296 0.03446383 0.03419036 0.03393061
 0.03368261 0.03344826 0.03322349 0.03299715 0.03276888 0.0325328 0.03229007 0.03204168 0.03178317 0.03151168
 0.03122123 0.03090598 0.03056727 0.030203 0.02982065 0.0294212 0.02901374 0.02859963 0.02818844 0.02778163
 0.02738403 0.02699632 0.02661287 0.02623315 0.0258455 0.02544942 0.02503553 0.02460448 0.02415321 0.02368446
 0.02320406 0.02271478 0.02222632 0.02173541 0.02124327 0.02074179 0.02022262 0.0196847 0.01912247 0.01854568
 0.01795666 0.01736507 0.01677426 0.01618946 0.01561171 0.01504714 0.01449659 0.0139645 0.01345143 0.01295373
 0.01247122 0.01199943 0.01153925 0.01109541 0.01067001 0.01027501 0.009911262 0.009588557 0.00930367 0.009056945
 0.008840054 0.008642387 0.008456986 0.008271969 0.00808967 0.007907382 0.007731252 0.007564821 0.007406069 0.007255869
 0.007107948 0.006960584 0.006813942 0.006667657 0.006524522 0.006384814 0.00624728 0.006111855 0.005976956 0.005842803
 0.005710423 0.0055803 0.00545413 0.005334223 0.005227053 0.005136698 0.005075548 0.005042166 0.005042583 0.005065895
 0.005104733 0.00514862 0.005187423 0.005220033 0.005242931 0.00525978 0.005270801 0.005279846 0.005286953 0.005299625
 0.005318322 0.005353411 0.005405843 0.005478776 0.00557186 0.005673593 0.005781936 0.005874591 0.005950586 0.005992207
 0.006003051 0.00598318 0.005938961 0.005883286 0.005819317 0.005756865 0.005696367 0.005640329 0.005592517 0.005555573
 0.005533644 0.005530359 0.00554307 0.005572157 0.005612614 0.005662736 0.005724359 0.005797254 0.005886108 0.005991413
 0.006112457 0.006248969 0.006393338 0.006544356 0.006688654 0.006825013 0.006939204 0.00703399 0.007107732 0.007169
 0.007233886 0.007308946 0.007412359 0.007539809 0.007695655 0.007868178 0.008050608 0.008235866 0.008417729 0.008598701
 0.008777976 0.008960388 0.009147951 0.009336573 0.009527161 0.009704377 0.00986736 0.009998779 0.01009806 0.01015914
 0.01018375 0.01018324 0.01016162 0.01014331 0.01013135 0.01014893 0.01019304 0.01027004 0.01037237 0.01049101
 0.01062374 0.01076373 0.01091534 0.01108165 0.01125854 0.01144905 0.01163239 0.01180333 0.0119441 0.01204716
 0.01212175 0.01216607 0.01220977 0.01225505 0.01232288 0.01241373 0.01252321 0.01264941 0.01277289 0.01289294
 0.01299506 0.01308194 0.01315299 0.01321366 0.01327452 0.01333983 0.01342188 0.01351724 0.01362928 0.0137466
 0.01386187 0.01396936 0.0140611 0.01414932 0.01423482 0.0143347 0.01445464 0.01459283 0.01475123 0.01491167
 0.01507278 0.01522355 0.01536378 0.01549902 0.01563002 0.01576647 0.01590724 0.01605256 0.01619956 0.01633894
 0.01647041 0.01658689 0.01669451 0.01679862 0.01690541 0.01702589 0.01715397 0.01729154 0.01742294 0.01753969
 0.01763796 0.01771114 0.01777685 0.01783626 0.01791205 0.01800804 0.01813326 0.01828928 0.01846884 0.01867144
 0.01888269 0.01910195 0.0193174 0.01952925 0.01973191 0.01992682 0.02011418 0.0202981 0.02048708 0.02068422
 0.02090128 0.0211286 0.02136509 0.02158852 0.021782 0.02193536 0.02203481 0.02209652 0.02212143 0.02213022
 0.02212823 0.02212337 0.02211658 0.02211897 0.022131 0.02217246 0.02224403 0.0223476 0.02248037 0.02261547
 0.02275029 0.0228559 0.02293587 0.02298419 0.02301012 0.0230296 0.02305082 0.02309426 0.02315882 0.02325372
 0.02336665 0.02349283 0.02361925 0.02373791 0.02384357 0.02393169 0.02400614 0.02406483 0.02412508 0.02418816
 0.02427573 0.02439094 0.02452401 0.02467388 0.02479348 0.02488213 0.02491177 0.02489081 0.02484716 0.02478924
 0.02476016 0.02475825 0.02479994 0.02488265 0.0250084 0.02517798 0.02539614 0.02565304 0.02594796 0.02625658
 0.02656845 0.02686165 0.02712428 0.02735605 0.02755094 0.02773673 0.02791578 0.02811702 0.02834476 0.02858532
 0.02883763 0.02905655 0.02924266 0.02938311 0.02948582 0.02958669 0.02968885 0.02982436 0.02998389 0.03016356
 0.03035234 0.03053222 0.03069599 0.03082995 0.03092987 0.03098506 0.0310068 0.0309937 0.03097221 0.03095269
 0.03094413 0.03095394 0.03096201 0.03096584 0.03095425 0.03092458 0.03089865 0.03087766 0.03089342 0.03094548
 0.03104259 0.03117856 0.03132648 0.03147903 0.03159354 0.03167783 0.03172225 0.03175199 0.03180357 0.03188778
 0.03203527 0.03223072 0.03247089 0.03274754 0.03305659 0.03339089 0.03376016 0.03409712 0.03438957 0.03457959
 0.03464688 0.03465032 0.0345916 0.03454876 0.03452544 0.03454589 0.03460749 0.03469137 0.03479188 0.03486974
 0.03492151 0.03491076 0.03484774 0.03473098 0.03458698 0.0344584 0.03435579 0.03431663 0.03431011 0.0343284
 0.03433509 0.0343042 0.0342363 0.0341215 0.0339873 0.03383641 0.0337004 0.03358384 0.03351168 0.03348788
 0.03350598 0.03356539 0.03361916 0.03366457 0.03365425 0.03359069 0.03346117 0.03327305 0.03304143 0.03277752
 0.03251155 0.03225566 0.03204468 0.0318763 0.03176416 0.03169321 0.03165399 0.03164389 0.0316617 0.03169751
 0.03175502 0.03179175 0.03179573 0.0317529 0.03165155 0.03155626 0.03147084 0.03146175 0.03153222 0.03167559
 0.03188842 0.03212941 0.03239473 0.03264429 0.03287324 0.0330395 0.03315064 0.03319704 0.0332028 0.03320494
 0.03321077 0.03324894 0.03329853 0.03335023 0.03339566 0.03342262 0.03344939 0.03348157 0.03352512 0.03358533
 0.03364667 0.03370687 0.03375975 0.03380411 0.03384404 0.03387972 0.03391174 0.03394032 0.03396843 0.03399589
 0.03402416 0.03405107 0.0340674 0.03407685 0.03408105 0.03408973 0.03412348 0.03417598 0.03425222 0.03433212
 0.0343973 0.0344503 0.0344847 0.0345173 0.03455827 0.03459344 0.03462412 0.03462017 0.03457414 0.03449107
 0.03436919 0.03423983 0.03410458 0.0339797 0.03386419 0.03375032 0.03363558 0.03350028 0.03334592 0.0331625
 0.03296335 0.03277294 0.03260538 0.03250087 0.03244707 0.03245218 0.03248216 0.03251286 0.03252291 0.03249206
 0.03242094 0.03230438 0.03215107 0.03196058 0.03174917 0.03151898 0.03128441 0.03104798 0.03080287 0.03054883
 0.03028048 0.03000003 0.02973519 0.02948873 0.02929311 0.02914428 0.02904513 0.02899022 0.02897016 0.02897716
 0.02900084 0.02901828 0.02900034 0.02892964 0.02877303 0.02855829 0.02828229 0.02800475 0.02774702 0.02754745
 0.02742411 0.02736927 0.0273889 0.02743506 0.0275053 0.02753848 0.02753101</values></Ydata></AB><ScSm><Ydata ylabel="Single channel"><values byteorder="INTEL" format="FLOAT32" numvalues="1814"> 0.0695019 0.06950048 0.06956355 0.06971788 0.06993484 0.07014537 0.07028842 0.07035182 0.07035911 0.07032657
 0.07026544 0.07022385 0.07027784 0.07045586 0.07069272 0.07087168 0.07091396 0.07084779 0.07079726 0.0708636
 0.07098879 0.07096839 0.07064535 0.07009271 0.06956714 0.06926997 0.06921837 0.06939731 0.06989082 0.07064505
 0.07119606 0.07100138 0.07012636 0.06927769 0.06902091 0.06923646 0.06944784 0.06937005 0.06900121 0.06851564
 0.06830734 0.0688829 0.07036661 0.07209064 0.07283318 0.07158899 0.06828876 0.06402731 0.06065734 0.05979602
 0.0616883 0.06487921 0.0673034 0.06793185 0.06726925 0.06631553 0.06548958 0.0647497 0.06428437 0.06455389
 0.06565085 0.06686682 0.06705685 0.06561857 0.06321076 0.06128672 0.06076913 0.06147185 0.06287938 0.06471138
 0.06612977 0.06528093 0.06111369 0.05569512 0.05329883 0.05634516 0.06282109 0.06825264 0.06968916 0.06735957
 0.0633785 0.05998836 0.05871709 0.05996371 0.06291543 0.06622413 0.06883153 0.07002781 0.06926583 0.06662908
 0.06330344 0.06100854 0.06094227 0.06330799 0.06726863 0.07102076 0.07261527 0.07139912 0.06845048 0.0654355
 0.06350747 0.063317 0.065181 0.06874875 0.07297267 0.07672037 0.07924622 0.08026183 0.07998508 0.07900233
 0.07782581 0.07681211 0.07647674 0.07717821 0.07828309 0.07840179 0.07689989 0.07474123 0.07349437 0.07370957
 0.07447782 0.07453925 0.07356039 0.07193738 0.0695527 0.06574579 0.06082782 0.05649051 0.05411537 0.05371972
 0.05496681 0.05770841 0.06079227 0.06197922 0.06039067 0.05808651 0.05802004 0.06088422 0.0647452 0.0674039
 0.06843364 0.06904151 0.07051016 0.07288407 0.07479991 0.07451887 0.07165214 0.06813347 0.066856 0.06883525
 0.07223162 0.07461259 0.07551682 0.07619604 0.07741587 0.07826608 0.07710922 0.0735273 0.06937532 0.0676437
 0.06985652 0.07454312 0.07830224 0.07832113 0.07426877 0.06837086 0.06367397 0.06193921 0.06316333 0.06672997
 0.07209218 0.07817434 0.08309332 0.08520856 0.08431719 0.0815625 0.07812811 0.07414328 0.06930428 0.06469201
 0.0629964 0.06597587 0.0722103 0.07828401 0.0818343 0.0827328 0.0817581 0.07913489 0.07474941 0.06955966
 0.06606785 0.06638208 0.06968181 0.07267501 0.07304712 0.0715755 0.07044387 0.07051323 0.07099614 0.07113284
 0.07127856 0.07229787 0.07432947 0.07645635 0.07759228 0.07746959 0.07668875 0.07601663 0.07568942 0.07524289
 0.07416679 0.07291748 0.07286924 0.07481147 0.0778662 0.08039033 0.08162367 0.08197039 0.08190921 0.08115378
 0.07907321 0.07588664 0.07315729 0.07263757 0.07457374 0.07754733 0.07994969 0.08114062 0.08130251 0.08086099
 0.08019544 0.07951143 0.0788998 0.07860379 0.07896504 0.07993395 0.08095022 0.08150673 0.08157067 0.08133188
 0.08083514 0.08004871 0.0791283 0.07843179 0.07826191 0.07863677 0.07932559 0.08005792 0.08062238 0.08083132
 0.08058771 0.08002597 0.07943171 0.07898191 0.07868344 0.07855232 0.0786742 0.0790429 0.07947835 0.0797778
 0.07987669 0.0798247 0.07967409 0.07944262 0.07915305 0.07887133 0.07870101 0.07871754 0.07888339 0.0790665
 0.07918632 0.07929047 0.07942916 0.07952129 0.07944058 0.07919621 0.07893755 0.07879421 0.07877607 0.07881571
 0.07883853 0.07876948 0.0785281 0.07809988 0.07762936 0.07736683 0.0774658 0.07786712 0.07839455 0.07889022
 0.07924302 0.07939552 0.07938457 0.07930914 0.07921872 0.07907853 0.07885952 0.07862324 0.07850386 0.07860817
 0.07891883 0.07929839 0.07960019 0.07976046 0.07979487 0.07976979 0.07978238 0.07988748 0.08001954 0.08005422
 0.07996508 0.07986138 0.07985617 0.07994096 0.0800078 0.07997581 0.07988317 0.07984652 0.07993288 0.08009584
 0.08024555 0.08035023 0.08044866 0.08057822 0.08070647 0.08074443 0.0806437 0.08046874 0.08033638 0.08029242
 0.08029771 0.08032767 0.0804164 0.08058096 0.08075757 0.08085527 0.08085678 0.08083308 0.08085345 0.08090229
 0.08090244 0.08080997 0.08066238 0.08053683 0.08048317 0.08049901 0.0805457 0.08057705 0.08056369 0.08050367
 0.08041471 0.08031584 0.08021562 0.0801232 0.08007137 0.08010835 0.08024129 0.08039211 0.08044049 0.08033013
 0.08012487 0.07994775 0.07986502 0.0798367 0.07977697 0.07964594 0.07947431 0.07931717 0.07920666 0.07914239
 0.07910293 0.07906325 0.07902285 0.07902183 0.07910503 0.07925434 0.07937703 0.07938761 0.07929415 0.07918324
 0.07912962 0.07914148 0.07918203 0.07921755 0.07924928 0.07931173 0.0794282 0.07956289 0.07964616 0.07965683
 0.07964882 0.07968919 0.07980329 0.0799796 0.08018184 0.08034854 0.08042958 0.08044276 0.08046308 0.08054172
 0.08066075 0.080776 0.0808759 0.08098118 0.0811076 0.08125503 0.08142789 0.08164455 0.08191708 0.08222713
 0.08252506 0.08275853 0.08291678 0.08305417 0.08325635 0.08356759 0.08395141 0.08432559 0.08463187 0.08487333
 0.08509374 0.08532739 0.08557555 0.08583412 0.0861256 0.08647775 0.08687752 0.08727598 0.08764094 0.08798122
 0.08831932 0.08866301 0.08900968 0.08936483 0.08974759 0.0901721 0.09061681 0.09102301 0.09134337 0.09159124
 0.09182992 0.09211972 0.09248134 0.09288563 0.09326038 0.09353665 0.09372079 0.09390187 0.09415689 0.09446765
 0.09476534 0.09503789 0.09534581 0.0957305 0.09614957 0.09652149 0.09681244 0.09706151 0.09732835 0.09762611
 0.09790652 0.09811164 0.09824057 0.0983538 0.09851024 0.09872249 0.09898494 0.0993103 0.09970269 0.1001157
 0.1004783 0.100757 0.1009676 0.1011398 0.1012981 0.1014608 0.1016302 0.1017936 0.1019486 0.1021051
 0.1022547 0.1023712 0.1024614 0.1025779 0.1027611 0.1030002 0.103274 0.1035908 0.1039542 0.1043219
 0.104647 0.10495 0.1052971 0.1056982 0.1060716 0.1063361 0.1064982 0.1066177 0.1067259 0.1068293
 0.1069658 0.1071942 0.1075271 0.1079149 0.1083029 0.1086724 0.1090267 0.1093629 0.1096645 0.1099076
 0.1100743 0.1101725 0.1102435 0.110345 0.1105211 0.1107787 0.1110826 0.1113772 0.1116162 0.1117721
 0.1118241 0.1117651 0.1116346 0.1115184 0.1114785 0.1114812 0.1114187 0.1112026 0.1108186 0.1102954
 0.1096529 0.1089027 0.1080831 0.1072715 0.1065548 0.1059966 0.105635 0.1055041 0.1056394 0.1060436
 0.1066488 0.1073287 0.1079544 0.1084253 0.1086549 0.1085697 0.1081533 0.1074767 0.1066595 0.1058078
 0.1049891 0.1042339 0.1035373 0.1028867 0.1023248 0.1019813 0.1020203 0.1025565 0.1036122 0.1051159
 0.1069107 0.108781 0.1105255 0.1120361 0.1133159 0.1144221 0.1154064 0.1163086 0.1171699 0.1180138
 0.1188182 0.1195402 0.1201705 0.1207399 0.1212751 0.1217707 0.1222006 0.12254 0.1227826 0.1229518
 0.1230839 0.1231906 0.1232544 0.1232698 0.1232636 0.1232575 0.1232268 0.1231114 0.1228603 0.122463
 0.1219646 0.1214791 0.1211935 0.1213294 0.1220493 0.123358 0.1250882 0.1269891 0.1288331 0.1304581
 0.1317675 0.1327443 0.1334569 0.1340168 0.1345125 0.1349846 0.1354446 0.1358951 0.1363341 0.136755
 0.1371529 0.1375349 0.1379213 0.1383275 0.1387411 0.1391292 0.1394765 0.1398091 0.1401711 0.140582
 0.1410178 0.1414357 0.1418183 0.142189 0.1425735 0.1429545 0.143286 0.1435523 0.1437891 0.1440499
 0.1443701 0.1447549 0.1451729 0.1455642 0.1458817 0.1461318 0.1463632 0.1466165 0.1468976 0.1471914
 0.147486 0.1477777 0.1480664 0.1483559 0.1486571 0.1489773 0.1492995 0.1495866 0.1498194 0.1500227
 0.1502409 0.1504925 0.1507573 0.151008 0.1512448 0.1514982 0.1517976 0.1521372 0.1524747 0.1527652
 0.152996 0.1531903 0.1533828 0.1535971 0.1538367 0.1540904 0.1543435 0.15459 0.1548359 0.1550911
 0.1553582 0.1556306 0.1558992 0.1561579 0.1564056 0.1566484 0.1568968 0.1571571 0.1574297 0.1577194
 0.1580357 0.1583728 0.1586972 0.1589711 0.1591859 0.1593627 0.1595289 0.159703 0.1598977 0.1601208
 0.1603713 0.1606381 0.1609067 0.1611676 0.1614192 0.1616668 0.1619153 0.1621662 0.1624175 0.1626658
 0.1629127 0.1631682 0.1634412 0.163725 0.1639992 0.1642497 0.1644802 0.1647045 0.1649327 0.1651647
 0.1653926 0.1656107 0.1658251 0.1660476 0.1662797 0.1665108 0.1667349 0.1669589 0.1671928 0.1674376
 0.1676862 0.1679292 0.1681615 0.1683841 0.1686033 0.1688266 0.1690591 0.169301 0.1695483 0.1697965
 0.1700422 0.1702816 0.170512 0.170736 0.1709605 0.1711892 0.1714195 0.1716471 0.1718692 0.172086
 0.172301 0.1725197 0.1727454 0.1729774 0.1732121 0.1734438 0.1736691 0.1738921 0.1741205 0.1743593
 0.1746095 0.1748695 0.1751311 0.1753824 0.1756188 0.1758481 0.176082 0.1763271 0.1765809 0.1768332
 0.1770759 0.1773114 0.1775484 0.1777912 0.1780362 0.1782754 0.1785003 0.1787089 0.1789111 0.1791172
 0.1793248 0.1795254 0.1797198 0.1799182 0.1801306 0.1803593 0.1805976 0.1808349 0.181068 0.1813038
 0.1815486 0.1818003 0.1820514 0.1822925 0.1825188 0.1827369 0.1829586 0.1831875 0.1834206 0.1836596
 0.1839056 0.1841526 0.1843951 0.1846338 0.1848687 0.1850986 0.1853272 0.1855589 0.1857942 0.1860354
 0.1862865 0.1865416 0.1867893 0.187025 0.1872491 0.1874627 0.1876747 0.1878979 0.1881336 0.1883738
 0.1886145 0.1888545 0.1890896 0.1893216 0.1895587 0.1898032 0.1900525 0.1903064 0.1905587 0.190796
 0.1910158 0.1912276 0.191438 0.191651 0.1918747 0.1921098 0.1923466 0.1925815 0.1928124 0.1930164
 0.1931437 0.1930824 0.1925473 0.1909581 0.187423 0.1809158 0.1706797 0.1566974 0.1398642 0.1216706
 0.1036505 0.08698165 0.07237004 0.06013745 0.05036571 0.04298827 0.0378519 0.03482608 0.03391578 0.03536751
 0.03978044 0.04775066 0.05854514 0.06892852 0.07441871 0.07281828 0.06631267 0.05948051 0.05549364 0.05458419
 0.0554014 0.05678468 0.05836353 0.06035025 0.06311053 0.06674628 0.07107574 0.07607917 0.08212174 0.08948494
 0.09779443 0.1061701 0.1139827 0.1213468 0.1288305 0.1367625 0.1448838 0.1526015 0.1594613 0.1653752
 0.1705347 0.175205 0.1795735 0.1837211 0.1876713 0.1914035 0.1947862 0.1975455 0.1993891 0.2002262
 0.2002803 0.1999727 0.1996776 0.1995721 0.1996741 0.1999546 0.200389 0.2009545 0.2016278 0.2023876
 0.2032101 0.2040707 0.2049451 0.2058048 0.2066204 0.2073768 0.2080722 0.2087037 0.2092685 0.209775
 0.2102391 0.2106725 0.2110819 0.2114736 0.2118511 0.2122171 0.2125734 0.2129139 0.2132241 0.2134953
 0.2137331 0.2139487 0.214151 0.2143504 0.2145577 0.2147771 0.2150043 0.2152301 0.2154458 0.2156499
 0.2158502 0.2160556 0.216266 0.2164751 0.2166788 0.2168763 0.2170696 0.2172631 0.2174617 0.2176657
 0.2178735 0.2180839 0.2182911 0.2184872 0.2186723 0.2188574 0.2190527 0.2192587 0.2194682 0.2196708
 0.2198633 0.2200592 0.2202784 0.2205222 0.22077 0.2210024 0.2212156 0.2214158 0.2216135 0.2218186
 0.2220294 0.2222318 0.2224164 0.2225939 0.2227871 0.223009 0.2232476 0.2234756 0.2236794 0.2238722
 0.2240727 0.2242811 0.2244845 0.2246737 0.2248521 0.2250424 0.2252734 0.2255475 0.2258324 0.2260986
 0.2263442 0.2265783 0.2268081 0.2270456 0.2272911 0.2275105 0.227665 0.2277727 0.2279183 0.2281844
 0.2285703 0.2289836 0.2293266 0.2295859 0.2298183 0.2300739 0.2303615 0.2306472 0.2308421 0.2308585
 0.2307546 0.2307579 0.2310602 0.2316237 0.2322445 0.2327607 0.2331485 0.2334612 0.2337384 0.2339689
 0.2341074 0.2341292 0.2340932 0.2341537 0.2344557 0.2349859 0.2355684 0.2360413 0.2363796 0.2366322
 0.2368347 0.2370088 0.2371196 0.2370167 0.2365947 0.2360781 0.2359614 0.2365318 0.2375479 0.2384963
 0.2390968 0.2394441 0.2397254 0.2399875 0.240194 0.2402655 0.2399536 0.2389775 0.237558 0.2365846
 0.2368794 0.2383641 0.2401972 0.2416199 0.2424419 0.2428567 0.2431092 0.24333 0.2434378 0.2431493
 0.2422925 0.2412224 0.2407309 0.2413163 0.2426258 0.2438361 0.2444949 0.2447593 0.2449584 0.2452263
 0.2454124 0.2450315 0.2435368 0.2411236 0.2391369 0.2391235 0.2413153 0.2443497 0.2466224 0.2476704
 0.2480426 0.2481135 0.2475379 0.2458783 0.2432615 0.2403179 0.2379875 0.2373998 0.2391261 0.2422355
 0.2448198 0.2458777 0.2461624 0.2469313 0.2484412 0.2499495 0.2506849 0.2504486 0.2494786 0.248021
 0.2462151 0.2444922 0.2438081 0.2449598 0.2476154 0.2504421 0.252342 0.2532835 0.253708 0.253231
 0.2503874 0.2443847 0.2372947 0.2334817 0.2357493 0.2424077 0.2490913 0.2530574 0.2546896 0.2554423
 0.2558905 0.2555771 0.2532781 0.2476637 0.2393881 0.2324185 0.2313549 0.2368774 0.2449768 0.2507018
 0.2515373 0.247671 0.2411005 0.2350346 0.2325861 0.2348895 0.2406102 0.2472697 0.2527296 0.2557744
 0.2561121 0.2542727 0.2515633 0.2497377 0.2497266 0.2502603 0.2488307 0.2448578 0.2406635 0.2380714
 0.2355863 0.2311552 0.2266616 0.2266925 0.2325828 0.2401973 0.2445772 0.2449653 0.2439374 0.2426947
 0.2390103 0.2304464 0.2189863 0.2111222 0.2121766 0.2207791 0.2300926 0.2345052 0.2340836 0.2325655
 0.2323708 0.2321453 0.2286838 0.2211144 0.2130277 0.2094703 0.2115796 0.2155524 0.2171442 0.2150735
 0.209556 0.2009123 0.1919603 0.1889 0.1960869 0.2106918 0.2249163 0.2324186 0.2306362 0.219382
 0.2017075 0.1857327 0.1807046 0.1887312 0.2022318 0.210913 0.2099404 0.2008034 0.1869133 0.1712583
 0.1577693 0.151739 0.1566451 0.1706273 0.1865836 0.1957271 0.1924326 0.1785836 0.1639105 0.1589936
 0.1656689 0.1757851 0.1803446 0.1776677 0.1721209 0.1684519 0.1690311 0.1734994 0.1791778 0.1835555
 0.1862924 0.18646 0.1798428 0.1640054 0.1451112 0.1339004 0.134525 0.1423748 0.1526677 0.1647547
 0.1765762 0.1817116 0.1766216 0.1673823 0.164536 0.1719013 0.1832922 0.1900833 0.1897501 0.1863368
 0.184183 0.183277 0.1814392 0.179369 0.1808273 0.1874508 0.1958957 0.2015653 0.2033982 0.2034671
 0.2034641 0.2034148 0.2028682 0.2016687 0.1998799 0.1978907 0.1962998 0.1952421 0.1942673 0.1930277
 0.191259 0.1877694 0.1807185 0.1702524 0.1601487 0.1548517 0.1547934 0.1566841 0.1583794 0.1601478
 0.1601527 0.1531421 0.1373818 0.1203801 0.113437 0.1207283 0.1361906 0.1504232 0.1578644 0.1572655
 0.1489077 0.1348734 0.1214422 0.1171501 0.1258233 0.1429041 0.1603479 0.17356 0.1819152 0.1849354
 0.1815319 0.1728607 0.163451 0.1586345 0.1613162 0.1706719 0.1823873 0.1897398 0.1868805 0.1746642
 0.1633093 0.1648753 0.1805634 0.1986791 0.2077762 0.2082799 0.2078463 0.2094584 0.2099414 0.2083506
 0.2093325 0.2167304 0.2278941 0.236277 0.2371807 0.2296011 0.2155943 0.2007331 0.1926744 0.195032
 0.2032679 0.2096198 0.2106213 0.2066846 0.1975094 0.1839243 0.1727128 0.1725688 0.1840291 0.198277
 0.2071631 0.2106296 0.2130738 0.2157503 0.215259 0.2087283 0.1986282 0.19125 0.1904805 0.1943954
 0.1985047 0.2004908 0.200252 0.1972215 0.1907153 0.1829112 0.1788798 0.1821897 0.1912201 0.200682
 0.2063494 0.207705 0.2066893 0.2051869 0.203751 0.2017703 0.1987584 0.1960119 0.1963421 0.2010454
 0.2077902 0.2129971 0.2159323 0.2189306 0.2237208 0.2290151 0.232049 0.2315823 0.2290778 0.2274337
 0.2286648 0.2322986 0.2357206 0.2364037 0.2343195 0.2321994 0.2330249 0.2371816 0.2424115 0.2463752
 0.2485641 0.2498023 0.2508513 0.2517493 0.2517956 0.2500893 0.2468155 0.2439896 0.2440353 0.2473875
 0.2520778 0.2557574 0.2575763 0.2580651 0.2578751 0.2570979 0.2556244 0.2537519 0.252201 0.2515553
 0.2518413 0.252683 0.2536919 0.2546256 0.2553529 0.2558435 0.2561567 0.2563663 0.2565215 0.2566812
 0.2568974 0.2571402 0.2573243 0.2574538 0.2576638 0.2580552 0.2585422 0.2589281 0.2590784 0.2589412
 0.2584538 0.257558 0.2563149 0.254885 0.2533516 0.2516676 0.2498824 0.248391 0.2478213 0.2485668
 0.2504196 0.2526979 0.2547227 0.2561637 0.257023 0.257447 0.2576043 0.2576426 0.25765 0.2576331
 0.2575558 0.2574024 0.2571955 0.256965 0.2567263 0.2564979 0.2563135 0.2561968 0.2561299 0.2560591
 0.2559285 0.2557091 0.2554114 0.2550758 0.2547332 0.2543635 0.2539021 0.253293 0.2525348 0.2516809
 0.2508059 0.2499675 0.2491791 0.2484035 0.2475842 0.2466835 0.2456813 0.2445467 0.2432613 0.2418868
 0.2405607 0.2393849 0.2383401 0.2373301 0.2362747 0.2351366 0.233902 0.2325761 0.2311864 0.229764
 0.2283252 0.2268749 0.225413 0.2239317 0.2224158 0.2208542 0.2192492 0.2176091 0.2159386 0.2142338
 0.2124715 0.2105837 0.2084514 0.205943 0.2029614 0.199454 0.1954114 0.1908885 0.1860245 0.1810187
 0.1760792 0.1713809 0.1670493 0.1631676 0.1598014 0.1570121 0.154851 0.1533512 0.1525299 0.1523864
 0.152898 0.1540203 0.155683 0.1577816 0.1601804 0.1627268 0.1652601 0.1676303 0.1697495 0.1716404
 0.1734132 0.1751711 0.1769269 0.1786138 0.1801665 0.1815694 0.1828243 0.18391 0.1848037 0.1855178
 0.186088 0.1865401 0.1868897 0.1871583 0.1873695 0.1875379 0.1876747 0.1877984 0.187937 0.1881177
 0.1883573 0.1886636 0.1890454 0.1895119 0.1900616 0.1906837 0.1913655 0.19209 0.1928373 0.1936053
 0.194417 0.1952991 0.1962719 0.1973626 0.1986035 0.2000049 0.2015424 0.2031727 0.2048489 0.2065155
 0.2080978 0.2095126 0.2107052 0.2116756 0.2124572 0.2130743 0.2135376 0.2138669 0.2140881 0.2142164
 0.2142583 0.2142214 0.2141077 0.2139104 0.2136238 0.2132477 0.2127906 0.2122813 0.2117631 0.211262
 0.2107716 0.2102769 0.2097778 0.2092854 0.2088082 0.2083447 0.2078847 0.2074195 0.2069477 0.2064663
 0.2059602 0.2054064 0.2047794 0.2040551 0.2032219 0.2022894 0.2012704 0.2001605 0.1989459 0.1976243
 0.1962112 0.1947325 0.1932138 0.1916665 0.1900837 0.1884455 0.1867174 0.1848595 0.1828713 0.1808233
 0.1788186 0.1769229 0.1751488 0.1734857 0.1719211 0.170446 0.1690561 0.1677415 0.1664764 0.165236
 0.1640221 0.1628568 0.1617545 0.1607115 0.1597213 0.158796 0.1579705 0.1572779 0.1567188 0.156259
 0.1558553 0.1554807 0.1551419 0.1548787 0.1547268 0.1546688 0.1546396 0.1545808 0.1544724 0.1543193
 0.1541374 0.1539499 0.1537755 0.1536211 0.1534859 0.1533498 0.1531521 0.1527972 0.1521889 0.1512637
 0.1500085 0.1484614 0.1466992 0.1448275 0.1429771 0.1412778 0.139814 0.1386168 0.1376882 0.1369994
 0.1364754 0.1360306 0.1356358 0.13534 0.1352214 0.1352994 0.1354743 0.1355811 0.1355434 0.1354583
 0.1355054 0.1357972 0.1363205 0.1369662 0.1375935 0.1381058 0.1384824 0.1387377 0.1388809 0.1389293
 0.1389121 0.1388389 0.1386925 0.1384623 0.1381637 0.1378259 0.137466 0.1370624 0.1365678 0.1359632
 0.1352724 0.134518 0.1337038 0.1328291 0.1318637 0.13075 0.1295232 0.1284036 0.1276871 0.1275449
 0.1279365 0.1286671 0.129525 0.1304001 0.1312356 0.1318659 0.132075 0.1319483 0.1320306 0.1329236
 0.134711 0.1368738 0.1387544 0.1400065 0.14061 0.1406389 0.1401557 0.1392278 0.1378841 0.1360873
 0.1338401 0.1312484 0.1284433 0.1255574 0.1227783 0.1202838 0.1181465 0.116381 0.115 0.1140475
 0.11363 0.1133852 0.1115657 0.1059422 0.09723109 0.09065723 0.09159401 0.09953243 0.1084036 0.1129903
 0.1131063 0.1115087 0.1101264 0.1092587 0.1087911 0.1088273 0.1094786 0.110632 0.111944 0.1130362
 0.1137424 0.1140901 0.1140306 0.1132292 0.1110234 0.1066422 0.09982388 0.09137505 0.08290569 0.07588796
 0.07099062 0.0680957 0.06662336 0.06587599 0.06538221 0.0650989 0.06529848 0.06625122 0.06800407 0.07042193
 0.07333362 0.07651523 0.07958923 0.0821657 0.08414413 0.08571203 0.08701187 0.08796884 0.08845983 0.08848864
 0.08815922 0.08759043 0.08688717 0.08611929 0.08528195 0.0843067 0.08318172 0.08207797 0.08126852 0.08086967
 0.08074552 0.08070696 0.08069023 0.08070211 0.0807202 0.08070672 0.08065316 0.08060852 0.08069268 0.08101179
 0.08151751 0.08202092 0.08236808 0.08254889 0.08264539 0.08269779 0.08259696 0.08217327 0.08147943 0.08084045
 0.0804334 0.07997563 0.07909774 0.07792076 0.07699412 0.07670461 0.07694777 0.07733744 0.07755312 0.07749379
 0.07728119 0.07719756 0.07749104 0.07809464</values></Ydata></ScSm><ScRf><Ydata ylabel="Single channel"><values byteorder="INTEL" format="FLOAT32" numvalues="1820"> 0.06051745 0.06068547 0.06079054 0.06082864 0.06082563 0.06082986 0.06089059 0.06102771 0.06121569 0.06139661
 0.06151915 0.06157279 0.06157756 0.06154751 0.06149291 0.06145689 0.06150606 0.0616626 0.06186635 0.06201673
 0.06205032 0.06199496 0.0619577 0.06202542 0.06214733 0.062141 0.06185958 0.06135829 0.06086359 0.060566
 0.06049857 0.06065708 0.06110989 0.06179724 0.06230238 0.06214515 0.0613817 0.06063378 0.06040218 0.06058701
 0.06077259 0.06070793 0.06038813 0.05996352 0.05978144 0.06029066 0.06160064 0.06311966 0.06376917 0.06266533
 0.05974981 0.05598927 0.05301919 0.05226743 0.05394712 0.05676783 0.05890459 0.0594561 0.05887751 0.05805273
 0.05734174 0.05669563 0.05627692 0.05649877 0.05745347 0.05852128 0.05868962 0.05742268 0.05530157 0.0536115
 0.05316661 0.05379735 0.05504176 0.05664782 0.05787672 0.05710172 0.05341091 0.04864038 0.04655788 0.04928114
 0.05501524 0.05980553 0.0610548 0.05898016 0.05546443 0.05249279 0.05139974 0.0525124 0.05510192 0.05799096
 0.0602647 0.06130352 0.06062256 0.05829725 0.05537818 0.05337971 0.05334858 0.05545533 0.05895932 0.06227271
 0.0636792 0.06260061 0.05998338 0.0573008 0.0555847 0.05542014 0.05708236 0.06025075 0.06399692 0.06732184
 0.06956197 0.07045645 0.07020307 0.06933404 0.06830926 0.06743703 0.06715946 0.06778322 0.06874596 0.06882657
 0.06747838 0.06556498 0.06447215 0.06467424 0.06535581 0.06540145 0.06452424 0.06308237 0.06097196 0.05760346
 0.05324928 0.0494104 0.04731838 0.04699649 0.04814551 0.0506207 0.05338471 0.05444863 0.05304235 0.05100042
 0.05094059 0.05347226 0.05688003 0.05922083 0.06012711 0.06067576 0.06199962 0.06412449 0.06582929 0.06557191
 0.06302147 0.0599106 0.05880924 0.06060223 0.06363788 0.06575553 0.06656095 0.06718016 0.06829427 0.06908423
 0.06808496 0.06492725 0.06127081 0.05977508 0.06177982 0.06596417 0.06930745 0.06932173 0.06572387 0.06049981
 0.05635771 0.05485434 0.05598412 0.05921442 0.06407582 0.06960745 0.07411076 0.07610041 0.07537882 0.07296129
 0.06991316 0.06636167 0.06204375 0.05794226 0.05649031 0.05927497 0.06500696 0.07059398 0.0738977 0.07479918
 0.07399708 0.07168719 0.06776468 0.06311461 0.06003782 0.06046138 0.0636128 0.06645587 0.06686909 0.06558149
 0.06461234 0.0647586 0.0652966 0.06552698 0.06577843 0.06684811 0.06885891 0.07095581 0.07212794 0.07212438
 0.07150483 0.07099022 0.07080323 0.07050195 0.06960502 0.06855337 0.06864956 0.07062454 0.07362861 0.07610787
 0.07736472 0.07780327 0.07787667 0.07729021 0.07542248 0.07248463 0.06998883 0.06962275 0.07161677 0.0746014
 0.07703172 0.07829899 0.07858326 0.07829192 0.07778443 0.07725798 0.07680604 0.07666774 0.0771693 0.07825531
 0.07937942 0.08004875 0.08022709 0.08009212 0.07968791 0.07899754 0.07819167 0.07762693 0.0775904 0.078087
 0.07888648 0.0797288 0.08041322 0.08075503 0.08064885 0.08021526 0.07973249 0.07938172 0.07918087 0.07915703
 0.07940073 0.07989897 0.08045778 0.08086644 0.08106351 0.08110544 0.08104749 0.08090591 0.0807009 0.08050093
 0.08042009 0.08054128 0.08081844 0.08110467 0.081321 0.081534 0.08180346 0.08203005 0.08205649 0.08188035
 0.08167014 0.08158336 0.08163882 0.08175923 0.08186118 0.0818691 0.08170192 0.08134277 0.08093857 0.08074536
 0.08092143 0.08141483 0.08205806 0.08268822 0.08316819 0.08341438 0.08346143 0.08342534 0.08336778 0.08325299
 0.08305191 0.08283917 0.08276654 0.08294605 0.08334969 0.08382566 0.08421922 0.08446304 0.0845703 0.08461022
 0.0846892 0.08486611 0.085064 0.08514325 0.08508067 0.08500689 0.08504678 0.0851767 0.0852647 0.08522676
 0.08512358 0.08509949 0.08523284 0.08546644 0.08568896 0.085857 0.08601777 0.08622047 0.08642158 0.08649959
 0.08638752 0.08617137 0.086009 0.08596391 0.08598227 0.08602595 0.08613984 0.08635426 0.08659035 0.08672477
 0.08672956 0.08669952 0.08673275 0.08681525 0.08684473 0.08675196 0.08657248 0.08640509 0.08632702 0.08634974
 0.08642807 0.08649491 0.08649921 0.0864308 0.08631822 0.08620131 0.08610643 0.08605427 0.08608429 0.08623906
 0.0864953 0.08672509 0.08677034 0.08658285 0.08628237 0.08605614 0.08599363 0.08602098 0.08599243 0.08583117
 0.08557811 0.08532627 0.08513478 0.08500368 0.08490402 0.08481779 0.08476144 0.08478025 0.08490066 0.08506799
 0.08515176 0.08505177 0.08479913 0.08452617 0.08434248 0.08426526 0.0842493 0.08424442 0.08423378 0.08424702
 0.08431987 0.0844225 0.08446451 0.08439758 0.08427829 0.08421089 0.08426283 0.08443636 0.08466572 0.08483393
 0.08485376 0.08475576 0.08465825 0.08464265 0.08469444 0.08476432 0.08483776 0.08492681 0.08503035 0.08513515
 0.0852477 0.08540099 0.08562033 0.08588712 0.08614124 0.08632416 0.08642936 0.08651718 0.08667208 0.08693323
 0.08726196 0.08757748 0.0878237 0.08800636 0.08817231 0.08835659 0.08855513 0.08875372 0.08896832 0.08923243
 0.08954909 0.08988234 0.09019773 0.09049025 0.09077232 0.09105362 0.09133898 0.09163987 0.09198282 0.09239072
 0.09283744 0.09323645 0.09350654 0.09365219 0.09376526 0.09395394 0.09426998 0.09466892 0.09502468 0.09522707
 0.0952983 0.09538034 0.09557742 0.09584947 0.09609866 0.09632107 0.09661161 0.09702688 0.09749591 0.09788461
 0.09812547 0.09826934 0.0984176 0.09861367 0.09880874 0.09893701 0.09900726 0.09909085 0.09922895 0.09940042
 0.09959538 0.09986326 0.1002419 0.1006753 0.1010541 0.1013225 0.1015065 0.1016541 0.1017866 0.1018953
 0.1019591 0.101974 0.1019819 0.1020408 0.1021521 0.1022511 0.1022907 0.1023052 0.1023659 0.1025081
 0.1027272 0.1030106 0.1033331 0.103643 0.1039048 0.1041564 0.1044728 0.1048527 0.1051877 0.105377
 0.1054377 0.1054603 0.1054911 0.1055212 0.1055682 0.1056958 0.105939 0.1062617 0.1066056 0.1069468
 0.1072912 0.1076361 0.1079508 0.108186 0.1083038 0.1083117 0.1082714 0.1082717 0.1083845 0.1086277
 0.1089554 0.1092892 0.1095691 0.1097697 0.1098761 0.109879 0.1098186 0.1097973 0.1098987 0.1100899
 0.1102391 0.1102289 0.1100308 0.1096721 0.1091765 0.108562 0.107876 0.1072031 0.1066315 0.1062171
 0.1059827 0.1059491 0.106153 0.1066093 0.107256 0.1079655 0.1086188 0.1091404 0.1094573 0.1094782
 0.1091577 0.1085581 0.1078179 0.1070682 0.1063861 0.1057852 0.1052233 0.1046547 0.1041194 0.1037741
 0.1038131 0.1043565 0.1053971 0.1068061 0.1083679 0.1098473 0.1110833 0.1120493 0.1128267 0.1135165
 0.1141759 0.1148266 0.1154873 0.1161631 0.116815 0.117384 0.1178561 0.1182735 0.118679 0.1190704
 0.1194156 0.1196898 0.1199024 0.1200957 0.1203046 0.1205013 0.120608 0.1205831 0.120471 0.1203464
 0.120231 0.1200804 0.1198365 0.1194776 0.1190464 0.1186592 0.1184881 0.1186983 0.1193598 0.1203992
 0.1216502 0.1229595 0.124234 0.1253955 0.1263475 0.1270254 0.1274601 0.1277557 0.1280134 0.1282875
 0.1285902 0.1289089 0.1292215 0.1295132 0.1297866 0.1300617 0.1303668 0.1307162 0.1310841 0.1314137
 0.1316697 0.13188 0.1321168 0.1324329 0.1328132 0.1331951 0.1335369 0.1338566 0.1341846 0.1344991
 0.134745 0.134913 0.1350626 0.1352633 0.135543 0.1358887 0.1362592 0.1365935 0.1368452 0.1370236
 0.1371836 0.1373713 0.1375918 0.1378279 0.1380681 0.1383131 0.1385683 0.1388415 0.1391414 0.1394633
 0.139773 0.1400212 0.1401885 0.1403121 0.1404554 0.140651 0.1408808 0.141107 0.1413151 0.1415288
 0.1417836 0.1420824 0.1423811 0.1426249 0.1427977 0.1429294 0.1430626 0.1432225 0.1434146 0.1436327
 0.1438607 0.1440783 0.1442765 0.1444664 0.1446685 0.1448914 0.1451255 0.1453537 0.1455644 0.1457578
 0.145943 0.1461313 0.1463327 0.146561 0.1468305 0.1471347 0.1474337 0.1476795 0.1478577 0.1479937
 0.1481211 0.1482577 0.1484079 0.1485732 0.148754 0.1489496 0.1491582 0.1493749 0.1495917 0.1498043
 0.1500154 0.1502294 0.1504448 0.1506557 0.1508616 0.151073 0.1513013 0.1515433 0.1517806 0.1519933
 0.1521764 0.1523436 0.1525161 0.1527047 0.1529008 0.1530889 0.1532652 0.1534418 0.1536326 0.1538398
 0.154054 0.1542634 0.1544627 0.1546562 0.1548498 0.1550435 0.1552328 0.1554161 0.1555979 0.1557853
 0.1559825 0.1561872 0.1563929 0.1565958 0.156796 0.1569932 0.1571861 0.1573795 0.1575817 0.1577935
 0.1580055 0.1582077 0.1583988 0.1585856 0.1587761 0.1589726 0.1591716 0.1593698 0.159566 0.1597591
 0.15995 0.1601456 0.1603542 0.1605766 0.1608069 0.1610378 0.1612628 0.1614777 0.1616844 0.1618888
 0.1620948 0.1623016 0.1625071 0.1627103 0.1629142 0.1631253 0.1633485 0.1635789 0.1638029 0.1640069
 0.1641855 0.1643465 0.1645046 0.1646691 0.1648414 0.1650221 0.1652128 0.1654086 0.1656018 0.1657923
 0.1659857 0.1661847 0.1663873 0.1665897 0.1667882 0.1669818 0.167175 0.1673709 0.1675673 0.1677645
 0.1679668 0.1681752 0.1683855 0.1685959 0.1688074 0.1690204 0.1692356 0.1694521 0.1696626 0.1698602
 0.1700483 0.1702379 0.1704376 0.1706509 0.1708732 0.1710933 0.1713049 0.171514 0.171727 0.1719422
 0.1721571 0.1723709 0.1725795 0.172782 0.1729883 0.1732054 0.1734271 0.1736469 0.173866 0.1740848
 0.1743001 0.174512 0.174721 0.1749263 0.1751321 0.1753427 0.1755537 0.1757616 0.1759724 0.1761882
 0.1764003 0.1766041 0.1767987 0.1769704 0.1770813 0.1770294 0.1765461 0.1750886 0.1718284 0.165819
 0.1563744 0.1434962 0.1280158 0.1112957 0.09473319 0.07940577 0.06596799 0.05472264 0.04574498 0.03896858
 0.03425116 0.03147629 0.03064924 0.03199299 0.03605831 0.04339643 0.05332913 0.0628702 0.0678959 0.06639994
 0.06040878 0.05413393 0.05047932 0.04964929 0.05040572 0.05168915 0.05315885 0.05500518 0.05756244 0.06092207
 0.06491013 0.0695056 0.07505409 0.08182853 0.08948858 0.0972179 0.1044305 0.1112298 0.1181392 0.1254628
 0.1329627 0.1400921 0.1464286 0.1518889 0.1566533 0.1609702 0.1650086 0.1688349 0.1724736 0.175923
 0.179073 0.1816598 0.1833902 0.1841686 0.1842096 0.1839186 0.1836503 0.1835656 0.1836757 0.1839502
 0.1843647 0.1848965 0.1855249 0.1862333 0.1870004 0.1878014 0.1886152 0.1894188 0.1901852 0.1908994
 0.1915638 0.1921807 0.1927435 0.1932491 0.1937054 0.194126 0.1945243 0.1949089 0.1952775 0.1956224
 0.1959416 0.1962392 0.19652 0.1967873 0.197042 0.19728 0.1974985 0.1977025 0.1979024 0.1981061
 0.1983186 0.1985402 0.198764 0.1989835 0.1991995 0.1994116 0.1996106 0.1997908 0.1999611 0.2001359
 0.2003197 0.2005104 0.2007065 0.2009081 0.2011161 0.2013314 0.2015493 0.2017598 0.2019569 0.2021442
 0.2023299 0.2025198 0.2027139 0.2029062 0.2030921 0.2032783 0.2034784 0.2036942 0.2039133 0.2041245
 0.2043266 0.2045271 0.2047381 0.2049676 0.2052031 0.205415 0.2055875 0.2057381 0.205901 0.2060957
 0.2063147 0.206536 0.2067458 0.2069467 0.2071461 0.2073454 0.2075411 0.2077267 0.2078986 0.2080708
 0.208273 0.2085174 0.2087823 0.2090428 0.2092946 0.2095376 0.2097668 0.209989 0.2102157 0.2104317
 0.2106039 0.2107354 0.2108866 0.2111258 0.2114591 0.2118179 0.2121243 0.2123629 0.2125766 0.2128125
 0.2130904 0.2133828 0.2135943 0.2136282 0.2135336 0.2135266 0.2137924 0.2143027 0.2148763 0.2153673
 0.2157478 0.216056 0.2163247 0.2165488 0.2166904 0.2167216 0.2166886 0.2167315 0.216991 0.2174642
 0.217994 0.2184308 0.218752 0.2190022 0.2192066 0.2193745 0.2194736 0.2193761 0.2189941 0.2185351
 0.218449 0.2189911 0.2199305 0.2207971 0.2213464 0.221678 0.2219653 0.2222439 0.2224666 0.2225412
 0.2222289 0.221286 0.2199501 0.2190639 0.2193779 0.2207929 0.2225154 0.2238508 0.2246342 0.2250437
 0.2252977 0.2255159 0.2256295 0.2253803 0.2246087 0.2236396 0.2232035 0.2237621 0.2249925 0.226136
 0.2267751 0.2270564 0.2272832 0.2275713 0.227769 0.2274232 0.2260365 0.2238041 0.2219793 0.2219912
 0.2240465 0.2268801 0.2290099 0.2300106 0.2303892 0.2304866 0.2299735 0.2284362 0.2259946 0.2232475
 0.221084 0.2205624 0.2222116 0.2251534 0.2276012 0.2286216 0.2289208 0.2296704 0.2311065 0.2325393
 0.2332549 0.2330702 0.2322037 0.2308793 0.2292207 0.2276303 0.2270109 0.2281206 0.2306534 0.2333541
 0.2351822 0.2361008 0.236524 0.2360948 0.2334464 0.227848 0.2212514 0.2177403 0.219921 0.2261952
 0.2324778 0.2362144 0.2377755 0.238526 0.2389992 0.238756 0.2366413 0.2314102 0.2236849 0.2171926
 0.2162452 0.2214702 0.2291016 0.2345026 0.2353242 0.2317435 0.2256314 0.2200042 0.217791 0.2200536
 0.2255222 0.2318515 0.2370262 0.2399129 0.240251 0.2385454 0.2360299 0.2343641 0.2344302 0.235025
 0.2337753 0.23013 0.2262698 0.2239019 0.2216205 0.2175159 0.2133884 0.2135604 0.2192634 0.2265702
 0.2308006 0.2312628 0.2304114 0.22938 0.2260388 0.2180562 0.2073084 0.1999699 0.2011106 0.209429
 0.2184175 0.2227405 0.2224763 0.2211989 0.2212157 0.2212145 0.218107 0.2110605 0.2035444 0.2004126
 0.2027352 0.2068437 0.2086712 0.20699 0.2019784 0.1939216 0.1855605 0.18293 0.1902685 0.2048318
 0.2190424 0.2267233 0.2253513 0.2147058 0.1977667 0.1825415 0.1781607 0.186692 0.2006234 0.209774
 0.2093632 0.2008482 0.1875849 0.1725525 0.1597464 0.1545847 0.1606649 0.1761262 0.193668 0.2041472
 0.2016222 0.1880086 0.1735567 0.1694747 0.1776861 0.189468 0.1952154 0.1931622 0.1880103 0.1848988
 0.1864481 0.1922781 0.1994033 0.2050433 0.2088406 0.2096863 0.2027224 0.1851748 0.1640741 0.1516267
 0.1525414 0.1616094 0.173458 0.1873791 0.2009903 0.206924 0.201136 0.1905776 0.1872814 0.1955872
 0.2084284 0.215976 0.2153643 0.2112163 0.2085062 0.2072695 0.2050684 0.2027064 0.204429 0.2120626
 0.2218122 0.228494 0.230926 0.2314514 0.2319706 0.2324973 0.2325045 0.2318031 0.2304632 0.2289327
 0.2278992 0.2275199 0.2272803 0.2267784 0.2256857 0.2225393 0.2150747 0.2034108 0.1920553 0.1863278
 0.1867222 0.1892898 0.1915037 0.1937191 0.1936976 0.1850825 0.1657979 0.1449264 0.1360974 0.1443197
 0.1622548 0.1785793 0.186662 0.1851285 0.1744664 0.1572173 0.1406849 0.1346613 0.1434421 0.1616994
 0.1801767 0.1936726 0.2016415 0.2037649 0.1989565 0.188516 0.1774069 0.1714192 0.1736337 0.1830647
 0.1949987 0.2022122 0.1984958 0.1848154 0.1720502 0.1729791 0.1888787 0.2074147 0.2165111 0.2165885
 0.2156905 0.2169787 0.2171513 0.2152099 0.2159922 0.2235285 0.2351088 0.2439548 0.2451765 0.2377059
 0.2236661 0.20886 0.20126 0.2045822 0.2139928 0.2213064 0.2228763 0.2191196 0.2096988 0.1955486
 0.1839854 0.1843106 0.1970424 0.2126992 0.2225672 0.2266322 0.2296378 0.2329127 0.2327612 0.2260742
 0.2155377 0.2079851 0.2076439 0.2124394 0.2175094 0.2203318 0.2207558 0.2180966 0.2115615 0.2035526
 0.1996965 0.2039494 0.2144733 0.2253219 0.2317344 0.2331057 0.2315958 0.2293293 0.22697 0.2238866
 0.2195618 0.2154284 0.2145955 0.2185287 0.2247214 0.2292791 0.2313834 0.2335546 0.2376859 0.2424341
 0.2448535 0.2436047 0.2402224 0.2377762 0.23841 0.2416406 0.2447209 0.2449886 0.2423988 0.2397983
 0.2403041 0.2443349 0.2495561 0.2535315 0.2557035 0.2568985 0.2579052 0.2587842 0.2588202 0.2570643
 0.2536794 0.2507291 0.2507128 0.2540823 0.2588118 0.2624958 0.2642961 0.2647968 0.2646737 0.2639951
 0.262617 0.2608154 0.2592995 0.2586495 0.2589016 0.2596958 0.2606529 0.2615337 0.2622138 0.2626729
 0.2629707 0.2631659 0.2632871 0.2633769 0.2634727 0.2635288 0.2634636 0.2633227 0.2632959 0.2635064
 0.2638502 0.2641096 0.2641533 0.2639433 0.2634123 0.2624799 0.2611927 0.2597235 0.2581787 0.2565188
 0.2547842 0.2533652 0.2528967 0.2537797 0.2558058 0.2582782 0.2604866 0.2620688 0.2630213 0.2635106
 0.2637188 0.2637842 0.263784 0.2637354 0.2636206 0.2634204 0.2631339 0.2627757 0.2623704 0.2619582
 0.2615916 0.2613027 0.261068 0.2608185 0.2604916 0.260067 0.2595607 0.259005 0.2584298 0.2578378
 0.25719 0.2564324 0.255547 0.2545795 0.2536196 0.2527464 0.2519749 0.251251 0.2505042 0.2496956
 0.2488055 0.2478027 0.246679 0.2455146 0.2444561 0.2435984 0.2429092 0.242279 0.2416146 0.2408638
 0.2399981 0.2390185 0.2379654 0.2368851 0.2357915 0.2346733 0.2335164 0.2323012 0.2309982 0.2295878
 0.2280754 0.226485 0.2248504 0.2232019 0.2215323 0.2197663 0.2177798 0.215445 0.2126524 0.2093167
 0.2054036 0.2009707 0.1961768 0.1912371 0.186354 0.1816807 0.177337 0.1734351 0.170073 0.1673195
 0.165221 0.1638151 0.1631246 0.1631481 0.1638645 0.1652351 0.1671927 0.169634 0.1724253 0.1754092
 0.1784112 0.1812649 0.1838664 0.1862194 0.1884109 0.1905152 0.192522 0.1943651 0.196001 0.1974322
 0.1986691 0.1997066 0.200547 0.201224 0.2017921 0.2022933 0.2027391 0.2031201 0.2034298 0.2036744
 0.2038704 0.2040413 0.204209 0.2043833 0.2045632 0.2047531 0.2049699 0.2052386 0.2055863 0.2060302
 0.2065579 0.2071303 0.2077146 0.2083072 0.2089206 0.2095666 0.2102651 0.2110575 0.2119956 0.2131075
 0.2143755 0.2157437 0.2171414 0.2184922 0.2197131 0.2207298 0.2215038 0.2220336 0.2223319 0.2224161
 0.2223169 0.222078 0.2217408 0.2213342 0.2208735 0.2203616 0.2197941 0.2191746 0.2185202 0.2178475
 0.2171598 0.2164565 0.2157519 0.2150695 0.2144139 0.2137682 0.2131214 0.2124837 0.2118676 0.2112699
 0.2106779 0.2100848 0.2094941 0.208918 0.2083648 0.2078163 0.2072201 0.2065205 0.2056965 0.2047625
 0.2037389 0.2026348 0.201453 0.2001952 0.1988565 0.1974259 0.1959025 0.1943025 0.192646 0.1909336
 0.1891387 0.1872309 0.1852185 0.1831701 0.1811813 0.1793203 0.1776055 0.1760243 0.1745521 0.1731595
 0.1718235 0.1705371 0.1693043 0.1681295 0.1670159 0.1659646 0.1649742 0.1640417 0.1631666 0.1623565
 0.1616268 0.1609893 0.1604383 0.1599564 0.1595344 0.1591763 0.1588946 0.158714 0.1586607 0.1587214
 0.1588237 0.1588781 0.1588363 0.1587123 0.1585599 0.15843 0.1583364 0.1582614 0.1581858 0.1580906
 0.1579314 0.1576278 0.1570802 0.1562033 0.1549695 0.1534325 0.1516942 0.1498631 0.148053 0.1463851
 0.1449536 0.1438018 0.1429313 0.1423008 0.1418264 0.1414303 0.1410976 0.1408745 0.1408202 0.1409466
 0.141169 0.1413432 0.1414019 0.1414385 0.1416241 0.1420627 0.1427349 0.143529 0.1443106 0.1449913
 0.1455358 0.1459192 0.1461265 0.1461914 0.1461723 0.1460925 0.1459488 0.1457525 0.14552 0.1452497
 0.1449256 0.1445215 0.1440131 0.1434104 0.1427476 0.1420311 0.1412431 0.1403719 0.1393891 0.1382536
 0.1370261 0.1359276 0.1352222 0.1350655 0.1354488 0.1362164 0.1371655 0.138184 0.1392157 0.1400712
 0.1404837 0.1405077 0.1407172 0.1417851 0.1438363 0.146305 0.148439 0.1498529 0.150568 0.1507008
 0.1503066 0.1494252 0.1480606 0.1461582 0.1437348 0.1409413 0.1379341 0.1348356 0.1318355 0.1291477
 0.1268808 0.1250555 0.1236535 0.1226801 0.1222502 0.1220242 0.1201571 0.1142299 0.104985 0.09804261
 0.09917407 0.1078006 0.1173841 0.1223402 0.122496 0.1208163 0.1193482 0.1183831 0.1178065 0.1177857
 0.1184785 0.1197341 0.1211307 0.122248 0.1229323 0.1232487 0.1231721 0.1223343 0.1199726 0.1152094
 0.1077602 0.09852879 0.08929341 0.08166697 0.0763655 0.07324256 0.07166645 0.07087834 0.07034522 0.07001112
 0.0702032 0.07124924 0.07319989 0.07588921 0.07910813 0.08258696 0.08591285 0.08869556 0.09084897 0.09256206
 0.09397708 0.09502561 0.09558126 0.09563726 0.09530006 0.09470031 0.09395215 0.09313326 0.09223869 0.09118858
 0.0899746 0.08879817 0.08795311 0.08754486 0.08742359 0.08739689 0.08738725 0.08738053 0.08735419 0.0872882
 0.08718491 0.08709166 0.08712433 0.08739363 0.08787059 0.08838345 0.08876467 0.08896837 0.08905462 0.08906108
 0.08887603 0.0883301 0.0874919 0.08670775 0.08616545 0.0855814 0.08458228 0.08329846 0.08230679 0.08200483
 0.08224899 0.08259901 0.08272794 0.08257659 0.08230998 0.08222762 0.08256224 0.08320265 0.0836959 0.08366963
</values></Ydata></ScRf><Data_Parameters_AB><parameter name="DPF">1</parameter><parameter name="NPT">3497</parameter><parameter name="FXV">3996</parameter><parameter name="LXV">500</parameter><parameter name="CSF">1</parameter><parameter name="MXY">0.0826529264450073</parameter><parameter name="MNY">-0.0588356666266918</parameter><parameter name="DAT">02/06/2022</parameter><parameter name="TIM">11:26:36.181 (GMT+2)</parameter><parameter name="DXU">WN</parameter></Data_Parameters_AB><AB__Qtest><MainReport name="Quality Test Report"><Header><Line><Legend>Test result ok/not ok [1/0]: </Legend><Value>0</Value></Line><Line><Legend>Method file: </Legend><Value>C:\Users\Public\Documents\Bruker\OPUS_8.2.28\QT\IRBT_v3_default.QT</Value></Line></Header><Matrix><Line><Legend></Legend><Legend>min</Legend><Legend>max</Legend><Legend>measured</Legend></Line><Line><Value>Absorption (X-Range 1):</Value><Value>0.400000</Value><Value>2.000000</Value><Value>0.093681</Value></Line><Line><Value>Noise (X-Range 4):</Value><Value></Value><Value>0.000300</Value><Value>0.000049</Value></Line><Line><Value>Signal/Noise (X-Range 2):</Value><Value>200.000000</Value><Value></Value><Value>34.684226</Value></Line><Line><Value>Signal/Noise (X-Range 3):</Value><Value>40.000000</Value><Value></Value><Value>19.968823</Value></Line><Line><Value>Water vapour (X-Range 5):</Value><Value></Value><Value>0.000300</Value><Value>0.000031</Value></Line><Line><Value>Signal/Water (X-Range 2):</Value><Value>100.000000</Value><Value></Value><Value>55.224902</Value></Line><Line><Value>Signal/Water (X-Range 3):</Value><Value>20.000000</Value><Value></Value><Value>31.794750</Value></Line><Line><Value>Fringes (X-Range 6):</Value><Value></Value><Value>0.000100</Value><Value>0.000050</Value></Line></Matrix></MainReport></AB__Qtest><Data_Parameters_ScSm><parameter name="DPF">1</parameter><parameter name="NPT">1814</parameter><parameter name="FXV">3996.33169228125</parameter><parameter name="LXV">499.541461535156</parameter><parameter name="CSF">1</parameter><parameter name="MXY">0.25907838344574</parameter><parameter name="MNY">0.0339157842099667</parameter><parameter name="DAT">02/06/2022</parameter><parameter name="TIM">11:26:36.181 (GMT+2)</parameter><parameter name="DXU">WN</parameter></Data_Parameters_ScSm><Data_Parameters_ScRf><parameter name="DPF">1</parameter><parameter name="NPT">1820</parameter><parameter name="FXV">4004.04661832813</parameter><parameter name="LXV">495.683998511719</parameter><parameter name="CSF">1</parameter><parameter name="MXY">0.264796793460846</parameter><parameter name="MNY">0.0306492373347282</parameter><parameter name="DAT">02/06/2022</parameter><parameter name="TIM">11:26:10.329 (GMT+2)</parameter><parameter name="DXU">WN</parameter></Data_Parameters_ScRf><Optic_Parameters_Rf><parameter name="APR">0</parameter><parameter name="APT">Open</parameter><parameter name="BMS">KBr</parameter><parameter name="DTC">RT-DLaTGS_IR-Biotyper [Microplate reader]</parameter><parameter name="HPF">0</parameter><parameter name="LPF">10.0</parameter><parameter name="LPV">4000</parameter><parameter name="PGR">0</parameter><parameter name="RCH">Module port</parameter><parameter name="RDX">0</parameter><parameter name="SRC">MIR</parameter><parameter name="VEL">10.0</parameter><parameter name="SON">Off</parameter></Optic_Parameters_Rf><Acquisition_Parameters_Rf><parameter name="ADT">1</parameter><parameter name="AQM">DD</parameter><parameter name="CFE">0</parameter><parameter name="COR">0</parameter><parameter name="DEL">0</parameter><parameter name="DLY">0</parameter><parameter name="HFW">8000</parameter><parameter name="LFW">0</parameter><parameter name="NSR">32</parameter><parameter name="PLF">AB</parameter><parameter name="RES">6</parameter><parameter name="RGN">-1</parameter><parameter name="STR">0</parameter><parameter name="TCL">MakeCompatibleScalar (0, {WSV=1.000000, ARV=0});</parameter><parameter name="TDL">37</parameter><parameter name="RPO">0</parameter></Acquisition_Parameters_Rf><FT_-_Parameters_Rf><parameter name="APF">B3</parameter><parameter name="HFQ">500</parameter><parameter name="LFQ">4000</parameter><parameter name="NLI">0</parameter><parameter name="PHR">24</parameter><parameter name="PHZ">ML</parameter><parameter name="SPZ">NO</parameter><parameter name="ZFF">1</parameter></FT_-_Parameters_Rf><Optic_Parameters_><parameter name="APR">0</parameter><parameter name="APT">Open</parameter><parameter name="BMS">KBr</parameter><parameter name="CHN">Module port</parameter><parameter name="DTC">RT-DLaTGS_IR-Biotyper [Microplate reader]</parameter><parameter name="HPF">0</parameter><parameter name="LPF">10.0</parameter><parameter name="LPV">4000</parameter><parameter name="PGN">0</parameter><parameter name="RDX">0</parameter><parameter name="SRC">MIR</parameter><parameter name="VEL">10.0</parameter><parameter name="SON">Off</parameter></Optic_Parameters_><FT_-_Parameters_><parameter name="APF">B3</parameter><parameter name="HFQ">500</parameter><parameter name="LFQ">4000</parameter><parameter name="NLI">0</parameter><parameter name="PHR">24</parameter><parameter name="PHZ">ML</parameter><parameter name="SPZ">NO</parameter><parameter name="ZFF">1</parameter></FT_-_Parameters_><Acquisition_Parameters_><parameter name="ADT">1</parameter><parameter name="AQM">DD</parameter><parameter name="CFE">0</parameter><parameter name="COR">0</parameter><parameter name="DEL">0</parameter><parameter name="DLY">0</parameter><parameter name="HFW">8000</parameter><parameter name="LFW">0</parameter><parameter name="NSS">32</parameter><parameter name="PLF">AB</parameter><parameter name="RES">6</parameter><parameter name="SOT">0</parameter><parameter name="TCL">MakeCompatibleScalar (0, {WSV=1.000000, ARV=0});</parameter><parameter name="TDL">37</parameter><parameter name="SPO">0</parameter><parameter name="SGN">-1</parameter></Acquisition_Parameters_><Instrument_Parameters_Rf><parameter name="HFL">15800.168544</parameter><parameter name="LFL">0</parameter><parameter name="LWN">15800.168544</parameter><parameter name="ABP">32197</parameter><parameter name="SSP">1</parameter><parameter name="ARG">2</parameter><parameter name="ASG">2</parameter><parameter name="ASS">32</parameter><parameter name="GFW">16</parameter><parameter name="GBW">16</parameter><parameter name="BFW">0</parameter><parameter name="BBW">0</parameter><parameter name="PKA">7274</parameter><parameter name="PKL">4996</parameter><parameter name="PRA">7446</parameter><parameter name="PRL">5001</parameter><parameter name="P2A">1</parameter><parameter name="P2L">1</parameter><parameter name="P2R">1</parameter><parameter name="P2K">1</parameter><parameter name="DAQ">0</parameter><parameter name="AG2">1</parameter><parameter name="SSM">1</parameter><parameter name="RSN">26047</parameter><parameter name="CRR">0</parameter><parameter name="SRT">1654169170.33</parameter><parameter name="DUR">19.6369934082031</parameter><parameter name="TSC">28.1</parameter><parameter name="MVD">0.278620213270187</parameter><parameter name="AN1">0.225831565852994</parameter><parameter name="AN2">0</parameter><parameter name="VSN">2.485 Apr  4 2017</parameter><parameter name="SRN">0085</parameter><parameter name="CAM">0</parameter><parameter name="INS">IR-Biotyper</parameter><parameter name="FOC">69</parameter><parameter name="RDY">1</parameter><parameter name="ARS">32</parameter></Instrument_Parameters_Rf><Sample_Parameters_><parameter name="BLD"></parameter><parameter name="CNM">Admin</parameter><parameter name="CPY"></parameter><parameter name="DPM"></parameter><parameter name="EXP">IRBT_v3_32Scans.XPM</parameter><parameter name="LCT"></parameter><parameter name="SFM">Microplate, HTS-XT</parameter><parameter name="SNM">220602-1054_RTF49M (D_18)_A3_a84ac8bf-2e44-4162-bc6f-7d89a47753be.0</parameter><parameter name="XPP">C:\Users\Public\Documents\Bruker\OPUS_8.2.28\XPM</parameter><parameter name="IST">OK</parameter><parameter name="CPG">1252</parameter><parameter name="UID">4d36f537-e051-47e9-8d0c-531785884860</parameter></Sample_Parameters_><Instrument_Parameters_><parameter name="HFL">15800.168544</parameter><parameter name="LFL">0</parameter><parameter name="LWN">15800.168544</parameter><parameter name="ABP">32197</parameter><parameter name="SSP">1</parameter><parameter name="ASG">2</parameter><parameter name="ARG">2</parameter><parameter name="ASS">32</parameter><parameter name="GFW">16</parameter><parameter name="GBW">16</parameter><parameter name="BFW">0</parameter><parameter name="BBW">0</parameter><parameter name="PKA">7384</parameter><parameter name="PKL">4988</parameter><parameter name="PRA">7685</parameter><parameter name="PRL">4993</parameter><parameter name="P2A">1</parameter><parameter name="P2L">1</parameter><parameter name="P2R">1</parameter><parameter name="P2K">1</parameter><parameter name="DAQ">0</parameter><parameter name="AG2">1</parameter><parameter name="SSM">1</parameter><parameter name="RSN">13649</parameter><parameter name="CRR">0</parameter><parameter name="SRT">1654169196.182</parameter><parameter name="DUR">19.6369934082031</parameter><parameter name="TSC">28.1</parameter><parameter name="MVD">0.244965001940727</parameter><parameter name="AN1">0.225845713885503</parameter><parameter name="AN2">0</parameter><parameter name="VSN">2.485 Apr  4 2017</parameter><parameter name="SRN">0085</parameter><parameter name="CAM">0</parameter><parameter name="INS">IR-Biotyper</parameter><parameter name="FOC">69</parameter><parameter name="RDY">1</parameter></Instrument_Parameters_><History/></OPUSDataFile>
