<?xml version="1.0" encoding="UTF-8" ?>
<OPUSDataFile><AB><Ydata ylabel="Absorbance Units"><values byteorder="INTEL" format="FLOAT32" numvalues="3497"> -0.0585774 -0.05857395 -0.05856849 -0.05856156 -0.05854416 -0.05851586 -0.05847831 -0.05843244 -0.05838999 -0.05835263
 -0.05833667 -0.05834144 -0.05837509 -0.05843196 -0.05850415 -0.05858416 -0.05865557 -0.05871659 -0.05875732 -0.05878339
 -0.0587955 -0.05880022 -0.05880189 -0.05880198 -0.0588025 -0.05880101 -0.05879707 -0.05878985 -0.05877866 -0.05876715
 -0.05875529 -0.05875076 -0.05875399 -0.05876945 -0.05879664 -0.05883035 -0.058869 -0.05890029 -0.05892406 -0.0589322
 -0.05892788 -0.0589139 -0.05889471 -0.05887946 -0.05886893 -0.05886924 -0.05887435 -0.05888242 -0.05888544 -0.05887723
 -0.05885851 -0.05882657 -0.05879074 -0.05875323 -0.05871845 -0.05868812 -0.05865799 -0.05862738 -0.05859905 -0.0585731
 -0.05856651 -0.05857963 -0.05862334 -0.05869367 -0.05877303 -0.05885615 -0.05891262 -0.058945 -0.05894196 -0.05891372
 -0.0588719 -0.05882475 -0.05878778 -0.05876022 -0.05874845 -0.05874314 -0.05874174 -0.05873398 -0.0587143 -0.05868201
 -0.05863416 -0.05858177 -0.05852523 -0.05848011 -0.0584477 -0.05844231 -0.05846479 -0.05852705 -0.05862873 -0.05877032
 -0.05894641 -0.05912724 -0.05930227 -0.05941356 -0.05946342 -0.05942079 -0.05931174 -0.05916455 -0.05900325 -0.05887018
 -0.05876737 -0.05871398 -0.05869289 -0.05870209 -0.05871864 -0.05873176 -0.05873486 -0.05872144 -0.05870656 -0.05869152
 -0.05869063 -0.05870666 -0.05873159 -0.05876516 -0.05878704 -0.05879724 -0.05879148 -0.05877277 -0.058758 -0.05874927
 -0.05876462 -0.05880086 -0.05886103 -0.05893698 -0.05901686 -0.05909352 -0.05915288 -0.05919459 -0.05921378 -0.05921198
 -0.05918847 -0.05914589 -0.05908226 -0.0590119 -0.05893536 -0.05887818 -0.05884451 -0.0588535 -0.05890946 -0.05899998
 -0.05912502 -0.05921317 -0.05926141 -0.05920504 -0.05905678 -0.0588674 -0.05864904 -0.05847739 -0.05834712 -0.05828361
 -0.05827534 -0.05831659 -0.05839157 -0.05848145 -0.0585696 -0.05863469 -0.05867314 -0.0586727 -0.05865169 -0.05861285
 -0.05857754 -0.05855382 -0.05854355 -0.05854951 -0.05856041 -0.05857522 -0.05858741 -0.05859645 -0.05860642 -0.05861759
 -0.05863552 -0.05865944 -0.05868778 -0.0587185 -0.05874354 -0.05876075 -0.05876063 -0.05874258 -0.05869992 -0.05863686
 -0.05855346 -0.0584607 -0.05836611 -0.05828224 -0.05821834 -0.05818117 -0.05817698 -0.05820173 -0.05825754 -0.0583293
 -0.0584159 -0.05849806 -0.05857387 -0.05862765 -0.05865835 -0.05865436 -0.05861568 -0.05854027 -0.05843021 -0.05829732
 -0.05814525 -0.0579937 -0.05784587 -0.05772008 -0.05761659 -0.05754549 -0.05750197 -0.05748594 -0.05748772 -0.05750014
 -0.05751335 -0.05751907 -0.05751448 -0.05749501 -0.05746745 -0.05743162 -0.05739927 -0.05737247 -0.05735867 -0.0573594
 -0.05737268 -0.05739854 -0.05743058 -0.05746856 -0.05750848 -0.0575501 -0.05759088 -0.05762903 -0.05765636 -0.0576712
 -0.05766341 -0.05763675 -0.05759112 -0.05753576 -0.05748106 -0.05743603 -0.05741203 -0.05741283 -0.05744468 -0.05750482
 -0.05759542 -0.05770559 -0.05783546 -0.05796287 -0.05808444 -0.05818168 -0.0582516 -0.05829234 -0.05830381 -0.05827355
 -0.05820075 -0.05806617 -0.05787514 -0.05765329 -0.05741119 -0.05720659 -0.05704106 -0.05695201 -0.05692599 -0.05696211
 -0.05703181 -0.05709835 -0.0571452 -0.0571378 -0.05709678 -0.05702245 -0.056942 -0.05686902 -0.0568097 -0.05677117
 -0.05673879 -0.05671197 -0.05667146 -0.05661399 -0.05653957 -0.05644763 -0.05635769 -0.0562707 -0.05620465 -0.05615836
 -0.05613354 -0.05612575 -0.05611841 -0.05610746 -0.05607054 -0.05601409 -0.05593762 -0.05585282 -0.05577786 -0.05570918
 -0.05565361 -0.05559366 -0.05552075 -0.05542259 -0.05528825 -0.05512865 -0.0549414 -0.05475415 -0.05457155 -0.05441255
 -0.05428108 -0.05417347 -0.05409013 -0.0540084 -0.05392723 -0.05382591 -0.05370658 -0.05357458 -0.05343344 -0.05330149
 -0.05317791 -0.05306953 -0.05297495 -0.05289554 -0.05282792 -0.05277191 -0.05271417 -0.05264515 -0.05254828 -0.05240671
 -0.05222689 -0.05200467 -0.05176055 -0.05150254 -0.05122787 -0.05093788 -0.0506231 -0.05028126 -0.04992175 -0.04954489
 -0.04916555 -0.0487844 -0.04841236 -0.04805061 -0.04771372 -0.04740161 -0.04712397 -0.0468752 -0.04664508 -0.04642909
 -0.04621217 -0.04599816 -0.04578909 -0.04557934 -0.04537258 -0.04513779 -0.04485481 -0.04451103 -0.04408552 -0.04362222
 -0.04312897 -0.0426422 -0.0421727 -0.04172125 -0.04128905 -0.0408738 -0.0404751 -0.04010392 -0.0397609 -0.03945977
 -0.03919849 -0.03897243 -0.0387709 -0.03855067 -0.0382943 -0.03792427 -0.03745007 -0.03683763 -0.03614414 -0.03543272
 -0.03473819 -0.03412298 -0.03357111 -0.03309256 -0.03265984 -0.03226449 -0.03188361 -0.0315096 -0.03112619 -0.03072849
 -0.03031254 -0.02987706 -0.02942403 -0.02895366 -0.0284618 -0.02794838 -0.0274114 -0.02685283 -0.02628707 -0.02571647
 -0.02515941 -0.02461523 -0.0240911 -0.02358632 -0.02310362 -0.0226403 -0.02219685 -0.02176224 -0.02132712 -0.02088234
 -0.02041626 -0.01993661 -0.01944426 -0.01894532 -0.01844589 -0.01792729 -0.01738696 -0.01680897 -0.01618751 -0.01555282
 -0.01490594 -0.01429479 -0.0137203 -0.01319085 -0.01270268 -0.01223005 -0.01177008 -0.0112954 -0.01080889 -0.01030232
 -0.009784969 -0.009270854 -0.008766315 -0.008289777 -0.007831075 -0.007392839 -0.006947525 -0.006478838 -0.005966994 -0.00539329
 -0.004774693 -0.004107859 -0.00343226 -0.002754445 -0.00210497 -0.001488965 -0.0009184182 -0.0003951729 9.29872E-05 0.0005475536
 0.001003069 0.001461675 0.001957462 0.002488156 0.003063731 0.003676874 0.004313197 0.004964744 0.005609258 0.006243121
 0.006851348 0.007436407 0.007994481 0.008531756 0.009050169 0.009557606 0.01005724 0.01055708 0.01106099 0.01156922
 0.01208354 0.01259488 0.01310176 0.01360325 0.01409863 0.01460515 0.0151235 0.01566619 0.01623108 0.01680562
 0.01738716 0.01795572 0.01851383 0.0190584 0.019593 0.02012468 0.02065167 0.02117536 0.02169101 0.02219401
 0.02268322 0.0231548 0.02361515 0.02406459 0.02451485 0.02496978 0.02543569 0.02591564 0.0264045 0.02690206
 0.02740312 0.02790708 0.02841737 0.028934 0.02945647 0.02998314 0.03049974 0.03100487 0.03148347 0.0319378
 0.03236531 0.0327719 0.03316715 0.03355739 0.03395614 0.03436433 0.03478997 0.03522433 0.03566435 0.03610203
 0.03653016 0.03695651 0.03738075 0.03781625 0.03826755 0.03873071 0.03920688 0.03968034 0.0401498 0.04060998
 0.0410608 0.04150567 0.04194396 0.04237168 0.04278715 0.04317948 0.04354956 0.0438927 0.04421455 0.0445227
 0.04482542 0.04513823 0.04546374 0.04581348 0.04617601 0.04654887 0.04691656 0.047269 0.04760689 0.04792611
 0.04824122 0.04855479 0.04887566 0.04920597 0.04954368 0.04988897 0.05023579 0.0505837 0.05092188 0.05124995
 0.05155813 0.05184962 0.05213313 0.05241447 0.05271728 0.0530407 0.05339722 0.05377613 0.05416909 0.05456316
 0.0549433 0.05529991 0.05562203 0.05590558 0.05614366 0.05634518 0.05650817 0.05665671 0.05679395 0.05694638
 0.05711833 0.05732234 0.05756035 0.05782474 0.05811477 0.05840942 0.05870766 0.0589912 0.05926143 0.05951505
 0.05975451 0.05998606 0.06020968 0.06042805 0.06064117 0.06084815 0.06105484 0.06126528 0.06148822 0.06173317
 0.0619969 0.0622851 0.06257394 0.06285928 0.0631128 0.06332556 0.06349437 0.06361471 0.06371651 0.06380145
 0.06390043 0.06401435 0.06414081 0.06427746 0.06439984 0.06450882 0.06459443 0.06466235 0.06472514 0.06478613
 0.06485958 0.06494271 0.06503846 0.06514098 0.0652454 0.06534779 0.06544246 0.06553308 0.06561737 0.06570953
 0.0658132 0.06594073 0.06609803 0.06627554 0.06647508 0.06666563 0.06684513 0.06698442 0.0670824 0.06713242
 0.06713613 0.06710622 0.06704463 0.06696674 0.06687444 0.06677946 0.06668743 0.06661434 0.06656747 0.06656722
 0.06660838 0.06669909 0.06681398 0.06693994 0.06705178 0.06712992 0.06717803 0.0671883 0.06719171 0.06719296
 0.06721911 0.06727675 0.06736187 0.06747619 0.06758318 0.06768084 0.06772555 0.06771779 0.06764223 0.06750712
 0.06734333 0.06716271 0.06702009 0.06691787 0.06689277 0.06692865 0.06702307 0.06714525 0.06726469 0.0673549
 0.0673831 0.06735333 0.06725094 0.0671184 0.06696247 0.06683438 0.06674822 0.06672506 0.06677186 0.06687786
 0.06704303 0.06725294 0.06750687 0.06779521 0.0681153 0.06843977 0.06876079 0.06902336 0.06922273 0.0693087
 0.06929573 0.06918219 0.06900411 0.06881162 0.06863771 0.06854153 0.06851865 0.06859484 0.0687205 0.06888413
 0.06902377 0.06911489 0.06912655 0.06904188 0.06888248 0.06864489 0.0683881 0.0681163 0.06788168 0.06768651
 0.06754068 0.06744169 0.06736596 0.06731228 0.06726097 0.06721563 0.06717812 0.06715088 0.06714339 0.06714785
 0.06716149 0.06716342 0.06713348 0.06704904 0.06688397 0.06663891 0.06629913 0.06590336 0.06545609 0.06501202
 0.06458457 0.06420601 0.06388466 0.06362104 0.06341682 0.0632544 0.06313275 0.06302157 0.06291892 0.06279113
 0.06264084 0.06246177 0.06226327 0.06207519 0.06189822 0.06175534 0.06162554 0.06148868 0.06132211 0.06108678
 0.06079398 0.06042931 0.06004262 0.05965079 0.05930626 0.0590344 0.05884752 0.05876061 0.05872857 0.05875197
 0.05875076 0.05871818 0.05859433 0.05837642 0.05806734 0.05767192 0.05724379 0.05678872 0.05636548 0.05597483
 0.05565167 0.05539057 0.05519999 0.05506565 0.05497338 0.0549008 0.05481902 0.05471307 0.05455865 0.05436466
 0.05412534 0.05386663 0.05359601 0.05333278 0.05308447 0.05285101 0.05263444 0.05242359 0.05221777 0.05200668
 0.05178978 0.05156239 0.05132486 0.05107873 0.05082551 0.0505739 0.05032562 0.05009228 0.04987175 0.04966672
 0.04947018 0.04927237 0.04906838 0.04884725 0.04861293 0.04836402 0.04810766 0.04784827 0.04758613 0.04732348
 0.04705374 0.0467755 0.04648543 0.04618194 0.04587066 0.04555152 0.04523604 0.04492484 0.04462743 0.04434348
 0.04407258 0.04381302 0.04355481 0.04329712 0.04303087 0.04275849 0.04248042 0.04220081 0.04192701 0.04166013
 0.041405 0.04115894 0.04092028 0.04069068 0.04046747 0.04026438 0.04008545 0.03994199 0.03984228 0.0397643
 0.03971059 0.03962298 0.03949661 0.03928479 0.03898504 0.03861082 0.03816725 0.03772024 0.0372753 0.03689988
 0.03658975 0.03637125 0.03622588 0.03612924 0.03605394 0.03594441 0.03578763 0.03553871 0.03522444 0.03484254
 0.03444631 0.03406573 0.03372517 0.0334479 0.03320537 0.03299579 0.03278828 0.03257285 0.03237107 0.03218203
 0.03205771 0.03200082 0.03202338 0.0321205 0.03223531 0.03235861 0.03240589 0.0323776 0.03222474 0.03196639
 0.03161763 0.03120794 0.03079263 0.03038671 0.03003409 0.02972019 0.02945009 0.02920036 0.02895578 0.02871672
 0.02847736 0.02825394 0.02805256 0.02786672 0.02769888 0.02751971 0.02732543 0.02711257 0.02688077 0.02667012
 0.02648241 0.02635372 0.02627877 0.026246 0.02624625 0.02623919 0.02622404 0.02617668 0.02610619 0.02601697
 0.0259162 0.02581735 0.0257131 0.02560691 0.02547531 0.02530794 0.02508362 0.02478693 0.02443055 0.02400716
 0.02357329 0.02313419 0.02275284 0.02243793 0.0222015 0.02204476 0.02191258 0.02180053 0.02163341 0.02141329
 0.02110995 0.02073826 0.02033327 0.01991201 0.01953528 0.01920423 0.0189529 0.01876219 0.01862636 0.0185193
 0.01841859 0.01830731 0.01816766 0.01800253 0.0178045 0.01759992 0.01739191 0.01721266 0.01707091 0.01696378
 0.01689508 0.01681215 0.01671219 0.01654546 0.01631381 0.01603237 0.01570918 0.01540483 0.01511685 0.01487315
 0.01465567 0.01443276 0.01419523 0.01390599 0.01358436 0.01323426 0.01288616 0.01256808 0.0122915 0.01207337
 0.01190436 0.01178494 0.01170479 0.01166087 0.01164971 0.0116713 0.01171726 0.01178833 0.01185782 0.01192438
 0.01194458 0.01191662 0.01180392 0.01161051 0.01133897 0.01100238 0.01064858 0.01029091 0.009987978 0.009740002
 0.009576766 0.009484808 0.009460801 0.009490047 0.009559045 0.009660356 0.009786478 0.009933837 0.01010076 0.01028027
 0.0104714 0.01066337 0.01085372 0.01103873 0.01121622 0.01140473 0.01160499 0.0118589 0.0121683 0.01257006
 0.01305996 0.01363325 0.01427761 0.01494529 0.01562585 0.01626707 0.01687155 0.01741737 0.0179185 0.01838185
 0.01882227 0.01925407 0.01968654 0.02012885 0.02058457 0.02105828 0.02154567 0.02204886 0.0225509 0.02305117
 0.02352319 0.02396462 0.02435178 0.02468304 0.02494836 0.02514802 0.02528575 0.02536241 0.0253848 0.0253539
 0.02527429 0.02515224 0.02500081 0.0248371 0.0246942 0.02459005 0.02456353 0.02461029 0.02474662 0.02494081
 0.02518112 0.0254371 0.02569099 0.02594005 0.02617819 0.02641984 0.02666731 0.02692641 0.0271989 0.02747635
 0.02775848 0.02802845 0.02828467 0.0285003 0.02867329 0.02877426 0.02880695 0.02876568 0.02866496 0.02853676
 0.0283966 0.02829083 0.02821379 0.02818837 0.02817017 0.02814287 0.02802893 0.02778489 0.02734113 0.02665256
 0.02571605 0.02450735 0.02311626 0.02154414 0.01993625 0.01830616 0.01677897 0.01536371 0.0141112 0.01302015
 0.01207019 0.01125571 0.0105296 0.009889504 0.009301665 0.00876651 0.008269608 0.007808736 0.007374388 0.006962558
 0.006563503 0.006178436 0.005803921 0.005446045 0.005108222 0.004791837 0.004499263 0.004225955 0.003970447 0.003732774
 0.003511265 0.003316928 0.003149871 0.003029268 0.002956254 0.002950269 0.003011073 0.003138142 0.003324951 0.003529242
 0.003739261 0.003884149 0.003960858 0.003920427 0.003778425 0.003536766 0.003219524 0.002856967 0.002466381 0.002071571
 0.001684488 0.001316018 0.0009807332 0.0006857342 0.0004441212 0.0002610119 0.000142133 8.921757E-05 0.000105741 0.0001932274
 0.0003453751 0.000562983 0.0007894963 0.001017912 0.001119417 0.001084787 0.0007779145 0.0002127079 -0.000641454 -0.001735857
 -0.002964655 -0.004276101 -0.00552207 -0.006693584 -0.007710053 -0.008610333 -0.009397775 -0.01011812 -0.01080324 -0.01146838
 -0.0121311 -0.01277766 -0.01340913 -0.01400446 -0.01455987 -0.01506206 -0.01550824 -0.01590076 -0.01623924 -0.01654323
 -0.01681408 -0.01707676 -0.01733168 -0.01759412 -0.01786223 -0.0181375 -0.01841634 -0.01869063 -0.01895645 -0.01920225
 -0.01942773 -0.01962555 -0.01980364 -0.01996416 -0.02012102 -0.02028335 -0.02045952 -0.02065804 -0.02087002 -0.02109772
 -0.02131671 -0.02152326 -0.02169707 -0.02183368 -0.02194046 -0.02201708 -0.02209472 -0.02217447 -0.02227669 -0.02239837
 -0.02252622 -0.02265747 -0.02277009 -0.02287152 -0.02296855 -0.02307371 -0.02321714 -0.02339602 -0.02362537 -0.02388003
 -0.02414528 -0.02439396 -0.02460244 -0.02476607 -0.02487351 -0.02494282 -0.02497467 -0.02499507 -0.02500817 -0.02503675
 -0.02508436 -0.02516068 -0.02526706 -0.02539141 -0.02553254 -0.02566556 -0.02579031 -0.02589282 -0.02597661 -0.0260491
 -0.02611327 -0.02618227 -0.02625416 -0.02633189 -0.02641158 -0.02648848 -0.02656251 -0.02663142 -0.02669756 -0.02676271
 -0.02682515 -0.02688507 -0.02693874 -0.02698368 -0.02702484 -0.0270611 -0.02710832 -0.02716838 -0.02725153 -0.02735908
 -0.02748032 -0.02761424 -0.02773893 -0.02785454 -0.02795129 -0.02803251 -0.02810744 -0.0281785 -0.02825847 -0.02834458
 -0.02843896 -0.02853471 -0.02862393 -0.02870063 -0.02875517 -0.02878925 -0.02879801 -0.02879559 -0.02878436 -0.02878536
 -0.02880534 -0.02885674 -0.02894505 -0.02906253 -0.0292103 -0.02936613 -0.02952868 -0.02967737 -0.02981165 -0.02992494
 -0.03001853 -0.03009922 -0.03016871 -0.03023801 -0.03030747 -0.03038408 -0.03046646 -0.03055572 -0.0306493 -0.03074441
 -0.03083889 -0.03092939 -0.03101597 -0.03109712 -0.03117554 -0.03125198 -0.03132875 -0.03140714 -0.03148593 -0.03156529
 -0.03164252 -0.03171707 -0.03178988 -0.03186093 -0.03193383 -0.03200856 -0.03208416 -0.03215936 -0.03222331 -0.03227488
 -0.03230153 -0.03230674 -0.03229165 -0.03226541 -0.03224591 -0.03224029 -0.03226779 -0.03232469 -0.03241674 -0.03253098
 -0.03266177 -0.03279621 -0.03292705 -0.033048 -0.03315516 -0.03324889 -0.03332782 -0.03339863 -0.03346155 -0.03352645
 -0.03359414 -0.03367001 -0.03375401 -0.03384176 -0.03393231 -0.03401582 -0.03409206 -0.03415394 -0.03420353 -0.03424222
 -0.03427394 -0.03430703 -0.03434403 -0.03439304 -0.03445156 -0.03452097 -0.03459574 -0.0346726 -0.03474793 -0.03481909
 -0.03488539 -0.03494605 -0.03500123 -0.03505038 -0.03509651 -0.03513942 -0.03518697 -0.0352397 -0.03530402 -0.03537993
 -0.03546416 -0.03555559 -0.03564318 -0.03572645 -0.03579689 -0.03585609 -0.03590389 -0.03594276 -0.03597746 -0.03600992
 -0.03604455 -0.03608284 -0.03612746 -0.03617993 -0.03624253 -0.03631406 -0.03639564 -0.03648148 -0.03657051 -0.0366563
 -0.03673672 -0.03681231 -0.03688237 -0.0369533 -0.0370256 -0.03710235 -0.03718346 -0.03726374 -0.03734261 -0.03741242
 -0.03747361 -0.03752394 -0.0375649 -0.03759963 -0.03762936 -0.03765825 -0.03768616 -0.03771465 -0.03774324 -0.03777183
 -0.0378007 -0.03782953 -0.03786019 -0.03789309 -0.03793097 -0.03797477 -0.0380262 -0.03808619 -0.03815279 -0.03822632
 -0.03830028 -0.03837429 -0.03844084 -0.03849968 -0.0385486 -0.03858826 -0.03862356 -0.03865529 -0.03869022 -0.03872786
 -0.03877059 -0.03881678 -0.03886426 -0.03891191 -0.03895694 -0.03899977 -0.03903972 -0.03907757 -0.03911365 -0.03914842
 -0.03918179 -0.03921551 -0.03924983 -0.03928749 -0.0393297 -0.03937443 -0.03942235 -0.03946357 -0.03949737 -0.03951593
 -0.03951922 -0.03951439 -0.03950309 -0.03950377 -0.03951666 -0.03955391 -0.03961172 -0.03968579 -0.03977043 -0.03985188
 -0.03992675 -0.03998337 -0.04002376 -0.04004418 -0.04005236 -0.04005123 -0.04005073 -0.04005659 -0.04007327 -0.04010472
 -0.04014579 -0.04019684 -0.04024821 -0.04029857 -0.04034203 -0.04037784 -0.04040646 -0.04042798 -0.04044611 -0.04046121
 -0.04047776 -0.04049616 -0.04052087 -0.04055174 -0.04059106 -0.04063752 -0.04068958 -0.0407459 -0.04080339 -0.0408628
 -0.04092336 -0.04098723 -0.0410565 -0.04112967 -0.04120824 -0.04128395 -0.04135489 -0.0414129 -0.04145471 -0.04148296
 -0.04149634 -0.04150976 -0.04152419 -0.04155309 -0.04159687 -0.04165485 -0.04172591 -0.04179884 -0.04187319 -0.04194058
 -0.04200217 -0.04205735 -0.0421068 -0.04215172 -0.04219203 -0.04222754 -0.04225971 -0.04228948 -0.04231931 -0.04235181
 -0.04238611 -0.04242316 -0.04245886 -0.0424917 -0.04252068 -0.04254468 -0.04256767 -0.04258994 -0.04261547 -0.04264473
 -0.0426777 -0.04271434 -0.04275189 -0.04279019 -0.0428267 -0.04286126 -0.04289168 -0.04291777 -0.0429373 -0.04295119
 -0.04295947 -0.04296507 -0.04297202 -0.04298334 -0.04300454 -0.04303422 -0.04307458 -0.04311853 -0.04316359 -0.04320324
 -0.043234 -0.04325604 -0.04326783 -0.0432764 -0.0432822 -0.04329357 -0.04331135 -0.04333889 -0.04337625 -0.04341988
 -0.04346937 -0.04351891 -0.04356877 -0.04361745 -0.04366524 -0.04371324 -0.04375945 -0.04380069 -0.04383368 -0.04385108
 -0.04385411 -0.04383918 -0.04381495 -0.04378512 -0.04376079 -0.04374886 -0.04375368 -0.04377978 -0.04382064 -0.04387675
 -0.04393543 -0.04399492 -0.04404669 -0.04408947 -0.04412563 -0.04415532 -0.04418638 -0.04421876 -0.04425504 -0.04429409
 -0.04433129 -0.04436583 -0.04439238 -0.04441168 -0.04442233 -0.04442623 -0.04442535 -0.04442181 -0.04441862 -0.04441678
 -0.04441823 -0.04442225 -0.04442891 -0.04443773 -0.04444804 -0.04446208 -0.0444803 -0.04450405 -0.04453427 -0.0445659
 -0.04459887 -0.04462381 -0.0446403 -0.04464488 -0.04463851 -0.04463001 -0.04462118 -0.04462649 -0.04464598 -0.04468798
 -0.0447501 -0.04483097 -0.04492887 -0.04503923 -0.04516502 -0.04530583 -0.0454702 -0.04566345 -0.04589425 -0.0461694
 -0.04648915 -0.04685748 -0.04726135 -0.04769958 -0.04815557 -0.04862612 -0.0491062 -0.04959489 -0.05009545 -0.05060772
 -0.05111039 -0.05159849 -0.05200969 -0.05233883 -0.05252217 -0.05256588 -0.05245424 -0.05220135 -0.05182725 -0.0513513
 -0.05080478 -0.0502205 -0.04964223 -0.04909966 -0.04862845 -0.04824223 -0.04795643 -0.04777651 -0.04770957 -0.0477479
 -0.04789848 -0.04811017 -0.04838239 -0.04862393 -0.04882522 -0.04894641 -0.04898562 -0.04898133 -0.04893557 -0.04888374
 -0.04882365 -0.04876039 -0.04869216 -0.04861584 -0.04853073 -0.04843388 -0.04832499 -0.04820091 -0.04806567 -0.04792051
 -0.04777478 -0.0476362 -0.04750964 -0.04740249 -0.04730506 -0.04721746 -0.04712262 -0.04701545 -0.04689108 -0.04674646
 -0.04659382 -0.04643361 -0.04628152 -0.04613836 -0.0460101 -0.04589653 -0.04579657 -0.04571024 -0.0456375 -0.04557795
 -0.04553115 -0.04549437 -0.04546159 -0.04542983 -0.04539071 -0.04534593 -0.04529268 -0.0452379 -0.04518564 -0.04514211
 -0.045113 -0.04509599 -0.04509307 -0.04509414 -0.04509734 -0.04509436 -0.04508298 -0.04506406 -0.04503712 -0.04500949
 -0.04498154 -0.04495828 -0.0449396 -0.0449255 -0.04491556 -0.04490725 -0.04490046 -0.04489344 -0.0448866 -0.04487992
 -0.04487419 -0.04487082 -0.0448698 -0.04487215 -0.04487621 -0.04488106 -0.04488537 -0.04488787 -0.04488917 -0.04488936
 -0.0448884 -0.04488666 -0.04488192 -0.0448738 -0.04486126 -0.04484395 -0.04482479 -0.04480392 -0.04478529 -0.04476891
 -0.04475625 -0.04474715 -0.04474166 -0.04473938 -0.04473942 -0.04474039 -0.04473881 -0.04473321 -0.04471871 -0.04469737
 -0.04466801 -0.04463778 -0.04461145 -0.04459521 -0.04459528 -0.04460833 -0.04463648 -0.04466702 -0.04469746 -0.04471756
 -0.04472447 -0.04471927 -0.04470134 -0.04467926 -0.04465348 -0.04463059 -0.04461061 -0.04459517 -0.04458409 -0.04457704
 -0.04457418 -0.04457607 -0.04458279 -0.04459538 -0.04461236 -0.04463265 -0.0446525 -0.04466733 -0.04467434 -0.04466861
 -0.04465323 -0.04462719 -0.04459865 -0.04457042 -0.04454792 -0.04453385 -0.04452617 -0.04452533 -0.04452597 -0.04452754
 -0.04452714 -0.04452457 -0.04452051 -0.04451513 -0.04451096 -0.04450807 -0.04450839 -0.04451128 -0.04451554 -0.0445203
 -0.04452263 -0.04452278 -0.04451961 -0.04451447 -0.04450884 -0.04450277 -0.04449731 -0.04449045 -0.04448085 -0.04446905
 -0.04445377 -0.04444124 -0.04443247 -0.04443372 -0.04444693 -0.04446965 -0.04450233 -0.04453497 -0.04456701 -0.04459147
 -0.04460851 -0.04461904 -0.04462358 -0.04462578 -0.04462564 -0.04462485 -0.04462378 -0.04462402 -0.04462609 -0.04463216
 -0.04464088 -0.0446519 -0.04466284 -0.04467132 -0.04467703 -0.04467886 -0.0446782 -0.0446756 -0.04467091 -0.04466423
 -0.04465497 -0.04464247 -0.04463071 -0.04461978 -0.04461618 -0.04462031 -0.04463381 -0.04465627 -0.04468216 -0.04471087
 -0.04473558 -0.04475673 -0.04477213 -0.04478314 -0.04479206 -0.04479972 -0.04480898 -0.04481905 -0.04483034 -0.04484135
 -0.0448506 -0.04485836 -0.04486393 -0.04486953 -0.04487624 -0.04488396 -0.04489364 -0.04490061 -0.04490424 -0.04490065
 -0.04488885 -0.04487346 -0.04485463 -0.04484287 -0.04483836 -0.04484604 -0.04486461 -0.04488826 -0.04491561 -0.04493779
 -0.04495559 -0.044966 -0.04497145 -0.04497471 -0.04497768 -0.044984 -0.04499363 -0.04500817 -0.04502565 -0.04504569
 -0.0450657 -0.04508444 -0.04510109 -0.04511503 -0.04512706 -0.04513738 -0.04514544 -0.04515135 -0.04515253 -0.04514881
 -0.04513964 -0.04512538 -0.04511135 -0.04509826 -0.04509375 -0.04509724 -0.04511133 -0.04513333 -0.04515776 -0.04518278
 -0.04520166 -0.0452168 -0.04522788 -0.04523908 -0.04525476 -0.04527426 -0.04529959 -0.0453249 -0.04534775 -0.04536653
 -0.04537918 -0.04539189 -0.04540537 -0.04542497 -0.04545185 -0.04548277 -0.04551763 -0.04554915 -0.04557713 -0.0455981
 -0.04561251 -0.0456217 -0.04562609 -0.04562802 -0.04562729 -0.04562439 -0.04561951 -0.04561254 -0.04560557 -0.04560053
 -0.04560061 -0.04560973 -0.0456278 -0.04565695 -0.04569232 -0.04573261 -0.04577361 -0.04581347 -0.04585259 -0.04589062
 -0.04592947 -0.04596955 -0.04600915 -0.04604822 -0.04608271 -0.04611259 -0.04613677 -0.04615581 -0.04617294 -0.04618861
 -0.04620677 -0.0462263 -0.04624672 -0.04626594 -0.04627959 -0.04628742 -0.04628644 -0.04627974 -0.04626858 -0.04625661
 -0.04624643 -0.04623969 -0.04623768 -0.04624084 -0.04624967 -0.04626352 -0.04628279 -0.0463036 -0.04632574 -0.04634405
 -0.04635816 -0.04636632 -0.04636862 -0.0463673 -0.04636266 -0.04635781 -0.04635317 -0.04635188 -0.04635436 -0.04636375
 -0.04637894 -0.04640009 -0.04642414 -0.04644727 -0.04646761 -0.04648136 -0.04649075 -0.04649555 -0.04649976 -0.04650555
 -0.04651291 -0.04652298 -0.04653112 -0.04653666 -0.04653606 -0.04652845 -0.0465165 -0.04650028 -0.04648497 -0.04647068
 -0.04645947 -0.04645111 -0.04644508 -0.04644115 -0.0464383 -0.04643614 -0.04643303 -0.04642892 -0.04642226 -0.04641517
 -0.04640912 -0.04640746 -0.04641451 -0.04642922 -0.04645403 -0.04648069 -0.04650725 -0.04652398 -0.04652682 -0.04651506
 -0.04648645 -0.04645259 -0.04641411 -0.046385 -0.04636639 -0.04636071 -0.04636747 -0.0463757 -0.04638474 -0.04638372
 -0.0463746 -0.04635906 -0.04634035 -0.04632864 -0.04632413 -0.04633288 -0.04635136 -0.04637793 -0.04640831 -0.04643838
 -0.04646477 -0.04648462 -0.046495 -0.04649386 -0.04648053 -0.04645322 -0.04641824 -0.04637544 -0.04633683 -0.04630378
 -0.04628453 -0.04627993 -0.04628606 -0.04630237 -0.04631722 -0.04633059 -0.04633643 -0.04633632 -0.04633372 -0.04632989
 -0.0463304 -0.04633452 -0.04634414 -0.04635623 -0.04636838 -0.04637615 -0.04637421 -0.04636183 -0.04633487 -0.0463018
 -0.04626456 -0.04623229 -0.04620955 -0.04619348 -0.04618531 -0.04617391 -0.04615762 -0.0461341 -0.04610282 -0.04607378
 -0.04604735 -0.04603108 -0.04602409 -0.04602322 -0.04602734 -0.04602968 -0.04603057 -0.04602722 -0.04602123 -0.04601413
 -0.04600756 -0.04600466 -0.04600527 -0.04601151 -0.04601899 -0.04602671 -0.04602727 -0.04601703 -0.04599242 -0.04595041
 -0.04589627 -0.04582961 -0.04576103 -0.04569155 -0.04563016 -0.0455776 -0.04553801 -0.04551151 -0.04549959 -0.04550195
 -0.04551791 -0.04554592 -0.04557997 -0.04561698 -0.04564528 -0.04566326 -0.04566096 -0.0456423 -0.04560736 -0.04556292
 -0.04551585 -0.0454684 -0.04542489 -0.04538222 -0.04534028 -0.04529548 -0.0452461 -0.04519327 -0.04513605 -0.0450819
 -0.04503132 -0.04499306 -0.0449679 -0.04495829 -0.04496406 -0.04498014 -0.04500557 -0.04503107 -0.04505503 -0.04506532
 -0.0450613 -0.04503339 -0.04498537 -0.04491893 -0.04484028 -0.04475859 -0.04467726 -0.04460232 -0.04453614 -0.04448174
 -0.0444407 -0.04441576 -0.04440176 -0.04439963 -0.04439539 -0.04438667 -0.04436227 -0.04431969 -0.0442613 -0.04418685
 -0.04410642 -0.04402045 -0.04393595 -0.04385297 -0.04377491 -0.04370183 -0.04363606 -0.04357746 -0.04352715 -0.04348418
 -0.04344803 -0.04341569 -0.04338339 -0.04334749 -0.04330223 -0.04324895 -0.04318516 -0.04311884 -0.04305296 -0.04299304
 -0.04294278 -0.0428977 -0.04285844 -0.04281455 -0.04276471 -0.04270266 -0.0426276 -0.04254303 -0.04244924 -0.04235357
 -0.04225567 -0.04215597 -0.04205308 -0.04193997 -0.04181772 -0.04168453 -0.041545 -0.04140811 -0.04127499 -0.04115271
 -0.04103549 -0.04092101 -0.04080231 -0.04067307 -0.04053311 -0.04037926 -0.04021916 -0.04005403 -0.03989195 -0.03973542
 -0.03958509 -0.03944229 -0.0392966 -0.03914736 -0.03898531 -0.03881054 -0.03863242 -0.03845195 -0.03828283 -0.03812339
 -0.03797305 -0.0378296 -0.03768578 -0.03754146 -0.03739329 -0.03724089 -0.03708233 -0.03691761 -0.0367448 -0.03656805
 -0.03639012 -0.036212 -0.03603817 -0.03585451 -0.0356587 -0.03543456 -0.03517587 -0.03489 -0.0345764 -0.03425001
 -0.03391242 -0.03355983 -0.03319208 -0.0328046 -0.03239896 -0.03198856 -0.03157313 -0.03116175 -0.03074596 -0.03030596
 -0.02983345 -0.02929655 -0.02870708 -0.02806401 -0.02739147 -0.02671572 -0.02604239 -0.0253847 -0.02473613 -0.02409469
 -0.02346323 -0.0228413 -0.02223673 -0.02165486 -0.02107756 -0.02050825 -0.01988065 -0.01918991 -0.01838273 -0.01745949
 -0.01648689 -0.0154721 -0.0145137 -0.01360173 -0.01274003 -0.01191512 -0.01108658 -0.01025277 -0.009392138 -0.008505329
 -0.007590789 -0.006630773 -0.005616497 -0.004505683 -0.003267387 -0.001874043 -0.0002872402 0.001430418 0.003282215 0.005141953
 0.006980869 0.008735209 0.01038852 0.01195093 0.01342066 0.01483612 0.0162004 0.01758924 0.01901137 0.02058949
 0.02231222 0.02421179 0.02622599 0.028168 0.0300246 0.03165629 0.0331355 0.03451031 0.03583325 0.03718394
 0.03855805 0.03997842 0.04142391 0.04288648 0.04436502 0.04586246 0.04735542 0.04884329 0.05028297 0.05166463
 0.05299952 0.05428701 0.05555926 0.05681626 0.05801786 0.05915939 0.06017313 0.06106913 0.06185677 0.06255829
 0.0632527 0.0639405 0.06467322 0.06540959 0.06610297 0.06674636 0.0673016 0.06781664 0.06832007 0.06882349
 0.06935111 0.06985679 0.07033103 0.07073636 0.07105875 0.07130428 0.07146951 0.07158571 0.07165452 0.0717123
 0.07176052 0.0718124 0.07186583 0.0719046 0.07192756 0.0719191 0.07188307 0.07182021 0.07174159 0.0716683
 0.07161459 0.07161169 0.07166336 0.07178409 0.07197516 0.07223663 0.07258617 0.07303406 0.07358491 0.07425232
 0.07498764 0.0757842 0.07659496 0.07740779 0.07823903 0.07908787 0.07999443 0.08096027 0.08199598 0.08309978
 0.08425713 0.08546719 0.08671875 0.08801167 0.08933993 0.09070296 0.09209529 0.09352016 0.09497945 0.09647772
 0.09802151 0.09960984 0.1012453 0.1029217 0.1046381 0.1063848 0.1081598 0.1099516 0.1117584 0.1135693
 0.1153841 0.1171838 0.1189674 0.1207093 0.1224087 0.1240682 0.1256898 0.1273038 0.1288999 0.1304479
 0.1319221 0.1332143 0.1343319 0.135229 0.1359456 0.1365272 0.1369873 0.1373624 0.1376369 0.1378102
 0.1378699 0.1378178 0.1376146 0.1372645 0.1366562 0.1357594 0.1345319 0.1329362 0.1312149 0.1293863
 0.1276191 0.1259191 0.1241825 0.1224038 0.1204875 0.1184446 0.1162853 0.1140202 0.1117011 0.1093029
 0.1068154 0.1041637 0.1012099 0.09796198 0.09429766 0.09049661 0.08673023 0.08317593 0.08002809 0.07711416
 0.07441563 0.07178508 0.0691661 0.06659295 0.06405888 0.06164457 0.05936032 0.05719028 0.05513328 0.05311209
 0.0511264 0.04914348 0.04717413 0.04525939 0.04340803 0.04167541 0.04005165 0.03854558 0.037136 0.0357945
 0.03450574 0.03324573 0.0319981 0.03075279 0.029469 0.02812511 0.02668849 0.02511401 0.02352556 0.02192595
 0.02052409 0.0193711 0.01842519 0.01769427 0.01700298 0.01634301 0.01562263 0.0148469 0.01404304 0.01322098
 0.0124533 0.01173315 0.01107517 0.01046915 0.009891259 0.009356626 0.008873155 0.008469758 0.008185776 0.008023169
 0.008001072 0.008096455 0.008302413 0.008601467 0.008985158 0.009447656 0.00998306 0.01060688 0.01131573 0.01216566
 0.01316182 0.01434566 0.01571844 0.017171 0.01869095 0.02009112 0.0213784 0.02249392 0.02345692 0.02430522
 0.02504167 0.02568934 0.02624854 0.02671809 0.02713091 0.02750873 0.02791879 0.02842502 0.02904601 0.02983305
 0.03068585 0.03157895 0.03244203 0.03324117 0.03401601 0.03476592 0.03554522 0.03636077 0.03721708 0.03811444
 0.03901309 0.03991178 0.04078047 0.04162583 0.04246596 0.04331571 0.04423632 0.04523491 0.04636788 0.04760919
 0.04894655 0.05034446 0.0517502 0.05316984 0.0545879 0.0560275 0.05750414 0.0590055 0.06053635 0.0620575
 0.06355809 0.065025 0.06645099 0.06786401 0.06926671 0.07067321 0.07208411 0.07343105 0.07470691 0.07580148
 0.07671545 0.07739659 0.07785182 0.0780808 0.07808128 0.07784947 0.07737741 0.07664769 0.07566358 0.07441621
 0.07292856 0.07121087 0.06929541 0.06720132 0.06494962 0.06255085 0.06001883 0.05734922 0.05460265 0.05177763
 0.04900323 0.04629146 0.04373421 0.04133692 0.03907621 0.03694791 0.03488808 0.03290079 0.03097581 0.02912471
 0.02738707 0.02576066 0.02426516 0.02288083 0.02158523 0.02036065 0.01917741 0.01802959 0.01690294 0.01579783
 0.01471089 0.01364391 0.01259606 0.01157266 0.01057451 0.00960751 0.008673503 0.007769453 0.006895484 0.006044195
 0.005215168 0.004417398 0.00365306 0.00295393 0.002321286 0.001781129 0.001328224 0.0009587465 0.0006649387 0.0004262595
 0.0002389554 8.747114E-05 -2.799531E-05 -0.0001121056 -0.0001666944 -0.0001913531 -0.0001983225 -0.0001903834 -0.0001900632 -0.0002054402
 -0.000254513 -0.000344629 -0.0004772698 -0.0006546225 -0.0008681574 -0.001117321 -0.001394785 -0.001700105 -0.00203071 -0.0023864
 -0.002764818 -0.003164481 -0.003576767 -0.003997334 -0.004406814 -0.004800134 -0.005154506 -0.005470087 -0.005735395 -0.005956914
 -0.006137736 -0.006283205 -0.006399256 -0.0064866 -0.006546793 -0.006580885 -0.006588441 -0.006575197 -0.006541793 -0.006496197
 -0.006439672 -0.006378255 -0.00631274 -0.00624571 -0.006177356 -0.00610879 -0.006040262 -0.005975375 -0.005914669 -0.005863481
 -0.005821782 -0.005791875 -0.005774346 -0.005770082 -0.005783805 -0.0058221 -0.005893306 -0.006009585 -0.006176455 -0.00640353
 -0.00668882 -0.007035821 -0.007434016 -0.007883118 -0.008362645 -0.008870075 -0.009376678 -0.009878229 -0.01034936 -0.01078664
 -0.01118026 -0.01152938 -0.01184028 -0.01211371 -0.01236227 -0.0125863 -0.01279453 -0.01298584 -0.01316087 -0.01331802
 -0.01345336 -0.0135667 -0.01365561 -0.01372134 -0.01376459 -0.013786 -0.0137864 -0.01376593 -0.01372417 -0.01366386
 -0.01358494 -0.0134938 -0.0133913 -0.01328583 -0.0131785 -0.01307744 -0.01298331 -0.01290486 -0.01284261 -0.01280432
 -0.01278997 -0.01280089 -0.01283549 -0.01288451 -0.01294584 -0.01300628 -0.01306583 -0.01311736 -0.01316315 -0.01320385
 -0.01324168 -0.0132794 -0.01331892 -0.01336205 -0.01341204 -0.01347104 -0.01354146 -0.01362531 -0.013721 -0.01382902
 -0.01394477 -0.01406765 -0.01419353 -0.01432189 -0.01445029 -0.01457853 -0.01470646 -0.01483425 -0.01496433 -0.01509727
 -0.01523754 -0.01538588 -0.01554767 -0.01572295 -0.0159157 -0.01612289 -0.01634247 -0.016568 -0.01679079 -0.01700698
 -0.01720884 -0.01740034 -0.01758071 -0.01775725 -0.01793338 -0.01811063 -0.01829091 -0.01846932 -0.01864535 -0.01881459
 -0.0189762 -0.01913145 -0.01928034 -0.01942666 -0.01957031 -0.0197103 -0.01984561 -0.01996857 -0.02007908 -0.02017179
 -0.02024925 -0.02031544 -0.02037225 -0.02042618 -0.02047412 -0.02051555 -0.02054526 -0.02055785 -0.02055266 -0.02052702
 -0.02048437 -0.02042599 -0.02035234 -0.02026491 -0.02015751 -0.0200297 -0.0198736 -0.01968787 -0.0194726 -0.01922753
 -0.01896514 -0.01868642 -0.01840908 -0.01813366 -0.01787284 -0.01762574 -0.01739646 -0.01718228 -0.0169794 -0.01678311
 -0.01658354 -0.01637717 -0.01615431 -0.01591789 -0.01566566 -0.01540585 -0.01514233 -0.01488205 -0.01462866 -0.01438593
 -0.01415563 -0.01393905 -0.01373711 -0.01354695 -0.01336853 -0.01319745 -0.0130334 -0.01287588 -0.01272473 -0.01257815
 -0.01243426 -0.01227966 -0.01211136 -0.01190928 -0.01167381 -0.0113944 -0.01107634 -0.01072336 -0.01034245 -0.009943567
 -0.009531713 -0.009114727 -0.008694131 -0.008272562 -0.007851426 -0.007430583 -0.007016292 -0.006609887 -0.006217751 -0.00584254
 -0.005478697 -0.005126764 -0.004771337 -0.004411438 -0.004036761 -0.003647267 -0.003242883 -0.002824415 -0.002396748 -0.001961612
 -0.001528215 -0.001098511 -0.0006831348 -0.0002809934 0.0001045323 0.0004763836 0.0008373739 0.001188364 0.00153 0.00186603
 0.002197047 0.002532382 0.002876923 0.003232661 0.003602912 0.003977664 0.004355094 0.004730952 0.00510333 0.00548465
 0.005875466 0.006291886 0.0067343 0.007209488 0.007716056 0.008248536 0.008803068 0.00936206 0.009920378 0.01045568
 0.01096454 0.01143128 0.01185272 0.01221995 0.0125276 0.0127675 0.01293823 0.01303437 0.01306461 0.01302946
 0.0129435 0.01280923 0.01264474 0.01245206 0.01225473 0.01205529 0.01187371 0.0117116 0.01157648 0.01146864
 0.01139197 0.01134734 0.0113442 0.01138189 0.01146417 0.01158672 0.01173994 0.01192 0.01211534 0.01232429
 0.01254164 0.01276241 0.01298282 0.01319188 0.01338402 0.01354446 0.01366786 0.01373617 0.01374378 0.01367672
 0.01352985 0.01330656 0.01300484 0.01264872 0.01223922 0.01181131 0.01136685 0.01094039 0.01053202 0.0101606
 0.009821235 0.009504462 0.009203206 0.008891616 0.008569839 0.008223703 0.00786241 0.007492337 0.007120738 0.006759469
 0.00640225 0.006052994 0.005689394 0.005305919 0.004874232 0.004384676 0.003821846 0.003178784 0.002465293 0.0016801
 0.0008498077 -2.409027E-05 -0.0009137292 -0.001817903 -0.00271632 -0.003609327 -0.004489864 -0.005359563 -0.006222859 -0.007078326
 -0.00792647 -0.008760023 -0.009565699 -0.01033744 -0.01106006 -0.01173597 -0.01236076 -0.0129422 -0.01348307 -0.01399211
 -0.01447252 -0.01493481 -0.01538237 -0.01582305 -0.0162595 -0.01669176 -0.01712033 -0.01754253 -0.01795824 -0.01836513
 -0.01876282 -0.01914264 -0.01950372 -0.01983408 -0.02013512 -0.02040624 -0.02065029 -0.02087645 -0.02108287 -0.02127152
 -0.0214367 -0.02157031 -0.02167212 -0.0217364 -0.02177295 -0.0217843 -0.0217853 -0.02178288 -0.0217868 -0.02180289
 -0.02182793 -0.02186336 -0.02189736 -0.02192825 -0.02195148 -0.02196625 -0.02198049 -0.02199462 -0.022017 -0.02204729
 -0.02208681 -0.0221342 -0.0221854 -0.022237 -0.02227852 -0.02230443 -0.02229834 -0.02225912 -0.02217591 -0.02205723
 -0.02190554 -0.02173346 -0.0215493 -0.02136285 -0.02117985 -0.02100746 -0.02084889 -0.02070809 -0.02058709 -0.0204829
 -0.02039597 -0.02031768 -0.0202475 -0.0201774 -0.02010716 -0.02003455 -0.01996065 -0.01989297 -0.01983361 -0.01979677
 -0.01978234 -0.01979887 -0.01984166 -0.01990642 -0.01998688 -0.02007312 -0.02016002 -0.0202399 -0.02030834 -0.0203605
 -0.02039351 -0.02040439 -0.02039446 -0.0203634 -0.02031342 -0.0202454 -0.02015768 -0.02005046 -0.01991915 -0.01976342
 -0.01957918 -0.01936631 -0.01912375 -0.01885227 -0.01855733 -0.01824101 -0.01791553 -0.01758275 -0.01725418 -0.01693104
 -0.01662042 -0.01632464 -0.01604984 -0.01579731 -0.0155723 -0.01536912 -0.01518781 -0.01501566 -0.01484773 -0.01467241
 -0.01448419 -0.01428118 -0.0140605 -0.01383272 -0.01359788 -0.01337381 -0.01316176 -0.0129765 -0.01281851 -0.01269158
 -0.01259472 -0.01252165 -0.01247009 -0.01242718 -0.01238935 -0.01233973 -0.0122756 -0.01218207 -0.01206221 -0.01191124
 -0.01174121 -0.01156002 -0.01138322 -0.01122523 -0.01108888 -0.01098398 -0.01088892 -0.01080153 -0.01069213 -0.01055202
 -0.01037637 -0.01016106 -0.009930364 -0.009685856 -0.009446464 -0.009212486 -0.008975087 -0.00873307 -0.008470507 -0.008189877
 -0.007894219 -0.00758766 -0.007285244 -0.006986699 -0.006698799 -0.00641943 -0.006146642 -0.005883911 -0.005633268 -0.00539966
 -0.005189546 -0.004996787 -0.004822297 -0.004651747 -0.00447944 -0.004302669 -0.004118112 -0.00393789 -0.00376387 -0.00359901
 -0.003444441 -0.003283341 -0.003114945 -0.002925197 -0.002715327 -0.002491222 -0.00225485 -0.002019671 -0.001784465 -0.001552922
 -0.001322035 -0.00108686 -0.0008466396 -0.0005967394 -0.0003416062 -8.250575E-05 0.0001721608 0.0004157372 0.0006447981 0.0008540407
 0.001050947 0.001235875 0.001419532 0.001604458 0.00179613 0.001995823 0.002204693 0.002423274 0.002644932 0.002869119
 0.003079655 0.003276359 0.003449911 0.003603193 0.003746117 0.003880151 0.004016297 0.004151207 0.004281645 0.004408386
 0.004528181 0.004651111 0.004786267 0.004940536 0.005124303 0.005330452 0.005560426 0.005798634 0.006040976 0.006273864
 0.006493075 0.006694531 0.006876206 0.00704558 0.007202956 0.007357195 0.007508639 0.007658589 0.007807392 0.0079588
 0.00811373 0.008280916 0.008456814 0.008636456 0.00881268 0.00896514 0.009096829 0.009199459 0.009289123 0.009379405
 0.009481403 0.009610185 0.009759744 0.009933476 0.01011462 0.0102994 0.01047109 0.01062408 0.01075623 0.01086435
 0.01096928 0.01107234 0.01119324 0.01133248 0.0114786 0.01162976 0.01176095 0.01187499 0.01197211 0.01205888
 0.01215697 0.01226868 0.01241018 0.01257887 0.01277853 0.01300394 0.01325195 0.01351601 0.01379023 0.01407182
 0.01435877 0.01464703 0.01493805 0.01521386 0.01547125 0.0156939 0.01587627 0.01603437 0.01616803 0.01631135
 0.01646585 0.01664796 0.01685715 0.01709395 0.01735742 0.01764538 0.01795338 0.01826768 0.0185809 0.01886895
 0.0191315 0.01935616 0.01954958 0.01971522 0.01985517 0.01997257 0.02006624 0.02013492 0.0201833 0.02021133
 0.02022864 0.02023603 0.02024785 0.02026531 0.02030691 0.02037467 0.02047531 0.02060899 0.02076403 0.02093955
 0.02112288 0.0213131 0.02149943 0.02168037 0.02184085 0.02199021 0.0221374 0.02230132 0.02252166 0.0227896
 0.02311941 0.02347192 0.02381688 0.0241486 0.02444338 0.0247569 0.02510786 0.02551545 0.02600164 0.02648203
 0.02694393 0.02735451 0.02770655 0.02804547 0.02837311 0.02870869 0.02904846 0.02935715 0.02962952 0.02981779
 0.02992379 0.02992604 0.02983451 0.02965754 0.02941125 0.0291237 0.02880589 0.02848202 0.02814999 0.02781498
 0.0274752 0.02712917 0.02678252 0.02643651 0.02609627 0.02576116 0.02544604 0.02515076 0.02490629 0.02471608
 0.02459057 0.02453002 0.02449811 0.02449166 0.02446212 0.02441008 0.02431303 0.02417547 0.02399852 0.02379043
 0.02356852 0.02334248 0.02314002 0.02295135 0.02278294 0.02260362 0.02238676 0.02213023 0.02181715 0.02148681
 0.02114974 0.02083229 0.0205443 0.02028801 0.02006361 0.01988289 0.01974666 0.01966822 0.01964824 0.01968441
 0.01977638 0.01992109 0.02011598 0.02034784 0.02060949 0.02086644 0.02112089 0.02135735 0.02158972 0.02183928
 0.02209857 0.02237657 0.02263621 0.02284985 0.0230008 0.02306318 0.02307137 0.02302782 0.02297958 0.02293971
 0.02292906 0.02295457 0.02300994 0.02309638 0.02318856 0.02328517 0.02336157 0.02341845 0.02345689 0.02347945
 0.02350216 0.023524 0.02354967 0.02357727 0.02360461 0.02363059 0.02365523 0.02367011 0.02366581 0.02363682
 0.02357067 0.02348358 0.02337976 0.02327601 0.0231828 0.02309282 0.02300542 0.02291739 0.02282577 0.02275002
 0.02269236 0.02265695 0.02264402 0.02262744 0.02260642 0.02256309 0.02249981 0.02242166 0.02233013 0.02223239
 0.02212964 0.02202797 0.02192837 0.02183712 0.02174883 0.02165994 0.02156596 0.02146039 0.02134745 0.02123029
 0.02110253 0.02096659 0.02079823 0.02059009 0.02033637 0.02003134 0.01970477 0.01935793 0.01902786 0.01871665
 0.01844819 0.01822228 0.01804462 0.01791048 0.01779587 0.01769508 0.01757096 0.01743073 0.01727055 0.01710476
 0.01696009 0.01683152 0.01672678 0.01662922 0.01652376 0.01641436 0.01629552 0.01618651 0.01609224 0.0160301
 0.0160038 0.01603271 0.01612271 0.01626956 0.01647758 0.01667307 0.01685203</values></Ydata></AB><ScSm><Ydata ylabel="Single channel"><values byteorder="INTEL" format="FLOAT32" numvalues="1814"> 0.0695347 0.06954175 0.0696177 0.06977812 0.06999081 0.07019483 0.07034074 0.07041991 0.070448 0.07042837
 0.07036482 0.07030993 0.07035191 0.07052698 0.07076688 0.07094792 0.07099041 0.07092844 0.07088972 0.0709707
 0.07110348 0.07107779 0.07074064 0.07017466 0.06964077 0.06933531 0.06927076 0.06943792 0.06993225 0.07070217
 0.07127345 0.07109317 0.07022573 0.06938145 0.06912565 0.06933693 0.0695408 0.06945653 0.06908398 0.0685976
 0.06839241 0.068974 0.07046121 0.07218099 0.07291225 0.07165504 0.06834485 0.06408028 0.0607176 0.05987331
 0.06178435 0.06498636 0.06741352 0.06804493 0.06739004 0.06644263 0.06561264 0.06485839 0.06437636 0.06463335
 0.06572394 0.06694071 0.0671383 0.06571036 0.06331141 0.06139477 0.06088439 0.0615928 0.06300288 0.06483367
 0.06624307 0.06537277 0.06117928 0.05575109 0.05337495 0.05645728 0.06295615 0.06838177 0.06979143 0.06743372
 0.06343964 0.06005704 0.05880678 0.0600735 0.06303453 0.06634323 0.0689467 0.07013419 0.06935401 0.06669302
 0.06335008 0.06105676 0.06101224 0.06341054 0.06740016 0.07116603 0.07275715 0.07152799 0.06856485 0.0655373
 0.06360051 0.06340735 0.06527361 0.06884467 0.07307196 0.07682497 0.07935622 0.08037242 0.08009125 0.07910492
 0.07793097 0.07692751 0.07660823 0.07732524 0.07843508 0.07854369 0.07702459 0.0748553 0.07360959 0.07382928
 0.07459324 0.07463913 0.07364161 0.07200327 0.06960344 0.06577666 0.06083734 0.05648676 0.05411464 0.05374166
 0.05502631 0.05780379 0.06090105 0.06207274 0.06045694 0.05813731 0.05807557 0.06095332 0.06482162 0.06747905
 0.06850847 0.06912436 0.07060577 0.07298705 0.07489717 0.07459748 0.07170874 0.06817918 0.0669089 0.06890425
 0.07230817 0.0746796 0.0755645 0.07622837 0.07744303 0.07829216 0.0771294 0.07353777 0.06938078 0.06765004
 0.06985819 0.07452384 0.07824775 0.07822812 0.07414371 0.06822547 0.06352089 0.06178711 0.06301303 0.06657417
 0.07191785 0.07796653 0.08284107 0.08491073 0.08398269 0.08120386 0.07775489 0.07376198 0.06892033 0.06430601
 0.06259696 0.0655408 0.07171865 0.0777266 0.08121409 0.08205953 0.08104511 0.07839996 0.07401502 0.06884283
 0.06536013 0.06564212 0.06886218 0.0717629 0.07207231 0.07057582 0.0694305 0.0694727 0.06991528 0.07001024
 0.07011269 0.07107422 0.07302696 0.0750668 0.07613067 0.07596406 0.07516032 0.07446668 0.07410581 0.07361896
 0.07251027 0.07123349 0.07113656 0.0729876 0.07592121 0.07832846 0.07946914 0.07974154 0.07961611 0.07881911
 0.07674228 0.07360026 0.07090631 0.07035217 0.07216914 0.07498176 0.07723932 0.0783326 0.07844213 0.07797129
 0.0772727 0.0765399 0.07587087 0.07551341 0.07579829 0.07667148 0.07759281 0.07807675 0.07808554 0.07778995
 0.0772315 0.07639161 0.07543281 0.07470279 0.07448649 0.07478999 0.07538293 0.07600768 0.07647334 0.07661149
 0.07633135 0.07575455 0.07514574 0.07467134 0.07433999 0.07416575 0.07422423 0.07450739 0.07485092 0.07507091
 0.07510845 0.07500753 0.07481442 0.0745447 0.07422057 0.07390578 0.07369798 0.07366486 0.07376606 0.07387683
 0.07393084 0.07398839 0.07410298 0.07418483 0.07409108 0.07381676 0.07350953 0.07331 0.07324146 0.07324033
 0.0732265 0.07312302 0.07285844 0.07242611 0.07196055 0.07168891 0.07175113 0.07209519 0.07256114 0.07300127
 0.07330582 0.0734157 0.07336765 0.07326312 0.07315432 0.07300442 0.07277539 0.07251823 0.07236372 0.07242462
 0.07269247 0.073034 0.07330224 0.07343498 0.073452 0.0734176 0.07341614 0.07349077 0.07358114 0.07358178
 0.07347856 0.07337401 0.07336468 0.07343391 0.07347971 0.07343185 0.07333218 0.07329238 0.07337268 0.07352452
 0.07366106 0.07375474 0.07384554 0.07396787 0.0740858 0.07411072 0.0739992 0.07382103 0.07369524 0.0736666
 0.07369107 0.07373475 0.07382289 0.0739739 0.07413721 0.07423469 0.07424711 0.07423083 0.07424487 0.0742801
 0.07427646 0.07420079 0.07408588 0.07399331 0.07395861 0.07397583 0.07401548 0.07404672 0.07405071 0.07402375
 0.07397185 0.07390156 0.07381654 0.07372873 0.07367387 0.07369751 0.07380398 0.07392345 0.07395393 0.07384945
 0.07366345 0.07349831 0.07341102 0.07337074 0.07330741 0.07319064 0.07304977 0.07292827 0.07284103 0.07277618
 0.07271769 0.07266035 0.07261983 0.07263365 0.07273133 0.07288711 0.07301655 0.07304422 0.07297339 0.07287534
 0.07281651 0.07281214 0.07284083 0.07288025 0.07292969 0.07300888 0.07312678 0.07324986 0.07332624 0.07334889
 0.0733683 0.07343575 0.07356335 0.07373771 0.07393132 0.07409462 0.07418346 0.07421331 0.07425363 0.07435225
 0.07448987 0.07462098 0.07473338 0.07484952 0.07498863 0.07515287 0.0753459 0.0755819 0.07586778 0.07618296
 0.07648285 0.07672551 0.07690492 0.07706472 0.07727207 0.07756621 0.07792656 0.07829072 0.07860621 0.07887042
 0.0791209 0.0793868 0.07966147 0.07993323 0.08022341 0.08056523 0.08095349 0.08134633 0.08171575 0.08207038
 0.08242823 0.08279133 0.0831528 0.08351498 0.0838935 0.08430278 0.08473206 0.0851395 0.085484 0.08576559
 0.08602853 0.08632678 0.08668698 0.08708757 0.0874641 0.08775675 0.08797415 0.08819482 0.08848318 0.08881877
 0.0891352 0.08941461 0.08970715 0.09005685 0.09044302 0.09080964 0.09113072 0.09142873 0.09173733 0.09205753
 0.09235081 0.09257631 0.09273724 0.09288354 0.09306476 0.09329526 0.09357412 0.09391273 0.09431292 0.09473322
 0.09510976 0.09540814 0.0956358 0.09581723 0.09598055 0.09615397 0.09634852 0.09655191 0.09675185 0.09694714
 0.09712631 0.09726803 0.09738366 0.0975281 0.09774333 0.09801725 0.09832023 0.09865075 0.09901327 0.0993796
 0.09971731 0.1000455 0.1004156 0.1008282 0.1012098 0.1014907 0.1016747 0.1018125 0.10194 0.1020791
 0.1022718 0.1025623 0.1029441 0.1033582 0.1037499 0.1041067 0.1044409 0.1047563 0.1050409 0.1052788
 0.1054638 0.1056033 0.1057191 0.105846 0.1060229 0.106267 0.1065513 0.1068173 0.107015 0.1071213
 0.1071258 0.1070271 0.106859 0.1066921 0.106577 0.1064858 0.1063319 0.1060438 0.1056045 0.1050273
 0.1043237 0.1035096 0.1026322 0.1017746 0.1010276 0.1004567 0.1000966 0.09997474 0.1001242 0.1005523
 0.1011955 0.1019232 0.1025932 0.1030928 0.1033334 0.1032482 0.1028308 0.10216 0.1013621 0.1005476
 0.09978364 0.09909705 0.09848104 0.09792193 0.09745499 0.09719135 0.09727274 0.09780152 0.0988114 0.1002683
 0.1020619 0.1040062 0.1058924 0.1075739 0.10901 0.1102355 0.1113058 0.1122747 0.113193 0.1140863
 0.1149341 0.1156948 0.1163577 0.1169518 0.117506 0.1180191 0.1184668 0.1188228 0.1190771 0.1192463
 0.1193631 0.1194477 0.1195033 0.1195405 0.1195883 0.1196657 0.1197476 0.1197697 0.1196613 0.1193852
 0.1189691 0.118523 0.1182337 0.1183317 0.119012 0.1203289 0.1221401 0.1241688 0.1261399 0.1278716
 0.1292838 0.1303762 0.1312118 0.131884 0.13247 0.1330091 0.1335176 0.1340063 0.1344839 0.1349532
 0.1354136 0.1358667 0.1363207 0.1367822 0.1372407 0.1376694 0.1380557 0.1384243 0.1388193 0.1392606
 0.1397247 0.1401699 0.1405803 0.1409759 0.1413779 0.1417753 0.1421414 0.1424724 0.1427935 0.1431313
 0.1434996 0.1439015 0.1443217 0.1447201 0.1450579 0.145334 0.1455839 0.1458451 0.1461325 0.1464399
 0.1467548 0.1470675 0.1473772 0.1476948 0.1480345 0.1483941 0.1487429 0.1490422 0.1492822 0.1494937
 0.1497183 0.1499735 0.1502478 0.1505218 0.1507914 0.151075 0.1513956 0.1517518 0.1521077 0.1524205
 0.1526768 0.1529002 0.1531262 0.1533763 0.1536516 0.1539418 0.1542355 0.1545241 0.1548053 0.1550816
 0.1553579 0.1556364 0.1559161 0.1561941 0.1564677 0.1567378 0.1570081 0.1572816 0.1575606 0.1578497
 0.1581554 0.1584755 0.1587928 0.1590852 0.1593434 0.1595752 0.1597959 0.1600173 0.1602459 0.1604848
 0.1607357 0.1609977 0.1612666 0.1615364 0.1618015 0.1620596 0.1623145 0.1625743 0.162845 0.1631252
 0.1634095 0.1636953 0.1639821 0.1642659 0.16454 0.1648016 0.1650559 0.1653115 0.1655738 0.1658401
 0.166101 0.1663504 0.1665937 0.1668429 0.1671029 0.1673678 0.1676308 0.1678912 0.1681522 0.1684154
 0.1686784 0.168937 0.1691879 0.1694316 0.1696717 0.1699133 0.1701606 0.1704129 0.170665 0.1709138
 0.1711633 0.1714203 0.1716858 0.1719539 0.1722176 0.1724748 0.1727277 0.172977 0.1732189 0.1734523
 0.1736844 0.1739225 0.1741646 0.1744063 0.1746498 0.1748975 0.1751446 0.1753848 0.1756202 0.1758607
 0.1761173 0.176394 0.1766818 0.1769632 0.1772264 0.1774734 0.1777156 0.1779643 0.1782239 0.1784892
 0.1787522 0.1790119 0.1792731 0.1795374 0.1797997 0.1800525 0.1802918 0.1805221 0.1807556 0.1809999
 0.1812484 0.1814882 0.1817141 0.1819322 0.1821581 0.182407 0.182678 0.1829529 0.1832164 0.1834691
 0.1837171 0.1839613 0.1842015 0.18444 0.1846799 0.184925 0.1851785 0.1854381 0.1857001 0.1859647
 0.1862305 0.1864914 0.186746 0.1869994 0.1872539 0.187508 0.1877643 0.1880231 0.1882775 0.1885242
 0.1887685 0.1890143 0.1892628 0.1895186 0.1897839 0.1900529 0.190322 0.1905919 0.1908573 0.191109
 0.1913471 0.1915782 0.1918102 0.1920541 0.1923158 0.1925839 0.1928449 0.1931021 0.1933612 0.1936167
 0.1938657 0.1941139 0.1943618 0.1946063 0.1948526 0.1951039 0.1953547 0.1956037 0.1958533 0.1960854
 0.1962449 0.1962037 0.1956624 0.1940378 0.1904375 0.1838255 0.1734289 0.1592223 0.142111 0.1236168
 0.1053147 0.08840977 0.07360661 0.06120836 0.05128627 0.04378204 0.03855769 0.03548936 0.03457754 0.03606501
 0.04056009 0.04867242 0.05965449 0.07020828 0.07577459 0.07413001 0.06750952 0.06056973 0.05652694 0.05561012
 0.05644616 0.05785946 0.05947718 0.06151447 0.06433524 0.06803348 0.07242659 0.07751314 0.08368184 0.09121321
 0.09970176 0.1082351 0.1161799 0.1236707 0.131293 0.139375 0.147646 0.1555068 0.1625043 0.1685509
 0.173832 0.1786059 0.1830594 0.1872799 0.1913021 0.1951148 0.1985849 0.2014212 0.2033118 0.2041625
 0.2042138 0.2039084 0.2036288 0.2035445 0.2036623 0.2039498 0.2043914 0.2049772 0.205687 0.2064871
 0.2073374 0.2082081 0.2090868 0.2099598 0.2108009 0.2115861 0.212306 0.2129583 0.213546 0.2140831
 0.2145871 0.215066 0.2155206 0.2159511 0.2163566 0.2167357 0.2170912 0.2174271 0.2177436 0.2180395
 0.2183167 0.2185776 0.2188224 0.2190524 0.2192714 0.2194841 0.219697 0.2199165 0.2201429 0.2203716
 0.2205994 0.2208261 0.2210512 0.2212756 0.2215024 0.221731 0.221955 0.2221687 0.2223737 0.2225774
 0.2227896 0.2230165 0.2232531 0.2234846 0.2237028 0.2239138 0.2241285 0.2243498 0.2245732 0.2247916
 0.2250057 0.2252287 0.2254745 0.2257382 0.2259986 0.2262404 0.2264664 0.2266892 0.2269216 0.2271681
 0.2274147 0.2276355 0.2278189 0.2279853 0.228173 0.2284074 0.2286815 0.2289621 0.2292182 0.2294424
 0.2296461 0.2298448 0.2300484 0.2302548 0.2304576 0.2306697 0.2309213 0.2312195 0.2315321 0.2318284
 0.2321096 0.2323869 0.2326625 0.2329379 0.2332078 0.2334415 0.2336093 0.2337375 0.2339118 0.2342085
 0.2346191 0.2350508 0.2354134 0.2356974 0.2359549 0.236233 0.2365503 0.2368841 0.2371404 0.2372121
 0.2371413 0.2371551 0.2374562 0.2380213 0.238656 0.239198 0.2396158 0.23996 0.240276 0.2405564
 0.2407497 0.2408181 0.2408132 0.2408929 0.2412148 0.2417751 0.2423949 0.2428998 0.2432574 0.2435207
 0.2437345 0.2439259 0.2440585 0.243975 0.2435649 0.2430565 0.2429568 0.2435597 0.2446141 0.2455913
 0.2462091 0.2465759 0.2468912 0.2471986 0.2474462 0.2475376 0.2472172 0.2462124 0.2447664 0.2437924
 0.2441229 0.2456725 0.247583 0.2490802 0.2499623 0.2504175 0.2506912 0.25092 0.2510303 0.2507445
 0.2498941 0.2488363 0.2483672 0.2489889 0.2503454 0.2516044 0.2523052 0.252601 0.2528197 0.2530967
 0.2532832 0.2528886 0.2513581 0.2488964 0.2468851 0.2469066 0.2491908 0.252337 0.2547045 0.255823
 0.2562507 0.2563601 0.2557897 0.2540914 0.2514016 0.2483778 0.245997 0.2454227 0.2472326 0.2504571
 0.2531302 0.2542251 0.25452 0.2553136 0.2568799 0.2584587 0.2592469 0.2590266 0.2580417 0.2565542
 0.254712 0.2529562 0.2522708 0.2534821 0.2562513 0.259198 0.2611793 0.262158 0.2625957 0.2621058
 0.2591792 0.252994 0.2456865 0.2417699 0.2441471 0.2510694 0.2580121 0.262127 0.2638084 0.264572
 0.2650292 0.2647131 0.2623499 0.256555 0.2480066 0.2408136 0.2397332 0.2454603 0.2538416 0.2597576
 0.260617 0.256625 0.2498537 0.2436216 0.2411407 0.2435706 0.2495139 0.2563962 0.2620113 0.2651219
 0.2654448 0.2635314 0.2607266 0.2588424 0.2588459 0.2594225 0.2579697 0.2538834 0.2495651 0.246896
 0.244325 0.2397379 0.2350979 0.2351472 0.2412462 0.2491048 0.2536023 0.2539737 0.2528917 0.2515903
 0.2477502 0.2388436 0.2269336 0.2187534 0.2198182 0.2287077 0.2383407 0.2429072 0.2424809 0.240935
 0.2407672 0.2405584 0.2369836 0.2291517 0.2207939 0.2171332 0.2193303 0.2234323 0.2250404 0.2228337
 0.2170397 0.2079921 0.1986108 0.1953116 0.2025856 0.217482 0.2319306 0.2394042 0.2373111 0.225514
 0.2071774 0.1906215 0.1852829 0.1932797 0.2068408 0.2154597 0.2142323 0.2047121 0.1903939 0.1743159
 0.1604565 0.1541638 0.1589294 0.1728308 0.1886644 0.1975735 0.193937 0.1796972 0.1646422 0.159366
 0.1656884 0.175454 0.1796843 0.1767183 0.1709167 0.1669909 0.1672613 0.17135 0.1766119 0.1805752
 0.1829066 0.1827198 0.1759301 0.1601865 0.1415102 0.1303612 0.1307626 0.1382044 0.1480133 0.1595443
 0.1708096 0.1756212 0.1705809 0.1615602 0.1587146 0.1657031 0.176551 0.1829512 0.182472 0.1789914
 0.1766724 0.1755162 0.1734433 0.1711007 0.172048 0.1778471 0.1853472 0.1902027 0.1914033 0.1909017
 0.1902971 0.1896261 0.1884847 0.1867414 0.1844521 0.1819647 0.1798251 0.1781609 0.176573 0.174764
 0.1725149 0.1687727 0.1619062 0.152052 0.1425669 0.1374031 0.1369654 0.1383489 0.1396355 0.1410419
 0.1409511 0.1347518 0.1209439 0.1061725 0.100407 0.1073269 0.1215901 0.1348979 0.1422838 0.1425218
 0.135719 0.1236893 0.1122065 0.1092004 0.1182563 0.1351601 0.1524351 0.1657881 0.1745666 0.1782059
 0.1755993 0.1678472 0.1593242 0.1552107 0.1583714 0.1680515 0.1800504 0.1877393 0.1853052 0.1735804
 0.1627294 0.1647587 0.1808386 0.1992768 0.2086595 0.2094546 0.2093345 0.2112522 0.2119889 0.2106011
 0.2117842 0.2194034 0.2307517 0.2391907 0.2399689 0.232093 0.2176704 0.2023332 0.1937844 0.1956697
 0.2034831 0.2094976 0.2102663 0.2061993 0.1969781 0.1833889 0.1721365 0.1718298 0.1829735 0.1967911
 0.2051966 0.2081582 0.2100654 0.2121993 0.2112485 0.2044011 0.1940409 0.1862653 0.1848488 0.1879425
 0.1912107 0.1924154 0.1914822 0.1879272 0.1811483 0.1732112 0.1688752 0.171489 0.1795643 0.188199
 0.1934842 0.1949695 0.1944875 0.1937941 0.1933723 0.1925886 0.1909198 0.1895595 0.1911858 0.197028
 0.2047888 0.2109469 0.2147753 0.2185783 0.2240729 0.2299907 0.2335826 0.2336052 0.2315292 0.2303024
 0.2320043 0.2361789 0.2401566 0.2413347 0.2396573 0.23789 0.239062 0.2435674 0.2491117 0.2533124
 0.2556438 0.2569429 0.2580037 0.2589028 0.2589647 0.2572901 0.2540745 0.2513879 0.2517227 0.2555199
 0.2607337 0.2649224 0.2671991 0.2681032 0.2682863 0.2678091 0.266529 0.2647392 0.263184 0.2624776
 0.2626711 0.2634037 0.2642934 0.265104 0.2657219 0.266139 0.2664214 0.2666341 0.2668289 0.2670876
 0.2674774 0.2679546 0.2684106 0.2688401 0.2693744 0.2700913 0.2708659 0.2714777 0.2718014 0.2718062
 0.271431 0.2706019 0.2693717 0.267909 0.2663071 0.2645263 0.262638 0.2610795 0.2605195 0.2613647
 0.2633958 0.2659078 0.2681915 0.2698808 0.2709491 0.2715321 0.2718009 0.2719121 0.2719691 0.2720007
 0.271984 0.2718946 0.2717333 0.2715158 0.271261 0.2710017 0.2707894 0.2706611 0.2706013 0.27055
 0.270444 0.2702491 0.2699677 0.2696321 0.2692745 0.2688896 0.2684284 0.2678376 0.2671073 0.2662835
 0.2654448 0.2646597 0.2639467 0.2632619 0.2625351 0.2617173 0.2607834 0.2597027 0.2584596 0.2571203
 0.2558278 0.2546914 0.2537007 0.2527643 0.2517966 0.2507502 0.2496066 0.2483708 0.2470636 0.2457027
 0.2442953 0.242846 0.2413579 0.2398263 0.2382388 0.2365846 0.2348615 0.2330783 0.2312487 0.2293731
 0.2274191 0.2253118 0.2229435 0.220198 0.2169714 0.2131829 0.2088015 0.203891 0.1986272 0.1932493
 0.1879768 0.1829601 0.1782931 0.1740617 0.1703705 0.1673176 0.1649574 0.1633055 0.1623646 0.1621293
 0.1625764 0.1636677 0.1653425 0.1674911 0.169951 0.1725393 0.175083 0.1774395 0.1795365 0.1814095
 0.1831739 0.1849326 0.1867053 0.1884401 0.1900768 0.1915833 0.1929373 0.1941096 0.195085 0.1958776
 0.1965088 0.1969855 0.1973148 0.1975213 0.1976377 0.1976917 0.197712 0.1977366 0.1978129 0.1979929
 0.1983174 0.1987938 0.1993912 0.2000604 0.2007644 0.2014963 0.202272 0.2031015 0.2039724 0.2048659
 0.205783 0.2067552 0.207844 0.2091294 0.2106761 0.2124968 0.2145477 0.2167497 0.2190104 0.2212336
 0.2233233 0.2251856 0.2267454 0.2279722 0.2288877 0.2295438 0.2299968 0.2302901 0.2304461 0.2304781
 0.2304078 0.2302572 0.2300248 0.2296951 0.2292659 0.2287465 0.2281402 0.2274594 0.2267441 0.2260396
 0.2253626 0.2247037 0.2240538 0.2234156 0.2227953 0.2221916 0.221594 0.2209964 0.2204036 0.2198144
 0.2192049 0.2185342 0.2177633 0.2168693 0.2158574 0.2147554 0.2135835 0.2123338 0.2109873 0.2095412
 0.208013 0.2064302 0.2048177 0.2031847 0.2015219 0.1998075 0.1980058 0.1960728 0.1939977 0.1918421
 0.1897109 0.1876799 0.1857623 0.1839343 0.1821725 0.1804726 0.1788451 0.1772959 0.1758169 0.1744031
 0.1730657 0.1718149 0.1706407 0.1695213 0.1684487 0.1674433 0.1665444 0.1657795 0.1651404 0.1645957
 0.1641192 0.1636986 0.1633351 0.1630502 0.1628745 0.1628042 0.1627784 0.1627101 0.1625399 0.16227
 0.1619551 0.1616537 0.1613833 0.1611291 0.160879 0.1606188 0.1602977 0.1598293 0.1591249 0.1581159
 0.1567692 0.1551076 0.1532139 0.1512078 0.149219 0.1473655 0.1457351 0.1443832 0.1433322 0.1425492
 0.1419412 0.141415 0.140951 0.1406101 0.1404679 0.1405265 0.1406693 0.1407286 0.1406406 0.1405202
 0.1405583 0.1408649 0.1414136 0.1420837 0.1427352 0.1432728 0.1436621 0.1438965 0.1439828 0.1439564
 0.1438618 0.14371 0.1434903 0.1432113 0.142897 0.1425552 0.1421716 0.1417189 0.1411713 0.1405249
 0.1397928 0.1389783 0.1380828 0.1371189 0.1360705 0.134887 0.1336007 0.1324191 0.1316288 0.1314095
 0.1317418 0.1324401 0.1332838 0.1341564 0.1350078 0.1356704 0.1359 0.1357521 0.1357828 0.1366469
 0.1384671 0.1407028 0.1426355 0.1438795 0.1444252 0.144381 0.1438311 0.1428414 0.1414243 0.1395293
 0.1371657 0.1344611 0.131558 0.1285769 0.1256934 0.1230971 0.1208835 0.1190683 0.1176393 0.1166217
 0.116128 0.115799 0.1138563 0.1080345 0.0990777 0.092307 0.09316504 0.1011073 0.1099704 0.1144926
 0.1145231 0.112869 0.1114698 0.1106137 0.1101896 0.1103155 0.1111003 0.1124077 0.1138706 0.1151
 0.1159264 0.11637 0.1163732 0.115595 0.1133665 0.1089083 0.1019598 0.09335037 0.08472231 0.07756938
 0.07257017 0.0696162 0.06813238 0.06741004 0.06696219 0.06674588 0.06703974 0.06809837 0.06993505 0.07240047
 0.07534478 0.0785707 0.08169663 0.08430351 0.08627711 0.08783127 0.08914866 0.0901586 0.09069625 0.09072442
 0.09035277 0.08974365 0.089036 0.08829303 0.08747342 0.08647905 0.0853025 0.08414604 0.08331068 0.08291928
 0.08282688 0.08282863 0.0828426 0.0828661 0.08288747 0.08288915 0.08286726 0.08285372 0.08295013 0.08326285
 0.08375815 0.08425714 0.0846029 0.08478083 0.08487849 0.08494345 0.08486177 0.08445157 0.08376275 0.08312784
 0.08272511 0.08225834 0.08134305 0.08010419 0.07911727 0.07879531 0.07903346 0.07941917 0.07960822 0.07950237
 0.07924809 0.07915255 0.07946979 0.08011538</values></Ydata></ScSm><ScRf><Ydata ylabel="Single channel"><values byteorder="INTEL" format="FLOAT32" numvalues="1820"> 0.06045191 0.0606218 0.06072704 0.06076429 0.06076082 0.060768 0.06083669 0.06098443 0.06118218 0.0613705
 0.0614979 0.06155351 0.06155699 0.0615219 0.06145725 0.06140687 0.06144322 0.06159616 0.06180695 0.06196805
 0.06200802 0.06195283 0.06191198 0.06197258 0.06208166 0.0620594 0.06176975 0.06127898 0.06081202 0.06054366
 0.06049047 0.06064526 0.06108694 0.06176785 0.06227522 0.06212414 0.06136265 0.06060749 0.06036247 0.0605365
 0.06071965 0.06065821 0.06034153 0.05991908 0.05974085 0.06025508 0.06156743 0.06308507 0.06373225 0.06262657
 0.05970734 0.05593999 0.05296385 0.05221195 0.05389883 0.05673142 0.05888121 0.05944313 0.05886799 0.0580378
 0.05731607 0.05666016 0.05623515 0.05645202 0.05740187 0.05846855 0.05864345 0.05738843 0.05527605 0.05358405
 0.05312664 0.05374236 0.05498011 0.05659408 0.05784252 0.05708912 0.05341365 0.04864996 0.04656751 0.04928536
 0.05500931 0.05978741 0.06102744 0.05894985 0.0554362 0.05246782 0.0513773 0.05249264 0.05508505 0.05797499
 0.06024639 0.06128141 0.06059654 0.05826563 0.05533782 0.05333003 0.05329395 0.05540226 0.05891114 0.06222761
 0.06363421 0.06255804 0.05995096 0.0572824 0.05557181 0.05539601 0.05703575 0.06018393 0.06392105 0.06724828
 0.06949829 0.07040547 0.07016127 0.06929324 0.06826431 0.06739178 0.06712231 0.0677578 0.06872986 0.06881741
 0.06747534 0.06556305 0.06446107 0.06464831 0.0653231 0.06537822 0.06451882 0.06308715 0.06097308 0.05759624
 0.05324096 0.04940812 0.04731921 0.0469912 0.04812992 0.05059992 0.05336662 0.05443556 0.0530298 0.05098242
 0.05091535 0.05344358 0.05685461 0.05920349 0.06011679 0.06066547 0.06198181 0.06409754 0.06579977 0.06555066
 0.06301571 0.05991691 0.05881358 0.06058945 0.06360288 0.06570552 0.06650837 0.06713486 0.06826088 0.06906365
 0.06807719 0.06493212 0.06128443 0.05978661 0.06177597 0.06593856 0.06926399 0.0692689 0.06566875 0.06044875
 0.05631937 0.05483774 0.05599087 0.05923259 0.06408434 0.06958982 0.07406529 0.07603767 0.07531235 0.07290352
 0.06987564 0.06635074 0.06205321 0.05795494 0.0564913 0.05926261 0.06498986 0.07058008 0.07388809 0.07478885
 0.07397684 0.07164732 0.06770311 0.06304194 0.05996969 0.06040554 0.06356715 0.06641771 0.06684087 0.06556694
 0.06461106 0.06476562 0.06530485 0.0655306 0.06577601 0.06684244 0.06885245 0.07094789 0.07211691 0.07210982
 0.07148595 0.07096452 0.07076855 0.07045816 0.06955285 0.06849451 0.06858966 0.0705744 0.07359868 0.07609963
 0.07736728 0.07779945 0.07785446 0.07724935 0.07537004 0.07242589 0.0699254 0.06956008 0.07156821 0.07457907
 0.07703295 0.07830543 0.07857566 0.07826445 0.07774427 0.07721343 0.07675844 0.07661362 0.07710649 0.07818498
 0.07930538 0.07997736 0.08016594 0.0800447 0.07964897 0.07895729 0.07814637 0.07758316 0.07755762 0.07806774
 0.07887487 0.07971558 0.08038923 0.08071232 0.08058423 0.08013527 0.07965308 0.07931955 0.0791422 0.0791338
 0.07937795 0.07986663 0.0804154 0.08081681 0.08100586 0.08103804 0.08097444 0.08083665 0.0806423 0.08045296
 0.08037925 0.08050494 0.0807855 0.08107524 0.08129735 0.08151923 0.08179679 0.08202381 0.08203989 0.08184686
 0.08162192 0.0815291 0.08158715 0.08171202 0.08181235 0.08181132 0.0816352 0.081275 0.08087683 0.08068905
 0.08086504 0.08135498 0.08199617 0.08262927 0.08311928 0.08338059 0.08343971 0.08340471 0.08334027 0.08322204
 0.08302615 0.08282023 0.08274882 0.0829273 0.08333467 0.08381669 0.0842091 0.08444224 0.08453938 0.0845809
 0.08467405 0.08486854 0.08507711 0.08515517 0.08508162 0.08499447 0.0850264 0.08515693 0.08525188 0.0852239
 0.08513162 0.08511544 0.08524636 0.08546209 0.0856562 0.08579834 0.08594603 0.08614968 0.08636181 0.08645747
 0.08636498 0.08616078 0.08599305 0.08592606 0.08591929 0.08594846 0.0860597 0.08627506 0.08651182 0.08665188
 0.08667019 0.08665423 0.08669384 0.08677685 0.08680781 0.08671772 0.08653641 0.08636168 0.08627755 0.0863025
 0.08639106 0.08646839 0.08647499 0.0864007 0.08628403 0.08617432 0.08609539 0.08605607 0.08608789 0.0862354
 0.08648155 0.08670306 0.08674559 0.08656397 0.08627567 0.08605869 0.08599327 0.08600511 0.08595715 0.08578315
 0.08552928 0.08528754 0.08511205 0.08499628 0.08490571 0.08482113 0.08476244 0.08477856 0.08489549 0.08505642
 0.08513281 0.08502983 0.08478005 0.0845101 0.0843242 0.08424253 0.08422805 0.08423343 0.08423551 0.08425492
 0.08432361 0.08441506 0.08444583 0.08437334 0.08425562 0.08419273 0.0842459 0.08441572 0.0846418 0.08481148
 0.0848318 0.0847224 0.08460097 0.0845645 0.08461589 0.08470635 0.08480351 0.08490027 0.08499363 0.08508696
 0.08520409 0.08537793 0.08561833 0.0858948 0.08614963 0.08633226 0.08643763 0.08652174 0.08666816 0.08692094
 0.08724679 0.08756597 0.08782048 0.08801384 0.08818959 0.08837568 0.08856185 0.08873882 0.08893854 0.08920445
 0.08953004 0.08986133 0.09016103 0.09044017 0.09072567 0.09102392 0.09132603 0.09163582 0.0919821 0.09239098
 0.09283502 0.09322442 0.09347846 0.09360763 0.09371176 0.09390178 0.09422335 0.09462371 0.09497565 0.09517449
 0.09524581 0.09532942 0.09552708 0.09579962 0.09605066 0.0962754 0.09656639 0.09697894 0.09744416 0.09783287
 0.09807987 0.09823155 0.09838358 0.09858084 0.09878022 0.09891479 0.09898358 0.0990523 0.09916978 0.09932903
 0.09952624 0.09980427 0.1001922 0.1006345 0.1010284 0.1013173 0.1015158 0.1016626 0.1017831 0.1018822
 0.1019466 0.1019707 0.1019892 0.1020553 0.1021685 0.1022617 0.1022854 0.1022759 0.1023131 0.1024418
 0.1026596 0.1029495 0.1032797 0.1035934 0.1038537 0.104103 0.1044244 0.1048178 0.1051642 0.1053508
 0.1053958 0.1054029 0.1054291 0.1054639 0.1055186 0.105654 0.1059058 0.1062371 0.1065883 0.1069371
 0.1072918 0.107648 0.1079687 0.1081993 0.1083021 0.1082916 0.1082398 0.1082413 0.1083633 0.1086143
 0.108945 0.1092819 0.1095669 0.1097686 0.1098657 0.1098527 0.1097811 0.1097608 0.1098749 0.1100865
 0.1102574 0.1102604 0.1100575 0.1096756 0.10915 0.1085135 0.1078221 0.1071597 0.1066065 0.1062087
 0.1059828 0.1059499 0.1061487 0.1065935 0.1072232 0.107918 0.1085691 0.1091029 0.109436 0.1094653
 0.109145 0.1085484 0.1078201 0.1070829 0.1064011 0.1057879 0.1052125 0.1046368 0.1040995 0.1037554
 0.1038012 0.1043559 0.1054035 0.106807 0.1083507 0.1098068 0.1110247 0.1119864 0.1127756 0.1134859
 0.1141624 0.114819 0.1154754 0.1161422 0.1167866 0.1173552 0.1178352 0.1182634 0.1186724 0.1190576
 0.1193946 0.1196679 0.1198871 0.1200875 0.1202982 0.1204925 0.1205986 0.1205787 0.1204738 0.1203497
 0.1202228 0.120055 0.119798 0.1194324 0.118994 0.1185959 0.1184156 0.1186243 0.11929 0.1203343
 0.1215909 0.1229093 0.1241952 0.1253667 0.1263258 0.1270105 0.1274518 0.1277514 0.1280083 0.1282773
 0.1285727 0.1288852 0.1291966 0.1294937 0.1297754 0.1300545 0.1303536 0.1306861 0.1310318 0.1313434
 0.1315937 0.1318137 0.1320726 0.1324132 0.1328064 0.1331809 0.1335008 0.1337997 0.1341188 0.1344345
 0.1346833 0.1348513 0.1350002 0.1352044 0.1354943 0.1358552 0.1362412 0.1365861 0.1368412 0.1370184
 0.1371782 0.1373708 0.1376005 0.1378465 0.1380945 0.1383424 0.1385921 0.1388512 0.1391348 0.1394453
 0.1397486 0.1399903 0.1401497 0.140267 0.1404057 0.140592 0.1408037 0.1410078 0.1412007 0.1414141
 0.1416857 0.1420161 0.1423536 0.1426285 0.1428097 0.1429259 0.1430362 0.1431846 0.1433801 0.1436047
 0.1438341 0.1440517 0.144255 0.1444516 0.1446519 0.1448597 0.1450707 0.1452787 0.1454823 0.1456852
 0.14589 0.1460959 0.1463069 0.1465409 0.1468177 0.1471293 0.1474312 0.1476746 0.147847 0.1479752
 0.1480959 0.1482327 0.1483929 0.1485718 0.1487586 0.1489462 0.1491359 0.1493343 0.1495443 0.1497601
 0.1499721 0.150176 0.150378 0.1505858 0.1508016 0.1510255 0.1512572 0.1514893 0.1517056 0.1518962
 0.1520702 0.1522494 0.152449 0.1526657 0.1528833 0.153088 0.1532791 0.1534634 0.153646 0.1538295
 0.1540168 0.1542075 0.1543973 0.1545838 0.1547715 0.1549657 0.155166 0.1553678 0.1555684 0.1557702
 0.1559769 0.1561877 0.1563948 0.1565909 0.1567771 0.1569617 0.1571541 0.1573584 0.1575709 0.1577832
 0.1579885 0.1581849 0.1583726 0.1585551 0.1587398 0.1589323 0.1591298 0.1593257 0.1595181 0.1597116
 0.1599144 0.1601303 0.1603513 0.1605625 0.1607593 0.160954 0.1611612 0.1613835 0.1616131 0.161839
 0.162053 0.1622556 0.1624559 0.1626624 0.1628763 0.1630968 0.1633233 0.1635506 0.1637681 0.1639662
 0.1641442 0.1643112 0.1644785 0.164649 0.1648183 0.1649871 0.1651633 0.1653506 0.1655435 0.1657378
 0.1659335 0.1661291 0.1663219 0.1665134 0.1667073 0.1669039 0.1670998 0.1672915 0.1674818 0.1676804
 0.1678923 0.1681105 0.168326 0.1685388 0.1687513 0.1689617 0.169172 0.1693898 0.1696153 0.1698386
 0.1700516 0.1702544 0.1704521 0.1706539 0.1708661 0.171083 0.1712936 0.1714973 0.1717006 0.171906
 0.1721127 0.1723211 0.1725333 0.1727536 0.1729839 0.1732141 0.1734286 0.1736263 0.17382 0.1740177
 0.1742205 0.1744288 0.1746376 0.1748387 0.1750365 0.1752438 0.1754625 0.1756852 0.1759095 0.1761344
 0.1763551 0.176571 0.1767811 0.1769671 0.1770865 0.1770366 0.1765515 0.1750914 0.1718299 0.1658227
 0.1563808 0.143495 0.1279874 0.1112282 0.0946383 0.0793141 0.06590484 0.05468934 0.04572455 0.03894612
 0.03422554 0.03145489 0.03063653 0.03198422 0.03604067 0.04335839 0.05327425 0.06282093 0.06787676 0.06641516
 0.0604411 0.05416558 0.05050734 0.04967805 0.05043337 0.05170945 0.05317108 0.05501253 0.05756184 0.06090598
 0.0648808 0.06947866 0.07504261 0.08182922 0.08948855 0.09721013 0.1044187 0.1112214 0.1181367 0.1254581
 0.1329401 0.1400428 0.1463655 0.15184 0.1566352 0.1609716 0.1650038 0.1688097 0.1724341 0.1758804
 0.179029 0.1816079 0.1833281 0.184104 0.1841562 0.1838864 0.1836392 0.1835649 0.1836685 0.183924
 0.1843205 0.1848489 0.185491 0.1862199 0.1870008 0.187803 0.1886093 0.1894049 0.1901662 0.1908741
 0.1915271 0.1921312 0.192687 0.1931908 0.1936417 0.1940494 0.1944357 0.1948194 0.1952001 0.1955636
 0.1959016 0.196215 0.1965039 0.1967663 0.197003 0.1972208 0.1974319 0.197648 0.1978692 0.1980844
 0.1982879 0.198487 0.1986905 0.1988991 0.199109 0.1993162 0.1995174 0.1997159 0.1999198 0.20013
 0.2003373 0.2005356 0.2007299 0.2009265 0.2011236 0.2013157 0.2015011 0.2016824 0.2018635 0.2020488
 0.202242 0.2024426 0.2026429 0.2028331 0.2030164 0.2032109 0.2034318 0.2036727 0.2039142 0.2041432
 0.2043558 0.2045529 0.2047434 0.2049406 0.2051433 0.2053313 0.2054893 0.2056305 0.2057895 0.2059931
 0.2062351 0.2064818 0.2067047 0.2069047 0.2070989 0.207294 0.2074816 0.2076525 0.2078114 0.2079852
 0.2082054 0.2084715 0.2087459 0.2089983 0.2092332 0.2094664 0.2097022 0.2099412 0.2101795 0.2103937
 0.2105573 0.2106844 0.2108397 0.2110888 0.2114356 0.2118089 0.2121253 0.2123649 0.212573 0.2128031
 0.2130766 0.2133632 0.2135686 0.2136012 0.2135113 0.2135091 0.2137749 0.2142836 0.214859 0.2153536
 0.2157322 0.2160296 0.216284 0.2164975 0.2166333 0.2166581 0.2166153 0.2166501 0.2169106 0.2173951
 0.2179367 0.2183721 0.2186746 0.2189013 0.2190973 0.2192806 0.2194085 0.2193339 0.2189556 0.2184801
 0.2183699 0.2188984 0.2198431 0.2207251 0.2212848 0.2216129 0.2218832 0.222137 0.222338 0.2224084
 0.222116 0.2212071 0.2198988 0.2190196 0.219324 0.2207312 0.2224617 0.2238156 0.2246127 0.2250241
 0.2252738 0.2254864 0.2255894 0.2253222 0.2245326 0.223559 0.2231381 0.2237248 0.2249797 0.2261292
 0.2267544 0.2270123 0.2272163 0.2274829 0.2276575 0.2272882 0.2258838 0.2236433 0.22182 0.221844
 0.2239249 0.2267934 0.2289526 0.2299632 0.2303331 0.2304182 0.2299043 0.2283812 0.2259606 0.2232318
 0.2210821 0.2205725 0.2222279 0.2251618 0.2275865 0.2285807 0.2288632 0.2296073 0.231042 0.2324707
 0.2331769 0.2329776 0.2320969 0.230766 0.2291101 0.2275238 0.2269022 0.2280067 0.2305432 0.2332627
 0.2351163 0.2360513 0.2364737 0.236032 0.2333705 0.2277651 0.2211654 0.2176514 0.2198306 0.2261109
 0.2324081 0.2361596 0.2377273 0.2384749 0.2389382 0.2386791 0.2365438 0.2312951 0.2235652 0.2170818
 0.2161475 0.2213838 0.229026 0.2344376 0.2352648 0.2316834 0.2255737 0.2199592 0.2177617 0.2200275
 0.225481 0.2317856 0.2369393 0.2398166 0.2401571 0.2384619 0.2359595 0.2343052 0.2343758 0.2349646
 0.2336998 0.2300397 0.226179 0.2238345 0.2215945 0.2175284 0.2134157 0.2135742 0.2192473 0.2265247
 0.2307369 0.2311942 0.2303456 0.2293186 0.225983 0.2180094 0.207271 0.1999335 0.2010611 0.2093582
 0.2183325 0.2226595 0.2224111 0.2211412 0.2211461 0.2211258 0.218012 0.2109732 0.2034622 0.2003227
 0.2026316 0.2067318 0.2085599 0.2068841 0.2018757 0.1938176 0.1854563 0.182837 0.1902027 0.2048014
 0.2190429 0.226743 0.2253777 0.2147291 0.1977808 0.1825439 0.1781499 0.1866657 0.2005801 0.209715
 0.2092929 0.2007724 0.1875097 0.172484 0.1596888 0.1545391 0.1606291 0.1760952 0.1936365 0.204112
 0.2015852 0.1879756 0.1735313 0.1694518 0.1776518 0.1894117 0.1951409 0.1930835 0.1879346 0.1848186
 0.186351 0.1921619 0.1992781 0.2049212 0.2087239 0.2095697 0.2026059 0.1850711 0.1639961 0.1515696
 0.1524872 0.1615491 0.1734019 0.1873426 0.2009764 0.206921 0.2011281 0.1905542 0.18724 0.1955294
 0.2083526 0.2158775 0.2152421 0.2110791 0.2083689 0.2071467 0.2049702 0.2026348 0.2043754 0.2120122
 0.2217557 0.2284326 0.2308628 0.2313809 0.2318806 0.2323829 0.2323753 0.2316747 0.2303441 0.2288226
 0.2277972 0.2274258 0.2271865 0.2266702 0.2255597 0.2224163 0.2149851 0.2033651 0.1920355 0.1863056
 0.1866797 0.1892239 0.1914205 0.1936297 0.1936143 0.1850135 0.165744 0.144881 0.1360513 0.144268
 0.1622008 0.1785318 0.1866233 0.1850867 0.1744034 0.1571274 0.1405819 0.1345645 0.14336 0.1616325
 0.1801293 0.1936516 0.2016434 0.203773 0.1989546 0.1884958 0.1773671 0.1713639 0.1735719 0.1830022
 0.1949297 0.2021256 0.1983911 0.1847069 0.1719553 0.1729073 0.1888321 0.2073916 0.2165061 0.2165908
 0.2156862 0.2169577 0.2171136 0.2151652 0.2159518 0.2234969 0.2350846 0.2439391 0.2451731 0.237711
 0.2236656 0.2088414 0.2012226 0.2045309 0.2139285 0.2212313 0.2228045 0.2190705 0.2096804 0.1955547
 0.1840073 0.1843401 0.1970658 0.2126985 0.2225322 0.2265663 0.2295486 0.2328042 0.2326383 0.2259502
 0.2154304 0.2079042 0.2075841 0.2123867 0.2174536 0.2202714 0.2206945 0.2180379 0.2115087 0.2035063
 0.1996491 0.2038841 0.2143742 0.2251876 0.2315814 0.2329616 0.2314868 0.2292667 0.2269453 0.2238791
 0.2195525 0.2154088 0.2145671 0.2184982 0.2246954 0.2292564 0.2313537 0.2335077 0.237621 0.2423581
 0.244775 0.2435349 0.2401757 0.2377601 0.2384125 0.2416362 0.2446929 0.2449415 0.2423467 0.239746
 0.2402432 0.244258 0.2494672 0.2534418 0.2556255 0.2568454 0.2578861 0.2587906 0.2588231 0.2570361
 0.2536191 0.2506588 0.2506532 0.2540354 0.2587638 0.262434 0.2642228 0.2647293 0.2646275 0.2639655
 0.2625827 0.2607604 0.2592264 0.2585713 0.2588269 0.259624 0.2605797 0.2614579 0.262138 0.2626003
 0.2629035 0.2631047 0.2632305 0.2633204 0.2634098 0.2634522 0.2633655 0.2631958 0.2631402 0.2633339
 0.2636789 0.2639487 0.2639955 0.2637717 0.263218 0.2622728 0.2609928 0.2595385 0.2579965 0.2563263
 0.2545894 0.253194 0.2527693 0.2536927 0.2557333 0.2581904 0.2603727 0.2619455 0.2629129 0.2634227
 0.2636378 0.2637005 0.2637019 0.2636586 0.2635403 0.2633256 0.2630258 0.262666 0.26227 0.2618702
 0.2615106 0.261216 0.2609593 0.2606757 0.2603156 0.2598743 0.2593764 0.258848 0.2583022 0.2577273
 0.2570858 0.2563364 0.2554679 0.2545176 0.2535636 0.2526871 0.2519147 0.2511941 0.2504444 0.2496248
 0.2487287 0.247733 0.2466161 0.2454387 0.244349 0.2434667 0.2427817 0.2421816 0.2415485 0.2408114
 0.2399459 0.2389686 0.2379258 0.2368569 0.2357676 0.2346421 0.2334635 0.232216 0.2308843 0.2294629
 0.2279577 0.2263797 0.2247481 0.2230905 0.2214129 0.2196584 0.2177064 0.2154132 0.2126516 0.2093299
 0.2054093 0.2009378 0.1960756 0.191067 0.1861529 0.181498 0.1771954 0.1733229 0.1699719 0.1672278
 0.1651455 0.1637502 0.1630522 0.1630566 0.1637591 0.16513 0.1670992 0.1695526 0.1723439 0.1753123
 0.1782939 0.1811346 0.1837296 0.1860735 0.1882508 0.1903426 0.1923458 0.1941946 0.1958378 0.1972672
 0.1984927 0.1995257 0.2003857 0.2011029 0.2017083 0.2022244 0.2026627 0.2030288 0.203332 0.2035857
 0.2038016 0.20399 0.2041649 0.204341 0.2045314 0.2047465 0.2049934 0.2052812 0.2056301 0.2060627
 0.2065746 0.2071285 0.2076888 0.2082551 0.2088537 0.20951 0.2102403 0.211064 0.2120085 0.2130954
 0.2143226 0.2156582 0.2170452 0.2184011 0.2196261 0.2206348 0.2213893 0.221898 0.2221913 0.2223056
 0.2222749 0.2221175 0.2218382 0.221448 0.2209728 0.2204395 0.2198633 0.2192495 0.2185957 0.2178942
 0.2171481 0.2163877 0.2156579 0.2149808 0.2143371 0.2136932 0.2130428 0.2124079 0.2118033 0.211215
 0.2106193 0.2100088 0.2093981 0.2088098 0.2082548 0.2077119 0.2071274 0.2064467 0.2056472 0.2047374
 0.2037272 0.2026135 0.2013925 0.2000748 0.1986799 0.1972205 0.1956971 0.1941074 0.1924554 0.1907446
 0.1889618 0.1870799 0.1850965 0.1830687 0.1810926 0.1792416 0.1775341 0.1759525 0.1744745 0.1730856
 0.1717765 0.1705343 0.1693384 0.168173 0.1670427 0.1659663 0.164957 0.1640147 0.163137 0.1623302
 0.1616086 0.1609796 0.1604308 0.1599418 0.1595071 0.1591406 0.1588645 0.1587012 0.1586565 0.1586935
 0.1587405 0.1587402 0.1586776 0.1585651 0.1584273 0.1582978 0.1582038 0.1581491 0.1581165 0.1580709
 0.157953 0.1576787 0.1571531 0.1562977 0.1550859 0.1535604 0.151809 0.1499362 0.1480675 0.1463389
 0.144853 0.143658 0.1427612 0.1421272 0.1416708 0.1413042 0.1410015 0.1408091 0.1407951 0.1409697
 0.14123 0.1414155 0.1414638 0.141482 0.1416442 0.1420526 0.1426924 0.1434548 0.1441946 0.1448157
 0.145302 0.1456637 0.1459016 0.1460299 0.1460737 0.146037 0.1459163 0.1457309 0.1455076 0.1452595
 0.1449802 0.1446321 0.1441627 0.1435633 0.1428759 0.1421299 0.1413244 0.1404505 0.1394689 0.1383234
 0.137069 0.1359396 0.135217 0.1350619 0.1354578 0.1362411 0.1372055 0.138235 0.1392704 0.1401263
 0.1405426 0.1405682 0.140756 0.1417658 0.1437428 0.1461655 0.1483094 0.1497749 0.150545 0.1507083
 0.1503158 0.1494191 0.1480375 0.1461238 0.143688 0.140871 0.1378352 0.1347253 0.131745 0.129099
 0.1268742 0.1250735 0.1236721 0.1226857 0.1222518 0.122039 0.1201739 0.1142012 0.1048736 0.09786592
 0.09898633 0.1076408 0.1172622 0.1222637 0.1224784 0.1208564 0.1194239 0.1184736 0.1179041 0.1178791
 0.118545 0.1197607 0.1211328 0.1222537 0.1229511 0.1232651 0.123167 0.1223068 0.1199411 0.1151984
 0.1077873 0.09859891 0.0893966 0.0817783 0.07644908 0.07326137 0.07159851 0.07073548 0.07017788 0.06988364
 0.07015043 0.07125152 0.0732014 0.07584442 0.07901751 0.08249393 0.08586507 0.08870539 0.09089093 0.09260549
 0.09401296 0.09505987 0.09561302 0.09565497 0.09529839 0.09469491 0.09397263 0.09319936 0.09234339 0.0913046
 0.09007299 0.08885949 0.08797103 0.08752859 0.08739081 0.08735678 0.08733755 0.08732826 0.08732909 0.08732423
 0.0872923 0.08725479 0.08732216 0.08761205 0.08809395 0.08858357 0.08891104 0.08905503 0.0891097 0.0891202
 0.08894844 0.08839868 0.08754511 0.08676304 0.08625506 0.08571394 0.08472032 0.08337974 0.08229262 0.08190841
 0.08211919 0.08248073 0.0826348 0.08249396 0.08222514 0.08216132 0.08256339 0.08330031 0.08386002 0.0838319
</values></Ydata></ScRf><Data_Parameters_AB><parameter name="DPF">1</parameter><parameter name="NPT">3497</parameter><parameter name="FXV">3996</parameter><parameter name="LXV">500</parameter><parameter name="CSF">1</parameter><parameter name="MXY">0.137869879603386</parameter><parameter name="MNY">-0.0594634152948856</parameter><parameter name="DAT">02/06/2022</parameter><parameter name="TIM">11:23:07.651 (GMT+2)</parameter><parameter name="DXU">WN</parameter></Data_Parameters_AB><AB__Qtest><MainReport name="Quality Test Report"><Header><Line><Legend>Test result ok/not ok [1/0]: </Legend><Value>0</Value></Line><Line><Legend>Method file: </Legend><Value>C:\Users\Public\Documents\Bruker\OPUS_8.2.28\QT\IRBT_v3_default.QT</Value></Line></Header><Matrix><Line><Legend></Legend><Legend>min</Legend><Legend>max</Legend><Legend>measured</Legend></Line><Line><Value>Absorption (X-Range 1):</Value><Value>0.400000</Value><Value>2.000000</Value><Value>0.138632</Value></Line><Line><Value>Noise (X-Range 4):</Value><Value></Value><Value>0.000300</Value><Value>0.000048</Value></Line><Line><Value>Signal/Noise (X-Range 2):</Value><Value>200.000000</Value><Value></Value><Value>38.707479</Value></Line><Line><Value>Signal/Noise (X-Range 3):</Value><Value>40.000000</Value><Value></Value><Value>29.566698</Value></Line><Line><Value>Water vapour (X-Range 5):</Value><Value></Value><Value>0.000300</Value><Value>0.000068</Value></Line><Line><Value>Signal/Water (X-Range 2):</Value><Value>100.000000</Value><Value></Value><Value>27.571908</Value></Line><Line><Value>Signal/Water (X-Range 3):</Value><Value>20.000000</Value><Value></Value><Value>21.060795</Value></Line><Line><Value>Fringes (X-Range 6):</Value><Value></Value><Value>0.000100</Value><Value>0.000042</Value></Line></Matrix></MainReport></AB__Qtest><Data_Parameters_ScSm><parameter name="DPF">1</parameter><parameter name="NPT">1814</parameter><parameter name="FXV">3996.33169228125</parameter><parameter name="LXV">499.541461535156</parameter><parameter name="CSF">1</parameter><parameter name="MXY">0.272000730037689</parameter><parameter name="MNY">0.0345775373280048</parameter><parameter name="DAT">02/06/2022</parameter><parameter name="TIM">11:23:07.651 (GMT+2)</parameter><parameter name="DXU">WN</parameter></Data_Parameters_ScSm><Data_Parameters_ScRf><parameter name="DPF">1</parameter><parameter name="NPT">1820</parameter><parameter name="FXV">4004.04661832813</parameter><parameter name="LXV">495.683998511719</parameter><parameter name="CSF">1</parameter><parameter name="MXY">0.26472932100296</parameter><parameter name="MNY">0.030636528506875</parameter><parameter name="DAT">02/06/2022</parameter><parameter name="TIM">11:22:42.489 (GMT+2)</parameter><parameter name="DXU">WN</parameter></Data_Parameters_ScRf><Optic_Parameters_Rf><parameter name="APR">0</parameter><parameter name="APT">Open</parameter><parameter name="BMS">KBr</parameter><parameter name="DTC">RT-DLaTGS_IR-Biotyper [Microplate reader]</parameter><parameter name="HPF">0</parameter><parameter name="LPF">10.0</parameter><parameter name="LPV">4000</parameter><parameter name="PGR">0</parameter><parameter name="RCH">Module port</parameter><parameter name="RDX">0</parameter><parameter name="SRC">MIR</parameter><parameter name="VEL">10.0</parameter><parameter name="SON">Off</parameter></Optic_Parameters_Rf><Acquisition_Parameters_Rf><parameter name="ADT">1</parameter><parameter name="AQM">DD</parameter><parameter name="CFE">0</parameter><parameter name="COR">0</parameter><parameter name="DEL">0</parameter><parameter name="DLY">0</parameter><parameter name="HFW">8000</parameter><parameter name="LFW">0</parameter><parameter name="NSR">32</parameter><parameter name="PLF">AB</parameter><parameter name="RES">6</parameter><parameter name="RGN">-1</parameter><parameter name="STR">0</parameter><parameter name="TCL">MakeCompatibleScalar (0, {WSV=1.000000, ARV=0});</parameter><parameter name="TDL">37</parameter><parameter name="RPO">0</parameter></Acquisition_Parameters_Rf><FT_-_Parameters_Rf><parameter name="APF">B3</parameter><parameter name="HFQ">500</parameter><parameter name="LFQ">4000</parameter><parameter name="NLI">0</parameter><parameter name="PHR">24</parameter><parameter name="PHZ">ML</parameter><parameter name="SPZ">NO</parameter><parameter name="ZFF">1</parameter></FT_-_Parameters_Rf><Optic_Parameters_><parameter name="APR">0</parameter><parameter name="APT">Open</parameter><parameter name="BMS">KBr</parameter><parameter name="CHN">Module port</parameter><parameter name="DTC">RT-DLaTGS_IR-Biotyper [Microplate reader]</parameter><parameter name="HPF">0</parameter><parameter name="LPF">10.0</parameter><parameter name="LPV">4000</parameter><parameter name="PGN">0</parameter><parameter name="RDX">0</parameter><parameter name="SRC">MIR</parameter><parameter name="VEL">10.0</parameter><parameter name="SON">Off</parameter></Optic_Parameters_><FT_-_Parameters_><parameter name="APF">B3</parameter><parameter name="HFQ">500</parameter><parameter name="LFQ">4000</parameter><parameter name="NLI">0</parameter><parameter name="PHR">24</parameter><parameter name="PHZ">ML</parameter><parameter name="SPZ">NO</parameter><parameter name="ZFF">1</parameter></FT_-_Parameters_><Acquisition_Parameters_><parameter name="ADT">1</parameter><parameter name="AQM">DD</parameter><parameter name="CFE">0</parameter><parameter name="COR">0</parameter><parameter name="DEL">0</parameter><parameter name="DLY">0</parameter><parameter name="HFW">8000</parameter><parameter name="LFW">0</parameter><parameter name="NSS">32</parameter><parameter name="PLF">AB</parameter><parameter name="RES">6</parameter><parameter name="SOT">0</parameter><parameter name="TCL">MakeCompatibleScalar (0, {WSV=1.000000, ARV=0});</parameter><parameter name="TDL">37</parameter><parameter name="SPO">0</parameter><parameter name="SGN">-1</parameter></Acquisition_Parameters_><Instrument_Parameters_Rf><parameter name="HFL">15800.168544</parameter><parameter name="LFL">0</parameter><parameter name="LWN">15800.168544</parameter><parameter name="ABP">32197</parameter><parameter name="SSP">1</parameter><parameter name="ARG">2</parameter><parameter name="ASG">2</parameter><parameter name="ASS">32</parameter><parameter name="GFW">16</parameter><parameter name="GBW">16</parameter><parameter name="BFW">0</parameter><parameter name="BBW">0</parameter><parameter name="PKA">7265</parameter><parameter name="PKL">4996</parameter><parameter name="PRA">7447</parameter><parameter name="PRL">5001</parameter><parameter name="P2A">1</parameter><parameter name="P2L">1</parameter><parameter name="P2R">1</parameter><parameter name="P2K">1</parameter><parameter name="DAQ">0</parameter><parameter name="AG2">1</parameter><parameter name="SSM">1</parameter><parameter name="RSN">26039</parameter><parameter name="CRR">0</parameter><parameter name="SRT">1654168962.489</parameter><parameter name="DUR">19.6379852294922</parameter><parameter name="TSC">28.1</parameter><parameter name="MVD">0.248167306184769</parameter><parameter name="AN1">0.225840112331774</parameter><parameter name="AN2">0</parameter><parameter name="VSN">2.485 Apr  4 2017</parameter><parameter name="SRN">0085</parameter><parameter name="CAM">0</parameter><parameter name="INS">IR-Biotyper</parameter><parameter name="FOC">69</parameter><parameter name="RDY">1</parameter><parameter name="ARS">32</parameter></Instrument_Parameters_Rf><Sample_Parameters_><parameter name="BLD"></parameter><parameter name="CNM">Admin</parameter><parameter name="CPY"></parameter><parameter name="DPM"></parameter><parameter name="EXP">IRBT_v3_32Scans.XPM</parameter><parameter name="LCT"></parameter><parameter name="SFM">Microplate, HTS-XT</parameter><parameter name="SNM">220602-1054_RTF49M (D_20)_E2_dd788582-faca-4157-abc8-d62db2bf952a.0</parameter><parameter name="XPP">C:\Users\Public\Documents\Bruker\OPUS_8.2.28\XPM</parameter><parameter name="IST">OK</parameter><parameter name="CPG">1252</parameter><parameter name="UID">949e3810-5f4a-4b31-ae19-702f2bed944c</parameter></Sample_Parameters_><Instrument_Parameters_><parameter name="HFL">15800.168544</parameter><parameter name="LFL">0</parameter><parameter name="LWN">15800.168544</parameter><parameter name="ABP">32197</parameter><parameter name="SSP">1</parameter><parameter name="ASG">2</parameter><parameter name="ARG">2</parameter><parameter name="ASS">32</parameter><parameter name="GFW">16</parameter><parameter name="GBW">16</parameter><parameter name="BFW">0</parameter><parameter name="BBW">0</parameter><parameter name="PKA">7446</parameter><parameter name="PKL">4988</parameter><parameter name="PRA">7727</parameter><parameter name="PRL">4993</parameter><parameter name="P2A">1</parameter><parameter name="P2L">1</parameter><parameter name="P2R">1</parameter><parameter name="P2K">1</parameter><parameter name="DAQ">0</parameter><parameter name="AG2">1</parameter><parameter name="SSM">1</parameter><parameter name="RSN">13645</parameter><parameter name="CRR">0</parameter><parameter name="SRT">1654168987.651</parameter><parameter name="DUR">19.6379852294922</parameter><parameter name="TSC">28.1</parameter><parameter name="MVD">0.417513221502304</parameter><parameter name="AN1">0.22582887152295</parameter><parameter name="AN2">0</parameter><parameter name="VSN">2.485 Apr  4 2017</parameter><parameter name="SRN">0085</parameter><parameter name="CAM">0</parameter><parameter name="INS">IR-Biotyper</parameter><parameter name="FOC">69</parameter><parameter name="RDY">1</parameter></Instrument_Parameters_><History/></OPUSDataFile>
