<?xml version="1.0" encoding="UTF-8" ?>
<OPUSDataFile><AB><Ydata ylabel="Absorbance Units"><values byteorder="INTEL" format="FLOAT32" numvalues="3497"> -0.02803921 -0.02802766 -0.02801417 -0.02799868 -0.02798185 -0.02796373 -0.02794703 -0.02793202 -0.0279233 -0.02792081
 -0.0279272 -0.02794105 -0.02795876 -0.0279791 -0.02799593 -0.02801256 -0.02803052 -0.02805599 -0.02809844 -0.02815562
 -0.02823295 -0.02831327 -0.02839011 -0.02844669 -0.02847204 -0.02847281 -0.02844541 -0.0284162 -0.02838908 -0.02838092
 -0.02839502 -0.02842074 -0.02845764 -0.02848412 -0.02850045 -0.02850372 -0.02849769 -0.02850375 -0.02852345 -0.02857618
 -0.02865499 -0.0287549 -0.02886492 -0.02896377 -0.02904802 -0.02910317 -0.02913693 -0.02915029 -0.02915148 -0.02914662
 -0.0291351 -0.02911851 -0.02909292 -0.02905641 -0.02901314 -0.02896209 -0.02891796 -0.02888167 -0.02887 -0.02888394
 -0.02893062 -0.02900891 -0.02910644 -0.02921956 -0.02931981 -0.02940553 -0.02945375 -0.02946952 -0.02945157 -0.02940961
 -0.02935855 -0.02930628 -0.02926919 -0.0292459 -0.02924367 -0.02924897 -0.02925756 -0.0292548 -0.02923161 -0.02919162
 -0.02913033 -0.02907397 -0.02902478 -0.02901248 -0.02904069 -0.02912231 -0.02925833 -0.02943919 -0.02966269 -0.02989824
 -0.03014069 -0.03034367 -0.03050311 -0.03057512 -0.03056867 -0.03047786 -0.0303264 -0.03015002 -0.02996833 -0.02981996
 -0.02970782 -0.02965042 -0.02963226 -0.02965339 -0.02968666 -0.02972152 -0.02974204 -0.02973948 -0.02972204 -0.02968851
 -0.0296572 -0.02962991 -0.02961763 -0.02962112 -0.02964202 -0.02968035 -0.02973711 -0.02981248 -0.02990971 -0.03002642
 -0.03015835 -0.0302972 -0.0304213 -0.03052324 -0.03057605 -0.03059023 -0.03056402 -0.03051877 -0.03047553 -0.03043369
 -0.03040143 -0.03036352 -0.03031003 -0.03025655 -0.0301994 -0.03018512 -0.030222 -0.03033595 -0.03053535 -0.03077204
 -0.03104451 -0.03120131 -0.03123901 -0.03106704 -0.03071289 -0.03031296 -0.02988531 -0.02957431 -0.02936734 -0.02930641
 -0.02937045 -0.02955076 -0.02980847 -0.03010258 -0.03038082 -0.03058196 -0.0306932 -0.03067456 -0.03059029 -0.03045155
 -0.03032898 -0.03025099 -0.03021489 -0.03022835 -0.03024962 -0.03027397 -0.03028735 -0.03028839 -0.03029817 -0.03031753
 -0.03036375 -0.03043374 -0.03051675 -0.03060737 -0.030679 -0.03072942 -0.03073876 -0.03070984 -0.03063558 -0.03052765
 -0.03039286 -0.03025348 -0.03012848 -0.03003759 -0.0299992 -0.0300154 -0.03009523 -0.03021834 -0.03038511 -0.03055796
 -0.03073212 -0.03087055 -0.03096843 -0.03100752 -0.03098622 -0.03091135 -0.0307845 -0.03063202 -0.03045612 -0.03028389
 -0.03011626 -0.02997088 -0.02984791 -0.02975735 -0.02969704 -0.02966943 -0.02966764 -0.02968602 -0.02971431 -0.02974278
 -0.02976273 -0.02976587 -0.02975046 -0.02971171 -0.02965983 -0.02959387 -0.02953693 -0.02949247 -0.02947955 -0.02950183
 -0.0295554 -0.02964048 -0.02973557 -0.02983933 -0.02992783 -0.03000049 -0.03004015 -0.03004979 -0.03002942 -0.0299871
 -0.02994295 -0.02990374 -0.02989289 -0.02990655 -0.02995109 -0.03001584 -0.03009117 -0.03017856 -0.03027233 -0.03039005
 -0.03054011 -0.03072367 -0.03094969 -0.03117796 -0.0314057 -0.03158127 -0.03169779 -0.03173494 -0.03169105 -0.03155263
 -0.03132042 -0.03100032 -0.03060374 -0.03021199 -0.02983725 -0.02957613 -0.02942139 -0.02940993 -0.02951336 -0.02970615
 -0.02994367 -0.03015678 -0.03032855 -0.03041041 -0.03043614 -0.0304124 -0.03036761 -0.03031943 -0.03026404 -0.03020535
 -0.0301276 -0.03002697 -0.0299033 -0.02975424 -0.02960415 -0.02945417 -0.02933632 -0.02925194 -0.02922575 -0.02925642
 -0.0293514 -0.0295002 -0.0296705 -0.02984098 -0.02993335 -0.02994902 -0.02984255 -0.02965584 -0.02942536 -0.02917801
 -0.02895587 -0.02875047 -0.028569 -0.02839758 -0.02822882 -0.02806739 -0.02791128 -0.0277759 -0.02766517 -0.02758019
 -0.02752366 -0.02746998 -0.02741818 -0.02732272 -0.02718247 -0.02697357 -0.02670394 -0.0264194 -0.02612868 -0.0258958
 -0.02571423 -0.02559892 -0.02554076 -0.02553045 -0.02556063 -0.02562342 -0.02569885 -0.02577238 -0.02581243 -0.02579393
 -0.02570597 -0.02553504 -0.02529299 -0.02498178 -0.02460437 -0.0241593 -0.02366333 -0.02311533 -0.02256181 -0.02200583
 -0.02147861 -0.0209807 -0.02051691 -0.02008816 -0.01970385 -0.01936587 -0.01909048 -0.01887164 -0.01870427 -0.01857538
 -0.01845893 -0.01834564 -0.01821662 -0.01805706 -0.01785253 -0.01757758 -0.01720417 -0.01674925 -0.01620201 -0.01562888
 -0.01504996 -0.01449266 -0.013969 -0.01346341 -0.01297519 -0.01249303 -0.01201569 -0.01155285 -0.01110572 -0.01070067
 -0.01033801 -0.0100383 -0.009790082 -0.009564659 -0.009333176 -0.008994838 -0.008548771 -0.007922877 -0.007191457 -0.006423114
 -0.00567246 -0.0050291 -0.004464228 -0.003992168 -0.00355589 -0.003132853 -0.002691316 -0.002212641 -0.001709004 -0.001178489
 -0.0006441843 -0.0001105309 0.0004283044 0.0009718226 0.001549208 0.002161191 0.00282037 0.003522436 0.004239905 0.004968057
 0.005670854 0.006349949 0.006991528 0.007599062 0.008171442 0.00871479 0.009233675 0.009741529 0.01025349 0.01077364
 0.01131344 0.01185594 0.01239312 0.01292634 0.0134458 0.01400057 0.01459911 0.01527517 0.01604124 0.01683427
 0.01765203 0.01839776 0.01906958 0.01965121 0.02015 0.02061656 0.02105618 0.0215207 0.02200474 0.02252348
 0.02306116 0.02359417 0.02411276 0.0245865 0.0250352 0.02545698 0.02590045 0.02639787 0.02697384 0.02766125
 0.02840753 0.02921022 0.02999317 0.03073774 0.03141858 0.03202724 0.03258683 0.03309762 0.03360275 0.03410419
 0.03463689 0.0351995 0.03579761 0.03642713 0.03707269 0.03773275 0.03839641 0.03906103 0.03971976 0.04036194
 0.04096988 0.04153816 0.04204937 0.04252244 0.0429607 0.04339293 0.04383554 0.04429378 0.04477692 0.04526136
 0.04574415 0.046205 0.04663845 0.04705959 0.04746827 0.04790393 0.04836784 0.0488793 0.04943386 0.05000409
 0.05058308 0.05112259 0.05162564 0.0520716 0.05247693 0.05286269 0.05324521 0.05365963 0.0541019 0.05458723
 0.05508669 0.05558728 0.05606308 0.05649268 0.05689016 0.05724837 0.05761839 0.05800913 0.0584578 0.05897364
 0.05954273 0.06016593 0.0607966 0.06143261 0.06203685 0.0626099 0.06314059 0.06363054 0.06408034 0.06449212
 0.06486935 0.06522035 0.06556113 0.06590305 0.06627183 0.06666346 0.06708825 0.06752396 0.06795681 0.06837884
 0.06877668 0.06917542 0.06958046 0.0700096 0.07047267 0.07094335 0.07142024 0.07187246 0.07229601 0.07271157
 0.07312101 0.07357571 0.0740741 0.07462835 0.07522612 0.07581728 0.07639041 0.07688113 0.07729732 0.07761752
 0.0778705 0.07808655 0.07828954 0.07851905 0.07876854 0.07904857 0.07933735 0.07962403 0.07990756 0.08018244
 0.08046592 0.08076192 0.08107453 0.08140613 0.08174378 0.08208671 0.08242376 0.08275456 0.08307607 0.08338952
 0.08370268 0.08402011 0.08436763 0.08474796 0.08518732 0.08567438 0.08620322 0.0867513 0.08728351 0.08778757
 0.08823539 0.08863441 0.08898027 0.08928557 0.08955574 0.08979659 0.0900102 0.09020304 0.09037474 0.09054232
 0.090707 0.09088962 0.09109194 0.09132633 0.09159325 0.09189502 0.0922312 0.09260021 0.09299967 0.09342016
 0.09385417 0.09427594 0.09467605 0.09502017 0.09531081 0.09553033 0.09570359 0.09584311 0.09598626 0.09616367
 0.09639252 0.09669719 0.09704688 0.09744353 0.09782782 0.09818565 0.09848963 0.09872997 0.09893661 0.09911076
 0.09928754 0.09946755 0.09963272 0.09977978 0.09986639 0.09989844 0.09987818 0.09982235 0.09978424 0.09977303
 0.09983819 0.09996804 0.1001714 0.1004219 0.1006972 0.1009767 0.1012344 0.1014783 0.1016989 0.1019346
 0.1021957 0.1025101 0.102893 0.103312 0.1037706 0.1041861 0.1045521 0.1048068 0.1049483 0.1049908
 0.104941 0.1048682 0.104776 0.10472 0.1046938 0.1047052 0.1047505 0.1048223 0.1049283 0.10508
 0.1052741 0.1055213 0.1057862 0.1060505 0.1062779 0.1064374 0.1065458 0.1065931 0.1066419 0.1067045
 0.1068209 0.1070034 0.1072269 0.1074924 0.1077358 0.1079542 0.1080965 0.1081643 0.1081527 0.1080717
 0.1079666 0.1078509 0.1077925 0.1077941 0.107901 0.1080914 0.1083606 0.1086666 0.1089662 0.1092254
 0.1093996 0.1094988 0.1095065 0.1094794 0.109429 0.1094125 0.109447 0.10955 0.1097272 0.1099741
 0.1102902 0.1106845 0.1111574 0.1117146 0.1123502 0.1130122 0.1136838 0.1142521 0.1147083 0.1149547
 0.1150185 0.1148961 0.1146515 0.1143738 0.1141208 0.1139966 0.1139939 0.1141584 0.1144032 0.1147082
 0.114966 0.1151326 0.1151614 0.1150244 0.1147648 0.1143794 0.1139599 0.1135137 0.113108 0.1127457
 0.1124339 0.1121699 0.1119289 0.1117123 0.1115132 0.1113392 0.111213 0.1111368 0.1111336 0.1111823
 0.111272 0.1113539 0.1113782 0.1112959 0.1110482 0.1106392 0.1100399 0.1093279 0.1085145 0.1076979
 0.1069039 0.1061812 0.1055436 0.1049852 0.1045075 0.1040867 0.1037213 0.1033773 0.1030519 0.1027014
 0.1023282 0.101918 0.1014846 0.1010669 0.1006718 0.1003423 0.1000562 0.09980341 0.09955001 0.09925077
 0.09890134 0.09847384 0.09800936 0.09751403 0.09704864 0.09663635 0.09631068 0.09609179 0.09594492 0.09587505
 0.09578716 0.09567383 0.09545685 0.0951327 0.09471308 0.09420471 0.09368759 0.09316549 0.09270232 0.09229074
 0.09194054 0.09164222 0.09137975 0.09114702 0.09092934 0.09071942 0.0905045 0.09027937 0.09003345 0.08977475
 0.08950192 0.08923282 0.08897398 0.0887343 0.08851981 0.0883177 0.08812879 0.08792596 0.08770689 0.08745195
 0.08716022 0.08683696 0.08648426 0.0861277 0.08576901 0.08543148 0.08511344 0.0848223 0.08455402 0.08430372
 0.08406709 0.08383606 0.08360593 0.08336882 0.08312158 0.08285849 0.08258149 0.08228915 0.08198743 0.08167847
 0.08136479 0.08104808 0.08072488 0.08039476 0.08005582 0.0797074 0.079356 0.07900197 0.07865383 0.07831148
 0.07797614 0.07764709 0.07732034 0.07699621 0.07667373 0.07635338 0.07603632 0.07572142 0.07540702 0.07509329
 0.07477798 0.07446722 0.07416239 0.07387679 0.07361536 0.07339588 0.07322647 0.07311469 0.07306984 0.07306001
 0.07308815 0.07307479 0.07301397 0.07282991 0.07251857 0.07208 0.07152163 0.07093218 0.07032317 0.06980879
 0.06938662 0.06911745 0.06897283 0.06892589 0.06893113 0.06890303 0.06881681 0.06859905 0.06828481 0.06786489
 0.06741633 0.06697965 0.06659612 0.06630032 0.06605835 0.06587026 0.06569183 0.06551012 0.06534703 0.06520077
 0.06513532 0.06515399 0.06527156 0.06548188 0.06571241 0.06595191 0.06609502 0.06614339 0.06604003 0.06580872
 0.06547177 0.06506132 0.06464171 0.06422458 0.06385361 0.06351051 0.06319451 0.06288984 0.0625807 0.06228583
 0.06200648 0.06176859 0.06158472 0.06143616 0.06132529 0.0612046 0.06106777 0.06091116 0.06073428 0.06059362
 0.0604912 0.0604714 0.06052599 0.06063041 0.06077224 0.06089127 0.06098884 0.06103445 0.06104426 0.06103188
 0.06100846 0.06099808 0.06098687 0.06097907 0.06093682 0.06084179 0.06066504 0.06038352 0.06002034 0.05956684
 0.05910294 0.05863741 0.05824958 0.05795103 0.05774954 0.05764625 0.05756872 0.05751199 0.0573897 0.0572052
 0.05693063 0.05658168 0.05619842 0.05579587 0.0554323 0.05510749 0.05485072 0.05464612 0.05448907 0.05435874
 0.05423766 0.05411088 0.05396331 0.05379691 0.05360466 0.05341103 0.05321931 0.05305703 0.05293274 0.05283586
 0.05276928 0.05267724 0.05255669 0.05236471 0.05210391 0.0518016 0.05146621 0.05116734 0.0509016 0.05069855
 0.05053864 0.05038692 0.05023449 0.0500422 0.04983285 0.04961331 0.0494174 0.04927775 0.04920439 0.04921511
 0.04929713 0.04944813 0.04966305 0.04993799 0.05028349 0.05070197 0.05119306 0.0517597 0.05236396 0.05300409
 0.05360781 0.05417102 0.0546203 0.05495651 0.05514453 0.0551948 0.05512393 0.05494729 0.05470973 0.0544224
 0.05412403 0.05381929 0.05352795 0.05325226 0.05299911 0.05277259 0.05257543 0.05241462 0.05229323 0.0522163
 0.05218676 0.05220097 0.05225863 0.052356 0.05249058 0.05268651 0.05294472 0.05332584 0.05383253 0.05451807
 0.05537595 0.05639601 0.05756088 0.05880043 0.06010224 0.06139658 0.06269003 0.06395868 0.06522321 0.06649753
 0.06780186 0.06915706 0.07057571 0.07207066 0.07364659 0.07531047 0.07705317 0.07887881 0.08075169 0.08267166
 0.08457439 0.08645552 0.08824123 0.08992691 0.09145445 0.09282205 0.09399573 0.09497555 0.09574235 0.09630048
 0.09664765 0.09680603 0.09681658 0.09672961 0.09664173 0.09660991 0.09674511 0.0970634 0.09762667 0.0983917
 0.09935584 0.1004616 0.1016815 0.1029997 0.1044024 0.1059109 0.1075273 0.1092642 0.1111253 0.1130901
 0.1151581 0.117281 0.1194554 0.1216186 0.1237681 0.1258522 0.1278763 0.1298307 0.1317271 0.1335953
 0.1354306 0.1372568 0.1390147 0.1406748 0.1420912 0.1431672 0.1436892 0.143516 0.1424908 0.1404848
 0.1375766 0.1337102 0.1292545 0.1242332 0.1191438 0.1140383 0.1092936 0.1049381 0.1010941 0.0977568
 0.09484425 0.09234077 0.09010342 0.08812464 0.08630148 0.08463171 0.08306152 0.08158334 0.08016123 0.07878644
 0.07743137 0.07610077 0.07478563 0.07350525 0.07226717 0.07109006 0.06998304 0.06895681 0.0680147 0.06716829
 0.06641829 0.06578436 0.06526738 0.06489679 0.06467433 0.06463331 0.06477366 0.06510071 0.06560356 0.06621607
 0.06691571 0.06757606 0.06818718 0.06864748 0.06898812 0.0692045 0.06936459 0.06954432 0.06981154 0.07025123
 0.07089577 0.07179414 0.07293054 0.07431696 0.07590266 0.07767937 0.07959387 0.08163689 0.08376918 0.08599197
 0.08821463 0.09043588 0.09237877 0.09401716 0.09486766 0.09490772 0.09371028 0.0913405 0.08778393 0.0832191
 0.07808121 0.07255891 0.06720048 0.06207667 0.05751731 0.0534544 0.04995156 0.04688865 0.04421129 0.04183436
 0.03970963 0.03779694 0.03607855 0.03452564 0.03313229 0.03186984 0.0307349 0.02970492 0.02877839 0.02793239
 0.02716515 0.02644461 0.02576887 0.02510753 0.02446239 0.02382278 0.02319545 0.02259279 0.02202024 0.02149623
 0.02101532 0.02058209 0.02017823 0.01979075 0.01940158 0.01899282 0.0185672 0.01811615 0.01766904 0.01722983
 0.0168341 0.01649101 0.01620949 0.01599469 0.01581366 0.01566508 0.0154995 0.01531576 0.01509486 0.01484139
 0.01458094 0.01431699 0.01408132 0.01386551 0.01366512 0.01346625 0.01323775 0.01298031 0.01267639 0.01234777
 0.01200547 0.01167397 0.01137274 0.01111088 0.01089911 0.01072966 0.01060498 0.01050437 0.01042668 0.0103412
 0.01024458 0.01011182 0.009940546 0.009732081 0.00948752 0.009231621 0.008966058 0.00871505 0.008478064 0.008265551
 0.008076403 0.007913371 0.007774697 0.007659898 0.007563589 0.007479374 0.007401043 0.007318946 0.007235846 0.007148427
 0.007068527 0.007001429 0.006951164 0.006923947 0.006900044 0.006879129 0.006828835 0.006744439 0.006612993 0.006432394
 0.006226862 0.005998432 0.005789937 0.005602077 0.005461684 0.005363818 0.005303195 0.005271729 0.005243931 0.005216248
 0.005167622 0.005104709 0.005025889 0.00494317 0.004869053 0.00480467 0.004758993 0.004713471 0.004664288 0.004588913
 0.004477794 0.004328695 0.004136765 0.003923313 0.003689283 0.003461958 0.003243383 0.003050179 0.002882619 0.002741568
 0.002625396 0.002522149 0.002429853 0.002333098 0.00223227 0.002119539 0.001998591 0.00187266 0.001745192 0.001622931
 0.001505303 0.001395 0.001287944 0.001182009 0.001075286 0.0009652069 0.0008562073 0.0007483423 0.0006490073 0.000559833
 0.000484531 0.0004242868 0.0003754183 0.0003379607 0.0003023677 0.0002681048 0.0002244453 0.0001718608 0.0001081933 3.646483E-05
 -3.107365E-05 -9.205354E-05 -0.0001309473 -0.0001531987 -0.0001592268 -0.0001619821 -0.0001794697 -0.0002193837 -0.0002986337 -0.0004089304
 -0.0005526848 -0.0007116089 -0.0008783652 -0.001040179 -0.001190445 -0.001329435 -0.001455294 -0.001575792 -0.001691651 -0.001808931
 -0.001928283 -0.002048919 -0.00217068 -0.002288933 -0.002403681 -0.002512658 -0.002616727 -0.002718323 -0.002818739 -0.002923144
 -0.003031759 -0.003148044 -0.003270107 -0.003397506 -0.003526501 -0.003653748 -0.003775656 -0.003888881 -0.003991723 -0.004082722
 -0.004160923 -0.004225528 -0.004277163 -0.004314844 -0.004345492 -0.004368909 -0.004399921 -0.004439487 -0.004501981 -0.004587709
 -0.00469757 -0.004829549 -0.004967314 -0.005108348 -0.005231278 -0.005337846 -0.005420062 -0.005485442 -0.005544712 -0.005604577
 -0.005680571 -0.005770611 -0.005879839 -0.005999696 -0.006125519 -0.006253028 -0.006378113 -0.006503408 -0.006629357 -0.006756315
 -0.006885386 -0.00701016 -0.007130084 -0.007238975 -0.007336114 -0.007423106 -0.007500137 -0.007573052 -0.007641742 -0.007707827
 -0.007770519 -0.007826511 -0.007876242 -0.007918444 -0.007955912 -0.007993431 -0.008033688 -0.008082811 -0.008141014 -0.008211037
 -0.008291183 -0.008381402 -0.008479268 -0.00858447 -0.008692129 -0.008801488 -0.008905239 -0.009001581 -0.009086926 -0.009159964
 -0.009225152 -0.009282596 -0.009339387 -0.009395759 -0.009453756 -0.009513177 -0.009572648 -0.009632748 -0.009695393 -0.009761591
 -0.009836132 -0.009917731 -0.01000689 -0.01010001 -0.01019212 -0.01028109 -0.01036246 -0.01043742 -0.01050523 -0.01056807
 -0.0106267 -0.01068295 -0.01073725 -0.01079209 -0.01084794 -0.01090734 -0.01097088 -0.01103803 -0.01110884 -0.01118094
 -0.01125426 -0.01132884 -0.01140478 -0.01148343 -0.01156409 -0.01164456 -0.01172315 -0.01179341 -0.01185481 -0.01190238
 -0.0119385 -0.01196381 -0.01198243 -0.01199842 -0.01201533 -0.01203672 -0.01206453 -0.01210056 -0.01214548 -0.01220043
 -0.01226279 -0.01233314 -0.01240355 -0.01247348 -0.01253309 -0.01258141 -0.01261511 -0.01263423 -0.01264476 -0.01264752
 -0.01265242 -0.01265983 -0.01267668 -0.01270275 -0.01274112 -0.01279124 -0.01285376 -0.01292736 -0.01301106 -0.01310203
 -0.01319744 -0.01329433 -0.01338941 -0.01348247 -0.01357186 -0.01366116 -0.0137512 -0.01384471 -0.01394313 -0.01404332
 -0.01414544 -0.01424285 -0.01433497 -0.01441841 -0.01449306 -0.01456013 -0.01461973 -0.01467331 -0.01472101 -0.01476379
 -0.0148026 -0.0148407 -0.01487915 -0.01492215 -0.01496897 -0.01502065 -0.0150754 -0.01513158 -0.01518852 -0.01524505
 -0.01530171 -0.01535871 -0.01541559 -0.01547236 -0.01552799 -0.015582 -0.01563543 -0.01568809 -0.01574361 -0.01580232
 -0.01586565 -0.01593358 -0.01600246 -0.01607206 -0.01613817 -0.01620156 -0.01626376 -0.0163257 -0.01639191 -0.01646098
 -0.01653285 -0.01660435 -0.01667058 -0.01673012 -0.01677934 -0.01681908 -0.01684876 -0.01686969 -0.01688176 -0.01688829
 -0.01688928 -0.01689215 -0.01689827 -0.01691425 -0.01694181 -0.01697941 -0.01702739 -0.01707716 -0.01712829 -0.01717364
 -0.01721352 -0.01724832 -0.01727918 -0.01731228 -0.01734788 -0.01739093 -0.01743904 -0.01749011 -0.01754031 -0.01758236
 -0.01761569 -0.01763535 -0.01764711 -0.01765246 -0.01765983 -0.01767409 -0.01769895 -0.01773807 -0.01778596 -0.01784295
 -0.01789858 -0.01795131 -0.01799485 -0.0180282 -0.01805402 -0.01807251 -0.01809132 -0.01811078 -0.01813685 -0.01816944
 -0.01821147 -0.01826222 -0.01832173 -0.01838768 -0.01845565 -0.01852235 -0.01858062 -0.01862944 -0.01866418 -0.01868782
 -0.01870067 -0.0187068 -0.01870842 -0.01870761 -0.01870537 -0.0187032 -0.01870107 -0.01870306 -0.01870951 -0.0187257
 -0.01875234 -0.01878943 -0.01883691 -0.01888772 -0.01894172 -0.01899399 -0.01904633 -0.01910502 -0.0191731 -0.01926394
 -0.01937894 -0.01952798 -0.01971028 -0.01992891 -0.02018246 -0.02047076 -0.02079198 -0.02114459 -0.02152781 -0.02193883
 -0.02238541 -0.02286679 -0.02340219 -0.02399573 -0.02466206 -0.02540686 -0.02621347 -0.02708304 -0.02796562 -0.0288584
 -0.02970048 -0.0304888 -0.03117228 -0.03174628 -0.03216406 -0.03241278 -0.03242594 -0.03219271 -0.03163382 -0.03080501
 -0.02972849 -0.02853712 -0.0273832 -0.02635098 -0.02556227 -0.02500967 -0.02472505 -0.02466634 -0.024832 -0.02516085
 -0.02565141 -0.02618724 -0.02675888 -0.02721587 -0.02754064 -0.02768787 -0.02765546 -0.02752572 -0.02730396 -0.02707678
 -0.02684282 -0.02664045 -0.02646256 -0.02630687 -0.0261653 -0.02601732 -0.02586189 -0.02568772 -0.02549837 -0.0252956
 -0.02507616 -0.02483847 -0.02457893 -0.02429113 -0.02398948 -0.02367452 -0.02337196 -0.02308861 -0.02283719 -0.02262207
 -0.02243651 -0.02228084 -0.02214022 -0.02201384 -0.02188826 -0.02176343 -0.02163415 -0.021502 -0.0213728 -0.02124838
 -0.02113896 -0.02104318 -0.02096418 -0.02089701 -0.02083529 -0.02077527 -0.02070916 -0.02063911 -0.02056306 -0.02048773
 -0.02041614 -0.02035264 -0.02030049 -0.02025687 -0.02022236 -0.02019037 -0.02015976 -0.02012762 -0.02009318 -0.02006107
 -0.02003153 -0.02001301 -0.02000559 -0.02001343 -0.02003519 -0.02006593 -0.0201033 -0.02013631 -0.02016427 -0.02017915
 -0.02018384 -0.02017887 -0.02016846 -0.02015775 -0.02014867 -0.020145 -0.02014509 -0.0201495 -0.02015485 -0.02016027
 -0.02016252 -0.02016065 -0.02015297 -0.02013881 -0.02011981 -0.02009586 -0.02007158 -0.0200472 -0.02002833 -0.02001512
 -0.02001122 -0.02001609 -0.0200289 -0.02004837 -0.02006963 -0.02009176 -0.02010989 -0.02012457 -0.02013448 -0.02014052
 -0.02014357 -0.02014311 -0.02013934 -0.02013073 -0.02011641 -0.02009576 -0.02006791 -0.02003471 -0.01999575 -0.01995654
 -0.01991747 -0.01988593 -0.01986279 -0.01985149 -0.01985226 -0.01986091 -0.01987697 -0.01989305 -0.01990923 -0.01992218
 -0.01993268 -0.01994192 -0.01995008 -0.01995843 -0.01996622 -0.01997263 -0.01997768 -0.01998084 -0.01998299 -0.01998483
 -0.01998639 -0.0199879 -0.01998909 -0.01998941 -0.01999104 -0.01999426 -0.02000173 -0.02001467 -0.02002874 -0.02004404
 -0.02005043 -0.02004734 -0.02003295 -0.02000826 -0.01998699 -0.01997026 -0.01997315 -0.01999292 -0.02002866 -0.02007489
 -0.02011754 -0.02015438 -0.02017415 -0.02018043 -0.02017195 -0.02015571 -0.02013668 -0.02012019 -0.02011129 -0.02010935
 -0.02011613 -0.02012628 -0.02013866 -0.02015011 -0.0201594 -0.02016951 -0.02018062 -0.02019544 -0.02021417 -0.02023282
 -0.02025105 -0.02026282 -0.02026885 -0.02027015 -0.02026863 -0.02027207 -0.02028109 -0.02030193 -0.02033214 -0.02037111
 -0.02041471 -0.02045796 -0.02049791 -0.02053006 -0.02055481 -0.02057066 -0.02058046 -0.02058496 -0.02058635 -0.02058549
 -0.02058259 -0.02057777 -0.02057113 -0.02056259 -0.02055372 -0.02054461 -0.02053633 -0.02052882 -0.02052115 -0.02051344
 -0.02050549 -0.02049836 -0.02049588 -0.02049869 -0.02051096 -0.0205308 -0.02055735 -0.0205875 -0.02061661 -0.02064467
 -0.02066959 -0.02069394 -0.02071904 -0.02074526 -0.02077362 -0.02080144 -0.02082819 -0.02085199 -0.02087229 -0.02088936
 -0.02090318 -0.02091374 -0.02092104 -0.02092526 -0.02092648 -0.02092632 -0.02092483 -0.0209233 -0.0209215 -0.02091915
 -0.02091639 -0.02091307 -0.02091035 -0.02091005 -0.02091344 -0.02092296 -0.02093866 -0.02096184 -0.02099065 -0.02102478
 -0.02106135 -0.02109916 -0.0211365 -0.02117258 -0.02120726 -0.02124046 -0.02127188 -0.02130151 -0.02132874 -0.02135353
 -0.02137529 -0.02139396 -0.0214083 -0.02141823 -0.02142204 -0.02142044 -0.02141474 -0.02140662 -0.02140108 -0.021399
 -0.02140453 -0.02141667 -0.02143597 -0.02146094 -0.02149056 -0.02152358 -0.02155935 -0.02159582 -0.02163205 -0.0216667
 -0.0216989 -0.02172998 -0.02176 -0.02179051 -0.02182192 -0.0218524 -0.0218819 -0.02190606 -0.02192473 -0.02193501
 -0.02193741 -0.02193351 -0.02192469 -0.02191693 -0.02191159 -0.0219157 -0.0219284 -0.02195241 -0.02198376 -0.02201925
 -0.02205415 -0.02208301 -0.02210442 -0.02211488 -0.02211877 -0.022116 -0.02211468 -0.02211714 -0.02212789 -0.02214897
 -0.02217596 -0.02220898 -0.0222392 -0.02226602 -0.02228583 -0.02229887 -0.02230894 -0.0223165 -0.02232626 -0.02233838
 -0.02235576 -0.02237877 -0.02241006 -0.02244939 -0.0224985 -0.02255423 -0.02261433 -0.02267339 -0.02272567 -0.02276911
 -0.02279907 -0.02282204 -0.02283813 -0.02285871 -0.02288763 -0.0229283 -0.02298379 -0.02304131 -0.02310048 -0.02314261
 -0.02316633 -0.02316769 -0.02314756 -0.02312216 -0.02309306 -0.02307991 -0.02308112 -0.02310194 -0.02313738 -0.02317718
 -0.02321755 -0.02324566 -0.02326375 -0.023268 -0.02326592 -0.02326228 -0.02326381 -0.02327684 -0.02330117 -0.02333974
 -0.02338431 -0.0234342 -0.0234778 -0.02351275 -0.02353264 -0.02353583 -0.02352659 -0.02350497 -0.02348138 -0.02345624
 -0.02343678 -0.0234228 -0.02341629 -0.02341683 -0.02342413 -0.02343735 -0.02345468 -0.02347429 -0.02349186 -0.0235068
 -0.02351557 -0.02352145 -0.02352553 -0.02353237 -0.02354591 -0.0235655 -0.02359298 -0.02362178 -0.02365065 -0.02367352
 -0.02368862 -0.02369578 -0.0236945 -0.02368866 -0.02367844 -0.02366787 -0.0236571 -0.0236492 -0.02364406 -0.02364249
 -0.02364372 -0.02364495 -0.02364564 -0.02364221 -0.02363639 -0.02362927 -0.02362361 -0.02362432 -0.02363025 -0.02364357
 -0.02365782 -0.02366984 -0.02367457 -0.02366783 -0.02365272 -0.02362836 -0.02360296 -0.02357798 -0.02355862 -0.02354592
 -0.02353983 -0.02354047 -0.02354504 -0.02355343 -0.02356408 -0.02357705 -0.02359249 -0.02361011 -0.02362899 -0.0236484
 -0.02366573 -0.02368115 -0.0236935 -0.0237039 -0.02371363 -0.02372254 -0.02373133 -0.02373843 -0.02374294 -0.0237444
 -0.02374257 -0.02373662 -0.0237267 -0.02370997 -0.02368575 -0.02365314 -0.02361147 -0.02356569 -0.02351598 -0.02346961
 -0.02342679 -0.02339108 -0.02336212 -0.02333904 -0.02332118 -0.02330505 -0.02329092 -0.02327672 -0.02326528 -0.02326088
 -0.02326585 -0.02328727 -0.02331927 -0.02336159 -0.02340066 -0.02342741 -0.02343517 -0.02341618 -0.0233799 -0.02332633
 -0.0232699 -0.02321389 -0.02316384 -0.0231212 -0.02308395 -0.02305203 -0.02302345 -0.0229983 -0.02297902 -0.02296603
 -0.02296413 -0.02297284 -0.02299378 -0.02302403 -0.02305746 -0.02308902 -0.02310592 -0.02310613 -0.02307953 -0.02303272
 -0.02296666 -0.0228922 -0.02281659 -0.02274603 -0.02268581 -0.02263476 -0.02259413 -0.02255897 -0.02252845 -0.02249947
 -0.02247132 -0.02244449 -0.02241884 -0.02239841 -0.02238347 -0.02238028 -0.0223883 -0.0224076 -0.02243443 -0.02245268
 -0.02245869 -0.02243079 -0.02237496 -0.02229032 -0.02218894 -0.02208786 -0.02199138 -0.02191032 -0.02184246 -0.02178922
 -0.02174871 -0.02172119 -0.02170222 -0.02169201 -0.02167993 -0.02166434 -0.02163517 -0.02159048 -0.02152955 -0.02145196
 -0.02136467 -0.02126813 -0.02117155 -0.02107525 -0.02098636 -0.02090424 -0.02082994 -0.02076263 -0.02070026 -0.02064295
 -0.02059108 -0.02054208 -0.02049446 -0.02044087 -0.02037269 -0.02028911 -0.02018346 -0.02006988 -0.01995257 -0.01984383
 -0.01975084 -0.01966665 -0.01959232 -0.0195121 -0.01942339 -0.01932363 -0.01921207 -0.01909977 -0.01898694 -0.01887635
 -0.01876572 -0.01863685 -0.0184878 -0.01829686 -0.01807083 -0.01781632 -0.01754452 -0.01728343 -0.01703193 -0.01680321
 -0.01658412 -0.01636657 -0.01614127 -0.01589698 -0.01563935 -0.01536676 -0.01509095 -0.01481668 -0.01454452 -0.01427893
 -0.01399579 -0.01369581 -0.01332764 -0.0128875 -0.01233786 -0.01167852 -0.01093135 -0.0100977 -0.009203652 -0.008238725
 -0.007170388 -0.005983653 -0.004614051 -0.003063267 -0.001294355 0.0006593494 0.00277684 0.005002564 0.007278999 0.009560871
 0.0117976 0.01398232 0.01609868 0.01815667 0.02016859 0.02208193 0.02390027 0.02550209 0.02687 0.02794353
 0.02871402 0.02921938 0.02946202 0.02949873 0.0293323 0.02900889 0.02853166 0.02794029 0.0272358 0.02643633
 0.02555411 0.02460873 0.02364554 0.02273578 0.02191114 0.02124014 0.02069523 0.02028157 0.01995954 0.01971055
 0.0195159 0.01936575 0.01925319 0.01917311 0.01913547 0.01913636 0.01923031 0.01942069 0.01976633 0.02026724
 0.02086768 0.02155968 0.02224051 0.02291982 0.02358959 0.02426499 0.02498981 0.02576603 0.02661739 0.02754346
 0.02854337 0.02964571 0.03086133 0.03226555 0.03390938 0.03585256 0.03816879 0.04074882 0.0436058 0.04648727
 0.0493384 0.05201887 0.05449358 0.05678215 0.05888048 0.06087511 0.06277226 0.06471673 0.06672222 0.06899316
 0.07150814 0.07430714 0.07728925 0.08014279 0.0828531 0.08520459 0.08731792 0.08928055 0.0911774 0.09313866
 0.09516256 0.09728929 0.09949062 0.1017597 0.1040875 0.1064805 0.1088809 0.1112839 0.1136068 0.1158308
 0.1179758 0.1200411 0.1220727 0.1240701 0.125943 0.1276821 0.1291516 0.1303663 0.1313221 0.1320505
 0.1326505 0.1331304 0.1335626 0.1339235 0.1341998 0.1343991 0.1345133 0.1345854 0.1346498 0.1347106
 0.134789 0.1348366 0.1348439 0.1347661 0.1345906 0.1342994 0.1338876 0.1333511 0.1326874 0.1319275
 0.1310735 0.1301916 0.1292812 0.1283643 0.1274325 0.1264544 0.1254272 0.124322 0.1231514 0.1219213
 0.1206602 0.1194121 0.1181973 0.1170572 0.1159848 0.1149879 0.1140558 0.1131803 0.1123732 0.1116348
 0.1109836 0.110426 0.1099582 0.1095811 0.1092833 0.1090631 0.108926 0.1088725 0.1089203 0.1090698
 0.1093322 0.1097054 0.1101851 0.1107675 0.1114386 0.1121956 0.1130247 0.1139281 0.1149004 0.1159519
 0.1170877 0.1183264 0.1196798 0.1211699 0.1228083 0.1246159 0.1266003 0.1287804 0.1311647 0.1337467
 0.1365343 0.1394518 0.1424973 0.1455447 0.1485874 0.1515221 0.1543424 0.1569553 0.1593388 0.1613259
 0.1629054 0.1639287 0.164454 0.1645193 0.1642156 0.1636902 0.1630142 0.1623154 0.1616261 0.1610144
 0.1604648 0.1599897 0.1595556 0.1591514 0.1587652 0.1583876 0.1580456 0.1577433 0.1574878 0.1572828
 0.1570715 0.1568514 0.1565913 0.1562941 0.1559801 0.1556547 0.1553567 0.1550878 0.1548819 0.1547219
 0.1546168 0.1544749 0.1542066 0.1536121 0.1524186 0.1505925 0.1479536 0.1447717 0.1411467 0.1372321
 0.1330979 0.1288318 0.1244362 0.1201349 0.1159563 0.1120924 0.1085707 0.1053579 0.1024518 0.0997069
 0.09712134 0.0946259 0.09223196 0.08996853 0.08783743 0.08586651 0.08403508 0.08231379 0.08067777 0.07907593
 0.07749509 0.07590529 0.07429307 0.07264926 0.07093349 0.06912235 0.06719161 0.06509069 0.06298769 0.06089371
 0.05905485 0.05753458 0.05626043 0.05523899 0.05426379 0.05332517 0.05233967 0.0513144 0.05030391 0.04931714
 0.04843529 0.04764824 0.04696028 0.04636802 0.04585471 0.04545012 0.04519118 0.04510671 0.04525204 0.04560918
 0.04618642 0.04694924 0.04788047 0.04896369 0.05018911 0.05155076 0.05303943 0.05468769 0.0564887 0.05856163
 0.06091828 0.06363234 0.06670553 0.06987157 0.07310251 0.07597379 0.07849704 0.08051836 0.08207286 0.08319734
 0.0839147 0.08428104 0.08433821 0.08416173 0.08381869 0.08340127 0.08297792 0.0826323 0.08238615 0.08229147
 0.08227124 0.08231141 0.08234207 0.08233396 0.08230804 0.08225974 0.08224414 0.08226662 0.08235393 0.08250746
 0.08270378 0.0829406 0.08318159 0.08342941 0.08367903 0.08393785 0.08423106 0.08455802 0.08493632 0.08534555
 0.08576038 0.08616683 0.08652903 0.08687504 0.08720692 0.08757541 0.08800834 0.08853441 0.08917435 0.08991954
 0.09077257 0.09171718 0.0927512 0.09386657 0.09506546 0.09629767 0.09756026 0.09872194 0.09977648 0.1006055
 0.1012175 0.1015994 0.1017644 0.1017525 0.1015665 0.101232 0.1007455 0.1001107 0.09932934 0.09840224
 0.09733956 0.0961491 0.09483851 0.09341583 0.09187669 0.09021937 0.08844699 0.0865503 0.08458731 0.0825573
 0.08057331 0.0786463 0.07684947 0.0751872 0.07364562 0.07222255 0.0708838 0.06963307 0.06847539 0.06741623
 0.06648318 0.06566623 0.06496335 0.06434438 0.06376491 0.06318874 0.06255791 0.06185264 0.06103118 0.06011475
 0.0590929 0.0580284 0.05693834 0.05588202 0.05488132 0.05394571 0.05308369 0.05226217 0.05147904 0.05070404
 0.04993534 0.04918187 0.0484465 0.04777081 0.04715592 0.04663146 0.04619169 0.04583234 0.04554672 0.04531745
 0.04513969 0.044999 0.04489019 0.04480206 0.04473155 0.04467283 0.04462458 0.04458678 0.04455085 0.04451575
 0.04446601 0.04439732 0.04430144 0.04417526 0.04402424 0.04384843 0.04365518 0.04344492 0.04321734 0.04297274
 0.04271288 0.04244115 0.04217725 0.04192779 0.0417275 0.0415795 0.04151151 0.04151575 0.04159469 0.04173218
 0.04191189 0.04211835 0.04233557 0.04254987 0.04275186 0.0429261 0.04306524 0.04315873 0.04320083 0.04319638
 0.04314388 0.04305981 0.04294555 0.0428139 0.04266569 0.04250352 0.04232747 0.04213821 0.04193732 0.04173442
 0.04153224 0.04134726 0.041178 0.04103154 0.04089931 0.04077069 0.04063757 0.0404842 0.04031313 0.04011877
 0.03991346 0.03970134 0.03949578 0.0393021 0.0391311 0.03898614 0.03887511 0.03880008 0.03876341 0.03876593
 0.03880352 0.03887602 0.03897395 0.03909624 0.0392263 0.03936235 0.03948403 0.03959185 0.03967494 0.03973895
 0.03979086 0.03983884 0.03989975 0.03997871 0.04008879 0.04023026 0.04040808 0.04061925 0.04086391 0.04113754
 0.04143902 0.04176288 0.04210817 0.04246811 0.04284211 0.043221 0.04360419 0.04398018 0.04434828 0.0446979
 0.04502907 0.04534014 0.04563313 0.04592008 0.04620311 0.04649863 0.04680295 0.04711798 0.04743256 0.04772926
 0.04799782 0.04821776 0.04838827 0.04850093 0.0485612 0.04857071 0.04853124 0.04844488 0.04830768 0.0481188
 0.04787609 0.04757798 0.04723126 0.04683574 0.04640606 0.04594304 0.0454622 0.04496419 0.04446055 0.04395147
 0.04344396 0.04293809 0.0424376 0.04194325 0.04145781 0.04098435 0.04052873 0.04009505 0.03969161 0.03931762
 0.0389773 0.03866187 0.03836807 0.03808727 0.03781391 0.03754933 0.03729127 0.03705065 0.03682835 0.03663735
 0.03647904 0.0363631 0.03629025 0.03626385 0.03628361 0.03634551 0.03644865 0.0365851 0.0367544 0.03695009
 0.03717303 0.03742191 0.03769841 0.03800515 0.03834249 0.03871272 0.03911332 0.03954279 0.03999966 0.04048107
 0.04099231 0.04153345 0.04211471 0.04273911 0.04341202 0.04413605 0.04490514 0.04571994 0.04656314 0.04743388
 0.04830838 0.04918548 0.05004452 0.0508858 0.05170114 0.05249194 0.05325988 0.05400474 0.05472809 0.05542587
 0.056093 0.05672254 0.05730451 0.05783268 0.05829738 0.05869902 0.05903348 0.05930877 0.05952631 0.05969559
 0.05981844 0.05990571 0.0599577 0.05999483 0.06001833 0.06005517 0.06010722 0.06018932 0.06030124 0.06043853
 0.0605997 0.06077264 0.0609562 0.06113988 0.06132248 0.06149477 0.06165824 0.06180854 0.06195516 0.0621049
 0.06227497 0.06248015 0.06273902 0.06306633 0.06347325 0.06396932 0.06455206 0.0652251 0.06597136 0.06679045
 0.06765509 0.06856341 0.0694831 0.07041217 0.07131971 0.07220442 0.07304364 0.07383653 0.07456645 0.07523229
 0.07581883 0.07632927 0.07675977 0.07712488 0.07744574 0.07774272 0.07804988 0.07837979 0.07875659 0.07917942
 0.07965764 0.0801754 0.08073312 0.08129813 0.08186386 0.08239545 0.08288418 0.08331847 0.08369447 0.08402588
 0.08431318 0.0845753 0.08481306 0.08504086 0.08525869 0.08547439 0.08568568 0.08588825 0.0860779 0.08624179
 0.08637589 0.0864685 0.08651347 0.0864995 0.08641937 0.08625944 0.08602734 0.08571753 0.08536066 0.08496527
 0.08456497 0.08417152 0.08380108 0.08345899 0.08314873 0.08287136 0.082627 0.08241581 0.08223374 0.08208036
 0.08194793 0.08183527 0.08173104 0.08163273 0.08152346 0.08140232 0.08125566 0.08109019 0.0809108 0.08072685
 0.08055496 0.08039313 0.08024861 0.08010677 0.07996143 0.07979923 0.07961208 0.0793968 0.07915026 0.07887575
 0.07857338 0.07824624 0.07789496 0.07751823 0.07711597 0.07668796 0.07623456 0.07576381 0.07527609 0.07477938
 0.07427127 0.0737458 0.07320032 0.07262278 0.07201619 0.07137984 0.07071922 0.07004193 0.06934948 0.06864573
 0.06793113 0.06720661 0.06647366 0.06573424 0.06498422 0.06422368 0.06344441 0.06264392 0.06182303 0.06098055
 0.06012881 0.05926836 0.05841523 0.05757035 0.05675114 0.05595806 0.05520446 0.05448746 0.0538036 0.05314605
 0.05249431 0.0518432 0.05117176 0.05048247 0.0497677 0.04903815 0.04829996 0.04756439 0.04684325 0.04613199
 0.04543577 0.04473081 0.04401087 0.04326051 0.04247231 0.0416621 0.04082984 0.04000131 0.0391788 0.03836347
 0.03755482 0.03673724 0.03591175 0.03507813 0.03424153 0.03342431 0.03263083 0.03188578 0.03118827 0.03054897
 0.02996312 0.02942844 0.02894182 0.02849893 0.02810026 0.02774622 0.02743287 0.02716168 0.02691698 0.02669623
 0.02647953 0.02626295 0.02603199 0.02578458 0.02551014 0.02520763 0.02487344 0.02450801 0.02412521 0.02372724
 0.02333901 0.02296049 0.02260535 0.02227071 0.02195467 0.02165654 0.02137342 0.02110719 0.0208597 0.02063091
 0.02042191 0.0202309 0.02005703 0.01989903 0.01975649 0.01962733 0.01951153 0.01940428 0.01930488 0.01920828
 0.01911352 0.01901981 0.01892677 0.01884171 0.0187651 0.01870742 0.018668 0.01864652 0.01863997 0.01863396
 0.01862728 0.01860801 0.01857906 0.01854102 0.01849551 0.01844573 0.01839032 0.01832775 0.01826121 0.01819094
 0.01812441 0.01806585 0.01801652 0.01797786 0.0179483 0.01792605 0.01792109 0.0179338 0.017979 0.01805839
 0.0181672 0.01830461 0.01844592 0.01859082 0.01872437 0.01885108 0.01898396 0.01912698 0.01930136 0.01950145
 0.01972797 0.01996969 0.02020955 0.02044537 0.02066687 0.02088179 0.02109432 0.02130344 0.0215128 0.02170775
 0.02188349 0.02203484 0.02215718 0.02226725 0.02236594 0.02247361 0.02259222 0.02272668 0.02287689 0.02303421
 0.02319732 0.02335128 0.02349503 0.02361409 0.02371157 0.02378688 0.02384877 0.02391475 0.02399055 0.02409383
 0.02421977 0.02437032 0.0245391 0.02472009 0.0249175 0.0251313 0.02536767 0.02563138 0.02591217 0.02621108
 0.02650404 0.02678792 0.02704732 0.02728029 0.02749083 0.02767932 0.02785739 0.0280253 0.02819004 0.02835128
 0.02851091 0.028669 0.02882694 0.02898464 0.02914333 0.02930076 0.0294552 0.02960218 0.02973596 0.0298561
 0.0299577 0.03005172 0.03014025 0.03023867 0.03035404 0.03048704 0.03064116 0.03080068 0.03096396 0.03111909
 0.03126463 0.03140217 0.03153178 0.03165646 0.03177619 0.03189128 0.03200275 0.03211628 0.03223221 0.03235577
 0.03248409 0.03261239 0.03274177 0.03286855 0.03300384 0.03315751 0.03333718 0.03355581 0.0337998 0.03406997
 0.03433866 0.03459658 0.03482875 0.03502773 0.03520362 0.03535553 0.035505 0.03565376 0.03581438 0.03598738
 0.03617498 0.03637762 0.03660081 0.03684499 0.037117 0.03741331 0.03772704 0.03805389 0.03837977 0.03870735
 0.03903547 0.03936448 0.03969961 0.04002379 0.04032851 0.04059545 0.0408087 0.04097901 0.04110256 0.04120995
 0.04130788 0.04141229 0.04152725 0.04165081 0.04178289 0.04192628 0.0420813 0.04226039 0.04246354 0.04269652
 0.04295649 0.04323299 0.04352202 0.04380441 0.04408093 0.04434235 0.04459523 0.04484623 0.04509772 0.04535633
 0.04561695 0.04587605 0.04613629 0.04639519 0.04666705 0.04695769 0.04726912 0.04760577 0.04794827 0.04829463
 0.04862925 0.04894995 0.04926137 0.04956397 0.04987626 0.05020018 0.05056209 0.05096329 0.05142626 0.05194711
 0.05252609 0.05315745 0.05382714 0.05453667 0.05528294 0.05606667 0.05689318 0.05774451 0.05861681 0.05947168
 0.06029658 0.06103874 0.06168246 0.06217417 0.06249566 0.06263719 0.06258755 0.06241368 0.06211777 0.06179794
 0.06145901 0.06116737 0.06092374 0.06075984 0.06067374 0.06067567 0.06075806 0.06090393 0.06110343 0.06132679
 0.06156948 0.06181547 0.06205391 0.06227345 0.06244911 0.0625575 0.06259053 0.06252957 0.06240897 0.06223254
 0.062045 0.06185881 0.06169065 0.06154554 0.06142137 0.06131826 0.06123587 0.06117424 0.06113682 0.06112413
 0.06114357 0.06119435 0.06127834 0.06139034 0.06151352 0.06164597 0.06177286 0.06190099 0.06203621 0.06217881
 0.06233179 0.06249269 0.06265131 0.06283876 0.06306291 0.06336754 0.06378986 0.06425697 0.06477224 0.06519035
 0.06547848 0.06565028 0.06570051 0.06571786 0.0657062 0.06569199 0.06567276 0.06562784 0.06555802 0.06545588
 0.06532794 0.06519209 0.06505299 0.06493089 0.06482399 0.0647426 0.06467094 0.06459861 0.06450528 0.06436616
 0.06419256 0.0639763 0.06375935 0.06355561 0.06338811 0.06326745 0.06318674 0.06314597 0.06314187 0.06317441
 0.06323883 0.06333455 0.06342653 0.0635122 0.06354947 0.0635405 0.06347464 0.06335735 0.06320114 0.06300963
 0.06279511 0.06256367 0.06232772 0.06209763 0.06188856 0.06170845 0.06156917 0.06146974 0.0614181 0.06139015
 0.06138251 0.0613611 0.06131067 0.06124932 0.06117118 0.06115202 0.06119972 0.06134303 0.06158319 0.06186087
 0.06217339 0.0624703 0.06275531 0.06302697 0.06328306 0.06351473 0.06371851 0.06387664 0.06400153 0.06410435
 0.06419733 0.06430215 0.06441254 0.06453045 0.06464951 0.06476475 0.06488059 0.06499893 0.06511703 0.06523584
 0.06534531 0.06544379 0.06552679 0.06559383 0.06563982 0.06566452 0.06567224 0.0656656 0.06567964 0.06571458
 0.06579585 0.06590929 0.06601914 0.06611383 0.06614089 0.06611773 0.06604581 0.06595147 0.06586896 0.06580106
 0.06576195 0.06574462 0.06574778 0.06577033 0.06581492 0.06586569 0.06592188 0.06595635 0.06596278 0.06593992
 0.06588548 0.06582638 0.06576397 0.06572483 0.06570911 0.06572742 0.06577604 0.06584121 0.06591573 0.06596635
 0.06599084 0.06596625 0.0658972 0.06578261 0.06562257 0.06541712 0.06516476 0.06486271 0.06451585 0.06412789
 0.063695 0.06321698 0.06268757 0.06209747 0.06148743 0.06085685 0.06028487 0.0597809 0.05937003 0.05905398
 0.05877615 0.05853456 0.05828626 0.05803843 0.0578148 0.05761736 0.05747194 0.0573616 0.05726044 0.0571508
 0.05698701 0.05677574 0.05650123 0.05619135 0.05586144 0.05553633 0.05523506 0.05496399 0.05472886 0.05453314
 0.05437564 0.05427623 0.05423952 0.05426802 0.05436623 0.05447136 0.05458004</values></Ydata></AB><ScSm><Ydata ylabel="Single channel"><values byteorder="INTEL" format="FLOAT32" numvalues="1814"> 0.06510042 0.06510834 0.06518011 0.06533395 0.06554243 0.06574605 0.06589208 0.06596693 0.06598424 0.06595183
 0.06588078 0.06582412 0.06586143 0.06602289 0.06624699 0.06642166 0.06646799 0.06640762 0.06635838 0.06642337
 0.06655253 0.06654415 0.06623296 0.06568082 0.06514204 0.06482625 0.06476061 0.06493311 0.06542419 0.06617767
 0.0667343 0.06655787 0.06571029 0.06488438 0.06463335 0.06483749 0.06503117 0.06494308 0.06457959 0.0641112
 0.06391571 0.06448226 0.06593263 0.06761914 0.06835374 0.06715794 0.06396233 0.05982859 0.05655598 0.05571576
 0.05754584 0.0606345 0.06298228 0.06359866 0.06297623 0.06207597 0.06128705 0.06055664 0.06007172 0.06029902
 0.06134963 0.0625418 0.06275229 0.06137985 0.05905571 0.05719227 0.05669034 0.05737159 0.0587324 0.06049829
 0.061869 0.06107512 0.05711068 0.05194591 0.04966024 0.0525676 0.05874812 0.06392445 0.06527071 0.06300902
 0.05917739 0.05593365 0.05473595 0.05595315 0.05880037 0.06198671 0.06449547 0.06563907 0.06488985 0.06233425
 0.05912294 0.05691988 0.05688218 0.05919947 0.0630518 0.06669205 0.06824164 0.06707191 0.06421854 0.06128751
 0.05939975 0.05919304 0.06097733 0.06441756 0.06850821 0.07215402 0.07461868 0.07560626 0.07532598 0.0743571
 0.07320595 0.07222017 0.07189819 0.07258646 0.07366654 0.0737832 0.07231809 0.07021293 0.06899734 0.0692039
 0.06994385 0.06999211 0.06902874 0.06744744 0.06514817 0.061496 0.05677678 0.05260826 0.05032705 0.04995789
 0.05116103 0.05376544 0.05665854 0.05771742 0.0561364 0.05391566 0.05388655 0.05668619 0.06042343 0.06297284
 0.06394158 0.06451762 0.06594786 0.06826892 0.0701532 0.06991193 0.06716345 0.06377407 0.06254143 0.06444974
 0.06772051 0.06999987 0.07084503 0.07147843 0.0726513 0.07348011 0.07236664 0.06889673 0.0648667 0.06317469
 0.06529483 0.06980189 0.07341011 0.07341182 0.06949741 0.06381515 0.05929316 0.05761585 0.05877244 0.06217356
 0.0673053 0.07313914 0.07785477 0.07986197 0.07896599 0.07627627 0.07293519 0.06906085 0.06435321 0.05985109
 0.05815004 0.06095371 0.06690207 0.07270315 0.07607158 0.07687631 0.07587176 0.07329452 0.06905726 0.06407564
 0.0607127 0.06095449 0.06402124 0.06679659 0.06708598 0.06562296 0.06448085 0.06448561 0.06489559 0.06498243
 0.06506786 0.06596354 0.06780519 0.06973363 0.07072802 0.07054009 0.06973866 0.06904542 0.06868243 0.06821322
 0.06715001 0.06590778 0.06577733 0.06751914 0.07032605 0.07265268 0.07377167 0.074054 0.07394905 0.07319091
 0.07118753 0.0681384 0.06550188 0.06492242 0.06664512 0.06935753 0.07155839 0.07263857 0.07275078 0.07227997
 0.07158098 0.07085484 0.07019565 0.0698421 0.0701288 0.0710157 0.07196386 0.07247418 0.07250458 0.07223918
 0.07172951 0.07094681 0.07003145 0.06931654 0.06909459 0.0693993 0.07002204 0.07069521 0.07119755 0.07134818
 0.07107539 0.0705246 0.06995928 0.0695217 0.06919979 0.06901096 0.06905209 0.06933163 0.06968692 0.06992958
 0.06999604 0.06992151 0.06974357 0.06948143 0.0691686 0.06886908 0.06866875 0.06863256 0.06873466 0.06886056
 0.06892805 0.06896722 0.06902401 0.06904142 0.06892271 0.06867846 0.06842987 0.06828082 0.06823994 0.06825076
 0.06824307 0.06814435 0.06788668 0.06746714 0.06701876 0.06675996 0.06681887 0.06713405 0.0675448 0.067917
 0.06816525 0.06824858 0.06820185 0.06811074 0.06801441 0.06787319 0.06765158 0.06740215 0.06725074 0.06729738
 0.06752296 0.06780171 0.06801267 0.06811711 0.06813539 0.06811003 0.06809989 0.06813918 0.06818204 0.06814568
 0.06802303 0.06790474 0.06787916 0.06794041 0.06800038 0.0679815 0.06789905 0.06784483 0.06788368 0.0679888
 0.06809004 0.06815532 0.0682032 0.06825349 0.06828395 0.06824179 0.06810848 0.06794344 0.06783265 0.06779809
 0.06779596 0.06779963 0.06783549 0.06792654 0.06803921 0.0681102 0.06811263 0.06807785 0.06804848 0.06802256
 0.06796087 0.06784602 0.06771204 0.0676097 0.06756005 0.06754703 0.06754062 0.06751947 0.06747779 0.06741726
 0.0673373 0.06723491 0.06711033 0.06697328 0.06684975 0.06677699 0.06677313 0.06680563 0.06680523 0.06672478
 0.06658281 0.06644259 0.06634841 0.06628853 0.06622289 0.06613535 0.06604581 0.06597814 0.06593558 0.06590754
 0.06588292 0.0658544 0.06582789 0.06583415 0.06591207 0.06606287 0.06623 0.06634329 0.06638443 0.06639732
 0.06643556 0.06651421 0.06661306 0.06671298 0.06682218 0.06696597 0.06714556 0.06731421 0.06741732 0.06745806
 0.06749933 0.06759754 0.06775884 0.06795777 0.0681626 0.06833611 0.06845003 0.06851825 0.06859188 0.06870532
 0.06884332 0.06897309 0.06909067 0.06921767 0.06936541 0.06952596 0.06969837 0.06990295 0.07015964 0.07045899
 0.07075897 0.07101146 0.07120076 0.0713647 0.07157064 0.07185899 0.07220816 0.0725567 0.07285747 0.0731114
 0.07335329 0.0736091 0.07387516 0.07414402 0.07443509 0.07477668 0.0751629 0.0755531 0.0759166 0.07625885
 0.07660161 0.07695439 0.07731117 0.07766532 0.07802163 0.07839079 0.07877009 0.0791362 0.07946652 0.07976406
 0.08005417 0.08036225 0.08069862 0.0810501 0.0813772 0.08164001 0.08184632 0.08205848 0.08232865 0.08263834
 0.08292732 0.08317491 0.08342192 0.08370969 0.08402755 0.0843353 0.08461702 0.08489364 0.08518879 0.08549465
 0.08577218 0.08598391 0.08613158 0.08625942 0.08641502 0.08661503 0.0868569 0.08714484 0.0874777 0.08782209
 0.08812666 0.08836227 0.08853228 0.0886561 0.08876452 0.08889623 0.08907095 0.0892722 0.08946966 0.08964407
 0.08978336 0.08988543 0.08998148 0.09012584 0.0903416 0.0906014 0.09087768 0.09117949 0.091517 0.09186149
 0.09217848 0.09248419 0.09282674 0.09320916 0.09356669 0.09383316 0.0940019 0.0941079 0.09418432 0.0942641
 0.09439521 0.09461156 0.09489252 0.09517786 0.09541954 0.0956021 0.09572344 0.09578092 0.09577905 0.09573774
 0.0956879 0.09566274 0.09569377 0.09581167 0.09604092 0.09637866 0.09677678 0.09715764 0.09745617 0.09764122
 0.09770052 0.09762885 0.09744387 0.0971927 0.09691476 0.09659798 0.09618682 0.09563236 0.094921 0.09405788
 0.09304468 0.09188815 0.09062655 0.08933906 0.08812547 0.08707371 0.08624626 0.08569445 0.08547004 0.08559787
 0.08602514 0.08660668 0.08715097 0.08748499 0.08749135 0.08711876 0.08638547 0.08536974 0.08417757 0.08290617
 0.08162753 0.08038582 0.079197 0.07806348 0.07701345 0.07613242 0.07555334 0.0754245 0.07589096 0.07707137
 0.07898888 0.08148897 0.08424699 0.08690219 0.08921793 0.09113926 0.09273582 0.09411788 0.09538333 0.09658733
 0.09773111 0.09878886 0.09975307 0.1006433 0.101472 0.1022183 0.1028406 0.1033016 0.1035816 0.1036846
 0.1036405 0.1034996 0.1033209 0.1031506 0.1029925 0.102789 0.1024398 0.1018521 0.1009864 0.09987159
 0.09859487 0.09729861 0.09621565 0.09571089 0.09621502 0.09799565 0.1009248 0.1044869 0.1080525 0.1111705
 0.1136692 0.1155829 0.1170434 0.1182008 0.1191738 0.1200334 0.1208163 0.121544 0.1222294 0.1228763
 0.1234831 0.1240524 0.1245996 0.1251456 0.1256932 0.1262207 0.1267064 0.1271558 0.1275977 0.1280555
 0.1285281 0.1289972 0.1294504 0.1298938 0.1303365 0.1307688 0.1311696 0.1315351 0.1318856 0.132246
 0.1326298 0.1330386 0.1334568 0.1338513 0.1341956 0.1344969 0.1347886 0.135098 0.1354264 0.1357593
 0.1360848 0.1364011 0.1367126 0.1370254 0.137346 0.1376746 0.137998 0.1382952 0.1385573 0.1387988
 0.1390427 0.1392981 0.1395558 0.1398046 0.140049 0.1403095 0.1406064 0.1409391 0.1412822 0.1416046
 0.1418931 0.1421584 0.1424203 0.1426904 0.1429693 0.1432545 0.1435436 0.1438309 0.1441081 0.1443747
 0.1446415 0.1449183 0.1452008 0.1454745 0.1457296 0.1459693 0.1462047 0.1464457 0.146701 0.1469796
 0.1472845 0.1476026 0.1479086 0.148183 0.148425 0.1486471 0.1488633 0.1490862 0.1493269 0.1495893
 0.1498661 0.1501448 0.1504179 0.1506869 0.1509587 0.1512388 0.1515281 0.1518228 0.1521162 0.1524013
 0.1526753 0.1529421 0.1532054 0.1534622 0.1537084 0.1539516 0.154207 0.1544814 0.154766 0.155047
 0.155318 0.1555816 0.1558443 0.1561114 0.1563848 0.1566627 0.1569402 0.1572085 0.1574602 0.1576981
 0.1579346 0.1581796 0.1584316 0.1586838 0.1589342 0.1591864 0.1594445 0.1597081 0.1599731 0.1602361
 0.1604964 0.1607536 0.1610073 0.161259 0.1615109 0.1617636 0.1620167 0.1622699 0.1625209 0.1627667
 0.1630092 0.1632542 0.1635047 0.1637613 0.1640239 0.1642894 0.164552 0.1648092 0.1650644 0.165321
 0.1655785 0.1658356 0.1660907 0.1663423 0.1665906 0.1668365 0.1670808 0.1673265 0.1675794 0.1678401
 0.168102 0.1683584 0.1686077 0.1688513 0.1690912 0.16933 0.1695698 0.1698112 0.1700559 0.1703036
 0.1705512 0.1707981 0.1710461 0.1712941 0.1715402 0.1717881 0.1720415 0.1722958 0.1725448 0.17279
 0.1730359 0.1732841 0.1735357 0.1737907 0.1740465 0.1743025 0.1745609 0.1748219 0.1750835 0.1753461
 0.1756103 0.1758737 0.1761364 0.1764004 0.1766633 0.1769237 0.1771858 0.1774483 0.1776984 0.1779297
 0.1781548 0.17839 0.1786388 0.1788935 0.1791425 0.1793816 0.1796209 0.179872 0.1801293 0.1803778
 0.1806137 0.180844 0.1810768 0.1813202 0.1815763 0.1818332 0.1820797 0.1823215 0.1825696 0.1828247
 0.183085 0.1833495 0.1836105 0.1838625 0.1841118 0.1843607 0.1845985 0.18482 0.1850302 0.1852252
 0.1853674 0.1853339 0.1848148 0.183215 0.179653 0.1731368 0.1629606 0.1491598 0.1326574 0.1149294
 0.097463 0.08138327 0.06735484 0.05566742 0.0463743 0.03938719 0.03454027 0.03169339 0.03083761 0.0321968
 0.03633618 0.04383102 0.054012 0.06383861 0.0690654 0.0675856 0.06144643 0.0549861 0.05122371 0.05038454
 0.05118143 0.05250648 0.05400726 0.05588949 0.05850625 0.06195831 0.06607592 0.07084914 0.07664145 0.08373062
 0.09174885 0.09983155 0.1073646 0.1144733 0.1217347 0.1294858 0.1374703 0.1450919 0.1518912 0.1577765
 0.1629315 0.167608 0.1719854 0.1761482 0.1801306 0.1839163 0.1873643 0.190183 0.192068 0.1929294
 0.1929997 0.1927056 0.1924199 0.1923187 0.1924236 0.1927104 0.1931571 0.193741 0.1944375 0.1952205
 0.196057 0.1969135 0.1977707 0.198619 0.1994455 0.2002339 0.2009681 0.2016343 0.2022275 0.2027579
 0.2032403 0.2036822 0.2040881 0.2044685 0.2048361 0.2051975 0.2055539 0.205901 0.2062298 0.2065308
 0.2067986 0.2070337 0.2072455 0.2074521 0.2076682 0.2078952 0.208128 0.2083623 0.2085922 0.2088105
 0.2090193 0.2092319 0.2094572 0.2096884 0.209912 0.210121 0.2103194 0.2105193 0.2107299 0.2109488
 0.2111669 0.2113799 0.2115908 0.2118008 0.2120071 0.2122106 0.2124179 0.2126361 0.212863 0.2130882
 0.213306 0.2135269 0.2137634 0.214011 0.2142545 0.214489 0.2147188 0.2149427 0.2151576 0.2153686
 0.2155808 0.2157864 0.2159749 0.216153 0.2163459 0.2165768 0.2168422 0.2171105 0.2173539 0.2175761
 0.2177987 0.2180291 0.2182527 0.2184502 0.2186202 0.218792 0.219008 0.2192804 0.2195801 0.219877
 0.2201658 0.2204462 0.2207119 0.2209677 0.2212192 0.221445 0.2216146 0.2217441 0.2219099 0.2221891
 0.2225833 0.2230076 0.2233693 0.2236505 0.2238975 0.2241577 0.2244526 0.2247642 0.2250029 0.2250625
 0.2249808 0.2249799 0.2252626 0.2258111 0.2264384 0.2269853 0.2274147 0.2277633 0.2280627 0.2283041
 0.2284487 0.2284747 0.2284398 0.2284986 0.2288026 0.2293453 0.2299493 0.2304469 0.2308145 0.2311058
 0.2313542 0.2315717 0.2317168 0.2316393 0.2312392 0.2307493 0.2306689 0.2312773 0.2323165 0.2332697
 0.2338751 0.234249 0.2345797 0.2348958 0.2351422 0.2352289 0.2349059 0.2339023 0.2324623 0.2314977
 0.231833 0.233372 0.2352546 0.236716 0.2375678 0.2380065 0.2382806 0.2385239 0.2386522 0.2383751
 0.2375193 0.236447 0.2359621 0.2365706 0.2379174 0.2391693 0.2398653 0.2401607 0.2403851 0.2406694
 0.240856 0.2404507 0.2389019 0.2364173 0.2343783 0.2343703 0.2366317 0.2397678 0.2421322 0.2432427
 0.2436546 0.2437506 0.2431756 0.2414767 0.2387906 0.2357879 0.233448 0.2329106 0.2347244 0.2379164
 0.2405408 0.2415924 0.2418598 0.2426382 0.2441897 0.2457476 0.2465127 0.246272 0.2452694 0.2437738
 0.2419438 0.2402134 0.2395389 0.2407323 0.2434724 0.2464046 0.2483902 0.2493758 0.2498089 0.2493089
 0.2463919 0.240253 0.2330058 0.2291069 0.2314233 0.2382323 0.245073 0.2491381 0.250816 0.2515938
 0.2520571 0.2517327 0.2493751 0.2436527 0.2352527 0.2281969 0.2271234 0.232703 0.2408812 0.246659
 0.2474924 0.2435613 0.236881 0.2307107 0.2282258 0.2305895 0.2364352 0.2432191 0.2487525 0.2518062
 0.2520962 0.2501664 0.2473483 0.2454357 0.2453882 0.2459138 0.2444428 0.2403652 0.2360432 0.2333555
 0.2308096 0.2263194 0.2217629 0.2217551 0.227638 0.2352366 0.239541 0.2397838 0.2385768 0.23716
 0.2333072 0.2245485 0.2128302 0.2046146 0.2052028 0.2132088 0.2217639 0.2251872 0.2234621 0.2202888
 0.218158 0.2159272 0.2106832 0.2017186 0.1925044 0.187856 0.1889305 0.192251 0.1938573 0.1924668
 0.1881427 0.1810468 0.1737115 0.1718906 0.1796624 0.1943768 0.208673 0.2164963 0.2153303 0.2049464
 0.1882705 0.1731147 0.1683914 0.1761728 0.1891868 0.1974905 0.1963992 0.1873998 0.1738651 0.1586657
 0.1454454 0.1391228 0.1429596 0.1552232 0.1692781 0.1769787 0.1731945 0.1597183 0.1454638 0.1400836
 0.1453022 0.1537771 0.1573264 0.1543363 0.1486867 0.1446431 0.144328 0.1474278 0.1515917 0.1546047
 0.1561768 0.1556311 0.1495233 0.1358266 0.1196983 0.1101411 0.1106178 0.1172404 0.1260192 0.1364374
 0.1467061 0.1513025 0.1472025 0.1396388 0.137672 0.1445789 0.1550125 0.161497 0.1618154 0.1594614
 0.1582128 0.1580546 0.1570631 0.1558497 0.1577413 0.1641877 0.1722069 0.177693 0.1796862 0.1800207
 0.1801921 0.1802137 0.1796807 0.1784542 0.1765941 0.1744573 0.1725794 0.1710541 0.1694247 0.1673231
 0.1645069 0.1600283 0.1524807 0.1422035 0.1325959 0.1275291 0.1273597 0.1291917 0.1310382 0.1329573
 0.1332751 0.1274831 0.1140958 0.0994972 0.0933173 0.09915502 0.1119054 0.1235957 0.1294844 0.1285055
 0.1209479 0.1086705 0.09706868 0.09341189 0.1010156 0.1161783 0.1322096 0.1451079 0.1539795 0.1580229
 0.1561278 0.1493439 0.1417332 0.1380723 0.1410356 0.1500166 0.161229 0.168565 0.1665949 0.1560488
 0.146363 0.1486914 0.1640775 0.1815832 0.1905643 0.1914844 0.1915111 0.1933573 0.1939597 0.1924473
 0.1932866 0.2001288 0.2103681 0.217684 0.217618 0.2093488 0.1949607 0.1797016 0.1706516 0.1712101
 0.1774161 0.1823937 0.1830789 0.1797771 0.1720303 0.1603726 0.1507943 0.1511343 0.1619309 0.1752403
 0.1836623 0.1871132 0.1895824 0.1922228 0.191937 0.1860909 0.1769315 0.1702298 0.1695997 0.17334
 0.1773328 0.1793604 0.1792154 0.17633 0.1701056 0.1625975 0.15852 0.1612262 0.1693164 0.1779825
 0.1833168 0.1847785 0.1841088 0.1830398 0.18209 0.1806888 0.1783696 0.1763242 0.1771614 0.1820725
 0.1888396 0.1940604 0.1970115 0.1998817 0.2043138 0.209128 0.2117853 0.21122 0.2089083 0.2076155
 0.2091911 0.2130921 0.2167585 0.2177566 0.2160675 0.2143193 0.2153743 0.2195953 0.2247967 0.2287151
 0.2308637 0.2320565 0.2330509 0.2339002 0.2339326 0.2322705 0.2290915 0.2263727 0.22651 0.2299499
 0.2347518 0.2385654 0.2405004 0.2410409 0.2408204 0.2399484 0.2383527 0.2363675 0.2347419 0.2340772
 0.2344028 0.2353287 0.2364434 0.2374927 0.2383509 0.2389911 0.2394562 0.239799 0.2400678 0.240331
 0.2406288 0.2408946 0.2410167 0.2410077 0.2410324 0.2412113 0.2414603 0.2415915 0.2415086 0.2412081
 0.2406409 0.2397137 0.2384378 0.2369483 0.2353313 0.233551 0.2316563 0.2300206 0.2292367 0.2296788
 0.2311618 0.2330558 0.2347202 0.2358258 0.2363624 0.2364856 0.2363968 0.2362694 0.236194 0.2361718
 0.2361712 0.236187 0.2362426 0.2363505 0.2364932 0.2366505 0.236831 0.2370586 0.2373275 0.2375848
 0.2377568 0.2377926 0.2376952 0.2375171 0.23731 0.2370684 0.2367246 0.2362027 0.2354753 0.2345803
 0.2335985 0.2326116 0.2316543 0.2306944 0.2296678 0.2285313 0.2272683 0.2258535 0.2242639 0.2225459
 0.2208288 0.219231 0.2177685 0.2163769 0.2149914 0.2135792 0.2121289 0.2106501 0.2091793 0.2077607
 0.2064162 0.2051372 0.2038992 0.202675 0.2014364 0.200149 0.1987803 0.1973186 0.1957829 0.1942063
 0.1926 0.1909239 0.18908 0.1869332 0.1843427 0.1811913 0.1774218 0.1730809 0.1683352 0.163426
 0.1585901 0.1540051 0.1497927 0.1460508 0.142865 0.1402874 0.1383196 0.1369324 0.1360993 0.1358094
 0.1360645 0.1368694 0.138205 0.139996 0.1421106 0.1443922 0.1466882 0.1488717 0.150874 0.1527126
 0.1544712 0.1562301 0.1580002 0.1597215 0.1613194 0.1627529 0.1640065 0.1650673 0.1659353 0.1666407
 0.1672279 0.1677325 0.1681833 0.1686037 0.1689961 0.1693439 0.1696405 0.1699079 0.1701843 0.1705019
 0.1708801 0.1713306 0.1718625 0.1724793 0.1731794 0.1739632 0.1748329 0.175777 0.1767688 0.1777929
 0.1788581 0.1799795 0.1811734 0.1824748 0.183934 0.1855784 0.187386 0.189292 0.1912064 0.1930335
 0.1946976 0.1961614 0.1974222 0.1984917 0.1993809 0.2001019 0.2006857 0.2011823 0.2016292 0.2020292
 0.2023702 0.2026539 0.2028877 0.2030614 0.2031458 0.2031138 0.2029615 0.2027164 0.2024189 0.2020916
 0.2017327 0.2013426 0.2009485 0.2005939 0.2003075 0.200078 0.1998644 0.199632 0.1993774 0.1991113
 0.1988285 0.1985026 0.1980965 0.1975735 0.1969108 0.1961113 0.1951988 0.1941983 0.193121 0.191961
 0.1907042 0.1893479 0.1879066 0.1863972 0.1848297 0.1832085 0.1815208 0.1797317 0.17783 0.1758773
 0.1739786 0.1722008 0.1705413 0.1689662 0.1674475 0.1659715 0.1645382 0.1631581 0.1618414 0.1605877
 0.1593883 0.1582392 0.157148 0.1561265 0.1551771 0.1542981 0.1534993 0.1527947 0.1521833 0.1516552
 0.151208 0.1508347 0.1505153 0.1502444 0.1500465 0.1499311 0.1498507 0.1497308 0.1495332 0.1492753
 0.1490033 0.1487561 0.1485481 0.1483737 0.1482187 0.1480522 0.1478124 0.1474182 0.1467957 0.1458928
 0.1446871 0.1431986 0.1414947 0.1396805 0.1378861 0.1362382 0.1348224 0.1336691 0.1327675 0.1320744
 0.1315204 0.1310411 0.1306213 0.1303063 0.1301658 0.1302186 0.1303696 0.1304569 0.130403 0.130299
 0.1303128 0.1305415 0.130965 0.131487 0.1319931 0.1324021 0.1326913 0.1328765 0.1329812 0.1330243
 0.1330083 0.1329153 0.1327302 0.1324565 0.1321018 0.1316767 0.1312054 0.1307008 0.1301405 0.1295005
 0.1287836 0.1279912 0.1271083 0.1261287 0.1250477 0.1238478 0.1225659 0.1213659 0.1204814 0.1200761
 0.1201546 0.1205653 0.1210984 0.121619 0.122062 0.1222943 0.1221594 0.1217989 0.1217899 0.1227318
 0.1246653 0.1269968 0.1289976 0.1302911 0.130877 0.1308717 0.1303656 0.1294287 0.1280903 0.126334
 0.1241887 0.12176 0.1191458 0.1164397 0.1138155 0.1114646 0.1094734 0.1078442 0.1065618 0.1056613
 0.1052646 0.1050466 0.1033483 0.09805106 0.08983849 0.08365671 0.08456595 0.09205557 0.1003903 0.1046784
 0.1047841 0.103318 0.1020744 0.1013069 0.1009032 0.1009799 0.10166 0.1028354 0.1041624 0.1052654
 0.105986 0.1063603 0.1063497 0.1056412 0.1036183 0.09956622 0.09323724 0.08537186 0.0774612 0.07087487
 0.06624463 0.06348398 0.06207988 0.06138951 0.060955 0.06071394 0.06091405 0.06181168 0.06345029 0.06569568
 0.06838284 0.07131123 0.07414502 0.0765263 0.07835121 0.07978703 0.08097384 0.08184937 0.08229077 0.08228831
 0.08193977 0.08137191 0.08070038 0.07999775 0.07925044 0.07837316 0.07733704 0.0763011 0.075535 0.07516314
 0.07506337 0.07504918 0.07504395 0.0750438 0.07503336 0.07499589 0.07494314 0.07492594 0.07503971 0.07535993
 0.07583545 0.07630495 0.07663935 0.07683208 0.07696357 0.07708192 0.07708228 0.07677691 0.07618546 0.07561591
 0.07526058 0.07486132 0.07405201 0.0729444 0.07209295 0.07189313 0.07222106 0.07265343 0.07285935 0.07276525
 0.07252467 0.07243025 0.072724 0.07332999</values></Ydata></ScSm><ScRf><Ydata ylabel="Single channel"><values byteorder="INTEL" format="FLOAT32" numvalues="1820"> 0.06074584 0.06090784 0.06100335 0.06103368 0.06102969 0.06104032 0.06111179 0.06126083 0.06146029 0.06165211
 0.06178576 0.06185062 0.06186226 0.06182582 0.06174559 0.06167093 0.0616868 0.06183285 0.06204991 0.06221985
 0.06225951 0.0621937 0.06214294 0.06220456 0.0623206 0.06229308 0.06197253 0.06143114 0.06091517 0.0606177
 0.06055825 0.06072473 0.06119419 0.06191231 0.06244206 0.06227285 0.06145959 0.06065798 0.06039984 0.06058387
 0.0607738 0.06070548 0.06037385 0.05993567 0.05975172 0.06028877 0.06166084 0.06324962 0.0639272 0.06277142
 0.05972721 0.05580846 0.05271684 0.05192999 0.05366658 0.05659222 0.05881761 0.05940394 0.05881598 0.05796741
 0.05723204 0.05655788 0.05611113 0.05632247 0.05729431 0.05838877 0.05855613 0.05724086 0.05504663 0.05330245
 0.05284318 0.05348834 0.05476538 0.05642522 0.05771519 0.05696198 0.05321843 0.04835234 0.04621751 0.04899211
 0.05485256 0.05974778 0.06100072 0.05882806 0.0551801 0.05211772 0.05101117 0.05217609 0.05484785 0.05781715
 0.06015136 0.0612168 0.06051246 0.05811231 0.05509716 0.05303102 0.05299956 0.05518167 0.05880851 0.06223434
 0.06368564 0.06256853 0.0598627 0.05708858 0.05530783 0.05512039 0.05681215 0.06006267 0.06392422 0.06736461
 0.0696876 0.07061385 0.07034466 0.06943217 0.06835835 0.06745049 0.06716841 0.06782284 0.0688246 0.06890861
 0.06751035 0.06552389 0.06438494 0.06458786 0.06529023 0.06533431 0.06441928 0.06292103 0.06074838 0.05730219
 0.05285219 0.04892508 0.04678136 0.0464479 0.04761402 0.05012194 0.05290619 0.05393859 0.05244628 0.05032241
 0.05025217 0.05284964 0.05634181 0.05873214 0.05965253 0.06021775 0.06159261 0.06380127 0.06558637 0.06535392
 0.0627469 0.05953613 0.05837469 0.06019703 0.06331946 0.06551316 0.06635651 0.06699927 0.06814421 0.0689543
 0.06792739 0.06468743 0.06094165 0.05941989 0.06149181 0.06579316 0.06921804 0.06921548 0.06550449 0.06013286
 0.05588282 0.05434836 0.05551971 0.05885043 0.06386165 0.06956683 0.07421619 0.0762758 0.07553606 0.07303911
 0.06988399 0.06620537 0.06173193 0.05747325 0.05593999 0.05878142 0.06468193 0.07045352 0.07387793 0.07481729
 0.0739855 0.07158867 0.06752822 0.06272203 0.05953868 0.05995908 0.06318896 0.06610654 0.06652831 0.06520171
 0.06420483 0.06436072 0.06492393 0.06516936 0.06543259 0.06653806 0.06861584 0.07078219 0.07198912 0.07197504
 0.07131952 0.0707724 0.07056963 0.07025465 0.06932271 0.06822596 0.06832153 0.07038087 0.07352605 0.07613206
 0.07745883 0.07792111 0.07799444 0.07737485 0.07541093 0.07231911 0.06968378 0.0692837 0.07137336 0.07451986
 0.07709187 0.07843556 0.0787337 0.07841893 0.0778756 0.0773104 0.07681736 0.07665105 0.07716671 0.0783141
 0.07951348 0.08023666 0.08044244 0.08031815 0.07990535 0.07917929 0.07831939 0.0777083 0.0776571 0.07817692
 0.07902532 0.0799211 0.08064252 0.08098999 0.08085652 0.08037969 0.07986426 0.07950716 0.07932191 0.07932234
 0.07959206 0.08011859 0.08070724 0.08114012 0.08134715 0.08138381 0.08131413 0.08116342 0.080952 0.08074427
 0.08065671 0.08077994 0.0810696 0.08137201 0.08160263 0.08182859 0.08210938 0.08233993 0.08235903 0.082169
 0.08194734 0.08185554 0.08190961 0.0820266 0.08211859 0.08210884 0.08191866 0.0815358 0.08111294 0.08091296
 0.08109909 0.08161683 0.08228837 0.08294074 0.08343549 0.08369538 0.08376069 0.08374576 0.08370494 0.08359513
 0.08338477 0.08315317 0.08306456 0.08324491 0.08366987 0.08417559 0.08458997 0.08483712 0.08493306 0.08495438
 0.08501626 0.08518574 0.08538736 0.08547303 0.08540999 0.08532923 0.08536433 0.08549625 0.08558762 0.08554697
 0.0854362 0.08540776 0.0855438 0.08578207 0.08600614 0.08617513 0.08634134 0.08655359 0.08676337 0.08684565
 0.08673255 0.08650984 0.08633655 0.08628006 0.08629061 0.08633083 0.08644356 0.08665814 0.08689826 0.08704425
 0.08706687 0.08705163 0.08708543 0.08715104 0.08715373 0.08703528 0.08683825 0.08666489 0.08659512 0.08663943
 0.08674297 0.08682433 0.08682632 0.08674736 0.08662952 0.08651668 0.08642752 0.08637399 0.08639518 0.08653955
 0.08678863 0.08701527 0.08706121 0.08687986 0.08659264 0.08638456 0.08633772 0.08636998 0.08633365 0.0861593
 0.08589768 0.08564427 0.08545169 0.08531262 0.08519705 0.08509254 0.08502389 0.08504298 0.08517641 0.08536173
 0.08545883 0.08536366 0.08510996 0.08483358 0.08464601 0.08456639 0.08455221 0.08455417 0.08455329 0.08457506
 0.08465102 0.0847498 0.08478458 0.08471425 0.08459956 0.08454064 0.08459651 0.0847667 0.0849912 0.08515853
 0.08517917 0.08507834 0.08497502 0.08495596 0.08500782 0.08507584 0.08514024 0.08521359 0.08530027 0.08539473
 0.08551022 0.08568013 0.08592089 0.08620179 0.08645725 0.08663215 0.08672579 0.08680127 0.0869454 0.08720201
 0.08753613 0.08786422 0.08812317 0.08831434 0.08848457 0.08866776 0.08885738 0.08904316 0.08925281 0.08952607
 0.08985656 0.09019284 0.09049768 0.09077831 0.09105924 0.09135145 0.09165403 0.09197304 0.092332 0.09275222
 0.09320696 0.09360762 0.09386918 0.09399612 0.09408888 0.09426692 0.0945849 0.09499083 0.09534886 0.09554416
 0.09560174 0.09567182 0.09586667 0.0961467 0.09640707 0.0966377 0.0969332 0.09735124 0.09782004 0.09820703
 0.09845062 0.09860449 0.09876348 0.098961 0.09914522 0.0992559 0.09930849 0.09937736 0.09950514 0.09967417
 0.09987795 0.1001645 0.1005655 0.1010198 0.1014163 0.1016978 0.1018849 0.1020225 0.1021373 0.1022326
 0.1022957 0.102322 0.102345 0.102412 0.1025186 0.1026035 0.102632 0.1026459 0.1027113 0.102852
 0.1030617 0.1033383 0.103664 0.103983 0.1042531 0.1045134 0.1048438 0.1052405 0.1055845 0.1057667
 0.1058044 0.1057963 0.1058008 0.1058187 0.1058707 0.106015 0.1062772 0.1066138 0.1069648 0.1073078
 0.1076486 0.1079833 0.1082827 0.1085037 0.1086153 0.1086257 0.1085911 0.108595 0.1087089 0.1089538
 0.1092864 0.1096269 0.1099108 0.1101095 0.1102074 0.1101964 0.1101188 0.1100814 0.1101732 0.1103653
 0.1105228 0.1105187 0.110315 0.1099394 0.1094248 0.1087986 0.1081114 0.1074468 0.1068905 0.1064926
 0.1062681 0.1062341 0.1064298 0.1068744 0.1075097 0.1082117 0.1088643 0.1093915 0.1097162 0.1097426
 0.1094237 0.1088245 0.1080869 0.1073404 0.1066563 0.1060473 0.1054795 0.104914 0.1043861 0.1040419
 0.1040735 0.1046093 0.1056486 0.1070614 0.1086258 0.1101039 0.111339 0.1123128 0.1131102 0.1138251
 0.1145032 0.1151616 0.1158245 0.1165022 0.117154 0.1177181 0.1181827 0.1185954 0.1189983 0.1193849
 0.119723 0.1199923 0.1202026 0.1203913 0.1205928 0.1207893 0.1209134 0.1209188 0.1208313 0.1207117
 0.1205845 0.1204188 0.1201636 0.1197933 0.1193444 0.118936 0.1187509 0.118964 0.1196446 0.1207091
 0.1219805 0.1233031 0.1245872 0.1257552 0.1267073 0.1273806 0.127814 0.1281168 0.1283847 0.128664
 0.1289698 0.1293 0.1296343 0.1299452 0.130222 0.1304843 0.13077 0.1310996 0.1314467 0.1317554
 0.1319989 0.132216 0.1324798 0.1328277 0.1332252 0.1336014 0.1339238 0.1342268 0.134552 0.1348786
 0.1351445 0.1353303 0.1354874 0.1356849 0.1359584 0.1363046 0.1366834 0.1370247 0.1372725 0.1374345
 0.1375726 0.1377423 0.1379575 0.1382064 0.138474 0.1387459 0.1390117 0.1392776 0.1395651 0.1398818
 0.1401927 0.1404383 0.1405936 0.1407003 0.1408303 0.1410224 0.141258 0.1414922 0.1417035 0.141916
 0.1421721 0.1424796 0.1427898 0.1430393 0.1432075 0.1433287 0.1434555 0.14362 0.1438238 0.1440496
 0.1442761 0.1444889 0.1446858 0.1448764 0.1450741 0.1452831 0.1454955 0.1457015 0.1459009 0.1461022
 0.1463126 0.1465304 0.1467521 0.1469856 0.1472499 0.1475498 0.1478531 0.1481083 0.1482887 0.1484119
 0.148519 0.148644 0.148801 0.1489852 0.1491818 0.149379 0.1495743 0.1497718 0.1499747 0.1501814
 0.1503886 0.1505952 0.1508026 0.1510119 0.1512251 0.1514479 0.1516837 0.1519204 0.1521355 0.1523187
 0.152485 0.1526622 0.1528685 0.1530978 0.1533248 0.1535281 0.1537093 0.1538863 0.1540701 0.1542575
 0.154443 0.1546259 0.1548068 0.1549868 0.1551715 0.1553686 0.1555807 0.1558014 0.1560201 0.1562302
 0.1564316 0.1566254 0.1568115 0.1569943 0.1571836 0.1573847 0.1575922 0.1577988 0.1580037 0.1582086
 0.1584101 0.1586018 0.1587825 0.1589587 0.1591402 0.1593327 0.1595362 0.1597479 0.1599637 0.1601772
 0.160383 0.1605813 0.1607758 0.1609685 0.1611629 0.1613672 0.1615863 0.1618156 0.1620453 0.1622673
 0.1624768 0.1626748 0.1628702 0.1630746 0.1632948 0.163529 0.1637677 0.1639988 0.1642142 0.1644123
 0.1645944 0.1647646 0.1649315 0.1651026 0.165277 0.1654494 0.1656172 0.165783 0.1659539 0.1661384
 0.1663387 0.1665484 0.1667596 0.166968 0.1671719 0.1673721 0.167573 0.167777 0.1679815 0.1681864
 0.1683954 0.1686071 0.1688151 0.1690179 0.1692206 0.1694263 0.1696325 0.1698353 0.1700343 0.1702375
 0.1704558 0.1706886 0.1709213 0.1711424 0.1713524 0.1715569 0.1717605 0.1719671 0.1721756 0.1723808
 0.1725838 0.1727894 0.1729977 0.1732077 0.173422 0.1736385 0.1738482 0.1740501 0.1742526 0.1744597
 0.1746702 0.1748868 0.1751091 0.175329 0.1755407 0.1757445 0.1759421 0.1761421 0.1763579 0.1765884
 0.1768155 0.1770293 0.1772315 0.1774119 0.1775266 0.1774581 0.1769192 0.1753465 0.1718866 0.1655727
 0.1557237 0.1423852 0.1264614 0.1093838 0.09258603 0.07714058 0.06367114 0.0524478 0.04352503 0.03682261
 0.03217874 0.0294497 0.02861841 0.02990109 0.03385462 0.0410455 0.05082677 0.06025877 0.06525281 0.06379622
 0.05787513 0.05166587 0.04806481 0.04728106 0.04807217 0.04936689 0.05081931 0.05262462 0.05512591 0.05842589
 0.0623671 0.06694569 0.07251294 0.07932957 0.08703295 0.09478937 0.102013 0.1088296 0.1157975 0.1232424
 0.1309145 0.1382338 0.1447578 0.1504072 0.1553683 0.1598816 0.1641072 0.1681166 0.1719438 0.1755816
 0.1789001 0.1816143 0.1834207 0.1842277 0.184266 0.1839614 0.1836818 0.1835918 0.1837001 0.1839756
 0.1843982 0.184952 0.1856196 0.1863792 0.1871971 0.1880345 0.1888642 0.1896713 0.1904457 0.19118
 0.1918675 0.1924969 0.1930621 0.1935734 0.1940483 0.1944954 0.1949164 0.1953121 0.1956822 0.1960275
 0.1963552 0.196673 0.1969774 0.1972574 0.1975061 0.1977257 0.1979257 0.1981215 0.1983266 0.1985428
 0.1987614 0.1989739 0.1991816 0.1993929 0.199612 0.1998293 0.2000301 0.200213 0.2003919 0.2005806
 0.2007812 0.2009881 0.2011949 0.2013972 0.2015946 0.2017894 0.2019803 0.2021644 0.2023456 0.2025336
 0.2027319 0.2029332 0.2031255 0.2033027 0.2034729 0.2036573 0.2038704 0.2041033 0.2043366 0.2045648
 0.2047916 0.2050133 0.2052252 0.2054336 0.2056424 0.2058372 0.2060014 0.206145 0.2063027 0.2065003
 0.20673 0.2069598 0.2071679 0.2073614 0.2075612 0.207774 0.2079854 0.2081748 0.2083384 0.2085045
 0.2087131 0.2089711 0.2092449 0.209504 0.2097466 0.2099786 0.2101984 0.2104112 0.2106232 0.2108152
 0.2109591 0.2110726 0.2112307 0.2115033 0.2118816 0.2122767 0.2126001 0.2128382 0.2130393 0.213253
 0.2135032 0.2137709 0.2139684 0.2139977 0.2139024 0.213898 0.2141738 0.2147007 0.2152878 0.2157807
 0.216155 0.2164616 0.2167383 0.2169698 0.2171029 0.2171067 0.217043 0.2170736 0.217349 0.2178564
 0.2184186 0.2188703 0.2191839 0.2194088 0.2195864 0.2197455 0.2198563 0.2197655 0.2193551 0.2188372
 0.218707 0.2192616 0.2202632 0.221193 0.2217684 0.2220923 0.2223663 0.2226439 0.2228767 0.2229604
 0.2226373 0.2216466 0.2202353 0.2192903 0.2196053 0.2210828 0.22289 0.2242889 0.2250969 0.2255011
 0.2257419 0.2259563 0.2260706 0.2258029 0.2249765 0.2239333 0.2234471 0.2240096 0.2252861 0.2264812
 0.2271507 0.2274359 0.2276478 0.2279164 0.2280982 0.2277207 0.2262505 0.2238837 0.2219437 0.2219451
 0.2241107 0.2271046 0.2293564 0.230408 0.2307901 0.230868 0.2303059 0.2286774 0.2261176 0.2232631
 0.2210384 0.2205217 0.2222357 0.225261 0.2277576 0.2287794 0.2290747 0.2298615 0.231375 0.232882
 0.2336268 0.233414 0.2324764 0.2310576 0.2292956 0.2276141 0.2269552 0.2281103 0.2307615 0.2335971
 0.2355238 0.236492 0.236929 0.2364687 0.233695 0.2278446 0.2209403 0.2172365 0.2194693 0.2259969
 0.2325624 0.2364801 0.2381147 0.2388855 0.2393551 0.2390735 0.2368495 0.2314079 0.223406 0.2166975
 0.2157228 0.2211154 0.2289869 0.2345577 0.2354007 0.2316875 0.225344 0.2194925 0.2171732 0.2194972
 0.2251566 0.2317151 0.2370744 0.2400585 0.2403979 0.2386108 0.2359759 0.2342293 0.234297 0.2349182
 0.2336075 0.2297888 0.2257473 0.223286 0.2209604 0.2167702 0.2125446 0.2127417 0.2186433 0.226198
 0.2305656 0.2310258 0.2301176 0.229029 0.2255825 0.2173752 0.2063178 0.1987495 0.1998992 0.2084576
 0.2177432 0.2222462 0.2220105 0.2206936 0.2206819 0.2206485 0.2174196 0.2101165 0.2022935 0.1989671
 0.2012905 0.2055266 0.2074844 0.2058695 0.200846 0.1926928 0.1841851 0.1814818 0.1889596 0.2038802
 0.2185085 0.2264671 0.2251062 0.2141831 0.1967705 0.1810941 0.1765349 0.1852441 0.1995284 0.2089121
 0.2084606 0.1997024 0.1861486 0.1708604 0.1578537 0.1526086 0.1588155 0.1746034 0.1925009 0.2031508
 0.2005126 0.1865783 0.1718037 0.1676109 0.1759917 0.1880893 0.1940823 0.1920835 0.1868328 0.1836078
 0.1851642 0.1911529 0.1984961 0.2043097 0.2082149 0.2090951 0.2020147 0.1841536 0.1626619 0.1499331
 0.1507388 0.1598298 0.1718455 0.1861078 0.2001 0.2061873 0.2002207 0.1893744 0.1860105 0.1945591
 0.2077383 0.2154534 0.2147785 0.2104831 0.2076966 0.2064703 0.2042924 0.2019478 0.2037508 0.2115687
 0.2215388 0.2283777 0.2308849 0.2314596 0.2320445 0.2326471 0.2327121 0.2320233 0.2306426 0.2290531
 0.2280093 0.2277018 0.2275815 0.2271878 0.2261531 0.2229737 0.215331 0.2033465 0.1916455 0.1856934
 0.1860076 0.1885462 0.1907234 0.1929194 0.1928773 0.1841171 0.1644901 0.1432085 0.134137 0.1423937
 0.1605439 0.1770859 0.1852596 0.1836353 0.1727017 0.1550826 0.1382538 0.1321658 0.1411191 0.1596425
 0.1783436 0.1919889 0.200033 0.2021114 0.1971029 0.1863668 0.1749873 0.1688394 0.1710331 0.1805815
 0.192713 0.2000549 0.1962532 0.1823247 0.1694251 0.170577 0.1869818 0.2059721 0.2152466 0.215312
 0.2144033 0.2156947 0.2157705 0.2136651 0.2144417 0.2222773 0.2343294 0.2435393 0.2448339 0.2371295
 0.2226513 0.2074087 0.1996273 0.2031239 0.2128949 0.2204896 0.2221466 0.2183074 0.2086489 0.194145
 0.1823024 0.1826566 0.1957355 0.2118134 0.2219549 0.2261553 0.2292916 0.2327219 0.23263 0.2258031
 0.2149918 0.2072143 0.206824 0.2117177 0.2169283 0.2198626 0.2203382 0.2176305 0.210923 0.2026842
 0.1986936 0.2030286 0.2138264 0.2249861 0.2315918 0.2329924 0.2314098 0.2290529 0.2266121 0.2234117
 0.2188965 0.2145627 0.2136634 0.2177328 0.2241619 0.2288945 0.2310748 0.2333198 0.2375934 0.242491
 0.2449441 0.2435682 0.2399827 0.2374027 0.2380616 0.241441 0.2446596 0.2449293 0.2422026 0.2394636
 0.2399795 0.244185 0.2496275 0.2537571 0.2560017 0.2572337 0.2582738 0.2591721 0.2591622 0.2572352
 0.2535689 0.2503639 0.2502822 0.2538092 0.2588012 0.2627133 0.2646536 0.2652228 0.2651126 0.2643798
 0.2628739 0.2609068 0.2592573 0.2585605 0.2588565 0.2597478 0.2608072 0.2617614 0.2624761 0.2629459
 0.2632547 0.2634708 0.2636127 0.2637118 0.2638051 0.2638507 0.2637656 0.2635952 0.2635412 0.2637419
 0.2640972 0.2643796 0.2644452 0.2642453 0.2637054 0.2627472 0.2614313 0.2599431 0.2583897 0.2567255
 0.2549911 0.2535821 0.2531377 0.2540555 0.2561122 0.2585919 0.260782 0.2623422 0.2632918 0.2637974
 0.2640273 0.2641138 0.2641351 0.2641006 0.2639813 0.2637638 0.2634692 0.2631263 0.2627473 0.2623444
 0.2619534 0.2616168 0.2613373 0.2610663 0.2607418 0.2603314 0.2598444 0.2593165 0.2587791 0.2582248
 0.2576027 0.2568593 0.2559866 0.255032 0.2540737 0.2531824 0.2523817 0.251634 0.2508754 0.250062
 0.2491681 0.248159 0.2470186 0.2458191 0.2447149 0.2438248 0.2431324 0.2425183 0.2418689 0.2411308
 0.2402938 0.2393686 0.2383795 0.2373469 0.2362692 0.2351316 0.2339239 0.232639 0.2312703 0.2298209
 0.2283049 0.2267365 0.2251286 0.2234948 0.221826 0.2200581 0.2180762 0.215753 0.2129792 0.2096702
 0.2057847 0.2013647 0.196561 0.1915972 0.1866918 0.1820063 0.1776556 0.1737397 0.1703512 0.1675661
 0.1654406 0.1640132 0.163303 0.1633122 0.1640255 0.1654036 0.1673732 0.1698238 0.1726111 0.1755703
 0.1785364 0.1813645 0.1839611 0.1863219 0.1885218 0.1906278 0.1926232 0.1944389 0.1960392 0.1974416
 0.1986653 0.1997067 0.2005686 0.2012817 0.2018864 0.2024051 0.2028423 0.2032056 0.2035138 0.2037817
 0.2040089 0.2041928 0.2043472 0.2044986 0.2046738 0.2048913 0.2051601 0.2054845 0.2058747 0.206342
 0.2068763 0.2074428 0.2080111 0.2085805 0.2091707 0.209803 0.2104992 0.2112918 0.2122226 0.2133209
 0.2145798 0.2159527 0.2173682 0.2187406 0.2199752 0.2209886 0.2217362 0.222223 0.2224888 0.2225831
 0.2225401 0.2223706 0.2220834 0.2217062 0.2212712 0.2207848 0.2202317 0.219605 0.2189187 0.2181922
 0.2174414 0.2166881 0.2159642 0.2152912 0.2146576 0.2140324 0.2134044 0.2127902 0.2121998 0.2116163
 0.2110212 0.2104212 0.2098359 0.209273 0.2087226 0.2081606 0.2075497 0.2068476 0.2060271 0.2050868
 0.2040424 0.2029112 0.2017035 0.2004246 0.1990756 0.1976508 0.1961401 0.1945421 0.1928697 0.1911333
 0.1893183 0.1873951 0.1853666 0.1833015 0.1813079 0.1794691 0.1778024 0.1762642 0.1747908 0.1733493
 0.1719601 0.1706631 0.1694633 0.1683283 0.1672332 0.1661833 0.1651872 0.1642371 0.1633264 0.1624748
 0.1617198 0.1610836 0.1605535 0.1600991 0.1596999 0.1593528 0.1590662 0.1588613 0.1587642 0.1587742
 0.1588449 0.1589064 0.1589054 0.1588284 0.1587028 0.1585739 0.1584717 0.1583996 0.1583456 0.1582786
 0.1581332 0.1578169 0.1572395 0.1563408 0.1551121 0.1535981 0.1518742 0.1500342 0.1482024 0.146516
 0.145071 0.1439019 0.1430046 0.1423382 0.1418223 0.1413878 0.1410386 0.1408414 0.1408578 0.1410718
 0.1413581 0.1415495 0.1415861 0.1415821 0.1417239 0.1421247 0.1427696 0.1435441 0.1443059 0.1449644
 0.1454943 0.145885 0.1461293 0.1462551 0.1463028 0.1462759 0.1461586 0.1459586 0.1456979 0.1453933
 0.1450564 0.144677 0.1442209 0.1436718 0.1430412 0.1423251 0.1415087 0.1406029 0.1396062 0.1384776
 0.1372397 0.1360808 0.1352848 0.1350673 0.1354603 0.136295 0.1373203 0.138381 0.1394034 0.1402065
 0.140548 0.1405081 0.1406768 0.1417288 0.1437809 0.146257 0.1484005 0.1498233 0.1505387 0.1506544
 0.1502286 0.1493094 0.1478963 0.1459191 0.14339 0.1404751 0.1373484 0.1341441 0.1310614 0.1283192
 0.126019 0.1241688 0.1227492 0.1217818 0.1213934 0.1212168 0.1193403 0.113309 0.1039344 0.09696802
 0.09823413 0.1070646 0.1167893 0.1217743 0.1218862 0.1201454 0.1186355 0.1176716 0.1171442 0.1171938
 0.1179402 0.1192227 0.1206454 0.1218185 0.1225908 0.1230038 0.1230097 0.1222388 0.1199413 0.1152495
 0.1078734 0.09869419 0.08945961 0.08176843 0.07636024 0.0731381 0.07150652 0.0707074 0.070191 0.06989376
 0.07014181 0.07124819 0.07323553 0.07592358 0.07912007 0.08258589 0.08592004 0.0887177 0.09087673 0.09259078
 0.09401624 0.09508265 0.09564479 0.09568267 0.095305 0.09465544 0.09387375 0.09307031 0.09224357 0.09126207
 0.09005361 0.08881377 0.08789249 0.08744814 0.08733585 0.087337 0.08735032 0.08735111 0.0873191 0.08725299
 0.0871853 0.0871818 0.08734149 0.08772642 0.08825926 0.08875042 0.08904898 0.08914577 0.0891384 0.08908057
 0.08884746 0.08825406 0.08738199 0.08660358 0.08610111 0.0855507 0.08454993 0.08324044 0.08222979 0.0819325
 0.08219936 0.08257101 0.08269826 0.08250941 0.08218396 0.08206672 0.082433 0.08316001 0.08372693 0.08370685
</values></Ydata></ScRf><Data_Parameters_AB><parameter name="DPF">1</parameter><parameter name="NPT">3497</parameter><parameter name="FXV">3996</parameter><parameter name="LXV">500</parameter><parameter name="CSF">1</parameter><parameter name="MXY">0.164519339799881</parameter><parameter name="MNY">-0.0324259400367737</parameter><parameter name="DAT">01/06/2022</parameter><parameter name="TIM">11:22:04.655 (GMT+2)</parameter><parameter name="DXU">WN</parameter></Data_Parameters_AB><AB__Qtest><MainReport name="Quality Test Report"><Header><Line><Legend>Test result ok/not ok [1/0]: </Legend><Value>0</Value></Line><Line><Legend>Method file: </Legend><Value>C:\Users\Public\Documents\Bruker\OPUS_8.2.28\QT\IRBT_v3_default.QT</Value></Line></Header><Matrix><Line><Legend></Legend><Legend>min</Legend><Legend>max</Legend><Legend>measured</Legend></Line><Line><Value>Absorption (X-Range 1):</Value><Value>0.400000</Value><Value>2.000000</Value><Value>0.158588</Value></Line><Line><Value>Noise (X-Range 4):</Value><Value></Value><Value>0.000300</Value><Value>0.000062</Value></Line><Line><Value>Signal/Noise (X-Range 2):</Value><Value>200.000000</Value><Value></Value><Value>62.333798</Value></Line><Line><Value>Signal/Noise (X-Range 3):</Value><Value>40.000000</Value><Value></Value><Value>27.890848</Value></Line><Line><Value>Water vapour (X-Range 5):</Value><Value></Value><Value>0.000300</Value><Value>0.000080</Value></Line><Line><Value>Signal/Water (X-Range 2):</Value><Value>100.000000</Value><Value></Value><Value>48.610298</Value></Line><Line><Value>Signal/Water (X-Range 3):</Value><Value>20.000000</Value><Value></Value><Value>21.750358</Value></Line><Line><Value>Fringes (X-Range 6):</Value><Value></Value><Value>0.000100</Value><Value>0.000073</Value></Line></Matrix></MainReport></AB__Qtest><Data_Parameters_ScSm><parameter name="DPF">1</parameter><parameter name="NPT">1814</parameter><parameter name="FXV">3996.33169228125</parameter><parameter name="LXV">499.541461535156</parameter><parameter name="CSF">1</parameter><parameter name="MXY">0.252096176147461</parameter><parameter name="MNY">0.03083760663867</parameter><parameter name="DAT">01/06/2022</parameter><parameter name="TIM">11:22:04.655 (GMT+2)</parameter><parameter name="DXU">WN</parameter></Data_Parameters_ScSm><Data_Parameters_ScRf><parameter name="DPF">1</parameter><parameter name="NPT">1820</parameter><parameter name="FXV">4004.04661832813</parameter><parameter name="LXV">495.683998511719</parameter><parameter name="CSF">1</parameter><parameter name="MXY">0.265222787857056</parameter><parameter name="MNY">0.0286184139549732</parameter><parameter name="DAT">01/06/2022</parameter><parameter name="TIM">11:21:38.802 (GMT+2)</parameter><parameter name="DXU">WN</parameter></Data_Parameters_ScRf><Optic_Parameters_Rf><parameter name="APR">0</parameter><parameter name="APT">Open</parameter><parameter name="BMS">KBr</parameter><parameter name="DTC">RT-DLaTGS_IR-Biotyper [Microplate reader]</parameter><parameter name="HPF">0</parameter><parameter name="LPF">10.0</parameter><parameter name="LPV">4000</parameter><parameter name="PGR">0</parameter><parameter name="RCH">Module port</parameter><parameter name="RDX">0</parameter><parameter name="SRC">MIR</parameter><parameter name="VEL">10.0</parameter><parameter name="SON">Off</parameter></Optic_Parameters_Rf><Acquisition_Parameters_Rf><parameter name="ADT">1</parameter><parameter name="AQM">DD</parameter><parameter name="CFE">0</parameter><parameter name="COR">0</parameter><parameter name="DEL">0</parameter><parameter name="DLY">0</parameter><parameter name="HFW">8000</parameter><parameter name="LFW">0</parameter><parameter name="NSR">32</parameter><parameter name="PLF">AB</parameter><parameter name="RES">6</parameter><parameter name="RGN">-1</parameter><parameter name="STR">0</parameter><parameter name="TCL">MakeCompatibleScalar (0, {WSV=1.000000, ARV=0});</parameter><parameter name="TDL">37</parameter><parameter name="RPO">0</parameter></Acquisition_Parameters_Rf><FT_-_Parameters_Rf><parameter name="APF">B3</parameter><parameter name="HFQ">500</parameter><parameter name="LFQ">4000</parameter><parameter name="NLI">0</parameter><parameter name="PHR">24</parameter><parameter name="PHZ">ML</parameter><parameter name="SPZ">NO</parameter><parameter name="ZFF">1</parameter></FT_-_Parameters_Rf><Optic_Parameters_><parameter name="APR">0</parameter><parameter name="APT">Open</parameter><parameter name="BMS">KBr</parameter><parameter name="CHN">Module port</parameter><parameter name="DTC">RT-DLaTGS_IR-Biotyper [Microplate reader]</parameter><parameter name="HPF">0</parameter><parameter name="LPF">10.0</parameter><parameter name="LPV">4000</parameter><parameter name="PGN">0</parameter><parameter name="RDX">0</parameter><parameter name="SRC">MIR</parameter><parameter name="VEL">10.0</parameter><parameter name="SON">Off</parameter></Optic_Parameters_><FT_-_Parameters_><parameter name="APF">B3</parameter><parameter name="HFQ">500</parameter><parameter name="LFQ">4000</parameter><parameter name="NLI">0</parameter><parameter name="PHR">24</parameter><parameter name="PHZ">ML</parameter><parameter name="SPZ">NO</parameter><parameter name="ZFF">1</parameter></FT_-_Parameters_><Acquisition_Parameters_><parameter name="ADT">1</parameter><parameter name="AQM">DD</parameter><parameter name="CFE">0</parameter><parameter name="COR">0</parameter><parameter name="DEL">0</parameter><parameter name="DLY">0</parameter><parameter name="HFW">8000</parameter><parameter name="LFW">0</parameter><parameter name="NSS">32</parameter><parameter name="PLF">AB</parameter><parameter name="RES">6</parameter><parameter name="SOT">0</parameter><parameter name="TCL">MakeCompatibleScalar (0, {WSV=1.000000, ARV=0});</parameter><parameter name="TDL">37</parameter><parameter name="SPO">0</parameter><parameter name="SGN">-1</parameter></Acquisition_Parameters_><Instrument_Parameters_Rf><parameter name="HFL">15800.168544</parameter><parameter name="LFL">0</parameter><parameter name="LWN">15800.168544</parameter><parameter name="ABP">32197</parameter><parameter name="SSP">1</parameter><parameter name="ARG">2</parameter><parameter name="ASG">2</parameter><parameter name="ASS">32</parameter><parameter name="GFW">16</parameter><parameter name="GBW">16</parameter><parameter name="BFW">0</parameter><parameter name="BBW">0</parameter><parameter name="PKA">7308</parameter><parameter name="PKL">4996</parameter><parameter name="PRA">7480</parameter><parameter name="PRL">5001</parameter><parameter name="P2A">1</parameter><parameter name="P2L">1</parameter><parameter name="P2R">1</parameter><parameter name="P2K">1</parameter><parameter name="DAQ">0</parameter><parameter name="AG2">1</parameter><parameter name="SSM">1</parameter><parameter name="RSN">25885</parameter><parameter name="CRR">0</parameter><parameter name="SRT">1654082498.802</parameter><parameter name="DUR">19.6389923095703</parameter><parameter name="TSC">29</parameter><parameter name="MVD">0.23381145298481</parameter><parameter name="AN1">0.225813110999539</parameter><parameter name="AN2">0</parameter><parameter name="VSN">2.485 Apr  4 2017</parameter><parameter name="SRN">0085</parameter><parameter name="CAM">0</parameter><parameter name="INS">IR-Biotyper</parameter><parameter name="FOC">69</parameter><parameter name="RDY">1</parameter><parameter name="ARS">32</parameter></Instrument_Parameters_Rf><Sample_Parameters_><parameter name="BLD"></parameter><parameter name="CNM">Admin</parameter><parameter name="CPY"></parameter><parameter name="DPM"></parameter><parameter name="EXP">IRBT_v3_32Scans.XPM</parameter><parameter name="LCT"></parameter><parameter name="SFM">Microplate, HTS-XT</parameter><parameter name="SNM">220601-1028(v.3)_RTF49M (D_5)_A4_9d1efb7e-b04e-4ca9-9619-61322a0bdc6d.0</parameter><parameter name="XPP">C:\Users\Public\Documents\Bruker\OPUS_8.2.28\XPM</parameter><parameter name="IST">OK</parameter><parameter name="CPG">1252</parameter><parameter name="UID">70c151bd-84bd-47b9-81cb-0d2f0026eb14</parameter></Sample_Parameters_><Instrument_Parameters_><parameter name="HFL">15800.168544</parameter><parameter name="LFL">0</parameter><parameter name="LWN">15800.168544</parameter><parameter name="ABP">32197</parameter><parameter name="SSP">1</parameter><parameter name="ASG">2</parameter><parameter name="ARG">2</parameter><parameter name="ASS">32</parameter><parameter name="GFW">16</parameter><parameter name="GBW">16</parameter><parameter name="BFW">0</parameter><parameter name="BBW">0</parameter><parameter name="PKA">6877</parameter><parameter name="PKL">4988</parameter><parameter name="PRA">7134</parameter><parameter name="PRL">4993</parameter><parameter name="P2A">1</parameter><parameter name="P2L">1</parameter><parameter name="P2R">1</parameter><parameter name="P2K">1</parameter><parameter name="DAQ">0</parameter><parameter name="AG2">1</parameter><parameter name="SSM">1</parameter><parameter name="RSN">13568</parameter><parameter name="CRR">0</parameter><parameter name="SRT">1654082524.656</parameter><parameter name="DUR">19.6389923095703</parameter><parameter name="TSC">29</parameter><parameter name="MVD">0.267259865999222</parameter><parameter name="AN1">0.225768042726008</parameter><parameter name="AN2">0</parameter><parameter name="VSN">2.485 Apr  4 2017</parameter><parameter name="SRN">0085</parameter><parameter name="CAM">0</parameter><parameter name="INS">IR-Biotyper</parameter><parameter name="FOC">69</parameter><parameter name="RDY">1</parameter></Instrument_Parameters_><History/></OPUSDataFile>
