<?xml version="1.0" encoding="UTF-8" ?>
<OPUSDataFile><AB><Ydata ylabel="Absorbance Units"><values byteorder="INTEL" format="FLOAT32" numvalues="3497"> -0.06783109 -0.06786282 -0.06788389 -0.06789503 -0.06788418 -0.06785078 -0.06779959 -0.06773196 -0.06766629 -0.06760378
 -0.067562 -0.0675386 -0.06753595 -0.06754842 -0.06756338 -0.0675788 -0.06758379 -0.06758423 -0.06758173 -0.06758405
 -0.06759931 -0.06762663 -0.06766954 -0.0677187 -0.06777184 -0.06782065 -0.06786237 -0.06789417 -0.06791509 -0.06792501
 -0.06792372 -0.06791281 -0.06789235 -0.06786846 -0.06784166 -0.06782074 -0.06780549 -0.06779991 -0.06780181 -0.06780605
 -0.06780974 -0.06780252 -0.06778562 -0.06775399 -0.06771662 -0.06768014 -0.0676564 -0.06765901 -0.06768735 -0.06774978
 -0.06782376 -0.06790619 -0.06796513 -0.06799063 -0.06797092 -0.0678991 -0.06779961 -0.06767259 -0.06756077 -0.06746655
 -0.06741859 -0.06741602 -0.06745511 -0.06753089 -0.06761199 -0.0676949 -0.06774836 -0.06777676 -0.06777256 -0.06774747
 -0.0677167 -0.06769055 -0.06768972 -0.06770989 -0.06775947 -0.06781519 -0.06786811 -0.06789607 -0.06788456 -0.06784073
 -0.0677588 -0.06767539 -0.06759442 -0.0675513 -0.06755055 -0.06760569 -0.06771775 -0.06787539 -0.06807596 -0.06828287
 -0.06849028 -0.0686427 -0.0687391 -0.06873965 -0.06866169 -0.06852381 -0.06834959 -0.06819028 -0.06804934 -0.06795449
 -0.06789053 -0.06785566 -0.06783181 -0.06780681 -0.06777622 -0.06773203 -0.06769057 -0.06765341 -0.06763996 -0.06765587
 -0.06769619 -0.06776276 -0.06782469 -0.0678803 -0.06790619 -0.06790379 -0.06788884 -0.06786569 -0.06787127 -0.0679037
 -0.06797921 -0.06808577 -0.06820376 -0.06832001 -0.06839978 -0.06844679 -0.06844813 -0.06842182 -0.06838 -0.06832997
 -0.06827929 -0.06822937 -0.06817781 -0.06814518 -0.06813411 -0.06817196 -0.06826683 -0.06841348 -0.068617 -0.0688071
 -0.06898044 -0.06901336 -0.06890709 -0.06865278 -0.06827396 -0.06792601 -0.06761064 -0.06741897 -0.06733131 -0.06734422
 -0.0674409 -0.0675954 -0.06778664 -0.06798455 -0.0681613 -0.06828281 -0.06833904 -0.06830584 -0.06821817 -0.06807929
 -0.06793843 -0.06781198 -0.0677136 -0.06764973 -0.06761063 -0.06759541 -0.06760362 -0.06763516 -0.06769528 -0.06778298
 -0.06788512 -0.06799773 -0.06808782 -0.06815374 -0.06816941 -0.06814062 -0.06806754 -0.06795862 -0.06782719 -0.06768215
 -0.06753631 -0.06740397 -0.06730015 -0.06723646 -0.06722597 -0.06726482 -0.06735846 -0.06748404 -0.0676396 -0.06779213
 -0.06793637 -0.06804582 -0.06811671 -0.06813842 -0.06810995 -0.06803814 -0.06792423 -0.06778868 -0.06763299 -0.067477
 -0.06732117 -0.06717686 -0.06704576 -0.06693733 -0.06685379 -0.0668047 -0.06678694 -0.06680349 -0.06684201 -0.06689566
 -0.06694743 -0.06698614 -0.0670001 -0.06698028 -0.06692929 -0.06684266 -0.06674307 -0.06663147 -0.06654185 -0.06647826
 -0.06645975 -0.06648806 -0.06655473 -0.06665814 -0.06677027 -0.0668887 -0.06698231 -0.06705257 -0.06708685 -0.06709173
 -0.06707788 -0.06704997 -0.06702207 -0.06699344 -0.0669674 -0.0669461 -0.06692857 -0.06692921 -0.06695472 -0.06702011
 -0.06713735 -0.06729531 -0.06749956 -0.06770521 -0.06790689 -0.06806046 -0.06815924 -0.06819255 -0.0681593 -0.06805331
 -0.0678753 -0.06763246 -0.06733322 -0.06704032 -0.06676085 -0.06656154 -0.06643183 -0.06638291 -0.06639101 -0.0664195
 -0.06645011 -0.06643794 -0.06639806 -0.06632449 -0.06624553 -0.06618042 -0.06613208 -0.06610936 -0.06609603 -0.06608988
 -0.06607539 -0.06604844 -0.06600677 -0.0659486 -0.06588675 -0.06582174 -0.06577301 -0.06574132 -0.06574181 -0.0657728
 -0.06583315 -0.06591479 -0.06598597 -0.06603754 -0.06602203 -0.06595334 -0.0658294 -0.06567916 -0.06554517 -0.06542554
 -0.06534017 -0.06525835 -0.06516618 -0.06504478 -0.06487517 -0.06468321 -0.06446728 -0.06427702 -0.06412281 -0.06402639
 -0.06399447 -0.06400204 -0.06404874 -0.06407528 -0.06407919 -0.06401121 -0.06387793 -0.06370164 -0.06349416 -0.06331903
 -0.06317454 -0.0630891 -0.06305435 -0.06306902 -0.06312339 -0.06321024 -0.06330594 -0.06339243 -0.0634373 -0.0634111
 -0.06331371 -0.06313191 -0.06289938 -0.06262524 -0.0623217 -0.06199295 -0.06163886 -0.06125776 -0.06087379 -0.06048828
 -0.06012618 -0.05978796 -0.05947892 -0.05919901 -0.0589501 -0.05873356 -0.05855737 -0.05842006 -0.05832369 -0.05826153
 -0.05822406 -0.05820107 -0.05818101 -0.05814108 -0.05806202 -0.05791295 -0.05765871 -0.05732254 -0.0568921 -0.05645013
 -0.05602133 -0.05564274 -0.05533079 -0.05506145 -0.054835 -0.05461597 -0.05440168 -0.05417788 -0.05394534 -0.0537243
 -0.05351676 -0.05335242 -0.05322193 -0.05310907 -0.05298794 -0.05277247 -0.0524626 -0.05199653 -0.05144265 -0.05086504
 -0.05031626 -0.04987989 -0.04953513 -0.04929991 -0.04912192 -0.04898552 -0.04884386 -0.04867864 -0.04847277 -0.04821791
 -0.04792419 -0.04759184 -0.04723025 -0.04684031 -0.0464191 -0.04596673 -0.0454848 -0.04497592 -0.0444607 -0.04394243
 -0.04344664 -0.04297353 -0.04253675 -0.04213471 -0.04177242 -0.04144356 -0.04114525 -0.04086254 -0.04058033 -0.04029064
 -0.03998003 -0.03966113 -0.03933785 -0.03901409 -0.03869884 -0.03835586 -0.03798046 -0.03753804 -0.03701822 -0.03646211
 -0.03587045 -0.03532682 -0.03483335 -0.03441795 -0.03407452 -0.03376827 -0.03349301 -0.0332021 -0.03289783 -0.03255952
 -0.03219958 -0.03183141 -0.03146653 -0.03112999 -0.03081505 -0.030531 -0.03024768 -0.02995011 -0.02961181 -0.02921051
 -0.0287629 -0.02826466 -0.0277572 -0.02724878 -0.02676109 -0.02629898 -0.02586062 -0.02544641 -0.02504708 -0.02466216
 -0.02428303 -0.02390932 -0.02353503 -0.0231588 -0.02277189 -0.02237225 -0.02194754 -0.02150165 -0.02103251 -0.02055432
 -0.02008509 -0.01963564 -0.01922696 -0.01884896 -0.01850394 -0.01817221 -0.01784295 -0.01751479 -0.01718223 -0.01686261
 -0.01655985 -0.01627824 -0.01602169 -0.01576059 -0.01549357 -0.01518205 -0.01482518 -0.0144166 -0.01396063 -0.01348998
 -0.01300865 -0.01255357 -0.01212136 -0.0117226 -0.01134934 -0.01099036 -0.0106418 -0.01029169 -0.009944928 -0.009600876
 -0.009267592 -0.008952401 -0.008652311 -0.008372044 -0.008090111 -0.007802319 -0.007486364 -0.007134784 -0.006749536 -0.006327818
 -0.005895825 -0.005455022 -0.005032218 -0.00462821 -0.004250619 -0.003897638 -0.003557438 -0.003228157 -0.002894135 -0.002557114
 -0.00221325 -0.001866904 -0.001525017 -0.001190291 -0.0008692781 -0.0005632181 -0.0002756309 -6.609937E-06 0.0002399858 0.0004746064
 0.0006971198 0.0009316364 0.001186755 0.001472215 0.001795576 0.002132335 0.002480835 0.002815337 0.003132621 0.003446824
 0.003759134 0.004103113 0.004476818 0.004880031 0.00530407 0.005707631 0.006086372 0.006402109 0.006665051 0.006873915
 0.007048526 0.007216389 0.007389564 0.007593581 0.00781983 0.008072828 0.008333434 0.008592782 0.008843092 0.00907851
 0.009304543 0.009521404 0.009733804 0.009942405 0.01014945 0.01035487 0.0105672 0.0107869 0.01102323 0.01127588
 0.01154578 0.01183228 0.01213276 0.01244721 0.01277568 0.01311521 0.01346154 0.01380786 0.01414271 0.01446196
 0.01475634 0.01502809 0.01527548 0.01550296 0.01571187 0.01590647 0.01608741 0.0162618 0.01643055 0.01660265
 0.0167795 0.01696574 0.01716198 0.01736729 0.01758161 0.01780275 0.01803082 0.01826644 0.01850924 0.01875888
 0.01901258 0.01926271 0.01950484 0.01972511 0.01992396 0.0200925 0.02024334 0.02038288 0.02053006 0.02070206
 0.02090181 0.02114099 0.02139302 0.02165429 0.02189247 0.02209697 0.02226789 0.02240102 0.02252868 0.02265332
 0.02279493 0.02295365 0.02310888 0.0232581 0.0233673 0.02343929 0.02346748 0.02346126 0.02344514 0.02342764
 0.02343937 0.0234805 0.02356729 0.02368791 0.023839 0.02400237 0.02416299 0.02431479 0.02444621 0.02457672
 0.024708 0.02486669 0.02506244 0.02528931 0.02555202 0.025802 0.02603622 0.02620705 0.02631303 0.02635811
 0.02634689 0.02632724 0.02629981 0.02629577 0.02630587 0.02631534 0.02632133 0.02630468 0.02628203 0.02626937
 0.02628053 0.02634355 0.02643886 0.02656682 0.0266908 0.0267891 0.02685563 0.02687707 0.02688807 0.0268926
 0.02692563 0.02699505 0.02709941 0.02724079 0.02738307 0.02752429 0.02762234 0.02767732 0.0276717 0.02761176
 0.02751742 0.02739859 0.02729713 0.0272174 0.02719196 0.02721207 0.02728265 0.0273835 0.02749761 0.02760499
 0.02768458 0.02773223 0.02773708 0.02771471 0.02766599 0.02761283 0.02755946 0.0275239 0.02750819 0.02753211
 0.02759712 0.02772424 0.02791421 0.0281665 0.02847653 0.02880022 0.02912867 0.02939138 0.02958746 0.02967065
 0.0296598 0.02956663 0.02942399 0.02928601 0.02917351 0.02913485 0.02915592 0.0292495 0.02937134 0.02950667
 0.02961 0.0296618 0.02964165 0.02953724 0.02936717 0.0291287 0.02887204 0.0286007 0.02836057 0.02815361
 0.0279864 0.02785671 0.02774189 0.0276425 0.02754804 0.02746508 0.02741073 0.02738719 0.02741305 0.02747325
 0.02755926 0.02764054 0.0276836 0.02766327 0.02754568 0.02733787 0.02702649 0.02665514 0.02623193 0.02580616
 0.02539146 0.02501073 0.02467042 0.02436948 0.02410863 0.02388128 0.02368703 0.02351332 0.02335889 0.02320447
 0.02305111 0.02289275 0.02273441 0.02259168 0.0224628 0.02235644 0.0222565 0.02214304 0.02200134 0.02180273
 0.02155755 0.021257 0.02093796 0.02061286 0.0203222 0.02008445 0.01991414 0.01982391 0.01978198 0.01979033
 0.01977998 0.01974541 0.01963061 0.01943306 0.01915854 0.01881212 0.01845242 0.01808359 0.01776046 0.01747792
 0.01724927 0.01706472 0.01690893 0.01677556 0.0166482 0.01652429 0.01639575 0.01625999 0.01611264 0.01595286
 0.01577768 0.01559295 0.01539867 0.01520602 0.01501797 0.01483965 0.01467338 0.01451145 0.01435358 0.01418972
 0.0140194 0.01384527 0.01366826 0.0135008 0.01334247 0.01319825 0.01306493 0.0129341 0.01280376 0.01266408
 0.01251784 0.01236505 0.01220852 0.01205326 0.01189474 0.01173278 0.01155808 0.01136464 0.01115115 0.01091349
 0.01066338 0.01040202 0.01014307 0.009889148 0.009645473 0.009412963 0.009190921 0.008979334 0.008775797 0.008579837
 0.008385177 0.008191267 0.007990752 0.007785469 0.007576865 0.007368952 0.007172071 0.006987528 0.006823557 0.006675237
 0.006541454 0.006414237 0.006286293 0.006155713 0.006016311 0.005881198 0.005751756 0.005647378 0.005576333 0.005531542
 0.005518159 0.005485577 0.005430575 0.005298646 0.005086938 0.004798823 0.004439711 0.004076669 0.003715825 0.003429647
 0.003212307 0.003087078 0.003033979 0.003022034 0.00302751 0.002997228 0.002922999 0.002767813 0.002556313 0.002288942
 0.002009923 0.001744843 0.00151325 0.001334734 0.001183313 0.001057245 0.0009277213 0.0007857416 0.0006486446 0.0005152678
 0.0004331667 0.0004048242 0.0004454664 0.000550972 0.0006744448 0.0008079084 0.0008787765 0.0008884753 0.0007983862 0.0006260631
 0.0003904268 0.0001132275 -0.0001585899 -0.0004225606 -0.0006525057 -0.0008693299 -0.001082203 -0.001303589 -0.001550546 -0.001797817
 -0.002043663 -0.002250371 -0.002403708 -0.002506883 -0.00255367 -0.002590427 -0.002621087 -0.002678785 -0.002765526 -0.002866221
 -0.002978592 -0.003067511 -0.003133894 -0.003164242 -0.003164045 -0.003145358 -0.003112932 -0.003083953 -0.003060154 -0.003051813
 -0.003059148 -0.003085188 -0.003132833 -0.003202875 -0.003305399 -0.00344501 -0.003632321 -0.003876017 -0.004165118 -0.004504683
 -0.004849582 -0.00519586 -0.005490523 -0.005726464 -0.00589085 -0.005982518 -0.006046175 -0.006085726 -0.006166351 -0.006286629
 -0.006475044 -0.006719093 -0.006990777 -0.007275956 -0.007524088 -0.007735788 -0.007884928 -0.007989874 -0.008059661 -0.008115623
 -0.008179108 -0.008257684 -0.008364544 -0.008487873 -0.008629033 -0.008764587 -0.008888634 -0.008986576 -0.009051974 -0.009102276
 -0.009136587 -0.009198742 -0.009291236 -0.009438632 -0.009638585 -0.009863155 -0.01010702 -0.01031988 -0.01050654 -0.01065442
 -0.01077887 -0.01091357 -0.01106246 -0.01125429 -0.0114676 -0.01169115 -0.01189908 -0.01206262 -0.01218143 -0.01224356
 -0.01226955 -0.01226609 -0.0122414 -0.01220153 -0.01213372 -0.01203597 -0.01190311 -0.01173228 -0.01155007 -0.01135768
 -0.01120279 -0.01108734 -0.01104909 -0.01108585 -0.01120544 -0.01140008 -0.01164799 -0.01193752 -0.01223101 -0.01251774
 -0.01276237 -0.01296141 -0.0130948 -0.01317044 -0.01318546 -0.01315666 -0.01309107 -0.01300585 -0.01290878 -0.01281088
 -0.01271656 -0.01263064 -0.01255544 -0.01248707 -0.01242688 -0.01235203 -0.01226148 -0.0121129 -0.01190472 -0.0116038
 -0.01121472 -0.01074704 -0.01021191 -0.009656182 -0.009086994 -0.008547587 -0.00803377 -0.00755896 -0.007113827 -0.0066924
 -0.00628772 -0.005893351 -0.005501319 -0.005107614 -0.004699489 -0.004270872 -0.003815145 -0.003326331 -0.002818774 -0.00229117
 -0.001776608 -0.001277731 -0.0008263025 -0.0004244741 -8.430819E-05 0.0001947496 0.0004205967 0.0005943196 0.0007273016 0.000818481
 0.000868484 0.0008785933 0.0008475842 0.000788808 0.0007202418 0.0006645435 0.0006572684 0.0007084302 0.0008439933 0.001046133
 0.001315241 0.001622288 0.001954223 0.002300421 0.002653064 0.003023031 0.003410802 0.00382781 0.004276136 0.004752947
 0.005258384 0.005775288 0.006302079 0.006811704 0.007302457 0.007748041 0.008151048 0.008504469 0.008818129 0.009112345
 0.009396931 0.009703262 0.01002201 0.01036698 0.01068871 0.01096629 0.01111078 0.01107242 0.01076902 0.0101471
 0.009205438 0.007914679 0.006389952 0.004633529 0.002829272 0.0009944903 -0.0007136523 -0.002283768 -0.003652635 -0.004821857
 -0.005817305 -0.006645943 -0.007366448 -0.007982036 -0.008535304 -0.009027129 -0.009478688 -0.009895491 -0.01029556 -0.01068588
 -0.01108457 -0.01148756 -0.011901 -0.01230809 -0.01270152 -0.01306649 -0.01339409 -0.01368218 -0.01392777 -0.01413565
 -0.01430647 -0.01444245 -0.01454444 -0.01460724 -0.01463068 -0.01460283 -0.01452374 -0.01439121 -0.01421057 -0.01401465
 -0.01381423 -0.01367134 -0.01358878 -0.01361156 -0.01372146 -0.01391214 -0.01415174 -0.01439941 -0.01462996 -0.0148065
 -0.01492221 -0.01496063 -0.0149313 -0.01483255 -0.01468127 -0.01448189 -0.01424509 -0.01397483 -0.01366565 -0.01331668
 -0.01292749 -0.01249671 -0.01208453 -0.01169892 -0.01148665 -0.01145848 -0.01177153 -0.01240942 -0.01340744 -0.0147063
 -0.01617783 -0.01775485 -0.01925115 -0.02064892 -0.02183886 -0.02286453 -0.0237221 -0.02446893 -0.02514216 -0.02576433
 -0.02635702 -0.02691085 -0.02742711 -0.02789598 -0.02831447 -0.02868594 -0.02900981 -0.02929638 -0.02954617 -0.0297719
 -0.02997437 -0.03016756 -0.03035221 -0.0305406 -0.03073224 -0.03093278 -0.03113881 -0.03134539 -0.03154662 -0.03172867
 -0.03188996 -0.03201957 -0.0321281 -0.03221831 -0.03230822 -0.0324106 -0.03253265 -0.03268449 -0.03285013 -0.03303002
 -0.03319518 -0.03334001 -0.03344735 -0.03351274 -0.0335478 -0.03355248 -0.03355927 -0.03356948 -0.03360811 -0.0336733
 -0.03376362 -0.03387541 -0.0339917 -0.03411277 -0.03422967 -0.03434691 -0.0344696 -0.03459912 -0.03474153 -0.03489022
 -0.03504346 -0.03518905 -0.03531991 -0.03542511 -0.0354971 -0.03553565 -0.03553592 -0.03551685 -0.03547861 -0.03545363
 -0.03544573 -0.03547722 -0.03555045 -0.0356576 -0.0357973 -0.03593994 -0.03608415 -0.03620498 -0.03630454 -0.0363778
 -0.03642892 -0.03646647 -0.03649351 -0.0365198 -0.03654631 -0.03657867 -0.03661541 -0.03665829 -0.03670198 -0.03674502
 -0.03677868 -0.03679832 -0.03680094 -0.036782 -0.03675495 -0.03671952 -0.03670084 -0.0367023 -0.03673659 -0.03680544
 -0.03689397 -0.03700086 -0.03709813 -0.03718571 -0.03724935 -0.03729237 -0.03732116 -0.03733907 -0.03735933 -0.03738154
 -0.03741196 -0.03744659 -0.03748313 -0.03751701 -0.03754245 -0.03755932 -0.03756407 -0.03756412 -0.03756049 -0.03756445
 -0.03757949 -0.03761281 -0.03766726 -0.03774035 -0.03783285 -0.03793412 -0.03804361 -0.03814932 -0.03825078 -0.03834067
 -0.03841924 -0.03848489 -0.03853836 -0.03858136 -0.03861566 -0.03864643 -0.03867653 -0.03871431 -0.03876034 -0.03882033
 -0.03888921 -0.03896487 -0.03904136 -0.03911325 -0.0391809 -0.03924276 -0.03930197 -0.03936019 -0.03941448 -0.03946518
 -0.03950508 -0.03953286 -0.03954885 -0.03955269 -0.03955534 -0.03955734 -0.0395693 -0.03959047 -0.03961988 -0.03965558
 -0.03968766 -0.03971644 -0.03973615 -0.0397518 -0.03976984 -0.03979581 -0.0398415 -0.03990503 -0.03999144 -0.04008922
 -0.04019405 -0.04029178 -0.04037472 -0.04043637 -0.04047143 -0.04048673 -0.04048117 -0.04047151 -0.04045941 -0.04045965
 -0.04047369 -0.04050311 -0.04054768 -0.04059888 -0.04065626 -0.04071229 -0.04076747 -0.04082021 -0.04087118 -0.04092138
 -0.04097135 -0.04102254 -0.04107557 -0.04113264 -0.04119188 -0.04125363 -0.0413119 -0.04136311 -0.04140254 -0.04142564
 -0.04143669 -0.04143457 -0.04143091 -0.04142771 -0.04143392 -0.0414514 -0.04148022 -0.04152066 -0.04156813 -0.04162241
 -0.04168003 -0.04174093 -0.04180311 -0.04186627 -0.04192795 -0.04198792 -0.04204429 -0.04209689 -0.04214483 -0.04218723
 -0.04222237 -0.04225012 -0.0422686 -0.04228168 -0.0422903 -0.04230115 -0.04231774 -0.04234308 -0.04237968 -0.04242417
 -0.04247668 -0.04253172 -0.04258875 -0.04264289 -0.0426938 -0.04273597 -0.04276918 -0.04279036 -0.04280035 -0.04280443
 -0.04280448 -0.04281257 -0.04282881 -0.04286117 -0.04290561 -0.04295887 -0.04301463 -0.0430622 -0.04309916 -0.04311764
 -0.04312294 -0.04311484 -0.04310315 -0.04309223 -0.04308875 -0.0430963 -0.0431151 -0.04314645 -0.04318536 -0.04323183
 -0.04327761 -0.04332215 -0.04335745 -0.04338329 -0.04339834 -0.04340361 -0.04340753 -0.04341127 -0.04342553 -0.04344918
 -0.04348534 -0.04353011 -0.0435772 -0.0436232 -0.04365971 -0.04368786 -0.04370442 -0.04371551 -0.04372367 -0.04373562
 -0.04375597 -0.04378499 -0.04382518 -0.04386834 -0.04391392 -0.04395109 -0.04397801 -0.04399101 -0.04398923 -0.04398071
 -0.043966 -0.04395899 -0.04395976 -0.0439754 -0.04400381 -0.04403913 -0.04407864 -0.04411018 -0.04413458 -0.04414628
 -0.04415089 -0.04415377 -0.04416011 -0.04417863 -0.04420678 -0.04424755 -0.04429022 -0.04433071 -0.04436068 -0.04437494
 -0.04437738 -0.0443668 -0.04435473 -0.04434267 -0.04433743 -0.04433992 -0.04434833 -0.04436254 -0.04437879 -0.04439715
 -0.04441687 -0.04443793 -0.04446003 -0.04448248 -0.04450314 -0.04452108 -0.04453309 -0.04453939 -0.04453825 -0.04453215
 -0.04452197 -0.04451272 -0.04450769 -0.04451162 -0.04452845 -0.04455699 -0.04459898 -0.04464622 -0.04469759 -0.044745
 -0.0447868 -0.04482201 -0.04485023 -0.04487525 -0.04489719 -0.04491755 -0.0449362 -0.04495206 -0.04496557 -0.04497819
 -0.04499095 -0.04500842 -0.04503016 -0.04505806 -0.04508971 -0.04512236 -0.04515444 -0.04518273 -0.04520855 -0.04523137
 -0.0452542 -0.0452785 -0.04530564 -0.04533695 -0.04537031 -0.04540601 -0.04543886 -0.04546823 -0.04548988 -0.04550316
 -0.04551039 -0.04551175 -0.04551432 -0.04551822 -0.04552775 -0.04554184 -0.04555722 -0.04557293 -0.04558358 -0.04559051
 -0.04559324 -0.04559506 -0.04560122 -0.04561238 -0.0456327 -0.04565702 -0.04568366 -0.04570617 -0.04571992 -0.04572541
 -0.04572056 -0.04571297 -0.0457039 -0.04569911 -0.04570002 -0.04570591 -0.04571702 -0.04572865 -0.04574056 -0.04574723
 -0.04574858 -0.045741 -0.04572571 -0.04570643 -0.04568564 -0.04567379 -0.04567097 -0.0456839 -0.04570781 -0.04573903
 -0.04577208 -0.04579917 -0.04581954 -0.04582916 -0.04583252 -0.04583028 -0.04582804 -0.04582811 -0.04583274 -0.04584364
 -0.04585673 -0.0458721 -0.0458821 -0.04588596 -0.04588052 -0.04586571 -0.04584792 -0.04582771 -0.04581387 -0.04580584
 -0.04580578 -0.04581174 -0.04581862 -0.04582488 -0.04582415 -0.04581733 -0.04580229 -0.04578244 -0.04576025 -0.04573937
 -0.04572359 -0.04571363 -0.04571135 -0.04571425 -0.04572206 -0.04573196 -0.04574321 -0.04575447 -0.0457654 -0.04577568
 -0.04578524 -0.04579402 -0.04580202 -0.04580987 -0.04581778 -0.04582797 -0.04584131 -0.04586334 -0.04589538 -0.04594488
 -0.0460122 -0.04610231 -0.04621355 -0.04634583 -0.0464967 -0.04666271 -0.04684478 -0.04704082 -0.04725787 -0.04749731
 -0.04777069 -0.04808254 -0.04843898 -0.0488441 -0.04928938 -0.0497754 -0.0502838 -0.05081285 -0.05135387 -0.05190632
 -0.05246641 -0.05302962 -0.05355002 -0.05401289 -0.05431212 -0.05444161 -0.05431401 -0.05395751 -0.05337931 -0.05263919
 -0.05182575 -0.05099896 -0.05025879 -0.04962878 -0.04916074 -0.04884584 -0.04869508 -0.04868588 -0.04881897 -0.04904929
 -0.04937596 -0.04971233 -0.05004832 -0.05029828 -0.05044995 -0.05051205 -0.05048506 -0.0504376 -0.05037101 -0.05032221
 -0.05028692 -0.0502624 -0.05024152 -0.05019949 -0.05013112 -0.05000881 -0.04984075 -0.04962387 -0.04937749 -0.04912231
 -0.04886903 -0.0486346 -0.04841462 -0.04821148 -0.04801841 -0.04783271 -0.04765353 -0.04747991 -0.04731377 -0.04715545
 -0.04700506 -0.04686286 -0.04672525 -0.04659206 -0.04645628 -0.04631794 -0.0461742 -0.0460267 -0.04588276 -0.0457444
 -0.04562308 -0.04551812 -0.04543462 -0.04536866 -0.04531684 -0.04527449 -0.04523512 -0.0451961 -0.0451529 -0.04510633
 -0.04505507 -0.04500272 -0.04495008 -0.04490055 -0.04485523 -0.04481535 -0.04478132 -0.04475308 -0.04473073 -0.04471345
 -0.04470118 -0.04469151 -0.04468407 -0.04467391 -0.04466046 -0.04463745 -0.04460539 -0.04456149 -0.04450928 -0.04445449
 -0.0444023 -0.04436439 -0.04434127 -0.04434012 -0.04435305 -0.04437731 -0.04440331 -0.04442452 -0.0444384 -0.04444194
 -0.04443825 -0.0444276 -0.04441227 -0.04439261 -0.04437015 -0.0443449 -0.04432053 -0.04429723 -0.04427781 -0.04426204
 -0.04424796 -0.04423486 -0.04421754 -0.04419579 -0.04416594 -0.04412887 -0.04408442 -0.04403444 -0.04398154 -0.04392783
 -0.04387666 -0.0438292 -0.04378768 -0.04375159 -0.04372157 -0.04369551 -0.04367308 -0.04365151 -0.04363014 -0.04360684
 -0.04358107 -0.04355247 -0.04352083 -0.04348756 -0.04345272 -0.04341915 -0.04338698 -0.04335887 -0.0433346 -0.04331435
 -0.04329744 -0.04328144 -0.04326623 -0.04325003 -0.04323364 -0.04321789 -0.04320248 -0.04318793 -0.04317209 -0.04315319
 -0.04313047 -0.04310217 -0.04307164 -0.04303943 -0.04300952 -0.04298349 -0.04296082 -0.04294205 -0.04292284 -0.04290279
 -0.04287887 -0.0428509 -0.04282061 -0.04278832 -0.04275884 -0.04273212 -0.04271054 -0.04269321 -0.04267787 -0.04266428
 -0.04265017 -0.04263705 -0.04262643 -0.04261966 -0.04261962 -0.04262466 -0.04263494 -0.04264705 -0.04265917 -0.04266899
 -0.04267515 -0.04267688 -0.0426736 -0.04266595 -0.0426538 -0.04263892 -0.04262145 -0.04260315 -0.04258414 -0.04256433
 -0.04254366 -0.0425214 -0.04249759 -0.04247225 -0.04244545 -0.04241746 -0.04238851 -0.04235882 -0.04232977 -0.04230344
 -0.04228163 -0.04226777 -0.04226116 -0.04226334 -0.04227 -0.04227975 -0.04228729 -0.04229011 -0.04228596 -0.04227322
 -0.04225419 -0.04222851 -0.04220207 -0.04217532 -0.04215408 -0.04213872 -0.04213005 -0.04212771 -0.04212668 -0.04212643
 -0.04212081 -0.04211028 -0.04209295 -0.04207027 -0.04204488 -0.04201778 -0.04199202 -0.04196746 -0.04194514 -0.04192456
 -0.04190546 -0.04188804 -0.04187247 -0.0418584 -0.04184603 -0.04183392 -0.0418219 -0.04180815 -0.04179227 -0.04177358
 -0.0417519 -0.04172799 -0.04170188 -0.04167512 -0.0416478 -0.04162163 -0.04159662 -0.04157379 -0.04155289 -0.04153354
 -0.04151561 -0.04149844 -0.04148262 -0.04146882 -0.04145775 -0.04145114 -0.04144737 -0.04144652 -0.0414444 -0.04143861
 -0.04142668 -0.04140603 -0.04138046 -0.04134974 -0.04132117 -0.04129607 -0.04127873 -0.04127008 -0.04126801 -0.0412725
 -0.0412766 -0.0412799 -0.04127528 -0.04126286 -0.0412395 -0.04120636 -0.04116596 -0.04111981 -0.04107294 -0.04102641
 -0.04098415 -0.04094698 -0.04091755 -0.04089567 -0.04088286 -0.04087589 -0.04087395 -0.04087223 -0.04086799 -0.04086123
 -0.04085049 -0.04084179 -0.04083595 -0.04083752 -0.04084754 -0.0408623 -0.04088169 -0.04089679 -0.04090726 -0.04090692
 -0.04089642 -0.04087681 -0.04084944 -0.04082011 -0.04078934 -0.04076156 -0.04073617 -0.04071413 -0.04069481 -0.0406778
 -0.04066268 -0.04064903 -0.04063633 -0.04062393 -0.04061238 -0.04060135 -0.04059314 -0.04058864 -0.04058746 -0.04059029
 -0.04059158 -0.04059083 -0.04058351 -0.0405692 -0.04055063 -0.04052809 -0.04050734 -0.04048835 -0.0404737 -0.04046308
 -0.04045657 -0.040454 -0.04045533 -0.04045963 -0.04046557 -0.04047159 -0.04047506 -0.0404756 -0.04047171 -0.04046439
 -0.04045374 -0.04044098 -0.0404267 -0.04041139 -0.04039559 -0.04037783 -0.04035817 -0.0403334 -0.0403029 -0.04026779
 -0.04022798 -0.04019247 -0.04016167 -0.0401443 -0.0401394 -0.04014506 -0.04015906 -0.0401712 -0.04018075 -0.04018001
 -0.04017096 -0.04015338 -0.04012998 -0.0401041 -0.04007752 -0.04005308 -0.04003099 -0.04001258 -0.03999589 -0.03998107
 -0.03996378 -0.03994296 -0.03991504 -0.03987858 -0.03983599 -0.03978688 -0.03973946 -0.03969424 -0.03965709 -0.03962792
 -0.03960469 -0.03958681 -0.03956875 -0.03955073 -0.03953065 -0.03950907 -0.03948668 -0.03946315 -0.03943813 -0.03941125
 -0.03938155 -0.03934995 -0.0393167 -0.03928324 -0.0392506 -0.03921934 -0.03918992 -0.03916255 -0.03913738 -0.03911451
 -0.03909424 -0.03907485 -0.0390564 -0.03903498 -0.03901033 -0.0389796 -0.03894288 -0.03890198 -0.03885759 -0.03881561
 -0.03877629 -0.03874404 -0.03871803 -0.03869824 -0.03868369 -0.03867255 -0.03866426 -0.03865799 -0.03865172 -0.0386442
 -0.03863139 -0.03861023 -0.03857934 -0.03853624 -0.03848583 -0.03842845 -0.03837099 -0.03831486 -0.03826381 -0.03821863
 -0.03817931 -0.03814595 -0.03811594 -0.0380891 -0.03806186 -0.03803443 -0.03800648 -0.03797869 -0.03795401 -0.0379322
 -0.03791468 -0.03789934 -0.0378832 -0.03786393 -0.03783673 -0.03780207 -0.0377574 -0.0377079 -0.03765518 -0.03760618
 -0.03756506 -0.03753241 -0.03751066 -0.03749151 -0.03747419 -0.03744948 -0.03741572 -0.03737263 -0.03731991 -0.03726458
 -0.03720697 -0.03715301 -0.03710261 -0.03705769 -0.03701783 -0.0369826 -0.03695123 -0.03692123 -0.03689253 -0.0368634
 -0.03683532 -0.03680971 -0.0367872 -0.03677019 -0.03675452 -0.03673919 -0.03671777 -0.03668667 -0.03664469 -0.03658969
 -0.03652747 -0.03645849 -0.03638931 -0.0363209 -0.03625579 -0.03619427 -0.03613618 -0.03608168 -0.03603424 -0.03599445
 -0.03596931 -0.03595793 -0.03596175 -0.03597622 -0.0359902 -0.03599859 -0.03598445 -0.03595104 -0.03589312 -0.03582274
 -0.03574951 -0.03568063 -0.03562587 -0.03557927 -0.03554241 -0.03550163 -0.03545304 -0.03538834 -0.03530349 -0.0352064
 -0.03509632 -0.03499345 -0.03489912 -0.0348298 -0.03478572 -0.03476707 -0.03477171 -0.03478356 -0.03479945 -0.03479622
 -0.03477429 -0.03472025 -0.03464252 -0.03455029 -0.03445219 -0.03436535 -0.03428913 -0.03423009 -0.0341818 -0.03414234
 -0.0341057 -0.03406922 -0.03402757 -0.03397864 -0.03391936 -0.0338478 -0.03376943 -0.03368416 -0.03360222 -0.03352455
 -0.03345184 -0.03338379 -0.03331144 -0.03323488 -0.03315026 -0.03305959 -0.03296987 -0.03288269 -0.03280712 -0.03274131
 -0.03268725 -0.03263921 -0.03259042 -0.03253618 -0.03246786 -0.03238913 -0.03229828 -0.03220469 -0.03211306 -0.03202562
 -0.03194558 -0.03186476 -0.03178199 -0.03169121 -0.03159069 -0.03148556 -0.03137589 -0.03127098 -0.03117099 -0.03107684
 -0.03098728 -0.03089261 -0.03079148 -0.03067135 -0.03053465 -0.03038092 -0.03021528 -0.03004864 -0.02988156 -0.02972051
 -0.0295611 -0.02940056 -0.02923811 -0.02907062 -0.02890475 -0.02874252 -0.02858973 -0.02844998 -0.02831933 -0.02819939
 -0.02807453 -0.02794411 -0.0277848 -0.02759449 -0.02736427 -0.02709466 -0.02680973 -0.02651086 -0.02622214 -0.02593965
 -0.02565835 -0.02537321 -0.0250656 -0.0247365 -0.02437771 -0.02399527 -0.02359409 -0.02317899 -0.02275687 -0.02232857
 -0.0218982 -0.02145971 -0.02101295 -0.02054614 -0.02005255 -0.01953957 -0.01900229 -0.01848328 -0.0179872 -0.01754681
 -0.01716612 -0.01683458 -0.01655136 -0.01629206 -0.01605679 -0.0158373 -0.01563369 -0.01544485 -0.01526449 -0.01507543
 -0.01486731 -0.01460739 -0.01429978 -0.01393051 -0.01352376 -0.01309901 -0.01267072 -0.01225768 -0.01185405 -0.01146237
 -0.01107304 -0.01068348 -0.01028803 -0.009887469 -0.009464191 -0.00901924 -0.008506533 -0.007922083 -0.007241375 -0.006465726
 -0.005669131 -0.004856557 -0.004109085 -0.003416108 -0.002769321 -0.002156571 -0.001535369 -0.000905035 -0.0002438813 0.0004441787
 0.001158206 0.001907525 0.00269301 0.003547392 0.004490832 0.005552912 0.006765828 0.008089007 0.00953028 0.01098495
 0.01243154 0.01380543 0.01509164 0.01629071 0.01740014 0.01845401 0.0194552 0.02047679 0.02152689 0.02272023
 0.02404643 0.02553615 0.0271331 0.02866924 0.03013208 0.0313955 0.03252272 0.03355383 0.03453525 0.03553563
 0.03655399 0.0376117 0.03869293 0.03979295 0.0409093 0.04204452 0.04317676 0.04430491 0.04539246 0.04643124
 0.04742878 0.04838455 0.04932134 0.05023901 0.05110376 0.05191217 0.0526126 0.05321321 0.05372419 0.05416178
 0.05458622 0.05499545 0.055423 0.05583774 0.05620085 0.05651166 0.0567449 0.05693936 0.05711901 0.05729535
 0.05748761 0.0576663 0.05782621 0.05794215 0.05800479 0.05801843 0.0579806 0.0579142 0.05782045 0.05772578
 0.05763122 0.05754437 0.05746369 0.0573763 0.05728167 0.0571699 0.05704317 0.05690193 0.05675107 0.05660027
 0.05645499 0.05632811 0.05622011 0.05613523 0.05607555 0.05603981 0.05604329 0.05609263 0.05619971 0.05637531
 0.05659822 0.05686779 0.05715305 0.05744727 0.05775258 0.05806765 0.0584163 0.05879961 0.05923304 0.05971569
 0.06024515 0.06081864 0.06142178 0.06205122 0.06268825 0.06333287 0.06397387 0.06461851 0.06527157 0.06594235
 0.06664299 0.06737636 0.06814901 0.06895804 0.06980333 0.07068329 0.07159656 0.07254647 0.07353438 0.07455845
 0.07562155 0.07669587 0.07778072 0.07882801 0.07983547 0.08077496 0.08164745 0.0824561 0.08319748 0.08385797
 0.08442731 0.08485947 0.08516141 0.08531961 0.08535998 0.0853159 0.08520506 0.08506086 0.08488268 0.08468232
 0.08444772 0.08417965 0.08385362 0.08346586 0.08297848 0.08237678 0.08166967 0.08084732 0.08000822 0.07916206
 0.07833974 0.07754207 0.07671295 0.07585174 0.07493199 0.07395916 0.07294963 0.07190532 0.07084796 0.06976025
 0.06862756 0.0674024 0.06600175 0.06440786 0.06252881 0.06049899 0.05838233 0.05629772 0.05435198 0.052481
 0.05068398 0.04890411 0.0471149 0.04536458 0.0436542 0.04204765 0.04055365 0.03915844 0.03786108 0.03660348
 0.03538508 0.03417943 0.03299237 0.03184235 0.0307326 0.02968568 0.02869562 0.02776131 0.02687378 0.02601952
 0.02519072 0.02437706 0.02356511 0.02274792 0.02189642 0.02099338 0.02002305 0.01895558 0.01788427 0.01681535
 0.01588356 0.01512371 0.0144958 0.01400326 0.01353548 0.01308734 0.01261845 0.01213257 0.01166058 0.01120551
 0.01080218 0.01044332 0.01012012 0.009831047 0.009562371 0.009331028 0.009156792 0.009054487 0.009053641 0.009142249
 0.009323032 0.009575685 0.009888672 0.01025622 0.01067238 0.01114248 0.01166362 0.01225814 0.01292432 0.01371942
 0.01464878 0.01575405 0.01703657 0.01839805 0.01982721 0.02115466 0.02238606 0.0234662 0.02440954 0.02523976
 0.02595642 0.02656687 0.02707412 0.02747467 0.02780375 0.02808836 0.02838579 0.02875593 0.02920365 0.02976796
 0.03035724 0.03094487 0.03147644 0.03192387 0.03232318 0.03267426 0.03302388 0.03337729 0.03374914 0.0341403
 0.03453793 0.03494153 0.03533991 0.03573603 0.03613955 0.03655613 0.03701175 0.03750628 0.0380573 0.03864914
 0.03926532 0.03989155 0.0404999 0.04110171 0.04169409 0.04229771 0.04292587 0.04357925 0.04426451 0.04496238
 0.04566921 0.04637202 0.04706727 0.04775777 0.04844444 0.04911705 0.04977493 0.05036641 0.05088837 0.05128543
 0.05156102 0.05170617 0.05172713 0.05164247 0.05145169 0.05116417 0.05077356 0.0502729 0.04965995 0.0489265
 0.04808174 0.04712818 0.04607973 0.04494509 0.0437297 0.04243615 0.04107101 0.03962907 0.03815582 0.03665167
 0.03519934 0.03380777 0.03251799 0.03133256 0.03021468 0.02916131 0.02812059 0.02709688 0.02608711 0.02510283
 0.02418575 0.02333736 0.02258679 0.02191777 0.02131895 0.02077046 0.02024464 0.0197322 0.01921563 0.01869738
 0.01817346 0.01765098 0.01713118 0.01662165 0.01612405 0.01564552 0.01518762 0.01475281 0.01434159 0.01395275
 0.01358624 0.01324683 0.01293522 0.01266269 0.01242855 0.01223524 0.0120796 0.01195113 0.01184855 0.01176301
 0.01169624 0.01164763 0.01161784 0.01160847 0.01161651 0.01164148 0.0116764 0.0117186 0.01175894 0.01179384
 0.01181635 0.01182394 0.01181405 0.01178609 0.0117378 0.01166902 0.01157608 0.01145877 0.01131861 0.01115634
 0.01098206 0.01079733 0.01061636 0.01044082 0.01028433 0.01014747 0.01003941 0.009957305 0.009901333 0.009866598
 0.009847264 0.00984084 0.009843056 0.009854422 0.009874373 0.009902791 0.009939846 0.00998407 0.01003558 0.01009103
 0.01015086 0.01020552 0.01025468 0.01028345 0.01029096 0.01026933 0.01021918 0.01014773 0.0100567 0.009960444
 0.009859217 0.009761797 0.00966691 0.00957569 0.009487282 0.009400822 0.009315661 0.009231939 0.009145448 0.009054349
 0.008950639 0.008828704 0.008686266 0.008518243 0.00833774 0.00814509 0.007962026 0.007792583 0.007648197 0.007531484
 0.007434159 0.007355946 0.007279782 0.007205277 0.007123367 0.007035547 0.006946232 0.006857811 0.006781592 0.006718531
 0.006676838 0.006655775 0.006657789 0.006681791 0.00672776 0.006793817 0.006879688 0.006979813 0.007092411 0.007208506
 0.007324489 0.007433817 0.007533285 0.007624289 0.007705978 0.007785195 0.007862729 0.007941457 0.008021678 0.008096159
 0.008164344 0.00821586 0.008251458 0.008270089 0.008274476 0.008274729 0.008271948 0.008275166 0.008281041 0.008288705
 0.00829283 0.00828639 0.008266898 0.008229322 0.008175164 0.008103657 0.008017546 0.007917838 0.007805873 0.007681998
 0.007547718 0.007402638 0.00725299 0.007099096 0.006949524 0.00680487 0.006666408 0.006533664 0.006398605 0.006260975
 0.006114588 0.005960938 0.005802584 0.005640752 0.005480126 0.005320319 0.005162069 0.005006687 0.004854761 0.004711221
 0.004580071 0.004465572 0.004372311 0.004298394 0.004245346 0.004205552 0.004177685 0.004154194 0.004133377 0.004112309
 0.004090491 0.004066851 0.004041342 0.004009713 0.003971789 0.003923659 0.0038662 0.003803101 0.003735929 0.003673033
 0.003614579 0.00356489 0.003524179 0.003493737 0.003476462 0.003476062 0.003495584 0.003539616 0.003607071 0.003698496
 0.003812695 0.003947514 0.004110029 0.004299944 0.00453228 0.004809421 0.005143179 0.005535895 0.005984822 0.006490147
 0.007035478 0.007619758 0.008224203 0.008848039 0.009477581 0.01011157 0.01073805 0.01135543 0.01195287 0.01253142
 0.0130875 0.01362413 0.01414481 0.01464821 0.01513608 0.01560132 0.01604078 0.01644758 0.01681816 0.017149
 0.01743832 0.01768535 0.01788921 0.01805326 0.01817743 0.01826857 0.01832708 0.01835889 0.01836455 0.01835274
 0.01832551 0.01830072 0.01828127 0.01828833 0.01832322 0.0184 0.01851866 0.01868568 0.01890011 0.01916456
 0.01947409 0.01982692 0.02021417 0.02063138 0.02106835 0.02152141 0.02197842 0.02243631 0.02288263 0.02331405
 0.02372757 0.0241217 0.02450524 0.02487861 0.02525136 0.02562369 0.02599888 0.02637659 0.02675639 0.02713709
 0.02751396 0.02788555 0.02824461 0.02859282 0.02892935 0.02925747 0.02958227 0.02990201 0.03021757 0.03052487
 0.03082039 0.03110639 0.03138239 0.03165318 0.03192065 0.03218444 0.03244445 0.03270191 0.03295596 0.03321899
 0.03349157 0.03379193 0.03412071 0.03448904 0.03489536 0.03533465 0.03580321 0.03628305 0.03677201 0.03725465
 0.03773186 0.03819992 0.03865544 0.03909609 0.03950881 0.03988312 0.04020439 0.04046079 0.0406445 0.04074933
 0.04077318 0.04071223 0.04057672 0.04036406 0.04010945 0.03981446 0.039529 0.03925649 0.03903289 0.03885904
 0.03874606 0.03869274 0.03869601 0.0387539 0.03885784 0.03900441 0.03918184 0.03938365 0.03959478 0.03980465
 0.03999441 0.04015499 0.04026948 0.04034169 0.04036672 0.04035871 0.04032345 0.04026666 0.04019286 0.04009471
 0.03997118 0.03981847 0.03963507 0.03942907 0.03920069 0.0389644 0.038721 0.03848521 0.03825685 0.03804236
 0.03783897 0.03763804 0.03743778 0.03722691 0.03700998 0.03679008 0.03657205 0.03636574 0.03616716 0.03597727
 0.03578811 0.03559433 0.03539309 0.03518228 0.03495962 0.03472497 0.0344722 0.03420002 0.03390526 0.03358706
 0.03324769 0.0328873 0.03250602 0.03210363 0.03167465 0.03121859 0.0307287 0.03020541 0.02964596 0.02905314
 0.02843274 0.02778836 0.02713064 0.02645849 0.02577618 0.02507781 0.02435933 0.02361668 0.02284592 0.02204586
 0.02121506 0.02035318 0.01945795 0.01853886 0.01759483 0.01665048 0.01570805 0.0147912 0.01390191 0.01305021
 0.01223663 0.01146912 0.01074857 0.01008721 0.009483606 0.008939426 0.008449619 0.008000469 0.007589163 0.007202748
 0.006843713 0.006510153 0.006204717 0.005930063 0.005685215 0.005471134 0.005283795 0.005122255 0.004981281 0.0048595
 0.004751962 0.00465796 0.00457154 0.00449237 0.004411146 0.004327058 0.004236379 0.00413951 0.004049219 0.003966887
 0.003911086 0.003879486 0.003872419 0.00388486 0.003900857 0.003921533 0.003939294 0.003962889 0.004002016 0.004060424
 0.004149137 0.004255891 0.004378824 0.004497814 0.0046018 0.004685296 0.00474054 0.004786719 0.004825171 0.004879369
 0.004953833 0.005048967 0.005165794 0.00528337 0.005400748 0.005500707 0.005584018 0.005649609 0.005699063 0.005739136
 0.005770042 0.005796439 0.005816403 0.005828886 0.005830725 0.005816238 0.005786166 0.005737116 0.005677158 0.005609404
 0.005543836 0.005485375 0.005441045 0.005413442 0.005408831 0.005429264 0.005476179 0.005551326 0.005641382 0.005745752
 0.005846318 0.005942696 0.006034955 0.006124583 0.006226015 0.006337654 0.006461151 0.006590812 0.00670932 0.00681615
 0.006898831 0.006967588 0.00703023 0.007098538 0.007189239 0.007300627 0.007440203 0.00759086 0.007746976 0.007894769
 0.008025977 0.008147576 0.00825765 0.008376556 0.008507178 0.008658965 0.008833491 0.009019761 0.009217044 0.009407603
 0.009591509 0.009761469 0.009919464 0.01007101 0.01021745 0.01036642 0.0105162 0.01066696 0.01081685 0.01096203
 0.01110539 0.01124772 0.01139368 0.0115484 0.01170843 0.01187583 0.01203737 0.0121896 0.012322 0.01243006
 0.0125193 0.01258851 0.01265698 0.01272619 0.01280896 0.01290538 0.01300537 0.01310771 0.01319505 0.01327072
 0.01334012 0.0134102 0.01350738 0.01362955 0.01378923 0.01397103 0.01415898 0.01433944 0.01448992 0.01461399
 0.01470426 0.01477759 0.01483961 0.01490401 0.01497755 0.0150612 0.01515687 0.01525932 0.01536762 0.01548231
 0.01560315 0.0157363 0.01588192 0.01604019 0.01621039 0.01638541 0.01656504 0.01674465 0.01692428 0.01710257
 0.01727732 0.01744355 0.01759906 0.01773779 0.01786097 0.01796732 0.01805943 0.01813759 0.01820748 0.01826916
 0.01833713 0.01841474 0.01851802 0.01865266 0.01881743 0.019015 0.01922249 0.01943874 0.01963669 0.01981531
 0.01996531 0.02008905 0.02020446 0.02031529 0.02045079 0.0206095 0.02080398 0.02102688 0.02126889 0.02152439
 0.02178181 0.02203682 0.02228319 0.02251155 0.02271365 0.02288361 0.02301291 0.02311431 0.02318709 0.02325672
 0.02332801 0.02342142 0.02354099 0.02369386 0.02388187 0.02409006 0.02431725 0.02452569 0.02471411 0.02485283
 0.02494707 0.02500633 0.02503842 0.02507465 0.02511446 0.02517354 0.02524392 0.02532008 0.02539697 0.02546553
 0.02552941 0.02558603 0.02564761 0.02571882 0.02581044 0.02592945 0.02606951 0.02623191 0.02640095 0.02657377
 0.0267482 0.02692373 0.02710298 0.02728569 0.0274538 0.02760646 0.02772474 0.02781465 0.02789566 0.02797692
 0.02810089 0.02826462 0.0284862 0.02874931 0.02903788 0.02933809 0.02962677 0.02990643 0.03016911 0.0304293
 0.03069474 0.03096543 0.03124869 0.03151469 0.03175869 0.0319544 0.03209376 0.03219515 0.03225834 0.03232178
 0.03238709 0.0324645 0.0325527 0.03264052 0.03272871 0.03281518 0.03290245 0.03299821 0.0331028 0.03322125
 0.03335151 0.03349426 0.03364295 0.03379207 0.03393349 0.03405754 0.03416733 0.03426094 0.03434647 0.03442987
 0.03449913 0.03455412 0.03457477 0.03455495 0.03451009 0.03443911 0.03439081 0.03436751 0.03440165 0.03449146
 0.03463071 0.03481415 0.0350121 0.03521974 0.03540407 0.03556775 0.03569758 0.03580569 0.03590555 0.03600424
 0.03611509 0.03623854 0.03637407 0.03653784 0.03673663 0.03698665 0.03730946 0.03764348 0.03798508 0.03824456
 0.03839963 0.03847208 0.03845953 0.03842735 0.03837867 0.03835168 0.03834724 0.03838927 0.03847538 0.03861088
 0.03878307 0.03895526 0.03911234 0.03919888 0.03921837 0.03914687 0.0390074 0.03881281 0.03859016 0.03836149
 0.03814922 0.03797147 0.03783421 0.03774689 0.03769244 0.03766921 0.03765992 0.03766115 0.03766894 0.0376834
 0.03768967 0.03768687 0.03764934 0.03757823 0.0374779 0.03735281 0.03723296 0.03711438 0.03700157 0.03688372
 0.03673372 0.03655727 0.03634483 0.03612259 0.03591451 0.03574169 0.03562983 0.03558086 0.03561006 0.03568403
 0.0358036 0.03589952 0.03595299 0.03593362 0.03582532 0.03569266 0.0355384 0.03544163 0.0354062 0.03543522
 0.03552588 0.03564528 0.0357929 0.03595135 0.03611937 0.03628242 0.03644206 0.03659107 0.03674072 0.03690746
 0.03709434 0.03731666 0.0375562 0.03780651 0.03804515 0.03825925 0.0384341 0.03856167 0.03863501 0.03864762
 0.03861685 0.03854144 0.03846108 0.03837959 0.03831957 0.0382823 0.03826766 0.03827621 0.03831679 0.03838804
 0.03849182 0.03861699 0.03872551 0.03880996 0.03882895 0.03879544 0.03870984 0.03859071 0.03845829 0.03832623
 0.0382078 0.0381218 0.03808465 0.03809448 0.03816494 0.03824051 0.03831313 0.03832499 0.03826011 0.03813278
 0.03794015 0.03774155 0.03754 0.03736346 0.03720996 0.03706167 0.0369159 0.03674582 0.03655605 0.03634446
 0.0361257 0.03593236 0.03577548 0.03569226 0.03567232 0.03572166 0.03581829 0.03594768 0.03609321 0.03624735
 0.03638222 0.03649202 0.03653197 0.03648789 0.03634434 0.03609123 0.03576943 0.03537998 0.03498282 0.03458128
 0.03421647 0.03388873 0.03361373 0.03338882 0.03320715 0.03306599 0.032951 0.03286394 0.03280395 0.03276792
 0.03275637 0.03274975 0.03272738 0.0326717 0.03255855 0.0323924 0.0321659 0.03189901 0.03159184 0.03128403
 0.0309791 0.03074017 0.03057973 0.03052482 0.03058395 0.03069403 0.03085187</values></Ydata></AB><ScSm><Ydata ylabel="Single channel"><values byteorder="INTEL" format="FLOAT32" numvalues="1814"> 0.07140829 0.07142285 0.07150072 0.0716612 0.07187566 0.07208162 0.07222405 0.07229001 0.07229649 0.07225385
 0.07217379 0.07211293 0.07215904 0.07234605 0.07260206 0.07279709 0.07284434 0.07277463 0.07272062 0.07279009
 0.07292362 0.07290582 0.07256585 0.07197374 0.07140069 0.07106912 0.07100732 0.07119897 0.07172269 0.07251477
 0.07309212 0.07289544 0.0719962 0.0711254 0.07086077 0.07107092 0.07126655 0.07116792 0.07078505 0.07029568
 0.07009616 0.07070357 0.07224706 0.07403882 0.07481582 0.07353488 0.07011646 0.06568715 0.06216956 0.06125433
 0.06320873 0.06652421 0.06904879 0.06970716 0.06902258 0.068035 0.06717843 0.06640643 0.06591292 0.06617837
 0.06730518 0.06856455 0.06876986 0.0672905 0.06480178 0.06280753 0.06226698 0.06299081 0.06444632 0.06634469
 0.06782135 0.06695928 0.06266677 0.05707401 0.05459526 0.05773578 0.06442198 0.0700317 0.0715097 0.06908874
 0.06496015 0.06145047 0.06013996 0.06143463 0.06448938 0.06791043 0.07060494 0.0718392 0.07104718 0.06831522
 0.0648715 0.0624991 0.06243993 0.06490023 0.06900665 0.07289299 0.07454941 0.07330182 0.07025681 0.06712972
 0.06511642 0.06489947 0.0668141 0.07050239 0.07488395 0.07878351 0.08141661 0.08247323 0.08217997 0.08115409
 0.07993314 0.07888491 0.07853711 0.07925595 0.08038421 0.08048623 0.07891224 0.07666798 0.07537957 0.07560991
 0.07640713 0.0764606 0.07542796 0.07372981 0.07125497 0.06732059 0.06223892 0.05775303 0.05529679 0.0548941
 0.05618903 0.05901261 0.06216841 0.06335166 0.06166882 0.05925903 0.05917701 0.06213248 0.06611627 0.06885298
 0.06991148 0.07055173 0.07210232 0.07460132 0.07662664 0.07636766 0.07341435 0.06976822 0.06843264 0.07046928
 0.07397652 0.07643015 0.07734755 0.07802995 0.079282 0.08016789 0.07898834 0.07530189 0.07102115 0.06923664
 0.07152531 0.07637077 0.08026123 0.08028954 0.07610975 0.07001819 0.06516203 0.06336243 0.06462052 0.06830797
 0.07386681 0.08018267 0.08529513 0.0874939 0.08656679 0.08370605 0.08014621 0.07601955 0.07100103 0.06620488
 0.06442754 0.06750898 0.07398757 0.08031626 0.08402716 0.08496992 0.08394797 0.08120753 0.07664914 0.07127118
 0.0676558 0.06797653 0.07138643 0.0744848 0.0748762 0.07336113 0.0722004 0.072289 0.07280891 0.07296256
 0.07310901 0.07414597 0.07622644 0.07840854 0.07957211 0.07944378 0.07864463 0.0779606 0.077628 0.07716563
 0.07604899 0.0747519 0.07469839 0.07671037 0.07988253 0.08251159 0.0838069 0.08418615 0.08414228 0.08336945
 0.08120503 0.07787777 0.07502097 0.07446475 0.07646757 0.07955179 0.08204271 0.08327673 0.08344602 0.08299033
 0.08229705 0.08157396 0.0809155 0.08058351 0.08094775 0.08196443 0.08304299 0.08364155 0.08372038 0.08347934
 0.08296305 0.0821308 0.08114341 0.08038338 0.08017828 0.08055274 0.08126488 0.08202736 0.08261436 0.0828292
 0.08257458 0.08199342 0.08137879 0.08090575 0.08057764 0.08041838 0.08052859 0.08090505 0.08135308 0.08165264
 0.08173411 0.08165385 0.08147503 0.08122493 0.08092905 0.08064702 0.08047356 0.08048125 0.08063377 0.08079766
 0.08089074 0.08096703 0.0810882 0.08117665 0.08109638 0.08084388 0.08056625 0.08040272 0.0803739 0.08041304
 0.08043694 0.08036281 0.08010937 0.07966527 0.07917748 0.07889802 0.07898246 0.07937305 0.07989338 0.08038372
 0.08072956 0.08087108 0.08084653 0.0807579 0.0806531 0.08049037 0.08023587 0.07995641 0.07979909 0.07988058
 0.08018172 0.08055532 0.08084974 0.08100723 0.08105102 0.08104229 0.08106053 0.08114725 0.08124185 0.08123741
 0.08111972 0.08099723 0.08097808 0.08105469 0.08112218 0.0810965 0.08100732 0.08096677 0.08104493 0.08120094
 0.08134723 0.08144927 0.08153926 0.08164755 0.08174084 0.0817393 0.08160768 0.08141614 0.08127628 0.08122738
 0.08123042 0.08126358 0.08135889 0.08152843 0.08170733 0.08180783 0.08181363 0.0817915 0.08180514 0.08183764
 0.08181682 0.08170673 0.08155034 0.081424 0.08137249 0.08138924 0.08143577 0.08146884 0.08146001 0.08140428
 0.08131672 0.08121897 0.08112497 0.08104385 0.0810001 0.08103313 0.08115121 0.08128707 0.08132882 0.08121723
 0.08100827 0.080824 0.08073575 0.08070458 0.08064128 0.08050853 0.08034557 0.08020808 0.08011422 0.08004828
 0.07998779 0.07992081 0.07986088 0.07985413 0.07994545 0.0801153 0.08026703 0.08030502 0.08022515 0.08011094
 0.08004733 0.08005664 0.08010769 0.08016144 0.08020964 0.08028112 0.08039957 0.08053282 0.08061448 0.08062599
 0.08062418 0.08067778 0.08081037 0.08100659 0.08122664 0.08140618 0.08149247 0.08150335 0.081518 0.08159466
 0.08172221 0.08185913 0.08198896 0.08212169 0.08226517 0.0824203 0.0825986 0.08282403 0.08310948 0.08343381
 0.08374408 0.0839868 0.084152 0.08429327 0.08449334 0.08479617 0.0851704 0.08554045 0.08585241 0.08611217
 0.08636393 0.08663589 0.08691753 0.08719508 0.08748938 0.0878334 0.08822223 0.08861415 0.08897948 0.08932504
 0.08967124 0.09002694 0.09039086 0.09076539 0.0911622 0.0915899 0.09203091 0.0924388 0.09277409 0.09304286
 0.09329431 0.09358621 0.09394981 0.09436288 0.09474768 0.09502806 0.09521263 0.09539779 0.09566258 0.09598454
 0.09628978 0.09656396 0.09686875 0.09724991 0.09767002 0.0980492 0.09835034 0.09860717 0.09887691 0.09917726
 0.0994697 0.09970254 0.09986777 0.1000078 0.1001681 0.1003648 0.10061 0.1009339 0.1013451 0.1017868
 0.102172 0.1024577 0.1026618 0.1028208 0.1029641 0.1031144 0.1032808 0.1034542 0.1036269 0.1037979
 0.1039526 0.1040676 0.1041571 0.1042784 0.104471 0.1047214 0.1050071 0.1053353 0.1057074 0.1060813
 0.1064135 0.1067267 0.1070855 0.1074979 0.1078817 0.1081511 0.1083051 0.1084034 0.1084904 0.1085868
 0.1087315 0.1089717 0.1093076 0.1096854 0.1100511 0.1103851 0.1106864 0.1109519 0.1111746 0.1113495
 0.1114783 0.1115766 0.1116763 0.1118158 0.1120244 0.1123063 0.1126298 0.1129402 0.1131914 0.1133592
 0.1134251 0.1133765 0.1132413 0.1130972 0.113011 0.1129637 0.1128573 0.1125993 0.1121637 0.1115732
 0.1108507 0.1100105 0.109091 0.1081745 0.1073615 0.1067277 0.1063126 0.1061463 0.1062645 0.1066752
 0.1073112 0.1080378 0.1087102 0.109211 0.1094426 0.109328 0.1088539 0.1080966 0.1071829 0.1062275
 0.1053052 0.1044494 0.103654 0.1029037 0.1022381 0.1017822 0.1016954 0.1020935 0.1030189 0.1044497
 0.1062929 0.1083679 0.1104408 0.1123133 0.1138978 0.1152147 0.1163361 0.1173397 0.1182868 0.1192025
 0.1200668 0.1208463 0.1215393 0.1221747 0.1227702 0.1233115 0.1237685 0.1241186 0.12436 0.1245185
 0.1246332 0.124723 0.1247802 0.1248024 0.124809 0.1248083 0.1247641 0.1246117 0.1242997 0.1238192
 0.1232164 0.1226075 0.1221856 0.122198 0.1228654 0.1242601 0.1262325 0.1284674 0.1306354 0.1325126
 0.134005 0.1351219 0.1359447 0.1365823 0.1371245 0.1376237 0.1381049 0.1385767 0.1390353 0.1394745
 0.1398952 0.1403071 0.1407235 0.1411527 0.1415856 0.1419957 0.1423644 0.1427078 0.1430677 0.1434727
 0.1439091 0.1443384 0.1447437 0.1451472 0.1455692 0.1459834 0.1463399 0.1466283 0.1468906 0.1471761
 0.1475075 0.1478844 0.1482846 0.1486651 0.1489901 0.1492644 0.1495235 0.1497924 0.150071 0.1503533
 0.1506419 0.1509404 0.1512457 0.1515571 0.1518823 0.1522219 0.1525514 0.1528338 0.1530579 0.153255
 0.1534703 0.1537216 0.1539897 0.1542458 0.1544842 0.1547321 0.1550231 0.1553597 0.1557028 0.1560036
 0.1562456 0.1564521 0.1566594 0.156888 0.1571395 0.157406 0.157677 0.157942 0.1581984 0.1584547
 0.1587228 0.1590047 0.1592905 0.1595671 0.159828 0.1600774 0.1603251 0.1605771 0.1608346 0.1611042
 0.1613995 0.1617224 0.1620479 0.1623393 0.1625791 0.1627782 0.1629594 0.1631413 0.1633363 0.1635531
 0.1637944 0.1640539 0.164319 0.1645795 0.1648341 0.1650884 0.1653478 0.1656133 0.1658806 0.166142
 0.166394 0.1666424 0.1668981 0.1671637 0.1674312 0.1676912 0.1679421 0.1681888 0.1684383 0.1686945
 0.1689513 0.1691951 0.1694197 0.1696365 0.1698641 0.170109 0.1703625 0.1706116 0.17085 0.1710785
 0.1713007 0.1715229 0.1717533 0.171997 0.1722494 0.1725003 0.1727434 0.1729784 0.1732063 0.1734286
 0.1736517 0.1738834 0.1741261 0.1743756 0.1746266 0.1748755 0.1751194 0.1753563 0.1755856 0.1758094
 0.1760323 0.1762586 0.1764905 0.1767293 0.1769729 0.1772144 0.1774483 0.1776777 0.1779101 0.1781492
 0.178395 0.1786465 0.1789002 0.1791527 0.1794052 0.1796594 0.1799108 0.1801532 0.1803887 0.1806255
 0.1808701 0.1811244 0.1813857 0.1816477 0.1819017 0.18214 0.182358 0.1825587 0.1827532 0.1829516
 0.1831566 0.1833686 0.1835874 0.1838097 0.1840338 0.1842644 0.1845039 0.1847461 0.1849875 0.1852334
 0.1854857 0.1857372 0.1859813 0.1862179 0.18645 0.1866828 0.1869208 0.1871619 0.1874014 0.1876409
 0.1878829 0.1881247 0.1883646 0.1886049 0.1888455 0.1890859 0.1893326 0.1895894 0.1898486 0.1901002
 0.1903409 0.1905701 0.1907932 0.1910235 0.1912657 0.1915073 0.1917393 0.1919693 0.1922053 0.192445
 0.1926855 0.1929257 0.1931652 0.1934086 0.1936603 0.1939119 0.1941525 0.1943852 0.1946183 0.1948517
 0.1950845 0.1953188 0.1955516 0.1957804 0.1960107 0.1962461 0.196483 0.1967221 0.1969626 0.1971806
 0.1973205 0.1972537 0.1966681 0.1949506 0.1911758 0.1842905 0.1735313 0.1589113 0.1413913 0.1225405
 0.1039558 0.08684228 0.07189974 0.0594273 0.0494869 0.04200286 0.03681565 0.03377954 0.03287514 0.03433142
 0.03875364 0.04676346 0.05764336 0.06813425 0.07369892 0.07209894 0.06553075 0.05862365 0.05459313 0.05367991
 0.05451776 0.05592968 0.05753646 0.05954791 0.06233251 0.06599967 0.07037939 0.07546903 0.08165152 0.08921032
 0.09774522 0.1063361 0.1143313 0.1218608 0.1295329 0.1377069 0.1461199 0.154148 0.1613066 0.1674978
 0.1729155 0.1778234 0.1824052 0.1867489 0.1908992 0.1948519 0.1984654 0.2014269 0.2034017 0.204283
 0.2043138 0.2039527 0.2036069 0.2034717 0.2035689 0.2038632 0.2043208 0.2049141 0.2056211 0.2064227
 0.2072927 0.2081979 0.209108 0.2099966 0.210841 0.211628 0.2123522 0.2130087 0.2135979 0.2141304
 0.2146183 0.2150671 0.2154826 0.215875 0.2162504 0.2166085 0.2169501 0.2172768 0.217585 0.2178698
 0.2181327 0.218379 0.2186116 0.2188301 0.2190357 0.219234 0.2194346 0.2196439 0.2198599 0.2200773
 0.2202946 0.2205116 0.2207235 0.2209254 0.2211203 0.2213155 0.2215154 0.2217206 0.2219283 0.2221324
 0.2223292 0.2225232 0.2227226 0.2229283 0.2231319 0.2233239 0.2235032 0.2236795 0.2238657 0.2240677
 0.2242853 0.2245198 0.2247697 0.2250203 0.2252528 0.2254653 0.2256734 0.2258899 0.2261144 0.2263366
 0.2265416 0.2267173 0.2268675 0.2270149 0.2271876 0.2273994 0.2276384 0.2278744 0.2280863 0.22828
 0.2284741 0.2286745 0.2288697 0.2290453 0.2292057 0.2293845 0.2296182 0.2299018 0.2301913 0.2304578
 0.2307077 0.2309507 0.2311849 0.2314173 0.231655 0.2318733 0.2320333 0.2321434 0.2322784 0.2325206
 0.2328768 0.2332639 0.2335882 0.2338349 0.2340576 0.234307 0.2345981 0.2349014 0.235121 0.2351536
 0.2350454 0.2350267 0.2353037 0.2358536 0.2364759 0.2369993 0.237388 0.237694 0.2379661 0.2381996
 0.2383437 0.2383594 0.2382985 0.2383242 0.2386023 0.239132 0.2397306 0.2402193 0.2405652 0.2408206
 0.2410253 0.2412006 0.2413099 0.2412001 0.2407627 0.2402219 0.2400792 0.2406315 0.2416418 0.2425953
 0.2432079 0.2435698 0.2438626 0.24413 0.2443349 0.2443934 0.2440469 0.24301 0.24152 0.2404966
 0.2407818 0.2422929 0.2441688 0.2456328 0.246484 0.2469116 0.2471606 0.2473647 0.2474443 0.2471144
 0.2462034 0.2450784 0.2445559 0.2451512 0.2464989 0.247742 0.2484077 0.2486623 0.2488547 0.2491256
 0.2493139 0.2489134 0.2473598 0.2448545 0.2427827 0.2427397 0.2449705 0.2480792 0.2504162 0.2514992
 0.2518851 0.2519547 0.2513514 0.2496234 0.2469041 0.2438539 0.2414494 0.2408488 0.2426278 0.2458211
 0.2484657 0.2495348 0.2498085 0.2505867 0.2521348 0.2536828 0.254429 0.254165 0.2531387 0.251613
 0.2497411 0.2479677 0.247267 0.2484508 0.2511787 0.2540839 0.2560362 0.2569981 0.257421 0.2569109
 0.2539641 0.2477677 0.2404515 0.2365022 0.2388082 0.2456414 0.2525164 0.2566021 0.2582764 0.2590275
 0.2594537 0.2590988 0.2567185 0.2509549 0.2424747 0.2353299 0.2342218 0.2398475 0.2481114 0.2539523
 0.2547942 0.2508208 0.2440691 0.2378297 0.2353091 0.2376841 0.243576 0.2504146 0.2559907 0.2590709
 0.2593773 0.2574575 0.2546434 0.2527323 0.2526873 0.2532113 0.2517287 0.2476384 0.2433178 0.2406386
 0.2380788 0.2335455 0.2289644 0.2290079 0.235016 0.24275 0.2471517 0.2474676 0.2463493 0.2450411
 0.2412752 0.2325458 0.2208386 0.2127453 0.2136985 0.2223331 0.2317003 0.2360672 0.2354758 0.2337279
 0.2333016 0.2328306 0.2290603 0.2211143 0.212653 0.2088159 0.2107859 0.2147457 0.2164126 0.214467
 0.2090804 0.200531 0.191633 0.1886372 0.1959549 0.2107512 0.2251583 0.232758 0.2309494 0.2195472
 0.201644 0.1854455 0.1802962 0.1883381 0.2019235 0.21065 0.2096314 0.2003961 0.1864262 0.1707427
 0.1572707 0.1513009 0.15632 0.1704503 0.1865325 0.1957205 0.1923707 0.1783957 0.1635893 0.1585996
 0.165291 0.1754758 0.1800904 0.1774169 0.1718301 0.1681105 0.168656 0.1731118 0.1787804 0.1831324
 0.1858243 0.1859264 0.1792129 0.1632508 0.1442332 0.1329291 0.1334932 0.1413139 0.1516286 0.1638002
 0.1757331 0.1809423 0.1758607 0.1666019 0.1637641 0.1711742 0.1825993 0.1893647 0.1889383 0.1853949
 0.1831125 0.1821037 0.1801899 0.1780531 0.1794361 0.1859765 0.1943455 0.1999573 0.2017451 0.201768
 0.2017138 0.2016218 0.2010603 0.1998781 0.1981241 0.1961724 0.1946201 0.1936019 0.1926545 0.1914099
 0.1895993 0.186056 0.1789784 0.1685335 0.1584914 0.1532833 0.1533439 0.1553903 0.1572649 0.1592053
 0.1593436 0.1524072 0.1366575 0.1196253 0.1126561 0.1199643 0.1354891 0.1497946 0.1572695 0.1566299
 0.1481598 0.1339958 0.1205039 0.1162849 0.1251624 0.1425233 0.1602664 0.1737631 0.1823526 0.1855101
 0.1821237 0.1733843 0.1638963 0.1590627 0.1618319 0.1713843 0.1833484 0.1908784 0.188014 0.1756439
 0.1641935 0.1659245 0.1820142 0.2005311 0.2098365 0.2103855 0.209966 0.2115841 0.2119862 0.2102306
 0.2111013 0.2185494 0.2298611 0.2383163 0.2390875 0.2311539 0.2166428 0.2012458 0.1927384 0.1947842
 0.2028051 0.2089779 0.2098243 0.2057762 0.1965278 0.1828857 0.1716408 0.1715156 0.1830419 0.1973554
 0.2062718 0.2097463 0.2122078 0.2149131 0.2144314 0.2078627 0.1976793 0.1902038 0.189361 0.1932479
 0.1973689 0.1993803 0.1991546 0.1961148 0.1895818 0.1817473 0.1777101 0.1810792 0.1902614 0.1999532
 0.205878 0.207473 0.2066669 0.2053593 0.2041185 0.202327 0.1994823 0.1968884 0.1973956 0.2023207
 0.2092874 0.2146404 0.2176231 0.220616 0.2253893 0.2306378 0.2335508 0.2328776 0.2301302 0.2282896
 0.2294351 0.2330926 0.2365717 0.2372522 0.2350746 0.232825 0.233566 0.2377158 0.2429839 0.2469764
 0.2491506 0.250328 0.2512911 0.2521091 0.2520959 0.2503342 0.2469957 0.2441311 0.2442276 0.2477352
 0.2526261 0.2564802 0.2584316 0.2590395 0.2589767 0.2583237 0.2569433 0.255113 0.2535506 0.2528493
 0.2530508 0.2537994 0.2547333 0.2556353 0.2563849 0.2569413 0.2573395 0.2576278 0.2578409 0.2580343
 0.2582589 0.2584801 0.2586122 0.2586718 0.258813 0.2591462 0.2595842 0.2599316 0.2600653 0.2599401
 0.2594776 0.2585881 0.2573119 0.2558151 0.2542038 0.2524528 0.2506259 0.2491232 0.2485653 0.2493328
 0.2512191 0.253561 0.2556877 0.2572451 0.2581982 0.2586784 0.2588683 0.2589377 0.2589902 0.2590411
 0.2590553 0.2590048 0.2588892 0.2587193 0.2585081 0.2582855 0.2580999 0.2579818 0.2579095 0.2578224
 0.2576617 0.2573968 0.2570295 0.2565867 0.2560998 0.255574 0.2549777 0.2542707 0.2534476 0.2525561
 0.2516752 0.2508682 0.2501427 0.2494466 0.2487091 0.2478858 0.246952 0.2458667 0.2445955 0.243189
 0.241784 0.2404878 0.239288 0.2380945 0.2368321 0.2354678 0.2339973 0.2324436 0.2308527 0.2292665
 0.227705 0.2261727 0.2246673 0.2231817 0.2217085 0.2202412 0.2187671 0.2172685 0.2157328 0.2141533
 0.212505 0.2107149 0.2086599 0.2062029 0.2032338 0.1996889 0.1955673 0.1909553 0.1860264 0.180995
 0.176056 0.1713538 0.1669895 0.1630468 0.1596133 0.1567711 0.1545709 0.1530266 0.1521401 0.1519177
 0.1523602 0.1534442 0.1551056 0.1572266 0.1596414 0.1621629 0.1646152 0.1668659 0.1688593 0.1706315
 0.1722741 0.1738624 0.1754106 0.1768978 0.1783229 0.1797055 0.1810306 0.1822295 0.1832348 0.1840305
 0.1846362 0.1850707 0.1853517 0.1855124 0.1856018 0.1856724 0.1857649 0.1858985 0.1860784 0.1863131
 0.1866148 0.1869852 0.187416 0.1879002 0.1884375 0.1890307 0.189677 0.1903604 0.1910599 0.1917714
 0.1925091 0.1932886 0.1941313 0.1950829 0.1961983 0.1975019 0.1989774 0.2005871 0.2022822 0.2039972
 0.2056519 0.2071689 0.2084977 0.2096308 0.2105938 0.2114232 0.2121573 0.2128283 0.2134409 0.213968
 0.2143783 0.2146522 0.2147729 0.2147341 0.2145607 0.2142918 0.2139466 0.2135295 0.2130578 0.2125565
 0.2120353 0.2114916 0.2109343 0.2103885 0.2098774 0.2093978 0.2089194 0.2084113 0.2078685 0.2073011
 0.2067052 0.2060556 0.2053223 0.2044918 0.2035751 0.2025914 0.2015373 0.2003868 0.1991288 0.1977857
 0.1963855 0.194935 0.1934278 0.1918639 0.1902541 0.1886051 0.1868959 0.1850798 0.1831343 0.1811077
 0.1790979 0.1771903 0.1754228 0.1737869 0.1722427 0.1707507 0.1693071 0.1679367 0.1666492 0.1654263
 0.1642495 0.1631195 0.1620438 0.1610234 0.160057 0.1591546 0.1583388 0.1576258 0.1570059 0.1564524
 0.1559472 0.1554913 0.1551009 0.1548052 0.1546291 0.1545598 0.1545388 0.1545003 0.1544092 0.1542629
 0.1540758 0.1538731 0.1536857 0.153536 0.1534178 0.153285 0.1530635 0.1526763 0.152055 0.1511405
 0.1499035 0.1483696 0.1466167 0.1447513 0.1428957 0.1411726 0.1396751 0.1384519 0.1375089 0.1368048
 0.1362561 0.1357856 0.1353796 0.1350939 0.1349987 0.1350963 0.1352742 0.1353714 0.1353281 0.1352507
 0.1353096 0.1355999 0.1361026 0.1367201 0.1373265 0.1378271 0.1381917 0.1384309 0.1385604 0.1385967
 0.1385514 0.1384168 0.1381865 0.1378846 0.137553 0.1372157 0.1368645 0.1364615 0.1359648 0.1353683
 0.1346992 0.1339698 0.1331679 0.1322804 0.1312784 0.1301219 0.1288604 0.1277078 0.126943 0.1267314
 0.1270397 0.1276821 0.1284586 0.1292798 0.1301032 0.1307449 0.1309448 0.1307634 0.1307739 0.1316371
 0.1334635 0.1357007 0.1376374 0.1389074 0.1395085 0.1395325 0.1390388 0.1380834 0.136689 0.1348208
 0.1324961 0.1298452 0.127014 0.1241246 0.1213405 0.1188241 0.1166485 0.1148347 0.1134031 0.112414
 0.1119922 0.1117717 0.1099746 0.1043524 0.0956476 0.08912265 0.09013557 0.09811679 0.1069691 0.1115134
 0.111611 0.1100162 0.1086218 0.1077172 0.1072266 0.1073038 0.1080682 0.1093569 0.1107624 0.1118835
 0.11258 0.112919 0.1128815 0.1121481 0.1100468 0.1057719 0.09903192 0.09063439 0.08220132 0.0751999
 0.07029098 0.06737161 0.0658893 0.06515834 0.06470025 0.06445886 0.06469344 0.06566554 0.06742569 0.06984901
 0.07276432 0.07593606 0.0789796 0.08150788 0.08342327 0.08491647 0.08614638 0.08706254 0.08754727 0.08758257
 0.08725178 0.08667915 0.08598636 0.0852427 0.08442615 0.08346023 0.08234584 0.08127201 0.08051526 0.08017686
 0.08009884 0.08007753 0.08004978 0.08003654 0.08003835 0.08004251 0.08005203 0.08009402 0.08023737 0.08054884
 0.08098878 0.08141109 0.0816908 0.08181345 0.08184832 0.08184147 0.08170468 0.08128538 0.08063762 0.08006876
 0.07972427 0.07929381 0.0784059 0.07720883 0.07628466 0.07602545 0.0762989 0.07669224 0.07689522 0.07683977
 0.07665606 0.07659988 0.07689677 0.07748476</values></Ydata></ScSm><ScRf><Ydata ylabel="Single channel"><values byteorder="INTEL" format="FLOAT32" numvalues="1820"> 0.06081818 0.06097145 0.06106108 0.06109042 0.06108444 0.06108868 0.061153 0.06129907 0.06149999 0.06169303
 0.06182244 0.0618768 0.06187817 0.06184103 0.06177261 0.06171495 0.06174208 0.06188791 0.06209604 0.06225749
 0.06229835 0.06224408 0.06220491 0.06226869 0.06238294 0.06236674 0.06207962 0.06158265 0.06110062 0.06081328
 0.06074255 0.06088629 0.06132997 0.06202744 0.0625547 0.0624112 0.06164308 0.06087928 0.06063107 0.06080135
 0.06097344 0.06089674 0.06056656 0.06013384 0.05995146 0.06047641 0.06181854 0.06337196 0.0640356 0.06290853
 0.0599329 0.05609656 0.05306754 0.05229903 0.05400626 0.05687668 0.05905593 0.05962694 0.05904843 0.05821463
 0.05748961 0.05682421 0.0563863 0.05660032 0.05756363 0.05864557 0.05881394 0.05752395 0.05536778 0.0536493
 0.0531906 0.05381981 0.05507569 0.05670945 0.05797139 0.05720878 0.0534955 0.04868796 0.04659351 0.0493498
 0.05514213 0.05997487 0.06122248 0.05910356 0.05552524 0.05250344 0.0513957 0.05253429 0.05517568 0.05811835
 0.06042797 0.06147554 0.06077513 0.05841017 0.0554487 0.05342478 0.053397 0.05553538 0.05908585 0.0624375
 0.06385426 0.06275721 0.06010945 0.05739923 0.05566154 0.05548289 0.05714722 0.06034227 0.06413652 0.06751668
 0.06980178 0.07071738 0.07045716 0.06956121 0.06850565 0.06761593 0.06734413 0.06799225 0.06897779 0.06905697
 0.06767725 0.06571912 0.06459343 0.06478698 0.06547673 0.0655308 0.06465258 0.06319976 0.06106749 0.05766264
 0.05326224 0.04938162 0.04726219 0.0469253 0.04806893 0.05054849 0.05331735 0.05436792 0.05292653 0.05085156
 0.05078713 0.05334168 0.05677669 0.05913217 0.06004361 0.06060141 0.06194896 0.06411361 0.06586316 0.06563279
 0.0630736 0.05992636 0.0587924 0.06057972 0.06363061 0.06576544 0.06658526 0.06722508 0.06836666 0.06917456
 0.06816635 0.06497428 0.06128099 0.0597738 0.0618037 0.06603494 0.06941489 0.06942762 0.06578638 0.0605026
 0.05631957 0.05481195 0.05596984 0.05925103 0.06418059 0.06978628 0.07434753 0.07636008 0.07562561 0.07317442
 0.07008547 0.06648532 0.0621044 0.05793742 0.05645335 0.05926695 0.06507438 0.07073695 0.07408087 0.07498415
 0.07415783 0.07180283 0.06781411 0.06309031 0.05996418 0.06038747 0.06357583 0.0664518 0.06686443 0.06555203
 0.06456529 0.06471939 0.06528164 0.06553304 0.06579603 0.06687861 0.06891282 0.07103629 0.07222299 0.07221623
 0.07158183 0.0710492 0.07084474 0.07052404 0.0696035 0.06853463 0.06864341 0.07067353 0.07375695 0.07630475
 0.07760066 0.07805638 0.07813797 0.07754636 0.07564228 0.07263425 0.07006713 0.069676 0.07170856 0.07476763
 0.07726636 0.07857329 0.07886841 0.07856852 0.0780426 0.07749334 0.0770178 0.07686369 0.07736874 0.07847788
 0.07963067 0.08032188 0.08051503 0.0803899 0.07998518 0.0792792 0.07844995 0.07786961 0.07783546 0.07835104
 0.07917783 0.08004601 0.08074366 0.08107571 0.08093763 0.08046846 0.07997024 0.07963163 0.07945667 0.07945339
 0.07970501 0.08020467 0.08076799 0.08118662 0.08139239 0.08143447 0.08136921 0.08122005 0.08101119 0.08081025
 0.08073066 0.08085459 0.08113182 0.08141202 0.08162059 0.08183202 0.08210644 0.08233599 0.08235688 0.08216901
 0.08194876 0.08186029 0.08192404 0.08205729 0.08216675 0.08216998 0.08198684 0.08160731 0.08118719 0.0809909
 0.08117966 0.08169384 0.08235212 0.0829851 0.08346313 0.08371492 0.08377859 0.08376276 0.08372085 0.08361506
 0.08341676 0.0831988 0.08311395 0.08328287 0.08368651 0.08417068 0.08457005 0.08481279 0.08491848 0.08496314
 0.0850513 0.08523414 0.0854298 0.08550043 0.08542809 0.08534761 0.08538628 0.08552255 0.0856234 0.0855976
 0.08549727 0.08546579 0.0855883 0.08581298 0.08602763 0.08618587 0.08633451 0.0865263 0.08672371 0.08680873
 0.08671068 0.08650704 0.08634943 0.08629986 0.08630566 0.08633304 0.08643425 0.08664454 0.08688351 0.08702432
 0.08703833 0.08701958 0.08706243 0.08714973 0.08717975 0.08708455 0.08689895 0.0867217 0.0866339 0.08665279
 0.08673605 0.08681425 0.08683063 0.08676974 0.08665761 0.08653484 0.08643137 0.08637209 0.08639754 0.0865476
 0.08679758 0.0870238 0.08707565 0.08690837 0.08663674 0.08643572 0.08638169 0.08639584 0.08634035 0.08615401
 0.08588986 0.08564268 0.08546408 0.08534233 0.08523894 0.08513546 0.08505929 0.08506996 0.08519909 0.08538526
 0.08548843 0.08540337 0.08515881 0.08488432 0.0846907 0.08460276 0.08458266 0.08457987 0.08457284 0.08458897
 0.08466378 0.08476557 0.08480307 0.08473197 0.08461414 0.08455284 0.08460937 0.08478345 0.08501327 0.08518356
 0.08519997 0.08508542 0.08496387 0.08493395 0.08499186 0.08508064 0.08516817 0.08525608 0.08534725 0.0854405
 0.08555183 0.08571457 0.08594643 0.08622073 0.08647613 0.08665927 0.08676828 0.08686137 0.08701698 0.08727309
 0.08759797 0.08791733 0.08817249 0.08836064 0.08852434 0.08870067 0.08888949 0.08908154 0.08929802 0.0895706
 0.08988938 0.09020691 0.09049524 0.09077044 0.09105948 0.09136777 0.09168458 0.09200819 0.09236039 0.0927663
 0.09320425 0.09358961 0.09384148 0.09396929 0.09407501 0.09427245 0.09460704 0.0950225 0.09538688 0.0955914
 0.09566113 0.09573938 0.09593186 0.09619984 0.09644595 0.09666725 0.09696086 0.09738316 0.09785827 0.0982473
 0.09848444 0.0986269 0.09877922 0.09898112 0.09917772 0.09930103 0.09936239 0.09943846 0.09957576 0.09975503
 0.09996136 0.1002354 0.1006131 0.1010485 0.1014434 0.1017386 0.101941 0.1020824 0.1021866 0.1022648
 0.1023135 0.1023318 0.1023506 0.1024151 0.1025225 0.1026133 0.1026481 0.1026627 0.1027246 0.1028683
 0.1030922 0.1033858 0.1037189 0.1040338 0.1042953 0.1045476 0.1048687 0.105253 0.1055837 0.1057569
 0.1057963 0.1058023 0.1058251 0.1058514 0.1058962 0.1060282 0.1062868 0.1066307 0.1069906 0.1073374
 0.1076797 0.1080185 0.108324 0.108549 0.1086615 0.1086719 0.1086357 0.108632 0.108729 0.108952
 0.1092678 0.1096042 0.1098953 0.1101032 0.1102038 0.1101882 0.1101045 0.1100662 0.110166 0.1103733
 0.1105457 0.1105493 0.1103457 0.1099662 0.1094451 0.1088081 0.1081081 0.1074343 0.1068745 0.1064755
 0.1062498 0.1062175 0.1064218 0.1068805 0.107528 0.1082326 0.1088764 0.1093886 0.1097007 0.1097234
 0.1094107 0.1088219 0.1080906 0.1073414 0.1066472 0.1060263 0.1054484 0.1048765 0.1043489 0.1040166
 0.1040728 0.1046355 0.1056875 0.1070911 0.108635 0.110101 0.1113404 0.1123247 0.1131244 0.1138318
 0.1145032 0.115163 0.1158299 0.1165043 0.1171437 0.1176945 0.1181537 0.1185695 0.1189806 0.1193792
 0.1197335 0.1200199 0.1202421 0.1204359 0.1206382 0.1208298 0.1209375 0.1209161 0.1208045 0.1206752
 0.1205521 0.1203976 0.120157 0.1198027 0.119366 0.1189616 0.1187735 0.1189791 0.1196479 0.1206976
 0.1219554 0.1232696 0.1245513 0.1257226 0.1266833 0.1273686 0.1278139 0.1281258 0.1283997 0.1286829
 0.1289887 0.1293111 0.1296313 0.1299303 0.130204 0.1304698 0.1307583 0.1310881 0.1314377 0.1317542
 0.1320051 0.1322208 0.1324735 0.1328106 0.1332088 0.1335982 0.1339365 0.1342464 0.1345654 0.134878
 0.1351314 0.1353101 0.1354619 0.135652 0.1359202 0.1362694 0.1366583 0.1370099 0.137265 0.137436
 0.1375882 0.1377725 0.1379936 0.1382343 0.1384834 0.1387364 0.1389903 0.1392521 0.139542 0.1398664
 0.1401882 0.140444 0.140608 0.1407253 0.1408685 0.1410694 0.1413021 0.1415234 0.1417214 0.1419266
 0.1421798 0.1424867 0.142802 0.1430653 0.1432507 0.1433814 0.1435028 0.1436481 0.1438274 0.1440356
 0.14426 0.1444829 0.14469 0.1448828 0.1450788 0.1452911 0.1455128 0.1457285 0.1459354 0.1461458
 0.1463684 0.1465962 0.1468183 0.1470422 0.1472926 0.1475761 0.1478581 0.1480878 0.1482461 0.1483604
 0.1484753 0.1486208 0.1488016 0.1490051 0.1492153 0.1494233 0.1496276 0.1498281 0.1500256 0.1502236
 0.1504247 0.1506273 0.15083 0.1510364 0.1512524 0.1514795 0.1517125 0.1519413 0.1521574 0.1523575
 0.1525446 0.1527261 0.1529117 0.1531077 0.1533104 0.1535103 0.1537032 0.1538935 0.1540867 0.1542826
 0.1544764 0.1546638 0.1548457 0.1550299 0.1552231 0.1554232 0.155622 0.1558147 0.1560054 0.1562035
 0.156415 0.1566345 0.1568466 0.1570407 0.1572202 0.1573983 0.1575878 0.1577954 0.1580174 0.1582394
 0.158445 0.1586299 0.1588045 0.1589843 0.1591761 0.1593738 0.1595672 0.1597543 0.1599438 0.1601443
 0.1603563 0.1605724 0.1607819 0.1609796 0.1611747 0.1613828 0.1616068 0.1618316 0.162043 0.1622427
 0.1624431 0.1626537 0.1628735 0.163095 0.163314 0.1635338 0.1637567 0.163978 0.1641911 0.1643926
 0.1645831 0.1647671 0.1649499 0.16513 0.1652999 0.1654597 0.1656204 0.1657908 0.1659718 0.1661634
 0.1663654 0.1665734 0.1667815 0.166988 0.1671931 0.1673957 0.1675955 0.1677917 0.167982 0.1681681
 0.1683564 0.1685526 0.1687583 0.168972 0.1691867 0.1693946 0.1695991 0.1698094 0.1700243 0.1702341
 0.1704393 0.1706516 0.1708764 0.1711069 0.1713295 0.1715347 0.1717275 0.1719264 0.1721433 0.1723711
 0.1725952 0.1728065 0.1730037 0.1731946 0.1733926 0.1736032 0.1738204 0.1740384 0.1742564 0.1744719
 0.1746861 0.1749061 0.1751305 0.1753474 0.1755536 0.1757595 0.1759726 0.1761923 0.1764166 0.176639
 0.1768527 0.1770615 0.1772691 0.1774568 0.1775752 0.1775087 0.1769753 0.1754193 0.1719997 0.1657593
 0.1560104 0.1427761 0.126937 0.1099134 0.09313983 0.07769498 0.06420869 0.05295577 0.04399453 0.03724989
 0.03256907 0.02982184 0.02900227 0.03032564 0.03433532 0.04158359 0.05141526 0.06088209 0.06588459 0.06440938
 0.05845805 0.052223 0.04860071 0.04779099 0.04854989 0.04981554 0.05125194 0.05305812 0.05557653 0.05890734
 0.0628875 0.06750381 0.07309861 0.0799309 0.08764496 0.09541473 0.1026537 0.1094795 0.1164436 0.1238721
 0.131521 0.1388146 0.1453079 0.1509161 0.1558245 0.1602791 0.1644465 0.1684012 0.1721774 0.1757684
 0.1790457 0.1817277 0.1835161 0.1843223 0.1843748 0.1840894 0.1838206 0.1837228 0.1838058 0.1840509
 0.1844488 0.1849831 0.1856307 0.1863709 0.1871768 0.1880133 0.1888489 0.1896629 0.1904433 0.1911839
 0.1918789 0.1925178 0.1930927 0.1936078 0.1940737 0.1944987 0.1948935 0.1952712 0.1956381 0.195992
 0.1963289 0.1966462 0.1969407 0.1972121 0.1974643 0.197701 0.1979249 0.1981408 0.1983525 0.1985598
 0.1987638 0.1989704 0.1991844 0.1994058 0.1996307 0.1998512 0.2000596 0.2002552 0.2004439 0.2006283
 0.2008074 0.2009835 0.2011616 0.2013423 0.2015244 0.2017113 0.2019075 0.2021111 0.2023143 0.2025096
 0.2026959 0.2028816 0.2030769 0.2032816 0.2034883 0.2036974 0.2039161 0.2041427 0.2043662 0.2045819
 0.204794 0.2050044 0.2052113 0.2054138 0.2056086 0.2057874 0.2059479 0.2061046 0.2062811 0.2064903
 0.2067211 0.2069467 0.2071507 0.2073417 0.207538 0.2077439 0.2079462 0.2081289 0.2082944 0.2084739
 0.2087014 0.2089705 0.2092385 0.2094819 0.2097165 0.2099578 0.2101986 0.2104319 0.2106559 0.2108513
 0.2109946 0.2111056 0.2112574 0.2115193 0.2118872 0.2122765 0.2125959 0.21283 0.2130345 0.2132661
 0.2135405 0.2138208 0.2140112 0.2140239 0.213916 0.2139075 0.2141838 0.2147131 0.2153047 0.2158008
 0.2161701 0.2164614 0.2167209 0.2169433 0.2170782 0.2170905 0.2170368 0.2170736 0.2173477 0.2178485
 0.2184049 0.2188537 0.2191657 0.2193925 0.2195771 0.2197421 0.2198528 0.219767 0.2193843 0.2189116
 0.2188114 0.2193522 0.2203024 0.2211783 0.2217254 0.2220456 0.2223186 0.2225831 0.222796 0.2228726
 0.2225741 0.2216439 0.2203071 0.2194098 0.2197168 0.2211391 0.2228807 0.2242361 0.2250314 0.225443
 0.2256936 0.2259061 0.2260096 0.2257417 0.2249415 0.2239424 0.2234894 0.2240536 0.2253045 0.2264661
 0.2271111 0.2273876 0.2276034 0.2278793 0.2280681 0.2277113 0.2262962 0.2240139 0.222143 0.2221482
 0.2242465 0.2271476 0.2293329 0.2303592 0.2307408 0.2308328 0.2303083 0.2287478 0.2262722 0.2234946
 0.2213214 0.2208169 0.2224986 0.2254656 0.2279131 0.2289133 0.2291997 0.2299665 0.2314454 0.2329188
 0.2336462 0.2334375 0.232525 0.2311528 0.2294577 0.2278449 0.2272188 0.2283415 0.2309065 0.2336482
 0.2355143 0.2364636 0.2369097 0.2364822 0.2337842 0.2280689 0.2213245 0.2177143 0.2199003 0.2262642
 0.2326503 0.2364549 0.2380536 0.2388372 0.2393439 0.2391133 0.2369643 0.2316441 0.2238032 0.2172256
 0.2162697 0.2215585 0.2292751 0.234729 0.2355473 0.2319134 0.2257223 0.2200225 0.2177717 0.2200454
 0.2255696 0.2319814 0.2372408 0.2401886 0.2405464 0.2388194 0.2362631 0.234566 0.23462 0.2352008
 0.2339074 0.2301931 0.2262778 0.2238938 0.2216106 0.2174789 0.2133085 0.2134746 0.2192324 0.2266149
 0.2308882 0.231349 0.2304742 0.2294124 0.226025 0.2179656 0.2071175 0.199698 0.2008287 0.2092169
 0.2183066 0.2227028 0.2224631 0.2211779 0.2211757 0.2211462 0.2179845 0.2108467 0.2032271 0.200031
 0.2023549 0.2065048 0.2083745 0.2067205 0.2017137 0.1936232 0.1851983 0.1825372 0.1899468 0.2046771
 0.2190669 0.2268546 0.2254836 0.2147385 0.1976283 0.1822299 0.1777703 0.1863622 0.2004297 0.2096711
 0.20924 0.2006247 0.1872473 0.172118 0.159236 0.1540425 0.1601734 0.1757632 0.1934399 0.2039737
 0.2013881 0.187639 0.173065 0.168955 0.1772469 0.1891567 0.1949976 0.192965 0.1877764 0.1846154
 0.1861491 0.1920182 0.1992191 0.2049383 0.208796 0.2096624 0.2026479 0.1849746 0.1637278 0.1511775
 0.152045 0.161106 0.1730021 0.1870449 0.2008027 0.2068044 0.2009621 0.1903057 0.1869866 0.1953758
 0.2083291 0.2159297 0.2153023 0.2111262 0.208419 0.2072035 0.2050077 0.2026382 0.2043818 0.2120858
 0.221921 0.2286536 0.2310924 0.2316094 0.2321287 0.2326647 0.2326791 0.2319727 0.2306145 0.22907
 0.2280535 0.2277253 0.2275416 0.2270721 0.2259867 0.2228259 0.2153073 0.2035348 0.1920468 0.1862223
 0.186579 0.1891403 0.1913531 0.1935759 0.1935598 0.1848973 0.1654845 0.1444607 0.1355532 0.1438089
 0.1618393 0.1782437 0.1863396 0.1847305 0.1739054 0.156451 0.1397602 0.1337018 0.1425699 0.160966
 0.1795686 0.1931589 0.2011902 0.2033235 0.198456 0.1879076 0.1766894 0.1706293 0.172825 0.182292
 0.1942914 0.2015424 0.1977867 0.1840156 0.1712083 0.1722211 0.188296 0.2069866 0.2161542 0.2162569
 0.2153901 0.2166944 0.2168174 0.2147877 0.2155482 0.2231954 0.2349672 0.2439691 0.2452276 0.2376571
 0.2234198 0.2084127 0.200726 0.2041246 0.2137043 0.2211646 0.2228024 0.219034 0.2095245 0.1952308
 0.183554 0.1838866 0.1967419 0.2125414 0.2224949 0.2266014 0.2296573 0.2330006 0.232889 0.2261715
 0.2155534 0.2079339 0.2075853 0.2124164 0.2175219 0.2203611 0.2207852 0.2180971 0.2114831 0.2033603
 0.1994175 0.2036686 0.214275 0.2252397 0.2317501 0.23318 0.2316932 0.2294228 0.2270327 0.2238812
 0.2194503 0.2152115 0.2143438 0.2183498 0.2246762 0.2293359 0.231465 0.2336212 0.237758 0.2425409
 0.2449833 0.243715 0.2402872 0.237812 0.2384575 0.2417289 0.2448423 0.2451 0.2424562 0.239803
 0.2403103 0.2444013 0.2496951 0.2537149 0.2559053 0.2571138 0.2581365 0.2590244 0.2590467 0.2572406
 0.253775 0.2507529 0.2507219 0.2541429 0.2589512 0.2626967 0.2645282 0.2650428 0.2649271 0.264244
 0.2628392 0.2609935 0.2594399 0.2587822 0.2590552 0.2598745 0.2608379 0.2617067 0.262373 0.2628262
 0.2631219 0.2633121 0.2634296 0.2635276 0.2636442 0.2637186 0.263653 0.2634923 0.2634433 0.2636462
 0.2639968 0.2642612 0.2642954 0.2640651 0.2635174 0.2625811 0.2613022 0.2598468 0.2583157 0.2566661
 0.2549375 0.2535189 0.2530433 0.2539124 0.2559232 0.2583862 0.260597 0.2621937 0.2631633 0.2636586
 0.2638588 0.2639145 0.2639155 0.2638773 0.2637709 0.2635719 0.2632846 0.2629337 0.2625505 0.2621683
 0.2618196 0.2615232 0.2612634 0.2609895 0.2606454 0.2602067 0.2596923 0.2591456 0.2585971 0.2580347
 0.2574085 0.2566695 0.2558087 0.2548659 0.253914 0.2530259 0.2522276 0.2514768 0.2507078 0.2498885
 0.2490072 0.2480227 0.2468974 0.2456962 0.244588 0.243706 0.2430325 0.2424431 0.2418222 0.241105
 0.2402594 0.239285 0.2382229 0.2371245 0.2360099 0.2348672 0.2336758 0.2324192 0.2310882 0.2296835
 0.2282064 0.2266518 0.2250265 0.2233601 0.2216686 0.2199031 0.2179469 0.2156559 0.2128985 0.2095797
 0.2056681 0.2012236 0.1964029 0.1914258 0.1865123 0.1818317 0.1774977 0.1735998 0.1702256 0.167456
 0.1653491 0.1639315 0.1632078 0.1631807 0.1638556 0.165217 0.1671987 0.1696782 0.1724955 0.175476
 0.1784471 0.181258 0.1838195 0.1861442 0.1883211 0.1904177 0.192413 0.1942419 0.1958766 0.1973273
 0.1985917 0.1996516 0.2005162 0.2012308 0.2018385 0.2023553 0.2027837 0.2031338 0.2034218 0.2036574
 0.2038454 0.2040034 0.2041629 0.204348 0.2045621 0.2048003 0.205066 0.205376 0.2057543 0.2062131
 0.2067337 0.2072806 0.2078402 0.2084269 0.2090527 0.209716 0.2104297 0.2112366 0.2121839 0.2132904
 0.2145397 0.2158894 0.2172758 0.2186152 0.2198179 0.2208145 0.2215742 0.2220962 0.222395 0.2224969
 0.2224377 0.2222508 0.2219601 0.2215842 0.2211368 0.2206204 0.220035 0.2193958 0.218728 0.2180428
 0.2173341 0.2166035 0.2158745 0.2151717 0.2144961 0.2138334 0.2131815 0.212554 0.2119578 0.2113845
 0.2108254 0.210279 0.2097377 0.2091827 0.208601 0.2079909 0.2073401 0.2066128 0.2057757 0.2048306
 0.2038037 0.2027092 0.2015385 0.2002813 0.1989385 0.1975155 0.1960174 0.1944517 0.1928254 0.1911348
 0.1893571 0.1874614 0.1854466 0.1833768 0.181362 0.1794902 0.1777799 0.1761976 0.1747028 0.173274
 0.1719062 0.1705983 0.1693462 0.1681523 0.1670305 0.1659873 0.165005 0.16406 0.1631574 0.162334
 0.1616263 0.1610374 0.1605351 0.1600832 0.1596712 0.1593102 0.1590163 0.1588147 0.1587355 0.1587749
 0.1588699 0.1589339 0.1589144 0.158814 0.1586718 0.1585296 0.1584071 0.1583077 0.1582358 0.1581793
 0.1580723 0.1578016 0.1572559 0.1563682 0.1551318 0.1535964 0.1518469 0.1499875 0.1481452 0.1464532
 0.145008 0.143852 0.1429861 0.142365 0.1418946 0.1414866 0.141126 0.140875 0.1408157 0.1409706
 0.1412441 0.1414687 0.1415565 0.1415873 0.1417298 0.1421058 0.1427301 0.1435138 0.1443107 0.1450016
 0.1455391 0.1459137 0.1461283 0.1462142 0.1462163 0.1461549 0.1460327 0.1458567 0.1456268 0.1453359
 0.1449898 0.144588 0.144104 0.1435207 0.1428534 0.1421168 0.1413151 0.1404507 0.1394876 0.1383647
 0.1371303 0.1360124 0.1352893 0.1351216 0.1355005 0.1362776 0.1372571 0.1383159 0.1393727 0.140223
 0.1406041 0.1405824 0.1407393 0.1417542 0.1437647 0.1462182 0.1483616 0.1497891 0.1504958 0.1505899
 0.1501409 0.149206 0.1477949 0.1458515 0.1433945 0.140575 0.1375386 0.1343972 0.1313459 0.1286113
 0.1263035 0.1244355 0.1229954 0.1220144 0.1216194 0.1214333 0.1195429 0.1135055 0.104137 0.09717223
 0.0984163 0.1072005 0.1168699 0.1218122 0.121917 0.1202172 0.1187786 0.1178733 0.1173595 0.1173869
 0.1181135 0.1194042 0.1208508 0.1220311 0.1227789 0.1231492 0.1231148 0.1223114 0.1199837 0.115262
 0.1078604 0.09866302 0.0894167 0.0817214 0.07632176 0.07312395 0.07152899 0.07077016 0.07028422 0.06998931
 0.07020018 0.07124388 0.07318009 0.07585782 0.07908182 0.08258777 0.08595492 0.08877659 0.09095605 0.09268516
 0.09411131 0.09515973 0.09569178 0.09569973 0.09530571 0.09466462 0.09391116 0.09312636 0.09228268 0.0912635
 0.0900392 0.08882369 0.08794478 0.08753426 0.08744085 0.08744464 0.08743628 0.08739391 0.08732394 0.08725214
 0.0872016 0.08718984 0.08727401 0.08752891 0.08794056 0.08838046 0.08871289 0.0888999 0.08899583 0.08902346
 0.08884883 0.08829153 0.08743957 0.08667077 0.08617209 0.0856182 0.08460273 0.08327575 0.0822626 0.08198003
 0.08226095 0.08263531 0.08276565 0.08259383 0.08229141 0.08217867 0.08251753 0.08320668 0.08376892 0.08379377
</values></Ydata></ScRf><Data_Parameters_AB><parameter name="DPF">1</parameter><parameter name="NPT">3497</parameter><parameter name="FXV">3996</parameter><parameter name="LXV">500</parameter><parameter name="CSF">1</parameter><parameter name="MXY">0.0853599831461906</parameter><parameter name="MNY">-0.0690133571624756</parameter><parameter name="DAT">31/05/2022</parameter><parameter name="TIM">14:27:39.187 (GMT+2)</parameter><parameter name="DXU">WN</parameter></Data_Parameters_AB><AB__Qtest><MainReport name="Quality Test Report"><Header><Line><Legend>Test result ok/not ok [1/0]: </Legend><Value>0</Value></Line><Line><Legend>Method file: </Legend><Value>C:\Users\Public\Documents\Bruker\OPUS_8.2.28\QT\IRBT_v3_default.QT</Value></Line></Header><Matrix><Line><Legend></Legend><Legend>min</Legend><Legend>max</Legend><Legend>measured</Legend></Line><Line><Value>Absorption (X-Range 1):</Value><Value>0.400000</Value><Value>2.000000</Value><Value>0.105254</Value></Line><Line><Value>Noise (X-Range 4):</Value><Value></Value><Value>0.000300</Value><Value>0.000053</Value></Line><Line><Value>Signal/Noise (X-Range 2):</Value><Value>200.000000</Value><Value></Value><Value>29.701162</Value></Line><Line><Value>Signal/Noise (X-Range 3):</Value><Value>40.000000</Value><Value></Value><Value>29.361941</Value></Line><Line><Value>Water vapour (X-Range 5):</Value><Value></Value><Value>0.000300</Value><Value>0.000055</Value></Line><Line><Value>Signal/Water (X-Range 2):</Value><Value>100.000000</Value><Value></Value><Value>28.133448</Value></Line><Line><Value>Signal/Water (X-Range 3):</Value><Value>20.000000</Value><Value></Value><Value>27.812132</Value></Line><Line><Value>Fringes (X-Range 6):</Value><Value></Value><Value>0.000100</Value><Value>0.000069</Value></Line></Matrix></MainReport></AB__Qtest><Data_Parameters_ScSm><parameter name="DPF">1</parameter><parameter name="NPT">1814</parameter><parameter name="FXV">3996.33169228125</parameter><parameter name="LXV">499.541461535156</parameter><parameter name="CSF">1</parameter><parameter name="MXY">0.260065257549286</parameter><parameter name="MNY">0.0328751355409622</parameter><parameter name="DAT">31/05/2022</parameter><parameter name="TIM">14:27:39.187 (GMT+2)</parameter><parameter name="DXU">WN</parameter></Data_Parameters_ScSm><Data_Parameters_ScRf><parameter name="DPF">1</parameter><parameter name="NPT">1820</parameter><parameter name="FXV">4004.04661832813</parameter><parameter name="LXV">495.683998511719</parameter><parameter name="CSF">1</parameter><parameter name="MXY">0.265042841434479</parameter><parameter name="MNY">0.0290022734552622</parameter><parameter name="DAT">31/05/2022</parameter><parameter name="TIM">14:27:12.655 (GMT+2)</parameter><parameter name="DXU">WN</parameter></Data_Parameters_ScRf><Optic_Parameters_Rf><parameter name="APR">0</parameter><parameter name="APT">Open</parameter><parameter name="BMS">KBr</parameter><parameter name="DTC">RT-DLaTGS_IR-Biotyper [Microplate reader]</parameter><parameter name="HPF">0</parameter><parameter name="LPF">10.0</parameter><parameter name="LPV">4000</parameter><parameter name="PGR">0</parameter><parameter name="RCH">Module port</parameter><parameter name="RDX">0</parameter><parameter name="SRC">MIR</parameter><parameter name="VEL">10.0</parameter><parameter name="SON">Off</parameter></Optic_Parameters_Rf><Acquisition_Parameters_Rf><parameter name="ADT">1</parameter><parameter name="AQM">DD</parameter><parameter name="CFE">0</parameter><parameter name="COR">0</parameter><parameter name="DEL">0</parameter><parameter name="DLY">0</parameter><parameter name="HFW">8000</parameter><parameter name="LFW">0</parameter><parameter name="NSR">32</parameter><parameter name="PLF">AB</parameter><parameter name="RES">6</parameter><parameter name="RGN">-1</parameter><parameter name="STR">0</parameter><parameter name="TCL">MakeCompatibleScalar (0, {WSV=1.000000, ARV=0});</parameter><parameter name="TDL">37</parameter><parameter name="RPO">0</parameter></Acquisition_Parameters_Rf><FT_-_Parameters_Rf><parameter name="APF">B3</parameter><parameter name="HFQ">500</parameter><parameter name="LFQ">4000</parameter><parameter name="NLI">0</parameter><parameter name="PHR">24</parameter><parameter name="PHZ">ML</parameter><parameter name="SPZ">NO</parameter><parameter name="ZFF">1</parameter></FT_-_Parameters_Rf><Optic_Parameters_><parameter name="APR">0</parameter><parameter name="APT">Open</parameter><parameter name="BMS">KBr</parameter><parameter name="CHN">Module port</parameter><parameter name="DTC">RT-DLaTGS_IR-Biotyper [Microplate reader]</parameter><parameter name="HPF">0</parameter><parameter name="LPF">10.0</parameter><parameter name="LPV">4000</parameter><parameter name="PGN">0</parameter><parameter name="RDX">0</parameter><parameter name="SRC">MIR</parameter><parameter name="VEL">10.0</parameter><parameter name="SON">Off</parameter></Optic_Parameters_><FT_-_Parameters_><parameter name="APF">B3</parameter><parameter name="HFQ">500</parameter><parameter name="LFQ">4000</parameter><parameter name="NLI">0</parameter><parameter name="PHR">24</parameter><parameter name="PHZ">ML</parameter><parameter name="SPZ">NO</parameter><parameter name="ZFF">1</parameter></FT_-_Parameters_><Acquisition_Parameters_><parameter name="ADT">1</parameter><parameter name="AQM">DD</parameter><parameter name="CFE">0</parameter><parameter name="COR">0</parameter><parameter name="DEL">0</parameter><parameter name="DLY">0</parameter><parameter name="HFW">8000</parameter><parameter name="LFW">0</parameter><parameter name="NSS">32</parameter><parameter name="PLF">AB</parameter><parameter name="RES">6</parameter><parameter name="SOT">0</parameter><parameter name="TCL">MakeCompatibleScalar (0, {WSV=1.000000, ARV=0});</parameter><parameter name="TDL">37</parameter><parameter name="SPO">0</parameter><parameter name="SGN">-1</parameter></Acquisition_Parameters_><Instrument_Parameters_Rf><parameter name="HFL">15800.168544</parameter><parameter name="LFL">0</parameter><parameter name="LWN">15800.168544</parameter><parameter name="ABP">32197</parameter><parameter name="SSP">1</parameter><parameter name="ARG">2</parameter><parameter name="ASG">2</parameter><parameter name="ASS">32</parameter><parameter name="GFW">16</parameter><parameter name="GBW">16</parameter><parameter name="BFW">0</parameter><parameter name="BBW">0</parameter><parameter name="PKA">7265</parameter><parameter name="PKL">4996</parameter><parameter name="PRA">7447</parameter><parameter name="PRL">5001</parameter><parameter name="P2A">1</parameter><parameter name="P2L">1</parameter><parameter name="P2R">1</parameter><parameter name="P2K">1</parameter><parameter name="DAQ">0</parameter><parameter name="AG2">1</parameter><parameter name="SSM">1</parameter><parameter name="RSN">25797</parameter><parameter name="CRR">0</parameter><parameter name="SRT">1654007232.656</parameter><parameter name="DUR">19.6389923095703</parameter><parameter name="TSC">29.1</parameter><parameter name="MVD">0.224793151021004</parameter><parameter name="AN1">0.225815148818704</parameter><parameter name="AN2">0</parameter><parameter name="VSN">2.485 Apr  4 2017</parameter><parameter name="SRN">0085</parameter><parameter name="CAM">0</parameter><parameter name="INS">IR-Biotyper</parameter><parameter name="FOC">69</parameter><parameter name="RDY">1</parameter><parameter name="ARS">32</parameter></Instrument_Parameters_Rf><Sample_Parameters_><parameter name="BLD"></parameter><parameter name="CNM">Admin</parameter><parameter name="CPY"></parameter><parameter name="DPM"></parameter><parameter name="EXP">IRBT_v3_32Scans.XPM</parameter><parameter name="LCT"></parameter><parameter name="SFM">Microplate, HTS-XT</parameter><parameter name="SNM">220531-1301_RTF49M (D_1)_F10_de3a0ad7-bd1b-4ee1-b052-b7c21a0a5911.0</parameter><parameter name="XPP">C:\Users\Public\Documents\Bruker\OPUS_8.2.28\XPM</parameter><parameter name="IST">OK</parameter><parameter name="CPG">1252</parameter><parameter name="UID">af784143-8e38-44f1-8ffb-dc970fb0cc20</parameter></Sample_Parameters_><Instrument_Parameters_><parameter name="HFL">15800.168544</parameter><parameter name="LFL">0</parameter><parameter name="LWN">15800.168544</parameter><parameter name="ABP">32197</parameter><parameter name="SSP">1</parameter><parameter name="ASG">2</parameter><parameter name="ARG">2</parameter><parameter name="ASS">32</parameter><parameter name="GFW">16</parameter><parameter name="GBW">16</parameter><parameter name="BFW">0</parameter><parameter name="BBW">0</parameter><parameter name="PKA">7468</parameter><parameter name="PKL">4988</parameter><parameter name="PRA">7776</parameter><parameter name="PRL">4993</parameter><parameter name="P2A">1</parameter><parameter name="P2L">1</parameter><parameter name="P2R">1</parameter><parameter name="P2K">1</parameter><parameter name="DAQ">0</parameter><parameter name="AG2">1</parameter><parameter name="SSM">1</parameter><parameter name="RSN">13524</parameter><parameter name="CRR">0</parameter><parameter name="SRT">1654007259.187</parameter><parameter name="DUR">19.6379852294922</parameter><parameter name="TSC">29.1</parameter><parameter name="MVD">0.22975791990757</parameter><parameter name="AN1">0.225800861789374</parameter><parameter name="AN2">0</parameter><parameter name="VSN">2.485 Apr  4 2017</parameter><parameter name="SRN">0085</parameter><parameter name="CAM">0</parameter><parameter name="INS">IR-Biotyper</parameter><parameter name="FOC">69</parameter><parameter name="RDY">1</parameter></Instrument_Parameters_><History/></OPUSDataFile>
