<?xml version="1.0" encoding="UTF-8" ?>
<OPUSDataFile><AB><Ydata ylabel="Absorbance Units"><values byteorder="INTEL" format="FLOAT32" numvalues="3497"> -0.0609474 -0.06095897 -0.06097059 -0.06098275 -0.06098725 -0.06098372 -0.06097642 -0.06096629 -0.06096665 -0.06097782
 -0.06100994 -0.06105977 -0.06112261 -0.06119277 -0.06125405 -0.0613044 -0.06133132 -0.06134065 -0.06133278 -0.06131743
 -0.06130268 -0.06129332 -0.06129563 -0.06130503 -0.06132235 -0.0613381 -0.06135018 -0.06135197 -0.06134164 -0.06131954
 -0.06128523 -0.06124381 -0.06119552 -0.06114785 -0.06110141 -0.06106593 -0.06104192 -0.06103823 -0.0610531 -0.06108649
 -0.06113336 -0.06118219 -0.06122874 -0.06125972 -0.06127699 -0.06127588 -0.06126442 -0.06124669 -0.06123098 -0.0612235
 -0.06122635 -0.0612436 -0.0612664 -0.06129478 -0.06131329 -0.06131894 -0.06130533 -0.0612704 -0.06122772 -0.06117792
 -0.06114386 -0.0611259 -0.06113499 -0.06116864 -0.061218 -0.06127984 -0.06133767 -0.06139084 -0.06142928 -0.06145461
 -0.06146409 -0.06146196 -0.06145054 -0.06143743 -0.06142975 -0.06143103 -0.06144819 -0.06147032 -0.06149711 -0.06150972
 -0.06150153 -0.06147063 -0.06141273 -0.06135296 -0.06129235 -0.06126416 -0.06127037 -0.06132861 -0.06143764 -0.06158613
 -0.06176808 -0.0619425 -0.06210247 -0.0621975 -0.06223295 -0.06219147 -0.06209356 -0.061965 -0.0618227 -0.06169794
 -0.06159398 -0.06152538 -0.06148427 -0.06147211 -0.06147417 -0.06148547 -0.06149505 -0.06149811 -0.06149516 -0.06148501
 -0.06147407 -0.06146299 -0.06145417 -0.0614478 -0.06144214 -0.06143762 -0.06143915 -0.06144872 -0.06148171 -0.0615387
 -0.06163301 -0.06175726 -0.06190422 -0.06205726 -0.06218435 -0.06227682 -0.06230567 -0.06228843 -0.06222691 -0.06214638
 -0.06206364 -0.06198559 -0.06191904 -0.06186279 -0.06181506 -0.06178881 -0.06178423 -0.0618251 -0.06191554 -0.06205283
 -0.06223771 -0.06238655 -0.06249451 -0.06246325 -0.06230831 -0.06208032 -0.06179952 -0.06157289 -0.061398 -0.06132423
 -0.06133596 -0.06143466 -0.06159026 -0.06177264 -0.06194577 -0.06206609 -0.06212774 -0.06210588 -0.06204155 -0.06194291
 -0.06185084 -0.06178204 -0.06173484 -0.06171332 -0.0616961 -0.06168066 -0.06166128 -0.06163733 -0.06162224 -0.06161654
 -0.06163188 -0.06166608 -0.06171212 -0.06176475 -0.0617998 -0.06181488 -0.0617893 -0.0617298 -0.06163636 -0.06152173
 -0.06140049 -0.06128347 -0.06118461 -0.06110863 -0.06106264 -0.06104507 -0.06105798 -0.0610943 -0.06115313 -0.06122626
 -0.06131231 -0.06140551 -0.0615059 -0.06160069 -0.06168932 -0.06174431 -0.06176469 -0.06173031 -0.06164439 -0.06151674
 -0.06135381 -0.06118502 -0.0610153 -0.06087243 -0.06075656 -0.06068242 -0.06064292 -0.06063748 -0.0606531 -0.06067874
 -0.06070571 -0.06072365 -0.06073768 -0.06074633 -0.06076016 -0.06078327 -0.06081419 -0.06085457 -0.0608921 -0.06092545
 -0.06094837 -0.06096026 -0.06096686 -0.06096865 -0.06097498 -0.06098559 -0.06100392 -0.0610282 -0.06105302 -0.06107768
 -0.06109702 -0.06111297 -0.06112693 -0.0611396 -0.06115242 -0.06116555 -0.0611771 -0.06119546 -0.06122239 -0.06127363
 -0.06135856 -0.06147556 -0.06163236 -0.06179025 -0.06194545 -0.06205483 -0.06211067 -0.06211928 -0.06208036 -0.06201575
 -0.06192526 -0.06180313 -0.06165112 -0.0614761 -0.06128603 -0.06111779 -0.06097428 -0.06088528 -0.06084092 -0.06084078
 -0.06086575 -0.06088965 -0.06090666 -0.06089852 -0.06087988 -0.06085572 -0.06083311 -0.06081885 -0.06080399 -0.06078788
 -0.06076023 -0.06071804 -0.06066281 -0.06059363 -0.0605212 -0.06044599 -0.06038187 -0.06032984 -0.06030813 -0.06031713
 -0.06037209 -0.06046601 -0.060584 -0.06070845 -0.06078111 -0.06080127 -0.06073042 -0.06060301 -0.06044825 -0.06028951
 -0.06016414 -0.06005959 -0.05998129 -0.05990583 -0.05982124 -0.05972755 -0.05961864 -0.05951873 -0.059432 -0.05937132
 -0.05934059 -0.05932355 -0.05931975 -0.05929723 -0.05925525 -0.0591788 -0.05907207 -0.05895889 -0.05884221 -0.0587487
 -0.0586738 -0.05861768 -0.05857839 -0.0585514 -0.05853903 -0.05854489 -0.05856339 -0.05859552 -0.05862122 -0.05862917
 -0.05860417 -0.05853437 -0.05842519 -0.0582759 -0.0580924 -0.0578756 -0.05762924 -0.05735257 -0.05706297 -0.05676136
 -0.05646796 -0.05618362 -0.05592227 -0.05568501 -0.05548716 -0.05532851 -0.05521981 -0.05515317 -0.05511483 -0.05509336
 -0.05505881 -0.05501156 -0.05493874 -0.05484753 -0.05474486 -0.0546204 -0.05447211 -0.05428308 -0.05403867 -0.0537594
 -0.05344442 -0.05313116 -0.05282785 -0.05254899 -0.05229852 -0.05206804 -0.05185744 -0.05165149 -0.05144997 -0.05125048
 -0.05105485 -0.0508775 -0.05071688 -0.05057897 -0.05045049 -0.05029915 -0.05011208 -0.0498401 -0.0495054 -0.04911133
 -0.04869548 -0.04829695 -0.04792642 -0.0476062 -0.04732016 -0.04706982 -0.04682723 -0.0465835 -0.04632624 -0.04604869
 -0.04576725 -0.04548318 -0.04520937 -0.04494753 -0.04467813 -0.04439981 -0.04408237 -0.04372818 -0.04334003 -0.04292499
 -0.04251544 -0.04211457 -0.04174861 -0.04141495 -0.04112238 -0.04086309 -0.04063328 -0.04041802 -0.04020307 -0.03997671
 -0.03972489 -0.03945214 -0.03915662 -0.03884607 -0.03852494 -0.03818475 -0.03782438 -0.037437 -0.03701876 -0.03659743
 -0.03617416 -0.03578901 -0.03544274 -0.03514225 -0.03488379 -0.03464194 -0.03441219 -0.03416051 -0.03388757 -0.03357413
 -0.03323177 -0.03287093 -0.03250851 -0.03217392 -0.03186962 -0.03161614 -0.03138494 -0.03116961 -0.03092702 -0.03063124
 -0.03027968 -0.02985826 -0.02941448 -0.02895468 -0.02851857 -0.02811387 -0.0277417 -0.02740337 -0.02707568 -0.02675751
 -0.02642788 -0.0260869 -0.0257265 -0.0253472 -0.02494632 -0.02452516 -0.02408358 -0.02362843 -0.02317067 -0.02272122
 -0.02230086 -0.02191118 -0.02156485 -0.02124741 -0.02095496 -0.02066999 -0.02038267 -0.02008767 -0.01978 -0.01946613
 -0.0191466 -0.01882682 -0.01850838 -0.01818532 -0.01785752 -0.0175131 -0.01715182 -0.01677139 -0.01637364 -0.01597248
 -0.01557017 -0.01518482 -0.01481576 -0.01447143 -0.01414759 -0.01384061 -0.01354514 -0.01325208 -0.01295913 -0.01266024
 -0.01235717 -0.01204989 -0.01173825 -0.01142353 -0.01109977 -0.01076467 -0.0104176 -0.01005602 -0.009693985 -0.009332553
 -0.008986643 -0.008657912 -0.008342852 -0.008040926 -0.007736388 -0.00742921 -0.007111656 -0.006786136 -0.006459378 -0.006133845
 -0.00582094 -0.005519726 -0.005234947 -0.004961662 -0.004695072 -0.004431307 -0.004164204 -0.00389432 -0.003620784 -0.003342796
 -0.003060827 -0.002769904 -0.002467046 -0.002156624 -0.001836876 -0.001526403 -0.001227772 -0.0009505081 -0.0006963419 -0.0004486756
 -0.0002065265 5.248972E-05 0.0003274315 0.0006203949 0.0009276795 0.001233299 0.001534779 0.001815864 0.002077957 0.002314502
 0.002532135 0.002736431 0.002935245 0.003139624 0.003349299 0.003569226 0.003790755 0.004010458 0.004224786 0.004430643
 0.004633197 0.004832847 0.005034642 0.005239162 0.005450576 0.005669079 0.005902165 0.006150022 0.006413612 0.006691583
 0.006971703 0.007253435 0.007526723 0.007794407 0.008060483 0.008325896 0.008596277 0.008866628 0.009132769 0.009389113
 0.00962798 0.009848502 0.01004743 0.01022668 0.01038563 0.01052883 0.01065591 0.01077808 0.01089615 0.01102731
 0.01117393 0.01134766 0.01155018 0.01177523 0.01202217 0.01227004 0.01251827 0.01275199 0.01297348 0.01318644
 0.01339194 0.01359708 0.01379707 0.01398509 0.014158 0.0143043 0.01443496 0.01455369 0.01467907 0.0148282
 0.01500056 0.01520653 0.01541593 0.01562277 0.01579751 0.01592874 0.01602553 0.01608437 0.01614783 0.01621928
 0.01632511 0.01646558 0.01661583 0.01677212 0.01688701 0.01696319 0.0169855 0.01696622 0.01693442 0.01690075
 0.01690392 0.01694088 0.01702704 0.01714659 0.01729074 0.01744259 0.01758594 0.01771803 0.01782986 0.01793782
 0.0180446 0.01816704 0.01831269 0.01846976 0.01864054 0.01878606 0.01890318 0.01896642 0.01897534 0.01895009
 0.01889442 0.01885404 0.01882817 0.01883917 0.01887862 0.01893114 0.0189922 0.01904156 0.01908731 0.01913234
 0.01918503 0.01925935 0.01934614 0.01944661 0.01954066 0.01961701 0.01967053 0.01969297 0.01970437 0.01970624
 0.01972339 0.01976095 0.01982157 0.01990718 0.01999134 0.02007254 0.02011573 0.02012132 0.0200776 0.01999125
 0.01988829 0.01977741 0.01970142 0.0196599 0.01967684 0.0197373 0.01983268 0.0199413 0.02003771 0.0201087
 0.02013347 0.02012032 0.02006354 0.01999054 0.01990725 0.01984179 0.01980182 0.01980083 0.01984214 0.01992823
 0.02005969 0.02023632 0.02045787 0.02071258 0.02099717 0.0212756 0.02154236 0.02174897 0.02189552 0.02195237
 0.02193268 0.02184521 0.02171437 0.02157853 0.02145874 0.02139497 0.02138412 0.02144424 0.02153927 0.0216618
 0.02176239 0.02182238 0.02181406 0.02172319 0.02156629 0.02133985 0.02109529 0.020836 0.02061134 0.02042351
 0.02028736 0.02020079 0.02014684 0.020124 0.0201144 0.02012115 0.02014535 0.02018939 0.02026276 0.02035668
 0.02046716 0.02057163 0.02064728 0.02067164 0.02061791 0.020487 0.02026515 0.01998739 0.01965759 0.01932573
 0.01900368 0.01872354 0.01849334 0.01831451 0.01818888 0.01809692 0.01803752 0.01798207 0.01792938 0.01785509
 0.01776195 0.01764986 0.01752586 0.01741473 0.01731679 0.01724955 0.0171982 0.01714937 0.01708636 0.01698217
 0.01684093 0.01665062 0.01644115 0.0162205 0.01602603 0.01587395 0.01577897 0.01575355 0.01576556 0.01581687
 0.01583865 0.01582507 0.0157253 0.01553711 0.01527582 0.01494667 0.01461342 0.01427929 0.01399652 0.01375955
 0.01357855 0.01344443 0.01334235 0.01326561 0.0131979 0.01313484 0.01306576 0.01298885 0.01289897 0.012798
 0.01268495 0.01256431 0.01243709 0.01230785 0.01217783 0.01204985 0.01192496 0.01180077 0.01167743 0.0115479
 0.01141181 0.01126404 0.01110488 0.01093579 0.01075796 0.01057812 0.01039796 0.01022661 0.0100651 0.009921385
 0.009792699 0.009680226 0.009575441 0.009470398 0.009356418 0.009223114 0.009070775 0.008894371 0.00870583 0.008507446
 0.008311877 0.008123571 0.007943732 0.007774055 0.00760591 0.007438532 0.007267519 0.007092668 0.006920171 0.00675049
 0.00659143 0.00644228 0.006303106 0.00617272 0.006046965 0.005925574 0.005806268 0.005688337 0.005570417 0.005449955
 0.005323104 0.005189896 0.005046672 0.004902566 0.004758862 0.004632122 0.004529726 0.00445681 0.004420771 0.004394579
 0.004378644 0.004322423 0.004221006 0.00404257 0.003785412 0.003471643 0.003105891 0.002750972 0.002410718 0.002141743
 0.001938488 0.001816033 0.001757703 0.001735733 0.00173003 0.001694757 0.001623403 0.001485018 0.00130012 0.001069327
 0.0008284528 0.0005982031 0.0003946339 0.0002328166 9.597085E-05 -1.665764E-05 -0.0001238955 -0.0002315924 -0.0003281688 -0.0004141704
 -0.0004611061 -0.0004674948 -0.0004299084 -0.0003514589 -0.0002698266 -0.0001902888 -0.0001645324 -0.0001908973 -0.0002947229 -0.0004630038
 -0.0006800712 -0.0009301518 -0.001178588 -0.001423015 -0.001643971 -0.00185496 -0.00206173 -0.00227042 -0.002491516 -0.002705341
 -0.002908587 -0.003078638 -0.00320485 -0.003299855 -0.003361154 -0.003426251 -0.003499594 -0.003591446 -0.003702575 -0.00380011
 -0.00388258 -0.003919899 -0.003916883 -0.003885729 -0.003834369 -0.003799409 -0.00378035 -0.00379676 -0.003838299 -0.003896456
 -0.003963586 -0.004023782 -0.00408554 -0.004145969 -0.004228128 -0.00434376 -0.004507975 -0.004734602 -0.005005036 -0.005323237
 -0.00563847 -0.005944487 -0.006195047 -0.00638299 -0.00650841 -0.006570872 -0.006620909 -0.0066618 -0.006751543 -0.00688752
 -0.007086687 -0.007337557 -0.007609062 -0.007890074 -0.008136712 -0.008349193 -0.008505568 -0.008617739 -0.008688614 -0.008735622
 -0.008772108 -0.008813978 -0.00887452 -0.008957663 -0.009071116 -0.009199551 -0.009342286 -0.009476908 -0.009598095 -0.009703511
 -0.009790724 -0.00988487 -0.009987254 -0.01012091 -0.01028478 -0.01046921 -0.01067019 -0.0108559 -0.01102829 -0.01117421
 -0.01130551 -0.01144474 -0.01159973 -0.01179951 -0.01203006 -0.01229179 -0.01255467 -0.01279406 -0.01299258 -0.01312928
 -0.0132157 -0.01324909 -0.01325216 -0.01323094 -0.01319617 -0.01315073 -0.01309706 -0.01303455 -0.01297922 -0.01293185
 -0.0129263 -0.01296398 -0.01307383 -0.01325239 -0.01349587 -0.01379344 -0.01410506 -0.0144188 -0.01468395 -0.01489902
 -0.01503477 -0.01510554 -0.01511415 -0.01508152 -0.01502642 -0.01495909 -0.01489281 -0.01482118 -0.01474476 -0.01465655
 -0.01455262 -0.0144413 -0.01432274 -0.01420985 -0.01410536 -0.01399988 -0.01389325 -0.01375027 -0.01356949 -0.01332121
 -0.01300917 -0.01264002 -0.01222272 -0.01179419 -0.0113604 -0.01095645 -0.01057905 -0.0102402 -0.009929803 -0.009641305
 -0.009364408 -0.009089143 -0.008807442 -0.008512918 -0.008198613 -0.007859906 -0.007495519 -0.007101567 -0.006693008 -0.006269092
 -0.00586165 -0.005473291 -0.005134523 -0.004847457 -0.004620629 -0.004452958 -0.004328501 -0.004244716 -0.004177378 -0.004125408
 -0.004072113 -0.004017465 -0.003953751 -0.003879666 -0.003789263 -0.00368246 -0.00355464 -0.003413105 -0.003260512 -0.003108722
 -0.00296687 -0.002835958 -0.002722113 -0.002607663 -0.002490459 -0.002349675 -0.002180035 -0.001978682 -0.00174336 -0.0014917
 -0.001224448 -0.0009693654 -0.0007282233 -0.0005319105 -0.000381783 -0.0003038568 -0.0002951412 -0.0003612202 -0.0004916269 -0.000664727
 -0.0008677747 -0.001066584 -0.001260257 -0.001428077 -0.001591949 -0.001756345 -0.001962188 -0.002231378 -0.002600923 -0.00309434
 -0.003714315 -0.004474039 -0.005326087 -0.006270486 -0.007225199 -0.008182836 -0.009069588 -0.00988008 -0.01058853 -0.01119629
 -0.0117266 -0.01218282 -0.01259938 -0.01297556 -0.01332581 -0.01364915 -0.01394762 -0.01422743 -0.0144996 -0.01477143
 -0.01505967 -0.01535782 -0.01566974 -0.01597626 -0.01626666 -0.01653018 -0.01675691 -0.01695617 -0.01712755 -0.01728547
 -0.01743384 -0.01757188 -0.01770123 -0.01780348 -0.01787764 -0.01790315 -0.01788011 -0.01780772 -0.01769069 -0.01755933
 -0.01742083 -0.01732088 -0.01726095 -0.01727071 -0.0173414 -0.0174729 -0.01765165 -0.0178617 -0.01809098 -0.01832556
 -0.01855317 -0.01876439 -0.01894701 -0.01909337 -0.01919965 -0.01926154 -0.01928806 -0.01927927 -0.01924863 -0.01919708
 -0.01913853 -0.01907347 -0.01903187 -0.0190169 -0.01908694 -0.01924569 -0.01955229 -0.01999881 -0.02059257 -0.02130756
 -0.02208293 -0.02289048 -0.02364745 -0.02435046 -0.024955 -0.02548875 -0.02595825 -0.02639541 -0.02682487 -0.02725207
 -0.02768932 -0.02811602 -0.02852939 -0.02890998 -0.02925221 -0.02955581 -0.02981917 -0.03005555 -0.03026563 -0.03046343
 -0.03064955 -0.0308341 -0.03101724 -0.03120542 -0.03139795 -0.03159623 -0.03179785 -0.0319975 -0.03219241 -0.03237463
 -0.03254394 -0.03269579 -0.03283406 -0.03295942 -0.03307894 -0.03319667 -0.03331866 -0.03344946 -0.03358762 -0.03373549
 -0.03388109 -0.0340232 -0.03414844 -0.03425429 -0.03434197 -0.03441108 -0.03447791 -0.03454312 -0.03461914 -0.03470469
 -0.03479565 -0.03489105 -0.03498314 -0.03507536 -0.03517289 -0.03527959 -0.03540746 -0.03555167 -0.03571327 -0.03588011
 -0.03604193 -0.0361899 -0.03631474 -0.03641595 -0.03649043 -0.03654247 -0.03657125 -0.03658763 -0.03659167 -0.03660391
 -0.03662654 -0.03667657 -0.03675573 -0.03685818 -0.0369828 -0.03710509 -0.03722417 -0.03732109 -0.03739835 -0.03745621
 -0.03749813 -0.03753416 -0.0375649 -0.03759645 -0.03762728 -0.0376575 -0.03768666 -0.03771395 -0.03774057 -0.03776704
 -0.03779431 -0.03782285 -0.03785339 -0.0378855 -0.03792317 -0.03796653 -0.03802235 -0.03809194 -0.03817482 -0.03827141
 -0.0383679 -0.03846349 -0.03854207 -0.03860462 -0.03865028 -0.03868271 -0.03871744 -0.03875646 -0.03881495 -0.03888852
 -0.0389781 -0.03907328 -0.03916134 -0.03923326 -0.03927408 -0.03928712 -0.03926612 -0.03923046 -0.03918496 -0.03915203
 -0.03914021 -0.03915753 -0.03920885 -0.03928331 -0.039381 -0.03948387 -0.03959065 -0.03968957 -0.0397803 -0.03985943
 -0.03992722 -0.03998392 -0.04003001 -0.04006688 -0.04009624 -0.04012305 -0.04014989 -0.04018445 -0.040227 -0.0402819
 -0.0403459 -0.04041772 -0.04049394 -0.0405721 -0.04064991 -0.04072645 -0.04079785 -0.04086277 -0.04091874 -0.04096385
 -0.04100524 -0.04104288 -0.04109021 -0.04114844 -0.04122059 -0.04130612 -0.04138962 -0.04146957 -0.041526 -0.04156028
 -0.04156623 -0.04154946 -0.04152183 -0.04148959 -0.04147122 -0.04146759 -0.04148915 -0.04152964 -0.04158762 -0.04165529
 -0.04172666 -0.04179887 -0.04186884 -0.04193753 -0.0420048 -0.04207088 -0.04213575 -0.04219992 -0.04226337 -0.04232752
 -0.04239254 -0.04245799 -0.04252373 -0.04258589 -0.04264428 -0.04269553 -0.04274011 -0.04277811 -0.04281042 -0.04283945
 -0.04286602 -0.04289287 -0.04292028 -0.04294996 -0.04298135 -0.04301456 -0.0430489 -0.04308399 -0.04311917 -0.04315408
 -0.04318829 -0.04322139 -0.0432542 -0.04328632 -0.04332173 -0.04336084 -0.04340724 -0.0434614 -0.04352077 -0.04358505
 -0.04364621 -0.04370388 -0.04375128 -0.04378891 -0.04381505 -0.04383136 -0.04384099 -0.04384678 -0.04385561 -0.04386989
 -0.04389666 -0.04393442 -0.04398515 -0.04404393 -0.04410798 -0.04417434 -0.04424061 -0.04430721 -0.04437426 -0.04444031
 -0.04450557 -0.04456566 -0.0446199 -0.04466685 -0.04470616 -0.04474231 -0.0447755 -0.04481024 -0.04484629 -0.04488346
 -0.04492141 -0.04495837 -0.0449946 -0.04503019 -0.04506501 -0.04509906 -0.04513153 -0.04516056 -0.04518779 -0.04521288
 -0.04524128 -0.04527701 -0.04532185 -0.04537981 -0.04544205 -0.04550769 -0.04556471 -0.04560927 -0.04564177 -0.04566058
 -0.04567955 -0.04569958 -0.04573189 -0.04577665 -0.04582966 -0.04588958 -0.04594249 -0.04598814 -0.04601715 -0.04603232
 -0.04603631 -0.04603357 -0.04603453 -0.04604153 -0.04606359 -0.04609739 -0.04614449 -0.04619662 -0.04624913 -0.04629483
 -0.04632799 -0.04635017 -0.04635906 -0.04636525 -0.04637037 -0.04638337 -0.0464065 -0.04643645 -0.04647348 -0.04650538
 -0.04653169 -0.04654662 -0.04655115 -0.04655212 -0.04655061 -0.04655611 -0.04656733 -0.04658564 -0.04660859 -0.04663135
 -0.04665353 -0.04667185 -0.04668845 -0.04670415 -0.04672119 -0.04674185 -0.04676558 -0.04679346 -0.04682155 -0.04684913
 -0.04687183 -0.04688812 -0.04689838 -0.04690197 -0.04690448 -0.04690626 -0.04691215 -0.04692229 -0.04693537 -0.04695111
 -0.04696596 -0.04698038 -0.04699459 -0.04700954 -0.04702837 -0.04705112 -0.04707923 -0.04711256 -0.04715118 -0.0471959
 -0.04724829 -0.04730657 -0.04737186 -0.0474361 -0.04749642 -0.04754449 -0.04757547 -0.0475921 -0.04759235 -0.04759078
 -0.0475888 -0.04759983 -0.04762547 -0.04766624 -0.04772197 -0.04778223 -0.0478463 -0.04790286 -0.0479525 -0.04799184
 -0.04802281 -0.04804968 -0.04807363 -0.04809958 -0.04812672 -0.04815602 -0.04818626 -0.04821606 -0.04824616 -0.04827667
 -0.04830834 -0.04834216 -0.04837608 -0.04840982 -0.04844068 -0.04846757 -0.04849172 -0.04851279 -0.0485357 -0.04856094
 -0.0485899 -0.04862253 -0.04865323 -0.04868153 -0.04870035 -0.04871066 -0.04871291 -0.04870988 -0.04871066 -0.04871662
 -0.0487364 -0.04876644 -0.04880658 -0.04884932 -0.04888645 -0.04891447 -0.04892613 -0.04892841 -0.04892112 -0.04891733
 -0.04892212 -0.04894032 -0.04897573 -0.04901823 -0.04906759 -0.04910915 -0.04914139 -0.04915959 -0.04916363 -0.04916005
 -0.04914954 -0.04914132 -0.04913576 -0.04913965 -0.04915259 -0.04917753 -0.04921249 -0.04925535 -0.04930283 -0.04934911
 -0.04939234 -0.04942787 -0.049457 -0.04947895 -0.04949637 -0.04951048 -0.04952263 -0.04953347 -0.04954378 -0.04955369
 -0.04956443 -0.04957613 -0.04959021 -0.04960684 -0.04962679 -0.04965009 -0.04967527 -0.04970194 -0.04972548 -0.04974531
 -0.04975546 -0.04975663 -0.04974705 -0.04972978 -0.04971018 -0.04969151 -0.04968184 -0.04968048 -0.04969092 -0.04970774
 -0.04972818 -0.04974785 -0.04976267 -0.04977511 -0.04978428 -0.04979686 -0.04981452 -0.04983994 -0.04987441 -0.04991318
 -0.04995622 -0.04999429 -0.05002691 -0.05004734 -0.05005598 -0.05005439 -0.05004423 -0.05003507 -0.05002837 -0.05003407
 -0.05005224 -0.0500876 -0.05014021 -0.05021141 -0.05030329 -0.05041774 -0.05055882 -0.05072964 -0.05093431 -0.05117592
 -0.0514559 -0.05177752 -0.05213112 -0.052518 -0.0529131 -0.05331364 -0.05369548 -0.05405512 -0.05439781 -0.05472387
 -0.05505675 -0.05539386 -0.05571942 -0.05602012 -0.05621442 -0.05629395 -0.05617705 -0.05588868 -0.05543222 -0.05486372
 -0.05427101 -0.05369275 -0.05321066 -0.05281783 -0.05253579 -0.05234516 -0.05223906 -0.05221207 -0.05226062 -0.05238452
 -0.05258784 -0.05284372 -0.05315398 -0.05345282 -0.05373476 -0.0539495 -0.05409447 -0.05416708 -0.05416824 -0.05410659
 -0.05398364 -0.05380932 -0.05358924 -0.05334542 -0.05308685 -0.05284412 -0.05262348 -0.05245079 -0.05231981 -0.05223883
 -0.05218372 -0.05214169 -0.05208641 -0.0519971 -0.05187459 -0.05170943 -0.05153167 -0.05134585 -0.05117922 -0.05103799
 -0.05092628 -0.05084587 -0.05078363 -0.05073889 -0.05069522 -0.05065241 -0.05060254 -0.05054685 -0.05048836 -0.05042801
 -0.05037099 -0.05031642 -0.05026457 -0.05021498 -0.05016624 -0.05012022 -0.05007855 -0.05004237 -0.05001428 -0.04999053
 -0.04997067 -0.04994853 -0.0499214 -0.04988735 -0.04984464 -0.04979733 -0.04974542 -0.04969519 -0.04964719 -0.04960608
 -0.04957212 -0.04954769 -0.04953278 -0.04952826 -0.04953372 -0.04954774 -0.04956904 -0.04959285 -0.04961752 -0.04963646
 -0.04965 -0.04965501 -0.04965461 -0.04965093 -0.04964688 -0.04964639 -0.04964767 -0.04965159 -0.04965311 -0.04965012
 -0.04964121 -0.04962456 -0.04960642 -0.04958725 -0.04957414 -0.04956819 -0.04956809 -0.04957377 -0.04957713 -0.04957809
 -0.04957325 -0.04956354 -0.04955296 -0.04954161 -0.04953225 -0.04952376 -0.04951411 -0.04950432 -0.04949441 -0.0494875
 -0.04948815 -0.04949513 -0.04951097 -0.04952712 -0.04954017 -0.0495423 -0.0495285 -0.0495011 -0.04945828 -0.0494116
 -0.04936245 -0.04932062 -0.04928765 -0.04926252 -0.04924525 -0.04922679 -0.04920692 -0.04918 -0.04914717 -0.04911243
 -0.04907709 -0.04904848 -0.04902563 -0.04901021 -0.04899985 -0.04899108 -0.04898305 -0.04897286 -0.04896222 -0.04895119
 -0.0489425 -0.04893772 -0.04893828 -0.04894564 -0.04895778 -0.04897511 -0.04899209 -0.049008 -0.04901781 -0.04902069
 -0.04901699 -0.04900665 -0.04899398 -0.04897911 -0.04896496 -0.04895106 -0.04893581 -0.04891898 -0.04889823 -0.048875
 -0.04885121 -0.04882905 -0.04881348 -0.04880444 -0.04880485 -0.04881075 -0.04882045 -0.04882929 -0.04883378 -0.04883309
 -0.04882535 -0.04881441 -0.04880066 -0.04878847 -0.04877895 -0.04877209 -0.04876821 -0.04876353 -0.04875784 -0.04874906
 -0.04873743 -0.04872616 -0.0487156 -0.04870981 -0.0487078 -0.0487083 -0.04870958 -0.0487063 -0.04869865 -0.04868369
 -0.04866451 -0.04864319 -0.04862341 -0.04860934 -0.04860137 -0.04860178 -0.04860641 -0.04861463 -0.04862129 -0.04862443
 -0.04862391 -0.04861882 -0.04861448 -0.04861136 -0.04861326 -0.04862045 -0.04862968 -0.04864056 -0.04864652 -0.04864788
 -0.04864307 -0.0486337 -0.04862504 -0.04861778 -0.04861717 -0.04862077 -0.04862736 -0.04863312 -0.04863225 -0.04862474
 -0.04860722 -0.04858536 -0.04856117 -0.04853992 -0.04852517 -0.04851488 -0.04850985 -0.04850385 -0.04849565 -0.04848333
 -0.04846624 -0.04844847 -0.04843022 -0.04841533 -0.04840374 -0.04839505 -0.04838904 -0.04838401 -0.04838011 -0.04837714
 -0.04837492 -0.04837331 -0.0483711 -0.04836626 -0.04835772 -0.04834278 -0.04832282 -0.04829714 -0.04827026 -0.048244
 -0.04822359 -0.04821176 -0.04821042 -0.04822145 -0.04824052 -0.04826795 -0.04829428 -0.04831868 -0.04833292 -0.04833641
 -0.04832872 -0.04831032 -0.0482885 -0.04826392 -0.04824471 -0.04823029 -0.04822311 -0.04822161 -0.04822291 -0.04822648
 -0.04822965 -0.04823368 -0.04823906 -0.04824678 -0.04825851 -0.04827263 -0.04828901 -0.04830503 -0.04831945 -0.04833149
 -0.04834063 -0.04834719 -0.04835122 -0.04835233 -0.04835037 -0.04834644 -0.04834058 -0.04833651 -0.04833426 -0.04833497
 -0.04833781 -0.04833744 -0.04833339 -0.04832005 -0.04829955 -0.04827397 -0.04824654 -0.04822445 -0.0482079 -0.04820085
 -0.04820004 -0.04820411 -0.04821018 -0.04821566 -0.04822105 -0.04822586 -0.04823148 -0.04823862 -0.04824601 -0.04825383
 -0.04825875 -0.04826036 -0.04825727 -0.04824935 -0.04823814 -0.04822382 -0.04820921 -0.04819441 -0.04818159 -0.04817077
 -0.04816324 -0.04815894 -0.04815828 -0.04816138 -0.04816862 -0.04818015 -0.04819681 -0.04821716 -0.04824116 -0.04826451
 -0.04828491 -0.04829868 -0.04830305 -0.0482994 -0.04828682 -0.0482711 -0.04825303 -0.04823723 -0.04822439 -0.0482161
 -0.04821254 -0.04821366 -0.04821937 -0.04822827 -0.04823994 -0.04825092 -0.04826063 -0.04826472 -0.04826337 -0.04825452
 -0.04823941 -0.04821907 -0.0481951 -0.04816999 -0.04814455 -0.04812 -0.04809755 -0.04807769 -0.04806317 -0.04805549
 -0.04805525 -0.04806414 -0.04807547 -0.04808888 -0.04809514 -0.04809269 -0.04808161 -0.04806164 -0.04804231 -0.04802395
 -0.04801308 -0.0480089 -0.04800868 -0.04801152 -0.04801216 -0.04801099 -0.04800627 -0.04799911 -0.0479908 -0.04798179
 -0.04797332 -0.04796516 -0.04795752 -0.04795019 -0.04794316 -0.04793611 -0.04792911 -0.04792115 -0.04791226 -0.04790023
 -0.04788456 -0.04786445 -0.04783944 -0.0478127 -0.04778436 -0.04775942 -0.04773803 -0.04772256 -0.04771261 -0.04770658
 -0.04770356 -0.04769921 -0.04769258 -0.04767851 -0.04765775 -0.04762838 -0.0475939 -0.04755776 -0.04752324 -0.04749525
 -0.04747277 -0.04745735 -0.04744451 -0.04743256 -0.04741926 -0.04740314 -0.04738595 -0.04736767 -0.04735056 -0.04733498
 -0.04732087 -0.04730828 -0.04729502 -0.04728098 -0.04726422 -0.04724501 -0.04722431 -0.04720275 -0.04718351 -0.04716681
 -0.047155 -0.0471477 -0.04714571 -0.04714746 -0.0471522 -0.04715585 -0.04715492 -0.04714541 -0.04712252 -0.04708919
 -0.04704417 -0.04699622 -0.04694793 -0.0469037 -0.04686559 -0.04682995 -0.04679673 -0.04676126 -0.04672308 -0.04668343
 -0.04664259 -0.04660698 -0.0465768 -0.04655718 -0.04654689 -0.04654409 -0.04654614 -0.04654448 -0.04653835 -0.04652108
 -0.04649624 -0.04646558 -0.04643268 -0.04640257 -0.0463735 -0.04634627 -0.04631726 -0.04628401 -0.04624871 -0.04621068
 -0.04617653 -0.04614767 -0.04612701 -0.0461156 -0.04610896 -0.04610696 -0.04610189 -0.04609349 -0.04607799 -0.04605605
 -0.04603115 -0.04600399 -0.04598009 -0.04595801 -0.04593739 -0.04591481 -0.04588308 -0.04584154 -0.04578447 -0.04571797
 -0.04564456 -0.0455726 -0.04550865 -0.04545549 -0.04541744 -0.04538844 -0.0453686 -0.04534754 -0.04532289 -0.04529024
 -0.04524803 -0.04520208 -0.04515254 -0.0451084 -0.04506997 -0.0450418 -0.04502334 -0.04501293 -0.04500873 -0.04500207
 -0.04499117 -0.04496523 -0.04492704 -0.04487558 -0.04481727 -0.04476106 -0.04470904 -0.04466766 -0.04463262 -0.04460359
 -0.04457484 -0.04454352 -0.04450719 -0.04446417 -0.04441559 -0.04436121 -0.04430339 -0.04424241 -0.04417961 -0.04411508
 -0.04405012 -0.04398492 -0.04392384 -0.04386702 -0.04381833 -0.04377652 -0.04373828 -0.04370197 -0.04366022 -0.04361458
 -0.04356413 -0.04351199 -0.04346336 -0.04341633 -0.04337224 -0.0433248 -0.04326922 -0.04320538 -0.04313055 -0.04305211
 -0.04297185 -0.04289469 -0.04282255 -0.04275377 -0.04268844 -0.04262399 -0.04256014 -0.04249822 -0.0424383 -0.04238224
 -0.0423293 -0.04227468 -0.04221652 -0.04214308 -0.04205485 -0.04194568 -0.04182042 -0.04168562 -0.04154506 -0.04140714
 -0.04127214 -0.04114286 -0.04101992 -0.04090392 -0.04079717 -0.04070112 -0.04061592 -0.04054261 -0.04047747 -0.04042071
 -0.04036468 -0.0403093 -0.0402405 -0.04015732 -0.04004681 -0.03990894 -0.03975029 -0.03957266 -0.03939489 -0.03921713
 -0.03905002 -0.03889235 -0.03874609 -0.03861003 -0.03848362 -0.03836374 -0.03824656 -0.03812775 -0.0380012 -0.03786637
 -0.03772089 -0.03756615 -0.03740326 -0.03722895 -0.03704244 -0.0368412 -0.03662326 -0.03639646 -0.03616159 -0.03592452
 -0.03568615 -0.03543958 -0.03518458 -0.03491691 -0.03463779 -0.03435718 -0.03407509 -0.03379921 -0.03352358 -0.03323527
 -0.0329275 -0.03257671 -0.03218986 -0.03176316 -0.03131493 -0.03086333 -0.03041529 -0.02998249 -0.02956051 -0.02914952
 -0.02874739 -0.02835321 -0.02796748 -0.02759248 -0.02721436 -0.0268345 -0.02641272 -0.02594586 -0.02540618 -0.02479418
 -0.02415617 -0.02349601 -0.02287149 -0.0222759 -0.02170681 -0.02115712 -0.02060293 -0.02004487 -0.01947448 -0.01889032
 -0.01829215 -0.01766328 -0.01699269 -0.01625107 -0.01541367 -0.01446885 -0.01339325 -0.01223319 -0.01099025 -0.009741525
 -0.008505391 -0.00731833 -0.006189886 -0.005115026 -0.004094959 -0.003105889 -0.002145738 -0.001161501 -0.0001472885 0.0009813796
 0.00221499 0.003567255 0.004994536 0.006359661 0.007657622 0.008796937 0.009830478 0.01079832 0.01173587 0.01269961
 0.01368545 0.01470868 0.01575436 0.01681752 0.01789371 0.01898488 0.02006741 0.021139 0.02216687 0.02314302
 0.02407944 0.02497595 0.02585797 0.02672557 0.0275507 0.02833016 0.02901731 0.02961947 0.03014472 0.03060938
 0.0310704 0.03153214 0.03203955 0.03256749 0.0330961 0.03361146 0.03408594 0.03453406 0.03496303 0.03536644
 0.03574813 0.03608123 0.03635544 0.0365645 0.03670222 0.0367871 0.03681963 0.03682542 0.03680655 0.03678207
 0.03675255 0.03671283 0.03666138 0.0365803 0.03647057 0.03632696 0.0361535 0.03595806 0.03574833 0.03554251
 0.03535008 0.03519391 0.03507539 0.035005 0.03497889 0.03499482 0.03505873 0.03517216 0.03534281 0.03557782
 0.03586065 0.03619109 0.03654204 0.03690823 0.03728597 0.03767385 0.03808511 0.03852031 0.03898805 0.0394879
 0.040019 0.04058026 0.04116612 0.04177537 0.04240104 0.04304331 0.04369871 0.04436922 0.04505715 0.04576155
 0.04648323 0.04721816 0.04796271 0.04871772 0.04948151 0.05026015 0.05105576 0.05187033 0.05270607 0.0535554
 0.05441901 0.05527765 0.05613015 0.05695451 0.05774985 0.05851458 0.05925042 0.05997827 0.06069466 0.06139642
 0.06207078 0.06267095 0.0631974 0.06362426 0.06396788 0.06424425 0.06445891 0.06462592 0.06473918 0.06479857
 0.06479876 0.06474274 0.06460473 0.06438655 0.06402149 0.06348965 0.06277528 0.06185668 0.06088891 0.05988448
 0.05893837 0.05805384 0.0571609 0.05625625 0.05528018 0.05423834 0.0531313 0.05196307 0.05075338 0.04948739
 0.04815169 0.04670817 0.04508008 0.04328103 0.04125256 0.03915603 0.03709662 0.03516603 0.03347242 0.0319096
 0.03046384 0.02904667 0.02762432 0.02621443 0.02481199 0.02346821 0.02218905 0.02097481 0.01982524 0.0187006
 0.01760003 0.01649969 0.0154039 0.01432326 0.01326235 0.01224317 0.01126398 0.01033286 0.009443286 0.008589258
 0.007764406 0.006961728 0.006171162 0.005388721 0.004589049 0.003759837 0.002878334 0.001917737 0.0009441117 -4.309148E-05
 -0.0009219082 -0.001663512 -0.002285109 -0.00278162 -0.003248811 -0.003691176 -0.004156908 -0.004643273 -0.005134078 -0.005625497
 -0.006085846 -0.006520649 -0.006933264 -0.00732716 -0.007717466 -0.008090263 -0.008432912 -0.008727048 -0.008943649 -0.009086155
 -0.009145192 -0.009137007 -0.009068738 -0.008947163 -0.008776995 -0.008557311 -0.008290033 -0.007966261 -0.007587527 -0.007124246
 -0.006573896 -0.005910906 -0.005134445 -0.004300299 -0.003415354 -0.0025822 -0.001797196 -0.001093309 -0.0004599487 0.0001240384
 0.000659028 0.001155234 0.001611827 0.002024681 0.002413804 0.002793487 0.003197332 0.003664734 0.004182136 0.004768499
 0.005344789 0.00588213 0.00634992 0.006727244 0.007053884 0.007331486 0.007605089 0.007879368 0.008177724 0.00850147
 0.008847026 0.009213132 0.009582439 0.009955919 0.01032807 0.01070523 0.01110568 0.01153574 0.01202229 0.01255917
 0.01315037 0.01378339 0.01444231 0.01512995 0.01584226 0.01658731 0.01737277 0.01818653 0.01902972 0.01987483
 0.0207148 0.02153544 0.02233214 0.02311064 0.02387143 0.02461505 0.02534143 0.02602157 0.02665305 0.02719675
 0.02765372 0.02800975 0.02826837 0.02843505 0.02851039 0.02849869 0.02839851 0.02820855 0.02792998 0.02756216
 0.02711074 0.02657937 0.02597358 0.02529842 0.02455227 0.02373678 0.02284404 0.02186994 0.02082251 0.01969803
 0.01853983 0.01735083 0.01617553 0.01501644 0.01387542 0.012751 0.01162204 0.0104911 0.009360639 0.008238623
 0.007156723 0.006115311 0.00513455 0.004202239 0.003307715 0.002440319 0.001580991 0.0007332285 -0.0001095355 -0.0009314662
 -0.001727092 -0.002480225 -0.003182689 -0.003830007 -0.00441748 -0.004956396 -0.005446292 -0.005909137 -0.006346977 -0.006776108
 -0.007197547 -0.00760365 -0.00799258 -0.008336808 -0.008636425 -0.008876022 -0.00906152 -0.009205205 -0.009313732 -0.0094089
 -0.009494033 -0.00958431 -0.009680004 -0.009787861 -0.009904741 -0.01003096 -0.0101615 -0.01029361 -0.01042452 -0.01055278
 -0.01067644 -0.01079564 -0.01090449 -0.01100236 -0.01108248 -0.01114363 -0.01118835 -0.01121667 -0.01124234 -0.01126595
 -0.01129964 -0.01134215 -0.01139271 -0.01144832 -0.01149782 -0.01153908 -0.01156054 -0.01156391 -0.01154606 -0.01151148
 -0.01146372 -0.01140751 -0.01134721 -0.01128732 -0.01123117 -0.01118221 -0.01114378 -0.01111169 -0.01108718 -0.01105686
 -0.01101881 -0.0109629 -0.01088725 -0.01079517 -0.01068672 -0.01057096 -0.01044791 -0.01031947 -0.01018499 -0.01004009
 -0.00988653 -0.009726582 -0.009566452 -0.009421048 -0.00929805 -0.009217579 -0.009182071 -0.009203846 -0.009277321 -0.009403273
 -0.009572218 -0.009779511 -0.01001749 -0.01028268 -0.0105691 -0.01087564 -0.01119347 -0.01152203 -0.01184778 -0.01216972
 -0.01247321 -0.01275734 -0.01301279 -0.01323967 -0.01343784 -0.01360829 -0.01375665 -0.01388406 -0.01399747 -0.01409804
 -0.01419211 -0.01428009 -0.0143666 -0.01444838 -0.01452475 -0.01458869 -0.01463406 -0.01465701 -0.01465203 -0.01462421
 -0.01457285 -0.0145088 -0.0144346 -0.01435811 -0.01428132 -0.01420624 -0.01413331 -0.01406303 -0.01399544 -0.01393388
 -0.01387849 -0.01383234 -0.01379482 -0.01376365 -0.01373778 -0.01371151 -0.01368549 -0.01365797 -0.01363135 -0.01360935
 -0.01359257 -0.01358401 -0.01358104 -0.01358254 -0.01358619 -0.01358989 -0.01359419 -0.01359856 -0.01360488 -0.01361348
 -0.01362603 -0.01364261 -0.01366599 -0.01369635 -0.01373704 -0.0137883 -0.01385102 -0.01392497 -0.0140065 -0.01409505
 -0.01418486 -0.01427644 -0.01436813 -0.01446194 -0.01456213 -0.01467 -0.01479066 -0.01492187 -0.01506407 -0.01521159
 -0.01536087 -0.01550473 -0.01563829 -0.01575664 -0.01585565 -0.01593786 -0.01600176 -0.01605783 -0.01610732 -0.01616018
 -0.01621798 -0.01628218 -0.01635305 -0.01642475 -0.01649678 -0.01656054 -0.01661554 -0.01665399 -0.01667666 -0.01668165
 -0.01667167 -0.01665316 -0.01662714 -0.01660014 -0.01656712 -0.01652559 -0.01646793 -0.01638584 -0.01627806 -0.01613963
 -0.01597844 -0.01579581 -0.01560086 -0.01539704 -0.01518573 -0.01496854 -0.01473889 -0.01449616 -0.0142362 -0.0139586
 -0.01366891 -0.0133677 -0.01306537 -0.01276218 -0.0124652 -0.01217358 -0.01188865 -0.01160765 -0.0113254 -0.01103679
 -0.01072958 -0.01040292 -0.01004751 -0.009674461 -0.009287697 -0.008903979 -0.008535248 -0.008187796 -0.007868676 -0.007571618
 -0.007296373 -0.007036653 -0.006791027 -0.006557766 -0.006336696 -0.006125255 -0.005923359 -0.005724673 -0.005528703 -0.005326515
 -0.005117718 -0.004894826 -0.004658662 -0.004408514 -0.004145409 -0.003872535 -0.003588281 -0.00329127 -0.002979807 -0.002649375
 -0.002304716 -0.001947289 -0.001584614 -0.001222852 -0.0008617266 -0.000503834 -0.0001420318 0.000225551 0.0006019992 0.0009888675
 0.001382493 0.00178303 0.002182873 0.002581586 0.002970956 0.003351016 0.003722172 0.004085993 0.004454922 0.004828515
 0.005213781 0.005604488 0.005987855 0.006358457 0.006698338 0.007011308 0.007293264 0.007553944 0.00780051 0.008039739
 0.008278692 0.00851694 0.008757013 0.00899251 0.009221616 0.009442099 0.009651515 0.009861578 0.01007258 0.01030247
 0.01055251 0.01083141 0.01113919 0.01147503 0.01183833 0.01222566 0.01263475 0.01305604 0.01348436 0.01390174
 0.01430296 0.01467041 0.01500101 0.01528332 0.01551793 0.01569965 0.01583616 0.0159292 0.01599005 0.0160247
 0.01603621 0.01602749 0.01599406 0.01593447 0.01585227 0.01574652 0.01563341 0.01551375 0.01540683 0.01531351
 0.01524951 0.01521446 0.01521444 0.01524599 0.01529856 0.01536801 0.01543657 0.01550517 0.01556687 0.01562496
 0.01568255 0.01573723 0.01578928 0.01583214 0.015862 0.01587413 0.01586583 0.01583383 0.01577618 0.0156938
 0.01558544 0.01546042 0.01531977 0.01516948 0.01501033 0.01483387 0.01463971 0.01441922 0.01417365 0.01390907
 0.0136265 0.01333458 0.01303085 0.01271279 0.01237846 0.01202205 0.01164542 0.01124829 0.01083357 0.01040351
 0.009960975 0.009508052 0.009047439 0.008581189 0.00810883 0.007630463 0.007145953 0.006654212 0.006162801 0.00567232
 0.005190659 0.004718704 0.004251466 0.003788395 0.003316806 0.002836803 0.002343232 0.001837494 0.001322952 0.0008005719
 0.0002744931 -0.0002544806 -0.0007832162 -0.001310553 -0.001834007 -0.002351998 -0.002862542 -0.003363756 -0.003853578 -0.004332184
 -0.004798186 -0.005256289 -0.005707439 -0.006155955 -0.006603525 -0.007047777 -0.007488847 -0.007922067 -0.008347071 -0.008762322
 -0.009167711 -0.009561536 -0.00994328 -0.01030823 -0.01065555 -0.01097974 -0.01127901 -0.01154591 -0.01177828 -0.0119667
 -0.01211493 -0.0122213 -0.01229802 -0.01235498 -0.01240331 -0.01245408 -0.0125088 -0.01257074 -0.01263899 -0.01271293
 -0.01279648 -0.0128903 -0.01299744 -0.01311916 -0.01324883 -0.0133864 -0.01351708 -0.01364024 -0.01374438 -0.01383029
 -0.01389898 -0.01395237 -0.01400039 -0.01404253 -0.01408339 -0.01411951 -0.01414561 -0.01416098 -0.01416112 -0.01415028
 -0.01413123 -0.01410621 -0.01407895 -0.01404498 -0.01400365 -0.01394944 -0.01387954 -0.01379568 -0.01369628 -0.01359316
 -0.01348693 -0.01339365 -0.01331469 -0.01325712 -0.01322072 -0.01319459 -0.0131773 -0.01315101 -0.01311694 -0.01307005
 -0.01301472 -0.01296103 -0.01291197 -0.01287967 -0.01286109 -0.01285911 -0.01286452 -0.01287027 -0.01286754 -0.01284691
 -0.01280955 -0.01275192 -0.0126841 -0.01260883 -0.01253152 -0.01245471 -0.01237431 -0.01229019 -0.01219813 -0.01209779
 -0.01198787 -0.01186817 -0.01173337 -0.01158292 -0.01140896 -0.0112127 -0.01099427 -0.01075796 -0.01051525 -0.01027202
 -0.01004551 -0.009838569 -0.009664802 -0.009517116 -0.009396796 -0.009286813 -0.009176198 -0.009054006 -0.008909028 -0.008751269
 -0.008579222 -0.008413824 -0.008259645 -0.008127094 -0.008018862 -0.007931971 -0.007866346 -0.007820557 -0.007794617 -0.007791554
 -0.00781019 -0.007842815 -0.007885416 -0.007914033 -0.007927937 -0.007909161 -0.00786713 -0.007811007 -0.007752273 -0.007714774
 -0.007693509 -0.007697199 -0.007703009 -0.007698692 -0.007666558 -0.007592129 -0.007480347 -0.007327065 -0.007152498 -0.006959403
 -0.006766816 -0.006577746 -0.006402106 -0.006241076 -0.006095995 -0.005966839 -0.005850523 -0.005746621 -0.005650548 -0.005561348
 -0.005472334 -0.005382292 -0.0052837 -0.005176932 -0.005058581 -0.004931011 -0.004795749 -0.004655855 -0.004514106 -0.00437493
 -0.004241297 -0.004118828 -0.004011509 -0.003919839 -0.003846476 -0.003782443 -0.003727116 -0.003668516 -0.003604689 -0.003530594
 -0.003445423 -0.003352418 -0.003251801 -0.003149956 -0.003046713 -0.002943642 -0.002839195 -0.002726741 -0.002604966 -0.002465356
 -0.002310078 -0.002138265 -0.001955543 -0.001769326 -0.00158438 -0.001409213 -0.001242645 -0.001087771 -0.0009377223 -0.0007897681
 -0.0006399702 -0.0004847466 -0.000331037 -0.0001793145 -3.801097E-05 9.066351E-05 0.0002111202 0.0003232234 0.000438078 0.0005561025
 0.0006808311 0.0008120788 0.0009494997 0.001092955 0.001243325 0.001397361 0.001546197 0.001685441 0.001798755 0.001891574
 0.001962103 0.002023954 0.00209242 0.002169558 0.002265464 0.00236465 0.002462351 0.002546358 0.002608748 0.002657326
 0.002689907 0.002729821 0.002779467 0.002860587 0.002975943 0.003123682 0.003303205 0.003484165 0.003664766 0.003814249
 0.003935338 0.004024813 0.004087883 0.004139256 0.004181629 0.004227461 0.004277893 0.004340254 0.004413314 0.004500265
 0.004593771 0.004689468 0.004782772 0.004868234 0.004952658 0.005037268 0.005127195 0.005225406 0.005324253 0.005423129
 0.005515189 0.005599473 0.005678796 0.00575332 0.005828143 0.005903495 0.00598406 0.006069048 0.006158807 0.006248729
 0.006323562 0.006381641 0.006406347 0.006413063 0.006413717 0.006431889 0.006500688 0.00662038 0.006808493 0.007034839
 0.007291922 0.007545959 0.007782762 0.007988875 0.008155905 0.008297192 0.00841156 0.008528856 0.008651712 0.00879715
 0.008965759 0.009148063 0.009343395 0.009540591 0.009741522 0.009951367 0.01017002 0.01040193 0.01064118 0.01087769
 0.01110535 0.01131063 0.01149039 0.01163645 0.0117479 0.01181968 0.01185901 0.01186621 0.01185478 0.01182992
 0.01179718 0.01175853 0.01171655 0.01166984 0.01163821 0.01162272 0.01164885 0.01171763 0.01182826 0.0119784
 0.01214253 0.01231874 0.0124829 0.01263707 0.01277339 0.01289897 0.01302588 0.0131585 0.01331364 0.01347855
 0.0136478 0.01380506 0.01392896 0.01403727 0.01412499 0.01424207 0.01441198 0.01463245 0.01491896 0.01518772
 0.01542571 0.01559931 0.01570228 0.01575758 0.01576613 0.01574228 0.01568654 0.01560811 0.01550892 0.0154048
 0.01529656 0.01519401 0.01509957 0.01502143 0.0149662 0.01495147 0.01496996 0.0150272 0.01509446 0.01515225
 0.01518138 0.01516222 0.01510573 0.01500814 0.01489626 0.0147728 0.01467302 0.01460154 0.01459067 0.01464562
 0.01475456 0.01491659 0.01506919 0.01520947 0.01528351 0.01529422 0.01523014 0.01509464 0.01489047 0.01462413
 0.01430221 0.013953 0.01361776 0.01333215 0.01316033 0.01308959 0.01314562 0.01325853 0.01340418 0.0135135
 0.01355145 0.01350534 0.01335576 0.01316483 0.01293381 0.01275781 0.01264695 0.01264134 0.01274305 0.01292258
 0.01317746 0.01347247 0.01380456 0.01414241 0.01447743 0.01476035 0.0149931 0.01514968 0.01525142 0.01532217
 0.01537376 0.01543347 0.01548918 0.01553906 0.01557592 0.01559072 0.01559857 0.01560044 0.01561921 0.01565926
 0.01574276 0.01587517 0.01605927 0.01629865 0.01654654 0.01680047 0.01699808 0.01714057 0.0172242 0.01725568
 0.01727534 0.01727898 0.01727384 0.01725098 0.01718644 0.01709224 0.01697193 0.01685145 0.01676382 0.0167167
 0.01673331 0.01679021 0.01688682 0.01698177 0.01705916 0.01709652 0.0170781 0.01703834 0.01697756 0.01694963
 0.01696283 0.01700255 0.0170682 0.01708637 0.0170564 0.01694747 0.0167687 0.0165582 0.01632154 0.01609889
 0.01588789 0.01570108 0.01553864 0.01540623 0.01530433 0.01523653 0.01519991 0.01519376 0.01521442 0.01526431
 0.01532367 0.01539247 0.01542649 0.0154157 0.01532655 0.01514905 0.01489117 0.01455069 0.01416663 0.01374103
 0.01332516 0.01292117 0.0125718 0.01227392 0.01203268 0.01184095 0.01167414 0.01153295 0.01140686 0.01129932
 0.01121662 0.01114626 0.01107626 0.01099797 0.01089138 0.01078529 0.01068674 0.0106302 0.01063811 0.01069288
 0.01080173 0.01090343 0.01098997 0.01101224 0.01096262 0.01084457 0.01065794</values></Ydata></AB><ScSm><Ydata ylabel="Single channel"><values byteorder="INTEL" format="FLOAT32" numvalues="1814"> 0.07006151 0.0700729 0.07015297 0.0703207 0.0705409 0.0707465 0.07088738 0.07095917 0.07097933 0.07094988
 0.07087606 0.07081607 0.07086213 0.07104892 0.07130236 0.07149197 0.07153404 0.07146353 0.07141343 0.07148636
 0.0716184 0.0715986 0.07126769 0.07070039 0.07015623 0.06983967 0.06977311 0.06994955 0.07045858 0.07124138
 0.07181882 0.07163505 0.07075496 0.0698952 0.06963049 0.06984381 0.07005686 0.06998096 0.06961014 0.06911893
 0.06890925 0.06949658 0.07100315 0.07274671 0.0734899 0.0722218 0.06887843 0.06456841 0.0611644 0.06030185
 0.0622275 0.06546575 0.06792401 0.06856264 0.06789585 0.06693423 0.06609534 0.06533273 0.06484066 0.06509417
 0.06619492 0.06742813 0.06763184 0.0661912 0.06376819 0.06183033 0.06131024 0.06202187 0.06344749 0.06530352
 0.0667364 0.06586777 0.06164293 0.05616739 0.05376685 0.05687433 0.06343578 0.06892249 0.07036006 0.06799078
 0.06395907 0.06053498 0.05926187 0.06053603 0.06352867 0.0668751 0.06950491 0.07069675 0.06989797 0.06720555
 0.06383458 0.06152792 0.06148746 0.06390682 0.06793135 0.07173244 0.07333704 0.07208641 0.06907645 0.06600279
 0.06404525 0.06386659 0.06577674 0.06940735 0.07369755 0.07750764 0.08008008 0.08111279 0.08082506 0.07982112
 0.07863058 0.07761855 0.07730451 0.0780407 0.07916777 0.07926851 0.07771265 0.07550221 0.07423976 0.07447253
 0.07526039 0.07531867 0.07431486 0.07265799 0.07023198 0.06636815 0.06138158 0.05698504 0.05458002 0.05419193
 0.05548359 0.05829155 0.06142497 0.06260674 0.06096434 0.0586096 0.05854309 0.06145713 0.06538057 0.06808323
 0.06913836 0.06977303 0.07128409 0.07370847 0.07565746 0.07536941 0.07246131 0.06890728 0.06764296 0.06968378
 0.07314589 0.07555678 0.07645863 0.07713649 0.07837607 0.07925157 0.07809129 0.0744641 0.07025512 0.0685053
 0.07076173 0.07552615 0.07934026 0.07934723 0.0752176 0.06922367 0.0644656 0.0627258 0.06399363 0.06764646
 0.07313517 0.07936288 0.08440365 0.08658187 0.08569166 0.08289907 0.07940835 0.07534808 0.07041182 0.06571577
 0.06401686 0.06710503 0.07351308 0.07974273 0.08338507 0.08431628 0.08333178 0.08065728 0.07617922 0.07088846
 0.06735232 0.0677183 0.07112581 0.07419504 0.07456747 0.0730563 0.07190433 0.07199129 0.07251027 0.07268445
 0.07287361 0.07395267 0.07605466 0.07824192 0.07941313 0.0793037 0.07852773 0.07786289 0.07754497 0.07709675
 0.07599878 0.07472831 0.07470414 0.07673486 0.07990736 0.08252484 0.08380774 0.08417765 0.08412799 0.0833604
 0.08122464 0.07795119 0.07515381 0.07463436 0.07664135 0.07971483 0.08220346 0.08344911 0.08363412 0.08318973
 0.08250225 0.08178382 0.08113617 0.08082321 0.08120452 0.08222406 0.08329418 0.08388655 0.08396575 0.08372444
 0.08320569 0.08237904 0.08141287 0.08068351 0.08050504 0.08089291 0.08160505 0.08236088 0.08294317 0.08315987
 0.08291134 0.08233491 0.08172332 0.08125986 0.08095632 0.08083242 0.08097159 0.0813558 0.08179122 0.08207193
 0.08214327 0.08206848 0.08190704 0.08167517 0.08138892 0.0811087 0.0809389 0.08095992 0.08113362 0.08131988
 0.08143559 0.08154006 0.08169489 0.08181038 0.08173854 0.08148028 0.08119886 0.08104063 0.08101669 0.0810497
 0.0810591 0.08097348 0.08071877 0.08028186 0.07980366 0.07953223 0.07962508 0.08003083 0.08057731 0.08110099
 0.08147649 0.08163439 0.08161312 0.0815243 0.08142409 0.08126931 0.08101963 0.08074141 0.08058976 0.08068793
 0.08101323 0.0814077 0.08171223 0.0818704 0.08191185 0.08190422 0.08193275 0.08204255 0.08216907 0.08219381
 0.08209409 0.08198086 0.08196856 0.0820492 0.08211333 0.08207758 0.08197863 0.08193472 0.08201686 0.0821812
 0.08233684 0.08244973 0.08255757 0.08269577 0.08282728 0.08286006 0.08274926 0.08256665 0.08243148 0.08238508
 0.08238391 0.08240596 0.08249204 0.08266244 0.08285026 0.0829587 0.08296604 0.08294091 0.08295282 0.08299044
 0.08298398 0.08289424 0.0827562 0.08263955 0.08258928 0.08260438 0.0826508 0.08268556 0.08267966 0.08262926
 0.0825492 0.08245601 0.08235782 0.08226565 0.08221444 0.08225289 0.08238649 0.08253431 0.08257477 0.08245432
 0.08224268 0.08206659 0.08198908 0.08196222 0.08189564 0.08175442 0.08157929 0.08142771 0.08132002 0.08124027
 0.08116431 0.08108054 0.08100469 0.08098328 0.08105803 0.0812042 0.08132188 0.08131912 0.08120011 0.08105072
 0.08094827 0.08090928 0.08091066 0.08092867 0.08096114 0.0810293 0.08114427 0.0812645 0.08131993 0.08129515
 0.08125563 0.08127813 0.08138821 0.08156803 0.08177517 0.08194368 0.08201959 0.08202053 0.08202612 0.08209231
 0.08220342 0.08231708 0.08242223 0.08253339 0.08265588 0.08278611 0.08293765 0.08314186 0.08341552 0.08373523
 0.08404449 0.0842877 0.0844515 0.08458436 0.08476731 0.08505 0.08541075 0.08577888 0.08609487 0.08635241
 0.08658742 0.08683132 0.08708449 0.0873419 0.08762582 0.08796605 0.08835377 0.08874336 0.08910154 0.08943315
 0.0897595 0.09009281 0.09043601 0.09079567 0.09118719 0.09162151 0.09207845 0.0925024 0.09284405 0.09310815
 0.09335112 0.09363651 0.09399417 0.09439809 0.09477039 0.09503783 0.09521268 0.09539384 0.09565911 0.09597987
 0.09627724 0.0965393 0.09683448 0.09721176 0.09763215 0.09801367 0.09831847 0.09857903 0.09885091 0.09915003
 0.09943601 0.0996571 0.09981041 0.09994555 0.1001095 0.1003128 0.1005596 0.1008761 0.1012731 0.1017035
 0.1020914 0.1023943 0.1026169 0.1027836 0.1029264 0.1030772 0.1032445 0.1034099 0.1035627 0.1037121
 0.1038551 0.1039706 0.1040649 0.1041871 0.1043762 0.1046216 0.1049005 0.1052169 0.1055747 0.10594
 0.1062749 0.1066005 0.1069764 0.1074038 0.1077922 0.1080526 0.1081925 0.1082849 0.1083776 0.1084846
 0.1086404 0.1088961 0.1092556 0.1096613 0.1100548 0.110423 0.1107791 0.1111237 0.1114362 0.1116904
 0.1118741 0.1119985 0.1120968 0.1122141 0.1123926 0.11265 0.1129608 0.113266 0.1135105 0.1136654
 0.1137159 0.1136577 0.1135263 0.1134055 0.1133624 0.1133687 0.1133152 0.1131064 0.1127223 0.1121881
 0.1115218 0.1107343 0.1098664 0.1090013 0.1082363 0.1076454 0.107271 0.1071441 0.1072942 0.1077167
 0.1083342 0.109014 0.1096335 0.1101087 0.1103635 0.1103142 0.1099226 0.1092471 0.1084161 0.1075573
 0.1067557 0.1060463 0.1054189 0.1048531 0.1043843 0.1041357 0.1042674 0.1048925 0.1060282 0.1075897
 0.1094039 0.1112531 0.1129487 0.1143981 0.1156113 0.1166524 0.1175866 0.1184651 0.119327 0.1201838
 0.1210033 0.1217388 0.1223807 0.1229611 0.123509 0.1240198 0.1244674 0.1248268 0.1250918 0.1252855
 0.1254437 0.1255738 0.1256501 0.1256635 0.125652 0.1256575 0.1256664 0.12561 0.125415 0.1250549
 0.12458 0.1241272 0.1239007 0.124113 0.1248956 0.1262238 0.1279225 0.1297584 0.1315354 0.1331182
 0.1344185 0.1354078 0.1361348 0.1366948 0.137174 0.137626 0.1380806 0.1385464 0.1390113 0.1394578
 0.1398812 0.1402953 0.1407224 0.1411721 0.141624 0.1420401 0.1424051 0.1427494 0.1431238 0.1435507
 0.1440043 0.1444381 0.144836 0.1452271 0.14564 0.1460529 0.1464148 0.1467098 0.1469772 0.1472708
 0.1476189 0.148018 0.1484351 0.1488184 0.1491322 0.1493875 0.1496285 0.1498896 0.1501763 0.1504782
 0.1507856 0.15109 0.1513861 0.1516818 0.1519993 0.1523488 0.1527032 0.153013 0.1532547 0.1534557
 0.1536659 0.1539129 0.1541879 0.1544667 0.1547387 0.1550183 0.1553291 0.1556712 0.1560105 0.1563041
 0.1565384 0.1567375 0.1569394 0.1571681 0.1574249 0.1576965 0.1579679 0.158232 0.1584927 0.1587601
 0.1590398 0.1593267 0.1596088 0.1598768 0.1601309 0.1603808 0.1606369 0.1609004 0.1611666 0.1614408
 0.1617404 0.1620719 0.1624106 0.1627156 0.1629643 0.1631653 0.1633447 0.1635278 0.1637303 0.1639578
 0.164207 0.1644714 0.1647441 0.1650172 0.165284 0.1655436 0.1658003 0.1660578 0.1663148 0.1665681
 0.1668201 0.1670819 0.1673627 0.1676551 0.1679368 0.1681918 0.1684257 0.1686578 0.1689009 0.169152
 0.1693996 0.1696384 0.1698752 0.1701197 0.1703745 0.1706336 0.1708902 0.171141 0.1713862 0.1716295
 0.1718753 0.1721246 0.1723745 0.1726224 0.1728671 0.173109 0.1733506 0.1735967 0.1738496 0.1741063
 0.174362 0.1746147 0.1748662 0.1751196 0.1753731 0.1756183 0.1758481 0.1760658 0.1762836 0.176512
 0.1767526 0.1769986 0.1772415 0.1774796 0.1777196 0.1779667 0.1782179 0.1784648 0.1787026 0.1789349
 0.1791717 0.179422 0.179684 0.1799479 0.1802065 0.1804601 0.180712 0.1809651 0.1812212 0.1814789
 0.1817358 0.1819918 0.1822472 0.1824985 0.1827421 0.1829782 0.1832094 0.1834386 0.1836689 0.1839
 0.1841266 0.1843461 0.1845633 0.1847849 0.1850152 0.1852567 0.1855065 0.1857568 0.1860048 0.1862553
 0.1865098 0.1867651 0.1870213 0.1872806 0.1875393 0.1877931 0.1880437 0.188294 0.1885437 0.1887906
 0.189031 0.1892633 0.1894972 0.1897464 0.1900112 0.1902781 0.1905371 0.190787 0.1910312 0.1912779
 0.1915346 0.1917956 0.1920478 0.1922885 0.1925251 0.1927659 0.193018 0.1932831 0.1935515 0.1938111
 0.1940596 0.1942991 0.194532 0.1947679 0.1950166 0.195272 0.1955228 0.1957716 0.1960258 0.1962834
 0.1965404 0.1967961 0.1970473 0.1972943 0.1975453 0.1978017 0.1980552 0.1983056 0.1985547 0.1987813
 0.1989296 0.1988734 0.198308 0.196633 0.1929358 0.1861676 0.1755568 0.1610936 0.1437052 0.1249296
 0.1063489 0.08917671 0.07413438 0.06154322 0.05148377 0.04389471 0.03862585 0.03553718 0.03461602 0.03610322
 0.04062213 0.04880565 0.05990951 0.07059487 0.0762362 0.07457455 0.0678737 0.06085459 0.05677685 0.05586832
 0.05672966 0.05816147 0.05978176 0.06181239 0.06463613 0.06836627 0.07282473 0.07799617 0.08425166 0.09186652
 0.1004413 0.1090687 0.1171144 0.1247136 0.1324575 0.1406784 0.149099 0.1571031 0.1642224 0.1703696
 0.1757444 0.1806145 0.1851601 0.1894562 0.193536 0.1973988 0.2009188 0.2038018 0.2057274 0.2065979
 0.2066568 0.2063498 0.2060603 0.2059635 0.2060784 0.2063798 0.2068421 0.2074379 0.2081453 0.2089489
 0.2098235 0.2107304 0.2116346 0.2125134 0.213352 0.2141388 0.214865 0.2155283 0.2161388 0.2167108
 0.2172434 0.2177226 0.2181471 0.2185366 0.2189105 0.2192727 0.2196195 0.2199492 0.220262 0.2205587
 0.2208371 0.2210924 0.2213257 0.2215512 0.2217854 0.2220313 0.2222792 0.2225187 0.2227463 0.2229659
 0.2231841 0.223402 0.2236143 0.2238201 0.2240274 0.2242422 0.2244602 0.224673 0.224877 0.2250746
 0.2252732 0.2254795 0.225693 0.2259058 0.2261145 0.2263251 0.226544 0.2267693 0.2269934 0.2272108
 0.2274237 0.227642 0.2278705 0.2281011 0.2283249 0.2285458 0.2287729 0.2290072 0.2292454 0.2294862
 0.2297208 0.2299319 0.2301133 0.2302826 0.2304691 0.2306907 0.2309396 0.2311881 0.2314142 0.2316199
 0.2318215 0.2320276 0.2322338 0.2324311 0.2326201 0.2328229 0.233068 0.2333516 0.2336347 0.2338928
 0.2341406 0.2343984 0.2346677 0.2349433 0.2352114 0.2354353 0.2355855 0.2356934 0.2358496 0.2361303
 0.2365258 0.2369436 0.2372922 0.2375603 0.237804 0.2380767 0.2383932 0.2387162 0.2389423 0.2389741
 0.2388745 0.2388823 0.2391934 0.2397678 0.2404024 0.2409374 0.2413432 0.241665 0.2419444 0.2421828
 0.2423397 0.2423788 0.2423455 0.2423959 0.2426905 0.2432276 0.2438294 0.2443249 0.244684 0.2449554
 0.2451767 0.2453706 0.2454995 0.2454041 0.244973 0.2444393 0.2443189 0.2449132 0.2459715 0.2469585
 0.2475822 0.2479448 0.2482458 0.2485333 0.248759 0.2488264 0.2484775 0.24744 0.245962 0.2449645
 0.2452836 0.2468309 0.2487417 0.2502369 0.2511148 0.2515664 0.2518397 0.2520687 0.2521697 0.2518553
 0.2509592 0.2498567 0.2493649 0.2499913 0.2513666 0.2526405 0.2533458 0.253641 0.25386 0.2541371
 0.2543157 0.2538967 0.2523203 0.2497951 0.2477202 0.2477048 0.2499951 0.2531781 0.2555797 0.2567043
 0.25711 0.2571835 0.2565709 0.2548255 0.2520891 0.2490275 0.2466223 0.2460408 0.2478632 0.2511131
 0.2538083 0.2549116 0.2552052 0.2559937 0.2575482 0.2591059 0.2598683 0.2596216 0.2586046 0.2570758
 0.2551903 0.2534019 0.2527015 0.2539161 0.2567051 0.259683 0.261697 0.2627003 0.2631485 0.2626472
 0.2596783 0.2534205 0.2460304 0.2420511 0.2444029 0.2513317 0.2582969 0.2624401 0.2641512 0.2649394
 0.2654055 0.2650778 0.2626823 0.2568353 0.2482237 0.2409808 0.2398889 0.2456453 0.2540738 0.2600279
 0.2608963 0.2568756 0.2500465 0.2437552 0.2412438 0.2436836 0.2496691 0.2566124 0.2622933 0.2654565
 0.2658011 0.2638747 0.2610365 0.2591177 0.2590922 0.2596398 0.2581531 0.2540341 0.2496962 0.247021
 0.244444 0.2398449 0.2352075 0.2353 0.2414751 0.2494016 0.2539302 0.2543099 0.2532477 0.2519927
 0.2482074 0.2393337 0.2274272 0.2192509 0.2203543 0.2293138 0.2390106 0.2436089 0.2431955 0.2416764
 0.2415638 0.2414163 0.2378681 0.2300147 0.2216249 0.217976 0.2202461 0.2244577 0.226182 0.2240799
 0.2183639 0.2093634 0.2000358 0.1968748 0.2044255 0.2197073 0.2345574 0.242362 0.2404675 0.2286911
 0.2102269 0.1935705 0.1883903 0.1968696 0.2110523 0.2201702 0.219196 0.209719 0.1953089 0.1790696
 0.1651034 0.1589679 0.1643244 0.1792108 0.1961384 0.2058458 0.2024131 0.1878422 0.1724104 0.1672824
 0.1743844 0.1851022 0.1899413 0.1871382 0.1813053 0.1774537 0.1780868 0.18282 0.1888102 0.1933988
 0.1962361 0.1963511 0.1892918 0.1724873 0.1524482 0.140504 0.1410201 0.1491339 0.1598264 0.1724383
 0.1848087 0.1901758 0.1848101 0.1750914 0.1720873 0.1797985 0.1917223 0.1987998 0.1983766 0.194694
 0.1923125 0.1912375 0.1891966 0.1869134 0.1883038 0.1950735 0.2037452 0.2095428 0.2113679 0.2113749
 0.2113171 0.2112191 0.2106156 0.2093463 0.2074782 0.205424 0.203818 0.2028007 0.2018921 0.2007203
 0.1990076 0.1955058 0.1882754 0.1774455 0.1669506 0.1614397 0.1613777 0.1633369 0.1650818 0.1668944
 0.166855 0.1594841 0.1429914 0.1252426 0.1180416 0.125731 0.1419632 0.1569194 0.1647913 0.1642638
 0.1556163 0.1410262 0.1270813 0.1227287 0.1319559 0.149948 0.1682522 0.1820676 0.1907691 0.1938719
 0.1902378 0.181087 0.1711857 0.1661403 0.1690079 0.1789251 0.1913411 0.1991436 0.1961415 0.1832488
 0.1712849 0.1729926 0.1896188 0.2087934 0.2184329 0.2190005 0.2185832 0.2203219 0.2208585 0.2192046
 0.2202889 0.2281896 0.2401058 0.2490951 0.2501581 0.2422158 0.2274534 0.2117909 0.2033423 0.2059178
 0.2146893 0.22143 0.2224761 0.2182717 0.2085043 0.1940701 0.1821826 0.1820623 0.1942577 0.2094027
 0.2188596 0.222576 0.2252068 0.2280679 0.2275569 0.2206419 0.2099345 0.2020779 0.2011807 0.205223
 0.2094693 0.2114659 0.2111012 0.2077928 0.2008433 0.1925591 0.1882756 0.1917396 0.2012369 0.2111894
 0.2171299 0.2184934 0.2173106 0.2155692 0.2138699 0.2115935 0.2082454 0.2051988 0.2054273 0.2103202
 0.2174388 0.2229998 0.2261943 0.2294553 0.2346054 0.2403055 0.2436466 0.2433022 0.2407887 0.2391572
 0.2405475 0.2444713 0.2481592 0.2489265 0.2467375 0.2444847 0.2453264 0.2496772 0.2551633 0.2593302
 0.2616556 0.2630163 0.2642136 0.2652778 0.2654487 0.2637441 0.2603331 0.2573431 0.2573587 0.2608656
 0.2657945 0.2696648 0.2715874 0.2721342 0.2719915 0.2712376 0.2697365 0.2677899 0.2661525 0.2654353
 0.2656592 0.2664187 0.2672987 0.2680535 0.2685733 0.2688584 0.2689882 0.2690448 0.2690927 0.2692134
 0.2694637 0.2697848 0.2700603 0.2702984 0.2706602 0.2712448 0.2719229 0.2724561 0.2727086 0.2726485
 0.2722168 0.2713439 0.2700923 0.2686392 0.2670754 0.2653481 0.2635129 0.2619969 0.2614625 0.2623131
 0.2643281 0.2668041 0.2690327 0.2706481 0.2716311 0.2721319 0.2723319 0.27238 0.2723641 0.272306
 0.2721861 0.2719835 0.2717026 0.2713704 0.2710177 0.2706765 0.270386 0.2701762 0.2700343 0.2699009
 0.269709 0.2694258 0.2690625 0.2686521 0.2682149 0.2677336 0.2671576 0.2664394 0.2655785 0.2646323
 0.2636838 0.2627926 0.2619653 0.2611634 0.2603354 0.2594407 0.2584381 0.2572696 0.2559083 0.2544387
 0.2530402 0.2518467 0.2508422 0.2499068 0.2489271 0.247843 0.2466336 0.2453068 0.2438905 0.2424154
 0.2409046 0.2393752 0.2378336 0.2362662 0.2346468 0.232958 0.2312023 0.2293952 0.2275508 0.2256723
 0.2237387 0.2216854 0.2193987 0.2167447 0.213608 0.209911 0.2056299 0.2008302 0.1956791 0.1903989
 0.1851984 0.1802387 0.1756392 0.1714956 0.1678965 0.1649246 0.1626378 0.1610598 0.1601923 0.1600306
 0.1605627 0.1617539 0.1635274 0.1657573 0.1682851 0.1709436 0.1735679 0.1760148 0.1782118 0.1801929
 0.1820623 0.183902 0.1857083 0.1874166 0.1889726 0.1903672 0.1916082 0.1926862 0.1935852 0.1943064
 0.19487 0.1953073 0.1956611 0.1959709 0.1962512 0.1964943 0.1966938 0.1968602 0.1970218 0.1972186
 0.1974819 0.1978149 0.1982084 0.198671 0.1992283 0.1998935 0.2006529 0.2014791 0.2023538 0.2032774
 0.2042578 0.2052995 0.2064138 0.2076333 0.2089973 0.2105224 0.2121969 0.2139889 0.2158456 0.2176895
 0.2194285 0.220975 0.2222662 0.2232846 0.2240566 0.2246258 0.2250293 0.2252958 0.2254494 0.2255073
 0.225476 0.22535 0.2251206 0.224792 0.2243822 0.2239002 0.2233418 0.2227202 0.2220777 0.2214511
 0.2208457 0.2202545 0.2196818 0.2191375 0.2186207 0.2181202 0.217621 0.2171097 0.2165758 0.2160136
 0.2154239 0.2148068 0.2141423 0.2133868 0.2125062 0.2115053 0.2104084 0.2092249 0.2079493 0.2065816
 0.2051275 0.2035909 0.2019775 0.2003016 0.1985797 0.1968101 0.194958 0.1929768 0.1908657 0.1886984
 0.186581 0.1845862 0.1827312 0.1809927 0.1793327 0.177726 0.1761769 0.1747021 0.173308 0.1719923
 0.1707527 0.1695785 0.1684534 0.1673777 0.1663734 0.1654641 0.1646636 0.1639802 0.1634125 0.1629411
 0.1625347 0.1621721 0.1618634 0.1616471 0.161551 0.1615478 0.161561 0.1615152 0.1613735 0.161143
 0.1608696 0.1606173 0.1604273 0.1602975 0.1601941 0.1600641 0.1598336 0.1594177 0.1587447 0.1577733
 0.1564972 0.1549428 0.1531622 0.1512407 0.1493093 0.1475184 0.1459754 0.1447181 0.143738 0.1429946
 0.1424147 0.1419255 0.1415089 0.1412137 0.1411073 0.1411979 0.1413818 0.1414958 0.1414639 0.1413795
 0.141421 0.1417085 0.1422427 0.14293 0.1436383 0.1442596 0.1447404 0.1450635 0.1452351 0.1452938
 0.1452847 0.1452124 0.1450503 0.1447914 0.1444598 0.1440851 0.1436808 0.143233 0.1427115 0.1421031
 0.1414133 0.1406363 0.1397628 0.1388042 0.137758 0.1365913 0.1353413 0.1342051 0.1334539 0.1332599
 0.1336105 0.1343423 0.1352559 0.1362292 0.1371776 0.137904 0.1381725 0.138072 0.1381787 0.1391348
 0.1410316 0.1433061 0.145246 0.1464957 0.1470702 0.1470748 0.1465734 0.1456187 0.1442182 0.1423165
 0.1399218 0.1371707 0.1342154 0.13118 0.1282391 0.125581 0.1233039 0.1214386 0.1199918 0.1189965
 0.1185624 0.1183184 0.1164393 0.110589 0.1015143 0.09467204 0.09566087 0.1039347 0.1131698 0.1179552
 0.1181121 0.1164931 0.1150748 0.114161 0.1136537 0.1136844 0.1143727 0.1155887 0.1169643 0.1181038
 0.1188313 0.1191669 0.1190598 0.1181785 0.1158518 0.1112792 0.1041799 0.09538972 0.08657816 0.079257
 0.07410192 0.07100034 0.0693904 0.06858339 0.06809162 0.06784627 0.06810597 0.06913862 0.07098831 0.07351542
 0.07654596 0.07984652 0.08301511 0.08564067 0.08763402 0.08922256 0.09057567 0.09160186 0.09213366 0.09214399
 0.09174494 0.09109202 0.09032221 0.08950798 0.0886253 0.0875947 0.08641694 0.08528236 0.08446685 0.08407538
 0.08396862 0.0839657 0.08399773 0.0840386 0.08403455 0.0839598 0.08385716 0.0838159 0.08395032 0.08433329
 0.08489134 0.08542685 0.08578158 0.08594543 0.08601173 0.08603513 0.08591002 0.08546665 0.0847696 0.08415569
 0.083785 0.08333272 0.08240535 0.08114696 0.08015543 0.07984642 0.08010331 0.08050197 0.08068944 0.08056279
 0.08027896 0.08017403 0.08052659 0.08124055</values></Ydata></ScSm><ScRf><Ydata ylabel="Single channel"><values byteorder="INTEL" format="FLOAT32" numvalues="1820"> 0.0605948 0.06075417 0.06085262 0.06088983 0.0608886 0.06089539 0.06096205 0.06110855 0.06130216 0.06147799
 0.06158794 0.06163184 0.0616345 0.06160429 0.06154342 0.06149476 0.06153347 0.06169114 0.0619086 0.06207651
 0.06212243 0.06207413 0.06204308 0.06211332 0.06222508 0.06219612 0.06189568 0.06139664 0.06092581 0.06065548
 0.06059871 0.06074698 0.06118216 0.06186123 0.06237195 0.06222509 0.06146547 0.0607107 0.06046518 0.06063585
 0.0608127 0.06074606 0.06042752 0.06000217 0.05981516 0.06031904 0.06163021 0.06315922 0.06381977 0.06271602
 0.05978519 0.05600113 0.05301113 0.0522515 0.05393865 0.05678004 0.05894217 0.05951138 0.05893451 0.05809712
 0.05736855 0.05670907 0.0562846 0.05650629 0.0574628 0.05853076 0.05869388 0.0574142 0.05527549 0.05357012
 0.05311821 0.05375146 0.05500677 0.05663183 0.05788528 0.05713084 0.0534444 0.04866011 0.04655993 0.04928001
 0.05502951 0.05983891 0.06109202 0.05900025 0.05545758 0.05246639 0.05137136 0.05249813 0.05510906 0.05801781
 0.06030373 0.06134375 0.06065198 0.05830772 0.05537085 0.0533653 0.05334149 0.05546641 0.0589907 0.06231617
 0.06372024 0.06262819 0.05999679 0.05730516 0.05558138 0.05540565 0.05705766 0.06022786 0.06399428 0.06735305
 0.06962712 0.07054195 0.07028998 0.06940875 0.06836848 0.06748541 0.06720498 0.06783327 0.06880322 0.06888688
 0.06753379 0.06560986 0.0645063 0.06470151 0.06538102 0.06542782 0.06455211 0.06310886 0.06099197 0.05761239
 0.05324709 0.0494015 0.04730553 0.04697669 0.04811542 0.05058351 0.05334628 0.05440865 0.05299536 0.05094507
 0.05088257 0.05341837 0.05683456 0.05918781 0.06011023 0.0606739 0.06200666 0.06413621 0.06584675 0.06559422
 0.06303956 0.05991556 0.0588064 0.06060872 0.06366451 0.06579684 0.06660505 0.06722159 0.06833388 0.06912224
 0.0681198 0.06495836 0.06129834 0.05979831 0.06179926 0.06598359 0.06932968 0.06934145 0.06572892 0.06048318
 0.05632696 0.05482668 0.05597384 0.05922697 0.06411096 0.06966241 0.0741801 0.07617515 0.07544746 0.07301416
 0.06994825 0.06638408 0.06205779 0.0579478 0.05649072 0.05928276 0.06503405 0.07063857 0.07394695 0.07484345
 0.07403596 0.07172184 0.06778915 0.06311819 0.06001647 0.06042555 0.06358076 0.06643832 0.06686303 0.06558039
 0.06461731 0.0647751 0.06532378 0.06555778 0.0658107 0.06688891 0.06891474 0.07102332 0.07219676 0.07218464
 0.07154877 0.07101229 0.07080397 0.07048859 0.06958541 0.06853318 0.06863746 0.07063377 0.0736675 0.07617056
 0.07743534 0.07786983 0.07793894 0.07735208 0.07547709 0.07251349 0.06998134 0.06959434 0.07160062 0.07462175
 0.07708859 0.0783755 0.07866156 0.07836208 0.07784437 0.07730913 0.0768505 0.07670821 0.07720864 0.0782937
 0.07941473 0.08008252 0.08026817 0.08015104 0.07976757 0.07909089 0.07828862 0.07772322 0.07768942 0.07819307
 0.07899734 0.07983533 0.0805044 0.08082263 0.08069174 0.08024387 0.07976744 0.07944217 0.07927144 0.07926577
 0.07950974 0.07999625 0.08054006 0.08093332 0.08111343 0.08113962 0.08107536 0.08094224 0.08075723 0.08058107
 0.08052115 0.08065543 0.0809346 0.0812128 0.08141707 0.08162059 0.08188585 0.08211157 0.08213718 0.08195953
 0.08174944 0.08166509 0.08172098 0.08183344 0.08191757 0.08190393 0.08172096 0.0813581 0.08096239 0.08078566
 0.08098086 0.08149087 0.08214421 0.08277742 0.08325715 0.0835039 0.08355307 0.08351924 0.08346345 0.08334988
 0.08314949 0.08293849 0.08287214 0.08306397 0.08348179 0.08396566 0.08435522 0.08458565 0.08468024 0.084718
 0.08480707 0.08499862 0.08520438 0.08527763 0.08519832 0.0851097 0.08514826 0.085289 0.08538663 0.08534655
 0.08523149 0.0851949 0.0853199 0.08554715 0.08576208 0.08592197 0.08607692 0.08627722 0.0864773 0.08655432
 0.08644377 0.08623482 0.08608353 0.08604728 0.0860682 0.08610923 0.08621792 0.08642683 0.08666092 0.08680087
 0.08681647 0.08679268 0.08682074 0.08689165 0.08691423 0.08682334 0.08664916 0.08648603 0.08641362 0.08644627
 0.08653449 0.08660351 0.08660103 0.08652455 0.08641105 0.08630147 0.0862167 0.08617124 0.08620111 0.08634764
 0.08658954 0.08680627 0.08685045 0.08667974 0.08640821 0.08620834 0.08615535 0.08617088 0.0861165 0.08592898
 0.08566002 0.08540578 0.08522236 0.08510362 0.08501293 0.08492625 0.08486114 0.0848712 0.08499018 0.08516304
 0.08525429 0.08516061 0.08491216 0.08463882 0.08444794 0.08435978 0.084337 0.08433485 0.08433494 0.08436099
 0.0844426 0.08454622 0.08458278 0.08451124 0.08439581 0.08434002 0.08440313 0.08458185 0.08481187 0.08497716
 0.0849863 0.0848683 0.08475009 0.08472559 0.08478425 0.08486895 0.08495285 0.08503994 0.08513045 0.08522082
 0.08532847 0.08548942 0.08572318 0.08600412 0.08626933 0.08645831 0.08655871 0.0866258 0.08674987 0.0869873
 0.08731437 0.08764823 0.08791599 0.08810837 0.08827085 0.08844621 0.08863703 0.08883268 0.08905265 0.08933135
 0.08966507 0.09000742 0.09032144 0.09060991 0.09089239 0.09117728 0.09146626 0.09177389 0.09213104 0.09255501
 0.09300572 0.09338823 0.09362805 0.09374706 0.09385104 0.09404726 0.09437372 0.09477425 0.09512472 0.0953248
 0.09540039 0.09548819 0.09568764 0.0959605 0.09621289 0.09644049 0.09673259 0.09713982 0.09759241 0.09796668
 0.09820636 0.09836268 0.09852611 0.09872955 0.09892315 0.09904703 0.09911425 0.0991953 0.09932926 0.09949742
 0.09969534 0.0999735 0.1003651 0.1008117 0.1012065 0.1014922 0.1016842 0.1018219 0.1019319 0.1020211
 0.1020787 0.1020997 0.1021172 0.1021811 0.1022898 0.1023812 0.1024145 0.1024267 0.1024865 0.1026251
 0.1028388 0.1031221 0.1034551 0.1037815 0.1040554 0.1043095 0.1046221 0.1049978 0.1053279 0.1055071
 0.1055519 0.1055602 0.1055867 0.1056208 0.1056703 0.1057954 0.1060399 0.1063775 0.1067471 0.1071153
 0.1074826 0.1078455 0.1081688 0.1083973 0.1084944 0.1084785 0.1084238 0.1084252 0.1085502 0.1088049
 0.1091344 0.1094625 0.1097377 0.1099387 0.1100446 0.1100401 0.1099677 0.1099395 0.1100454 0.1102495
 0.1104086 0.1103945 0.1101772 0.1097926 0.1092753 0.1086492 0.1079634 0.1073019 0.106747 0.1063438
 0.1061083 0.1060646 0.1062565 0.1067017 0.1073394 0.1080468 0.108709 0.1092457 0.1095726 0.1095907
 0.1092574 0.1086456 0.1079028 0.1071595 0.1064849 0.105889 0.1053344 0.1047797 0.1042595 0.1039225
 0.1039634 0.1045099 0.1055562 0.1069652 0.108513 0.1099669 0.1111789 0.1121353 0.11292 0.1136251
 0.1142965 0.1149533 0.1156196 0.1163017 0.1169535 0.1175112 0.1179683 0.1183802 0.1187922 0.1191939
 0.1195462 0.119825 0.1200417 0.1202383 0.1204479 0.1206445 0.120755 0.1207412 0.1206449 0.1205322
 0.1204167 0.1202554 0.1199971 0.1196237 0.1191752 0.1187684 0.1185829 0.1187905 0.1194582 0.1205043
 0.121758 0.1230699 0.124354 0.1255335 0.1265041 0.1271928 0.1276297 0.1279246 0.1281815 0.1284541
 0.128757 0.1290833 0.1294107 0.1297158 0.1299938 0.130265 0.1305603 0.1308933 0.1312408 0.1315566
 0.1318168 0.1320496 0.1323146 0.1326478 0.1330246 0.1333857 0.1337032 0.1340083 0.1343341 0.1346529
 0.1349041 0.1350771 0.1352297 0.13543 0.1357093 0.1360601 0.1364391 0.136775 0.1370154 0.1371768
 0.1373264 0.1375167 0.1377512 0.1380081 0.1382709 0.1385318 0.1387866 0.1390412 0.1393142 0.1396136
 0.1399099 0.1401497 0.1403122 0.1404379 0.1405901 0.1407935 0.141021 0.141233 0.1414231 0.1416284
 0.1418945 0.1422237 0.1425597 0.1428309 0.1430105 0.1431313 0.143249 0.1434001 0.1435903 0.1438072
 0.1440346 0.1442581 0.1444705 0.1446759 0.1448832 0.1450943 0.1453029 0.1455064 0.1457084 0.1459099
 0.1461046 0.1462905 0.1464816 0.1467061 0.1469851 0.1473062 0.1476203 0.1478768 0.1480616 0.1481971
 0.1483142 0.1484362 0.1485773 0.1487417 0.1489248 0.1491215 0.1493299 0.149547 0.1497662 0.1499832
 0.1501977 0.1504105 0.1506207 0.1508266 0.1510315 0.1512463 0.1514782 0.1517158 0.1519344 0.1521225
 0.1522953 0.1524786 0.1526855 0.1529076 0.1531232 0.1533169 0.1534937 0.1536703 0.1538551 0.1540435
 0.1542313 0.154421 0.1546149 0.154811 0.155008 0.1552069 0.1554071 0.1556063 0.155804 0.1560026
 0.156202 0.1563965 0.1565832 0.1567705 0.1569712 0.1571845 0.1573955 0.157593 0.1577806 0.1579688
 0.1581624 0.1583585 0.1585511 0.1587365 0.1589179 0.1591038 0.1593011 0.159509 0.1597195 0.1599249
 0.1601257 0.1603292 0.1605384 0.1607472 0.1609529 0.1611625 0.1613818 0.1616063 0.1618268 0.1620389
 0.162245 0.1624534 0.1626722 0.1629006 0.1631293 0.163352 0.1635702 0.1637852 0.1639929 0.1641892
 0.1643738 0.1645487 0.1647149 0.1648747 0.1650366 0.1652132 0.1654072 0.1656051 0.165792 0.1659688
 0.1661466 0.1663334 0.1665309 0.1667367 0.1669447 0.1671511 0.1673582 0.1675671 0.1677734 0.1679759
 0.1681803 0.1683879 0.168592 0.168789 0.1689831 0.169182 0.1693919 0.1696113 0.1698283 0.1700353
 0.1702418 0.1704591 0.1706818 0.1708958 0.1710978 0.1712952 0.171497 0.1717078 0.1719258 0.1721449
 0.1723617 0.1725741 0.1727786 0.172976 0.1731728 0.173371 0.1735684 0.1737706 0.1739846 0.1742032
 0.1744138 0.1746179 0.1748245 0.1750387 0.1752654 0.1755049 0.1757438 0.1759681 0.1761814 0.1763943
 0.1766093 0.1768244 0.1770313 0.1772062 0.1773058 0.1772307 0.176719 0.1752326 0.1719428 0.1659003
 0.1564127 0.143474 0.1279152 0.1111115 0.09447907 0.07910762 0.06565093 0.05440491 0.04543968 0.03868493
 0.03399094 0.03123161 0.03040831 0.03174806 0.03580547 0.04313075 0.05304692 0.06257613 0.06760046 0.0661069
 0.06011046 0.05382197 0.05015504 0.04932069 0.05007922 0.05136874 0.05284861 0.05470522 0.05726241 0.06060722
 0.06457915 0.06917955 0.07476132 0.08157904 0.08926497 0.09699126 0.1041836 0.1109672 0.1178805 0.1252271
 0.132758 0.1399191 0.1462925 0.1518004 0.1566165 0.1609753 0.1650419 0.168893 0.1725633 0.1760473
 0.1792239 0.1818227 0.1835533 0.184327 0.1843637 0.18407 0.1837991 0.1837112 0.1838169 0.1840856
 0.1844955 0.1850307 0.1856753 0.1864068 0.1871918 0.1879972 0.1888033 0.1895946 0.1903521 0.1910615
 0.1917177 0.1923167 0.1928581 0.1933548 0.1938221 0.1942647 0.1946805 0.195069 0.195431 0.1957706
 0.1960981 0.19642 0.1967297 0.1970161 0.1972755 0.1975109 0.1977284 0.1979387 0.1981505 0.1983627
 0.1985693 0.1987704 0.1989715 0.1991762 0.1993838 0.1995909 0.1997953 0.1999991 0.2002046 0.2004071
 0.200599 0.2007808 0.2009607 0.201145 0.2013342 0.2015267 0.2017215 0.2019171 0.2021135 0.202311
 0.2025093 0.2027099 0.2029158 0.2031258 0.2033348 0.2035404 0.203743 0.2039423 0.2041402 0.2043418
 0.204547 0.2047504 0.2049543 0.2051679 0.205385 0.2055805 0.2057408 0.2058865 0.2060571 0.206273
 0.2065168 0.2067515 0.2069587 0.207151 0.2073466 0.2075472 0.2077426 0.2079251 0.2080981 0.2082818
 0.2085029 0.208763 0.2090325 0.2092879 0.209532 0.2097708 0.2100002 0.2102223 0.210441 0.2106382
 0.2107882 0.2109067 0.2110607 0.2113149 0.2116663 0.2120368 0.2123425 0.2125703 0.2127731 0.2130042
 0.2132792 0.2135648 0.2137689 0.2138024 0.2137154 0.2137204 0.2140022 0.2145337 0.2151271 0.2156238
 0.2159907 0.2162739 0.2165187 0.2167271 0.2168607 0.2168889 0.216858 0.2169106 0.2171875 0.2176822
 0.2182316 0.2186801 0.2189997 0.2192331 0.2194131 0.2195635 0.2196613 0.2195739 0.2192008 0.21874
 0.2186441 0.2191794 0.2201214 0.2209939 0.2215426 0.221867 0.2221491 0.2224286 0.2226556 0.2227393
 0.2224447 0.2215213 0.2201893 0.219285 0.2195738 0.2209771 0.2227051 0.2240491 0.2248332 0.2252383
 0.2254893 0.2257031 0.2258019 0.2255279 0.2247325 0.2237525 0.2233217 0.223899 0.2251555 0.2263242
 0.2269775 0.2272529 0.2274531 0.2277077 0.2278864 0.2275438 0.2261666 0.2239285 0.2220827 0.2220811
 0.2241508 0.2270227 0.229192 0.2302137 0.2305922 0.2306773 0.2301494 0.2286014 0.2261554 0.2234085
 0.2212466 0.2207295 0.2223908 0.2253525 0.2278188 0.2288477 0.2291458 0.2298926 0.2313296 0.2327601
 0.2334577 0.2332356 0.2323269 0.2309758 0.2293142 0.2277372 0.2271358 0.2282618 0.2308067 0.2335124
 0.2353355 0.2362412 0.2366534 0.2362244 0.2335816 0.2279755 0.2213491 0.2178053 0.2199822 0.226292
 0.2326251 0.2363936 0.2379568 0.2386948 0.2391593 0.2389149 0.2367958 0.2315454 0.2237878 0.2172678
 0.2163162 0.2215616 0.2292189 0.2346306 0.2354444 0.2318499 0.2257305 0.2201045 0.2178958 0.2201623
 0.2256348 0.2319684 0.2371493 0.2400488 0.2404078 0.23872 0.2362026 0.2345137 0.2345518 0.2351266
 0.2338626 0.2302044 0.2263392 0.2239776 0.2216999 0.2175808 0.2134292 0.2135935 0.2193157 0.2266539
 0.2309094 0.2313845 0.2305331 0.2294851 0.2261097 0.2180815 0.2072861 0.1999101 0.2010375 0.2093728
 0.2183978 0.2227577 0.2225173 0.2212476 0.2212604 0.2212533 0.2181458 0.2110997 0.2035718 0.2004149
 0.2027131 0.2068093 0.2086343 0.2069496 0.2019228 0.1938377 0.1854503 0.1828221 0.1902041 0.2048318
 0.2190931 0.2267939 0.2254134 0.2147335 0.1977373 0.1824534 0.1780468 0.1865997 0.2005768 0.209759
 0.2093482 0.2008125 0.1875252 0.1724707 0.1596415 0.1544629 0.1605498 0.1760486 0.1936407 0.2041498
 0.2016116 0.187948 0.1734413 0.1693341 0.1775587 0.1893729 0.1951456 0.193099 0.1879398 0.1848211
 0.1863786 0.1922362 0.1993944 0.2050572 0.2088654 0.2097124 0.202728 0.1851267 0.1639558 0.1514594
 0.1523685 0.1614662 0.173365 0.187349 0.2010185 0.2069753 0.2011645 0.1905719 0.1872772 0.1956236
 0.2084995 0.2160373 0.2153814 0.2111977 0.2084885 0.2072776 0.2050975 0.2027415 0.2044734 0.2121374
 0.221929 0.2286403 0.2310787 0.2315966 0.2321053 0.2326201 0.2326126 0.2318943 0.2305373 0.2289941
 0.2279606 0.2275986 0.2273859 0.2269087 0.2258343 0.2226977 0.2152209 0.2035093 0.1920841 0.1863043
 0.1866869 0.1892685 0.1914964 0.1937206 0.1937053 0.185079 0.1657484 0.1448099 0.1359339 0.1441545
 0.1621195 0.1784761 0.1865726 0.1850254 0.1743152 0.1569909 0.1403895 0.1343437 0.1431615 0.1614931
 0.1800503 0.1936102 0.2016144 0.2037362 0.1988928 0.1883984 0.1772327 0.171198 0.173388 0.1828258
 0.1947864 0.2020136 0.198272 0.1845439 0.1717608 0.1727367 0.1887273 0.207344 0.2164828 0.2165802
 0.2156987 0.2169894 0.217132 0.2151432 0.215904 0.2234679 0.2351049 0.2440005 0.2452417 0.2377502
 0.2236495 0.208767 0.2011218 0.2044561 0.2139136 0.221268 0.2228571 0.2191037 0.2096705 0.1954943
 0.1839176 0.1842719 0.1970675 0.2127805 0.2226683 0.2267303 0.2297395 0.233033 0.2328958 0.226197
 0.2156238 0.2080327 0.2076754 0.2124822 0.2175791 0.2204298 0.2208747 0.2182208 0.2116682 0.2036231
 0.1997328 0.203978 0.2145276 0.2254182 0.2318645 0.2332503 0.2317408 0.2294666 0.2270896 0.2239753
 0.2196134 0.2154527 0.2146181 0.2185793 0.2248177 0.2294153 0.2315365 0.2337069 0.2378381 0.2425911
 0.2450057 0.2437337 0.2403239 0.2378695 0.2385235 0.2417926 0.2449083 0.2451866 0.2425774 0.23995
 0.2404502 0.2444994 0.2497391 0.2537172 0.2558863 0.2570886 0.2581121 0.2590002 0.2590211 0.2572245
 0.253791 0.2508088 0.2507899 0.2541787 0.2589339 0.2626416 0.2644633 0.2649842 0.2648776 0.2642045
 0.2628126 0.260978 0.2594247 0.2587563 0.2590222 0.259851 0.2608333 0.2617118 0.2623753 0.2628305
 0.2631437 0.2633521 0.2634632 0.2635257 0.2636014 0.26366 0.2636119 0.2634833 0.2634534 0.2636491
 0.2639768 0.2642258 0.2642653 0.2640518 0.2635114 0.2625612 0.2612528 0.2597661 0.2582129 0.2565578
 0.2548453 0.2534626 0.2530313 0.2539363 0.2559631 0.2584244 0.260628 0.2622249 0.2632078 0.2637247
 0.2639408 0.263994 0.2639757 0.2639148 0.2637928 0.2635852 0.2632921 0.2629332 0.2625315 0.2621164
 0.2617339 0.261425 0.2611793 0.2609284 0.2605961 0.2601548 0.2596344 0.259091 0.2585612 0.2580253
 0.2574119 0.2566532 0.2557445 0.2547532 0.2537777 0.2528909 0.2521011 0.2513555 0.2505923 0.2497861
 0.2489238 0.2479598 0.2468516 0.245658 0.2445461 0.2436573 0.242984 0.2423996 0.2417738 0.2410338
 0.2401586 0.2391708 0.2381265 0.2370699 0.2359962 0.2348742 0.2336859 0.2324265 0.2310836 0.2296455
 0.2281203 0.2265357 0.2249227 0.2232974 0.2216395 0.219879 0.2179063 0.2155935 0.2128134 0.2094662
 0.2055218 0.2010545 0.1962351 0.1912791 0.186383 0.1816986 0.1773499 0.173453 0.1701063 0.1673735
 0.1652905 0.1638837 0.1631771 0.1631852 0.1639014 0.1652839 0.1672525 0.169695 0.1724759 0.175439
 0.1784168 0.1812569 0.1838665 0.1862463 0.1884678 0.1905902 0.1926003 0.1944419 0.1960803 0.1975146
 0.1987467 0.1997723 0.2006007 0.2012661 0.2018158 0.2022908 0.202715 0.2030977 0.2034419 0.2037447
 0.2039951 0.2041887 0.2043421 0.2044887 0.2046614 0.2048782 0.2051393 0.2054407 0.2057957 0.2062277
 0.2067349 0.207283 0.2078426 0.2084148 0.2090151 0.2096562 0.2103563 0.2111488 0.2120729 0.2131573
 0.2144022 0.2157668 0.2171759 0.2185422 0.2197798 0.2208104 0.2215806 0.2220817 0.2223489 0.2224337
 0.2223749 0.2221929 0.2219037 0.2215276 0.2210796 0.2205585 0.2199599 0.2192976 0.2186012 0.2178957
 0.2171936 0.2165021 0.215827 0.2151682 0.214519 0.213872 0.2132248 0.2125816 0.2119531 0.2113534
 0.2107872 0.2102388 0.2096809 0.2091016 0.2085126 0.2079207 0.2072976 0.2065936 0.2057826 0.2048799
 0.203907 0.2028529 0.2016855 0.2003934 0.1990008 0.197539 0.1960195 0.1944365 0.1927855 0.1910658
 0.189266 0.1873652 0.1853654 0.183322 0.1813274 0.1794569 0.1777331 0.1761362 0.1746366 0.1732197
 0.1718862 0.1706312 0.169431 0.1682641 0.1671369 0.1660724 0.1650796 0.1641488 0.1632723 0.1624565
 0.1617173 0.161065 0.1604966 0.1600059 0.1595949 0.1592633 0.1590008 0.1588087 0.1587108 0.1587183
 0.158792 0.1588582 0.1588538 0.1587582 0.1586017 0.1584444 0.1583315 0.1582673 0.1582285 0.1581734
 0.1580326 0.1577179 0.1571502 0.1562783 0.1550847 0.153593 0.1518663 0.1500047 0.1481451 0.1464328
 0.1449675 0.1437857 0.1428879 0.1422439 0.1417794 0.1414089 0.141101 0.1409023 0.1408892 0.1410764
 0.1413538 0.1415484 0.141588 0.141578 0.1417018 0.1420796 0.1427119 0.1434919 0.1442674 0.1449336
 0.1454634 0.1458511 0.146084 0.1461815 0.1461955 0.1461588 0.1460712 0.1459232 0.1457036 0.1454068
 0.1450439 0.1446211 0.1441257 0.1435548 0.1429152 0.1421897 0.14136 0.1404442 0.1394463 0.1383251
 0.1371106 0.136005 0.1352894 0.1351432 0.1355523 0.1363329 0.1372682 0.138262 0.1392818 0.140146
 0.1405783 0.1406184 0.1408291 0.1418778 0.1438927 0.1463218 0.1484295 0.1498401 0.1505726 0.1507356
 0.150376 0.1495236 0.1481708 0.146255 0.1437948 0.1409509 0.1378903 0.1347463 0.1317196 0.1290281
 0.1267693 0.1249471 0.1235441 0.1225895 0.1222132 0.1220488 0.1201978 0.1142184 0.1048916 0.09790117
 0.09904575 0.1077205 0.1173457 0.1223141 0.1224489 0.1207198 0.1191935 0.1181964 0.1176378 0.1176715
 0.118417 0.1197006 0.1211081 0.1222335 0.1229231 0.1232371 0.123157 0.1223276 0.1199909 0.1152648
 0.1078544 0.09864579 0.08939878 0.08172698 0.0763695 0.07319899 0.07158126 0.07075342 0.07019827 0.0698788
 0.07011542 0.07120891 0.07319318 0.07590752 0.07915357 0.08265717 0.08598389 0.08872686 0.09081537 0.0924799
 0.09388769 0.09495457 0.09552718 0.09559692 0.09528165 0.09470625 0.09396696 0.09313753 0.09222225 0.09114254
 0.08988379 0.08865604 0.08778165 0.08738781 0.08731389 0.08733632 0.08736169 0.08738417 0.08738493 0.08732825
 0.08720993 0.08710317 0.08715445 0.08746894 0.08798079 0.08849047 0.08883723 0.08900892 0.08909847 0.08914543
 0.08900426 0.08847119 0.08761808 0.08682273 0.08628709 0.08570515 0.08467463 0.08332638 0.08226644 0.08192182
 0.08215846 0.08252829 0.08268975 0.08256736 0.08231423 0.08223324 0.08257489 0.08323814 0.08375591 0.08373323
</values></Ydata></ScRf><Data_Parameters_AB><parameter name="DPF">1</parameter><parameter name="NPT">3497</parameter><parameter name="FXV">3996</parameter><parameter name="LXV">500</parameter><parameter name="CSF">1</parameter><parameter name="MXY">0.0647987574338913</parameter><parameter name="MNY">-0.0624945126473904</parameter><parameter name="DAT">02/06/2022</parameter><parameter name="TIM">11:50:46.595 (GMT+2)</parameter><parameter name="DXU">WN</parameter></Data_Parameters_AB><AB__Qtest><MainReport name="Quality Test Report"><Header><Line><Legend>Test result ok/not ok [1/0]: </Legend><Value>0</Value></Line><Line><Legend>Method file: </Legend><Value>C:\Users\Public\Documents\Bruker\OPUS_8.2.28\QT\IRBT_v3_default.QT</Value></Line></Header><Matrix><Line><Legend></Legend><Legend>min</Legend><Legend>max</Legend><Legend>measured</Legend></Line><Line><Value>Absorption (X-Range 1):</Value><Value>0.400000</Value><Value>2.000000</Value><Value>0.092051</Value></Line><Line><Value>Noise (X-Range 4):</Value><Value></Value><Value>0.000300</Value><Value>0.000042</Value></Line><Line><Value>Signal/Noise (X-Range 2):</Value><Value>200.000000</Value><Value></Value><Value>35.236848</Value></Line><Line><Value>Signal/Noise (X-Range 3):</Value><Value>40.000000</Value><Value></Value><Value>22.368207</Value></Line><Line><Value>Water vapour (X-Range 5):</Value><Value></Value><Value>0.000300</Value><Value>0.000030</Value></Line><Line><Value>Signal/Water (X-Range 2):</Value><Value>100.000000</Value><Value></Value><Value>48.622715</Value></Line><Line><Value>Signal/Water (X-Range 3):</Value><Value>20.000000</Value><Value></Value><Value>30.865500</Value></Line><Line><Value>Fringes (X-Range 6):</Value><Value></Value><Value>0.000100</Value><Value>0.000057</Value></Line></Matrix></MainReport></AB__Qtest><Data_Parameters_ScSm><parameter name="DPF">1</parameter><parameter name="NPT">1814</parameter><parameter name="FXV">3996.33169228125</parameter><parameter name="LXV">499.541461535156</parameter><parameter name="CSF">1</parameter><parameter name="MXY">0.272708594799042</parameter><parameter name="MNY">0.0346160158514977</parameter><parameter name="DAT">02/06/2022</parameter><parameter name="TIM">11:50:46.595 (GMT+2)</parameter><parameter name="DXU">WN</parameter></Data_Parameters_ScSm><Data_Parameters_ScRf><parameter name="DPF">1</parameter><parameter name="NPT">1820</parameter><parameter name="FXV">4004.04661832813</parameter><parameter name="LXV">495.683998511719</parameter><parameter name="CSF">1</parameter><parameter name="MXY">0.26498419046402</parameter><parameter name="MNY">0.0304083116352558</parameter><parameter name="DAT">02/06/2022</parameter><parameter name="TIM">11:50:20.023 (GMT+2)</parameter><parameter name="DXU">WN</parameter></Data_Parameters_ScRf><Optic_Parameters_Rf><parameter name="APR">0</parameter><parameter name="APT">Open</parameter><parameter name="BMS">KBr</parameter><parameter name="DTC">RT-DLaTGS_IR-Biotyper [Microplate reader]</parameter><parameter name="HPF">0</parameter><parameter name="LPF">10.0</parameter><parameter name="LPV">4000</parameter><parameter name="PGR">0</parameter><parameter name="RCH">Module port</parameter><parameter name="RDX">0</parameter><parameter name="SRC">MIR</parameter><parameter name="VEL">10.0</parameter><parameter name="SON">Off</parameter></Optic_Parameters_Rf><Acquisition_Parameters_Rf><parameter name="ADT">1</parameter><parameter name="AQM">DD</parameter><parameter name="CFE">0</parameter><parameter name="COR">0</parameter><parameter name="DEL">0</parameter><parameter name="DLY">0</parameter><parameter name="HFW">8000</parameter><parameter name="LFW">0</parameter><parameter name="NSR">32</parameter><parameter name="PLF">AB</parameter><parameter name="RES">6</parameter><parameter name="RGN">-1</parameter><parameter name="STR">0</parameter><parameter name="TCL">MakeCompatibleScalar (0, {WSV=1.000000, ARV=0});</parameter><parameter name="TDL">37</parameter><parameter name="RPO">0</parameter></Acquisition_Parameters_Rf><FT_-_Parameters_Rf><parameter name="APF">B3</parameter><parameter name="HFQ">500</parameter><parameter name="LFQ">4000</parameter><parameter name="NLI">0</parameter><parameter name="PHR">24</parameter><parameter name="PHZ">ML</parameter><parameter name="SPZ">NO</parameter><parameter name="ZFF">1</parameter></FT_-_Parameters_Rf><Optic_Parameters_><parameter name="APR">0</parameter><parameter name="APT">Open</parameter><parameter name="BMS">KBr</parameter><parameter name="CHN">Module port</parameter><parameter name="DTC">RT-DLaTGS_IR-Biotyper [Microplate reader]</parameter><parameter name="HPF">0</parameter><parameter name="LPF">10.0</parameter><parameter name="LPV">4000</parameter><parameter name="PGN">0</parameter><parameter name="RDX">0</parameter><parameter name="SRC">MIR</parameter><parameter name="VEL">10.0</parameter><parameter name="SON">Off</parameter></Optic_Parameters_><FT_-_Parameters_><parameter name="APF">B3</parameter><parameter name="HFQ">500</parameter><parameter name="LFQ">4000</parameter><parameter name="NLI">0</parameter><parameter name="PHR">24</parameter><parameter name="PHZ">ML</parameter><parameter name="SPZ">NO</parameter><parameter name="ZFF">1</parameter></FT_-_Parameters_><Acquisition_Parameters_><parameter name="ADT">1</parameter><parameter name="AQM">DD</parameter><parameter name="CFE">0</parameter><parameter name="COR">0</parameter><parameter name="DEL">0</parameter><parameter name="DLY">0</parameter><parameter name="HFW">8000</parameter><parameter name="LFW">0</parameter><parameter name="NSS">32</parameter><parameter name="PLF">AB</parameter><parameter name="RES">6</parameter><parameter name="SOT">0</parameter><parameter name="TCL">MakeCompatibleScalar (0, {WSV=1.000000, ARV=0});</parameter><parameter name="TDL">37</parameter><parameter name="SPO">0</parameter><parameter name="SGN">-1</parameter></Acquisition_Parameters_><Instrument_Parameters_Rf><parameter name="HFL">15800.168544</parameter><parameter name="LFL">0</parameter><parameter name="LWN">15800.168544</parameter><parameter name="ABP">32197</parameter><parameter name="SSP">1</parameter><parameter name="ARG">2</parameter><parameter name="ASG">2</parameter><parameter name="ASS">32</parameter><parameter name="GFW">16</parameter><parameter name="GBW">16</parameter><parameter name="BFW">0</parameter><parameter name="BBW">0</parameter><parameter name="PKA">7267</parameter><parameter name="PKL">4996</parameter><parameter name="PRA">7447</parameter><parameter name="PRL">5001</parameter><parameter name="P2A">1</parameter><parameter name="P2L">1</parameter><parameter name="P2R">1</parameter><parameter name="P2K">1</parameter><parameter name="DAQ">0</parameter><parameter name="AG2">1</parameter><parameter name="SSM">1</parameter><parameter name="RSN">26101</parameter><parameter name="CRR">0</parameter><parameter name="SRT">1654170620.023</parameter><parameter name="DUR">19.6379852294922</parameter><parameter name="TSC">28.8</parameter><parameter name="MVD">0.223759397864342</parameter><parameter name="AN1">0.225821176462418</parameter><parameter name="AN2">0</parameter><parameter name="VSN">2.485 Apr  4 2017</parameter><parameter name="SRN">0085</parameter><parameter name="CAM">0</parameter><parameter name="INS">IR-Biotyper</parameter><parameter name="FOC">69</parameter><parameter name="RDY">1</parameter><parameter name="ARS">32</parameter></Instrument_Parameters_Rf><Sample_Parameters_><parameter name="BLD"></parameter><parameter name="CNM">Admin</parameter><parameter name="CPY"></parameter><parameter name="DPM"></parameter><parameter name="EXP">IRBT_v3_32Scans.XPM</parameter><parameter name="LCT"></parameter><parameter name="SFM">Microplate, HTS-XT</parameter><parameter name="SNM">220602-1054_RTF49M (D_19)_D6_6a9e2949-54aa-4a79-993a-de0fcf8f854c.0</parameter><parameter name="XPP">C:\Users\Public\Documents\Bruker\OPUS_8.2.28\XPM</parameter><parameter name="IST">OK</parameter><parameter name="CPG">1252</parameter><parameter name="UID">6e1a9fdb-6a9f-484c-9c63-bc432a597944</parameter></Sample_Parameters_><Instrument_Parameters_><parameter name="HFL">15800.168544</parameter><parameter name="LFL">0</parameter><parameter name="LWN">15800.168544</parameter><parameter name="ABP">32197</parameter><parameter name="SSP">1</parameter><parameter name="ASG">2</parameter><parameter name="ARG">2</parameter><parameter name="ASS">32</parameter><parameter name="GFW">16</parameter><parameter name="GBW">16</parameter><parameter name="BFW">0</parameter><parameter name="BBW">0</parameter><parameter name="PKA">7637</parameter><parameter name="PKL">4988</parameter><parameter name="PRA">7910</parameter><parameter name="PRL">4993</parameter><parameter name="P2A">1</parameter><parameter name="P2L">1</parameter><parameter name="P2R">1</parameter><parameter name="P2K">1</parameter><parameter name="DAQ">0</parameter><parameter name="AG2">1</parameter><parameter name="SSM">1</parameter><parameter name="RSN">13676</parameter><parameter name="CRR">0</parameter><parameter name="SRT">1654170646.596</parameter><parameter name="DUR">19.6369934082031</parameter><parameter name="TSC">28.8</parameter><parameter name="MVD">0.476706355810165</parameter><parameter name="AN1">0.225820987243653</parameter><parameter name="AN2">0</parameter><parameter name="VSN">2.485 Apr  4 2017</parameter><parameter name="SRN">0085</parameter><parameter name="CAM">0</parameter><parameter name="INS">IR-Biotyper</parameter><parameter name="FOC">69</parameter><parameter name="RDY">1</parameter></Instrument_Parameters_><History/></OPUSDataFile>
