<?xml version="1.0" encoding="UTF-8" ?>
<OPUSDataFile><AB><Ydata ylabel="Absorbance Units"><values byteorder="INTEL" format="FLOAT32" numvalues="3497"> -0.07064707 -0.07071426 -0.0707709 -0.07081744 -0.07084662 -0.07085806 -0.07085444 -0.07083642 -0.07081217 -0.07078326
 -0.0707633 -0.07075239 -0.0707596 -0.07078059 -0.07080989 -0.07084341 -0.07087041 -0.07089397 -0.07091343 -0.07093221
 -0.07095585 -0.07097578 -0.07099015 -0.07098734 -0.07095954 -0.0709143 -0.07084901 -0.07078879 -0.07073735 -0.07071139
 -0.07071403 -0.07073736 -0.07078106 -0.07082099 -0.0708563 -0.0708689 -0.07086132 -0.07083793 -0.07080419 -0.07078237
 -0.0707744 -0.07079816 -0.07084697 -0.07091976 -0.0710052 -0.07108957 -0.07116696 -0.07122722 -0.0712724 -0.07130132
 -0.07131558 -0.07131683 -0.07130001 -0.07126384 -0.07120587 -0.07112356 -0.0710312 -0.07092889 -0.07084274 -0.07077422
 -0.0707417 -0.07074465 -0.07078058 -0.07084662 -0.07092471 -0.07101245 -0.07109176 -0.07116201 -0.07121264 -0.07124455
 -0.07125322 -0.07124367 -0.07121873 -0.07118613 -0.07115355 -0.07112344 -0.07110038 -0.07107972 -0.07106036 -0.07104
 -0.07101635 -0.07099687 -0.0709815 -0.07098311 -0.07100281 -0.0710513 -0.07112927 -0.07123853 -0.07137784 -0.07153228
 -0.07169747 -0.07183954 -0.07195444 -0.07200585 -0.07200059 -0.07193296 -0.07182079 -0.0716911 -0.07155672 -0.071445
 -0.07135549 -0.07129934 -0.07126385 -0.07124609 -0.07123198 -0.07121296 -0.0711925 -0.07116745 -0.0711566 -0.07116349
 -0.07119484 -0.07125323 -0.07131971 -0.07139341 -0.07145058 -0.07149143 -0.07151389 -0.07152092 -0.07152988 -0.07154291
 -0.07157818 -0.07163355 -0.07171567 -0.07181463 -0.07191881 -0.07201494 -0.07208122 -0.07211524 -0.07210523 -0.07206172
 -0.07198598 -0.07189208 -0.07178319 -0.07167909 -0.07158265 -0.0715216 -0.07150052 -0.07154212 -0.07165159 -0.07181403
 -0.07202958 -0.07219686 -0.07231104 -0.07227123 -0.0720951 -0.07184763 -0.07154705 -0.07130034 -0.07110207 -0.07099202
 -0.07095879 -0.0710043 -0.07110958 -0.07125923 -0.07142045 -0.07156231 -0.07166145 -0.07168777 -0.07166435 -0.07158758
 -0.07150461 -0.07142974 -0.07137881 -0.07135873 -0.07135856 -0.07137743 -0.07141216 -0.07146246 -0.0715323 -0.07162075
 -0.07171527 -0.07181208 -0.07187911 -0.07191551 -0.07189797 -0.07183454 -0.07173294 -0.07160211 -0.0714615 -0.07131455
 -0.07117131 -0.07103752 -0.07091963 -0.07082593 -0.07076348 -0.07073444 -0.07074312 -0.07078131 -0.07084945 -0.07093125
 -0.07102511 -0.07111187 -0.0711899 -0.07123943 -0.07125919 -0.07123586 -0.07117002 -0.07106895 -0.07093563 -0.07079332
 -0.07064369 -0.0705056 -0.07037847 -0.07026989 -0.07017951 -0.07011042 -0.07006153 -0.07003451 -0.07002294 -0.07002381
 -0.07002636 -0.07002278 -0.07000955 -0.06998082 -0.06994791 -0.06991146 -0.0698875 -0.0698797 -0.06989265 -0.06992808
 -0.06997745 -0.07004043 -0.0701042 -0.0701682 -0.07022163 -0.07026448 -0.07029063 -0.07030155 -0.0702989 -0.0702858
 -0.07027068 -0.0702567 -0.07025399 -0.07026201 -0.07028539 -0.07031894 -0.07035847 -0.07040459 -0.07045317 -0.07051805
 -0.07060495 -0.07071931 -0.07087051 -0.07102318 -0.07117596 -0.0712752 -0.07131231 -0.07128523 -0.07119285 -0.07106797
 -0.07091138 -0.07073502 -0.07054034 -0.07034045 -0.07014199 -0.06997923 -0.06985552 -0.06980134 -0.06980566 -0.06986974
 -0.0699639 -0.07005074 -0.07011288 -0.07011368 -0.07007714 -0.07000513 -0.06992685 -0.06985788 -0.06980173 -0.06976575
 -0.0697296 -0.06969124 -0.06963085 -0.06954426 -0.06943986 -0.06931753 -0.06920687 -0.06910898 -0.0690448 -0.06901237
 -0.06901035 -0.06903201 -0.06905126 -0.06906009 -0.06901906 -0.06893743 -0.06880862 -0.06865731 -0.06851631 -0.06838927
 -0.06829752 -0.06821559 -0.06813639 -0.06803179 -0.06788348 -0.0676973 -0.06746553 -0.06722809 -0.06699069 -0.06678493
 -0.06661734 -0.06648046 -0.066375 -0.06625611 -0.0661217 -0.06592947 -0.06568548 -0.06541225 -0.0651204 -0.06486952
 -0.06465557 -0.06449912 -0.06438956 -0.06431644 -0.06427319 -0.06425036 -0.0642353 -0.06421951 -0.064176 -0.06408699
 -0.06393268 -0.06369588 -0.06338867 -0.06300878 -0.06258062 -0.06210794 -0.0616096 -0.0610879 -0.06055704 -0.0600181
 -0.0594803 -0.05894457 -0.05842697 -0.05793026 -0.05748418 -0.05708795 -0.0567589 -0.05648474 -0.05624267 -0.05601931
 -0.05577605 -0.05551546 -0.05522623 -0.05491092 -0.0545745 -0.05419771 -0.05376804 -0.05328008 -0.05271942 -0.05212566
 -0.05150713 -0.05089332 -0.05029332 -0.04970689 -0.04913503 -0.04857468 -0.04802551 -0.04749189 -0.04697427 -0.04648247
 -0.04601648 -0.04558419 -0.04517925 -0.04478472 -0.04438284 -0.04391297 -0.0433717 -0.04270992 -0.04197122 -0.04119153
 -0.04040826 -0.03967611 -0.03898616 -0.03835158 -0.03774658 -0.03716376 -0.03658245 -0.03599459 -0.03539196 -0.0347707
 -0.03413513 -0.03348549 -0.03282424 -0.03215184 -0.03145884 -0.03074502 -0.03000572 -0.02924351 -0.02847667 -0.0277073
 -0.0269555 -0.02621803 -0.02549567 -0.02478583 -0.02408361 -0.02338876 -0.02270107 -0.02201455 -0.02132433 -0.02062418
 -0.01990629 -0.01917678 -0.01843695 -0.01769017 -0.01694103 -0.01617319 -0.01538289 -0.01456621 -0.01371838 -0.01288153
 -0.01205797 -0.01129078 -0.01058025 -0.009919758 -0.009305071 -0.008700248 -0.00810231 -0.007478274 -0.006830595 -0.006146427
 -0.005435986 -0.004712163 -0.003984361 -0.003274191 -0.002574988 -0.001893095 -0.001204961 -0.0004969263 0.0002451952 0.001036948
 0.001858577 0.002710658 0.00355938 0.004397636 0.00520738 0.005984082 0.006733613 0.007455429 0.008175782 0.008895941
 0.009640126 0.01040683 0.01119463 0.01200088 0.01281169 0.01362926 0.01445334 0.01528545 0.016132 0.01698397
 0.01783301 0.01866859 0.01947527 0.020256 0.02100608 0.02173759 0.02245531 0.02316515 0.02387086 0.02456947
 0.0252606 0.02594361 0.02661708 0.0272946 0.02797676 0.02868287 0.02941318 0.03016696 0.03094122 0.03170981
 0.03247196 0.03320814 0.03392464 0.03462907 0.03532798 0.03603931 0.03676218 0.03750475 0.03825881 0.03902153
 0.03977984 0.04052453 0.04124707 0.04193777 0.04260839 0.04325721 0.04391149 0.04457716 0.04526768 0.04598733
 0.0467236 0.04747621 0.04822535 0.04897023 0.04969994 0.05041486 0.05111315 0.05179601 0.05246779 0.05312933
 0.05378567 0.05443599 0.055081 0.05571969 0.05635037 0.05697421 0.05759151 0.05820389 0.05881165 0.05941885
 0.06002603 0.0606417 0.06126961 0.06191016 0.0625665 0.06322091 0.06387154 0.06450427 0.06511708 0.06572258
 0.06632163 0.06693676 0.06756677 0.06821204 0.06886797 0.06951336 0.0701454 0.07074365 0.07131089 0.07184125
 0.07234295 0.07282396 0.07329328 0.07376318 0.07423617 0.07471807 0.07520681 0.07570252 0.07620442 0.07671344
 0.07722345 0.07773478 0.078233 0.0787155 0.07917967 0.07962425 0.08007101 0.08052112 0.08099891 0.08150359
 0.08203902 0.08260245 0.08318383 0.08378008 0.08437832 0.08497361 0.08555003 0.08610433 0.08662342 0.08711182
 0.08756819 0.08800057 0.08841438 0.08881339 0.08920082 0.08957736 0.08994327 0.09030149 0.09065201 0.0910008
 0.09134807 0.09170346 0.09206764 0.09244925 0.09284853 0.09326577 0.09370025 0.09414563 0.09460108 0.09506077
 0.09552158 0.09597255 0.09640778 0.09680843 0.09717521 0.0974965 0.09778866 0.09806094 0.09833464 0.09862953
 0.09894921 0.09930541 0.09967533 0.1000564 0.1004198 0.1007568 0.101064 0.1013376 0.1016015 0.1018577
 0.1021171 0.1023794 0.1026136 0.1028176 0.1029556 0.1030341 0.1030636 0.1030577 0.1030643 0.1030897
 0.1031727 0.1033071 0.1035032 0.1037454 0.1040248 0.1043194 0.1046108 0.1048883 0.1051354 0.1053758
 0.1056097 0.1058756 0.1061866 0.1065366 0.1069326 0.1073077 0.1076578 0.1079178 0.1080856 0.1081617
 0.1081513 0.1081071 0.1080317 0.1079667 0.1079087 0.1078647 0.1078389 0.1078397 0.1078816 0.1079945
 0.108171 0.1084273 0.108713 0.1090017 0.1092441 0.1093998 0.1094829 0.1094796 0.1094568 0.109427
 0.109437 0.1094993 0.1095997 0.1097399 0.1098677 0.1099807 0.1100288 0.1100126 0.1099142 0.1097426
 0.1095288 0.1092893 0.109092 0.1089465 0.1089119 0.1089731 0.1091417 0.1093755 0.1096407 0.1098912
 0.1100808 0.1101972 0.1102134 0.1101685 0.1100628 0.1099606 0.1098752 0.1098534 0.1099047 0.1100435
 0.1102723 0.1105859 0.1109838 0.111446 0.111968 0.1125003 0.1130322 0.1134831 0.1138463 0.1140497
 0.1141109 0.1140207 0.1138284 0.1135982 0.1133806 0.1132596 0.1132362 0.1133519 0.1135415 0.1137933
 0.1140192 0.1141865 0.1142458 0.1141737 0.1139875 0.1136814 0.1133212 0.1129113 0.1125171 0.1121415
 0.1118108 0.1115235 0.1112745 0.1110642 0.1108914 0.1107598 0.1106841 0.1106602 0.1106943 0.1107619
 0.110837 0.1108783 0.1108338 0.110675 0.1103556 0.1098996 0.1092936 0.108616 0.1078852 0.1071798
 0.1065237 0.1059446 0.1054528 0.1050342 0.1046895 0.1043947 0.1041483 0.1039159 0.1036947 0.1034412
 0.1031588 0.102837 0.1024894 0.1021575 0.1018453 0.1015907 0.1013679 0.101158 0.1009274 0.1006253
 0.100258 0.09980072 0.0993131 0.09881122 0.0983678 0.09801492 0.09777873 0.09768211 0.0976661 0.09773407
 0.09776075 0.09773627 0.09755552 0.09721369 0.09671454 0.0960677 0.09538102 0.09466486 0.09403472 0.09348374
 0.0930542 0.09272477 0.0924708 0.09227103 0.09208262 0.09189227 0.09166913 0.09141066 0.09110278 0.09075694
 0.09037205 0.08997094 0.08955966 0.08916096 0.08878187 0.08843174 0.08811476 0.08781923 0.08754546 0.08726697
 0.0869824 0.08666977 0.08632977 0.08596245 0.08557138 0.08517574 0.08477864 0.08440141 0.08404292 0.08371303
 0.0834045 0.08311246 0.08282501 0.08252783 0.08221196 0.08186355 0.08148777 0.08107997 0.0806606 0.080235
 0.07982149 0.07942723 0.07905127 0.07869612 0.0783443 0.07799466 0.0776307 0.07725156 0.07685254 0.07643424
 0.07600203 0.07555738 0.07511085 0.07466378 0.07422645 0.07379866 0.07338544 0.07298489 0.07259642 0.07221773
 0.07184596 0.07148011 0.07111623 0.07076205 0.07041562 0.07010226 0.06982925 0.06962024 0.06948915 0.06940922
 0.06938647 0.06932913 0.06923058 0.06900222 0.06863933 0.06814235 0.06751905 0.06686345 0.06618645 0.06560137
 0.06510505 0.06475461 0.06452286 0.06438363 0.06429373 0.06417223 0.06399418 0.06368919 0.063287 0.06277658
 0.06222661 0.06167219 0.06115172 0.0606948 0.0602797 0.05990643 0.05955238 0.05920799 0.05890955 0.05865769
 0.05851367 0.05848072 0.05855914 0.05874158 0.05893769 0.05913514 0.05921277 0.05917293 0.05895057 0.05857506
 0.05807574 0.05749437 0.05691431 0.056352 0.05586701 0.05543214 0.05504763 0.05468014 0.05430415 0.05392951
 0.05354951 0.05319871 0.05288944 0.05261616 0.05238427 0.05214694 0.05189886 0.05162558 0.05132608 0.05104791
 0.05079352 0.05060979 0.05049122 0.0504298 0.05041644 0.05041333 0.0504188 0.05041029 0.0503899 0.050353
 0.050297 0.05021991 0.0501115 0.04996731 0.04976635 0.04949831 0.0491415 0.04867884 0.04812896 0.04748134
 0.04682202 0.04615856 0.04559128 0.04513402 0.04480466 0.04460505 0.04444566 0.04431987 0.04411383 0.04383185
 0.04343592 0.042948 0.04242443 0.04188728 0.04142166 0.04102597 0.04074297 0.04054257 0.04041146 0.04030996
 0.04020184 0.04006446 0.0398709 0.03963168 0.03933918 0.03903116 0.03871462 0.03842286 0.03816598 0.03793489
 0.03773233 0.03750923 0.03726289 0.03696036 0.03660398 0.03622008 0.03581466 0.03544145 0.03509548 0.0347909
 0.03451101 0.03421991 0.03391224 0.03355576 0.03317155 0.0327682 0.03237428 0.03201844 0.03170807 0.03145802
 0.03125619 0.03110034 0.03098429 0.03090454 0.03086699 0.0308733 0.03091997 0.03100899 0.0311078 0.03121482
 0.03127281 0.03127892 0.03117957 0.0309781 0.03066297 0.03024971 0.02978527 0.02929099 0.02884303 0.02845136
 0.02817046 0.02799108 0.0279257 0.02795612 0.02807234 0.02825871 0.02850586 0.02879763 0.0291291 0.02947661
 0.02983435 0.03018079 0.03050901 0.03082438 0.03112376 0.03145309 0.03181465 0.03227329 0.03283055 0.03352227
 0.03434188 0.03526803 0.03628878 0.03734827 0.03843955 0.0395167 0.0405809 0.0416135 0.04261842 0.04359251
 0.04454133 0.04546571 0.04637881 0.04728562 0.04820481 0.04914565 0.05011528 0.05112129 0.05214426 0.05318568
 0.05420312 0.0551937 0.05611076 0.05695139 0.05768084 0.0582979 0.05878082 0.05912861 0.0593229 0.05936487
 0.05924234 0.05897173 0.05857575 0.05809852 0.05761804 0.05718753 0.05690672 0.05678897 0.05689158 0.05716618
 0.05760702 0.05814986 0.05876295 0.05943018 0.06013464 0.06091133 0.061762 0.06272776 0.06381361 0.06503993
 0.06640837 0.06792122 0.06957827 0.07137362 0.07330997 0.0753965 0.07764728 0.08011673 0.08282652 0.08586778
 0.08923038 0.09297485 0.09698231 0.1012029 0.1053269 0.1091611 0.1122217 0.1142081 0.1147166 0.1134571
 0.1104992 0.1057039 0.09974682 0.09266333 0.08539619 0.07804418 0.07130957 0.06524543 0.06006275 0.05575178
 0.05214804 0.04922394 0.04671821 0.04461982 0.04275108 0.04111015 0.03960847 0.03823575 0.03693589 0.03569822
 0.03448345 0.03330094 0.03214116 0.03102969 0.02997924 0.02900618 0.02812237 0.02732489 0.02661521 0.02598831
 0.02544199 0.02498392 0.02461398 0.02434751 0.02418558 0.02413538 0.02419534 0.02434182 0.02456555 0.02479462
 0.02501453 0.02512641 0.02512911 0.0249593 0.02464822 0.02421174 0.02370695 0.02320568 0.02276243 0.02244721
 0.02229103 0.02233191 0.0225778 0.02303724 0.02372187 0.02462433 0.02581451 0.02729101 0.02920082 0.03156463
 0.03444891 0.03786716 0.04148423 0.04525352 0.04831515 0.05060453 0.05119823 0.05017743 0.04729595 0.04284207
 0.0374089 0.03130436 0.02537403 0.01972592 0.01486932 0.01069089 0.007282697 0.004450012 0.00210307 9.988356E-05
 -0.001640972 -0.003181927 -0.004555695 -0.005784678 -0.006876855 -0.007845578 -0.008691996 -0.009436371 -0.01007961 -0.01065729
 -0.01117156 -0.01166258 -0.01213081 -0.01259997 -0.01306663 -0.01353087 -0.01398629 -0.01441649 -0.01481609 -0.01516534
 -0.01546868 -0.01571861 -0.01593624 -0.01613395 -0.01633903 -0.0165735 -0.01684568 -0.01716993 -0.01752223 -0.01790289
 -0.01826986 -0.01861539 -0.01891145 -0.0191516 -0.01934679 -0.01949667 -0.01964052 -0.0197798 -0.01994117 -0.02012186
 -0.02031316 -0.0205128 -0.02070377 -0.02089273 -0.02108841 -0.02129884 -0.0215475 -0.02182613 -0.02213823 -0.0224613
 -0.02277665 -0.02306833 -0.02331929 -0.0235297 -0.02369463 -0.02382152 -0.02390957 -0.02397442 -0.02401577 -0.02406622
 -0.02412863 -0.02423662 -0.02439321 -0.02460029 -0.02485646 -0.02512918 -0.025416 -0.02568274 -0.0259306 -0.02614654
 -0.0263331 -0.02649033 -0.02662052 -0.02672595 -0.02681342 -0.02689104 -0.02696841 -0.02705919 -0.02716145 -0.0272821
 -0.02740208 -0.02751517 -0.02760625 -0.02766531 -0.02770718 -0.02772974 -0.02776951 -0.02783101 -0.02793502 -0.02808411
 -0.02826128 -0.02846486 -0.02865865 -0.02884221 -0.02899441 -0.02911956 -0.0292242 -0.02931375 -0.02940754 -0.0295057
 -0.02961949 -0.02974161 -0.02986798 -0.02998969 -0.03009525 -0.03018563 -0.03025437 -0.03031785 -0.0303797 -0.03045985
 -0.03056628 -0.03070374 -0.03087673 -0.03107002 -0.0312832 -0.03149451 -0.03170232 -0.03189413 -0.03206968 -0.03222826
 -0.03237058 -0.03250146 -0.03262178 -0.03273721 -0.03284967 -0.03296706 -0.03309138 -0.03323159 -0.03338452 -0.03355243
 -0.03372382 -0.03388954 -0.03403938 -0.03416109 -0.03426094 -0.0343356 -0.03440487 -0.03447453 -0.03455531 -0.03465239
 -0.03475604 -0.03486614 -0.03496903 -0.03506345 -0.03514925 -0.03522667 -0.03530326 -0.03537851 -0.03545165 -0.0355211
 -0.03557838 -0.03562474 -0.03565783 -0.03568335 -0.03571073 -0.03574553 -0.0358002 -0.03587436 -0.03597369 -0.03609112
 -0.03622481 -0.03636537 -0.03650838 -0.03664751 -0.03677915 -0.03690452 -0.03702239 -0.03714072 -0.03726038 -0.03738715
 -0.03752185 -0.03765847 -0.03779644 -0.03792169 -0.03803424 -0.03812702 -0.03820245 -0.03826744 -0.03832459 -0.03838557
 -0.03844994 -0.03852283 -0.03860161 -0.03868446 -0.03877029 -0.03885676 -0.03894552 -0.03903696 -0.03913251 -0.03923375
 -0.03933796 -0.03944532 -0.03955013 -0.03965097 -0.03974591 -0.03983381 -0.03992147 -0.04000915 -0.04010719 -0.04021589
 -0.04033836 -0.04047337 -0.04061201 -0.04075244 -0.04088102 -0.04099806 -0.04109622 -0.04117965 -0.04125232 -0.04131969
 -0.04139145 -0.04146928 -0.04155955 -0.04165779 -0.04176364 -0.04187081 -0.041976 -0.04207674 -0.04217106 -0.04226098
 -0.04234626 -0.0424308 -0.04251484 -0.04260331 -0.04269656 -0.04279871 -0.04290978 -0.04302843 -0.0431537 -0.04327682
 -0.04339692 -0.0435045 -0.04360085 -0.0436841 -0.0437576 -0.04382717 -0.04389524 -0.04396793 -0.04404538 -0.04413046
 -0.04422086 -0.04431662 -0.04441333 -0.04450957 -0.04460003 -0.04468248 -0.044755 -0.04481596 -0.04487045 -0.04491854
 -0.04496824 -0.04502022 -0.0450783 -0.04514258 -0.04521238 -0.0452876 -0.0453672 -0.04545116 -0.04553929 -0.04563077
 -0.04572306 -0.04581528 -0.04590392 -0.0459899 -0.04607268 -0.04615434 -0.04623721 -0.0463212 -0.04640805 -0.04649328
 -0.04657578 -0.04665013 -0.04671384 -0.0467664 -0.04680641 -0.04683994 -0.04686722 -0.04689661 -0.04692885 -0.04696823
 -0.04701484 -0.04706658 -0.04712299 -0.04717876 -0.04723411 -0.04728689 -0.04733856 -0.04739256 -0.04744966 -0.0475139
 -0.04758323 -0.04765675 -0.04773171 -0.04780405 -0.04787539 -0.04794495 -0.04801685 -0.04809413 -0.04817428 -0.0482588
 -0.04833693 -0.04840631 -0.04846115 -0.04849906 -0.04852979 -0.04855358 -0.04858622 -0.04862827 -0.0486836 -0.04875096
 -0.04881965 -0.04888882 -0.04894758 -0.04899849 -0.04904296 -0.0490854 -0.04913614 -0.04919657 -0.04927452 -0.04936564
 -0.0494695 -0.0495786 -0.04968765 -0.04979172 -0.04988636 -0.04997281 -0.05004977 -0.05012287 -0.05019278 -0.05026558
 -0.05034233 -0.05042554 -0.0505157 -0.05061032 -0.05070918 -0.05080565 -0.05089933 -0.05098346 -0.05105854 -0.05112285
 -0.05117832 -0.0512296 -0.05127909 -0.0513344 -0.05139576 -0.05146795 -0.0515469 -0.05163127 -0.05171445 -0.05179072
 -0.05185853 -0.05191369 -0.05196444 -0.05201172 -0.05206626 -0.05213169 -0.05220764 -0.05229569 -0.05238324 -0.05246945
 -0.0525437 -0.05260563 -0.05265735 -0.05269971 -0.05274191 -0.05278419 -0.05283265 -0.05288646 -0.05294624 -0.05301102
 -0.05307913 -0.05314977 -0.0532212 -0.05329257 -0.05336255 -0.05343028 -0.05349492 -0.05355548 -0.05361118 -0.05366194
 -0.05370703 -0.05374914 -0.05378829 -0.05382938 -0.05387311 -0.05392274 -0.0539788 -0.05403916 -0.05410363 -0.05416579
 -0.05422525 -0.05427537 -0.05431681 -0.05434862 -0.05437356 -0.0543996 -0.05442983 -0.05447594 -0.05453626 -0.05461557
 -0.05470496 -0.05479797 -0.05488468 -0.05495467 -0.05500727 -0.05503734 -0.05505516 -0.05506246 -0.05507011 -0.05508138
 -0.05509939 -0.0551253 -0.05515756 -0.05519613 -0.05524005 -0.05528928 -0.05534237 -0.05539908 -0.05545631 -0.0555143
 -0.05557242 -0.05563149 -0.05569462 -0.05576064 -0.05582963 -0.05589755 -0.05595795 -0.05600905 -0.05604464 -0.05607059
 -0.05608791 -0.056106 -0.05613073 -0.05616428 -0.05621046 -0.0562605 -0.05631371 -0.05635932 -0.05639501 -0.05641975
 -0.0564327 -0.05644395 -0.05645404 -0.05647548 -0.05650839 -0.05655836 -0.05662454 -0.05670535 -0.05679991 -0.05690423
 -0.05701882 -0.05714188 -0.05727652 -0.05742535 -0.05759472 -0.05779132 -0.05802255 -0.05829637 -0.05861519 -0.05898348
 -0.0593964 -0.05985303 -0.06035002 -0.06088447 -0.06146676 -0.0620978 -0.0627894 -0.06354475 -0.06433763 -0.06516608
 -0.0659422 -0.0666595 -0.06721414 -0.0676076 -0.06779195 -0.0677774 -0.06757268 -0.0671853 -0.06662586 -0.06592402
 -0.06511435 -0.06426353 -0.06345613 -0.06273454 -0.06216203 -0.06173554 -0.06146995 -0.06135196 -0.06138054 -0.06154344
 -0.06184479 -0.06223604 -0.06271959 -0.06318191 -0.06361359 -0.06392369 -0.06410776 -0.06418098 -0.06414798 -0.06406757
 -0.06394093 -0.06380451 -0.06365503 -0.06350008 -0.0633378 -0.06316599 -0.06298847 -0.06281001 -0.0626344 -0.06247068
 -0.06231082 -0.06215409 -0.0619854 -0.06179406 -0.06158129 -0.06134037 -0.06109732 -0.06085608 -0.06064163 -0.06046031
 -0.0603103 -0.06019311 -0.06008634 -0.05998887 -0.05988465 -0.05977456 -0.05966451 -0.05955613 -0.0594626 -0.05938201
 -0.05931533 -0.05925898 -0.05920411 -0.05915164 -0.05909768 -0.05904813 -0.05900852 -0.05898161 -0.0589734 -0.05897743
 -0.05899341 -0.0590102 -0.05902341 -0.05902758 -0.05901945 -0.05900362 -0.05897978 -0.05895684 -0.0589356 -0.05892202
 -0.05891642 -0.05891998 -0.0589326 -0.05895366 -0.05898274 -0.05901784 -0.0590575 -0.05909595 -0.05913156 -0.05915688
 -0.05917326 -0.05917827 -0.05917717 -0.05917461 -0.05917539 -0.05918559 -0.05920457 -0.05923456 -0.05927031 -0.05931081
 -0.05935037 -0.05938757 -0.05941836 -0.05944193 -0.0594557 -0.05945927 -0.0594524 -0.0594351 -0.05941254 -0.05938543
 -0.05936416 -0.05934925 -0.05934992 -0.05936451 -0.05939316 -0.05943184 -0.05947125 -0.05950853 -0.05953396 -0.05954937
 -0.05955211 -0.05954767 -0.05953927 -0.05953141 -0.05952781 -0.05952881 -0.05953564 -0.05954629 -0.0595603 -0.05957697
 -0.05959582 -0.05961914 -0.05964712 -0.05968132 -0.05972183 -0.05976375 -0.05980642 -0.05983972 -0.05986375 -0.059873
 -0.05987 -0.05986061 -0.05984767 -0.0598419 -0.0598419 -0.05985143 -0.0598648 -0.05987678 -0.05988375 -0.05987956
 -0.05986815 -0.05984887 -0.05982984 -0.05981399 -0.05980635 -0.05980927 -0.05982209 -0.05984533 -0.05987562 -0.05991279
 -0.05995288 -0.05999565 -0.0600376 -0.06007862 -0.06011645 -0.06015109 -0.06018135 -0.06020745 -0.06022932 -0.06024779
 -0.06026459 -0.06028081 -0.06029941 -0.06031976 -0.06034286 -0.06036608 -0.0603876 -0.06040579 -0.06041856 -0.06042796
 -0.06043373 -0.06044 -0.06044759 -0.06046031 -0.06047893 -0.06050561 -0.06054096 -0.06058212 -0.06062898 -0.06067277
 -0.06071311 -0.06074197 -0.06076052 -0.06077138 -0.06077719 -0.06078968 -0.06080896 -0.06084265 -0.06088605 -0.06093528
 -0.06098481 -0.06102539 -0.06105769 -0.06107759 -0.06109241 -0.06110495 -0.06112123 -0.06114539 -0.06117499 -0.06121108
 -0.06124571 -0.06127755 -0.06130219 -0.06131864 -0.06133035 -0.06133745 -0.06134633 -0.06135702 -0.06137104 -0.0613877
 -0.06140314 -0.0614174 -0.06142797 -0.06143674 -0.06144714 -0.06146079 -0.06148285 -0.06151156 -0.06154747 -0.06158679
 -0.06162629 -0.06166451 -0.06169928 -0.06173221 -0.06176355 -0.0617942 -0.06182487 -0.06185352 -0.06187988 -0.06190262
 -0.06192125 -0.06193911 -0.06195632 -0.06198016 -0.06201084 -0.06205327 -0.06210644 -0.06216688 -0.06223241 -0.06229287
 -0.06234726 -0.06238713 -0.06241476 -0.06242938 -0.06243562 -0.06243864 -0.06244178 -0.06244966 -0.06246322 -0.06248434
 -0.06251252 -0.06254806 -0.06258994 -0.06263836 -0.06269026 -0.06274547 -0.0627993 -0.06285124 -0.06289814 -0.06293976
 -0.06297542 -0.06300513 -0.06302898 -0.06304726 -0.06306142 -0.06307302 -0.06308861 -0.06311008 -0.06314649 -0.06319622
 -0.06326213 -0.06333793 -0.06341763 -0.06349523 -0.06356289 -0.0636204 -0.06366469 -0.06370011 -0.06372733 -0.0637513
 -0.06377331 -0.06379717 -0.06382368 -0.06385545 -0.06389301 -0.06393611 -0.06398481 -0.06403601 -0.06408946 -0.06414097
 -0.06419048 -0.06423551 -0.06427659 -0.06431425 -0.06434952 -0.06438527 -0.06442201 -0.06446213 -0.06450517 -0.06455166
 -0.06460073 -0.06465197 -0.06470427 -0.06475724 -0.06480874 -0.06485782 -0.06490339 -0.06494453 -0.06498335 -0.06501992
 -0.06505735 -0.06509621 -0.06513588 -0.06517638 -0.06521496 -0.06525165 -0.0652864 -0.06531961 -0.06535403 -0.06538975
 -0.06542841 -0.06546991 -0.06551469 -0.0655631 -0.06561624 -0.06567355 -0.06573537 -0.06579941 -0.06586364 -0.06592712
 -0.06598791 -0.06604895 -0.06611093 -0.06617646 -0.06624741 -0.06631969 -0.0663936 -0.06646011 -0.06651814 -0.066563
 -0.06659422 -0.06661726 -0.06663267 -0.06665082 -0.06667168 -0.06670076 -0.06673628 -0.06677444 -0.0668132 -0.06684458
 -0.06686936 -0.06688409 -0.06689346 -0.06690133 -0.06691318 -0.0669357 -0.06696973 -0.06701902 -0.06707774 -0.06714542
 -0.06721304 -0.06727798 -0.06733467 -0.06738111 -0.06741865 -0.06744689 -0.06747105 -0.06749145 -0.06751193 -0.06753255
 -0.06755388 -0.06757572 -0.06759711 -0.06761797 -0.06763744 -0.06765578 -0.06767311 -0.06768978 -0.06770673 -0.06772355
 -0.06774008 -0.06775598 -0.06777024 -0.06778508 -0.06780098 -0.06782192 -0.06785028 -0.06788582 -0.06792992 -0.06797629
 -0.06802396 -0.06806849 -0.068109 -0.06814658 -0.06818129 -0.06821299 -0.06824144 -0.06826115 -0.06827214 -0.06827111
 -0.06825988 -0.06824395 -0.06822562 -0.06821426 -0.06820992 -0.06821765 -0.06823496 -0.06826099 -0.06829286 -0.06832781
 -0.0683639 -0.06839949 -0.06843252 -0.06846202 -0.06848583 -0.06850272 -0.06851378 -0.0685182 -0.06852295 -0.06852856
 -0.06854197 -0.06856378 -0.06859335 -0.0686304 -0.06866824 -0.06870683 -0.06874287 -0.06877697 -0.06881023 -0.06884268
 -0.06887482 -0.0689064 -0.06893679 -0.0689669 -0.06899796 -0.06902985 -0.06906388 -0.06909633 -0.06912563 -0.06914782
 -0.06916011 -0.06916352 -0.06915707 -0.06914575 -0.06913018 -0.06911499 -0.06910086 -0.06908978 -0.06908195 -0.06907732
 -0.06907595 -0.06907902 -0.06908678 -0.06910215 -0.06912462 -0.06915426 -0.06918941 -0.06922561 -0.06926197 -0.06929436
 -0.06932374 -0.06935009 -0.06937329 -0.06939428 -0.06940937 -0.06941655 -0.06941323 -0.06939658 -0.06937065 -0.06933501
 -0.06929853 -0.06926288 -0.06923345 -0.06921147 -0.06919511 -0.06918442 -0.06917556 -0.0691686 -0.06916556 -0.06916715
 -0.0691804 -0.06920493 -0.06924414 -0.0692946 -0.06934956 -0.06940399 -0.06944471 -0.06947025 -0.06947125 -0.06945421
 -0.06942081 -0.06937975 -0.0693378 -0.06929731 -0.06926178 -0.06922772 -0.06919432 -0.06916097 -0.06912652 -0.06909718
 -0.06907355 -0.06906046 -0.06905843 -0.06906527 -0.0690808 -0.06910163 -0.0691276 -0.06915703 -0.06918819 -0.06921317
 -0.06922925 -0.06922293 -0.0691971 -0.06914905 -0.06908715 -0.06902204 -0.06895793 -0.06890307 -0.06885678 -0.06882101
 -0.06879413 -0.06877603 -0.06876482 -0.06876027 -0.06875934 -0.06876177 -0.06876321 -0.06876344 -0.06875573 -0.06873962
 -0.06870917 -0.06866436 -0.06860719 -0.06853854 -0.06846683 -0.06839236 -0.0683208 -0.06825203 -0.0681882 -0.06812999
 -0.06808028 -0.06803797 -0.06800441 -0.06797367 -0.06794076 -0.06790116 -0.06784853 -0.06778809 -0.06771933 -0.06765254
 -0.06759108 -0.06754003 -0.06750194 -0.06747248 -0.06745211 -0.06742963 -0.06740429 -0.06736777 -0.0673198 -0.06725853
 -0.06718341 -0.06708931 -0.06697521 -0.06683145 -0.06666201 -0.06647187 -0.06626876 -0.06607206 -0.06588148 -0.06570651
 -0.06553928 -0.06537452 -0.06520976 -0.06503961 -0.06487143 -0.06470694 -0.06455299 -0.06441309 -0.06428575 -0.06417286
 -0.06406209 -0.06395384 -0.06382071 -0.06366064 -0.06345408 -0.06320141 -0.0629266 -0.06263264 -0.06235721 -0.06209747
 -0.06186062 -0.0616411 -0.06142584 -0.06121294 -0.06099264 -0.06076455 -0.06052422 -0.06027188 -0.06000464 -0.05972808
 -0.05944555 -0.05915941 -0.05887606 -0.05857742 -0.05826121 -0.0579036 -0.05749581 -0.05704677 -0.05655473 -0.05604782
 -0.0555284 -0.05500554 -0.05447955 -0.05395117 -0.05342101 -0.05289741 -0.05237747 -0.05185578 -0.05132148 -0.05073934
 -0.05010229 -0.04937169 -0.04856669 -0.04769263 -0.04678239 -0.04587431 -0.04497489 -0.04410303 -0.04324558 -0.0423996
 -0.04155972 -0.04072236 -0.03989234 -0.03907343 -0.0382496 -0.03742481 -0.03653011 -0.03556064 -0.03445748 -0.03322118
 -0.03192897 -0.03058868 -0.02931138 -0.02808397 -0.02690223 -0.0257488 -0.0245672 -0.02335508 -0.02208178 -0.02074867
 -0.01935303 -0.01787329 -0.0163005 -0.01457666 -0.01266249 -0.01051145 -0.008066389 -0.005411686 -0.002536512 0.0003609299
 0.003238142 0.005981607 0.008563347 0.01099643 0.01327726 0.01547523 0.01759565 0.01976544 0.02199819 0.02448817
 0.02721725 0.03023554 0.03344558 0.03655391 0.03954124 0.04219173 0.04461959 0.04690343 0.04912268 0.05140072
 0.05372722 0.05613416 0.05858963 0.06108012 0.06360783 0.06617995 0.06875489 0.07133188 0.07383377 0.07624292
 0.0785801 0.08084431 0.08309238 0.08532425 0.08746704 0.08951242 0.09133974 0.09296709 0.09441289 0.09571574
 0.09701552 0.09830899 0.09967834 0.1010488 0.1023286 0.1035137 0.1045437 0.1055035 0.1064499 0.1073872
 0.1083513 0.1092517 0.1100645 0.1107344 0.1112373 0.1115955 0.1118053 0.1119233 0.1119527 0.1119573
 0.1119396 0.1119262 0.1119135 0.1118758 0.1118108 0.1116922 0.111526 0.1113126 0.1110692 0.1108284
 0.1106136 0.1104757 0.1104194 0.11047 0.1106188 0.1108613 0.1112109 0.1116711 0.1122585 0.1129884
 0.1138254 0.1147676 0.1157669 0.1168117 0.117915 0.1190754 0.1203408 0.1217132 0.1232179 0.1248535
 0.1266156 0.1285014 0.1304953 0.1325937 0.1347755 0.1370416 0.1393786 0.1418018 0.1443252 0.1469691
 0.1497608 0.1527089 0.1558277 0.1591195 0.1625848 0.16624 0.1700853 0.1741577 0.1784664 0.1830341
 0.1878746 0.1929177 0.1981652 0.2034386 0.2087277 0.213822 0.2187032 0.2231228 0.2270441 0.2301314
 0.232392 0.2336339 0.2339756 0.2335633 0.232536 0.2311538 0.2295278 0.2278601 0.2262277 0.2247632
 0.2234353 0.2222928 0.2211691 0.2200451 0.2186717 0.2169726 0.2148856 0.2123468 0.2097627 0.2071657
 0.2047985 0.2026698 0.2006152 0.1986302 0.1966097 0.1945749 0.192588 0.190663 0.1889021 0.1872515
 0.1857052 0.1840523 0.1820208 0.1793151 0.1754114 0.1704988 0.164454 0.1578242 0.1509179 0.1438249
 0.1366344 0.1293624 0.121973 0.1148007 0.1078811 0.1015296 0.0957909 0.09060621 0.08597164 0.08162542
 0.07756194 0.07362942 0.06984619 0.06623396 0.06280519 0.05962038 0.05666071 0.05391865 0.05136241 0.04894081
 0.04663119 0.0443972 0.04220714 0.04004538 0.03782904 0.03551785 0.03303552 0.03029513 0.02750493 0.0246627
 0.02215397 0.02006984 0.01835554 0.01702691 0.01578479 0.01461504 0.01335865 0.01202392 0.01065233 0.009261576
 0.007975025 0.006785643 0.005731718 0.00480389 0.003985871 0.003308306 0.002806125 0.002520059 0.002518559 0.002788644
 0.003350348 0.004156867 0.005190162 0.006414626 0.007814448 0.009367781 0.01106217 0.01291366 0.01491656 0.01714653
 0.01961439 0.02231184 0.0252366 0.02809192 0.03085866 0.03320702 0.03515875 0.03666762 0.03776304 0.03852034
 0.03894964 0.03909658 0.03899533 0.03869771 0.03828822 0.03785673 0.03752594 0.03742096 0.03759488 0.03814991
 0.03892835 0.03990366 0.04091845 0.04191131 0.04290713 0.04389566 0.04496123 0.04611272 0.0473765 0.04875395
 0.05019125 0.05168529 0.0531777 0.05467783 0.0562035 0.057776 0.05948422 0.06132637 0.06336166 0.06552976
 0.06776118 0.07000802 0.07216834 0.07429066 0.07637204 0.07848421 0.08067678 0.08294449 0.08530828 0.08769722
 0.09009838 0.09245892 0.0947666 0.0970131 0.09919865 0.101292 0.1032913 0.1050794 0.106649 0.1078725
 0.1087545 0.1092581 0.1093905 0.1091624 0.1085653 0.1075849 0.1062109 0.104411 0.1022049 0.09958883
 0.09662252 0.09334242 0.08981699 0.08609318 0.08220343 0.07817029 0.07399985 0.06968419 0.06529776 0.06083571
 0.05648065 0.05224951 0.04827056 0.04455137 0.04104675 0.03775027 0.03456058 0.03148573 0.02851752 0.02567853
 0.02305076 0.02063383 0.01847836 0.01654717 0.01480787 0.01321461 0.01170426 0.01024634 0.008794764 0.007345054
 0.005877802 0.004416757 0.002963331 0.001550953 0.0001900369 -0.001109294 -0.00234116 -0.003525724 -0.004664362 -0.005774541
 -0.006857327 -0.007889019 -0.008865932 -0.009731277 -0.01048508 -0.01109514 -0.01157197 -0.0119349 -0.0121957 -0.01239192
 -0.01252902 -0.01263286 -0.01270319 -0.01274996 -0.01276971 -0.01276069 -0.01272714 -0.01266505 -0.01260006 -0.01253597
 -0.01251216 -0.01253843 -0.01264346 -0.01283493 -0.01311588 -0.01348877 -0.01393246 -0.01444592 -0.01500085 -0.01559641
 -0.01621632 -0.01685995 -0.01751784 -0.0181845 -0.01883757 -0.01946678 -0.02003613 -0.02054009 -0.02095119 -0.02127524
 -0.02150644 -0.02165753 -0.02173539 -0.02175376 -0.0217203 -0.02164918 -0.02154579 -0.02142505 -0.02129029 -0.02115778
 -0.02102986 -0.02092286 -0.02083892 -0.02078497 -0.02076159 -0.02075978 -0.02077864 -0.02080264 -0.02083224 -0.02086177
 -0.02089425 -0.0209365 -0.02099368 -0.02107981 -0.02120264 -0.02138062 -0.02162036 -0.02193847 -0.02233222 -0.02280786
 -0.02335122 -0.02395856 -0.02461051 -0.02530102 -0.02600906 -0.02673006 -0.02744126 -0.02813913 -0.02880305 -0.02943057
 -0.03000896 -0.03053731 -0.03101213 -0.03143384 -0.03180767 -0.03213488 -0.03242608 -0.03268182 -0.03291066 -0.03311068
 -0.03328242 -0.0334217 -0.03352214 -0.03357955 -0.03358558 -0.03354085 -0.03344037 -0.03329499 -0.0331066 -0.03289393
 -0.03266382 -0.03243136 -0.03220198 -0.03198208 -0.03177307 -0.03158085 -0.03140563 -0.03125849 -0.03114012 -0.03105692
 -0.03100825 -0.03098546 -0.03098642 -0.03099281 -0.03100422 -0.03100806 -0.03100804 -0.03100626 -0.0310081 -0.03102449
 -0.03105657 -0.0311116 -0.0311842 -0.03127315 -0.03137125 -0.03147376 -0.03157756 -0.03167985 -0.03178195 -0.03188334
 -0.03198759 -0.03209505 -0.03220955 -0.03233153 -0.03246346 -0.03260554 -0.03275819 -0.0329214 -0.03309515 -0.03327923
 -0.03347272 -0.03367453 -0.03388022 -0.03408832 -0.0342923 -0.03449306 -0.03468773 -0.03488177 -0.0350795 -0.03528843
 -0.03551672 -0.03576718 -0.03604571 -0.03634495 -0.03666498 -0.03699262 -0.03732465 -0.03765111 -0.03796963 -0.03827593
 -0.03856928 -0.03884763 -0.03911076 -0.03935883 -0.03959198 -0.03981325 -0.0400223 -0.04021892 -0.04040154 -0.04056324
 -0.04070416 -0.04081942 -0.04091397 -0.04099348 -0.04106394 -0.04113636 -0.04120981 -0.04128975 -0.04136551 -0.0414346
 -0.04148097 -0.04149873 -0.04147332 -0.04139942 -0.04127048 -0.04108323 -0.0408445 -0.04055355 -0.04022997 -0.03987475
 -0.03951246 -0.03914406 -0.03878787 -0.03844361 -0.03811893 -0.03781231 -0.03752267 -0.03724722 -0.03697926 -0.03671461
 -0.03644267 -0.03616135 -0.03586191 -0.03554987 -0.03522501 -0.03489889 -0.03457797 -0.03427077 -0.03398288 -0.03371538
 -0.03346978 -0.03324477 -0.03304048 -0.03285512 -0.03268897 -0.03253529 -0.0323938 -0.03225192 -0.03210897 -0.03195285
 -0.03178338 -0.03159376 -0.03138396 -0.03115074 -0.03089285 -0.03060572 -0.0302876 -0.02993236 -0.02954163 -0.02911329
 -0.0286544 -0.02816948 -0.02766633 -0.0271512 -0.02662698 -0.02609657 -0.02555937 -0.02501575 -0.02446489 -0.02390703
 -0.02333944 -0.02276219 -0.0221693 -0.02156045 -0.02092806 -0.02027181 -0.01958507 -0.0188696 -0.01813098 -0.01737783
 -0.01664483 -0.01594592 -0.01533712 -0.01482243 -0.01444124 -0.01417411 -0.01401902 -0.0139381 -0.01390221 -0.01387074
 -0.01381232 -0.01370079 -0.01351478 -0.01325782 -0.01292249 -0.01253936 -0.01211193 -0.01166961 -0.01121746 -0.01075812
 -0.01029252 -0.009801093 -0.009282831 -0.008718442 -0.008108991 -0.007451239 -0.006750436 -0.006024137 -0.005281296 -0.004552749
 -0.003848759 -0.003200627 -0.002618174 -0.002125665 -0.001730016 -0.001447483 -0.001273754 -0.001214601 -0.001250547 -0.001377464
 -0.001570392 -0.001822825 -0.002112989 -0.002437772 -0.002771695 -0.003113214 -0.003426345 -0.003708826 -0.003925446 -0.00407518
 -0.004141374 -0.00412633 -0.004038104 -0.003881194 -0.003678587 -0.003432819 -0.003163265 -0.002868095 -0.002552329 -0.002214899
 -0.00185321 -0.001476288 -0.00108691 -0.0007062452 -0.0003447015 -2.81844E-05 0.0002312145 0.0004132776 0.0005093632 0.0005117616
 0.0004165298 0.0002288004 -5.218644E-05 -0.0004123368 -0.0008511685 -0.001343991 -0.001888826 -0.002447348 -0.003017268 -0.003561649
 -0.004082974 -0.004570403 -0.005031154 -0.005480124 -0.005920794 -0.006368215 -0.006818618 -0.007272568 -0.007727955 -0.00817987
 -0.008637587 -0.009101687 -0.009592985 -0.01011854 -0.01070013 -0.01134616 -0.01206549 -0.01286279 -0.01373004 -0.01466763
 -0.01565992 -0.01670605 -0.01778878 -0.01890685 -0.02003697 -0.02117691 -0.0222987 -0.02340107 -0.02446342 -0.02548637
 -0.02646136 -0.02738893 -0.02826624 -0.02909352 -0.02986968 -0.03059562 -0.03127152 -0.03189892 -0.03247745 -0.03301308
 -0.0335056 -0.03397042 -0.0344106 -0.03484379 -0.03527461 -0.03570877 -0.03614835 -0.0365864 -0.03702269 -0.03744725
 -0.0378595 -0.03824937 -0.03861629 -0.03895063 -0.03925278 -0.03951879 -0.03975041 -0.0399507 -0.04012066 -0.04026359
 -0.04037987 -0.04047019 -0.04053789 -0.04058518 -0.04061807 -0.04064111 -0.04065773 -0.0406712 -0.04067979 -0.04068348
 -0.04068103 -0.040671 -0.04066063 -0.04064979 -0.04065321 -0.04067207 -0.04071346 -0.04077701 -0.04084977 -0.0409293
 -0.04098995 -0.0410303 -0.04102981 -0.04099005 -0.04090364 -0.04077572 -0.04061099 -0.04041834 -0.04021136 -0.03999686
 -0.03978812 -0.03958116 -0.03937893 -0.03917076 -0.0389511 -0.03871896 -0.03847005 -0.03821973 -0.03796919 -0.03773768
 -0.03752821 -0.0373484 -0.03719955 -0.03707133 -0.03696299 -0.0368561 -0.03675127 -0.03664381 -0.03653825 -0.03645301
 -0.03639079 -0.03637187 -0.03638919 -0.03644083 -0.03651368 -0.03658866 -0.03665808 -0.03670702 -0.03673556 -0.0367397
 -0.03672054 -0.0366781 -0.03661181 -0.03652133 -0.0364072 -0.03626942 -0.03610905 -0.0359267 -0.0357184 -0.03548412
 -0.03521447 -0.03490919 -0.03456455 -0.03418237 -0.03377569 -0.03334783 -0.03292181 -0.03249757 -0.0320879 -0.03168866
 -0.03129688 -0.03091107 -0.03052653 -0.03014718 -0.02977519 -0.02941348 -0.02906517 -0.02872974 -0.02840674 -0.02809943
 -0.02780762 -0.02753913 -0.02729606 -0.02708025 -0.02689321 -0.02672516 -0.02657567 -0.02643217 -0.02629422 -0.02615707
 -0.0260213 -0.02589033 -0.02576452 -0.02564848 -0.02553977 -0.02543543 -0.02532876 -0.02520607 -0.02505948 -0.02487098
 -0.02463995 -0.02435634 -0.02403161 -0.02366846 -0.02328282 -0.0228827 -0.02247747 -0.02207169 -0.0216693 -0.0212711
 -0.0208836 -0.02050743 -0.02014998 -0.01981207 -0.01949412 -0.01919589 -0.01890854 -0.01863067 -0.01834656 -0.01805447
 -0.01773676 -0.01739467 -0.01701996 -0.016621 -0.01620894 -0.01579551 -0.01540301 -0.01503544 -0.01470774 -0.01441032
 -0.01414389 -0.01389005 -0.01364161 -0.01338182 -0.0131033 -0.01279976 -0.01246724 -0.01211255 -0.01173534 -0.01134867
 -0.01095343 -0.01056072 -0.01017106 -0.009792755 -0.009425974 -0.009076478 -0.008743098 -0.008424063 -0.008116575 -0.007810454
 -0.007505636 -0.007194905 -0.006885122 -0.006581782 -0.006294179 -0.006036809 -0.005804671 -0.005605136 -0.00540962 -0.005208818
 -0.00497321 -0.004686498 -0.004355978 -0.003975319 -0.003587391 -0.003197122 -0.002836193 -0.00250884 -0.002205909 -0.001926549
 -0.001639875 -0.001344884 -0.001019491 -0.0006655491 -0.0002792697 0.0001347456 0.0005656134 0.001007297 0.001442532 0.001866638
 0.002265848 0.002637416 0.002973103 0.003273994 0.003534805 0.003770039 0.003981522 0.004195129 0.004420793 0.004669359
 0.004948552 0.005238836 0.005539414 0.005825989 0.00609587 0.006346778 0.006578802 0.006804358 0.007023871 0.007246013
 0.007470393 0.007699815 0.007933369 0.008170078 0.008408458 0.00864496 0.008878554 0.00910583 0.009327556 0.009541947
 0.009754188 0.009965163 0.01018646 0.01042435 0.01068439 0.01097388 0.01127443 0.01158502 0.01187976 0.01215255
 0.01240863 0.01264683 0.01289719 0.01316081 0.01344446 0.0137459 0.01404224 0.01433526 0.0146185 0.01490304
 0.01522019 0.01557937 0.01601966 0.01653442 0.01713648 0.01779986 0.01850663 0.01922434 0.01992581 0.02058792
 0.02119559 0.02172675 0.02217519 0.02250825 0.02271472 0.0227907 0.02272601 0.02259554 0.02240194 0.0222567
 0.02216494 0.02218245 0.0223053 0.02251358 0.02279996 0.02311671 0.02346099 0.02379794 0.02413093 0.02444979
 0.02476022 0.02506921 0.02537268 0.02567395 0.02595305 0.02619748 0.02639071 0.02651673 0.02658598 0.02659355
 0.02657368 0.02653044 0.02650426 0.02650083 0.02655211 0.02666229 0.02683411 0.02706739 0.02733105 0.02762313
 0.02791044 0.02819528 0.02847086 0.02874387 0.02903063 0.02933991 0.02970052 0.03011257 0.03059592 0.03112668
 0.03168819 0.03225822 0.03280306 0.03335448 0.03391076 0.03453599 0.03527079 0.03606503 0.03693183 0.03771529
 0.03838471 0.03892274 0.03932161 0.03964943 0.03990897 0.040114 0.04026256 0.04033356 0.04033109 0.04026629
 0.04014624 0.04000472 0.03983524 0.03964268 0.03941191 0.03911903 0.03876182 0.03832087 0.03782363 0.03727506
 0.03672811 0.03620972 0.03575734 0.03539702 0.03511179 0.0349074 0.03473471 0.0345864 0.03443605 0.03427959
 0.03412164 0.03396229 0.03380554 0.03365055 0.03348943 0.0333202 0.03312935 0.03291318 0.03265157 0.03234387
 0.03197319 0.03155506 0.03110053 0.03063849 0.03020563 0.02981597 0.02949897 0.02923234 0.02902071 0.02881089
 0.02858573 0.02830679 0.02795144 0.02756243 0.02713549 0.02677464 0.02649121 0.02632011 0.02626293 0.02624445
 0.02626208 0.02625812 0.02624276 0.0262461 0.02627377 0.02636492 0.02650867 0.02669862 0.02692613 0.0271734
 0.02744022 0.02772179 0.0280131 0.02831088 0.02860541 0.02889204 0.02916053 0.02940887 0.02961925 0.02978869
 0.0298962 0.02993724 0.02990631 0.02980126 0.02963916 0.02942099 0.02918657 0.02893947 0.02873536 0.02857482
 0.02849341 0.028482 0.02852784 0.02862309 0.02873939 0.02888436 0.02905816 0.02926756 0.029528 0.0298187
 0.03013538 0.03043897 0.03070745 0.03091814 0.03105238 0.03112686 0.03113658 0.03113098 0.03111652 0.03113236
 0.0311849 0.03126389 0.031369 0.0314675 0.03155977 0.03164216 0.03171701 0.03179917 0.03188379 0.03196264
 0.03202808 0.03205658 0.03204812 0.03199065 0.03189115 0.03174925 0.03158222 0.0313988 0.03122601 0.03108357
 0.03097538 0.03091478 0.0308644 0.0308187 0.030743 0.03062826 0.03047779 0.03029075 0.03007745 0.02983843
 0.02956855 0.02926896 0.02895133 0.02862044 0.02831308 0.02802795 0.02778347 0.02756749 0.02735913 0.0271525
 0.0269224 0.02668578 0.02644838 0.02623663 0.02607635 0.02597233 0.02594052 0.02595394 0.02600862 0.02607282
 0.02613681 0.02618835 0.02622392 0.02623979 0.02623516 0.02621013 0.02616467</values></Ydata></AB><ScSm><Ydata ylabel="Single channel"><values byteorder="INTEL" format="FLOAT32" numvalues="1814"> 0.07176471 0.07176836 0.07183708 0.07200094 0.07223265 0.07245946 0.07261577 0.07268775 0.07269773 0.07265882
 0.07258128 0.07252005 0.07256271 0.07274389 0.07299341 0.07318301 0.07322653 0.07315564 0.07310428 0.07317831
 0.073312 0.07328568 0.07293241 0.07232933 0.07174809 0.0714052 0.07132843 0.07151422 0.07205722 0.07289073
 0.07350162 0.07329815 0.07235222 0.07143062 0.07114521 0.07136518 0.07157549 0.07147377 0.07106748 0.07054985
 0.07034111 0.07097695 0.07258268 0.07443635 0.07522598 0.07387769 0.07032614 0.06575479 0.0621537 0.06124918
 0.06328895 0.06670523 0.06929287 0.06996591 0.06927159 0.06826952 0.06738894 0.0665746 0.06603602 0.06628771
 0.0674476 0.06875776 0.06897807 0.06745335 0.06489147 0.0628517 0.06231506 0.0630726 0.06456999 0.06651135
 0.06801341 0.06712231 0.06273796 0.05704781 0.05455015 0.05777882 0.06460044 0.07029545 0.07175297 0.06922558
 0.06497221 0.06138368 0.06006806 0.06141961 0.06456068 0.06806777 0.07082818 0.07208946 0.07126877 0.06845849
 0.064926 0.06250398 0.06246436 0.06501304 0.06924546 0.07323717 0.07492131 0.07361174 0.07045645 0.06722704
 0.0651543 0.06493312 0.06689918 0.07068442 0.07518722 0.07920226 0.08191124 0.08298311 0.08265445 0.08157466
 0.08030649 0.0792295 0.07888535 0.07964844 0.08083513 0.08095679 0.07933667 0.07701099 0.07566153 0.07587657
 0.07668281 0.0767341 0.07567448 0.07392897 0.07138363 0.0673488 0.06215437 0.05758333 0.05509397 0.05470415
 0.05604363 0.05892749 0.06212343 0.06328611 0.0615306 0.05906597 0.05901101 0.06206498 0.06614849 0.06893075
 0.06998689 0.07062374 0.07220611 0.07476589 0.0768364 0.07655834 0.07351698 0.06977254 0.06840383 0.07049087
 0.07407977 0.07658781 0.07752579 0.07822369 0.0794945 0.08036982 0.07911342 0.07529321 0.07088707 0.06905779
 0.07139684 0.07632715 0.08024791 0.08020259 0.07586953 0.06961882 0.06465939 0.06282146 0.06408095 0.06779222
 0.07339328 0.07975209 0.08487478 0.08703256 0.08602516 0.08306591 0.07939535 0.07514072 0.06998336 0.06506537
 0.06321293 0.06626578 0.07272606 0.07900738 0.08263387 0.08347423 0.08234931 0.0795089 0.07485659 0.06940007
 0.06572215 0.06597693 0.0692945 0.07227378 0.07253983 0.07090705 0.06963082 0.06959981 0.07000533 0.07006161
 0.07012139 0.07106274 0.0730283 0.0750833 0.07612 0.07587139 0.07495861 0.0741658 0.07372935 0.07317265
 0.0719738 0.07059292 0.07042527 0.07227671 0.07526088 0.0777109 0.07885216 0.07908924 0.07890473 0.07801394
 0.07579023 0.07246202 0.06960046 0.06895615 0.07076605 0.07360821 0.07588229 0.07695597 0.07700673 0.07644809
 0.07565311 0.07483032 0.07407865 0.07364906 0.07388514 0.07473315 0.07562947 0.07606746 0.07601313 0.07565183
 0.07502793 0.07411584 0.07307652 0.07226625 0.0719816 0.0722345 0.07279076 0.07338089 0.07380055 0.07387498
 0.07351968 0.07286963 0.07219515 0.07165524 0.07125138 0.0710046 0.0710047 0.07124701 0.07155516 0.07173001
 0.07170756 0.07153912 0.07128249 0.0709584 0.0705843 0.07021639 0.06995121 0.06986205 0.06991317 0.06997769
 0.06998239 0.06998163 0.07002901 0.07004137 0.06988541 0.06956159 0.06921426 0.06897481 0.06885891 0.06880269
 0.06873323 0.06858338 0.0682871 0.06783345 0.06734382 0.0670307 0.06702747 0.06728879 0.06767105 0.06804127
 0.06829375 0.06836348 0.06827842 0.06813346 0.06797844 0.06777938 0.06750432 0.06720765 0.06701581 0.06703144
 0.06723745 0.06750175 0.06769152 0.06776354 0.06774639 0.06769462 0.06767368 0.06771584 0.06776521 0.06772649
 0.0675879 0.06744763 0.0674049 0.06745634 0.06750743 0.06747451 0.06737436 0.067305 0.06733353 0.06742845
 0.0675154 0.06756652 0.06761037 0.06767212 0.06772451 0.06770399 0.06758378 0.06742212 0.06730983 0.06727552
 0.06727955 0.06729381 0.06733873 0.06743219 0.06754239 0.06761484 0.06763293 0.06763171 0.06764697 0.06766316
 0.0676319 0.06754014 0.06743425 0.06737009 0.06735992 0.06737573 0.06738539 0.06737417 0.06734197 0.06729277
 0.06722908 0.06715017 0.06705257 0.06693998 0.06684051 0.06680088 0.06684113 0.06691581 0.06694037 0.06686532
 0.06671917 0.06657577 0.06648248 0.06642315 0.06635082 0.06624779 0.06614193 0.06606764 0.06602994 0.06600922
 0.06598444 0.06594605 0.06590516 0.06589988 0.06597307 0.06612417 0.06629039 0.06639523 0.06641671 0.06639821
 0.06639767 0.06643967 0.06651239 0.06659515 0.06668531 0.06679919 0.0669404 0.06707466 0.06715985 0.0672019
 0.06725415 0.06735842 0.06751201 0.06769038 0.06786899 0.06802073 0.06812899 0.06821443 0.06832178 0.06846888
 0.06862915 0.06877177 0.06890063 0.06904262 0.06921339 0.06940967 0.06962781 0.06987421 0.07015459 0.07045859
 0.07075584 0.07101053 0.07121183 0.07139587 0.07162648 0.07194211 0.07232147 0.07270382 0.07304078 0.07332973
 0.07360041 0.07387467 0.07414903 0.07442299 0.07472673 0.07509536 0.0755204 0.07595201 0.07635173 0.07672323
 0.07709 0.07746389 0.07784321 0.07822719 0.07862049 0.07902433 0.0794273 0.0798103 0.08016336 0.08049501
 0.08082412 0.08116816 0.08153768 0.08192542 0.08229518 0.0826049 0.08285889 0.08311918 0.0834402 0.08380336
 0.08414359 0.08443373 0.08471159 0.08502173 0.08536173 0.08570062 0.08602771 0.08636123 0.08671509 0.08707275
 0.08739574 0.08765484 0.08785681 0.08804163 0.08824988 0.08849696 0.08878501 0.08912399 0.0895154 0.08992109
 0.09027863 0.09055327 0.09075762 0.09092616 0.09109493 0.09129812 0.09155247 0.09183909 0.09211677 0.0923515
 0.09252901 0.09266123 0.09279482 0.09298657 0.09324903 0.09354256 0.09383717 0.09415333 0.09451771 0.09490838
 0.09528306 0.09564631 0.09604298 0.09647892 0.09688896 0.09720422 0.09742177 0.09758468 0.0977264 0.09787156
 0.09806673 0.09835958 0.0987459 0.09916905 0.09957429 0.0999428 0.1002772 0.1005773 0.1008368 0.1010525
 0.1012324 0.1013922 0.1015465 0.1017087 0.1018974 0.1021244 0.1023677 0.1025733 0.1026964 0.1027261
 0.1026638 0.1025049 0.1022628 0.1019895 0.1017327 0.1014738 0.101134 0.1006461 0.1000025 0.09923342
 0.0983618 0.09739874 0.09637337 0.09535196 0.09442017 0.09364917 0.09308568 0.09277596 0.09278177 0.09314369
 0.09381588 0.09464616 0.09542914 0.09598108 0.09618244 0.09598942 0.09543426 0.09460591 0.09360685 0.0925149
 0.09137317 0.09019221 0.08894871 0.08760145 0.08613929 0.08462563 0.08320636 0.0821072 0.08164776 0.08220698
 0.08405378 0.08711003 0.09087589 0.09465294 0.09790577 0.100461 0.1024333 0.104031 0.1054243 0.1067069
 0.1079038 0.1090024 0.1099929 0.1108835 0.1116828 0.1123824 0.1129593 0.1133897 0.1136697 0.1138309
 0.1139297 0.1140158 0.1141172 0.1142487 0.1144042 0.1145325 0.1145379 0.1143192 0.1138091 0.1129735
 0.1117811 0.1102168 0.1084198 0.106879 0.106403 0.107686 0.1107624 0.1149055 0.1191049 0.1226496
 0.1253296 0.1272645 0.1286702 0.1297397 0.1306106 0.1313654 0.1320498 0.13269 0.133298 0.1338765
 0.1344275 0.1349553 0.1354665 0.1359687 0.1364633 0.1369426 0.1374023 0.137855 0.1383235 0.138818
 0.1393242 0.1398156 0.1402806 0.1407337 0.1411932 0.141651 0.1420786 0.142464 0.1428287 0.1432061
 0.1436152 0.144052 0.1444913 0.1448996 0.1452593 0.1455842 0.1459052 0.1462418 0.1465908 0.1469394
 0.147281 0.1476187 0.1479581 0.1483038 0.1486609 0.1490294 0.1493923 0.1497207 0.1500032 0.1502622
 0.1505337 0.1508334 0.1511475 0.1514536 0.1517457 0.1520417 0.152368 0.1527323 0.15311 0.153462
 0.1537679 0.1540411 0.1543123 0.1546045 0.154921 0.155251 0.1555805 0.1559007 0.1562134 0.1565267
 0.1568433 0.1571573 0.1574626 0.1577604 0.1580542 0.1583434 0.1586283 0.1589145 0.1592104 0.1595228
 0.1598569 0.1602071 0.1605496 0.1608538 0.1611102 0.1613387 0.1615679 0.1618135 0.1620798 0.1623683
 0.162675 0.1629842 0.163278 0.1635529 0.1638224 0.1641012 0.164391 0.1646829 0.1649711 0.1652592
 0.1655557 0.1658671 0.1661918 0.1665184 0.1668339 0.1671346 0.1674287 0.1677245 0.16802 0.1683079
 0.1685853 0.1688572 0.1691318 0.1694146 0.1697047 0.1699957 0.1702817 0.1705628 0.1708448 0.1711336
 0.1714287 0.1717234 0.1720127 0.172299 0.1725881 0.172882 0.173178 0.1734706 0.1737531 0.1740218
 0.1742812 0.174542 0.1748117 0.1750909 0.1753767 0.1756663 0.1759567 0.176243 0.1765213 0.1767932
 0.1770653 0.1773421 0.1776198 0.1778913 0.1781537 0.1784106 0.1786694 0.178936 0.179211 0.1794894
 0.17977 0.1800576 0.180354 0.1806525 0.1809445 0.1812284 0.1815102 0.1817972 0.1820901 0.1823828
 0.1826711 0.182959 0.1832484 0.1835317 0.1838028 0.1840683 0.1843388 0.184617 0.1848973 0.1851726
 0.1854397 0.1857023 0.185967 0.1862341 0.1864999 0.1867664 0.1870388 0.1873173 0.1875975 0.1878778
 0.188159 0.1884431 0.1887322 0.189023 0.1893083 0.1895893 0.1898737 0.1901614 0.1904456 0.1907278
 0.1910173 0.1913164 0.1916193 0.1919177 0.1922054 0.1924844 0.1927654 0.1930534 0.1933395 0.193616
 0.1938868 0.1941597 0.1944397 0.1947299 0.1950246 0.1953098 0.1955814 0.1958528 0.196138 0.196436
 0.1967334 0.1970148 0.1972778 0.1975392 0.1978138 0.1980942 0.1983684 0.1986412 0.1989199 0.1992016
 0.1994869 0.1997818 0.2000795 0.2003659 0.20064 0.2009093 0.2011794 0.2014557 0.201734 0.2019845
 0.2021482 0.2020981 0.2015154 0.1997571 0.1958471 0.1886879 0.1775123 0.1623786 0.1443131 0.1249346
 0.105863 0.08831597 0.07300825 0.06025102 0.05010406 0.04247551 0.03718805 0.03408826 0.03316031 0.03464259
 0.03915526 0.04733549 0.05845167 0.069169 0.074843 0.07318985 0.06647469 0.0594454 0.05537876 0.05449203
 0.0553695 0.05681173 0.05844517 0.06049388 0.06333941 0.06709848 0.07160104 0.07684363 0.08321314 0.09099469
 0.09977815 0.1086261 0.1168779 0.1246701 0.132625 0.1411072 0.1498405 0.1581779 0.1656202 0.1720738
 0.1777495 0.1829237 0.187778 0.1923877 0.196786 0.2009648 0.2047803 0.2079109 0.2100104 0.2109713
 0.2110524 0.2107323 0.210425 0.2103206 0.2104407 0.2107644 0.2112756 0.2119498 0.2127508 0.2136388
 0.2145742 0.2155261 0.21648 0.2174264 0.2183461 0.2192155 0.2200171 0.2207443 0.2214017 0.2220016
 0.2225526 0.2230574 0.2235254 0.2239748 0.2244178 0.2248539 0.2252752 0.2256704 0.2260294 0.2263523
 0.2266481 0.2269214 0.2271712 0.2274039 0.2276356 0.2278794 0.2281376 0.2284058 0.2286774 0.2289468
 0.2292127 0.229475 0.2297318 0.2299833 0.2302342 0.2304875 0.2307387 0.2309825 0.2312189 0.2314516
 0.2316877 0.231935 0.2321946 0.2324548 0.2327036 0.2329418 0.2331824 0.2334388 0.233712 0.2339854
 0.2342409 0.2344831 0.2347365 0.2350131 0.2352986 0.2355732 0.2358308 0.2360781 0.2363273 0.2365864
 0.2368462 0.2370852 0.237297 0.2375039 0.237738 0.2380132 0.2383156 0.2386155 0.2388936 0.239154
 0.2394103 0.2396669 0.2399191 0.2401618 0.2403976 0.2406465 0.240936 0.241264 0.2415935 0.2418994
 0.2421961 0.2425056 0.242831 0.2431659 0.2434932 0.2437733 0.2439739 0.2441249 0.2443201 0.2446477
 0.2451112 0.2456158 0.246052 0.2463917 0.2466865 0.2469956 0.2473437 0.2477041 0.2479753 0.2480483
 0.2479769 0.2480124 0.2483749 0.2490318 0.2497613 0.2503812 0.2508591 0.2512524 0.2516091 0.2519187
 0.2521253 0.2521911 0.2521773 0.2522625 0.2526225 0.2532518 0.2539508 0.2545295 0.2549592 0.2553003
 0.255591 0.2558444 0.2560144 0.2559382 0.2555078 0.2549788 0.2549026 0.255594 0.2567729 0.2578618
 0.2585582 0.2589837 0.2593513 0.2597049 0.2599937 0.2601211 0.2598017 0.2587188 0.2571319 0.2560584
 0.2564322 0.2581619 0.2602925 0.261965 0.2629596 0.263486 0.2638147 0.2640963 0.2642453 0.2639455
 0.2630064 0.2618342 0.261327 0.262046 0.263588 0.2650166 0.2658126 0.2661468 0.2663911 0.266704
 0.2669214 0.2664947 0.2648049 0.2620797 0.2598538 0.2598846 0.2624301 0.2659397 0.2685934 0.2698621
 0.2703555 0.2704839 0.2698483 0.2679576 0.2649793 0.2616645 0.2590971 0.2585336 0.2605754 0.2641394
 0.2670714 0.2682658 0.2686024 0.2695152 0.2712874 0.2730613 0.2739453 0.273701 0.2725996 0.2709408
 0.2689033 0.2669771 0.2662357 0.2675862 0.2706657 0.2739615 0.2762055 0.2773364 0.2778475 0.2773122
 0.2740816 0.2672652 0.2592189 0.2549032 0.2575068 0.2651109 0.2727516 0.2773034 0.2791935 0.2800741
 0.2806049 0.2802654 0.2776623 0.2713015 0.2619525 0.254114 0.2529621 0.2592314 0.2683855 0.274848
 0.275791 0.2714231 0.2639964 0.2571484 0.2544184 0.2570962 0.2636527 0.2712525 0.2774583 0.280898
 0.2812524 0.2791297 0.2760193 0.2739214 0.2738965 0.274495 0.2728629 0.268352 0.2636115 0.2607085
 0.2579371 0.2529666 0.2479251 0.2479852 0.2546361 0.2631989 0.2680772 0.2684258 0.2671736 0.2657061
 0.2615272 0.2518767 0.2389601 0.2300621 0.2311698 0.2407629 0.2511684 0.2560619 0.2554984 0.2536899
 0.2533813 0.2530463 0.2490518 0.2403937 0.2311057 0.2268797 0.2290343 0.2333377 0.2350358 0.2326775
 0.2264842 0.216776 0.2066297 0.2028986 0.210436 0.2261542 0.2414439 0.2492853 0.2468657 0.2340474
 0.2142393 0.1963137 0.1903125 0.198505 0.2126389 0.2215142 0.2198884 0.2094554 0.1940155 0.1768055
 0.1619121 0.1548023 0.1590494 0.1726533 0.1881844 0.1965785 0.1921729 0.1770228 0.1610529 0.1549305
 0.1605021 0.1696207 0.1732783 0.1697489 0.1633441 0.1587573 0.1582915 0.1615717 0.1660052 0.1691586
 0.1707014 0.1698774 0.1629215 0.1476362 0.1296557 0.1187799 0.1187666 0.125379 0.1342506 0.1447925
 0.1551471 0.1595324 0.1547872 0.1463975 0.1438207 0.1504376 0.160652 0.1667093 0.1663484 0.1631916
 0.161114 0.1600996 0.1581968 0.156008 0.1568537 0.1621805 0.1690298 0.1733366 0.174162 0.1733314
 0.1723282 0.1711807 0.1695201 0.1672278 0.1643435 0.1611742 0.1582155 0.1555661 0.1528142 0.1496207
 0.145759 0.140418 0.1324839 0.1224411 0.1133813 0.1086735 0.1085529 0.1104162 0.1124419 0.1145738
 0.1152693 0.1105876 0.09931037 0.0871221 0.08249886 0.08857752 0.1008445 0.112248 0.1185075 0.1184931
 0.1122755 0.1015313 0.09145783 0.08913474 0.09787378 0.114221 0.1317714 0.1465543 0.1573951 0.1631247
 0.162433 0.1564161 0.1493589 0.1463237 0.1502115 0.1604627 0.1730721 0.1814632 0.1797544 0.1687508
 0.1587187 0.161757 0.1789322 0.1983064 0.208347 0.209653 0.2100641 0.2124719 0.2134551 0.2120536
 0.2131883 0.2208567 0.2321507 0.2400976 0.2398228 0.2304844 0.2144464 0.1975771 0.187768 0.1887819
 0.1961393 0.2020835 0.2031251 0.1996021 0.1910511 0.178065 0.1672105 0.167087 0.1782706 0.192037
 0.2003026 0.2030253 0.2045956 0.2063026 0.2048506 0.1974473 0.1864819 0.1780514 0.1759601 0.1784184
 0.1811164 0.1817755 0.1802815 0.1762009 0.1690347 0.1608597 0.1563073 0.1586184 0.166385 0.1749203
 0.180469 0.1825809 0.183001 0.1833919 0.1841537 0.1845795 0.1841038 0.1839359 0.1868107 0.193978
 0.2030632 0.2104358 0.2153522 0.2201891 0.2266768 0.233425 0.2375436 0.2377926 0.235819 0.2348032
 0.2369582 0.2417708 0.2463568 0.2479029 0.2463283 0.2445926 0.2459531 0.2508382 0.2567793 0.2612197
 0.2636169 0.2648948 0.2659109 0.2667438 0.2666759 0.2647622 0.2612418 0.2583781 0.2588851 0.2632395
 0.2692023 0.2740833 0.2768627 0.2780711 0.2783838 0.2778612 0.2763645 0.2742513 0.2723885 0.2714957
 0.2716552 0.2724811 0.2735473 0.2745646 0.2753659 0.2759199 0.2763143 0.2766587 0.2770432 0.2775636
 0.278271 0.2790834 0.2798567 0.280579 0.2813998 0.2824099 0.2834655 0.2843061 0.2847821 0.2848688
 0.2845201 0.2836655 0.2823557 0.280762 0.2789837 0.2769885 0.2748621 0.2730693 0.2723184 0.2730575
 0.2750822 0.2776568 0.2800128 0.2817393 0.2828048 0.2833725 0.2836475 0.2837978 0.2839069 0.2839726
 0.2839617 0.2838644 0.2836992 0.2834862 0.2832407 0.2829949 0.2828032 0.2827056 0.2826873 0.2826851
 0.2826322 0.2824952 0.2822861 0.2820489 0.2818193 0.2815827 0.2812729 0.2808193 0.2801996 0.2794583
 0.278682 0.2779455 0.2772598 0.2765707 0.2758146 0.2749699 0.2740327 0.2729607 0.2716998 0.2702845
 0.2688619 0.2675733 0.2664363 0.2653652 0.2642659 0.2630832 0.2617958 0.2604127 0.2589638 0.257475
 0.2559541 0.2544017 0.2528176 0.2511952 0.2495258 0.2478038 0.2460201 0.2441604 0.242223 0.240225
 0.23816 0.2359446 0.2334284 0.2304654 0.2269661 0.2228893 0.2182288 0.2130413 0.2074738 0.2017381
 0.1960459 0.1905639 0.1854193 0.1807434 0.1766958 0.1734278 0.1710159 0.1694413 0.1686334 0.1685197
 0.1690472 0.1701793 0.1718705 0.1740302 0.1765113 0.179131 0.1817005 0.1840577 0.1861214 0.1879335
 0.1896307 0.1913466 0.1931295 0.1949403 0.1967136 0.1983985 0.1999457 0.2012913 0.2023823 0.2032103
 0.2038037 0.2041987 0.2044285 0.2045239 0.2045123 0.2044216 0.2042914 0.2041768 0.2041428 0.204248
 0.2045255 0.2049805 0.2056085 0.206401 0.2073254 0.2083186 0.2093172 0.21029 0.2112457 0.2122193
 0.2132519 0.2143802 0.2156492 0.2171297 0.2188948 0.2209715 0.2233179 0.2258427 0.2284306 0.2309572
 0.2332973 0.235341 0.237021 0.2383328 0.2393189 0.2400304 0.2405128 0.2408139 0.2409793 0.2410379
 0.2410015 0.2408702 0.2406344 0.2402864 0.2398332 0.2392867 0.2386529 0.2379473 0.2372058 0.2364617
 0.2357239 0.2349927 0.2342839 0.2336206 0.2330066 0.2324163 0.2318143 0.2311797 0.2305088 0.2297973
 0.2290353 0.2282146 0.2273185 0.2263102 0.2251602 0.223882 0.2225186 0.2210981 0.2196232 0.2180918
 0.2165094 0.2148859 0.213227 0.2115271 0.2097714 0.2079421 0.2060122 0.203943 0.2017231 0.1994127
 0.1971212 0.1949325 0.1928637 0.1908846 0.1889605 0.1870845 0.1852794 0.1835676 0.1819448 0.1803951
 0.1789184 0.1775265 0.1762249 0.1750126 0.1738926 0.172875 0.171973 0.1711924 0.170521 0.1699337
 0.1694089 0.1689319 0.1684972 0.1681187 0.1678228 0.1676084 0.1674241 0.1672021 0.1669059 0.1665433
 0.1661483 0.1657577 0.1653928 0.1650538 0.1647272 0.1643847 0.1639763 0.1634304 0.1626627 0.1615913
 0.1601659 0.1583961 0.1563562 0.1541703 0.1519935 0.1499771 0.1482267 0.1467919 0.1456768 0.1448318
 0.1441598 0.1435773 0.1430788 0.1427222 0.1425575 0.1425622 0.142624 0.1426041 0.1424556 0.1422758
 0.1422227 0.1423928 0.1427753 0.1432786 0.1437835 0.1442024 0.1445043 0.1446866 0.1447528 0.1447184
 0.1446007 0.1443979 0.1441044 0.1437356 0.143316 0.1428592 0.1423659 0.1418176 0.1411832 0.140459
 0.1396753 0.138844 0.1379401 0.1369351 0.1358001 0.1345073 0.1331153 0.1318385 0.1309581 0.1306493
 0.1308843 0.1314598 0.1321352 0.1327905 0.1333935 0.133804 0.1338075 0.1335046 0.13351 0.1345
 0.1365321 0.1389437 0.1409347 0.1421325 0.1425909 0.1424601 0.1418235 0.140734 0.1392092 0.1372235
 0.1348083 0.1320877 0.129172 0.1261497 0.1231906 0.1205045 0.1182092 0.1163257 0.1148294 0.1137305
 0.1131389 0.1127103 0.1106952 0.1048551 0.09593025 0.08918978 0.09000893 0.09782663 0.1065388 0.110965
 0.110987 0.1093837 0.1080468 0.1072384 0.1068559 0.1070504 0.1079578 0.1094304 0.1110519 0.1123855
 0.1132545 0.1137144 0.113754 0.1130618 0.1109745 0.106703 0.09996973 0.09158132 0.08315498 0.07616258
 0.07127006 0.06837291 0.06692244 0.06624535 0.06586508 0.06570891 0.06602101 0.06706411 0.06889463 0.07138528
 0.07435727 0.07756869 0.08062991 0.0831552 0.08506219 0.08656183 0.08781595 0.088756 0.08925113 0.0892945
 0.08898807 0.08845511 0.0877989 0.08707345 0.08624875 0.08523967 0.08404264 0.08285738 0.08198255 0.08154252
 0.081399 0.08135621 0.08133344 0.0813152 0.08127519 0.08119923 0.08110466 0.08103987 0.08110166 0.08138027
 0.08183819 0.08231349 0.08266597 0.08286997 0.08297631 0.08300431 0.08284507 0.08234665 0.08159266 0.08093984
 0.08056919 0.08015996 0.07929945 0.07811533 0.07720746 0.07698262 0.07728423 0.07765959 0.07778828 0.07763126
 0.07736476 0.07728495 0.07762908 0.07829898</values></Ydata></ScSm><ScRf><Ydata ylabel="Single channel"><values byteorder="INTEL" format="FLOAT32" numvalues="1820"> 0.06070441 0.06087634 0.06098086 0.06101187 0.0609942 0.0609795 0.06102578 0.06116171 0.06136283 0.06156287
 0.06169908 0.06175562 0.06175534 0.06171543 0.06164435 0.0615863 0.06162025 0.06178297 0.06201212 0.062186
 0.06222218 0.06215098 0.06209812 0.06216215 0.06228404 0.06226485 0.06195375 0.06141958 0.06090405 0.06059849
 0.06052694 0.06068566 0.06115751 0.06188752 0.06243329 0.0622786 0.06147489 0.06067571 0.06041062 0.06057791
 0.06074601 0.06066015 0.06032309 0.05989212 0.05972081 0.06026592 0.06163542 0.0632128 0.06387681 0.0627102
 0.05965975 0.05574205 0.05266159 0.05189271 0.05364376 0.05657273 0.05879363 0.05937716 0.05879223 0.05794671
 0.0572046 0.0565106 0.05603935 0.05623548 0.05720888 0.05831734 0.05850073 0.05719495 0.05499999 0.05324752
 0.05278107 0.05342851 0.05471687 0.0563887 0.05768441 0.05693119 0.05318639 0.04831984 0.04618259 0.04894891
 0.05479671 0.05968311 0.06093691 0.05876957 0.05512033 0.05204728 0.05092979 0.05209355 0.05477434 0.05775439
 0.06009131 0.06114763 0.0604286 0.05802171 0.05501767 0.05297711 0.05297184 0.05516855 0.05879629 0.06221537
 0.06366029 0.06254285 0.0598434 0.05707742 0.05529965 0.05510767 0.05679188 0.06003898 0.06390526 0.06735665
 0.06969039 0.07062034 0.07034659 0.06942704 0.06834986 0.06744209 0.06715889 0.06780982 0.06880929 0.06889421
 0.06749678 0.06550547 0.06435357 0.06453931 0.0652292 0.06527182 0.06436229 0.06286585 0.06068668 0.05723234
 0.05278316 0.04887093 0.0467517 0.04643903 0.04760838 0.05010054 0.05286383 0.05388509 0.05239404 0.05027704
 0.05021355 0.05281592 0.05630947 0.05869484 0.05960399 0.06015795 0.0615296 0.06374417 0.06553732 0.06531081
 0.0627121 0.0595153 0.05836539 0.0601842 0.06328604 0.06545398 0.06628168 0.06692572 0.06808274 0.06890264
 0.0678755 0.06463027 0.06088568 0.05937646 0.06146512 0.06577465 0.06919193 0.06916989 0.06543825 0.06005431
 0.05580431 0.05428019 0.05546432 0.05880044 0.06380592 0.06949967 0.07413922 0.0761918 0.07544544 0.07294394
 0.06979199 0.06612639 0.06167059 0.05742702 0.05590401 0.05875233 0.06465669 0.07042769 0.0738474 0.07478023
 0.07394208 0.0715404 0.06747767 0.06267093 0.05948631 0.05990495 0.06313629 0.06605977 0.06648678 0.06515872
 0.06415437 0.06430358 0.06486538 0.06511217 0.06537448 0.06647538 0.06854728 0.07070851 0.07191251 0.07190011
 0.07125215 0.07071634 0.07052606 0.07022457 0.0693058 0.06821643 0.06830935 0.07035963 0.07349733 0.07610053
 0.07742479 0.07787937 0.07794014 0.07730921 0.07534089 0.07225166 0.06962097 0.06922212 0.07130751 0.07444593
 0.07701041 0.07835217 0.0786562 0.07835103 0.07781287 0.07724592 0.07675222 0.07659568 0.07712919 0.07829032
 0.07949115 0.08020592 0.08039959 0.08026296 0.07984018 0.07911009 0.07825372 0.07765085 0.07760714 0.07812984
 0.078977 0.07987167 0.08059603 0.08095043 0.08082493 0.08035426 0.07984118 0.07948061 0.07928578 0.07927462
 0.07953687 0.08006258 0.0806542 0.0810902 0.08130001 0.08134033 0.08127455 0.0811263 0.08091663 0.08071325
 0.08063404 0.08076575 0.08105753 0.08135399 0.08157739 0.0818045 0.08209738 0.08234354 0.08237103 0.08217633
 0.08193851 0.08182608 0.08186457 0.08197871 0.08208124 0.08208725 0.0819072 0.08152504 0.08109975 0.08090296
 0.08109966 0.0816301 0.08231135 0.08296885 0.0834628 0.08371332 0.08376078 0.0837256 0.08367033 0.08355536
 0.08334547 0.08311421 0.08302386 0.08320267 0.08362647 0.08412684 0.0845283 0.08476114 0.08485463 0.08489244
 0.08498105 0.08517011 0.08537437 0.08545122 0.0853805 0.08530085 0.08534444 0.08548675 0.08558562 0.08554587
 0.08542666 0.08538215 0.08550234 0.08573212 0.08595179 0.08611069 0.08625985 0.08646044 0.08667597 0.08677953
 0.08669104 0.08648528 0.08631578 0.08624925 0.08624245 0.08627068 0.08638482 0.08660895 0.08685482 0.08699906
 0.08702025 0.0870114 0.08705628 0.08712824 0.08712886 0.08700608 0.08680937 0.0866384 0.08656374 0.08659355
 0.0866849 0.08677042 0.08679077 0.08672613 0.08660489 0.08647654 0.08637522 0.08631907 0.08634105 0.08648543
 0.08673944 0.08698311 0.08705561 0.08689874 0.08662226 0.0864072 0.08634201 0.08635756 0.08631589 0.0861464
 0.08589211 0.08564349 0.08545353 0.08531621 0.08520214 0.08509938 0.08503158 0.08504552 0.08516179 0.08531965
 0.08539186 0.08528847 0.0850435 0.08477897 0.08459623 0.08451983 0.0845173 0.08453706 0.08454686 0.08456367
 0.08462308 0.08470452 0.08472911 0.0846568 0.08454598 0.08449636 0.08456845 0.0847597 0.08500202 0.08517416
 0.08518165 0.08505373 0.08492278 0.08489177 0.08495445 0.0850478 0.08513567 0.08522027 0.0853084 0.08540227
 0.08551601 0.08567671 0.08590005 0.08616595 0.08641888 0.08660001 0.08669691 0.08676843 0.08690818 0.08716854
 0.08751573 0.08785896 0.08812529 0.08831239 0.08847257 0.08864833 0.0888368 0.08902545 0.08923816 0.08951284
 0.08984307 0.09017763 0.09047908 0.09075584 0.09103474 0.09132655 0.09162721 0.09194243 0.09230017 0.09272359
 0.0931812 0.09358142 0.09384477 0.09398183 0.09408857 0.09427416 0.09459084 0.09499493 0.09535913 0.09556818
 0.09563766 0.09570731 0.09588689 0.09614595 0.09639294 0.09662333 0.09692646 0.09735152 0.09782156 0.09820218
 0.09843276 0.09857288 0.09872623 0.09893107 0.09913196 0.09926027 0.09932525 0.09940065 0.09953104 0.09969835
 0.09989323 0.1001631 0.1005454 0.1009894 0.1013918 0.101693 0.1019009 0.1020483 0.1021615 0.1022533
 0.1023172 0.1023443 0.1023622 0.1024197 0.1025188 0.1026003 0.102623 0.1026232 0.1026707 0.1028018
 0.1030177 0.1033119 0.1036564 0.1039881 0.1042617 0.1045155 0.1048305 0.1052081 0.1055374 0.1057167
 0.1057664 0.1057783 0.1057966 0.1058117 0.1058474 0.1059753 0.1062326 0.1065775 0.1069442 0.1073064
 0.1076709 0.1080339 0.1083594 0.1085926 0.1086953 0.1086789 0.1086111 0.1085861 0.10868 0.1089139
 0.1092445 0.1095918 0.1098867 0.1100914 0.1101846 0.1101645 0.1100863 0.1100631 0.1101764 0.1103837
 0.1105432 0.1105331 0.1103234 0.1099432 0.1094234 0.1087915 0.108101 0.1074353 0.1068749 0.1064639
 0.106216 0.1061551 0.1063338 0.1067834 0.1074453 0.1081809 0.1088567 0.1093893 0.1097053 0.1097175
 0.1093878 0.1087867 0.1080554 0.1073177 0.1066402 0.1060348 0.1054677 0.1048998 0.1043682 0.1040252
 0.1040669 0.1046163 0.1056628 0.1070719 0.1086278 0.1101005 0.1113347 0.1123084 0.1131046 0.1138181
 0.1144953 0.1151526 0.1158127 0.1164855 0.1171329 0.1176975 0.1181679 0.1185852 0.1189856 0.1193639
 0.1196935 0.1199578 0.1201687 0.1203656 0.1205802 0.1207863 0.1209099 0.1209083 0.1208165 0.1206979
 0.1205717 0.1204039 0.1201478 0.119782 0.11934 0.1189369 0.1187573 0.118977 0.1196604 0.1207199
 0.1219808 0.1232918 0.1245656 0.12573 0.1266922 0.1273862 0.127834 0.1281302 0.1283763 0.1286371
 0.1289356 0.1292598 0.1295791 0.1298718 0.1301418 0.1304152 0.130722 0.1310711 0.1314308 0.131747
 0.1319945 0.132209 0.132461 0.1327944 0.1331865 0.1335713 0.1339098 0.1342248 0.1345496 0.1348626
 0.1351097 0.1352848 0.1354475 0.1356632 0.1359581 0.1363208 0.1367087 0.1370521 0.137296 0.1374509
 0.137582 0.1377461 0.1379558 0.1381983 0.1384613 0.1387312 0.138991 0.1392413 0.1395109 0.139822
 0.1401447 0.1404105 0.1405835 0.1407029 0.140843 0.1410415 0.1412759 0.1415012 0.1416993 0.1418974
 0.1421396 0.1424372 0.1427462 0.1430019 0.1431757 0.1432961 0.1434175 0.1435767 0.1437782 0.1440059
 0.1442387 0.1444571 0.1446519 0.1448326 0.1450232 0.1452404 0.1454751 0.1457031 0.1459112 0.1461082
 0.1463099 0.1465227 0.1467464 0.1469889 0.1472646 0.1475688 0.1478634 0.1481009 0.1482661 0.1483865
 0.1485038 0.1486436 0.1488098 0.1489947 0.1491874 0.1493807 0.1495748 0.1497739 0.1499809 0.1501939
 0.1504081 0.1506186 0.1508236 0.1510246 0.151227 0.1514398 0.1516691 0.1519074 0.1521346 0.1523353
 0.1525136 0.1526887 0.1528765 0.1530784 0.1532834 0.1534796 0.153665 0.1538493 0.1540417 0.1542419
 0.1544428 0.1546393 0.1548302 0.1550159 0.155198 0.155382 0.1555753 0.1557812 0.155995 0.1562084
 0.156415 0.1566124 0.1568018 0.1569886 0.1571806 0.1573814 0.1575876 0.1577945 0.1579998 0.1582022
 0.1584 0.1585929 0.158782 0.1589685 0.1591543 0.1593421 0.1595351 0.1597356 0.1599433 0.1601538
 0.1603624 0.1605689 0.1607761 0.1609864 0.1612008 0.1614183 0.1616357 0.1618498 0.1620596 0.1622631
 0.1624591 0.1626564 0.1628705 0.1631046 0.1633433 0.16357 0.1637815 0.163985 0.1641887 0.1643942
 0.1645944 0.1647803 0.1649525 0.1651196 0.1652902 0.1654683 0.1656519 0.1658326 0.1660029 0.1661679
 0.1663415 0.1665325 0.1667388 0.1669507 0.1671568 0.1673527 0.167547 0.1677507 0.1679638 0.1681761
 0.1683779 0.1685681 0.168757 0.1689602 0.1691833 0.169416 0.1696446 0.169861 0.1700631 0.170256
 0.1704523 0.1706592 0.1708711 0.1710816 0.1712906 0.1714976 0.1717023 0.1719101 0.1721252 0.1723441
 0.172563 0.1727801 0.1729895 0.1731869 0.1733795 0.173579 0.1737905 0.1740147 0.1742467 0.174473
 0.1746845 0.1748868 0.1750887 0.1752916 0.1754967 0.1757053 0.1759138 0.1761222 0.176339 0.1765619
 0.1767775 0.1769834 0.1771879 0.1773808 0.1775134 0.1774599 0.1769226 0.1753295 0.1718281 0.165465
 0.1555748 0.1422103 0.1262691 0.1091718 0.09234913 0.07688227 0.06340283 0.05217566 0.04324383 0.03652756
 0.03187988 0.0291688 0.02837077 0.02968262 0.03364594 0.04082615 0.05058584 0.05999736 0.06498116 0.06352783
 0.05761854 0.05141855 0.04781336 0.04700857 0.04776911 0.04903857 0.05048119 0.05228787 0.05479007 0.05808739
 0.06202981 0.06661937 0.07220504 0.07904154 0.08676138 0.09452949 0.1017644 0.1085973 0.1155826 0.1230335
 0.1306967 0.1380054 0.1445329 0.1501992 0.1551765 0.1596958 0.163922 0.1679382 0.1717847 0.1754504
 0.1787972 0.181535 0.1833586 0.184175 0.1842145 0.1839054 0.1836213 0.183529 0.1836347 0.1839058
 0.1843257 0.1848811 0.1855505 0.1863068 0.1871201 0.1879638 0.188817 0.1896551 0.1904477 0.1911758
 0.1918426 0.1924597 0.1930337 0.1935638 0.1940459 0.1944793 0.1948748 0.1952495 0.1956109 0.1959566
 0.1962877 0.1966102 0.1969229 0.1972144 0.1974739 0.1977017 0.1979109 0.1981199 0.1983386 0.1985628
 0.1987834 0.198996 0.1992001 0.1993974 0.1995928 0.1997902 0.1999898 0.2001913 0.2003951 0.2005981
 0.2007961 0.2009903 0.2011856 0.2013827 0.20158 0.2017774 0.2019715 0.2021571 0.2023379 0.2025267
 0.202729 0.2029361 0.2031375 0.2033305 0.2035195 0.203714 0.2039216 0.2041386 0.2043545 0.2045654
 0.2047741 0.2049814 0.2051879 0.2053984 0.2056108 0.2058097 0.2059821 0.206138 0.2063067 0.2065097
 0.2067407 0.2069722 0.2071857 0.2073879 0.2075926 0.207798 0.2079882 0.2081513 0.2082966 0.2084606
 0.2086818 0.2089569 0.2092395 0.2094948 0.2097297 0.2099629 0.210199 0.2104379 0.2106733 0.2108769
 0.2110222 0.2111347 0.2112916 0.2115561 0.2119144 0.212283 0.2125856 0.2128192 0.213035 0.2132769
 0.2135559 0.2138409 0.214039 0.2140561 0.2139444 0.213928 0.2142008 0.2147329 0.2153271 0.2158214
 0.2161874 0.2164766 0.2167335 0.2169539 0.2170926 0.2171136 0.2170643 0.2170989 0.2173733 0.2178821
 0.218449 0.2189072 0.2192308 0.2194699 0.2196584 0.2198137 0.2199003 0.2197733 0.2193345 0.2188105
 0.2186903 0.2192524 0.2202467 0.2211601 0.2217239 0.222051 0.2223396 0.2226313 0.2228692 0.2229512
 0.2226252 0.221631 0.2202103 0.2192469 0.2195392 0.2209994 0.2228028 0.2242128 0.2250431 0.225475
 0.2257393 0.2259634 0.2260745 0.2258035 0.2249824 0.2239493 0.2234715 0.2240399 0.2253178 0.2265042
 0.2271564 0.2274301 0.2276477 0.2279327 0.2281252 0.2277469 0.2262736 0.2239096 0.2219737 0.2219727
 0.2241313 0.2271236 0.2293827 0.2304437 0.2308284 0.2308989 0.2303211 0.2286741 0.2261006 0.2232422
 0.2210208 0.2205075 0.2222226 0.2252524 0.2277602 0.2287942 0.229095 0.2298815 0.2313944 0.2328997
 0.2336319 0.2333888 0.2324122 0.2309665 0.2292045 0.2275441 0.226909 0.2280796 0.2307406 0.2335857
 0.2355216 0.2364976 0.2369406 0.2364822 0.2337039 0.2278439 0.2209311 0.2172222 0.2194493 0.2259668
 0.232522 0.2364394 0.2380862 0.2388723 0.2393484 0.2390611 0.2368253 0.2313743 0.2233712 0.2166701
 0.2157065 0.2211079 0.2289816 0.2345484 0.2353869 0.2316754 0.2253402 0.2194931 0.2171642 0.2194668
 0.2251076 0.2316646 0.2370421 0.2400546 0.2404216 0.238655 0.2360291 0.2342724 0.234309 0.2348918
 0.233556 0.2297326 0.2256963 0.2232376 0.2209116 0.2167259 0.2125114 0.2127165 0.2186142 0.2261593
 0.2305259 0.2309945 0.23009 0.2289898 0.2255255 0.2173132 0.2062735 0.1987374 0.1999139 0.2084763
 0.2177394 0.222203 0.2219247 0.2205742 0.2205474 0.2205217 0.2173145 0.2100288 0.2022079 0.198876
 0.2012025 0.205455 0.2074338 0.2058356 0.2008213 0.1926685 0.184157 0.1814558 0.1889456 0.2038759
 0.2184983 0.2264419 0.2250776 0.2141708 0.1967775 0.181101 0.1765192 0.1852032 0.199482 0.2088842
 0.2084621 0.1997296 0.1861938 0.1709194 0.1579231 0.1526812 0.1588834 0.1746648 0.1925588 0.2032029
 0.2005489 0.1865915 0.1717981 0.1675951 0.1759669 0.1880514 0.1940328 0.1920322 0.1867886 0.1835721
 0.1851349 0.1911304 0.1984816 0.2043012 0.2082088 0.2090921 0.2020174 0.1841604 0.1626663 0.1499314
 0.1507351 0.1598325 0.1718597 0.1861316 0.2001289 0.2062225 0.2002714 0.1894481 0.186103 0.1946519
 0.2078107 0.2154983 0.2148092 0.2105224 0.2077556 0.2065365 0.2043406 0.2019634 0.203741 0.2115504
 0.2215181 0.2283473 0.2308386 0.2313991 0.2319716 0.2325573 0.2326032 0.2319065 0.2305418 0.2289917
 0.2279938 0.2277168 0.2276029 0.2272023 0.2261631 0.2229879 0.2153545 0.2033797 0.1916853 0.1857338
 0.1860418 0.1885698 0.1907376 0.1929314 0.1928911 0.1841224 0.1644676 0.1431493 0.1340534 0.1423085
 0.1604739 0.177038 0.1852345 0.1836272 0.1726941 0.1550539 0.138193 0.1320839 0.1410398 0.1595823
 0.1783034 0.1919613 0.2000124 0.2020971 0.1970967 0.1863644 0.1749723 0.1687962 0.1709662 0.1805162
 0.1926723 0.200039 0.196243 0.182302 0.1693875 0.170533 0.1869372 0.2059278 0.2152075 0.2152868
 0.2143933 0.2156897 0.2157604 0.2136499 0.2144277 0.2222686 0.2343237 0.2435295 0.2448119 0.2370907
 0.222599 0.2073564 0.1995936 0.2031231 0.2129295 0.2205487 0.2222076 0.2183452 0.2086554 0.1941394
 0.1823125 0.182688 0.1957662 0.2118167 0.2219232 0.2261032 0.2292404 0.23268 0.2325873 0.225747
 0.2149248 0.2071488 0.2067637 0.2116556 0.216863 0.219807 0.2203052 0.2176153 0.210906 0.2026535
 0.1986585 0.2030075 0.2138288 0.2250133 0.2316482 0.2330826 0.2315239 0.2291621 0.2266818 0.2234225
 0.218855 0.2144968 0.2136059 0.2177041 0.2241591 0.2288928 0.2310448 0.2332492 0.2374944 0.2423881
 0.2448576 0.2435049 0.2399334 0.2373508 0.2380015 0.2413864 0.2446283 0.2449218 0.2422028 0.239458
 0.2399707 0.2441863 0.2496462 0.2537841 0.2560167 0.2572196 0.2582285 0.2591095 0.2591024 0.2571918
 0.2535421 0.2503456 0.250271 0.2538145 0.2588285 0.2627465 0.2646638 0.2651972 0.2650694 0.2643474
 0.2628623 0.2609065 0.2592582 0.2585611 0.2588547 0.259735 0.2607802 0.2617321 0.262463 0.2629533
 0.2632667 0.2634663 0.2635829 0.263661 0.2637411 0.2637802 0.2636965 0.2635362 0.2634975 0.2637137
 0.2640799 0.2643622 0.2644112 0.264182 0.2636146 0.2626469 0.2613461 0.2598933 0.2583847 0.2567613
 0.2550508 0.2536425 0.2531764 0.2540572 0.2560744 0.258531 0.2607296 0.2623261 0.2633168 0.2638446
 0.264071 0.2641358 0.2641283 0.2640686 0.2639385 0.2637284 0.2634475 0.2631058 0.2627119 0.2622946
 0.2619045 0.261582 0.2613245 0.2610884 0.2608144 0.2604529 0.2599854 0.2594372 0.2588558 0.2582596
 0.2576135 0.2568648 0.2559987 0.2550557 0.2541094 0.2532296 0.2524406 0.2516993 0.2509286 0.2500792
 0.2491401 0.2480987 0.2469476 0.2457558 0.2446735 0.2438157 0.2431586 0.2425744 0.2419398 0.2411892
 0.2403073 0.2393202 0.238282 0.2372341 0.236174 0.2350712 0.2338999 0.2326478 0.2313087 0.2298819
 0.2283728 0.226792 0.2251609 0.2235081 0.2218343 0.2200711 0.218088 0.2157449 0.2129349 0.2095922
 0.2056956 0.2012929 0.1965203 0.1915797 0.1866796 0.1819886 0.1776354 0.1737316 0.1703742 0.1676293
 0.1655287 0.1640891 0.1633307 0.1632773 0.1639392 0.1652898 0.1672495 0.1696917 0.1724697 0.1754337
 0.1784281 0.1812983 0.183932 0.1863109 0.1885031 0.1905832 0.192559 0.1943849 0.1960258 0.197477
 0.1987312 0.1997718 0.2006089 0.2012948 0.2018863 0.202405 0.2028429 0.2031958 0.2034809 0.2037251
 0.2039445 0.2041422 0.2043214 0.2044935 0.2046714 0.204866 0.2050964 0.2053969 0.2058002 0.2063047
 0.2068629 0.2074152 0.2079426 0.2084794 0.2090715 0.2097353 0.2104682 0.2112892 0.2122437 0.2133639
 0.2146321 0.2159887 0.2173647 0.2186936 0.2198986 0.2208976 0.2216387 0.2221244 0.2223967 0.2225017
 0.2224697 0.2223139 0.2220403 0.221662 0.2212014 0.2206774 0.2201008 0.2194822 0.2188343 0.2181611
 0.2174606 0.2167422 0.2160278 0.2153305 0.2146472 0.2139793 0.2133428 0.2127461 0.2121677 0.2115732
 0.2109541 0.2103369 0.2097545 0.2092131 0.2086876 0.208135 0.2075093 0.2067765 0.2059301 0.2049871
 0.2039612 0.2028443 0.2016252 0.2003186 0.1989585 0.1975582 0.1960916 0.1945236 0.1928537 0.1911106
 0.1893035 0.1874062 0.1854075 0.1833623 0.1813693 0.1795034 0.1777852 0.1761987 0.1747146 0.1733046
 0.171956 0.1706722 0.1694553 0.1682971 0.1671919 0.1661444 0.1651592 0.1642312 0.1633529 0.1625313
 0.1617918 0.1611568 0.1606215 0.1601582 0.1597421 0.1593676 0.1590543 0.1588459 0.1587797 0.1588391
 0.1589476 0.1590223 0.1590198 0.1589377 0.1587983 0.1586364 0.1584847 0.1583652 0.1582881 0.1582335
 0.1581301 0.1578694 0.1573467 0.156492 0.1552855 0.1537643 0.1520107 0.1501365 0.1482756 0.1465611
 0.145087 0.1438974 0.1430016 0.1423651 0.1418998 0.1415118 0.1411743 0.1409463 0.1409167 0.1411076
 0.1414065 0.1416278 0.1416862 0.1416863 0.1418203 0.1422104 0.1428501 0.1436327 0.1444133 0.1450816
 0.1455916 0.1459376 0.1461424 0.1462582 0.146321 0.1463083 0.1461852 0.1459629 0.1456798 0.1453601
 0.1450078 0.144602 0.1441053 0.143509 0.1428435 0.142129 0.1413575 0.1405094 0.1395342 0.1383726
 0.1370882 0.1359327 0.1352035 0.1350604 0.1354753 0.1362808 0.1372772 0.1383484 0.1394173 0.1402728
 0.1406394 0.1405811 0.1407003 0.1417033 0.1437322 0.1462163 0.1483847 0.1498248 0.1505323 0.1506173
 0.1501531 0.1492023 0.1477767 0.1458136 0.1433156 0.1404245 0.1373023 0.1340938 0.1310145 0.1282872
 0.1260033 0.1241525 0.122705 0.1216945 0.1212727 0.1210873 0.1192219 0.1132068 0.1038382 0.09686334
 0.0981185 0.1069491 0.1166826 0.1216724 0.1217786 0.120025 0.1185025 0.1175319 0.1170002 0.1170424
 0.1177891 0.1191054 0.1206046 0.1218683 0.1227008 0.1231161 0.1230735 0.1222384 0.1198984 0.1151968
 0.1078262 0.09864959 0.08941374 0.08172812 0.07633808 0.07313864 0.07151977 0.07072044 0.07020253 0.06990917
 0.07015628 0.07124266 0.07318977 0.0758318 0.0789974 0.0824561 0.0857915 0.08857999 0.09072673 0.0924479
 0.09390406 0.0950093 0.09560531 0.09566501 0.09529191 0.09463259 0.09383091 0.09298786 0.09209579 0.09105057
 0.08982548 0.08863483 0.08780641 0.08745608 0.08739847 0.08739853 0.08737795 0.0873558 0.08733341 0.08729054
 0.08722455 0.08718467 0.08728354 0.08761011 0.08810502 0.08858477 0.08890302 0.08905147 0.08911403 0.08912069
 0.08892833 0.08834637 0.08746457 0.08667264 0.08616259 0.08560106 0.08457354 0.08322752 0.08218449 0.08186002
 0.0820985 0.08244714 0.08257778 0.08243165 0.08217068 0.08209771 0.08246106 0.08315591 0.08370074 0.08368152
</values></Ydata></ScRf><Data_Parameters_AB><parameter name="DPF">1</parameter><parameter name="NPT">3497</parameter><parameter name="FXV">3996</parameter><parameter name="LXV">500</parameter><parameter name="CSF">1</parameter><parameter name="MXY">0.233975633978844</parameter><parameter name="MNY">-0.0723110437393188</parameter><parameter name="DAT">01/06/2022</parameter><parameter name="TIM">11:45:22.516 (GMT+2)</parameter><parameter name="DXU">WN</parameter></Data_Parameters_AB><AB__Qtest><MainReport name="Quality Test Report"><Header><Line><Legend>Test result ok/not ok [1/0]: </Legend><Value>0</Value></Line><Line><Legend>Method file: </Legend><Value>C:\Users\Public\Documents\Bruker\OPUS_8.2.28\QT\IRBT_v3_default.QT</Value></Line></Header><Matrix><Line><Legend></Legend><Legend>min</Legend><Legend>max</Legend><Legend>measured</Legend></Line><Line><Value>Absorption (X-Range 1):</Value><Value>0.400000</Value><Value>2.000000</Value><Value>0.208850</Value></Line><Line><Value>Noise (X-Range 4):</Value><Value></Value><Value>0.000300</Value><Value>0.000052</Value></Line><Line><Value>Signal/Noise (X-Range 2):</Value><Value>200.000000</Value><Value></Value><Value>60.032518</Value></Line><Line><Value>Signal/Noise (X-Range 3):</Value><Value>40.000000</Value><Value></Value><Value>35.261532</Value></Line><Line><Value>Water vapour (X-Range 5):</Value><Value></Value><Value>0.000300</Value><Value>0.000064</Value></Line><Line><Value>Signal/Water (X-Range 2):</Value><Value>100.000000</Value><Value></Value><Value>48.702439</Value></Line><Line><Value>Signal/Water (X-Range 3):</Value><Value>20.000000</Value><Value></Value><Value>28.606540</Value></Line><Line><Value>Fringes (X-Range 6):</Value><Value></Value><Value>0.000100</Value><Value>0.000057</Value></Line></Matrix></MainReport></AB__Qtest><Data_Parameters_ScSm><parameter name="DPF">1</parameter><parameter name="NPT">1814</parameter><parameter name="FXV">3996.33169228125</parameter><parameter name="LXV">499.541461535156</parameter><parameter name="CSF">1</parameter><parameter name="MXY">0.284868836402893</parameter><parameter name="MNY">0.0331603065133095</parameter><parameter name="DAT">01/06/2022</parameter><parameter name="TIM">11:45:22.516 (GMT+2)</parameter><parameter name="DXU">WN</parameter></Data_Parameters_ScSm><Data_Parameters_ScRf><parameter name="DPF">1</parameter><parameter name="NPT">1820</parameter><parameter name="FXV">4004.04661832813</parameter><parameter name="LXV">495.683998511719</parameter><parameter name="CSF">1</parameter><parameter name="MXY">0.265197217464447</parameter><parameter name="MNY">0.0283707715570927</parameter><parameter name="DAT">01/06/2022</parameter><parameter name="TIM">11:44:56.663 (GMT+2)</parameter><parameter name="DXU">WN</parameter></Data_Parameters_ScRf><Optic_Parameters_Rf><parameter name="APR">0</parameter><parameter name="APT">Open</parameter><parameter name="BMS">KBr</parameter><parameter name="DTC">RT-DLaTGS_IR-Biotyper [Microplate reader]</parameter><parameter name="HPF">0</parameter><parameter name="LPF">10.0</parameter><parameter name="LPV">4000</parameter><parameter name="PGR">0</parameter><parameter name="RCH">Module port</parameter><parameter name="RDX">0</parameter><parameter name="SRC">MIR</parameter><parameter name="VEL">10.0</parameter><parameter name="SON">Off</parameter></Optic_Parameters_Rf><Acquisition_Parameters_Rf><parameter name="ADT">1</parameter><parameter name="AQM">DD</parameter><parameter name="CFE">0</parameter><parameter name="COR">0</parameter><parameter name="DEL">0</parameter><parameter name="DLY">0</parameter><parameter name="HFW">8000</parameter><parameter name="LFW">0</parameter><parameter name="NSR">32</parameter><parameter name="PLF">AB</parameter><parameter name="RES">6</parameter><parameter name="RGN">-1</parameter><parameter name="STR">0</parameter><parameter name="TCL">MakeCompatibleScalar (0, {WSV=1.000000, ARV=0});</parameter><parameter name="TDL">37</parameter><parameter name="RPO">0</parameter></Acquisition_Parameters_Rf><FT_-_Parameters_Rf><parameter name="APF">B3</parameter><parameter name="HFQ">500</parameter><parameter name="LFQ">4000</parameter><parameter name="NLI">0</parameter><parameter name="PHR">24</parameter><parameter name="PHZ">ML</parameter><parameter name="SPZ">NO</parameter><parameter name="ZFF">1</parameter></FT_-_Parameters_Rf><Optic_Parameters_><parameter name="APR">0</parameter><parameter name="APT">Open</parameter><parameter name="BMS">KBr</parameter><parameter name="CHN">Module port</parameter><parameter name="DTC">RT-DLaTGS_IR-Biotyper [Microplate reader]</parameter><parameter name="HPF">0</parameter><parameter name="LPF">10.0</parameter><parameter name="LPV">4000</parameter><parameter name="PGN">0</parameter><parameter name="RDX">0</parameter><parameter name="SRC">MIR</parameter><parameter name="VEL">10.0</parameter><parameter name="SON">Off</parameter></Optic_Parameters_><FT_-_Parameters_><parameter name="APF">B3</parameter><parameter name="HFQ">500</parameter><parameter name="LFQ">4000</parameter><parameter name="NLI">0</parameter><parameter name="PHR">24</parameter><parameter name="PHZ">ML</parameter><parameter name="SPZ">NO</parameter><parameter name="ZFF">1</parameter></FT_-_Parameters_><Acquisition_Parameters_><parameter name="ADT">1</parameter><parameter name="AQM">DD</parameter><parameter name="CFE">0</parameter><parameter name="COR">0</parameter><parameter name="DEL">0</parameter><parameter name="DLY">0</parameter><parameter name="HFW">8000</parameter><parameter name="LFW">0</parameter><parameter name="NSS">32</parameter><parameter name="PLF">AB</parameter><parameter name="RES">6</parameter><parameter name="SOT">0</parameter><parameter name="TCL">MakeCompatibleScalar (0, {WSV=1.000000, ARV=0});</parameter><parameter name="TDL">37</parameter><parameter name="SPO">0</parameter><parameter name="SGN">-1</parameter></Acquisition_Parameters_><Instrument_Parameters_Rf><parameter name="HFL">15800.168544</parameter><parameter name="LFL">0</parameter><parameter name="LWN">15800.168544</parameter><parameter name="ABP">32197</parameter><parameter name="SSP">1</parameter><parameter name="ARG">2</parameter><parameter name="ASG">2</parameter><parameter name="ASS">32</parameter><parameter name="GFW">16</parameter><parameter name="GBW">16</parameter><parameter name="BFW">0</parameter><parameter name="BBW">0</parameter><parameter name="PKA">7310</parameter><parameter name="PKL">4990</parameter><parameter name="PRA">7479</parameter><parameter name="PRL">5001</parameter><parameter name="P2A">1</parameter><parameter name="P2L">1</parameter><parameter name="P2R">1</parameter><parameter name="P2K">1</parameter><parameter name="DAQ">0</parameter><parameter name="AG2">1</parameter><parameter name="SSM">1</parameter><parameter name="RSN">25937</parameter><parameter name="CRR">0</parameter><parameter name="SRT">1654083896.663</parameter><parameter name="DUR">19.6399993896484</parameter><parameter name="TSC">29</parameter><parameter name="MVD">0.213124006986618</parameter><parameter name="AN1">0.225814860490632</parameter><parameter name="AN2">0</parameter><parameter name="VSN">2.485 Apr  4 2017</parameter><parameter name="SRN">0085</parameter><parameter name="CAM">0</parameter><parameter name="INS">IR-Biotyper</parameter><parameter name="FOC">69</parameter><parameter name="RDY">1</parameter><parameter name="ARS">32</parameter></Instrument_Parameters_Rf><Sample_Parameters_><parameter name="BLD"></parameter><parameter name="CNM">Admin</parameter><parameter name="CPY"></parameter><parameter name="DPM"></parameter><parameter name="EXP">IRBT_v3_32Scans.XPM</parameter><parameter name="LCT"></parameter><parameter name="SFM">Microplate, HTS-XT</parameter><parameter name="SNM">220601-1028(v.3)_RTF49M (D_12)_C7_c9b5e95a-438b-492d-b164-47329ebd5775.0</parameter><parameter name="XPP">C:\Users\Public\Documents\Bruker\OPUS_8.2.28\XPM</parameter><parameter name="IST">OK</parameter><parameter name="CPG">1252</parameter><parameter name="UID">21452ac6-f373-4593-a0a8-87790d1e1b63</parameter></Sample_Parameters_><Instrument_Parameters_><parameter name="HFL">15800.168544</parameter><parameter name="LFL">0</parameter><parameter name="LWN">15800.168544</parameter><parameter name="ABP">32197</parameter><parameter name="SSP">1</parameter><parameter name="ASG">2</parameter><parameter name="ARG">2</parameter><parameter name="ASS">32</parameter><parameter name="GFW">16</parameter><parameter name="GBW">16</parameter><parameter name="BFW">0</parameter><parameter name="BBW">0</parameter><parameter name="PKA">7571</parameter><parameter name="PKL">4988</parameter><parameter name="PRA">7831</parameter><parameter name="PRL">4993</parameter><parameter name="P2A">1</parameter><parameter name="P2L">1</parameter><parameter name="P2R">1</parameter><parameter name="P2K">1</parameter><parameter name="DAQ">0</parameter><parameter name="AG2">1</parameter><parameter name="SSM">1</parameter><parameter name="RSN">13594</parameter><parameter name="CRR">0</parameter><parameter name="SRT">1654083922.517</parameter><parameter name="DUR">19.6389923095703</parameter><parameter name="TSC">29</parameter><parameter name="MVD">1.45917689800262</parameter><parameter name="AN1">0.225814502067761</parameter><parameter name="AN2">0</parameter><parameter name="VSN">2.485 Apr  4 2017</parameter><parameter name="SRN">0085</parameter><parameter name="CAM">0</parameter><parameter name="INS">IR-Biotyper</parameter><parameter name="FOC">69</parameter><parameter name="RDY">1</parameter></Instrument_Parameters_><History/></OPUSDataFile>
