<?xml version="1.0" encoding="UTF-8" ?>
<OPUSDataFile><AB><Ydata ylabel="Absorbance Units"><values byteorder="INTEL" format="FLOAT32" numvalues="3497"> -0.05757989 -0.05753133 -0.05749143 -0.05746048 -0.05743424 -0.05741248 -0.05738837 -0.05736226 -0.0573359 -0.05731109
 -0.0572994 -0.05730145 -0.05732694 -0.057372 -0.05743317 -0.05750502 -0.05757665 -0.05764661 -0.05770903 -0.05776442
 -0.05781306 -0.05784979 -0.05787291 -0.05787518 -0.05785156 -0.05780714 -0.05773946 -0.05766933 -0.05759894 -0.05754919
 -0.05752297 -0.05752364 -0.0575515 -0.0575895 -0.05763637 -0.0576701 -0.05769214 -0.05769822 -0.05769382 -0.0576966
 -0.05770925 -0.05775006 -0.05781085 -0.05788893 -0.0579697 -0.05803361 -0.05807743 -0.0580882 -0.05808083 -0.0580595
 -0.05803761 -0.0580246 -0.05801121 -0.05799833 -0.0579684 -0.05791648 -0.05784872 -0.05776376 -0.05769009 -0.05762925
 -0.05759824 -0.05759585 -0.05760918 -0.05763622 -0.0576568 -0.05767419 -0.05768954 -0.05770698 -0.0577394 -0.05778262
 -0.05783659 -0.05789384 -0.0579437 -0.05798772 -0.05802253 -0.05805454 -0.0580889 -0.05812017 -0.0581499 -0.05816194
 -0.05815061 -0.05811568 -0.05805316 -0.05798968 -0.05792646 -0.0578978 -0.05790576 -0.05796655 -0.05807872 -0.05822758
 -0.05840693 -0.05857221 -0.05871791 -0.05879599 -0.05881502 -0.05876743 -0.05867379 -0.05856597 -0.05845558 -0.05837134
 -0.05830843 -0.05827511 -0.05825506 -0.05824238 -0.05822175 -0.05818325 -0.05813103 -0.05806136 -0.05799686 -0.05794118
 -0.05790715 -0.05789806 -0.0578976 -0.05790504 -0.05789634 -0.05787221 -0.05783759 -0.05779692 -0.05778173 -0.05779263
 -0.05785201 -0.05795009 -0.05807745 -0.0582174 -0.05833608 -0.05842754 -0.05846683 -0.05846858 -0.05843539 -0.05838367
 -0.05832342 -0.0582638 -0.05820779 -0.05817165 -0.0581576 -0.05819009 -0.05827446 -0.05842085 -0.05863443 -0.05887524
 -0.05914194 -0.05931024 -0.05937675 -0.059258 -0.05897641 -0.05863801 -0.0582592 -0.05796126 -0.05773533 -0.05762004
 -0.0576013 -0.05767779 -0.05782372 -0.05801549 -0.05821217 -0.05837252 -0.05847204 -0.05847525 -0.0584137 -0.05828438
 -0.05814745 -0.0580203 -0.05792934 -0.05788473 -0.05787407 -0.05789778 -0.05793597 -0.05798744 -0.05804176 -0.05809865
 -0.05815327 -0.05820521 -0.05824931 -0.05828501 -0.05830827 -0.05831712 -0.0583056 -0.05826986 -0.05819792 -0.05809497
 -0.05795686 -0.05780621 -0.05765801 -0.05753598 -0.05745988 -0.05743432 -0.05746962 -0.05754667 -0.05766534 -0.05779442
 -0.05792927 -0.05804423 -0.05813614 -0.05818903 -0.05820167 -0.05816752 -0.05808746 -0.05797467 -0.05783205 -0.0576856
 -0.05753651 -0.0574028 -0.05728464 -0.05719074 -0.05712257 -0.05708777 -0.05708376 -0.05711452 -0.05716473 -0.05722627
 -0.05727691 -0.05729939 -0.05728908 -0.0572349 -0.05716113 -0.05706991 -0.05699247 -0.05693623 -0.0569087 -0.05691283
 -0.0569337 -0.05697059 -0.05701019 -0.05705233 -0.05709424 -0.05713586 -0.05717575 -0.05721283 -0.05724126 -0.05726185
 -0.05727266 -0.05727746 -0.05728218 -0.05728924 -0.05730419 -0.05732743 -0.05735952 -0.05740562 -0.05746787 -0.05755352
 -0.05766904 -0.05780546 -0.05796677 -0.05811687 -0.05825102 -0.05833627 -0.05836681 -0.05834465 -0.05826955 -0.05814601
 -0.05797436 -0.05775578 -0.05749627 -0.05723704 -0.05698615 -0.05680091 -0.05667746 -0.05663981 -0.05666854 -0.05674481
 -0.05684025 -0.05690737 -0.05694342 -0.05692184 -0.05687463 -0.05681421 -0.0567617 -0.05673277 -0.05671952 -0.05672564
 -0.05672649 -0.05671838 -0.05668246 -0.05661465 -0.05652256 -0.05640597 -0.056295 -0.05619137 -0.05612724 -0.05610208
 -0.05613141 -0.05620663 -0.05630599 -0.05641238 -0.05646488 -0.05646529 -0.05637934 -0.05624059 -0.0560803 -0.05591613
 -0.05578139 -0.05565874 -0.0555487 -0.05542891 -0.05528577 -0.05512502 -0.05494186 -0.05476424 -0.05459737 -0.05445509
 -0.05434124 -0.05424287 -0.05415966 -0.05406657 -0.05396304 -0.05383819 -0.05369523 -0.05355291 -0.05341328 -0.05329591
 -0.0531975 -0.0531183 -0.05305669 -0.05301035 -0.05297729 -0.0529582 -0.05293906 -0.05291196 -0.05285322 -0.05274341
 -0.05257924 -0.0523503 -0.05207834 -0.05176853 -0.05143109 -0.05106889 -0.05068468 -0.05027782 -0.04986453 -0.04944572
 -0.0490378 -0.04864137 -0.04826603 -0.04791273 -0.04759386 -0.0473091 -0.04706641 -0.04685939 -0.04667553 -0.04650801
 -0.04633664 -0.04616294 -0.04598331 -0.04579277 -0.0455933 -0.04535631 -0.04506307 -0.04470127 -0.04424981 -0.04375505
 -0.04322374 -0.04270329 -0.04220585 -0.04174407 -0.04132186 -0.04093218 -0.04057508 -0.04023288 -0.03990492 -0.03957917
 -0.03925692 -0.0389444 -0.03863975 -0.03834377 -0.03804248 -0.03769641 -0.0372989 -0.03680636 -0.03625341 -0.03566509
 -0.03507689 -0.03453754 -0.03404007 -0.03359925 -0.03318376 -0.0327851 -0.03237458 -0.03193882 -0.03147936 -0.03099102
 -0.03050287 -0.03001828 -0.02955321 -0.0291098 -0.02866723 -0.02822401 -0.02774736 -0.02723915 -0.0266976 -0.02612868
 -0.02555756 -0.02498684 -0.02443671 -0.02390622 -0.02340398 -0.02292505 -0.02246923 -0.02202388 -0.02157674 -0.02112173
 -0.02064716 -0.02016737 -0.01968688 -0.01921257 -0.01875362 -0.01827985 -0.01778773 -0.01724713 -0.01664929 -0.01602795
 -0.01538379 -0.01478292 -0.01422683 -0.01373275 -0.01329518 -0.01287901 -0.01247865 -0.01204936 -0.01159417 -0.01109447
 -0.01056544 -0.01002639 -0.009491676 -0.008993848 -0.008523732 -0.00809283 -0.007662466 -0.007212789 -0.00671188 -0.00613096
 -0.005496859 -0.004804606 -0.004116123 -0.003443838 -0.002821544 -0.002257474 -0.001741824 -0.001275336 -0.0008210763 -0.0003771711
 9.195333E-05 0.0005853227 0.001111795 0.001667387 0.002239115 0.002824785 0.003412098 0.003999698 0.004580724 0.00515085
 0.005700859 0.006229905 0.006730999 0.0072145 0.00768374 0.008151229 0.008624792 0.009105311 0.009596092 0.01008798
 0.01057903 0.0110665 0.01154846 0.01203813 0.01253617 0.01305843 0.01360501 0.01417174 0.01475585 0.01533237
 0.01589976 0.01643682 0.0169466 0.01742649 0.01788092 0.01831703 0.01873848 0.01915242 0.01956297 0.01997613
 0.02039525 0.02082375 0.02126468 0.02171964 0.02219248 0.02268541 0.02319711 0.0237296 0.02426832 0.02481256
 0.02534217 0.02585541 0.02634411 0.02680834 0.02725578 0.02768753 0.02811658 0.02854268 0.02897227 0.0294029
 0.02983058 0.0302537 0.03066535 0.03106987 0.0314696 0.03187052 0.03228137 0.03269849 0.03312366 0.03354728
 0.03396377 0.03437382 0.0347756 0.03517583 0.03557704 0.03597396 0.0363665 0.03674671 0.03711336 0.03747829
 0.03784236 0.03822685 0.03863048 0.03905277 0.03948796 0.03990903 0.040312 0.04066863 0.04098432 0.04125272
 0.04148991 0.04171427 0.04194131 0.04219574 0.04247538 0.04278985 0.04312031 0.04346024 0.04379705 0.04412346
 0.04444343 0.04475605 0.04506944 0.04538491 0.04570436 0.04602819 0.04635363 0.0466805 0.04700435 0.04732541
 0.04764295 0.04795882 0.04828206 0.04861308 0.04896013 0.04931726 0.04967751 0.0500328 0.05036759 0.05068078
 0.05096446 0.0512238 0.05145963 0.05167751 0.05187959 0.05207182 0.05225589 0.05243826 0.05262066 0.05280618
 0.0529955 0.05318934 0.05338771 0.05359374 0.05380765 0.05403386 0.05427236 0.05452522 0.05479157 0.0550694
 0.05535573 0.05564164 0.05592216 0.056182 0.0564205 0.05662768 0.05681234 0.05697826 0.05713676 0.05729828
 0.05746388 0.05763866 0.05781284 0.05798426 0.0581458 0.05829385 0.05843574 0.05857118 0.058715 0.05886891
 0.0590315 0.05920209 0.05935287 0.05948243 0.05956384 0.05960168 0.05960211 0.05957435 0.05955045 0.05953465
 0.0595528 0.05960042 0.05968362 0.05979237 0.05991999 0.06005541 0.06018805 0.0603149 0.06042815 0.06054334
 0.06066216 0.06080539 0.06098148 0.06118052 0.06140643 0.06160945 0.06178632 0.06189 0.061919 0.06187546
 0.06176386 0.06162897 0.06147357 0.06133643 0.06121326 0.06110962 0.06102365 0.0609507 0.06089928 0.06088068
 0.06089895 0.0609692 0.0610703 0.06119734 0.06131564 0.06140437 0.06145445 0.06145196 0.06142844 0.06138577
 0.06136521 0.06137482 0.06142234 0.06151106 0.06160242 0.06169417 0.06173051 0.06171148 0.06161215 0.06144204
 0.06123275 0.06099885 0.06080443 0.06065269 0.06058741 0.06058928 0.06065376 0.06074839 0.06083751 0.06090247
 0.06091311 0.06088434 0.06081066 0.06072796 0.06064737 0.06059086 0.06056729 0.06057396 0.06061114 0.06067829
 0.06077449 0.06091826 0.06111037 0.06136173 0.06166838 0.06199721 0.06233836 0.06262327 0.06284755 0.06295596
 0.06296259 0.06286372 0.06269227 0.06249189 0.0622963 0.0621602 0.06208959 0.06211525 0.06219905 0.06233859
 0.06246952 0.06257063 0.06259678 0.06252844 0.06237763 0.0621385 0.06187083 0.06157875 0.06131482 0.06108125
 0.06088209 0.06071516 0.06055711 0.06040977 0.06026919 0.06014228 0.06005156 0.05999681 0.05999443 0.06002621
 0.06007784 0.06011732 0.06010712 0.06002283 0.05982879 0.05953685 0.05913347 0.05867422 0.05816939 0.05768501
 0.05723907 0.05686379 0.05656921 0.05634437 0.0561906 0.05607227 0.05598737 0.05588973 0.05577759 0.05561326
 0.05540183 0.05514706 0.05486161 0.0545914 0.05433876 0.05413839 0.05396845 0.05381329 0.05364703 0.05343005
 0.05316731 0.0528411 0.05249198 0.05213152 0.05180576 0.05153564 0.05133586 0.05122051 0.05115126 0.05112973
 0.05107876 0.05099188 0.05081065 0.05053246 0.05016965 0.0497279 0.04927476 0.04881448 0.04840635 0.04804606
 0.04775135 0.04751421 0.04732687 0.04718031 0.04706024 0.0469528 0.04683932 0.04670677 0.0465374 0.04633313
 0.04608652 0.04581737 0.04552936 0.04524444 0.04496946 0.04471111 0.04447296 0.04424313 0.04402128 0.04379083
 0.04355095 0.04329511 0.04302378 0.04274013 0.04244481 0.0421419 0.04183355 0.04152733 0.04122882 0.04095504
 0.04070759 0.04050096 0.04032138 0.04016322 0.04000305 0.03981987 0.03960525 0.03934411 0.03905589 0.03874158
 0.03842932 0.03812765 0.03784423 0.03758368 0.03732861 0.03707825 0.03681251 0.03653035 0.03622866 0.03590856
 0.03558236 0.03525129 0.03492872 0.03461408 0.03431314 0.03402313 0.0337415 0.03346368 0.03318132 0.03289162
 0.03258574 0.03227112 0.03194535 0.03163281 0.03134154 0.03110379 0.03093549 0.0308438 0.03084212 0.03087919
 0.03095585 0.03097564 0.03092973 0.03074916 0.03043022 0.02999636 0.02945524 0.02890668 0.02835814 0.02790665
 0.02754527 0.02730726 0.02716906 0.02709797 0.02706345 0.02700184 0.02689722 0.02669961 0.02643058 0.02608266
 0.02570471 0.0253221 0.02496092 0.02464256 0.02434726 0.02407387 0.02380404 0.02352937 0.02328332 0.02306641
 0.0229357 0.02289422 0.02294852 0.02309267 0.02325551 0.02342633 0.02350431 0.02349005 0.02332506 0.02303231
 0.02262991 0.02215377 0.02167119 0.0212005 0.02079517 0.02043772 0.02013432 0.01985754 0.01958917 0.01933143
 0.01907779 0.01884988 0.01865582 0.01848795 0.01834989 0.01820187 0.01803936 0.01784885 0.01762941 0.01742328
 0.01723316 0.01710811 0.01704309 0.01703592 0.01707425 0.01711245 0.01714453 0.01713078 0.01707883 0.01698187
 0.01685314 0.01670729 0.01654678 0.01638345 0.01619893 0.01598853 0.01573018 0.01540891 0.01503776 0.01460893
 0.01418291 0.0137662 0.01341952 0.01315222 0.01296308 0.01285261 0.01275483 0.01266583 0.0125152 0.0123066
 0.01202268 0.01167707 0.01130804 0.01092859 0.01059078 0.0102948 0.01006792 0.009895022 0.009772372 0.009677245
 0.00959167 0.009496917 0.009375722 0.009227764 0.009044025 0.008851113 0.008651686 0.008479754 0.008344486 0.008242454
 0.008177566 0.008095019 0.007991911 0.007816568 0.007570835 0.007268718 0.006919025 0.006585796 0.006268858 0.006006241
 0.005781722 0.005574442 0.005372299 0.005139654 0.004888549 0.004615364 0.004344288 0.004095839 0.003878409 0.00370537
 0.003565949 0.003458632 0.00337572 0.003313189 0.00327711 0.003268243 0.003290016 0.003344483 0.00341164 0.003490614
 0.003538803 0.00355418 0.003497974 0.003372782 0.003172281 0.0029061 0.002604357 0.002278541 0.001971582 0.001689499
 0.001462473 0.001289038 0.0011803 0.001129112 0.001134872 0.001186254 0.001278198 0.00139813 0.001541167 0.0016956
 0.001858361 0.002018201 0.002172658 0.002315412 0.002444187 0.002573196 0.002702899 0.002873898 0.003088252 0.003385755
 0.003762947 0.004220667 0.004748177 0.00530596 0.005886052 0.006446814 0.00699154 0.007506086 0.007998954 0.008476318
 0.008940022 0.009394726 0.00983691 0.01026412 0.01068001 0.01108377 0.01148611 0.01189108 0.01229847 0.01271138
 0.01310884 0.01348983 0.01382805 0.01412179 0.01435926 0.01454067 0.01466893 0.01474416 0.01476858 0.01474128
 0.01465745 0.01452157 0.01433683 0.01412141 0.01390386 0.01370905 0.01358083 0.01352495 0.01356851 0.01368321
 0.01386402 0.01407394 0.01429363 0.01451712 0.01473446 0.01497321 0.01523574 0.01555011 0.01592063 0.01635139
 0.01684312 0.0173774 0.01795272 0.018542 0.01914524 0.01974628 0.02035176 0.02097538 0.0216305 0.02235868
 0.02316604 0.02409304 0.02510935 0.02621799 0.02731919 0.0283601 0.02917228 0.02965749 0.02966337 0.02908884
 0.02793512 0.02614859 0.0239443 0.02132859 0.01863089 0.01588388 0.01335065 0.01105076 0.009069649 0.007403682
 0.005991189 0.004821977 0.003798042 0.002917595 0.002123382 0.001416375 0.000774244 0.0001888286 -0.000362362 -0.0008907155
 -0.001422303 -0.001953317 -0.002493666 -0.003022685 -0.003531779 -0.004003303 -0.004426573 -0.004799416 -0.005118587 -0.005388831
 -0.005611082 -0.005785036 -0.005911213 -0.005983272 -0.006000841 -0.005957789 -0.005854948 -0.005703789 -0.005510524 -0.005321202
 -0.005145817 -0.005051099 -0.005036999 -0.005143979 -0.005350572 -0.005642573 -0.005986416 -0.006335726 -0.00666585 -0.006938849
 -0.007147769 -0.007277118 -0.007331543 -0.007309958 -0.007215983 -0.007053962 -0.006807819 -0.006479885 -0.006023577 -0.005433088
 -0.004679853 -0.003759152 -0.002771422 -0.001731658 -0.0009164814 -0.0003477036 -0.0003296479 -0.0008370079 -0.001957994 -0.00359585
 -0.005556085 -0.007730252 -0.009825404 -0.01180691 -0.01349763 -0.01495197 -0.01615005 -0.01717271 -0.01806555 -0.01887278
 -0.01962669 -0.02033069 -0.02099221 -0.02160433 -0.0221663 -0.02267634 -0.0231338 -0.02354157 -0.02389963 -0.02421708
 -0.02449477 -0.02474827 -0.0249788 -0.02520267 -0.02541991 -0.02564015 -0.02586089 -0.02608141 -0.02629698 -0.02649792
 -0.02668322 -0.02684455 -0.02699189 -0.02712822 -0.02727116 -0.02743368 -0.02762125 -0.02784467 -0.028081 -0.02833006
 -0.0285516 -0.02873712 -0.02886679 -0.02893416 -0.02896594 -0.02896282 -0.02897595 -0.02900673 -0.02907938 -0.0291896
 -0.02931641 -0.02945629 -0.02958039 -0.02969533 -0.02980314 -0.02991382 -0.03004994 -0.03020896 -0.03040042 -0.03060883
 -0.03082452 -0.03103319 -0.0312232 -0.03138748 -0.03152037 -0.03161914 -0.03167986 -0.03171222 -0.03171397 -0.03171697
 -0.03172371 -0.03176847 -0.03185432 -0.03198282 -0.03215258 -0.03233114 -0.03251645 -0.03267686 -0.03281502 -0.03292482
 -0.03301094 -0.0330833 -0.03314412 -0.03320215 -0.03325782 -0.03331537 -0.03337393 -0.03343525 -0.03349475 -0.03355102
 -0.03359738 -0.03362956 -0.03364811 -0.03365005 -0.03364886 -0.03364547 -0.03365812 -0.03368956 -0.03374699 -0.03383148
 -0.03393302 -0.03405081 -0.03416793 -0.03428431 -0.03439134 -0.03449061 -0.03458451 -0.03467403 -0.03476373 -0.0348521
 -0.03493892 -0.03502124 -0.03509487 -0.03515854 -0.03520833 -0.03524821 -0.03527772 -0.03530683 -0.03533928 -0.0353835
 -0.03544378 -0.03551895 -0.03561031 -0.03571017 -0.03581782 -0.03592725 -0.03603803 -0.03614573 -0.03625008 -0.03634542
 -0.03643191 -0.03650737 -0.03657337 -0.03663579 -0.03669565 -0.03675945 -0.03682564 -0.03689418 -0.03696382 -0.03703227
 -0.03710065 -0.03716947 -0.03723891 -0.03730989 -0.03738005 -0.03744802 -0.03751467 -0.03757918 -0.03764689 -0.037719
 -0.03779738 -0.03788302 -0.0379699 -0.03805773 -0.03813897 -0.0382134 -0.03827853 -0.03833458 -0.03838228 -0.03842165
 -0.03845271 -0.03847615 -0.03849311 -0.03850617 -0.03852028 -0.03853878 -0.03856881 -0.03861044 -0.03866735 -0.03873514
 -0.03881266 -0.03889418 -0.0389767 -0.03905751 -0.03913485 -0.03920931 -0.0392805 -0.03935072 -0.03942014 -0.03949108
 -0.03956373 -0.03963879 -0.03971619 -0.0397932 -0.03986952 -0.03994112 -0.04000826 -0.04006969 -0.04012648 -0.04018101
 -0.04023413 -0.04028887 -0.04034496 -0.04040321 -0.04046322 -0.04052462 -0.040588 -0.04065366 -0.04072207 -0.04079423
 -0.04086729 -0.04094138 -0.04101028 -0.0410726 -0.0411253 -0.04116726 -0.04120284 -0.04123215 -0.04126255 -0.0412943
 -0.04133035 -0.04137025 -0.04141153 -0.04145361 -0.04149222 -0.04152792 -0.04155962 -0.04158965 -0.04162184 -0.04165867
 -0.04170635 -0.04176255 -0.04182892 -0.04189769 -0.04196416 -0.04202327 -0.0420696 -0.04210912 -0.04214123 -0.04217798
 -0.04222209 -0.04227926 -0.04235144 -0.04243251 -0.04252245 -0.04260865 -0.04269052 -0.04275744 -0.04281002 -0.04284821
 -0.0428744 -0.04289956 -0.04292529 -0.04296321 -0.04301055 -0.04306807 -0.04313055 -0.04319023 -0.04324596 -0.04329262
 -0.04333438 -0.0433727 -0.04341038 -0.04345008 -0.04348898 -0.04352689 -0.04356061 -0.04358878 -0.04361381 -0.04363556
 -0.04365918 -0.04368515 -0.04371528 -0.04374957 -0.0437856 -0.04382312 -0.04385888 -0.04389313 -0.04392508 -0.04395566
 -0.043987 -0.04402019 -0.04405879 -0.0441025 -0.04415297 -0.04420799 -0.04426632 -0.04432523 -0.04438235 -0.04443661
 -0.04448682 -0.04453319 -0.04457555 -0.04461431 -0.04464955 -0.04468144 -0.04470995 -0.04473603 -0.04475973 -0.04478206
 -0.04480309 -0.04482369 -0.0448439 -0.04486423 -0.04488457 -0.04490474 -0.04492474 -0.04494422 -0.04496395 -0.04498529
 -0.0450091 -0.04503779 -0.04506992 -0.04510565 -0.04514126 -0.04517377 -0.04520243 -0.04522483 -0.04524665 -0.04526888
 -0.04529758 -0.04533532 -0.04537871 -0.04542854 -0.04547255 -0.04550976 -0.04553219 -0.04553973 -0.04553809 -0.0455285
 -0.045525 -0.04552788 -0.04554657 -0.04557882 -0.04562306 -0.04567617 -0.04573058 -0.04578529 -0.04583525 -0.04588162
 -0.04592385 -0.04596273 -0.0459992 -0.04603181 -0.0460601 -0.04608295 -0.04609916 -0.04611184 -0.0461208 -0.04613267
 -0.04614829 -0.04617244 -0.0462058 -0.04624717 -0.04629643 -0.04634725 -0.04639922 -0.0464455 -0.04648634 -0.04651895
 -0.0465448 -0.04656676 -0.04658654 -0.04660937 -0.0466356 -0.04666845 -0.04670629 -0.04674898 -0.04679388 -0.04683898
 -0.04688285 -0.04692381 -0.04696322 -0.04700085 -0.04703953 -0.04708017 -0.04712274 -0.04716784 -0.04721062 -0.04725081
 -0.0472829 -0.04730672 -0.04732276 -0.04733166 -0.04733986 -0.0473477 -0.04736047 -0.0473773 -0.0473982 -0.04742216
 -0.04744665 -0.04747222 -0.04749859 -0.04752664 -0.04755804 -0.04759046 -0.04762379 -0.04765252 -0.0476737 -0.0476848
 -0.04768291 -0.04767413 -0.04765836 -0.0476464 -0.04763993 -0.04764466 -0.04766153 -0.04768709 -0.04772115 -0.04775687
 -0.04779419 -0.04783002 -0.04786484 -0.04789978 -0.04793462 -0.0479696 -0.04800337 -0.04803303 -0.048058 -0.04807526
 -0.04808751 -0.04809542 -0.04810445 -0.04811898 -0.04814155 -0.04817598 -0.04821722 -0.04826583 -0.04831049 -0.04834869
 -0.04837332 -0.0483821 -0.04837954 -0.04836537 -0.04835254 -0.04834166 -0.04834124 -0.04835076 -0.04836798 -0.04839175
 -0.04841476 -0.04843709 -0.04845495 -0.04846968 -0.04848245 -0.04849414 -0.04850685 -0.04852015 -0.04853447 -0.04854893
 -0.04856292 -0.0485762 -0.04858868 -0.0485996 -0.04860906 -0.04861469 -0.04861582 -0.04861144 -0.04860059 -0.04858932
 -0.04857774 -0.04857677 -0.04858691 -0.048612 -0.04865122 -0.04869658 -0.04874764 -0.04879663 -0.04884623 -0.04890065
 -0.0489636 -0.04904618 -0.04914828 -0.04927541 -0.04942375 -0.04959012 -0.04977509 -0.04997495 -0.05020159 -0.05045805
 -0.05076068 -0.05111776 -0.05152953 -0.05200036 -0.05251033 -0.05305717 -0.05362568 -0.05421378 -0.05482515 -0.0554595
 -0.05608999 -0.05670826 -0.0572113 -0.05759105 -0.05774123 -0.0576793 -0.05740308 -0.05694181 -0.05635716 -0.05567348
 -0.05494585 -0.05421235 -0.0535313 -0.05293379 -0.05246424 -0.05212402 -0.05192742 -0.05185935 -0.05192082 -0.05208504
 -0.05235279 -0.05266614 -0.05302145 -0.05333611 -0.05360123 -0.05378106 -0.05387383 -0.05390706 -0.05388267 -0.05383098
 -0.05375129 -0.05365483 -0.05354017 -0.05340816 -0.05325862 -0.05309025 -0.05290658 -0.05271198 -0.05251089 -0.05231124
 -0.05211103 -0.05191221 -0.05170906 -0.05149711 -0.05128036 -0.05105658 -0.05084208 -0.05063977 -0.05046414 -0.05031884
 -0.05020379 -0.05012018 -0.05005279 -0.0500008 -0.04994396 -0.0498821 -0.04980618 -0.04971834 -0.04962578 -0.04953055
 -0.04944417 -0.04936568 -0.04929892 -0.04924157 -0.04919132 -0.04914739 -0.04910814 -0.04907314 -0.04904231 -0.04901298
 -0.04898419 -0.04895243 -0.04891596 -0.04887401 -0.04882541 -0.04877395 -0.04871944 -0.04866968 -0.04862519 -0.04859441
 -0.04857781 -0.0485775 -0.04859274 -0.04861509 -0.04864312 -0.04866382 -0.04867749 -0.04867754 -0.04866677 -0.04864827
 -0.0486246 -0.04860169 -0.04857944 -0.04856017 -0.04854257 -0.04852587 -0.04851064 -0.04849678 -0.04848548 -0.04847748
 -0.04847212 -0.0484695 -0.04846812 -0.04846759 -0.04846845 -0.04847072 -0.04847511 -0.04848164 -0.04848725 -0.04849171
 -0.04849115 -0.04848609 -0.04847757 -0.04846648 -0.04845696 -0.04844833 -0.04844132 -0.04843424 -0.0484241 -0.04841133
 -0.04839446 -0.04837674 -0.04836025 -0.04834714 -0.04833985 -0.04833654 -0.04833767 -0.04833888 -0.0483393 -0.04833534
 -0.04832616 -0.0483108 -0.04828896 -0.04826193 -0.04822976 -0.04819521 -0.04815863 -0.04812523 -0.04809566 -0.04807694
 -0.04806875 -0.04807465 -0.04809197 -0.04811675 -0.04814537 -0.04816967 -0.04818882 -0.04819781 -0.04819982 -0.04819521
 -0.04818852 -0.04818247 -0.04817917 -0.04818061 -0.04818482 -0.0481922 -0.04819786 -0.04820102 -0.04819854 -0.04818972
 -0.04817698 -0.04816041 -0.04814573 -0.04813307 -0.04812549 -0.04812247 -0.04812222 -0.04812442 -0.04812677 -0.04812991
 -0.0481341 -0.04814032 -0.04815051 -0.04816468 -0.04818394 -0.04820704 -0.04823394 -0.04826168 -0.04828929 -0.04831231
 -0.04832873 -0.04833645 -0.04833362 -0.04832468 -0.04830949 -0.04829647 -0.04828655 -0.04828414 -0.04828958 -0.04830012
 -0.0483155 -0.04833135 -0.04834764 -0.04836224 -0.04837487 -0.04838356 -0.04838752 -0.04838328 -0.04837168 -0.0483515
 -0.04832671 -0.04830093 -0.04827873 -0.04826545 -0.04826205 -0.04827147 -0.04828971 -0.04831658 -0.04834587 -0.04837609
 -0.0484025 -0.04842385 -0.04843964 -0.04844952 -0.04845629 -0.04846008 -0.04846266 -0.04846396 -0.04846294 -0.04845972
 -0.0484541 -0.04844713 -0.04844274 -0.04844154 -0.04844787 -0.04845965 -0.04847592 -0.04849299 -0.04850562 -0.0485129
 -0.04851138 -0.04850463 -0.04849318 -0.04848194 -0.04847286 -0.04846916 -0.04847183 -0.04848363 -0.04850512 -0.04853855
 -0.0485845 -0.0486405 -0.04870649 -0.0487726 -0.04883808 -0.04889016 -0.04892879 -0.04894654 -0.04894512 -0.04892622
 -0.04889289 -0.04885321 -0.04880989 -0.0487713 -0.04873835 -0.04871573 -0.0487023 -0.04869886 -0.04870356 -0.04871562
 -0.04873354 -0.0487568 -0.04878363 -0.04881397 -0.04884411 -0.04887367 -0.04889818 -0.04891697 -0.04892903 -0.04893421
 -0.04893814 -0.04894126 -0.04895152 -0.04896854 -0.04899447 -0.04902731 -0.04906071 -0.04909275 -0.04911478 -0.04912769
 -0.04912817 -0.0491203 -0.04910713 -0.04909346 -0.04908441 -0.04908238 -0.0490908 -0.04910794 -0.0491347 -0.04916583
 -0.04920043 -0.04923308 -0.04926255 -0.04928664 -0.04930476 -0.04931871 -0.04932854 -0.04933713 -0.04934452 -0.04935186
 -0.04935904 -0.04936595 -0.04937259 -0.04937907 -0.04938542 -0.04939174 -0.04939832 -0.04940528 -0.04941412 -0.04942642
 -0.04944421 -0.0494704 -0.04950395 -0.04954655 -0.0495913 -0.04963671 -0.04967405 -0.04970029 -0.0497122 -0.04970769
 -0.04969321 -0.04966867 -0.04964604 -0.04962606 -0.04961761 -0.04962066 -0.04963475 -0.04965882 -0.04968533 -0.04971373
 -0.04973754 -0.04975775 -0.04977342 -0.04978604 -0.04979801 -0.04980962 -0.04982246 -0.04983552 -0.04984836 -0.04986038
 -0.04987063 -0.04988062 -0.04989041 -0.0499027 -0.04991861 -0.04993782 -0.04996113 -0.0499829 -0.05000272 -0.05001498
 -0.05001917 -0.05001733 -0.05000986 -0.05000455 -0.05000143 -0.050005 -0.05001368 -0.05002385 -0.05003381 -0.05003679
 -0.05003333 -0.05002044 -0.05000153 -0.04997896 -0.04995748 -0.04994179 -0.04993539 -0.04994234 -0.04996159 -0.04999506
 -0.05003502 -0.05008078 -0.05012083 -0.05015283 -0.05017035 -0.0501718 -0.05016126 -0.05013884 -0.05011284 -0.0500835
 -0.05005476 -0.05002635 -0.04999795 -0.04996964 -0.04994145 -0.0499142 -0.04989 -0.04986958 -0.04985528 -0.04984714
 -0.04984643 -0.04985198 -0.04986379 -0.04987904 -0.04989624 -0.04991276 -0.04992699 -0.04993824 -0.04994591 -0.04995054
 -0.04995223 -0.04995063 -0.04994565 -0.04993754 -0.04992626 -0.04991434 -0.04990191 -0.04989189 -0.04988409 -0.04987861
 -0.04987492 -0.04987071 -0.0498661 -0.04985977 -0.04985314 -0.04984815 -0.04984611 -0.04985009 -0.04985895 -0.04987356
 -0.04988994 -0.04990624 -0.04991851 -0.04992436 -0.04992301 -0.04991353 -0.04989729 -0.04987435 -0.049846 -0.04981224
 -0.04977537 -0.04973546 -0.04969761 -0.04966211 -0.04963471 -0.04961541 -0.04960697 -0.04960883 -0.04962033 -0.04964066
 -0.0496676 -0.0497 -0.04973529 -0.04977128 -0.04980458 -0.04983257 -0.04985163 -0.04986085 -0.04985802 -0.04984543
 -0.04982307 -0.04979494 -0.04976195 -0.04972788 -0.04969359 -0.04966146 -0.04963212 -0.04960437 -0.04957829 -0.04954858
 -0.04951511 -0.04947508 -0.04942932 -0.04938259 -0.04933615 -0.04929812 -0.04926833 -0.04925082 -0.04924398 -0.04924689
 -0.04925749 -0.04927339 -0.04929119 -0.04930785 -0.04931862 -0.04931961 -0.04930844 -0.04928214 -0.04924423 -0.04919441
 -0.04913939 -0.04908023 -0.04902246 -0.04896682 -0.04891687 -0.04887284 -0.04883846 -0.04881397 -0.04880412 -0.04880885
 -0.0488307 -0.04886789 -0.04891547 -0.04896909 -0.04901486 -0.04904819 -0.04905229 -0.04902951 -0.04897322 -0.04889539
 -0.04880391 -0.04871006 -0.04862422 -0.0485486 -0.04848772 -0.04843623 -0.04839383 -0.04835423 -0.04831586 -0.04827688
 -0.04823653 -0.04819765 -0.04816027 -0.04812986 -0.04810672 -0.04809646 -0.04809869 -0.04811385 -0.04813936 -0.04816481
 -0.048187 -0.04819043 -0.0481763 -0.04813854 -0.04808241 -0.04801235 -0.04793269 -0.04784793 -0.04776391 -0.04768443
 -0.04761704 -0.04756698 -0.04753407 -0.0475217 -0.04751595 -0.04751546 -0.04750428 -0.04747951 -0.04743946 -0.04738349
 -0.04732098 -0.04725231 -0.04718428 -0.04711653 -0.04704909 -0.04698179 -0.04691348 -0.0468452 -0.0467793 -0.04671653
 -0.04666045 -0.04660843 -0.04655927 -0.0465081 -0.04644877 -0.04638201 -0.04630482 -0.04622471 -0.04614453 -0.04606856
 -0.04599978 -0.04593438 -0.04587216 -0.04580909 -0.04574429 -0.04567923 -0.04561399 -0.04554962 -0.04548596 -0.04541796
 -0.04534473 -0.0452562 -0.04515256 -0.04502799 -0.04488605 -0.04473374 -0.04457461 -0.04442026 -0.04426889 -0.04412335
 -0.04397975 -0.04383418 -0.04368791 -0.04353924 -0.04339465 -0.0432565 -0.04312991 -0.04301758 -0.04291909 -0.04283621
 -0.04275904 -0.04268832 -0.04259833 -0.04248727 -0.04233298 -0.04213547 -0.04191114 -0.04166281 -0.04142362 -0.04119142
 -0.04097452 -0.04076735 -0.04055708 -0.04034192 -0.04011036 -0.03986783 -0.03961556 -0.03936291 -0.03911971 -0.0388906
 -0.03868508 -0.03849179 -0.03831243 -0.0381188 -0.03790218 -0.03764537 -0.0373389 -0.03700468 -0.03664335 -0.0362838
 -0.03592897 -0.03557887 -0.03523337 -0.03488543 -0.03453585 -0.03419057 -0.03384829 -0.03350891 -0.03316448 -0.03279076
 -0.03238302 -0.03191401 -0.03139944 -0.03084695 -0.030279 -0.02972482 -0.02918289 -0.0286634 -0.02815178 -0.02764209
 -0.02713061 -0.02661375 -0.02609731 -0.02558469 -0.02506336 -0.02453624 -0.02395074 -0.02330281 -0.0225553 -0.02170904
 -0.02083244 -0.01993076 -0.01908609 -0.01828714 -0.01752283 -0.01678009 -0.01601179 -0.01521791 -0.01437541 -0.01349034
 -0.01256654 -0.01159481 -0.01057721 -0.009474832 -0.008264652 -0.006910814 -0.005373015 -0.003706966 -0.001904207 -0.0001003858
 0.001674598 0.003349194 0.004904486 0.00635868 0.007710183 0.009010174 0.0102622 0.01154571 0.0128683 0.01434346
 0.01595871 0.01773433 0.01961169 0.02140798 0.02311493 0.02460702 0.02595457 0.02720939 0.02841868 0.02965746
 0.03091941 0.03222399 0.03355166 0.03489432 0.03625242 0.0376297 0.03900217 0.04036952 0.0416863 0.04294254
 0.04414626 0.04529651 0.04642474 0.04753107 0.04858245 0.04957466 0.05044809 0.0512113 0.05187118 0.05244725
 0.05300724 0.05355387 0.05413533 0.05471999 0.05527628 0.05579647 0.0562513 0.05667261 0.0570804 0.057475
 0.05786981 0.05822684 0.05853467 0.05877519 0.058938 0.05904362 0.05909161 0.05911717 0.05912334 0.05913085
 0.05914016 0.05913601 0.05911699 0.05906198 0.05897416 0.05885709 0.05871733 0.05857462 0.05843882 0.05833966
 0.058284 0.05829739 0.0583735 0.05851392 0.05871584 0.05897149 0.05930149 0.05971504 0.06022221 0.06083766
 0.06151862 0.06225946 0.06301927 0.06378657 0.06458449 0.06541283 0.06631682 0.06729823 0.06836718 0.06952146
 0.07074182 0.07202738 0.07336412 0.0747525 0.07618722 0.07766753 0.07918815 0.08075149 0.08235821 0.08401263
 0.08571997 0.08748128 0.08929843 0.09117299 0.09310465 0.09510046 0.09716234 0.09929705 0.1015089 0.1037877
 0.1061369 0.1085096 0.1109036 0.1132523 0.1155528 0.1177721 0.1199094 0.1219549 0.1238928 0.1256394
 0.1271721 0.1283577 0.129225 0.1297585 0.1300232 0.1301117 0.1300627 0.1299551 0.1297898 0.1295948
 0.1293488 0.1290583 0.1286664 0.1281705 0.1274566 0.1264917 0.1252382 0.1236606 0.1219882 0.1202388
 0.1185618 0.1169624 0.1153424 0.1136982 0.1119569 0.1101314 0.108254 0.1063358 0.1044426 0.1025483
 0.1006543 0.09866664 0.09644715 0.09391935 0.09088285 0.08752286 0.08388969 0.08021116 0.07666225 0.07317872
 0.06977244 0.06637873 0.06295919 0.05963114 0.05640185 0.05340656 0.05066379 0.04814922 0.0458611 0.04368008
 0.04160368 0.03956229 0.03756607 0.03563295 0.03377304 0.03203246 0.03040616 0.02890945 0.02752382 0.02623045
 0.02500708 0.02382709 0.02266449 0.02149973 0.02029185 0.01901448 0.01764564 0.01614426 0.01463543 0.01312649
 0.01180326 0.01071311 0.009805435 0.009085549 0.008400047 0.007741739 0.007045097 0.006315168 0.005588741 0.004872295
 0.004224527 0.003635766 0.003102613 0.002617447 0.002152186 0.001728271 0.001361583 0.001085393 0.0009490802 0.0009490789
 0.001106026 0.001383281 0.00176858 0.002230742 0.002755261 0.003329192 0.003943037 0.004614603 0.00534013 0.00618057
 0.007141873 0.008261364 0.009540087 0.01086238 0.01221674 0.01342501 0.01449492 0.01537785 0.01609079 0.01666787
 0.01711312 0.01744824 0.01768121 0.01782238 0.01790988 0.01797597 0.01808831 0.01831247 0.01867278 0.01922364
 0.01986934 0.02058931 0.02130323 0.02197672 0.0226355 0.02327649 0.02394721 0.0246533 0.02540152 0.02619227
 0.02699501 0.02780922 0.02861645 0.02942345 0.03025628 0.03112665 0.03209201 0.03315049 0.0343364 0.03561681
 0.03695454 0.03832395 0.03967094 0.04102008 0.04237 0.04375419 0.04519765 0.0466906 0.04824039 0.04980939
 0.05138692 0.052964 0.05453368 0.05613009 0.05775695 0.05942592 0.06113742 0.06279834 0.06439982 0.06580181
 0.06700647 0.06795516 0.068657 0.06911768 0.06933171 0.06929193 0.06898397 0.06837734 0.06747493 0.06625939
 0.06476472 0.06300456 0.06102761 0.05886207 0.05654078 0.05408113 0.05149979 0.04879496 0.04602379 0.04318472
 0.040403 0.03769025 0.03513613 0.03274593 0.03049358 0.02837473 0.02632236 0.02434078 0.02241922 0.02057051
 0.01883845 0.01722204 0.01574627 0.01439098 0.01313573 0.01196111 0.01083648 0.009754067 0.008697785 0.007667301
 0.006658288 0.00567276 0.004709976 0.003774564 0.002867503 0.001992309 0.001150462 0.0003373439 -0.000447278 -0.001209236
 -0.001948879 -0.002653775 -0.003321887 -0.003921943 -0.004453831 -0.004898923 -0.005263114 -0.005557544 -0.005787473 -0.005972065
 -0.006110402 -0.006209738 -0.006266936 -0.006279491 -0.006250082 -0.006176227 -0.006073091 -0.005943989 -0.005815518 -0.00569628
 -0.005611736 -0.005570054 -0.005583929 -0.005657152 -0.005791045 -0.005986469 -0.006238214 -0.006546051 -0.00689918 -0.007296662
 -0.007724101 -0.008179812 -0.008647714 -0.009124178 -0.009588918 -0.01003654 -0.01044399 -0.01080852 -0.011114 -0.01136384
 -0.01155446 -0.01169372 -0.01178576 -0.01183942 -0.01185987 -0.01185494 -0.01182827 -0.01178569 -0.01172891 -0.01166302
 -0.01158833 -0.0115137 -0.01143954 -0.01137872 -0.01133199 -0.01130988 -0.01131226 -0.0113398 -0.01139087 -0.01145619
 -0.01153402 -0.01161249 -0.01169249 -0.011769 -0.01184672 -0.01193062 -0.01202619 -0.01214201 -0.01228066 -0.01244739
 -0.0126416 -0.01286512 -0.01311397 -0.01338869 -0.01367901 -0.01398406 -0.01428792 -0.01458848 -0.01487052 -0.0151322
 -0.01536498 -0.01556821 -0.01574267 -0.01588903 -0.01601728 -0.01612862 -0.0162363 -0.01633952 -0.01644347 -0.01654408
 -0.01663427 -0.01670997 -0.01676006 -0.0167854 -0.01678121 -0.0167537 -0.01670584 -0.01664406 -0.01657349 -0.01649489
 -0.01641026 -0.01631625 -0.01621149 -0.01609804 -0.01597476 -0.01585351 -0.01573516 -0.01563118 -0.01554236 -0.01547021
 -0.01541446 -0.01537105 -0.01534011 -0.01532057 -0.01531298 -0.01531916 -0.01533871 -0.01537177 -0.0154172 -0.01547331
 -0.01553873 -0.01561129 -0.01568965 -0.01577201 -0.01585756 -0.01594509 -0.01603547 -0.01612845 -0.01622635 -0.01632966
 -0.01644052 -0.01655949 -0.01668681 -0.0168228 -0.01696423 -0.01711095 -0.0172576 -0.01740404 -0.01754702 -0.01768726
 -0.01782749 -0.017969 -0.01811885 -0.01827642 -0.01844505 -0.01862031 -0.01879663 -0.01896901 -0.01912771 -0.01927462
 -0.01940586 -0.01953163 -0.01965621 -0.01978874 -0.01993508 -0.02009445 -0.02026894 -0.02045012 -0.02063727 -0.02082115
 -0.02100083 -0.02116903 -0.02132528 -0.02146407 -0.02158533 -0.02168704 -0.0217698 -0.02183607 -0.02188714 -0.02192928
 -0.02196332 -0.02199513 -0.02202338 -0.0220488 -0.02206871 -0.02207945 -0.02208116 -0.02207182 -0.02205525 -0.02203367
 -0.02200784 -0.02198027 -0.02194359 -0.02189744 -0.02183014 -0.02173964 -0.02161793 -0.02146358 -0.02127589 -0.02105461
 -0.02080722 -0.02053453 -0.02025082 -0.01995709 -0.01966755 -0.01938167 -0.01910566 -0.01883702 -0.01857246 -0.01831015
 -0.01804445 -0.01777714 -0.01750751 -0.01723944 -0.01697659 -0.01671965 -0.01647055 -0.01622717 -0.01598859 -0.01575539
 -0.01552724 -0.01530675 -0.01509508 -0.01488843 -0.01468686 -0.0144825 -0.01427474 -0.01406354 -0.01384911 -0.01363687
 -0.01342565 -0.01321057 -0.01298829 -0.01274225 -0.01247153 -0.01216384 -0.01182337 -0.01145091 -0.01105331 -0.01063886
 -0.01021384 -0.009786077 -0.00936014 -0.008941203 -0.008529965 -0.008128481 -0.00773366 -0.007345152 -0.006959787 -0.006576428
 -0.006196754 -0.005820438 -0.00545403 -0.005098011 -0.004754249 -0.004422069 -0.004088316 -0.003751614 -0.003393855 -0.003018167
 -0.002625722 -0.002224409 -0.0018367 -0.001465361 -0.001128412 -0.0008181387 -0.0005334683 -0.00026289 3.76428E-06 0.0002748186
 0.0005587884 0.0008570112 0.001173773 0.001500583 0.001836503 0.002171454 0.00250194 0.002832532 0.003162514 0.003506783
 0.003866452 0.004244645 0.004640813 0.005042697 0.005449745 0.005851828 0.006250205 0.006645251 0.007037229 0.007428602
 0.007815235 0.00819273 0.008552101 0.00888108 0.009170769 0.009407788 0.009592082 0.009718188 0.009794377 0.009822834
 0.009809704 0.009756707 0.009669187 0.009546556 0.009404873 0.009244997 0.009088902 0.008938205 0.008803911 0.008686289
 0.008587807 0.008509287 0.008458422 0.008435912 0.008450164 0.008498404 0.008577957 0.008684791 0.008810072 0.008951694
 0.009104858 0.009264368 0.009427188 0.009579441 0.009714196 0.009813698 0.009868994 0.009869178 0.009807929 0.009687856
 0.00950705 0.009278905 0.009004436 0.00869681 0.008356996 0.007993082 0.007605597 0.007203478 0.006788007 0.006372998
 0.005959754 0.005560888 0.005177346 0.004818038 0.004483472 0.004180423 0.003904167 0.003654489 0.003417664 0.003182969
 0.002935298 0.002661895 0.002355783 0.002011187 0.001625201 0.00119699 0.0007199332 0.0001929893 -0.000390786 -0.001033036
 -0.001730865 -0.0024846 -0.003277737 -0.00410901 -0.004953104 -0.005808814 -0.0066549 -0.007491917 -0.008311461 -0.009113614
 -0.009895371 -0.01065397 -0.01138249 -0.01207959 -0.01273923 -0.01336547 -0.01395972 -0.01452612 -0.01506837 -0.01558628
 -0.01608028 -0.01655101 -0.01699807 -0.01742543 -0.01783409 -0.01822462 -0.01859737 -0.01895042 -0.01928348 -0.01960059
 -0.01990205 -0.02019465 -0.02047773 -0.02074953 -0.02100809 -0.02124337 -0.02145506 -0.02163622 -0.02178977 -0.0219178
 -0.02202361 -0.02211307 -0.02218634 -0.02224584 -0.02229033 -0.02231828 -0.02233367 -0.0223369 -0.02233497 -0.02233118
 -0.02232397 -0.02231426 -0.02229459 -0.02226286 -0.02222712 -0.02218729 -0.02216687 -0.02216639 -0.02219193 -0.02223986
 -0.02228257 -0.02231702 -0.02231231 -0.02227419 -0.02220127 -0.02210458 -0.02200586 -0.02190988 -0.02183493 -0.02177335
 -0.02172692 -0.02168005 -0.0216232 -0.02154606 -0.02143924 -0.02130852 -0.02115167 -0.02098542 -0.0208128 -0.02064483
 -0.02048396 -0.02032886 -0.02017969 -0.02003164 -0.01988473 -0.01974187 -0.01960456 -0.01948637 -0.01938911 -0.01932919
 -0.01930509 -0.01932282 -0.01937557 -0.01945376 -0.01954981 -0.01964932 -0.01974823 -0.01983848 -0.01991611 -0.01997765
 -0.0200163 -0.02002752 -0.0200102 -0.0199607 -0.01989155 -0.01980387 -0.0197126 -0.01962094 -0.01952663 -0.01943037
 -0.01931199 -0.01917059 -0.01898954 -0.01877018 -0.01851581 -0.01823036 -0.01793288 -0.01762718 -0.017334 -0.01705547
 -0.0168064 -0.01658491 -0.01639688 -0.01623283 -0.01608817 -0.01594792 -0.01580123 -0.01563764 -0.01544865 -0.01523417
 -0.01499085 -0.01472842 -0.01444635 -0.0141644 -0.01388378 -0.01363102 -0.01340842 -0.01322934 -0.01309368 -0.01298647
 -0.01290553 -0.01282413 -0.01274364 -0.01265537 -0.01256428 -0.01248204 -0.01240887 -0.01235357 -0.01230722 -0.01226238
 -0.01220797 -0.01212973 -0.01202394 -0.01188209 -0.01171037 -0.01150767 -0.01128718 -0.01105161 -0.01081583 -0.0105837
 -0.01036233 -0.01015434 -0.00995128 -0.009753036 -0.009543794 -0.009323136 -0.00908959 -0.008845285 -0.008609495 -0.008383381
 -0.008184862 -0.008008623 -0.007849325 -0.007698681 -0.007536041 -0.007359696 -0.007156677 -0.006933472 -0.00669191 -0.006437421
 -0.006175079 -0.005904936 -0.005626868 -0.005345642 -0.005060117 -0.004786745 -0.00452876 -0.004298012 -0.004098439 -0.003917762
 -0.003755976 -0.003587557 -0.003411495 -0.003215836 -0.003001467 -0.002772303 -0.002528699 -0.002273448 -0.00200766 -0.001733709
 -0.001458126 -0.001194413 -0.0009502373 -0.0007446484 -0.0005746874 -0.0004481611 -0.0003482816 -0.0002683127 -0.0001875311 -9.389457E-05
 2.211449E-05 0.0001685187 0.0003363809 0.0005264397 0.0007221441 0.000920749 0.001116862 0.00130939 0.001505883 0.001706642
 0.001916631 0.00213539 0.002360053 0.002590528 0.002824658 0.003063324 0.003308909 0.003560394 0.003818568 0.004077623
 0.00433162 0.004569983 0.004779561 0.00495491 0.0050836 0.005180725 0.005246199 0.005309282 0.005381013 0.005472676
 0.005592046 0.005720845 0.005857872 0.005985019 0.006099793 0.006209888 0.006315924 0.006440167 0.006582918 0.006757061
 0.006959092 0.007180223 0.007413265 0.007630707 0.007829286 0.007985073 0.008108222 0.008200664 0.008279764 0.008365121
 0.008464235 0.008589938 0.00873855 0.008911843 0.00910404 0.009315277 0.009533572 0.009758328 0.009968804 0.01016182
 0.01032539 0.01045752 0.01056597 0.01065125 0.0107286 0.01079869 0.01087287 0.01095218 0.01104691 0.01115945
 0.01130221 0.01147802 0.01170066 0.01196675 0.01228243 0.0126285 0.01299104 0.01334445 0.01366298 0.01394371
 0.01417424 0.01437588 0.01455385 0.01472082 0.01488151 0.01503535 0.01518115 0.01533298 0.01549151 0.01567652
 0.01588862 0.01611863 0.0163645 0.01659968 0.01682553 0.0170347 0.01723128 0.01742607 0.01761814 0.01781226
 0.01800223 0.01818104 0.01834323 0.01847936 0.01859023 0.01867064 0.01873262 0.01877919 0.01882552 0.01887899
 0.01894077 0.01901358 0.01908845 0.01916375 0.0192392 0.01931451 0.01939324 0.01947547 0.01955696 0.01963837
 0.01972401 0.01981703 0.01993786 0.02008625 0.02027395 0.02049492 0.02074183 0.0210092 0.02128544 0.02156805
 0.0218468 0.02213174 0.02241896 0.02274504 0.02312966 0.02358892 0.0241574 0.02471987 0.02526199 0.02565828
 0.02587122 0.02598045 0.02598602 0.02602333 0.02609863 0.02625995 0.02650193 0.02678342 0.02709476 0.02736256
 0.02758482 0.02771465 0.02775935 0.02771039 0.0275798 0.02738202 0.02712633 0.02682802 0.02649171 0.02612174
 0.02573251 0.02532731 0.02493514 0.02456428 0.02424405 0.02398176 0.02380002 0.02370417 0.02369997 0.02379098
 0.02393659 0.02413432 0.02430052 0.02443211 0.02446454 0.02440402 0.02424813 0.02400959 0.02372773 0.02341416
 0.02311534 0.02283272 0.02259591 0.02238125 0.02217789 0.02195513 0.02167527 0.02135996 0.02099929 0.02065914
 0.02036442 0.02014038 0.02000452 0.01992234 0.01989192 0.01987791 0.01987632 0.01987515 0.01987369 0.01987227
 0.01987225 0.01989 0.0199263 0.01999639 0.02009475 0.02020899 0.02033771 0.02046752 0.02061005 0.02078101
 0.02098036 0.02122238 0.02147816 0.02173128 0.02195784 0.0221343 0.02227588 0.02237988 0.02247538 0.0225713
 0.02267225 0.02278296 0.02287987 0.02296199 0.02299817 0.02298683 0.02292469 0.02281577 0.02270799 0.02260639
 0.02256955 0.02258783 0.02266345 0.02277497 0.02287237 0.02294669 0.02295627 0.02291588 0.02282161 0.02270202
 0.0225762 0.0224683 0.02239985 0.0223677 0.02238053 0.02240726 0.02244112 0.0224644 0.02247011 0.02247792
 0.0224891 0.02251991 0.02257119 0.02262035 0.02266565 0.022677 0.02265722 0.0226069 0.0225312 0.02245005
 0.02236267 0.02227909 0.02219145 0.0220908 0.02197293 0.02182431 0.02166042 0.02148562 0.0213235 0.02119494
 0.021086 0.02100506 0.02089659 0.02074577 0.02052992 0.02023599 0.01991596 0.01957214 0.01926785 0.01900664
 0.01879031 0.0186159 0.01844324 0.01827256 0.0180836 0.01788292 0.01768316 0.01748943 0.01732108 0.01717715
 0.01706393 0.01698111 0.01692885 0.01691248 0.01694052 0.01700166 0.01710265 0.01719313 0.01725836 0.0172531
 0.01715332 0.01699293 0.01676744 0.0165619 0.01638644 0.01626166 0.01618918</values></Ydata></AB><ScSm><Ydata ylabel="Single channel"><values byteorder="INTEL" format="FLOAT32" numvalues="1814"> 0.0696068 0.06960171 0.06967157 0.06983708 0.07006229 0.07027631 0.07042296 0.07049549 0.07051595 0.07049186
 0.07042626 0.07036871 0.07040599 0.07057619 0.07081331 0.07099245 0.07103015 0.07095888 0.07090962 0.07098414
 0.07111779 0.07109743 0.0707605 0.07018043 0.06962025 0.0692901 0.06921474 0.06938751 0.0699013 0.07069779
 0.07128423 0.07108541 0.0701666 0.06926875 0.06898609 0.06919566 0.06940298 0.06931603 0.06893648 0.06844476
 0.06824735 0.06886715 0.07042637 0.07222301 0.07298663 0.0716821 0.06824724 0.06382135 0.0603239 0.05942911
 0.06138969 0.06469819 0.06721632 0.06787865 0.06720445 0.06622186 0.06535663 0.06456229 0.06404071 0.06428456
 0.06540398 0.06666569 0.06687345 0.06539659 0.06291857 0.06094319 0.06041731 0.06114231 0.06258786 0.0644713
 0.06593601 0.06508309 0.06083847 0.05531822 0.0528871 0.05600982 0.06262253 0.06814985 0.06957612 0.06714548
 0.06304113 0.05957123 0.0582913 0.05958929 0.06262367 0.06602032 0.06870014 0.06992757 0.06913058 0.06639726
 0.06296192 0.06060831 0.06057053 0.06304324 0.0671452 0.07101215 0.07264428 0.07137671 0.06831899 0.06518684
 0.06317601 0.06296363 0.06487496 0.06854895 0.07291374 0.07680264 0.07942967 0.08047983 0.08018087 0.07915428
 0.07793756 0.07689603 0.07655787 0.07729056 0.07843304 0.07854282 0.07696804 0.07471853 0.07342382 0.07364547
 0.07443035 0.07447064 0.0734276 0.07172457 0.06925754 0.06535265 0.06031903 0.0558821 0.05346072 0.05307583
 0.05436806 0.05715977 0.06026009 0.06139467 0.05969905 0.05730866 0.0572476 0.06020243 0.06416771 0.06688531
 0.06793232 0.0685628 0.07009772 0.07257572 0.07458153 0.07431307 0.07136667 0.06774067 0.06642191 0.06845525
 0.07194075 0.07437265 0.07528273 0.0759689 0.0772214 0.07809514 0.07689719 0.07320325 0.06893513 0.06717076
 0.06946263 0.07428142 0.07812575 0.07811336 0.07391921 0.06784134 0.06300816 0.06121722 0.06245826 0.0661049
 0.0716048 0.07785039 0.08289492 0.08504611 0.08409861 0.08123127 0.07766017 0.07351895 0.068501 0.06372195
 0.06194408 0.0649686 0.07133496 0.07753824 0.08115415 0.08204573 0.0810054 0.07826951 0.07374065 0.06841096
 0.06482659 0.06511675 0.06843245 0.0714232 0.07174128 0.07018375 0.06897652 0.06900212 0.06946525 0.06958961
 0.06972411 0.07073802 0.07277125 0.07489476 0.07600605 0.07583374 0.07498927 0.07425456 0.0738745 0.07338203
 0.07225679 0.07095485 0.0708691 0.07280608 0.07587786 0.07841231 0.07963243 0.07994799 0.0798462 0.07903542
 0.07687412 0.07358494 0.07075411 0.07016039 0.07205973 0.07502369 0.07742558 0.07860845 0.07874294 0.07825145
 0.07751869 0.07675778 0.07606781 0.0757063 0.07603027 0.07698976 0.07800432 0.0785452 0.07857213 0.0782771
 0.07770656 0.07683183 0.07581921 0.07504143 0.07481103 0.07514672 0.07581116 0.07652304 0.07705961 0.07722814
 0.07693671 0.07632916 0.07569441 0.07520442 0.07486182 0.07468681 0.07477267 0.07511228 0.07551444 0.07576802
 0.07581385 0.07571417 0.07552521 0.07525693 0.07492428 0.07459523 0.07438171 0.07436348 0.07449783 0.07464364
 0.07471852 0.07477959 0.07488821 0.07496409 0.07487148 0.07460983 0.07432523 0.07415003 0.07409973 0.07411116
 0.074109 0.07401426 0.07374528 0.07329133 0.07280052 0.0725205 0.0725974 0.07296716 0.07345662 0.07391553
 0.07423708 0.07436305 0.07432921 0.0742349 0.07412727 0.07396598 0.07371901 0.07345174 0.07330492 0.0733877
 0.07367897 0.07403657 0.07431483 0.07445748 0.07448596 0.07446212 0.07447031 0.0745571 0.07466264 0.07467599
 0.07457653 0.07446681 0.07445201 0.07452573 0.07458743 0.07455818 0.07447197 0.0744426 0.07453643 0.07470472
 0.07485408 0.07495153 0.07503559 0.07514237 0.07524215 0.07525721 0.07515199 0.07499379 0.07489108 0.07487957
 0.07491406 0.07496558 0.07506453 0.07523019 0.07540832 0.07551582 0.0755315 0.07551424 0.075527 0.0755619
 0.07555807 0.07548406 0.0753773 0.07530133 0.07528724 0.07532254 0.07537532 0.07541528 0.0754203 0.07538007
 0.07530133 0.07520469 0.07510984 0.07502996 0.07498817 0.07502104 0.07513584 0.07526672 0.07530701 0.07520576
 0.07502151 0.0748658 0.07479563 0.07477114 0.07471598 0.07460117 0.07445915 0.07433431 0.07424436 0.07418406
 0.07413909 0.07409328 0.07404763 0.07404028 0.07412066 0.07428259 0.07444106 0.07450294 0.07445565 0.07436746
 0.07431018 0.07430479 0.07433363 0.07437803 0.07444105 0.07454282 0.07468601 0.07482645 0.07490522 0.07491791
 0.0749248 0.0749872 0.07512155 0.07531179 0.07552396 0.07570376 0.07580616 0.07584719 0.07589565 0.07599863
 0.07613842 0.07627311 0.07639344 0.07652128 0.07667149 0.07684107 0.077032 0.07726303 0.07754979 0.077878
 0.07819953 0.0784619 0.07865441 0.07882813 0.07905729 0.07937384 0.07974397 0.0801061 0.08042321 0.08070197
 0.08097135 0.08124608 0.08151652 0.08178151 0.08207516 0.08243528 0.08285068 0.08326857 0.08365365 0.08401562
 0.0843795 0.0847542 0.08513531 0.08552203 0.08592194 0.08634076 0.08676644 0.08716832 0.08752063 0.08782823
 0.08812565 0.08845417 0.08883564 0.0892492 0.08962985 0.08991812 0.09012932 0.09035131 0.09065117 0.0910022
 0.09133023 0.09161434 0.09190586 0.09225059 0.09262989 0.09299272 0.09332123 0.09364434 0.0939931 0.09435658
 0.09468299 0.09492514 0.09508793 0.09522811 0.09540375 0.09563573 0.09592372 0.09627381 0.09668172 0.09710433
 0.09748194 0.09778564 0.09802211 0.09820829 0.09836812 0.09853736 0.09873774 0.09895501 0.09916186 0.09934603
 0.09950119 0.09962215 0.09973282 0.09988772 0.1001177 0.1003999 0.1007032 0.1010321 0.1013961 0.1017667
 0.1021091 0.1024418 0.1028174 0.103237 0.1036252 0.1039089 0.1040909 0.1042226 0.1043395 0.1044628
 0.1046357 0.1049056 0.1052707 0.1056787 0.10608 0.1064581 0.1068109 0.1071308 0.1074058 0.1076279
 0.1077954 0.1079167 0.1080174 0.108141 0.1083332 0.1086088 0.1089299 0.1092269 0.1094481 0.1095783
 0.1096129 0.1095465 0.109405 0.1092608 0.1091739 0.1091202 0.1090014 0.1087282 0.1082795 0.1076831
 0.1069709 0.1061682 0.1053141 0.1044753 0.1037328 0.103156 0.1027912 0.1026757 0.1028458 0.103307
 0.1039915 0.104764 0.1054782 0.1060174 0.1062895 0.1062253 0.1058155 0.1051333 0.1042972 0.1034108
 0.1025383 0.1017052 0.1008989 0.1000924 0.09930554 0.09864242 0.09825544 0.09828608 0.09884708 0.1000196
 0.1018001 0.1040289 0.1064058 0.1086231 0.1105058 0.1120427 0.1133149 0.11442 0.115437 0.1164082
 0.1173278 0.1181659 0.1189133 0.1195906 0.1202141 0.1207727 0.1212398 0.121593 0.1218291 0.1219763
 0.1220844 0.1221894 0.1222945 0.1223919 0.1224807 0.1225499 0.1225565 0.1224389 0.1221491 0.1216724
 0.121033 0.1203058 0.119651 0.1193455 0.1197257 0.1210035 0.1230838 0.1255796 0.1280316 0.1301261
 0.1317562 0.1329645 0.1338663 0.1345851 0.135207 0.1357732 0.1363018 0.1368024 0.1372772 0.1377268
 0.1381584 0.1385865 0.1390246 0.1394769 0.1399304 0.1403618 0.1407599 0.1411412 0.1415361 0.1419598
 0.142399 0.1428281 0.1432385 0.1436467 0.1440645 0.1444712 0.1448333 0.1451494 0.1454555 0.14579
 0.1461661 0.1465732 0.1469826 0.1473575 0.1476774 0.1479559 0.1482273 0.1485156 0.148822 0.149137
 0.1494545 0.1497737 0.1500935 0.1504138 0.1507412 0.1510808 0.151417 0.1517158 0.1519581 0.1521672
 0.1523906 0.1526575 0.1529557 0.1532509 0.1535267 0.1538041 0.1541192 0.1544796 0.1548472 0.1551686
 0.1554216 0.1556312 0.1558432 0.1560851 0.1563554 0.15664 0.1569284 0.1572137 0.1574905 0.1577611
 0.1580351 0.1583174 0.1586025 0.1588827 0.1591569 0.1594297 0.1597054 0.1599849 0.1602694 0.1605669
 0.1608876 0.1612268 0.1615556 0.1618414 0.1620752 0.1622755 0.1624682 0.162671 0.1628921 0.1631349
 0.1633983 0.1636764 0.1639578 0.164231 0.1644921 0.1647479 0.1650087 0.1652784 0.1655533 0.1658295
 0.1661085 0.1663943 0.1666856 0.1669733 0.167246 0.1674988 0.1677366 0.1679715 0.1682152 0.1684706
 0.16873 0.1689843 0.1692331 0.1694818 0.1697322 0.1699812 0.170228 0.170478 0.1707365 0.1710012
 0.1712614 0.171509 0.1717484 0.1719913 0.1722423 0.172496 0.1727474 0.1729985 0.1732519 0.1735064
 0.17376 0.174012 0.1742635 0.1745179 0.1747782 0.1750398 0.1752925 0.1755308 0.1757597 0.1759895
 0.176227 0.176473 0.1767257 0.1769838 0.1772436 0.1774983 0.1777452 0.1779895 0.1782365 0.1784861
 0.1787383 0.1789972 0.179264 0.1795331 0.1797969 0.1800511 0.1802951 0.1805364 0.1807859 0.1810456
 0.1813068 0.1815638 0.1818203 0.1820808 0.182343 0.1825984 0.1828378 0.1830601 0.1832761 0.1834966
 0.183721 0.1839438 0.1841656 0.1843914 0.1846251 0.1848682 0.1851181 0.1853675 0.1856124 0.1858566
 0.1861044 0.1863567 0.1866136 0.1868722 0.1871269 0.1873772 0.1876289 0.1878825 0.1881336 0.1883822
 0.1886322 0.188884 0.1891381 0.1893968 0.1896591 0.1899217 0.1901852 0.1904487 0.1907063 0.1909564
 0.1912048 0.1914538 0.1917001 0.1919449 0.1921933 0.192448 0.1927093 0.1929733 0.1932276 0.1934632
 0.193688 0.1939181 0.1941622 0.1944203 0.1946834 0.1949358 0.1951744 0.1954165 0.1956753 0.1959452
 0.1962158 0.1964808 0.1967316 0.1969677 0.1972038 0.1974497 0.1976993 0.1979467 0.1981864 0.1983949
 0.1985224 0.1984475 0.1978538 0.1961027 0.1922327 0.1851705 0.1741663 0.1592706 0.1414817 0.1223921
 0.1036129 0.08636133 0.07134163 0.05884021 0.04889442 0.04140695 0.03620832 0.03315268 0.03222562 0.033662
 0.03807034 0.04607259 0.0569497 0.06743801 0.07299352 0.07137711 0.06479684 0.05789615 0.05389042 0.05300517
 0.05386081 0.05528094 0.05689511 0.05891881 0.06172025 0.06540592 0.06980263 0.0749071 0.08110731 0.08869646
 0.097282 0.1059447 0.1140304 0.1216683 0.129467 0.1377841 0.1463501 0.1545326 0.1618404 0.1681724
 0.1737243 0.1787639 0.1834773 0.1879496 0.1922193 0.1962768 0.1999771 0.2030064 0.2050315 0.2059509
 0.206014 0.2056831 0.2053636 0.2052452 0.205347 0.205638 0.2060966 0.2067067 0.2074489 0.2082954
 0.2092079 0.2101465 0.2110817 0.2119933 0.2128645 0.2136852 0.2144496 0.2151506 0.215785 0.2163606
 0.2168874 0.2173678 0.2178043 0.2182075 0.2185907 0.2189611 0.21932 0.2196665 0.2199989 0.2203142
 0.2206059 0.2208674 0.2211033 0.2213322 0.2215702 0.2218167 0.2220604 0.222293 0.2225151 0.2227334
 0.2229567 0.2231886 0.223425 0.2236597 0.2238901 0.2241145 0.2243326 0.2245512 0.2247796 0.2250172
 0.2252544 0.2254852 0.2257107 0.2259302 0.2261397 0.2263413 0.2265455 0.2267627 0.2269911 0.2272169
 0.2274328 0.2276506 0.2278872 0.2281416 0.2283986 0.2286501 0.2288991 0.2291487 0.2294008 0.229655
 0.2298993 0.2301117 0.230285 0.2304429 0.2306255 0.2308565 0.2311222 0.2313852 0.231625 0.2318585
 0.2321126 0.2323869 0.2326544 0.232887 0.2330803 0.233266 0.233493 0.2337757 0.2340779 0.2343618
 0.2346283 0.2348948 0.2351681 0.2354475 0.2357227 0.2359608 0.2361322 0.2362634 0.2364396 0.2367393
 0.2371588 0.237607 0.2379873 0.2382818 0.2385415 0.2388175 0.2391299 0.2394528 0.2396878 0.2397273
 0.2396217 0.2396166 0.2399328 0.2405459 0.241237 0.2418144 0.2422359 0.2425639 0.2428626 0.2431308
 0.2433068 0.24334 0.2432846 0.243322 0.2436361 0.2442263 0.2448913 0.2454323 0.24581 0.2460821
 0.2462981 0.2464883 0.2466159 0.2465132 0.2460584 0.2454931 0.2453605 0.24598 0.2470896 0.2481281
 0.2487905 0.2491821 0.2495058 0.2498075 0.2500403 0.2501119 0.2497567 0.2486828 0.2471407 0.2460926
 0.2464218 0.2480408 0.2500396 0.2515942 0.252493 0.252945 0.2532211 0.2534662 0.2535892 0.2532787
 0.2523492 0.251191 0.2506669 0.2513151 0.2527454 0.2540619 0.2547805 0.2550801 0.2553149 0.2556181
 0.2558166 0.2553848 0.2537377 0.2510964 0.248928 0.2489157 0.251312 0.2546354 0.2571377 0.2583072
 0.2587343 0.2588256 0.2582035 0.2563908 0.2535387 0.2503607 0.2478902 0.2473275 0.2492476 0.2526151
 0.2553728 0.2564713 0.2567581 0.2575992 0.2592518 0.2608909 0.2616762 0.2613996 0.2603295 0.2587445
 0.2568004 0.2549574 0.2542413 0.2555174 0.2584329 0.2615374 0.2636232 0.2646463 0.265095 0.2645696
 0.2614867 0.254976 0.2472705 0.2431059 0.2455418 0.2527606 0.260024 0.2643416 0.2661209 0.2669435
 0.2674336 0.267084 0.2645661 0.2584692 0.2495377 0.2420565 0.2409494 0.2469123 0.2556236 0.26177
 0.2626518 0.2584647 0.2513576 0.2448005 0.2421656 0.244683 0.2509021 0.2581267 0.2640333 0.2673109
 0.26765 0.2656203 0.2626356 0.260612 0.2605796 0.2611639 0.2596305 0.2553368 0.2507987 0.2480052
 0.2453577 0.2406411 0.2358668 0.2359466 0.2422926 0.2504469 0.2550866 0.2554226 0.2542557 0.252901
 0.2489673 0.2398125 0.2275338 0.2190814 0.2201759 0.2293713 0.2393426 0.2440491 0.2435372 0.2418242
 0.2415438 0.241266 0.237531 0.2293586 0.2205772 0.2166277 0.218795 0.2230551 0.2248586 0.2227891
 0.2170288 0.2078801 0.1983198 0.1949643 0.2025103 0.2180023 0.2331353 0.2410998 0.2391246 0.2270247
 0.2080838 0.1909477 0.1854378 0.1937964 0.2079716 0.2170133 0.2157859 0.2059337 0.1911672 0.1746633
 0.1604735 0.1540614 0.1590516 0.1735088 0.189992 0.1993082 0.1956245 0.1809595 0.1654548 0.1600955
 0.1667999 0.1771372 0.1817644 0.178884 0.1729789 0.168978 0.1693701 0.1738004 0.1794889 0.1838197
 0.1864324 0.1864041 0.1794675 0.1631598 0.1437569 0.1321586 0.1325547 0.1402828 0.1505631 0.1627797
 0.1747901 0.1799917 0.1747642 0.1653104 0.1623703 0.1698201 0.1813474 0.1881607 0.1876773 0.1840005
 0.1815536 0.1803586 0.1782177 0.1758006 0.1768607 0.183048 0.1910265 0.1961934 0.1974837 0.1969757
 0.1963619 0.1956626 0.1944304 0.1925233 0.1900144 0.187294 0.1849552 0.1831242 0.1813407 0.1792423
 0.1765747 0.1722588 0.1646615 0.1540186 0.1439028 0.1384565 0.1380835 0.1397151 0.1412979 0.1430086
 0.1431367 0.136863 0.1225958 0.1072265 0.1011387 0.1081954 0.1228654 0.1365134 0.1439476 0.1438715
 0.1364165 0.1235328 0.111279 0.1079049 0.117134 0.1346346 0.1527069 0.1668758 0.1763301 0.1803282
 0.1776694 0.1695583 0.1606192 0.1562629 0.1594677 0.169464 0.1818944 0.18984 0.1872279 0.1749527
 0.1636533 0.1658342 0.1826452 0.2018448 0.2115524 0.2123026 0.2120954 0.2139575 0.2145023 0.2128009
 0.2138487 0.2217184 0.2335344 0.242297 0.2430332 0.2347458 0.21968 0.2037466 0.1950045 0.1972497
 0.2057353 0.2123491 0.2134739 0.2095309 0.2001685 0.1861943 0.1746347 0.1745273 0.1864136 0.201094
 0.2100925 0.213394 0.2156186 0.2180807 0.2172272 0.2100474 0.1990706 0.1907988 0.1892861 0.1926103
 0.1961706 0.1975498 0.1966185 0.1928407 0.1855793 0.1770281 0.1722388 0.1747851 0.1831232 0.1920741
 0.1974881 0.198882 0.1982114 0.1973547 0.196817 0.1958978 0.194021 0.1924586 0.1940702 0.2001691
 0.2083148 0.2147711 0.2187712 0.2227536 0.2285151 0.2346811 0.238325 0.2381425 0.2357216 0.234217
 0.235853 0.240148 0.2442496 0.2453633 0.2434126 0.2413521 0.2424352 0.2470979 0.2528883 0.2572505
 0.2596141 0.2608654 0.2618465 0.2626391 0.2625258 0.2605514 0.2569371 0.2539217 0.2541992 0.2582487
 0.2638583 0.268379 0.2708349 0.2717964 0.2719664 0.2714173 0.2700029 0.2680451 0.2663501 0.2655829
 0.2658028 0.2666282 0.2676538 0.2686234 0.269402 0.2699621 0.2703604 0.2706596 0.2709053 0.2711623
 0.2714787 0.2718062 0.2720535 0.2722487 0.2725584 0.2730842 0.2737059 0.2741939 0.2744163 0.2743415
 0.2739003 0.2729977 0.2716722 0.2701068 0.2684262 0.2666045 0.2646941 0.2631044 0.2625014 0.2633145
 0.2653371 0.2678492 0.2701197 0.2717831 0.2728319 0.2734163 0.273707 0.2738507 0.2739409 0.2739995
 0.2740024 0.273927 0.2737744 0.2735599 0.2733038 0.2730384 0.2728097 0.2726529 0.2725613 0.2724827
 0.2723462 0.2721025 0.2717574 0.2713689 0.2709923 0.2706192 0.2701765 0.2695876 0.268833 0.2679614
 0.2670603 0.2662081 0.2654313 0.2646913 0.2639215 0.2630777 0.262138 0.2610679 0.2598423 0.2585204
 0.2572454 0.2561258 0.2551411 0.2541879 0.2531809 0.2520838 0.2508847 0.2495899 0.2482286 0.2468324
 0.2454141 0.2439697 0.2424912 0.2409651 0.2393682 0.237678 0.2358926 0.2340366 0.2321405 0.2302122
 0.2282186 0.226082 0.2236881 0.2209133 0.2176531 0.2138386 0.2094534 0.2045661 0.1993438 0.1940089
 0.1887652 0.1837556 0.1790777 0.1748316 0.1711383 0.1681054 0.1657839 0.1641735 0.1632594 0.1630284
 0.1634654 0.1645461 0.1662181 0.1683753 0.1708623 0.1735082 0.1761494 0.17864 0.1808892 0.1829049
 0.1847784 0.1866001 0.1883851 0.190084 0.1916558 0.193103 0.194429 0.1955991 0.1965747 0.1973615
 0.1979943 0.1984933 0.1988659 0.199132 0.1993206 0.1994523 0.1995456 0.1996368 0.1997792 0.2000189
 0.2003718 0.2008282 0.2013768 0.2020155 0.2027401 0.2035346 0.2043694 0.205205 0.2060132 0.2068073
 0.2076404 0.208566 0.209622 0.2108555 0.2123276 0.2140752 0.2160746 0.218246 0.2204818 0.2226728
 0.2247175 0.2265204 0.2280071 0.2291548 0.2299986 0.2305992 0.2310106 0.2312697 0.2313925 0.2313829
 0.2312555 0.2310394 0.230751 0.23038 0.2299113 0.2293481 0.2287132 0.2280389 0.2273524 0.2266639
 0.2259737 0.2252862 0.2246083 0.2239428 0.2232967 0.2226799 0.2220855 0.2214847 0.2208521 0.2201849
 0.2194937 0.2187806 0.2180221 0.2171728 0.2161992 0.2151067 0.2139187 0.2126371 0.2112461 0.2097474
 0.2081729 0.2065658 0.2049546 0.2033392 0.2016971 0.1999972 0.1981988 0.1962535 0.1941476 0.1919494
 0.1897833 0.1877451 0.1858545 0.1840773 0.1823705 0.1807112 0.1791028 0.1775612 0.1760957 0.1747072
 0.1733945 0.1721535 0.1709738 0.1698422 0.1687541 0.1677303 0.1668186 0.1660563 0.165427 0.1648772
 0.1643771 0.1639411 0.1635961 0.1633559 0.1632158 0.1631442 0.1630815 0.1629688 0.1627794 0.1625233
 0.1622325 0.1619439 0.1616852 0.1614679 0.1612822 0.1610824 0.1607859 0.1603007 0.1595516 0.1584848
 0.1570794 0.1553728 0.1534592 0.1514576 0.1494873 0.1476573 0.1460518 0.1447178 0.143663 0.1428514
 0.1422155 0.1416975 0.1412838 0.1410032 0.1408973 0.1409693 0.1411272 0.1412156 0.1411575 0.1410469
 0.1410649 0.1413251 0.1418125 0.1424197 0.1430143 0.1435088 0.1438877 0.1441682 0.1443547 0.1444426
 0.1444308 0.1443197 0.1441181 0.1438462 0.1435146 0.1431181 0.1426577 0.1421401 0.1415594 0.1409056
 0.1401758 0.1393621 0.1384582 0.13747 0.1363804 0.1351482 0.13382 0.1326145 0.1318195 0.1316082
 0.1319496 0.1326469 0.1334718 0.1343108 0.1351247 0.1357516 0.1359413 0.1357507 0.1357637 0.1366666
 0.1385742 0.1408988 0.1428847 0.1441501 0.1447045 0.1446568 0.1440768 0.1430269 0.1415315 0.1395536
 0.1371078 0.1343202 0.1313268 0.1282454 0.1252626 0.1225896 0.1203353 0.1185086 0.1170764 0.1160517
 0.115555 0.1152345 0.1132816 0.1073813 0.09829466 0.0914636 0.09244704 0.1006684 0.1098002 0.1144484
 0.1144673 0.1127486 0.1112882 0.110378 0.1099033 0.1100041 0.1108205 0.1122178 0.1137911 0.1151033
 0.1159593 0.1163851 0.1163523 0.115563 0.1133777 0.1090035 0.1021297 0.09354073 0.08486961 0.07763378
 0.07255405 0.06956351 0.06810226 0.06743758 0.0670374 0.0668275 0.06709212 0.06812344 0.06997202 0.0724897
 0.07549122 0.07874554 0.08187008 0.08446748 0.0864372 0.08798647 0.08928458 0.09025808 0.09075323 0.09074745
 0.09035937 0.08975384 0.08906646 0.0883486 0.08754178 0.08653972 0.08534694 0.08418936 0.08338015 0.08302756
 0.08295595 0.08294154 0.08291163 0.08288895 0.08287887 0.0828624 0.08282587 0.08279622 0.08287738 0.08318065
 0.08367832 0.08419776 0.08457898 0.08478653 0.08488377 0.08491656 0.0847901 0.08433443 0.0835958 0.08290847
 0.0824647 0.08197682 0.08106081 0.07985196 0.07893756 0.07870813 0.0790014 0.07936618 0.07947937 0.07929866
 0.07900833 0.07891737 0.07926497 0.07994942</values></Ydata></ScSm><ScRf><Ydata ylabel="Single channel"><values byteorder="INTEL" format="FLOAT32" numvalues="1820"> 0.06069072 0.06084308 0.06093393 0.06096477 0.06096124 0.06096964 0.0610393 0.0611905 0.06139483 0.06158894
 0.06171759 0.06177039 0.06176969 0.06172919 0.06165559 0.06159326 0.06162156 0.06177852 0.06200445 0.0621794
 0.06221907 0.06214975 0.06209461 0.06215341 0.06227073 0.06225006 0.06194031 0.06141074 0.0609059 0.06061626
 0.06055611 0.06071088 0.06116516 0.06187678 0.06241238 0.0622544 0.06145138 0.06065878 0.06040642 0.06058531
 0.0607562 0.060665 0.06032023 0.05988105 0.05969955 0.06023523 0.06160344 0.06319183 0.06387594 0.06273133
 0.0596972 0.05578351 0.05269215 0.05190233 0.05363293 0.05655092 0.05877119 0.05935754 0.05877205 0.05792361
 0.05718387 0.05650178 0.05604792 0.0562604 0.05724577 0.05835966 0.05853981 0.05722495 0.05502352 0.05327155
 0.05280711 0.05345061 0.05472885 0.05638822 0.05766992 0.05690021 0.05313981 0.04826523 0.04613099 0.04890892
 0.0547713 0.05967035 0.06093346 0.05877425 0.05513372 0.05206789 0.05095363 0.05211822 0.05480073 0.05778347
 0.06012299 0.06118371 0.06047136 0.05806706 0.05505364 0.05299268 0.05296608 0.05515034 0.05877659 0.0621995
 0.06364542 0.06252189 0.05981191 0.05703703 0.05525632 0.05506779 0.0567584 0.06000894 0.06387168 0.06731479
 0.06964113 0.07056719 0.07029225 0.06937465 0.06830504 0.06740993 0.06713922 0.06779715 0.06879815 0.06888382
 0.06749028 0.06550573 0.06435999 0.06454778 0.06523368 0.06526725 0.06434765 0.06284456 0.06066389 0.05721271
 0.05276934 0.0488609 0.04673835 0.04641729 0.04758286 0.05008169 0.05285643 0.05388495 0.05239543 0.05027784
 0.05021276 0.05281228 0.05630517 0.05869617 0.05961405 0.06017109 0.06153697 0.06374394 0.06553465 0.06530711
 0.06269988 0.05948723 0.05832455 0.06014134 0.06324928 0.06542494 0.06625897 0.06690691 0.06806452 0.06888412
 0.06786183 0.06462694 0.06088707 0.05936529 0.06142869 0.06572032 0.06914234 0.06914321 0.06543614 0.06006663
 0.05581956 0.05429113 0.05546943 0.05880331 0.0638105 0.06950451 0.07413834 0.07618222 0.07543088 0.07292935
 0.06977692 0.06610677 0.06164539 0.0573996 0.05587718 0.05872621 0.06463169 0.07040517 0.07382601 0.07475635
 0.07391682 0.07152265 0.06747597 0.06268294 0.05949922 0.05990604 0.06312142 0.06603259 0.06645384 0.06512757
 0.06413287 0.0642953 0.06486526 0.06511036 0.06536599 0.06646532 0.06854658 0.07072556 0.07194632 0.07193906
 0.07128029 0.07072326 0.07051034 0.07018933 0.06925561 0.06815962 0.06825772 0.07032086 0.07346886 0.07607401
 0.07739742 0.07785933 0.07793965 0.07733232 0.0753792 0.07229191 0.06965578 0.06925455 0.07134707 0.07450005
 0.07707675 0.07841842 0.07870955 0.07838926 0.07784486 0.07728004 0.07678539 0.07661572 0.07712799 0.07827249
 0.07946915 0.08018944 0.08039192 0.08026464 0.07985115 0.07912813 0.07827442 0.07767107 0.07762796 0.07815538
 0.07900868 0.07990205 0.08060968 0.08093528 0.08078517 0.08031137 0.07981962 0.07949062 0.07931864 0.07931307
 0.07956885 0.08008477 0.08066644 0.08109212 0.08129428 0.08133438 0.08127572 0.08113596 0.08092979 0.08072281
 0.08063544 0.08075905 0.08104541 0.08133698 0.08155137 0.08176364 0.08203921 0.08227059 0.08228901 0.0820923
 0.08186102 0.08176456 0.08182558 0.08196139 0.08207735 0.08208658 0.08190317 0.08151603 0.08108753 0.080891
 0.0810908 0.08162314 0.08229986 0.08294553 0.08342607 0.08366876 0.08371569 0.08368342 0.0836304 0.08351637
 0.08330777 0.08307918 0.08299206 0.08317343 0.0836014 0.08411307 0.08453497 0.08479013 0.084896 0.08492997
 0.08500086 0.08516586 0.08535032 0.08542152 0.08535998 0.08529266 0.0853387 0.08547208 0.08556031 0.08551945
 0.08541384 0.08539391 0.08553848 0.08578172 0.08600304 0.08615869 0.08630353 0.08649521 0.08669391 0.08677565
 0.08666644 0.0864457 0.08627038 0.08620888 0.08621354 0.08624993 0.08636425 0.08658759 0.08684033 0.08699347
 0.08700903 0.08697543 0.08699583 0.08706822 0.08709604 0.08700441 0.08682142 0.08664747 0.08656823 0.08659972
 0.08669186 0.08676802 0.0867718 0.08669624 0.08657749 0.08645956 0.08636621 0.08631301 0.08633856 0.08649044
 0.08675104 0.08699317 0.08705443 0.08688185 0.08659251 0.08637232 0.08631022 0.0863339 0.08630066 0.08613621
 0.08588207 0.08563028 0.08543812 0.08530343 0.08519517 0.08509374 0.08501659 0.0850153 0.08512489 0.0852939
 0.0853872 0.08529851 0.08505663 0.08479394 0.08462068 0.08455551 0.08455339 0.08456059 0.08455582 0.08456776
 0.08463351 0.08472444 0.08475316 0.08467768 0.08455928 0.08449899 0.08455613 0.08472912 0.08495523 0.08511969
 0.08513096 0.08501583 0.08489892 0.08487451 0.08493449 0.0850236 0.08511512 0.08521128 0.08530895 0.08540127
 0.0855047 0.08565791 0.08588491 0.08616241 0.08642565 0.08661184 0.08671144 0.08678474 0.08692101 0.08716943
 0.08750153 0.08783703 0.08810802 0.08830743 0.08847924 0.08866224 0.08885412 0.08904249 0.08925018 0.08951564
 0.08983534 0.09016181 0.09046084 0.09073967 0.09101684 0.09129514 0.09157525 0.09187998 0.09224924 0.09269981
 0.09318137 0.09358671 0.09383421 0.0939469 0.09403948 0.09423111 0.09456661 0.09498648 0.09535554 0.09556341
 0.09563444 0.09571048 0.09589493 0.09614943 0.09638146 0.09659357 0.09688301 0.0973016 0.0977712 0.0981553
 0.0983907 0.09853473 0.09869263 0.09890646 0.09912004 0.09925683 0.09931852 0.09938134 0.09950142 0.09966993
 0.09987571 0.1001577 0.1005489 0.1009999 0.1014073 0.101706 0.1018998 0.1020239 0.1021118 0.1021842
 0.10224 0.1022722 0.1023035 0.1023742 0.1024788 0.1025584 0.1025804 0.1025893 0.1026546 0.102802
 0.1030228 0.1033096 0.1036407 0.1039592 0.1042232 0.1044739 0.1047958 0.1051894 0.1055327 0.1057095
 0.1057363 0.1057206 0.1057284 0.1057574 0.105818 0.1059625 0.1062202 0.1065556 0.1069125 0.1072665
 0.10762 0.1079674 0.1082791 0.1085091 0.108622 0.1086235 0.1085718 0.1085559 0.1086539 0.1088917
 0.109226 0.1095734 0.1098664 0.110076 0.1101853 0.1101825 0.110107 0.1100675 0.1101589 0.1103546
 0.1105148 0.1105075 0.1102971 0.1099189 0.1094101 0.1087933 0.1081118 0.1074439 0.1068741 0.1064566
 0.1062175 0.1061856 0.1064006 0.1068698 0.1075202 0.1082207 0.1088593 0.109371 0.1096881 0.109715
 0.1093989 0.1088016 0.1080671 0.1073276 0.1066534 0.1060547 0.1054945 0.1049331 0.1044082 0.1040709
 0.1041144 0.1046603 0.1056998 0.1071009 0.1086479 0.1101106 0.1113354 0.1123032 0.1130978 0.1138118
 0.1144863 0.1151343 0.1157804 0.1164409 0.1170809 0.1176393 0.1181021 0.1185139 0.118916 0.1193051
 0.1196524 0.1199364 0.1201607 0.1203578 0.1205622 0.1207589 0.1208814 0.1208852 0.1207996 0.1206852
 0.1205604 0.1203904 0.1201285 0.1197566 0.1193136 0.1189165 0.1187447 0.1189675 0.1196488 0.1207069
 0.1219725 0.1232925 0.124572 0.1257307 0.1266746 0.1273483 0.1277918 0.1281076 0.1283835 0.1286617
 0.1289569 0.1292684 0.1295816 0.1298794 0.1301589 0.1304363 0.1307373 0.131073 0.1314181 0.1317227
 0.1319634 0.1321797 0.1324466 0.1328033 0.1332112 0.1335929 0.1339151 0.134216 0.1345363 0.1348501
 0.1350983 0.1352726 0.1354298 0.1356326 0.1359086 0.136254 0.1366315 0.1369714 0.1372157 0.1373749
 0.1375162 0.1376969 0.1379242 0.1381764 0.1384357 0.1386956 0.1389543 0.1392184 0.139504 0.1398171
 0.1401277 0.1403825 0.1405547 0.1406764 0.1408108 0.1409942 0.1412126 0.1414294 0.141631 0.1418437
 0.1421057 0.1424194 0.1427353 0.1429911 0.1431656 0.1432906 0.1434157 0.1435722 0.1437651 0.1439831
 0.1442093 0.1444295 0.1446393 0.1448438 0.1450509 0.1452644 0.1454823 0.1456969 0.1459008 0.1460957
 0.1462921 0.1464998 0.1467231 0.1469687 0.1472456 0.1475465 0.1478364 0.1480742 0.1482474 0.1483785
 0.1485007 0.1486354 0.1487904 0.1489659 0.1491583 0.1493611 0.1495674 0.1497715 0.1499709 0.1501683
 0.150369 0.1505751 0.1507839 0.1509907 0.1511961 0.1514075 0.1516319 0.1518654 0.1520928 0.152301
 0.1524907 0.152676 0.1528728 0.153084 0.1532959 0.1534914 0.1536712 0.1538535 0.1540505 0.1542534
 0.1544452 0.1546222 0.1547963 0.1549809 0.1551794 0.1553835 0.1555823 0.1557717 0.1559571 0.1561468
 0.1563436 0.1565444 0.1567463 0.156951 0.157161 0.1573731 0.1575821 0.1577885 0.1579978 0.1582101
 0.1584167 0.158609 0.1587864 0.1589567 0.1591298 0.1593122 0.1595057 0.1597092 0.159919 0.1601286
 0.1603344 0.1605397 0.160748 0.1609586 0.1611716 0.1613909 0.1616152 0.1618358 0.1620479 0.1622545
 0.1624584 0.1626584 0.1628553 0.1630546 0.1632641 0.1634891 0.1637253 0.163958 0.164173 0.1643664
 0.1645419 0.1647069 0.1648715 0.1650442 0.1652266 0.1654157 0.1656077 0.1657982 0.1659836 0.1661667
 0.1663536 0.166547 0.1667466 0.1669506 0.1671547 0.1673549 0.167553 0.167752 0.1679504 0.1681467
 0.1683419 0.1685363 0.1687322 0.1689371 0.1691535 0.1693731 0.1695889 0.1698035 0.1700197 0.1702345
 0.1704465 0.1706588 0.1708761 0.1711027 0.1713362 0.1715628 0.1717707 0.1719649 0.1721594 0.1723607
 0.172568 0.1727783 0.1729854 0.1731852 0.17338 0.1735724 0.1737625 0.1739572 0.1741654 0.1743851
 0.1746081 0.1748321 0.1750572 0.1752814 0.1755062 0.1757309 0.1759458 0.1761468 0.1763466 0.1765557
 0.1767696 0.1769843 0.1771985 0.177393 0.1775145 0.1774393 0.1768794 0.1752753 0.1717784 0.1654231
 0.1555269 0.1421377 0.1261641 0.1090391 0.09219714 0.07671958 0.0632426 0.05203362 0.04312539 0.03641954
 0.03176139 0.02903066 0.02822053 0.02953127 0.03349465 0.04066711 0.05041155 0.05980626 0.06477709 0.06331798
 0.05741125 0.05121937 0.04762159 0.04681896 0.04757805 0.04884858 0.05029957 0.05212205 0.0546435 0.0579576
 0.06190857 0.06649496 0.07206717 0.07888769 0.08659909 0.09436971 0.1016103 0.108443 0.1154261 0.1228877
 0.1305821 0.1379324 0.1444942 0.1501787 0.1551621 0.1596847 0.1639167 0.1679406 0.1717931 0.1754607
 0.1788023 0.1815241 0.1833245 0.1841253 0.1841696 0.1838799 0.183612 0.1835245 0.1836306 0.183904
 0.1843247 0.1848764 0.1855422 0.1862995 0.1871136 0.187948 0.1887811 0.1895999 0.1903878 0.1911294
 0.1918192 0.1924561 0.1930384 0.1935664 0.1940428 0.1944717 0.1948628 0.1952324 0.1955944 0.1959534
 0.1963056 0.1966415 0.1969481 0.1972182 0.1974555 0.1976707 0.197877 0.1980868 0.1983042 0.198523
 0.1987351 0.1989415 0.199148 0.1993573 0.1995681 0.1997791 0.1999893 0.2001968 0.2003982 0.2005879
 0.2007642 0.2009355 0.2011167 0.2013169 0.2015325 0.2017516 0.2019613 0.2021531 0.2023276 0.2024936
 0.2026647 0.2028543 0.2030667 0.2032894 0.2035044 0.2037075 0.2039078 0.2041107 0.2043143 0.2045207
 0.2047343 0.2049539 0.2051781 0.2054081 0.2056325 0.2058243 0.2059703 0.2060962 0.2062503 0.2064603
 0.2067083 0.2069504 0.2071604 0.2073477 0.2075322 0.2077181 0.2078983 0.2080694 0.2082396 0.2084323
 0.208674 0.2089594 0.2092463 0.2095 0.209725 0.2099407 0.2101569 0.21038 0.210609 0.210816
 0.2109652 0.2110672 0.2111955 0.2114331 0.2117926 0.2121971 0.2125494 0.2128183 0.2130392 0.2132594
 0.2135063 0.2137676 0.2139603 0.2139857 0.2138842 0.2138728 0.2141487 0.2146897 0.2153004 0.215808
 0.2161697 0.2164342 0.2166591 0.2168571 0.2169921 0.2170269 0.2169995 0.2170506 0.2173286 0.2178338
 0.2184002 0.2188621 0.2191856 0.2194167 0.2195967 0.2197541 0.219858 0.219756 0.2193345 0.2188086
 0.2186724 0.2192202 0.2202151 0.2211435 0.2217266 0.222066 0.2223557 0.2226409 0.2228702 0.2229457
 0.2226177 0.2216259 0.2202087 0.2192465 0.2195389 0.221002 0.2228113 0.2242249 0.2250541 0.2254845
 0.2257524 0.2259817 0.2260888 0.2257985 0.224953 0.2239073 0.2234331 0.2240098 0.2252899 0.2264743
 0.227127 0.2274022 0.2276158 0.2278907 0.2280742 0.2276925 0.2262175 0.2238473 0.2218997 0.2218851
 0.2240321 0.2270186 0.2292839 0.2303666 0.2307832 0.2308852 0.2303304 0.2286952 0.2261206 0.2232508
 0.2210177 0.2205017 0.2222199 0.2252463 0.2277385 0.2287524 0.2290381 0.2298159 0.2313248 0.2328334
 0.2335819 0.2333679 0.2324233 0.2310005 0.2292476 0.227588 0.2269524 0.2281217 0.2307766 0.2336094
 0.2355295 0.2364889 0.2369155 0.2364426 0.2336524 0.2277828 0.2208625 0.2171542 0.2193961 0.2259394
 0.2325167 0.2364386 0.2380745 0.2388514 0.2393323 0.2390581 0.2368283 0.2313698 0.2233521 0.2166345
 0.2156519 0.2210366 0.2289114 0.2345035 0.2353718 0.2316656 0.225307 0.219433 0.2170967 0.2194069
 0.2250509 0.2316007 0.2369712 0.2399856 0.2403581 0.2385922 0.2359636 0.2342107 0.234263 0.2348705
 0.2335621 0.2297635 0.2257448 0.223295 0.2209745 0.2167976 0.2125919 0.2127934 0.2186688 0.2261812
 0.2305192 0.2309724 0.2300675 0.2289783 0.2255258 0.2173129 0.2062555 0.1986955 0.1998598 0.2084308
 0.2177167 0.2222052 0.2219498 0.2206219 0.2206136 0.2205918 0.2173706 0.210064 0.2022253 0.1988778
 0.2011871 0.2054274 0.2074073 0.2058171 0.2008013 0.192631 0.1840965 0.1813815 0.188872 0.2038167
 0.2184654 0.2264414 0.2251022 0.2142018 0.1968014 0.1811214 0.1765471 0.1852358 0.199499 0.2088671
 0.2084124 0.1996654 0.1861315 0.170862 0.1578664 0.1526241 0.15883 0.1746195 0.1925252 0.203187
 0.2005564 0.1866214 0.1718417 0.1676428 0.1760122 0.1880888 0.1940582 0.1920455 0.1867926 0.1835674
 0.1851202 0.1911089 0.1984634 0.2042955 0.2082159 0.2091036 0.2020234 0.1841561 0.1626546 0.1499197
 0.1507281 0.1598268 0.1718461 0.1861049 0.2000936 0.206189 0.2002445 0.18942 0.1860571 0.1945766
 0.2077088 0.2153852 0.2147009 0.2104271 0.2076726 0.2064611 0.2042691 0.2018967 0.2036837 0.2115049
 0.2214828 0.2283215 0.2308266 0.2314056 0.2319926 0.2325828 0.2326277 0.2319339 0.2305772 0.229032
 0.2280281 0.2277374 0.2276134 0.2272121 0.2261754 0.2229941 0.2153436 0.2033504 0.1916455 0.1856881
 0.1859832 0.1884875 0.1906328 0.1928246 0.1928124 0.1840948 0.1644958 0.1432227 0.1341546 0.1424192
 0.1605749 0.177109 0.1852592 0.1836009 0.1726289 0.1549758 0.1381311 0.1320561 0.1410433 0.1595964
 0.1783032 0.1919324 0.1999558 0.202022 0.1970115 0.1862765 0.1748936 0.1687396 0.170935 0.1805023
 0.1926663 0.2000396 0.1962542 0.182325 0.1694188 0.1705666 0.1869656 0.2059431 0.2152068 0.2152774
 0.2143871 0.2156917 0.2157612 0.2136324 0.214382 0.2222015 0.2342583 0.2434921 0.2448155 0.2371265
 0.2226445 0.2073911 0.1996046 0.2030991 0.2128608 0.2204398 0.222086 0.2182465 0.2085968 0.1941089
 0.1822844 0.1826439 0.1957037 0.2117465 0.2218604 0.226058 0.2292132 0.2326674 0.2325914 0.2257696
 0.2149538 0.2071648 0.2067639 0.2116582 0.2168803 0.2198262 0.2203048 0.2175904 0.2108679 0.2026127
 0.1986215 0.2029852 0.2138321 0.2250391 0.2316771 0.2330951 0.2315134 0.2291316 0.2266361 0.2233652
 0.2187905 0.2144289 0.2135346 0.217629 0.2240891 0.2288518 0.2310594 0.2333274 0.2376153 0.2425152
 0.2449617 0.2435775 0.2399847 0.2373955 0.2380419 0.2414096 0.2446203 0.2448819 0.2421406 0.2393806
 0.2398786 0.2440771 0.2495202 0.2536495 0.2558941 0.2571369 0.258203 0.2591324 0.2591455 0.2572296
 0.2535692 0.2503725 0.2503061 0.2538511 0.2588476 0.2627298 0.2646027 0.2650945 0.264938 0.2642095
 0.2627444 0.2608259 0.2592121 0.2585324 0.2588311 0.2597173 0.2607684 0.2617123 0.2624163 0.2628751
 0.2631702 0.263371 0.2635041 0.2636054 0.2637039 0.2637495 0.2636629 0.2634965 0.2634493 0.2636548
 0.2640164 0.2643114 0.2643907 0.2641959 0.2636524 0.2626894 0.2613723 0.2598847 0.2583295 0.2566601
 0.2549198 0.2535086 0.2530645 0.253979 0.2560304 0.2585202 0.2607496 0.262367 0.263361 0.263877
 0.2640854 0.2641355 0.2641242 0.2640768 0.2639688 0.2637731 0.2634854 0.26312 0.2627034 0.2622782
 0.2618946 0.2615795 0.2613111 0.2610351 0.2607026 0.2602927 0.2598141 0.2592958 0.2587633 0.2582058
 0.2575708 0.2568066 0.2559114 0.2549434 0.2539895 0.2531176 0.2523381 0.2516015 0.250845 0.2500362
 0.2491569 0.2481653 0.2470338 0.2458334 0.2447253 0.2438303 0.2431306 0.2425119 0.2418634 0.2411216
 0.2402633 0.2393029 0.2382797 0.2372226 0.2361323 0.2350002 0.233822 0.2325841 0.2312596 0.2298335
 0.2283177 0.2267363 0.2251112 0.2234614 0.2217867 0.2200317 0.2180766 0.2157736 0.2129929 0.2096471
 0.2057126 0.201259 0.1964547 0.1915155 0.1866339 0.181951 0.1775855 0.1736613 0.1702935 0.1675557
 0.1654776 0.1640721 0.1633531 0.1633316 0.164002 0.1653322 0.1672578 0.1696792 0.1724613 0.1754384
 0.1784298 0.1812737 0.1838765 0.1862463 0.1884609 0.1905802 0.1925859 0.1944155 0.1960371 0.1974642
 0.1987106 0.1997673 0.2006312 0.2013288 0.2019025 0.2023867 0.2028018 0.203161 0.2034754 0.2037515
 0.2039903 0.2041935 0.2043738 0.2045509 0.2047414 0.2049565 0.2052074 0.2055067 0.2058666 0.206295
 0.2067852 0.207315 0.2078662 0.2084428 0.2090594 0.2097249 0.2104524 0.2112773 0.2122457 0.2133786
 0.2146534 0.2160169 0.2174059 0.2187508 0.2199701 0.2209817 0.221732 0.2222136 0.2224566 0.2225101
 0.2224257 0.2222379 0.2219557 0.2215814 0.2211319 0.2206281 0.2200749 0.2194672 0.2188092 0.2181156
 0.217401 0.2166822 0.2159793 0.2153031 0.2146459 0.2139973 0.2133646 0.2127618 0.2121817 0.2115963
 0.2109918 0.2103894 0.2098161 0.2092646 0.2086977 0.2080823 0.2074035 0.2066549 0.2058327 0.2049367
 0.2039596 0.202882 0.2016889 0.2003883 0.1990045 0.1975558 0.1960436 0.1944629 0.1928162 0.1911068
 0.1893172 0.1874152 0.1854024 0.1833469 0.181348 0.1794739 0.1777455 0.1761575 0.1746906 0.1733153
 0.1720037 0.1707375 0.1695032 0.1682975 0.1671385 0.1660552 0.1650617 0.1641496 0.1633012 0.1625085
 0.1617825 0.161143 0.1605941 0.1601183 0.1596964 0.1593265 0.1590264 0.1588279 0.1587557 0.1587943
 0.15888 0.1589359 0.1589132 0.1588101 0.1586674 0.1585402 0.1584565 0.1584028 0.1583485 0.1582605
 0.1580893 0.157762 0.1571976 0.1563306 0.1551365 0.153643 0.1519208 0.1500718 0.1482285 0.1465295
 0.1450729 0.1439017 0.1430197 0.1423853 0.1419102 0.1415103 0.1411685 0.1409383 0.1408957 0.1410625
 0.1413397 0.1415524 0.1416159 0.1416315 0.1417866 0.1421929 0.1428339 0.1436045 0.14437 0.1450273
 0.1455354 0.1458943 0.1461254 0.1462646 0.1463305 0.1463051 0.1461757 0.1459709 0.1457265 0.1454507
 0.1451301 0.1447345 0.1442301 0.143618 0.1429322 0.1421876 0.141378 0.1405014 0.1395244 0.1383794
 0.1370999 0.1359181 0.1351467 0.1349776 0.1353934 0.1362091 0.1372082 0.1382748 0.1393346 0.1401698
 0.1405037 0.1404162 0.1405293 0.141557 0.1436364 0.1461822 0.1484016 0.1498666 0.1505767 0.1506561
 0.1501798 0.1491979 0.1477194 0.1457022 0.1431783 0.1403021 0.1372196 0.1340448 0.1309712 0.1282229
 0.1259109 0.1240511 0.1226295 0.1216699 0.121289 0.121103 0.1191996 0.1131431 0.1037574 0.09678793
 0.09804863 0.1068666 0.1165738 0.1215533 0.1216977 0.1200302 0.1185965 0.1176632 0.1171051 0.1170929
 0.117796 0.1190812 0.1205363 0.1217337 0.1225059 0.1229097 0.1229231 0.1221888 0.1199457 0.1152945
 0.1079198 0.09871116 0.08944609 0.0817387 0.07631852 0.0730772 0.07143012 0.07064675 0.07018784 0.06995814
 0.07023406 0.07131324 0.07324896 0.0758962 0.07907085 0.08252494 0.08585196 0.08864917 0.0908169 0.09254427
 0.09397835 0.09504636 0.09560905 0.09564821 0.09527107 0.09462802 0.093862 0.09306519 0.09221775 0.09120244
 0.08997837 0.08875066 0.08785572 0.08743811 0.08734095 0.08733182 0.08731218 0.08729126 0.08728616 0.08728728
 0.08726509 0.087228 0.08728677 0.08757304 0.08806329 0.08856659 0.08890583 0.0890568 0.08911061 0.08910921
 0.08891115 0.08831853 0.08741556 0.08659641 0.08606318 0.08548833 0.08445899 0.08312748 0.08211987 0.08184625
 0.08213855 0.08253321 0.08268641 0.08251459 0.0821723 0.08199941 0.08229893 0.08298276 0.08354214 0.08354004
</values></Ydata></ScRf><Data_Parameters_AB><parameter name="DPF">1</parameter><parameter name="NPT">3497</parameter><parameter name="FXV">3996</parameter><parameter name="LXV">500</parameter><parameter name="CSF">1</parameter><parameter name="MXY">0.13011172413826</parameter><parameter name="MNY">-0.0593767501413822</parameter><parameter name="DAT">01/06/2022</parameter><parameter name="TIM">12:00:51.585 (GMT+2)</parameter><parameter name="DXU">WN</parameter></Data_Parameters_AB><AB__Qtest><MainReport name="Quality Test Report"><Header><Line><Legend>Test result ok/not ok [1/0]: </Legend><Value>0</Value></Line><Line><Legend>Method file: </Legend><Value>C:\Users\Public\Documents\Bruker\OPUS_8.2.28\QT\IRBT_v3_default.QT</Value></Line></Header><Matrix><Line><Legend></Legend><Legend>min</Legend><Legend>max</Legend><Legend>measured</Legend></Line><Line><Value>Absorption (X-Range 1):</Value><Value>0.400000</Value><Value>2.000000</Value><Value>0.129360</Value></Line><Line><Value>Noise (X-Range 4):</Value><Value></Value><Value>0.000300</Value><Value>0.000051</Value></Line><Line><Value>Signal/Noise (X-Range 2):</Value><Value>200.000000</Value><Value></Value><Value>35.235894</Value></Line><Line><Value>Signal/Noise (X-Range 3):</Value><Value>40.000000</Value><Value></Value><Value>24.429906</Value></Line><Line><Value>Water vapour (X-Range 5):</Value><Value></Value><Value>0.000300</Value><Value>0.000085</Value></Line><Line><Value>Signal/Water (X-Range 2):</Value><Value>100.000000</Value><Value></Value><Value>21.228193</Value></Line><Line><Value>Signal/Water (X-Range 3):</Value><Value>20.000000</Value><Value></Value><Value>14.718025</Value></Line><Line><Value>Fringes (X-Range 6):</Value><Value></Value><Value>0.000100</Value><Value>0.000091</Value></Line></Matrix></MainReport></AB__Qtest><Data_Parameters_ScSm><parameter name="DPF">1</parameter><parameter name="NPT">1814</parameter><parameter name="FXV">3996.33169228125</parameter><parameter name="LXV">499.541461535156</parameter><parameter name="CSF">1</parameter><parameter name="MXY">0.274416297674179</parameter><parameter name="MNY">0.0322256237268448</parameter><parameter name="DAT">01/06/2022</parameter><parameter name="TIM">12:00:51.585 (GMT+2)</parameter><parameter name="DXU">WN</parameter></Data_Parameters_ScSm><Data_Parameters_ScRf><parameter name="DPF">1</parameter><parameter name="NPT">1820</parameter><parameter name="FXV">4004.04661832813</parameter><parameter name="LXV">495.683998511719</parameter><parameter name="CSF">1</parameter><parameter name="MXY">0.265094548463821</parameter><parameter name="MNY">0.028220534324646</parameter><parameter name="DAT">01/06/2022</parameter><parameter name="TIM">12:00:25.474 (GMT+2)</parameter><parameter name="DXU">WN</parameter></Data_Parameters_ScRf><Optic_Parameters_Rf><parameter name="APR">0</parameter><parameter name="APT">Open</parameter><parameter name="BMS">KBr</parameter><parameter name="DTC">RT-DLaTGS_IR-Biotyper [Microplate reader]</parameter><parameter name="HPF">0</parameter><parameter name="LPF">10.0</parameter><parameter name="LPV">4000</parameter><parameter name="PGR">0</parameter><parameter name="RCH">Module port</parameter><parameter name="RDX">0</parameter><parameter name="SRC">MIR</parameter><parameter name="VEL">10.0</parameter><parameter name="SON">Off</parameter></Optic_Parameters_Rf><Acquisition_Parameters_Rf><parameter name="ADT">1</parameter><parameter name="AQM">DD</parameter><parameter name="CFE">0</parameter><parameter name="COR">0</parameter><parameter name="DEL">0</parameter><parameter name="DLY">0</parameter><parameter name="HFW">8000</parameter><parameter name="LFW">0</parameter><parameter name="NSR">32</parameter><parameter name="PLF">AB</parameter><parameter name="RES">6</parameter><parameter name="RGN">-1</parameter><parameter name="STR">0</parameter><parameter name="TCL">MakeCompatibleScalar (0, {WSV=1.000000, ARV=0});</parameter><parameter name="TDL">37</parameter><parameter name="RPO">0</parameter></Acquisition_Parameters_Rf><FT_-_Parameters_Rf><parameter name="APF">B3</parameter><parameter name="HFQ">500</parameter><parameter name="LFQ">4000</parameter><parameter name="NLI">0</parameter><parameter name="PHR">24</parameter><parameter name="PHZ">ML</parameter><parameter name="SPZ">NO</parameter><parameter name="ZFF">1</parameter></FT_-_Parameters_Rf><Optic_Parameters_><parameter name="APR">0</parameter><parameter name="APT">Open</parameter><parameter name="BMS">KBr</parameter><parameter name="CHN">Module port</parameter><parameter name="DTC">RT-DLaTGS_IR-Biotyper [Microplate reader]</parameter><parameter name="HPF">0</parameter><parameter name="LPF">10.0</parameter><parameter name="LPV">4000</parameter><parameter name="PGN">0</parameter><parameter name="RDX">0</parameter><parameter name="SRC">MIR</parameter><parameter name="VEL">10.0</parameter><parameter name="SON">Off</parameter></Optic_Parameters_><FT_-_Parameters_><parameter name="APF">B3</parameter><parameter name="HFQ">500</parameter><parameter name="LFQ">4000</parameter><parameter name="NLI">0</parameter><parameter name="PHR">24</parameter><parameter name="PHZ">ML</parameter><parameter name="SPZ">NO</parameter><parameter name="ZFF">1</parameter></FT_-_Parameters_><Acquisition_Parameters_><parameter name="ADT">1</parameter><parameter name="AQM">DD</parameter><parameter name="CFE">0</parameter><parameter name="COR">0</parameter><parameter name="DEL">0</parameter><parameter name="DLY">0</parameter><parameter name="HFW">8000</parameter><parameter name="LFW">0</parameter><parameter name="NSS">32</parameter><parameter name="PLF">AB</parameter><parameter name="RES">6</parameter><parameter name="SOT">0</parameter><parameter name="TCL">MakeCompatibleScalar (0, {WSV=1.000000, ARV=0});</parameter><parameter name="TDL">37</parameter><parameter name="SPO">0</parameter><parameter name="SGN">-1</parameter></Acquisition_Parameters_><Instrument_Parameters_Rf><parameter name="HFL">15800.168544</parameter><parameter name="LFL">0</parameter><parameter name="LWN">15800.168544</parameter><parameter name="ABP">32197</parameter><parameter name="SSP">1</parameter><parameter name="ARG">2</parameter><parameter name="ASG">2</parameter><parameter name="ASS">32</parameter><parameter name="GFW">16</parameter><parameter name="GBW">16</parameter><parameter name="BFW">0</parameter><parameter name="BBW">0</parameter><parameter name="PKA">7312</parameter><parameter name="PKL">4990</parameter><parameter name="PRA">7482</parameter><parameter name="PRL">5001</parameter><parameter name="P2A">1</parameter><parameter name="P2L">1</parameter><parameter name="P2R">1</parameter><parameter name="P2K">1</parameter><parameter name="DAQ">0</parameter><parameter name="AG2">1</parameter><parameter name="SSM">1</parameter><parameter name="RSN">25971</parameter><parameter name="CRR">0</parameter><parameter name="SRT">1654084825.475</parameter><parameter name="DUR">19.6389923095703</parameter><parameter name="TSC">29</parameter><parameter name="MVD">0.284801751375198</parameter><parameter name="AN1">0.22582721257232</parameter><parameter name="AN2">0</parameter><parameter name="VSN">2.485 Apr  4 2017</parameter><parameter name="SRN">0085</parameter><parameter name="CAM">0</parameter><parameter name="INS">IR-Biotyper</parameter><parameter name="FOC">69</parameter><parameter name="RDY">1</parameter><parameter name="ARS">32</parameter></Instrument_Parameters_Rf><Sample_Parameters_><parameter name="BLD"></parameter><parameter name="CNM">Admin</parameter><parameter name="CPY"></parameter><parameter name="DPM"></parameter><parameter name="EXP">IRBT_v3_32Scans.XPM</parameter><parameter name="LCT"></parameter><parameter name="SFM">Microplate, HTS-XT</parameter><parameter name="SNM">220601-1028(v.3)_RTF49M (D_13)_D9_f96dd76a-41df-4014-a817-0528c41e2558.0</parameter><parameter name="XPP">C:\Users\Public\Documents\Bruker\OPUS_8.2.28\XPM</parameter><parameter name="IST">OK</parameter><parameter name="CPG">1252</parameter><parameter name="UID">a8fa5f90-a71c-4bb4-803d-a82db7e718e1</parameter></Sample_Parameters_><Instrument_Parameters_><parameter name="HFL">15800.168544</parameter><parameter name="LFL">0</parameter><parameter name="LWN">15800.168544</parameter><parameter name="ABP">32197</parameter><parameter name="SSP">1</parameter><parameter name="ASG">2</parameter><parameter name="ARG">2</parameter><parameter name="ASS">32</parameter><parameter name="GFW">16</parameter><parameter name="GBW">16</parameter><parameter name="BFW">0</parameter><parameter name="BBW">0</parameter><parameter name="PKA">7580</parameter><parameter name="PKL">4988</parameter><parameter name="PRA">7817</parameter><parameter name="PRL">4993</parameter><parameter name="P2A">1</parameter><parameter name="P2L">1</parameter><parameter name="P2R">1</parameter><parameter name="P2K">1</parameter><parameter name="DAQ">0</parameter><parameter name="AG2">1</parameter><parameter name="SSM">1</parameter><parameter name="RSN">13611</parameter><parameter name="CRR">0</parameter><parameter name="SRT">1654084851.585</parameter><parameter name="DUR">19.6389923095703</parameter><parameter name="TSC">29</parameter><parameter name="MVD">0.213862970471382</parameter><parameter name="AN1">0.225821206835516</parameter><parameter name="AN2">0</parameter><parameter name="VSN">2.485 Apr  4 2017</parameter><parameter name="SRN">0085</parameter><parameter name="CAM">0</parameter><parameter name="INS">IR-Biotyper</parameter><parameter name="FOC">69</parameter><parameter name="RDY">1</parameter></Instrument_Parameters_><History/></OPUSDataFile>
