<?xml version="1.0" encoding="UTF-8" ?>
<OPUSDataFile><AB><Ydata ylabel="Absorbance Units"><values byteorder="INTEL" format="FLOAT32" numvalues="3497"> -0.03645261 -0.03643646 -0.03639736 -0.03633495 -0.03625405 -0.0361549 -0.03604643 -0.03592987 -0.03582224 -0.03572556
 -0.03566143 -0.03562899 -0.03563933 -0.03568457 -0.03575328 -0.03583538 -0.03590801 -0.03596995 -0.03600865 -0.03603348
 -0.03604731 -0.03605902 -0.03607516 -0.03609656 -0.03612547 -0.03615882 -0.03619649 -0.03623491 -0.03627413 -0.03630667
 -0.03633209 -0.03634102 -0.03633291 -0.03630563 -0.03625988 -0.03620392 -0.03613914 -0.03607778 -0.03602066 -0.03597695
 -0.03594704 -0.03593643 -0.03594493 -0.03597549 -0.03602521 -0.03609326 -0.03617319 -0.03626053 -0.03634823 -0.03643195
 -0.03650571 -0.03656732 -0.0366093 -0.03662922 -0.03662328 -0.03658867 -0.03653831 -0.03647205 -0.03641692 -0.03637443
 -0.03636181 -0.03637797 -0.03641248 -0.03646242 -0.03650377 -0.03653792 -0.03655618 -0.03656363 -0.0365689 -0.03657354
 -0.0365846 -0.03660019 -0.03662021 -0.03664463 -0.03667383 -0.03670644 -0.03674375 -0.03677728 -0.03680423 -0.03681832
 -0.03681495 -0.03680511 -0.0367884 -0.03678587 -0.03679992 -0.03684016 -0.03690732 -0.03699039 -0.03708777 -0.03717501
 -0.03725056 -0.03729127 -0.03729966 -0.03727027 -0.03721134 -0.03713953 -0.03706182 -0.03699878 -0.0369492 -0.0369213
 -0.03690695 -0.03690381 -0.03690038 -0.0368889 -0.03686543 -0.03682346 -0.03677689 -0.03672585 -0.03669371 -0.03668512
 -0.03670971 -0.03677041 -0.03685097 -0.03695069 -0.03704036 -0.03711937 -0.03717275 -0.03720317 -0.03721932 -0.03722495
 -0.03723904 -0.03726196 -0.03730593 -0.03736488 -0.03743564 -0.03750857 -0.03757042 -0.03761728 -0.03764042 -0.0376431
 -0.03762358 -0.03758999 -0.03754207 -0.03749875 -0.03746232 -0.03745959 -0.03749571 -0.03758656 -0.03773699 -0.03792232
 -0.038142 -0.0382975 -0.03838529 -0.03832629 -0.03813751 -0.03789124 -0.03760167 -0.03736359 -0.03717054 -0.03705351
 -0.03700217 -0.03701605 -0.0370782 -0.03717251 -0.03727456 -0.03735715 -0.03741246 -0.03742164 -0.03741167 -0.03738758
 -0.03737581 -0.0373886 -0.03741642 -0.03746088 -0.03750053 -0.03753219 -0.03755603 -0.03757171 -0.03759828 -0.03763621
 -0.03769659 -0.03777631 -0.03786216 -0.03794813 -0.03800345 -0.03802688 -0.03799592 -0.03792191 -0.037811 -0.03768186
 -0.03755953 -0.03745548 -0.03738943 -0.03735926 -0.03737121 -0.03741297 -0.03748316 -0.03756381 -0.03765116 -0.03772715
 -0.03778791 -0.03782428 -0.03783429 -0.03782109 -0.03778471 -0.03773372 -0.03766849 -0.03759556 -0.0375149 -0.03742895
 -0.03733853 -0.03724742 -0.03715811 -0.0370786 -0.0370113 -0.03696513 -0.03693807 -0.03693309 -0.03694192 -0.03695997
 -0.03697674 -0.0369842 -0.03697911 -0.03695627 -0.03692447 -0.03688376 -0.03684846 -0.03682131 -0.03680987 -0.0368158
 -0.03683592 -0.0368702 -0.03691205 -0.03696117 -0.03701194 -0.03706402 -0.03711224 -0.03715655 -0.03719344 -0.03722421
 -0.03725019 -0.03727299 -0.0372964 -0.03732035 -0.03734593 -0.03737381 -0.03740316 -0.03744042 -0.03748794 -0.03755456
 -0.03764598 -0.03776049 -0.03790209 -0.03804975 -0.03820229 -0.03833029 -0.03843062 -0.0384822 -0.0384836 -0.03841601
 -0.03827989 -0.03807832 -0.03781925 -0.03755886 -0.03730513 -0.037123 -0.03700708 -0.03698116 -0.0370248 -0.03711754
 -0.03722969 -0.03731087 -0.03735941 -0.03734736 -0.03731225 -0.03726938 -0.0372437 -0.03725475 -0.03728941 -0.03735249
 -0.03740517 -0.0374414 -0.03743221 -0.03737114 -0.03727221 -0.03713539 -0.03700307 -0.03687703 -0.0367901 -0.03674068
 -0.03673547 -0.0367681 -0.03681874 -0.03687819 -0.03690914 -0.03691459 -0.03687835 -0.03681841 -0.03675344 -0.03668948
 -0.0366427 -0.0365991 -0.03655587 -0.03649738 -0.03641307 -0.03630878 -0.03618004 -0.03605542 -0.0359387 -0.03585572
 -0.03581132 -0.03580466 -0.03583678 -0.03586914 -0.03589887 -0.03586787 -0.03577891 -0.03562 -0.03540499 -0.03518536
 -0.03496875 -0.0348025 -0.03468471 -0.03463453 -0.03464509 -0.03472149 -0.0348388 -0.03498628 -0.03511504 -0.03519148
 -0.03518932 -0.03507926 -0.03489769 -0.03464674 -0.03437002 -0.0340788 -0.03377894 -0.03347297 -0.03315345 -0.0328198
 -0.03247469 -0.03211906 -0.03177068 -0.03143262 -0.03113618 -0.03088303 -0.03070026 -0.03058003 -0.03051818 -0.03049955
 -0.03049421 -0.03049256 -0.03047267 -0.03042327 -0.03033165 -0.03017634 -0.02993312 -0.02961782 -0.02921896 -0.02880637
 -0.02840009 -0.02803503 -0.02772626 -0.02745178 -0.02721202 -0.02697263 -0.02673101 -0.02647494 -0.02620512 -0.02594081
 -0.02568364 -0.02545838 -0.02525851 -0.02507432 -0.02488903 -0.02464762 -0.02434928 -0.02395402 -0.02350229 -0.02303101
 -0.02257036 -0.02216837 -0.02181297 -0.02151333 -0.02124321 -0.0209938 -0.02074592 -0.02049129 -0.02022498 -0.01994394
 -0.01965319 -0.01935318 -0.01904617 -0.01873257 -0.01840532 -0.01806414 -0.01770304 -0.01732339 -0.01693286 -0.01653337
 -0.01613781 -0.01574565 -0.01536176 -0.01498527 -0.01461672 -0.01425573 -0.01390267 -0.01355531 -0.01321111 -0.0128706
 -0.01253218 -0.01220117 -0.01188266 -0.01156696 -0.01125766 -0.01091828 -0.01054182 -0.01010533 -0.009600285 -0.009068727
 -0.008512069 -0.007996961 -0.007524943 -0.007112868 -0.006756592 -0.006431079 -0.00613323 -0.005836213 -0.005540941 -0.005235521
 -0.004923865 -0.004608073 -0.004290835 -0.003979044 -0.003666643 -0.003353865 -0.003024428 -0.002667253 -0.002274685 -0.001834815
 -0.001370289 -0.0008823493 -0.0004046342 5.504686E-05 0.0004823842 0.0008732318 0.001236196 0.001571078 0.001901531 0.002228816
 0.002577017 0.0029457 0.003342517 0.003765245 0.00420767 0.004669397 0.005147217 0.005639225 0.00614397 0.006649982
 0.007142936 0.00760961 0.00802874 0.008406124 0.008734834 0.009038362 0.009325488 0.009612131 0.009907549 0.01020541
 0.01050639 0.01080013 0.01108359 0.01136925 0.01165719 0.01197644 0.01232773 0.0127196 0.01314813 0.01358432
 0.01402438 0.01443327 0.01481627 0.01516882 0.01550127 0.01583323 0.01616747 0.01651871 0.01687804 0.0172431
 0.0176034 0.01794916 0.0182822 0.01859784 0.01891236 0.01922924 0.0195629 0.01991861 0.02029244 0.02068571
 0.02108161 0.02147903 0.02186468 0.02223809 0.02259491 0.02293538 0.02325958 0.02356793 0.02386185 0.02414244
 0.02441301 0.02467589 0.02493651 0.02519839 0.02546914 0.02574927 0.02604359 0.02634613 0.02665473 0.02696362
 0.02726799 0.02757189 0.02787519 0.02818389 0.02850071 0.02881928 0.02913954 0.02945159 0.02975426 0.03005269
 0.03034736 0.03065175 0.03096515 0.03128779 0.03161648 0.03193649 0.0322458 0.03252999 0.03279108 0.03302478
 0.03323755 0.03343522 0.03362671 0.03382303 0.03402845 0.03425097 0.0344849 0.03473057 0.03497869 0.03522575
 0.03546929 0.03570724 0.03594568 0.03618491 0.03643216 0.03668826 0.03695216 0.03722352 0.03749109 0.03775466
 0.03800617 0.03824881 0.03849305 0.03874267 0.03901711 0.03931158 0.03962915 0.03995519 0.04027097 0.04056445
 0.04081433 0.04102398 0.0411857 0.04131795 0.04142531 0.04152946 0.04163853 0.04176372 0.04191021 0.04207341
 0.04225427 0.04243878 0.04262589 0.04280563 0.04297785 0.04314727 0.04331531 0.04349789 0.04369472 0.04391491
 0.04415309 0.04439883 0.04464516 0.04487105 0.04507742 0.04525335 0.04541169 0.04555953 0.04571231 0.04588476
 0.04607845 0.0463022 0.04653589 0.04677748 0.046999 0.04719255 0.04735065 0.04746873 0.04756969 0.04765479
 0.04774777 0.04784911 0.04794858 0.0480436 0.04810334 0.04813034 0.04811793 0.0480768 0.04803604 0.04800414
 0.0480155 0.04806554 0.04816552 0.04829914 0.04845571 0.04861818 0.04876956 0.04890762 0.04902231 0.04913491
 0.04924793 0.04938916 0.0495683 0.04978227 0.05003623 0.05028332 0.05052089 0.05069771 0.05081201 0.05085803
 0.05083989 0.05079594 0.05072838 0.05066984 0.05061509 0.05056309 0.05051256 0.05045596 0.05040526 0.05037509
 0.05037349 0.05042019 0.05049838 0.05060605 0.05071601 0.0508114 0.05088893 0.05093969 0.05098697 0.0510343
 0.05109983 0.05118872 0.0512914 0.05140851 0.0515108 0.05159681 0.0516405 0.05164274 0.05160026 0.0515183
 0.05142029 0.05131247 0.05122762 0.05116605 0.05114637 0.05116048 0.05120623 0.05127116 0.05134208 0.05140984
 0.05146252 0.0515013 0.05152187 0.05153493 0.05154274 0.05155485 0.05157407 0.05160344 0.05164285 0.05170112
 0.0517782 0.05189634 0.05205653 0.05227338 0.05254365 0.0528429 0.05316171 0.05343841 0.05366784 0.05379561
 0.05383526 0.0537826 0.05366915 0.05353845 0.053417 0.05335362 0.05334404 0.0534077 0.05350859 0.05363793
 0.05375338 0.05383863 0.05386985 0.05383612 0.05374326 0.05358781 0.05340268 0.05318964 0.05298707 0.05279675
 0.05263585 0.05250321 0.05239239 0.0523026 0.05222552 0.0521636 0.05212069 0.05209874 0.05210679 0.05213773
 0.05219035 0.052242 0.05227306 0.05225348 0.05215272 0.05196359 0.05166468 0.05129727 0.0508629 0.05043093
 0.05001754 0.04966618 0.04938884 0.04917768 0.04903464 0.04892139 0.04883589 0.048737 0.04862373 0.0484689
 0.04827701 0.04805423 0.04781159 0.04758965 0.04739245 0.04725511 0.04715968 0.04709829 0.0470429 0.04695727
 0.04683493 0.04665214 0.04643705 0.04619289 0.04596122 0.04575807 0.04560455 0.04551344 0.04546354 0.04545815
 0.04543779 0.04539829 0.0452828 0.04508873 0.04481241 0.04445887 0.04408245 0.04368895 0.04333999 0.04303172
 0.04278598 0.04259148 0.04243397 0.04230464 0.04218325 0.04206702 0.04194528 0.04181871 0.04168424 0.04154455
 0.04139997 0.04125362 0.04110717 0.04096 0.04081311 0.04066045 0.04050149 0.0403296 0.04014381 0.03994524
 0.03973398 0.03952066 0.03930581 0.03909955 0.03890082 0.0387091 0.03852299 0.03833628 0.03815129 0.03796969
 0.03779527 0.03763676 0.03749054 0.0373588 0.03722898 0.03709287 0.03694027 0.03676202 0.03656027 0.03633212
 0.03608885 0.03583159 0.03557433 0.03531872 0.03507897 0.03485666 0.03465887 0.03448592 0.03432589 0.03417716
 0.03401572 0.03384215 0.03364582 0.03343205 0.0332138 0.03299428 0.03278964 0.03259414 0.03240665 0.03221929
 0.03202009 0.03181319 0.03159333 0.03138098 0.03118298 0.03102305 0.03091357 0.0308574 0.03086368 0.03089447
 0.03094988 0.03096228 0.03092544 0.03079153 0.03055798 0.03024168 0.02984807 0.02944818 0.0290475 0.0287163
 0.02844963 0.02827241 0.02816648 0.02810628 0.02806819 0.02800197 0.02789799 0.02771893 0.02748755 0.02720314
 0.02690752 0.02662527 0.02637231 0.02616626 0.02598104 0.02581348 0.02564134 0.02545616 0.02528264 0.02512063
 0.02501851 0.02497887 0.02501462 0.0251219 0.025257 0.02541203 0.02551826 0.02557369 0.02553093 0.02540162
 0.02518523 0.02490335 0.02459042 0.0242613 0.02394854 0.02364996 0.02337382 0.02311601 0.02287281 0.02265514
 0.0224664 0.02231386 0.0222047 0.02211461 0.02204267 0.02195347 0.02184168 0.02171179 0.02156383 0.02144269
 0.02134936 0.02131063 0.02131992 0.02135253 0.02140083 0.02142191 0.02141928 0.02137735 0.02130872 0.02122783
 0.02114195 0.02106921 0.02099892 0.02093371 0.02084627 0.02072347 0.02054371 0.02028988 0.01997926 0.01960493
 0.01922937 0.01885932 0.01855791 0.0183345 0.01819314 0.01813461 0.01809492 0.0180697 0.01798302 0.01783787
 0.01760967 0.01731281 0.01698432 0.01663845 0.01633008 0.01605892 0.01585285 0.01569564 0.01558147 0.01549002
 0.01540287 0.01530882 0.01519432 0.01506503 0.014917 0.01477084 0.01463053 0.01451363 0.01442639 0.0143571
 0.01430733 0.01423577 0.01414011 0.01399053 0.01378894 0.01355565 0.0132969 0.01306384 0.01285463 0.01269382
 0.0125668 0.01245015 0.01233327 0.01218282 0.01200915 0.01180783 0.01160059 0.01140509 0.01123042 0.01108921
 0.01097301 0.01088109 0.01080696 0.0107467 0.01070878 0.01069371 0.01071175 0.01076546 0.01084167 0.01093994
 0.01101723 0.01107099 0.01105457 0.01097034 0.0108061 0.01057296 0.01030345 0.01001053 0.009742808 0.00950461
 0.009326988 0.009203319 0.009139156 0.009123196 0.009148491 0.009205655 0.009287768 0.00938932 0.009507579 0.009636352
 0.009774995 0.009911758 0.01004455 0.01016504 0.01027052 0.01037757 0.01048677 0.01064308 0.01084846 0.01114221
 0.01152025 0.01197899 0.01250791 0.0130656 0.01364538 0.01420775 0.01475716 0.01528203 0.01579255 0.01629683
 0.0168011 0.01731354 0.01783586 0.01837031 0.01892041 0.01948792 0.02007547 0.02068622 0.0213098 0.02194737
 0.02257216 0.02318211 0.02375023 0.02427469 0.02474421 0.02515895 0.02552114 0.02583084 0.02608917 0.02629573
 0.02644695 0.02654805 0.02660568 0.02663608 0.02666764 0.02671882 0.02682549 0.02698966 0.02722885 0.02752631
 0.02787685 0.02826843 0.02869196 0.02915548 0.029659 0.03021271 0.03082044 0.03147314 0.03217148 0.03289258
 0.03363526 0.03437223 0.03510101 0.03578105 0.03640716 0.03692439 0.03733012 0.03758197 0.03768711 0.03763993
 0.03745382 0.03715014 0.03673624 0.03623212 0.03563225 0.03494036 0.03414444 0.03323639 0.03221601 0.03107462
 0.02984339 0.02852145 0.02717237 0.02580341 0.02448433 0.02322369 0.02206267 0.02100475 0.02004781 0.01919034
 0.01840535 0.01769146 0.01702617 0.01641052 0.01583782 0.01530721 0.01481518 0.01435535 0.0139152 0.01348926
 0.01306344 0.01264259 0.012224 0.01181969 0.01143668 0.01108031 0.01075547 0.01045892 0.01018992 0.009949386
 0.009735967 0.009560839 0.009424591 0.009341267 0.009311811 0.009345381 0.009441656 0.009597271 0.009807997 0.01004569
 0.01030167 0.01052621 0.01071463 0.01082572 0.01086894 0.01083834 0.01075472 0.01063945 0.01051385 0.01040192
 0.01032021 0.01028505 0.01030388 0.01038664 0.01052127 0.01071044 0.01092205 0.0111528 0.0113666 0.01156014
 0.01169975 0.01178365 0.01176167 0.01163003 0.0113181 0.01082535 0.01010621 0.00917723 0.008071738 0.006824718
 0.00554178 0.004253248 0.003067896 0.001982622 0.001045515 0.000218284 -0.0005135047 -0.001189531 -0.001841965 -0.002477411
 -0.003110635 -0.003719292 -0.004300193 -0.004834326 -0.00531568 -0.005747752 -0.006129132 -0.006477698 -0.006794452 -0.007095974
 -0.007382774 -0.007663111 -0.007936864 -0.008207087 -0.008473798 -0.0087395 -0.009002761 -0.009262555 -0.009513925 -0.009747388
 -0.009959343 -0.01013819 -0.01029227 -0.01042135 -0.01054465 -0.01067413 -0.01082081 -0.01099619 -0.01118711 -0.01139545
 -0.01159171 -0.0117707 -0.01191229 -0.01201182 -0.01207752 -0.01210909 -0.01213766 -0.01216462 -0.01221646 -0.01229151
 -0.01239014 -0.01250888 -0.01263217 -0.01276096 -0.01288895 -0.01302062 -0.01316317 -0.0133149 -0.01347927 -0.01364578
 -0.01380699 -0.01395302 -0.01407447 -0.01417071 -0.01423774 -0.01428353 -0.01430794 -0.01432553 -0.01433774 -0.01436315
 -0.01440418 -0.01447238 -0.01456907 -0.01468854 -0.01482997 -0.01497526 -0.01512352 -0.01525941 -0.01538358 -0.01549062
 -0.01558167 -0.01565691 -0.01571747 -0.01576472 -0.01580158 -0.01583169 -0.0158592 -0.0158897 -0.0159235 -0.01596383
 -0.01600456 -0.01604384 -0.01607689 -0.01609997 -0.0161209 -0.01613909 -0.0161716 -0.01622085 -0.01629385 -0.01639172
 -0.01650122 -0.01662135 -0.01673104 -0.01683028 -0.01690874 -0.01696868 -0.01701386 -0.01704694 -0.01707729 -0.01710607
 -0.01714057 -0.01717884 -0.01722244 -0.01726578 -0.01730377 -0.01733427 -0.01735177 -0.01736578 -0.01737712 -0.01740152
 -0.01744484 -0.01751143 -0.01760503 -0.01771299 -0.01783493 -0.0179532 -0.01806647 -0.0181646 -0.0182474 -0.01831395
 -0.01836518 -0.01840745 -0.0184423 -0.01848005 -0.01852093 -0.01857164 -0.01862992 -0.01869466 -0.01876358 -0.01883246
 -0.01890212 -0.01897158 -0.01904286 -0.01911758 -0.01919504 -0.01927603 -0.01935668 -0.01943618 -0.01951085 -0.01957968
 -0.01964162 -0.01969625 -0.01974496 -0.01978779 -0.0198273 -0.01986361 -0.01989897 -0.01993345 -0.01996865 -0.02000442
 -0.02004093 -0.02007797 -0.02011457 -0.02015178 -0.0201904 -0.02023343 -0.02028527 -0.02034791 -0.02042594 -0.02051615
 -0.0206191 -0.02072727 -0.02083791 -0.02094437 -0.02104398 -0.02113377 -0.0212122 -0.02128139 -0.02134082 -0.02139856
 -0.02145508 -0.0215188 -0.02158984 -0.02166714 -0.0217496 -0.02182704 -0.02189945 -0.02196045 -0.02201279 -0.02206113
 -0.02210783 -0.02216071 -0.02221813 -0.02228175 -0.0223476 -0.02241235 -0.02247379 -0.02252895 -0.02257885 -0.02262269
 -0.02266393 -0.02270296 -0.02274475 -0.02279043 -0.02284291 -0.02290322 -0.02296759 -0.02303601 -0.02309956 -0.02315794
 -0.02320686 -0.02324742 -0.02328721 -0.02332775 -0.02338103 -0.0234454 -0.02352347 -0.02361011 -0.02369601 -0.0237784
 -0.02384786 -0.0239087 -0.02396094 -0.02401113 -0.02406476 -0.02412169 -0.02418452 -0.0242465 -0.0243058 -0.02435893
 -0.02440405 -0.02444523 -0.02448263 -0.02452104 -0.02456102 -0.0246011 -0.02464117 -0.02467709 -0.02470926 -0.02473894
 -0.02476737 -0.02480133 -0.0248408 -0.02489004 -0.02494639 -0.02500698 -0.02506857 -0.02512457 -0.02517572 -0.02521918
 -0.02526022 -0.02530147 -0.02534696 -0.02540065 -0.02545851 -0.02552134 -0.02557941 -0.0256306 -0.02566983 -0.02569526
 -0.02571346 -0.02572448 -0.02574145 -0.02576491 -0.02580301 -0.02585507 -0.0259186 -0.02599198 -0.02606618 -0.02614036
 -0.02620704 -0.02626711 -0.02631865 -0.02636318 -0.02640222 -0.02643644 -0.02646706 -0.02649426 -0.02651815 -0.02653998
 -0.02656006 -0.02658047 -0.02660207 -0.02662532 -0.02665067 -0.02667667 -0.02670315 -0.02672919 -0.02675457 -0.02678144
 -0.02680989 -0.02684269 -0.02687971 -0.02692134 -0.02696693 -0.0270138 -0.02706089 -0.02710374 -0.02714138 -0.0271693
 -0.02718805 -0.02719556 -0.02719541 -0.02718932 -0.0271834 -0.02718205 -0.02719007 -0.02721155 -0.02724579 -0.02729463
 -0.02735061 -0.02741333 -0.02747183 -0.02752458 -0.02756429 -0.02759 -0.02760271 -0.02760261 -0.02759725 -0.02758722
 -0.02758066 -0.02757807 -0.02758589 -0.02760478 -0.02764059 -0.02769257 -0.02776357 -0.02784854 -0.02794314 -0.02803847
 -0.02812405 -0.02819428 -0.02823998 -0.02826666 -0.02827225 -0.02827191 -0.02826974 -0.02827801 -0.0283016 -0.02833756
 -0.02838735 -0.02843536 -0.02848046 -0.02851007 -0.02852386 -0.0285257 -0.02851711 -0.02851461 -0.028519 -0.02854387
 -0.0285868 -0.02864829 -0.02872361 -0.02880335 -0.02888373 -0.02895487 -0.02901628 -0.02906337 -0.02909866 -0.02912193
 -0.0291376 -0.02914722 -0.02915582 -0.02916531 -0.0291788 -0.02919781 -0.02922072 -0.02924782 -0.02927456 -0.02930048
 -0.02932429 -0.02934602 -0.02937021 -0.02939726 -0.02943315 -0.02947705 -0.02952866 -0.02958537 -0.029639 -0.0296874
 -0.02972089 -0.02974185 -0.02974785 -0.02974666 -0.02974489 -0.02974958 -0.02976929 -0.02980221 -0.02985144 -0.02990686
 -0.02996638 -0.03001975 -0.03006385 -0.03009581 -0.03011417 -0.03012395 -0.03012521 -0.03012664 -0.03012865 -0.03013712
 -0.03015169 -0.03017111 -0.03019457 -0.03021711 -0.03023874 -0.03025678 -0.03027202 -0.03028493 -0.03029587 -0.03030556
 -0.03031411 -0.03032173 -0.03032888 -0.03033602 -0.03034334 -0.03035075 -0.03035946 -0.03036924 -0.0303839 -0.03040414
 -0.03043355 -0.0304733 -0.03052063 -0.03057575 -0.03062993 -0.03068274 -0.03072679 -0.03076218 -0.0307872 -0.03080234
 -0.03080898 -0.03080769 -0.03080042 -0.03078874 -0.03077653 -0.03076616 -0.03076329 -0.03076806 -0.03078403 -0.03080659
 -0.0308343 -0.03086093 -0.03088232 -0.03089748 -0.030904 -0.03090791 -0.03090995 -0.03091597 -0.03092736 -0.03094393
 -0.03096601 -0.03098896 -0.03101254 -0.03103253 -0.03104904 -0.03106138 -0.0310709 -0.03108359 -0.03110218 -0.0311387
 -0.03119485 -0.03128127 -0.03139549 -0.03153941 -0.03170715 -0.03189269 -0.03209335 -0.0323034 -0.03252871 -0.03276922
 -0.03303608 -0.0333336 -0.03366658 -0.03403791 -0.03444323 -0.03488269 -0.0353491 -0.03584212 -0.03635355 -0.03688274
 -0.03740463 -0.03791538 -0.03836535 -0.03874903 -0.03901049 -0.03914824 -0.03912588 -0.03894946 -0.03860488 -0.03812367
 -0.03753603 -0.03690132 -0.03629428 -0.03575343 -0.03533507 -0.03503862 -0.03488051 -0.03484206 -0.03492443 -0.03509358
 -0.0353488 -0.03562565 -0.03591705 -0.0361558 -0.03633293 -0.03644592 -0.03649456 -0.03651424 -0.03650462 -0.03647189
 -0.03641401 -0.03632094 -0.03619573 -0.03604208 -0.03586679 -0.0356867 -0.03550699 -0.03534438 -0.03519719 -0.0350724
 -0.03495911 -0.03485268 -0.0347404 -0.03461262 -0.03446966 -0.03430754 -0.03413804 -0.03396331 -0.03379133 -0.03362405
 -0.03346181 -0.03330464 -0.03315516 -0.03301354 -0.03288599 -0.03277247 -0.03267491 -0.03259227 -0.03251947 -0.0324562
 -0.03239852 -0.03234727 -0.03230302 -0.03226509 -0.03223356 -0.03220521 -0.0321763 -0.0321453 -0.03210844 -0.03207004
 -0.03203093 -0.03199616 -0.03196884 -0.03194682 -0.03193095 -0.03191405 -0.03189459 -0.03187187 -0.03184516 -0.03182295
 -0.03180566 -0.03180035 -0.03180665 -0.03182214 -0.03184561 -0.03186892 -0.03189148 -0.03190664 -0.03191518 -0.03191507
 -0.03190867 -0.03189839 -0.03188746 -0.03188067 -0.03187912 -0.03188637 -0.03189842 -0.03191493 -0.03192935 -0.0319388
 -0.03194111 -0.03193431 -0.03192333 -0.03190834 -0.031896 -0.03188714 -0.03188311 -0.031884 -0.03188606 -0.03188915
 -0.0318907 -0.03189112 -0.03189193 -0.03189287 -0.0318942 -0.03189433 -0.03188933 -0.03187885 -0.03185947 -0.03183443
 -0.0318055 -0.03177706 -0.03175347 -0.031736 -0.03172708 -0.03172449 -0.03172833 -0.03173495 -0.03174365 -0.03175096
 -0.03175622 -0.03175748 -0.03175434 -0.03174812 -0.03173887 -0.03172995 -0.0317215 -0.03171619 -0.03171391 -0.03171533
 -0.03172035 -0.03172906 -0.03174137 -0.03175728 -0.03177631 -0.03179797 -0.03182089 -0.03184354 -0.03186426 -0.03188125
 -0.03189353 -0.03190017 -0.03190052 -0.03189442 -0.03188029 -0.03185746 -0.03182616 -0.03178541 -0.03174286 -0.03169861
 -0.03166675 -0.03164809 -0.03165113 -0.03167525 -0.03171445 -0.03176673 -0.03181686 -0.03186425 -0.03189814 -0.03192066
 -0.03193116 -0.03193262 -0.03192983 -0.03192421 -0.03191945 -0.03191528 -0.03191253 -0.03191102 -0.03191059 -0.03191212
 -0.03191586 -0.03192263 -0.03193304 -0.0319456 -0.03196048 -0.03197415 -0.0319863 -0.03199431 -0.03199802 -0.03199803
 -0.03199456 -0.03199067 -0.03198641 -0.03198365 -0.03198208 -0.0319814 -0.03198174 -0.03198279 -0.03198592 -0.03199317
 -0.03200569 -0.03202642 -0.03205341 -0.03208699 -0.03212226 -0.0321568 -0.03218676 -0.0322098 -0.03222555 -0.03223329
 -0.03223448 -0.03222911 -0.03221951 -0.0322057 -0.03219225 -0.03217942 -0.03217196 -0.03216981 -0.03217288 -0.03218065
 -0.03218929 -0.03219926 -0.03220997 -0.03222269 -0.03224093 -0.03226387 -0.03229252 -0.03232346 -0.03235273 -0.03237895
 -0.03239889 -0.03241503 -0.03242829 -0.03243929 -0.03244943 -0.03245443 -0.03245313 -0.03244403 -0.03242557 -0.03240586
 -0.03238522 -0.0323749 -0.03237566 -0.03238914 -0.0324147 -0.03244223 -0.03247097 -0.03249042 -0.03250199 -0.03250507
 -0.03250213 -0.03249957 -0.03249738 -0.03249933 -0.03250213 -0.03250308 -0.03250032 -0.03249013 -0.03247602 -0.03245799
 -0.03244259 -0.03243266 -0.03243108 -0.03243995 -0.03245597 -0.03247922 -0.03250415 -0.03253008 -0.03255467 -0.03257771
 -0.03260069 -0.03262363 -0.03264756 -0.032672 -0.03269418 -0.03271359 -0.03272631 -0.03273308 -0.03273338 -0.032729
 -0.03272276 -0.03271604 -0.03271163 -0.03271015 -0.03271303 -0.03272044 -0.03273325 -0.03274992 -0.03277077 -0.03279124
 -0.03281029 -0.03282421 -0.03283149 -0.03283539 -0.03283565 -0.03284109 -0.03285228 -0.03287249 -0.03290117 -0.03292929
 -0.03295584 -0.03296856 -0.03296901 -0.03295596 -0.03293318 -0.03291012 -0.03288785 -0.03287344 -0.03286408 -0.03285882
 -0.03285603 -0.03285289 -0.03285239 -0.0328553 -0.03286483 -0.03288345 -0.03290864 -0.03294099 -0.03297369 -0.0330056
 -0.03303224 -0.03305266 -0.03306858 -0.03308001 -0.03309202 -0.03310471 -0.03312039 -0.03313857 -0.03315686 -0.03317493
 -0.03318986 -0.03320243 -0.03321315 -0.03322292 -0.03323393 -0.03324567 -0.03325871 -0.03327141 -0.03328241 -0.03329107
 -0.03329629 -0.03329926 -0.03330013 -0.03330023 -0.0333003 -0.03329933 -0.0332974 -0.03329235 -0.03328364 -0.03327313
 -0.03326079 -0.03325412 -0.03325342 -0.03326503 -0.03328824 -0.03332153 -0.03336321 -0.03340587 -0.03344807 -0.03348217
 -0.03350822 -0.03352211 -0.03352645 -0.03352189 -0.03351355 -0.03350601 -0.03350269 -0.03350807 -0.03351924 -0.03353728
 -0.03355413 -0.03356791 -0.03357237 -0.03356533 -0.03354877 -0.03352197 -0.03349536 -0.03346949 -0.03345546 -0.03345327
 -0.03346375 -0.03348522 -0.03350619 -0.03352551 -0.03353122 -0.03352599 -0.03350995 -0.03348799 -0.03346967 -0.03345629
 -0.03345428 -0.03346045 -0.03347436 -0.03349257 -0.03351293 -0.03353321 -0.03355281 -0.03356715 -0.03357523 -0.03357178
 -0.0335548 -0.03352734 -0.03348866 -0.03345175 -0.03341739 -0.0333964 -0.03338873 -0.0333923 -0.03340568 -0.0334172
 -0.03342665 -0.03342614 -0.0334183 -0.03340568 -0.03339169 -0.03338438 -0.03338394 -0.03339507 -0.03341335 -0.0334372
 -0.03346065 -0.03347918 -0.03349099 -0.03349343 -0.03348994 -0.0334809 -0.03346964 -0.03345704 -0.03344328 -0.03342843
 -0.03341276 -0.0333962 -0.03338201 -0.03337038 -0.03336471 -0.0333648 -0.03337086 -0.03338221 -0.03339615 -0.03341214
 -0.0334273 -0.03344147 -0.03345286 -0.03346197 -0.03346882 -0.03347354 -0.03347675 -0.03347697 -0.03347381 -0.03346498
 -0.03344898 -0.03342618 -0.03339563 -0.03336183 -0.0333251 -0.03329126 -0.03326116 -0.03323721 -0.03321973 -0.03320637
 -0.03319694 -0.03318797 -0.03317957 -0.03317115 -0.03316298 -0.03315637 -0.03315066 -0.03314513 -0.03313815 -0.0331262
 -0.03310859 -0.03308197 -0.03304931 -0.03301103 -0.03297315 -0.03293965 -0.03291393 -0.03289983 -0.03289253 -0.03289223
 -0.03289032 -0.03288464 -0.03287333 -0.03285531 -0.03283707 -0.03281898 -0.03280712 -0.03280156 -0.0328024 -0.03280954
 -0.03282223 -0.03284089 -0.03286771 -0.0329016 -0.03294235 -0.03298468 -0.03301883 -0.03303992 -0.03303507 -0.03300946
 -0.0329613 -0.03290247 -0.03284035 -0.03278131 -0.03273109 -0.03268707 -0.03264986 -0.03261514 -0.03258159 -0.03255045
 -0.03252138 -0.03249972 -0.03248587 -0.03248218 -0.03248851 -0.0325007 -0.03251772 -0.03252996 -0.03253632 -0.03252612
 -0.03250087 -0.03245789 -0.03240255 -0.03234415 -0.0322858 -0.03223651 -0.03219418 -0.03215956 -0.03213175 -0.03210932
 -0.03209561 -0.03209232 -0.03209947 -0.03211948 -0.03214125 -0.03216422 -0.03217173 -0.03216118 -0.03212658 -0.03206687
 -0.03199241 -0.03190388 -0.03181622 -0.0317295 -0.03165109 -0.03157998 -0.03151536 -0.03145692 -0.03140299 -0.03135472
 -0.03131415 -0.03128071 -0.03125549 -0.03123472 -0.0312149 -0.03119448 -0.03117043 -0.03114611 -0.03112282 -0.03110116
 -0.03108304 -0.03106079 -0.03103345 -0.03099318 -0.03093804 -0.03087202 -0.03079494 -0.03072012 -0.03064799 -0.0305854
 -0.03053097 -0.03047677 -0.03042051 -0.03034627 -0.03025604 -0.03014559 -0.03002189 -0.02989727 -0.02977495 -0.02966602
 -0.02956648 -0.02947712 -0.02939187 -0.02930624 -0.0292189 -0.02912713 -0.02903539 -0.02894432 -0.02885863 -0.02878045
 -0.02870589 -0.02863605 -0.02855337 -0.02845665 -0.02833085 -0.02817608 -0.02800642 -0.0278239 -0.02765352 -0.02749339
 -0.02734856 -0.02721439 -0.02707963 -0.0269419 -0.02679054 -0.02662669 -0.02644701 -0.02625469 -0.02605126 -0.02584042
 -0.02562598 -0.02540684 -0.02518582 -0.02495137 -0.02470112 -0.02442348 -0.02411334 -0.02377966 -0.02342187 -0.02305914
 -0.02269307 -0.02233098 -0.02197319 -0.02162276 -0.02128027 -0.02095358 -0.02064163 -0.02034545 -0.02005993 -0.01977066
 -0.01947344 -0.01915014 -0.01880689 -0.01844238 -0.01806964 -0.017702 -0.01734443 -0.0170055 -0.01668163 -0.0163735
 -0.01607642 -0.01578955 -0.01550782 -0.01523216 -0.01494649 -0.01465148 -0.01430855 -0.01391457 -0.01344397 -0.01289737
 -0.01232332 -0.01172579 -0.01116489 -0.01063313 -0.01012622 -0.009635013 -0.009128802 -0.00860621 -0.008050748 -0.00746205
 -0.006837847 -0.006163499 -0.005431151 -0.004606881 -0.003664349 -0.002586044 -0.001339615 7.714793E-06 0.001454453 0.002883071
 0.004264183 0.005551598 0.006730738 0.00782727 0.008840961 0.009816832 0.01075789 0.01172876 0.01273568 0.0138713
 0.01512596 0.01651873 0.01800237 0.0194313 0.02079804 0.0220006 0.02309491 0.02412149 0.02511745 0.02614277
 0.02718887 0.02826947 0.0293645 0.0304644 0.03156935 0.03268111 0.03378401 0.03487861 0.03592921 0.03692834
 0.03787941 0.03878139 0.0396585 0.0405109 0.04131557 0.04206941 0.04272866 0.04330017 0.04379133 0.04421804
 0.04463657 0.04504877 0.04549465 0.04594555 0.04637137 0.04676521 0.04709945 0.04740528 0.04770127 0.0479925
 0.04829369 0.04857257 0.04882091 0.04901879 0.04915705 0.04924735 0.04928869 0.04930522 0.04929885 0.04928646
 0.04926847 0.04923702 0.04919056 0.04911016 0.04899658 0.04884295 0.04865273 0.04843118 0.04818524 0.04793059
 0.04767555 0.04744004 0.04722523 0.04703971 0.0468816 0.04674893 0.04665109 0.04659017 0.04658074 0.04663106
 0.04673508 0.04689495 0.04709095 0.04731945 0.04757778 0.04786485 0.0481926 0.04856151 0.04897812 0.04944178
 0.04994854 0.05049734 0.05108141 0.05169955 0.0523448 0.05301572 0.05370569 0.05441459 0.05513913 0.05588057
 0.05663889 0.05741553 0.0582111 0.059028 0.05986746 0.06073136 0.06162109 0.06253511 0.06347473 0.06443027
 0.06540252 0.06636644 0.06732052 0.06823565 0.06911077 0.06994688 0.07074732 0.07155022 0.0723538 0.07317445
 0.07399584 0.07477115 0.07549447 0.07612558 0.07667817 0.07715917 0.07757052 0.07792063 0.0781971 0.07839223
 0.07850182 0.07852428 0.07844885 0.07827824 0.07797199 0.07751653 0.07691222 0.07614513 0.07533599 0.07449578
 0.07367801 0.07288422 0.07204422 0.07115582 0.07017074 0.0690953 0.06793852 0.06670556 0.06542468 0.06408099
 0.06266572 0.06113874 0.05941902 0.05752791 0.05540846 0.0532443 0.05116177 0.04925067 0.04762864 0.04616414
 0.04483703 0.0435399 0.0422339 0.04092399 0.03960253 0.03831488 0.03706595 0.03585842 0.03469221 0.03353385
 0.03238298 0.03122189 0.03005644 0.02890747 0.02778317 0.02672355 0.02572741 0.02481593 0.02397333 0.02318741
 0.02243738 0.02169903 0.02095177 0.02017777 0.01934979 0.01844702 0.01746362 0.01637017 0.01527797 0.0141981
 0.0132733 0.01254213 0.01195096 0.01150274 0.0110701 0.010647 0.01017745 0.009665243 0.009135009 0.008593101
 0.00808933 0.00761928 0.00719247 0.006805804 0.006450493 0.006142223 0.005900821 0.005740663 0.005692844 0.005738614
 0.005877818 0.006079719 0.006325956 0.0066076 0.006914299 0.007259369 0.007639382 0.008092307 0.008617273 0.009293986
 0.01012932 0.01119122 0.01248228 0.01390219 0.01543616 0.01687165 0.01821246 0.01936881 0.02036089 0.02121239
 0.02193131 0.02254465 0.02305898 0.02348622 0.02385824 0.02420402 0.02457735 0.02503682 0.02558257 0.02625342
 0.02694451 0.02762484 0.02822982 0.02872712 0.02915387 0.02950899 0.02984629 0.03017151 0.03050563 0.03084983
 0.03119112 0.03152869 0.03184755 0.03215083 0.03244701 0.03274288 0.03306648 0.03342137 0.033833 0.03429247
 0.03479835 0.03533791 0.03589388 0.03646655 0.03705047 0.03764886 0.03826502 0.03888987 0.03952174 0.04014966
 0.04076838 0.04138511 0.0419988 0.04262928 0.04327966 0.0439444 0.04462315 0.04525701 0.04584198 0.04631034
 0.04666397 0.04687992 0.04696144 0.04690912 0.04672091 0.04639107 0.04592012 0.04530174 0.04455036 0.04367518
 0.04270127 0.04165071 0.04053934 0.03938539 0.03817913 0.0369224 0.03559763 0.03419356 0.03274001 0.03123196
 0.0297614 0.02833656 0.02702353 0.02582619 0.02472654 0.02372175 0.02276841 0.02186927 0.02101854 0.02022196
 0.0195007 0.01884886 0.01826728 0.01773817 0.01723418 0.0167397 0.01622576 0.01568747 0.01510924 0.01450011
 0.01385686 0.01320324 0.01254479 0.01190881 0.01130434 0.01074045 0.01022254 0.009731933 0.009268099 0.008804028
 0.008338179 0.007867711 0.007395064 0.00695241 0.006542534 0.006200459 0.005922048 0.005712214 0.005563165 0.00545908
 0.00539448 0.005353949 0.00533368 0.005324109 0.00532187 0.005321612 0.005320981 0.005317542 0.005309694 0.005296861
 0.005275992 0.005246869 0.005203985 0.005146856 0.005068249 0.004967249 0.004841041 0.004689394 0.00451948 0.004332057
 0.004138843 0.003940591 0.003747112 0.003559711 0.003387855 0.003233353 0.003105944 0.003004741 0.002933786 0.002888336
 0.002864939 0.00285851 0.002863963 0.002878145 0.002898436 0.002921853 0.002946943 0.002971152 0.002993368 0.00301351
 0.003031402 0.003047533 0.003062179 0.003072228 0.003077528 0.003073395 0.003059867 0.00303634 0.003003596 0.002966271
 0.002924829 0.002884098 0.002842503 0.002799241 0.002751254 0.002692556 0.00262258 0.002536842 0.002440319 0.002334664
 0.002226811 0.002121363 0.00202124 0.001929114 0.001843417 0.001764139 0.001690158 0.001620993 0.001558327 0.001502254
 0.001454619 0.001415557 0.001383536 0.001358243 0.001334662 0.001312624 0.001288071 0.001262081 0.001235895 0.001211903
 0.00119623 0.001191337 0.001203986 0.001235803 0.001292245 0.001370956 0.00147361 0.001591797 0.00172228 0.001855409
 0.001985851 0.002112175 0.002232103 0.002351408 0.002471085 0.002592982 0.00271797 0.002839 0.002955733 0.003059425
 0.003149866 0.003222665 0.003278128 0.00331564 0.00333615 0.003342209 0.003335939 0.003323648 0.003307321 0.003293878
 0.003282263 0.003274888 0.003267329 0.003256872 0.003239824 0.003212793 0.003176027 0.003128678 0.003072379 0.003007385
 0.002934895 0.002854786 0.002770492 0.002682122 0.00259562 0.002511415 0.002428908 0.002347427 0.002255591 0.00215304
 0.002030487 0.001890881 0.001740024 0.001581996 0.001430985 0.001286669 0.001155897 0.001034332 0.0009190735 0.0008076762
 0.0006962005 0.0005866393 0.0004788719 0.0003755243 0.0002778537 0.0001864073 0.0001016761 2.312124E-05 -4.917747E-05 -0.0001163498
 -0.000178326 -0.0002383222 -0.0002965333 -0.000355755 -0.000415652 -0.0004713268 -0.0005213231 -0.0005530051 -0.0005661893 -0.0005522427
 -0.0005145417 -0.0004571103 -0.0003834588 -0.0003027454 -0.0002135444 -0.0001186166 -1.326319E-05 0.0001057159 0.0002412123 0.0003958348
 0.0005707011 0.0007664141 0.0009851202 0.001227158 0.001495737 0.00179146 0.002116514 0.002471437 0.002854916 0.003267031
 0.003699129 0.004150346 0.004605339 0.005063302 0.005510617 0.005948449 0.006373286 0.006788464 0.007200509 0.007612508
 0.008033643 0.008463331 0.008905871 0.00935569 0.009810266 0.01026271 0.01070825 0.01114299 0.01156459 0.01196997
 0.01235857 0.01272481 0.01306739 0.01338406 0.01367367 0.01394467 0.01419737 0.0144471 0.01469454 0.01495188
 0.01521889 0.01550009 0.01579435 0.01609958 0.01641511 0.01673719 0.01706814 0.01740922 0.01776587 0.0181461
 0.01855135 0.01898874 0.01944756 0.0199264 0.02040599 0.02087767 0.02133139 0.02175947 0.02217517 0.02257793
 0.0229923 0.02342193 0.02387221 0.02434422 0.02481466 0.02528235 0.02572437 0.02614246 0.02653837 0.02691464
 0.02728369 0.02764366 0.0279954 0.02833744 0.02866555 0.02898438 0.02929813 0.02961046 0.02992869 0.03024568
 0.03056131 0.03086179 0.03114081 0.03139201 0.03160987 0.03180518 0.03197683 0.03214957 0.03232555 0.03252817
 0.03275924 0.033028 0.03333432 0.03367466 0.03404754 0.03444177 0.03485459 0.03526962 0.03568336 0.03607885
 0.03645257 0.03679153 0.03709079 0.03733898 0.03753291 0.03766321 0.03773788 0.03775684 0.0377355 0.03768165
 0.03759915 0.03749193 0.03735302 0.03717976 0.03698006 0.03675261 0.03652624 0.03630276 0.03610454 0.03593177
 0.0357842 0.03566091 0.03555409 0.03546536 0.03539718 0.03535221 0.03534062 0.03535967 0.03541235 0.0354863
 0.03556886 0.03564468 0.03569413 0.0357138 0.03569341 0.03564353 0.03556617 0.03547012 0.03535936 0.03523307
 0.03509157 0.03493429 0.03476101 0.0345738 0.03437286 0.03415719 0.03392681 0.0336817 0.03342237 0.03315358
 0.03287423 0.03258325 0.032277 0.0319438 0.03158391 0.03119027 0.03077015 0.03033005 0.02987601 0.02941782
 0.02895182 0.02848049 0.02799262 0.02748436 0.02694655 0.02637441 0.02576984 0.02513093 0.02447099 0.02379091
 0.02310533 0.02241538 0.02172969 0.02104854 0.02037634 0.0197125 0.01905558 0.01840322 0.01774397 0.01707701
 0.01639166 0.0156943 0.01499066 0.01429003 0.01360845 0.01294735 0.01231494 0.01170573 0.0111183 0.01054922
 0.009996788 0.009458712 0.008935046 0.008419005 0.007909278 0.007401175 0.006893237 0.006391007 0.005894695 0.005411918
 0.004942669 0.004484158 0.004035383 0.003586103 0.003137357 0.002687023 0.00223948 0.001806127 0.001389809 0.00100312
 0.000642002 0.0003069236 -8.357871E-06 -0.0003110284 -0.0006000706 -0.0008781095 -0.001138934 -0.001379659 -0.001599253 -0.001796219
 -0.001973854 -0.002132779 -0.002273738 -0.002396496 -0.002505101 -0.00259947 -0.002693556 -0.002788044 -0.002895866 -0.003016382
 -0.003150146 -0.003295782 -0.003447503 -0.003604658 -0.003763434 -0.003921491 -0.004073509 -0.004215173 -0.004337923 -0.004440768
 -0.004518124 -0.004575769 -0.004614753 -0.004643512 -0.004666024 -0.004687556 -0.004711088 -0.004736046 -0.004763246 -0.004788432
 -0.004811165 -0.004828356 -0.004839648 -0.004846016 -0.004847531 -0.004846054 -0.004841482 -0.004833655 -0.004822482 -0.004807189
 -0.004788362 -0.004767193 -0.004744474 -0.004722366 -0.004701214 -0.004682469 -0.004665928 -0.004652037 -0.004640094 -0.004630063
 -0.004620373 -0.004610876 -0.004598213 -0.004581803 -0.004557095 -0.004523125 -0.004476828 -0.004417778 -0.004343601 -0.004254182
 -0.004145249 -0.004016685 -0.003866596 -0.00369634 -0.003516019 -0.003328491 -0.00315298 -0.002989673 -0.002850561 -0.002730828
 -0.002627413 -0.002533882 -0.002440297 -0.002341915 -0.002230408 -0.002104506 -0.001959184 -0.001801076 -0.001629716 -0.001459735
 -0.001295072 -0.001147848 -0.001022337 -0.0009177562 -0.0008353434 -0.000764998 -0.0007061582 -0.000648804 -0.0005924846 -0.000530569
 -0.0004630655 -0.0003868101 -0.000302633 -0.000212142 -0.0001172054 -2.438815E-05 6.558111E-05 0.0001467791 0.0002228913 0.0002953424
 0.0003710383 0.0004577126 0.0005581603 0.0006780471 0.0008125583 0.0009608461 0.001118882 0.001284436 0.001459373 0.001644231
 0.001837741 0.002040886 0.002241675 0.002439375 0.002622094 0.002789531 0.002942547 0.003081878 0.00321479 0.003341183
 0.003463776 0.003583035 0.003700498 0.003819619 0.003948595 0.004088812 0.004248526 0.004419355 0.004598281 0.00477126
 0.004926579 0.005060265 0.005164528 0.005251726 0.005323259 0.005393414 0.005466086 0.00554563 0.005633235 0.005729252
 0.005833725 0.005948904 0.00607476 0.006207933 0.006347567 0.006483697 0.006616655 0.006742271 0.00686267 0.006982747
 0.007102751 0.007225734 0.007350687 0.007475622 0.007605056 0.007740314 0.007892789 0.008071557 0.008280855 0.008530792
 0.008798406 0.00908441 0.009341592 0.009559376 0.00970974 0.009782789 0.009808901 0.009788061 0.009783 0.009796216
 0.009855104 0.009956362 0.01007761 0.01021729 0.01035415 0.01049409 0.01064607 0.01081169 0.01100225 0.01120741
 0.01141798 0.01162259 0.01180458 0.01196344 0.01209199 0.01219873 0.01228483 0.01236132 0.01243123 0.01250522
 0.01258584 0.01268106 0.012793 0.01292012 0.01306318 0.01320533 0.01334558 0.01346068 0.01355099 0.01360946
 0.01364039 0.01366134 0.01367612 0.01370677 0.01375189 0.01381947 0.01390602 0.01400981 0.01412799 0.01425802
 0.01439498 0.014535 0.01467379 0.01480694 0.01493792 0.015066 0.01519906 0.01533909 0.01548911 0.01565048
 0.01581862 0.01599372 0.01616321 0.0163263 0.01646425 0.01657678 0.01665249 0.016695 0.01671472 0.01671905
 0.01673596 0.01677217 0.01685675 0.01698898 0.01718456 0.01742773 0.0177123 0.01801193 0.01830611 0.01857825
 0.01881287 0.01901202 0.01917181 0.01930295 0.01940518 0.01949819 0.01958259 0.01969174 0.01982868 0.02001368
 0.02024729 0.02051059 0.02080071 0.02108022 0.02134907 0.02158709 0.02179734 0.02197928 0.02213471 0.02226679
 0.02237731 0.02246942 0.0225467 0.02261396 0.02267374 0.02272968 0.02278171 0.02283099 0.02287579 0.02291539
 0.02295003 0.02297799 0.02301 0.02304677 0.02310237 0.02317911 0.02326683 0.0233648 0.02344194 0.0234994
 0.02353602 0.0235601 0.02361681 0.02370888 0.02387426 0.02409818 0.02437078 0.02466829 0.02495059 0.02520222
 0.02538718 0.02551493 0.02557021 0.02560279 0.02562306 0.02570901 0.02589996 0.02619452 0.02661776 0.02704058
 0.02744387 0.02776753 0.02800074 0.02818389 0.02831867 0.02843828 0.02854147 0.02862495 0.02868579 0.02870577
 0.0286858 0.02861691 0.02850704 0.02836703 0.02820921 0.02805867 0.02791856 0.02780537 0.02770642 0.02761775
 0.02752811 0.02742822 0.02732198 0.02720655 0.02709673 0.02699333 0.02691956 0.02687879 0.0268892 0.02695467
 0.02705355 0.0271844 0.02728367 0.02734888 0.02732889 0.02722959 0.02705353 0.02681374 0.02655264 0.02628341
 0.02605711 0.02587716 0.02577695 0.02573761 0.02575434 0.02580107 0.02585174 0.02590836 0.02596367 0.02603017
 0.02611644 0.02620413 0.02629144 0.02635735 0.026395 0.0264226 0.02644109 0.02646787 0.02650365 0.02652622
 0.02653557 0.02652184 0.02649183 0.02648088 0.02649098 0.02655141 0.02665096 0.02677817 0.02692419 0.02706616
 0.02721115 0.02735628 0.02751524 0.02770251 0.02790975 0.02814623 0.02836491 0.02855331 0.02866805 0.02868787
 0.02863961 0.02851781 0.02840453 0.02830749 0.02827407 0.02830686 0.02838789 0.02851483 0.0286556 0.02880825
 0.02894741 0.02906922 0.02914258 0.02917496 0.02916048 0.02912656 0.02911633 0.02914304 0.02924857 0.0294023
 0.02959973 0.02979591 0.02996557 0.03008315 0.03013325 0.03010775 0.0299979 0.02982501 0.02958601 0.02934119
 0.02909538 0.02890018 0.02875846 0.02866858 0.02862795 0.0286045 0.02859525 0.0285693 0.02852197 0.02841984
 0.02826193 0.02802355 0.02772129 0.02736568 0.0269855 0.02661685 0.02627842 0.02599917 0.02577606 0.0256185
 0.02550619 0.02543497 0.02538456 0.02534805 0.0253213 0.02530319 0.02529068 0.02528542 0.02525459 0.02519646
 0.0250622 0.02485221 0.02455596 0.02418242 0.02377618 0.02334931 0.02296911 0.02263832 0.02240358 0.0222443
 0.02215245 0.02209631 0.0220296 0.02195509 0.0218502 0.02175739 0.0216981 0.02168538 0.02174183 0.02181006
 0.02188304 0.02189913 0.0218418 0.02171968 0.02152924 0.02132726 0.02111678</values></Ydata></AB><ScSm><Ydata ylabel="Single channel"><values byteorder="INTEL" format="FLOAT32" numvalues="1814"> 0.06633326 0.0663238 0.06637812 0.06652393 0.06673145 0.06693228 0.06707045 0.06713879 0.06715783 0.06713191
 0.06706187 0.06699871 0.06703341 0.06720719 0.06745344 0.06764281 0.06768547 0.06760883 0.06754421 0.06760063
 0.06772245 0.06770104 0.06737296 0.06680799 0.06626444 0.06594874 0.06588513 0.06606445 0.06657046 0.06734177
 0.06790631 0.06771931 0.06684773 0.06599764 0.06573153 0.0659305 0.06612583 0.06604259 0.06568265 0.06521471
 0.06502321 0.0656085 0.06709477 0.06881883 0.06956527 0.06833401 0.06505615 0.06082045 0.05746798 0.05660443
 0.05847347 0.06163462 0.06404309 0.06467893 0.06403834 0.06310585 0.0622897 0.06154533 0.06106507 0.0613176
 0.06240252 0.06361258 0.06380269 0.06237456 0.05998906 0.05809096 0.05759008 0.05829564 0.05969288 0.06150196
 0.06290127 0.06208229 0.05802684 0.05275938 0.0504474 0.0534423 0.05976881 0.06505071 0.0664033 0.06406306
 0.06012486 0.05680171 0.05558198 0.05683393 0.05974752 0.06300159 0.06556083 0.06672865 0.06597143 0.06337893
 0.0601199 0.05788085 0.0578347 0.06017974 0.0640918 0.06779498 0.06936985 0.06817143 0.06525797 0.06227103
 0.06035345 0.06015208 0.06197977 0.06549391 0.06966965 0.07339007 0.07590292 0.07690593 0.07661501 0.07562539
 0.0744555 0.07345693 0.07313228 0.07383162 0.07492658 0.07504042 0.07354505 0.07139911 0.07016043 0.07037212
 0.07112703 0.07117282 0.070182 0.06855939 0.06620739 0.06248031 0.05767052 0.05342948 0.05112049 0.05076561
 0.05201444 0.05469004 0.05765488 0.05874011 0.05712189 0.05484153 0.05479085 0.05762678 0.06142943 0.06403589
 0.06504071 0.06564512 0.06711474 0.06948707 0.07140737 0.07115015 0.06832871 0.06485836 0.06360301 0.06556571
 0.06892473 0.07127494 0.07216387 0.07283431 0.07404599 0.07489781 0.07377061 0.07025483 0.06618275 0.06449537
 0.06668171 0.07128832 0.07497278 0.07497653 0.07098196 0.06518373 0.06057567 0.05887935 0.06008781 0.06360851
 0.0689192 0.07495571 0.07983989 0.08193789 0.08105126 0.0783183 0.07491267 0.07095955 0.06615476 0.06156886
 0.05987266 0.06281967 0.06901245 0.0750647 0.07861946 0.07952909 0.07855646 0.0759369 0.07158157 0.06645097
 0.06301244 0.0633352 0.06660023 0.06955247 0.0699033 0.06842263 0.06727934 0.06733984 0.06783351 0.06800352
 0.06818818 0.06923181 0.07126611 0.0733826 0.07450831 0.07438157 0.07359904 0.07292236 0.07258944 0.072142
 0.07107039 0.06982504 0.06977778 0.07172355 0.07478912 0.07732876 0.07857917 0.0789457 0.07890426 0.0781555
 0.07605731 0.07283445 0.07007006 0.06953457 0.07147962 0.07448083 0.07691848 0.07814063 0.07832 0.07787702
 0.07719138 0.07647346 0.07582301 0.0754976 0.07585365 0.07684501 0.07789909 0.07849251 0.07858404 0.07836048
 0.07786201 0.07705428 0.07610045 0.07537396 0.0751905 0.07556989 0.07627191 0.07701344 0.07757711 0.07777895
 0.07752916 0.07696529 0.07636978 0.07591456 0.07560644 0.07546794 0.07559104 0.07596774 0.07641084 0.07671435
 0.07681641 0.07676896 0.07662152 0.07638729 0.07608797 0.07579422 0.07561711 0.07563473 0.07580258 0.07597902
 0.07608388 0.07617739 0.07632069 0.07642806 0.07635762 0.07610989 0.0758405 0.07568903 0.0756662 0.07569859
 0.07570925 0.07562676 0.07537433 0.07493804 0.07446103 0.07419127 0.07428055 0.07467124 0.0751919 0.07568812
 0.07604744 0.07620861 0.07620634 0.07613887 0.07605143 0.07590142 0.07565728 0.07539128 0.07525384 0.07535554
 0.07566547 0.07603205 0.07631095 0.07645348 0.07648544 0.07646777 0.07648218 0.07657282 0.07667844 0.07668942
 0.07658903 0.07648292 0.07647592 0.07655917 0.07662985 0.07660603 0.07651712 0.07647417 0.07654822 0.07670069
 0.076846 0.07695169 0.07705222 0.07717767 0.07728927 0.07729959 0.07717034 0.07697658 0.07683875 0.07680066
 0.07682022 0.07686932 0.07697606 0.07715221 0.07733412 0.07743418 0.07743399 0.07739849 0.07739523 0.07741737
 0.07740004 0.07730358 0.07716037 0.07704148 0.07699597 0.07702318 0.07708317 0.07712486 0.07711421 0.07704887
 0.07695165 0.07684897 0.07675342 0.07667058 0.07662399 0.0766544 0.07676973 0.07690123 0.07693889 0.07682864
 0.07662774 0.07645243 0.07636842 0.07633752 0.07627279 0.07613389 0.07595623 0.07579851 0.07568741 0.07561352
 0.07555555 0.07549876 0.07545048 0.07544743 0.07552639 0.07566905 0.0757923 0.07581723 0.07574285 0.07563643
 0.07556325 0.07554328 0.07556251 0.0756015 0.07565731 0.07574721 0.0758767 0.07600304 0.07606302 0.07604823
 0.0760217 0.076052 0.07616186 0.07633811 0.0765443 0.07671738 0.07680318 0.07681691 0.07683501 0.07691209
 0.07703334 0.07715784 0.07727607 0.0774043 0.07754726 0.07769622 0.07785818 0.07806238 0.07832867 0.07863659
 0.07892998 0.07915549 0.07930829 0.07944593 0.07964817 0.07995082 0.08031687 0.08067173 0.08096546 0.08120556
 0.0814352 0.0816821 0.0819366 0.08218668 0.08245692 0.08278567 0.08316942 0.08355996 0.08391923 0.084253
 0.08458719 0.08493298 0.08528432 0.08563795 0.08600613 0.0864044 0.08682305 0.08721815 0.08754564 0.08780557
 0.08804609 0.08832677 0.08867727 0.08907199 0.08943564 0.08970001 0.0898782 0.09006362 0.09033063 0.09065418
 0.09095732 0.09122162 0.09150678 0.09186026 0.09224884 0.09260028 0.09288835 0.09315262 0.09344165 0.09375298
 0.09403256 0.09423175 0.09436271 0.09448887 0.09465969 0.09487502 0.09512311 0.09542169 0.09578869 0.09619121
 0.0965614 0.0968562 0.09707662 0.0972438 0.09738632 0.0975372 0.09771358 0.09790464 0.09809177 0.09826379
 0.09840555 0.09850424 0.09858357 0.09870122 0.09889208 0.09914019 0.09942096 0.09973787 0.1000924 0.1004488
 0.10077 0.1010776 0.1014306 0.1018339 0.1022083 0.1024724 0.1026255 0.1027227 0.1028043 0.102893
 0.1030336 0.1032763 0.1036186 0.1040032 0.1043781 0.1047316 0.1050681 0.1053781 0.1056402 0.10584
 0.1059791 0.1060743 0.1061546 0.1062601 0.1064324 0.1066889 0.1069989 0.1072966 0.1075248 0.1076599
 0.1076953 0.1076302 0.1074935 0.1073559 0.1072756 0.1072281 0.1071138 0.1068419 0.1063903 0.1057847
 0.1050489 0.1041977 0.1032697 0.102345 0.1015204 0.1008679 0.1004246 0.100218 0.1002819 0.100624
 0.1011797 0.1018185 0.1024037 0.1028312 0.1030146 0.1028752 0.1023825 0.1015945 0.1006356 0.09963358
 0.09867726 0.09780599 0.09701885 0.09631568 0.09575899 0.0954919 0.09567779 0.09641587 0.0977003 0.09942269
 0.1013909 0.1033709 0.1051637 0.1066788 0.1079426 0.1090353 0.1100236 0.1109495 0.1118475 0.1127344
 0.1135849 0.1143519 0.1150187 0.1156124 0.1161639 0.1166734 0.1171153 0.1174607 0.1177 0.1178533
 0.1179513 0.118003 0.1179987 0.1179491 0.1178939 0.1178565 0.1178038 0.1176613 0.1173643 0.1169025
 0.1163449 0.115846 0.1156261 0.1159099 0.1168271 0.1183306 0.120208 0.1221927 0.1240752 0.1257313
 0.1270964 0.1281568 0.1289572 0.1295816 0.1301131 0.130608 0.1310954 0.1315817 0.1320587 0.1325164
 0.1329541 0.1333823 0.133817 0.1342659 0.1347139 0.1351295 0.1354958 0.1358352 0.1361938 0.1365976
 0.1370273 0.1374411 0.1378236 0.1382014 0.1386005 0.1390016 0.1393593 0.139658 0.1399295 0.1402179
 0.1405502 0.1409292 0.1413294 0.1417013 0.1420068 0.1422572 0.1425001 0.142769 0.1430597 0.1433527
 0.1436406 0.1439283 0.1442201 0.1445196 0.1448348 0.1451681 0.1454992 0.1457933 0.1460339 0.1462436
 0.1464632 0.1467116 0.1469716 0.1472162 0.1474447 0.1476904 0.1479873 0.1483303 0.1486736 0.1489694
 0.1492049 0.1494051 0.1496059 0.1498279 0.1500723 0.1503313 0.1505963 0.1508589 0.1511132 0.1513632
 0.1516198 0.1518871 0.1521561 0.1524175 0.1526734 0.1529332 0.1531999 0.1534666 0.1537292 0.1540009
 0.1543038 0.1546389 0.1549733 0.1552666 0.155508 0.1557169 0.1559163 0.1561165 0.1563216 0.156538
 0.1567729 0.1570292 0.1573014 0.1575772 0.1578452 0.1581033 0.1583579 0.1586151 0.1588743 0.1591308
 0.1593843 0.1596436 0.1599202 0.1602127 0.160501 0.160763 0.1609982 0.1612292 0.161478 0.1617426
 0.1620001 0.1622338 0.1624517 0.1626757 0.1629167 0.1631691 0.1634236 0.1636751 0.1639216 0.1641629
 0.164401 0.1646379 0.164873 0.1651053 0.1653365 0.1655714 0.1658154 0.1660694 0.1663259 0.1665734
 0.1668063 0.1670287 0.1672511 0.1674833 0.167729 0.167984 0.1682393 0.1684877 0.1687272 0.168962
 0.1691984 0.1694386 0.169678 0.1699112 0.1701372 0.1703589 0.1705827 0.1708167 0.1710642 0.1713193
 0.1715732 0.1718216 0.1720621 0.1722951 0.1725283 0.1727732 0.1730331 0.1733019 0.1735711 0.173833
 0.1740824 0.1743225 0.1745635 0.1748128 0.1750689 0.1753249 0.1755718 0.1758028 0.1760165 0.1762182
 0.1764175 0.1766253 0.1768474 0.1770762 0.1772998 0.1775163 0.177735 0.1779648 0.1782091 0.1784652
 0.1787245 0.1789769 0.1792182 0.179449 0.1796741 0.1799048 0.1801506 0.1804066 0.1806591 0.1809039
 0.1811465 0.1813922 0.1816432 0.1818969 0.1821443 0.1823817 0.1826194 0.1828692 0.1831287 0.1833893
 0.1836446 0.1838885 0.1841193 0.1843463 0.1845788 0.1848167 0.1850596 0.18531 0.1855624 0.1858057
 0.1860377 0.1862642 0.1864914 0.186729 0.186984 0.1872488 0.1875089 0.1877601 0.1880038 0.188241
 0.1884781 0.1887224 0.1889702 0.1892157 0.1894605 0.1897009 0.189927 0.1901439 0.1903654 0.1905797
 0.1907299 0.1906801 0.1901158 0.1884322 0.1847251 0.1779774 0.1674679 0.1532341 0.1362207 0.1179459
 0.0999473 0.08338883 0.06894967 0.05691709 0.04734182 0.04013919 0.03514611 0.03221795 0.03133927 0.03273852
 0.03700321 0.04473006 0.0552233 0.06533898 0.07070123 0.06915316 0.06282076 0.0561769 0.0523205 0.05147076
 0.0522984 0.05366534 0.05520876 0.05713671 0.0598133 0.06335215 0.06759018 0.07251991 0.07850786 0.08582941
 0.094099 0.1024242 0.1101739 0.1174809 0.1249457 0.1329212 0.1411439 0.1489955 0.1559996 0.1620646
 0.167384 0.1722143 0.1767306 0.1810149 0.1851065 0.1889965 0.1925463 0.1954574 0.1974103 0.1983026
 0.1983689 0.198055 0.1977561 0.1976584 0.1977779 0.1980773 0.1985267 0.1991076 0.1998099 0.200618
 0.2014948 0.2023942 0.2032872 0.2041622 0.2050066 0.2058016 0.2065318 0.2071912 0.2077853 0.2083269
 0.2088263 0.2092885 0.2097203 0.2101311 0.2105255 0.2109034 0.2112663 0.2116148 0.2119437 0.2122487
 0.2125322 0.2127969 0.213042 0.2132679 0.213482 0.2136928 0.2139046 0.2141183 0.2143365 0.2145649
 0.2148066 0.2150552 0.2152974 0.2155267 0.2157468 0.2159627 0.2161732 0.2163767 0.216577 0.2167814
 0.216996 0.2172206 0.2174469 0.2176663 0.2178786 0.2180902 0.2183065 0.2185287 0.2187551 0.2189794
 0.219197 0.2194152 0.2196466 0.2198917 0.2201402 0.2203856 0.2206268 0.2208624 0.2210943 0.2213272
 0.2215546 0.2217597 0.2219373 0.2221075 0.2223011 0.2225363 0.2228034 0.2230689 0.2233033 0.2235076
 0.2237069 0.2239214 0.224148 0.2243652 0.2245602 0.224755 0.2249908 0.2252741 0.2255627 0.2258209
 0.2260582 0.2263005 0.2265596 0.226837 0.2271204 0.2273706 0.2275507 0.2276803 0.2278412 0.2281147
 0.2285079 0.2289385 0.2293074 0.2295858 0.2298189 0.230064 0.2303497 0.2306525 0.230874 0.2309116
 0.2308183 0.2308286 0.2311413 0.2317189 0.232355 0.2328855 0.2332853 0.2336097 0.2339043 0.2341596
 0.2343209 0.2343493 0.2343024 0.2343518 0.2346643 0.2352302 0.2358556 0.2363587 0.2367143 0.2369838
 0.2372072 0.2373971 0.2375074 0.2373854 0.2369334 0.2363927 0.2362773 0.2368819 0.2379513 0.23895
 0.2395875 0.2399648 0.240276 0.2405647 0.2407874 0.240857 0.2405142 0.2394728 0.2379762 0.236962
 0.2372867 0.2388625 0.2408084 0.24233 0.243218 0.2436629 0.2439216 0.2441454 0.24426 0.2439645
 0.2430694 0.2419457 0.2414311 0.2420534 0.243441 0.2447284 0.2454422 0.245745 0.2459724 0.2462547
 0.2464342 0.2460136 0.244433 0.2419024 0.2398302 0.2398342 0.242155 0.2453608 0.2477644 0.2488771
 0.2492781 0.2493663 0.2487776 0.2470436 0.2442974 0.241219 0.2388131 0.2382559 0.2401128 0.2433782
 0.2460536 0.2471197 0.2473977 0.248216 0.249831 0.2514433 0.2522299 0.2519805 0.2509505 0.2494061
 0.2474981 0.2456825 0.24497 0.2462073 0.2490472 0.2520746 0.2541172 0.2551341 0.2555941 0.2550997
 0.2521192 0.2458291 0.2384056 0.2344201 0.2368062 0.2437945 0.2508135 0.2549866 0.2567133 0.2575204
 0.2580097 0.2576934 0.2552887 0.2494236 0.2408023 0.2335618 0.2324755 0.2382361 0.2466719 0.2526365
 0.2535105 0.2494854 0.2426456 0.2363423 0.2338231 0.2362711 0.2422924 0.2492903 0.255017 0.2581955
 0.2585232 0.2565601 0.2536874 0.2517647 0.2517835 0.2524053 0.2509758 0.2468645 0.2424997 0.2398082
 0.2372518 0.2326934 0.2280822 0.228177 0.2343524 0.2422982 0.2468587 0.247259 0.2461938 0.2449259
 0.2411426 0.2322964 0.2204274 0.2122745 0.2133851 0.2223587 0.2320894 0.2367123 0.2362674 0.2346528
 0.2344263 0.234192 0.230576 0.222626 0.2140805 0.2102406 0.2123476 0.2164795 0.2182205 0.2162135
 0.2106538 0.2018467 0.1926833 0.1895775 0.1970763 0.2123048 0.2272011 0.235149 0.2334304 0.2218236
 0.2035091 0.1869503 0.1817905 0.1902493 0.2044357 0.2135894 0.2126384 0.2031687 0.1888159 0.1727167
 0.1588936 0.1527797 0.1579952 0.1726437 0.1893374 0.1989075 0.195501 0.1811035 0.1658547 0.160767
 0.1677629 0.1783682 0.1831937 0.1804441 0.1746497 0.1707973 0.1714126 0.1761293 0.1821156 0.1867201
 0.1895844 0.1897523 0.1828464 0.1663434 0.1466493 0.1348965 0.1353758 0.1433421 0.1539208 0.1664754
 0.1788007 0.1841373 0.1787906 0.1691228 0.1661308 0.1737784 0.1856074 0.1926329 0.192229 0.1886137
 0.1863254 0.1853827 0.1835276 0.1814547 0.1830215 0.1899035 0.1986431 0.2045006 0.2063928 0.2064682
 0.2064731 0.2064302 0.2058719 0.2046369 0.2027947 0.2007608 0.1991663 0.198148 0.1972277 0.1960403
 0.1943134 0.1908019 0.1835708 0.1727425 0.1622162 0.1565928 0.1563269 0.1580345 0.1595323 0.1611392
 0.1609943 0.1536956 0.1374388 0.1199112 0.1126973 0.120086 0.1358845 0.1504801 0.158168 0.1576307
 0.1491211 0.1347858 0.1211142 0.116873 0.1259079 0.1434368 0.1611895 0.1745368 0.1829167 0.1858433
 0.182182 0.1731431 0.1634149 0.1584721 0.1612717 0.1709543 0.183074 0.1906735 0.1876976 0.1750781
 0.1634628 0.1653318 0.1818223 0.2007202 0.2101798 0.2107342 0.2103585 0.2120758 0.2125127 0.2107209
 0.2116524 0.2193852 0.2311249 0.2399542 0.240907 0.2329275 0.2181823 0.2024891 0.1938095 0.1959054
 0.2041048 0.2104087 0.2112517 0.2070638 0.1975349 0.1835106 0.1719523 0.1717789 0.1835303 0.198151
 0.2072847 0.2108902 0.2134929 0.216368 0.2159879 0.2093673 0.1990279 0.1914427 0.1906337 0.1946632
 0.1989458 0.2010945 0.2009693 0.1979495 0.1913113 0.1832982 0.1791587 0.1826187 0.1920527 0.2020134
 0.2081104 0.209774 0.2089919 0.2077051 0.2064656 0.2046037 0.2015976 0.1988301 0.1992866 0.2043321
 0.2114754 0.2169025 0.219826 0.2227322 0.2274854 0.2327609 0.2356629 0.2349045 0.2320614 0.2302255
 0.2315316 0.2354476 0.2391513 0.2399278 0.2377469 0.2355284 0.2364481 0.2409035 0.246474 0.2506618
 0.2529289 0.2541636 0.2551939 0.2560769 0.2560673 0.254189 0.2506344 0.2475853 0.2476743 0.2513759
 0.25655 0.2606444 0.262743 0.2634269 0.263392 0.2627116 0.2612423 0.2592918 0.2576353 0.2569097
 0.2571596 0.2579978 0.259016 0.2599609 0.2607063 0.2612339 0.2616028 0.2618687 0.2620637 0.262239
 0.2624328 0.2625914 0.262626 0.2625787 0.2626373 0.2629215 0.2633213 0.263616 0.2636802 0.263482
 0.2629483 0.2619877 0.2606483 0.2591107 0.2574827 0.2557237 0.25388 0.2523452 0.2517499 0.2524945
 0.2543816 0.2567327 0.2588556 0.2603992 0.2613518 0.2618531 0.262066 0.2621372 0.2621654 0.2621735
 0.2621295 0.2620057 0.26181 0.2615667 0.2612919 0.261007 0.2607572 0.2605836 0.2604733 0.2603595
 0.2601715 0.2598792 0.2594985 0.2590735 0.2586398 0.2581859 0.2576511 0.2569773 0.2561624 0.2552638
 0.2543564 0.2534917 0.2526782 0.2518816 0.2510485 0.2501347 0.2491046 0.2479156 0.2465505 0.2450816
 0.2436591 0.2423934 0.2412685 0.2401866 0.2390648 0.2378661 0.2365766 0.2351946 0.2337339 0.2322195
 0.2306771 0.2291245 0.2275632 0.2259792 0.2243567 0.2226879 0.2209684 0.2191936 0.2173689 0.2155086
 0.2136067 0.211598 0.2093585 0.2067519 0.2036766 0.2000779 0.1959511 0.1913576 0.1864362 0.1813802
 0.1763948 0.1716542 0.1672793 0.1633488 0.1599317 0.1570977 0.1548964 0.1533458 0.1524493 0.152213
 0.1526403 0.1537141 0.155374 0.1575031 0.1599393 0.1625029 0.1650207 0.1673525 0.1694333 0.171299
 0.1730541 0.1747918 0.1765312 0.1782243 0.179814 0.1812716 0.1825787 0.1837059 0.1846357 0.1853899
 0.186011 0.1865279 0.1869502 0.187283 0.18754 0.187749 0.1879436 0.1881456 0.1883644 0.1886122
 0.1889037 0.1892431 0.1896334 0.1900942 0.1906537 0.1913251 0.192099 0.1929512 0.1938549 0.1947948
 0.1957719 0.1968017 0.1979179 0.1991729 0.2006121 0.2022427 0.2040353 0.2059399 0.2078891 0.2098031
 0.2116054 0.2132282 0.2146111 0.2157215 0.2165757 0.217222 0.2177039 0.2180456 0.2182643 0.2183796
 0.2184108 0.218368 0.2182526 0.2180677 0.2178201 0.21751 0.2171362 0.2167171 0.2162828 0.2158449
 0.2153938 0.214925 0.2144431 0.2139476 0.2134426 0.21295 0.21249 0.2120579 0.2116352 0.2112094
 0.2107683 0.2102828 0.2097109 0.2090216 0.2082148 0.2073123 0.2063238 0.2052358 0.2040355 0.202731
 0.2013396 0.1998719 0.1983341 0.1967317 0.1950649 0.1933251 0.191492 0.1895407 0.1874752 0.1853578
 0.1832888 0.1813474 0.1795524 0.177871 0.1762599 0.174707 0.1732325 0.1718483 0.1705339 0.1692645
 0.1680391 0.1668665 0.1657469 0.1646834 0.1636944 0.1628036 0.1620259 0.1613596 0.1607817 0.1602606
 0.1597813 0.1593524 0.1589955 0.158737 0.1585958 0.1585535 0.1585435 0.1584856 0.1583345 0.1581012
 0.1578376 0.1575966 0.1573964 0.1572255 0.1570683 0.1568997 0.1566587 0.1562561 0.1556114 0.1546745
 0.153427 0.1518855 0.1501073 0.1481918 0.1462749 0.1444992 0.1429696 0.1417334 0.1407865 0.1400773
 0.1395193 0.1390403 0.138628 0.1383262 0.1381927 0.1382426 0.1383972 0.1385113 0.1385018 0.1384458
 0.1385191 0.1388433 0.139402 0.140071 0.1407123 0.1412499 0.141669 0.1419641 0.1421278 0.1421785
 0.1421484 0.1420457 0.1418676 0.1416311 0.1413555 0.1410382 0.1406663 0.1402242 0.1396918 0.1390617
 0.1383481 0.1375636 0.1367107 0.1357859 0.1347528 0.1335609 0.1322638 0.1310855 0.1303064 0.1300931
 0.13043 0.1311476 0.1320284 0.1329373 0.1338029 0.1344533 0.1346588 0.1345007 0.1345573 0.1354813
 0.1373611 0.1396162 0.1415256 0.1427425 0.1432928 0.1432814 0.1427644 0.1417869 0.1403538 0.1384157
 0.1359965 0.1332485 0.1303224 0.1273221 0.1244072 0.1217748 0.1195374 0.1177132 0.1162804 0.1152668
 0.1148068 0.1145546 0.1127054 0.1069493 0.09802936 0.09132124 0.09231234 0.1004354 0.1094649 0.1140997
 0.1141878 0.1125501 0.111141 0.1102618 0.1098039 0.1098826 0.1106149 0.1118793 0.113308 0.1144938
 0.1152574 0.1156365 0.115604 0.1148382 0.1126672 0.1082937 0.1014308 0.09287668 0.08425044 0.07705086
 0.07198759 0.06897908 0.067453 0.06668984 0.06619263 0.06591034 0.06612478 0.06712121 0.06895433 0.07147641
 0.07448187 0.07771386 0.08079025 0.08334078 0.08528133 0.08680664 0.08807769 0.08904685 0.08958904 0.08966392
 0.08933571 0.08873318 0.08800204 0.08723145 0.08639932 0.08541197 0.08424992 0.08309437 0.08223646 0.08181036
 0.08169056 0.08168273 0.08170204 0.08173441 0.08175962 0.08176346 0.08174816 0.08173849 0.08182745 0.08213921
 0.08267489 0.08326116 0.08369991 0.08392808 0.08401735 0.08402593 0.08385184 0.08332759 0.08253679 0.08185485
 0.08147529 0.08107559 0.08023595 0.07907085 0.07816046 0.07790793 0.07818399 0.07856223 0.07870746 0.07854594
 0.07825555 0.07817046 0.07854696 0.07926769</values></Ydata></ScSm><ScRf><Ydata ylabel="Single channel"><values byteorder="INTEL" format="FLOAT32" numvalues="1820"> 0.06074784 0.06090294 0.0609903 0.06101068 0.06099278 0.06098926 0.06105625 0.06121683 0.06143878 0.06165005
 0.06178799 0.06184144 0.06183781 0.06179563 0.06172245 0.0616608 0.06168781 0.06183949 0.06205573 0.06221958
 0.06225242 0.06218422 0.06213672 0.06220583 0.06233381 0.06232344 0.06202099 0.06148957 0.06096923 0.06065517
 0.06057511 0.06072492 0.06118612 0.06190478 0.06244091 0.06227998 0.06147493 0.0606809 0.0604268 0.06060681
 0.06078503 0.06070484 0.06036804 0.05992981 0.05974431 0.06027588 0.06164243 0.06322996 0.06391093 0.06276157
 0.0597263 0.05581902 0.05273871 0.05195773 0.05369132 0.05660786 0.0588254 0.05941026 0.05882595 0.05798037
 0.05724207 0.05655879 0.05610248 0.05631075 0.05728727 0.05838921 0.05856134 0.05724523 0.0550428 0.05328411
 0.05281188 0.05345548 0.05474265 0.05641319 0.05770374 0.05694098 0.05318616 0.04831441 0.04618017 0.04895742
 0.05481973 0.05971842 0.06098031 0.05882024 0.05518008 0.05211376 0.05099414 0.05214733 0.05481686 0.05779161
 0.06013092 0.06119695 0.06049217 0.05809546 0.05508758 0.05302851 0.05300008 0.05517892 0.05879555 0.06220669
 0.06364535 0.06252567 0.05983128 0.05707847 0.05531869 0.05514271 0.05683419 0.06007773 0.06393345 0.06737432
 0.06970332 0.07063541 0.07036752 0.06945314 0.06837785 0.06746833 0.06718168 0.06783135 0.06883527 0.06892967
 0.06754173 0.065556 0.06440587 0.06459086 0.06527681 0.06531195 0.06439508 0.06289713 0.06072467 0.05728127
 0.05283846 0.04892106 0.04678749 0.04646315 0.04763385 0.05013879 0.05291574 0.05394363 0.05245302 0.05033566
 0.05027466 0.05288215 0.05638086 0.05876851 0.05967517 0.06022258 0.06158792 0.06380174 0.0656004 0.06537965
 0.06278047 0.0595772 0.05842046 0.06023671 0.06334092 0.06551389 0.06634538 0.06698854 0.06814113 0.06895845
 0.06793313 0.06468812 0.06093268 0.05940097 0.0614693 0.06577868 0.06921952 0.06922743 0.0655106 0.06012189
 0.05585995 0.05432723 0.05550496 0.05883331 0.06383249 0.0695263 0.07417268 0.07623543 0.07549755 0.0729963
 0.06983254 0.06614839 0.06167888 0.05743374 0.05591847 0.0587755 0.06468287 0.07045072 0.07386689 0.07480249
 0.0739752 0.07158968 0.06754537 0.0627562 0.05958285 0.06000231 0.06322646 0.06614102 0.06655988 0.06522226
 0.0642059 0.06434426 0.06490253 0.06515625 0.06543225 0.06654491 0.06862108 0.07078238 0.07198925 0.07198308
 0.07133659 0.07078831 0.07057025 0.0702344 0.06928902 0.06819229 0.06829843 0.0703733 0.07353494 0.07615545
 0.07749185 0.07795585 0.07802213 0.07739052 0.0754173 0.07232427 0.06969385 0.06929864 0.07139029 0.07453752
 0.07711016 0.07845318 0.07874891 0.07843133 0.07788509 0.07731731 0.07682574 0.07666799 0.07719378 0.07834175
 0.07952897 0.08023712 0.08043629 0.08031408 0.07990433 0.07917838 0.07832024 0.07771782 0.07767916 0.07820621
 0.07905176 0.07993856 0.08065093 0.08099127 0.08085348 0.08037803 0.07987015 0.07952058 0.07933569 0.07932939
 0.07959059 0.0801089 0.08068766 0.08111046 0.08131419 0.08135834 0.08130156 0.08116043 0.08095333 0.08074985
 0.0806703 0.08080264 0.08109657 0.08139488 0.08161464 0.0818284 0.08210129 0.08233052 0.08235276 0.08216617
 0.08194596 0.0818551 0.08191293 0.08203767 0.08213894 0.08213639 0.08194984 0.08156823 0.08114609 0.08094668
 0.08113233 0.08164936 0.08232394 0.08298613 0.08349283 0.08375575 0.08380912 0.08377464 0.0837207 0.08361094
 0.08340855 0.08318377 0.08309601 0.08327112 0.08368603 0.08417861 0.08457963 0.08481815 0.08491626 0.08495313
 0.08503737 0.08522384 0.08543058 0.08551364 0.08544667 0.08536188 0.08539183 0.08551982 0.08561105 0.08557202
 0.08545984 0.08542521 0.08555294 0.0857842 0.08600254 0.08616461 0.08632371 0.08653536 0.08675601 0.08685541
 0.08675455 0.08653384 0.08635559 0.08629154 0.08629395 0.08632877 0.0864429 0.08666448 0.0869108 0.08705786
 0.08707729 0.08705748 0.08708839 0.08715674 0.08716917 0.08706285 0.0868733 0.08669952 0.08662203 0.08665311
 0.08674238 0.08681618 0.08682236 0.08675583 0.08664997 0.08654264 0.08645147 0.08638965 0.08639891 0.0865338
 0.08678347 0.08702396 0.0870924 0.0869327 0.08665668 0.08644383 0.08637907 0.08639166 0.08634522 0.08617091
 0.0859105 0.08565333 0.08545649 0.08532159 0.08522063 0.08513187 0.08506676 0.08507174 0.08518068 0.0853445
 0.08543172 0.08533806 0.08509144 0.08482181 0.08463825 0.08456069 0.08454742 0.08454776 0.08454059 0.08455246
 0.08462037 0.08471948 0.08476473 0.08470955 0.0846063 0.08455011 0.08460118 0.08476505 0.08498888 0.08516162
 0.08518375 0.08507039 0.08494498 0.08491087 0.08496533 0.08504978 0.08513533 0.08522965 0.08533527 0.08544409
 0.08556644 0.08573431 0.08596519 0.08623176 0.08647302 0.0866379 0.08672811 0.08680625 0.08695557 0.08721738
 0.08755771 0.0878936 0.08815771 0.08834603 0.08850472 0.08867212 0.08884889 0.08903303 0.0892563 0.08955146
 0.08989763 0.09023592 0.09053592 0.09081578 0.09110022 0.09139023 0.09167992 0.09198463 0.09234114 0.09277219
 0.0932394 0.09364331 0.09389912 0.09401982 0.09411255 0.09429541 0.09461589 0.09501743 0.0953685 0.0955634
 0.09563018 0.09571177 0.09590982 0.09618084 0.09642485 0.09663972 0.0969253 0.09734118 0.09781613 0.09821658
 0.09847663 0.09864379 0.09880824 0.09900284 0.09917978 0.09928658 0.09934573 0.09943134 0.0995768 0.09975356
 0.09995183 0.1002245 0.1006099 0.1010517 0.1014422 0.1017253 0.1019188 0.1020619 0.1021778 0.1022712
 0.1023338 0.1023654 0.1023998 0.1024803 0.1025966 0.1026831 0.1027024 0.1026973 0.1027411 0.102869
 0.1030787 0.1033603 0.1036864 0.1040003 0.1042648 0.1045207 0.1048457 0.1052362 0.105576 0.1057571
 0.1057975 0.1057976 0.1058171 0.1058533 0.105921 0.1060739 0.1063372 0.1066692 0.1070123 0.1073485
 0.1076889 0.1080322 0.1083446 0.1085733 0.1086795 0.1086727 0.1086177 0.1086058 0.1087111 0.1089538
 0.1092894 0.1096368 0.109929 0.1101343 0.1102344 0.1102206 0.1101377 0.1100979 0.1101944 0.110396
 0.1105589 0.1105497 0.1103352 0.109953 0.1094391 0.108813 0.1081188 0.1074427 0.1068771 0.106475
 0.1062531 0.1062318 0.1064494 0.1069157 0.1075613 0.1082598 0.1089025 0.109423 0.109747 0.1097765
 0.1094622 0.1088684 0.1081351 0.1073903 0.1067086 0.1061067 0.1055466 0.10498 0.1044407 0.104086
 0.1041184 0.1046644 0.1057121 0.1071234 0.1086796 0.1101524 0.1113907 0.1123714 0.1131701 0.1138763
 0.1145387 0.1151816 0.1158344 0.1165089 0.117163 0.1177326 0.1182024 0.1186158 0.1190142 0.1193969
 0.1197393 0.120023 0.1202529 0.1204587 0.1206662 0.1208524 0.1209536 0.1209385 0.1208487 0.1207453
 0.1206382 0.1204841 0.1202322 0.1198614 0.1194086 0.1189938 0.1188069 0.1190271 0.1197169 0.1207823
 0.1220443 0.1233534 0.1246286 0.1257995 0.126767 0.1274584 0.1278988 0.1281937 0.1284488 0.1287196
 0.1290169 0.1293295 0.1296398 0.1299347 0.1302112 0.1304833 0.1307801 0.1311222 0.1314861 0.1318121
 0.132064 0.132275 0.1325234 0.1328587 0.1332552 0.1336393 0.1339682 0.1342676 0.1345794 0.1348907
 0.1351489 0.135339 0.1355089 0.1357207 0.1360056 0.1363579 0.1367355 0.1370679 0.1373047 0.1374627
 0.1376081 0.1377907 0.1380128 0.1382552 0.1385076 0.1387674 0.139029 0.1392927 0.1395734 0.1398802
 0.1401856 0.1404364 0.1406081 0.1407371 0.1408863 0.1410852 0.1413123 0.141529 0.1417255 0.1419341
 0.1421976 0.1425169 0.1428368 0.1430897 0.1432555 0.1433717 0.1434934 0.1436532 0.1438532 0.1440777
 0.1443059 0.1445217 0.1447221 0.1449168 0.1451173 0.1453242 0.1455294 0.1457288 0.1459296 0.1461428
 0.1463696 0.1466005 0.1468286 0.1470648 0.1473299 0.1476256 0.1479177 0.14816 0.1483351 0.1484652
 0.1485833 0.14871 0.1488544 0.1490206 0.1492058 0.1494029 0.1496082 0.149822 0.1500403 0.150254
 0.1504588 0.1506598 0.1508636 0.1510715 0.1512831 0.1515023 0.1517332 0.15197 0.1521982 0.1524074
 0.1526017 0.1527925 0.1529864 0.1531802 0.153367 0.153544 0.1537153 0.1538897 0.154075 0.1542743
 0.1544842 0.1546957 0.1549014 0.1551022 0.1553046 0.1555082 0.1557038 0.1558858 0.1560617 0.1562463
 0.1564472 0.156657 0.1568607 0.1570514 0.157237 0.1574289 0.1576293 0.157831 0.1580272 0.1582177
 0.1584062 0.1585963 0.1587885 0.1589837 0.1591856 0.1593953 0.1596061 0.1598099 0.1600043 0.1601942
 0.1603862 0.1605857 0.1607923 0.1610001 0.1612052 0.1614105 0.1616204 0.1618369 0.1620603 0.1622887
 0.1625144 0.1627305 0.1629391 0.1631484 0.1633641 0.1635883 0.1638208 0.1640566 0.1642849 0.1644909
 0.1646644 0.1648112 0.164954 0.1651151 0.1652988 0.1654929 0.165682 0.1658611 0.166039 0.1662309
 0.1664398 0.1666518 0.1668519 0.1670392 0.1672224 0.1674096 0.1676044 0.1678051 0.1680087 0.1682164
 0.1684316 0.168651 0.1688678 0.1690798 0.1692858 0.1694835 0.1696765 0.1698759 0.1700876 0.1703078
 0.170529 0.1707433 0.1709468 0.1711464 0.171353 0.1715669 0.1717804 0.1719899 0.1721963 0.1724011
 0.172611 0.1728322 0.1730586 0.1732786 0.1734893 0.1736949 0.1739006 0.1741135 0.1743341 0.1745497
 0.1747504 0.1749443 0.1751434 0.1753512 0.1755716 0.1758071 0.1760466 0.1762743 0.1764873 0.1766898
 0.1768852 0.1770824 0.1772862 0.1774763 0.1775993 0.1775348 0.1769961 0.1754205 0.1719557 0.1656373
 0.1557847 0.1424444 0.1265205 0.1094418 0.09263825 0.07718531 0.06371336 0.05249144 0.04356532 0.03685132
 0.03219489 0.02946166 0.02863728 0.02993317 0.03389711 0.04108747 0.05085625 0.0602705 0.06525089 0.0637927
 0.05788569 0.05169993 0.04811393 0.04732104 0.04808325 0.04935195 0.05079785 0.05261106 0.05511963 0.05842074
 0.06236182 0.06694253 0.07251275 0.07933287 0.08704359 0.09481469 0.1020594 0.1088963 0.1158746 0.1233177
 0.1309845 0.1383036 0.144831 0.1504817 0.1554415 0.1599538 0.164176 0.1681754 0.1719894 0.1756192
 0.1789379 0.1816563 0.1834672 0.1842789 0.1843223 0.1840221 0.1837478 0.1836657 0.1837802 0.1840509
 0.1844555 0.1849892 0.1856477 0.1864101 0.1872318 0.1880673 0.1888948 0.1897073 0.1904912 0.1912296
 0.1919153 0.1925474 0.1931242 0.1936457 0.1941157 0.1945415 0.1949357 0.1953137 0.1956831 0.1960419
 0.1963863 0.1967125 0.1970146 0.1972883 0.1975361 0.1977625 0.197971 0.1981678 0.1983628 0.1985661
 0.1987846 0.1990187 0.1992582 0.199486 0.1996914 0.199879 0.2000621 0.2002523 0.2004527 0.2006572
 0.2008567 0.2010478 0.2012337 0.2014195 0.2016093 0.201805 0.2020049 0.2022054 0.2024051 0.2026053
 0.2028079 0.2030143 0.2032225 0.2034216 0.2036022 0.2037737 0.2039588 0.2041674 0.2043923 0.2046253
 0.2048612 0.205091 0.2053087 0.2055187 0.2057211 0.2059003 0.2060457 0.2061763 0.2063306 0.2065321
 0.2067685 0.2070071 0.2072274 0.2074334 0.2076354 0.2078336 0.2080222 0.2081983 0.208367 0.2085487
 0.2087696 0.2090302 0.2092988 0.2095495 0.2097855 0.2100173 0.2102483 0.2104842 0.2107233 0.2109337
 0.2110791 0.2111767 0.2113074 0.2115532 0.2119204 0.2123259 0.2126709 0.2129245 0.2131272 0.2133351
 0.2135832 0.2138571 0.2140609 0.2140846 0.2139725 0.2139577 0.2142448 0.214799 0.2154102 0.215913
 0.2162874 0.2165901 0.2168581 0.2170751 0.2171938 0.2171905 0.2171275 0.2171614 0.2174385 0.2179458
 0.2185079 0.2189611 0.2192807 0.2195191 0.2197135 0.2198796 0.2199775 0.2198638 0.2194454 0.2189472
 0.2188486 0.2194193 0.2204101 0.221314 0.2218656 0.2221736 0.2224333 0.2226924 0.2229051 0.2229753
 0.2226505 0.2216693 0.2202729 0.2193422 0.2196677 0.2211501 0.2229544 0.2243443 0.2251476 0.2255617
 0.2258211 0.2260438 0.2261477 0.2258581 0.2250092 0.2239512 0.2234698 0.224064 0.2253854 0.2266101
 0.2272797 0.2275491 0.2277502 0.2280174 0.2281972 0.2278111 0.2263325 0.2239656 0.2220313 0.2220342
 0.2241921 0.2271729 0.2294135 0.2304602 0.2308431 0.2309254 0.2303698 0.2287486 0.2261913 0.2233311
 0.2210979 0.2205803 0.2223046 0.2253458 0.2278544 0.228878 0.2291652 0.2299413 0.2314478 0.2329503
 0.2336876 0.2334627 0.2325152 0.2310999 0.2293623 0.2277184 0.2270888 0.2282481 0.230882 0.2336956
 0.2356074 0.2365682 0.2370007 0.2365356 0.2337538 0.2278895 0.2209669 0.2172474 0.219474 0.2260042
 0.232574 0.2364944 0.2381348 0.2389185 0.239402 0.2391226 0.2368857 0.2314276 0.2234218 0.2167245
 0.2157655 0.2211694 0.2290473 0.2346185 0.2354501 0.2317119 0.2253395 0.2194674 0.2171412 0.2194716
 0.2251505 0.2317418 0.2371416 0.2401614 0.2405197 0.2387318 0.2360826 0.2343142 0.2343569 0.2349595
 0.2336489 0.2298522 0.2258441 0.223412 0.2211005 0.2169065 0.212662 0.2128319 0.2187078 0.2262469
 0.2306118 0.2310753 0.230168 0.2290758 0.2256272 0.2174255 0.2063833 0.1988378 0.2000128 0.2085893
 0.2178736 0.222349 0.2220661 0.2207043 0.2206739 0.2206561 0.2174579 0.2101706 0.2023345 0.1989822
 0.2012946 0.2055439 0.2075261 0.2059304 0.2009158 0.192763 0.1842532 0.1815535 0.1890447 0.2039813
 0.2186166 0.2265706 0.2252006 0.2142684 0.1968436 0.1811486 0.1765696 0.1852691 0.1995595 0.208955
 0.2085036 0.1997281 0.1861555 0.1708698 0.1578912 0.1526795 0.1589022 0.1746867 0.1925781 0.20323
 0.2005964 0.1866617 0.1718847 0.1676918 0.176068 0.188145 0.1941027 0.19207 0.1868014 0.1835768
 0.1851474 0.19116 0.1985316 0.2043698 0.2082895 0.2091737 0.2020875 0.1842117 0.1627018 0.1499614
 0.1507677 0.1598671 0.1718895 0.1861521 0.2001426 0.2062353 0.2002835 0.1894501 0.1860828 0.1946082
 0.2077549 0.2154454 0.2147667 0.2104891 0.2077283 0.206519 0.2043446 0.2019973 0.2037994 0.211618
 0.2215847 0.2284132 0.2309044 0.2314597 0.2320221 0.2326027 0.2326575 0.2319835 0.2306455 0.2291113
 0.2281048 0.2277944 0.2276404 0.2272182 0.2261874 0.2230371 0.2154212 0.2034428 0.1917295 0.1857573
 0.186051 0.1885702 0.1907322 0.1929232 0.1928871 0.1841339 0.1645056 0.1432185 0.1341487 0.1424168
 0.1605788 0.1771257 0.1853003 0.183678 0.172743 0.1551108 0.1382591 0.1321527 0.1411009 0.1596276
 0.1783329 0.191982 0.2000294 0.202108 0.1970978 0.1863617 0.1749848 0.1688442 0.1710544 0.1806264
 0.1927752 0.200117 0.1962986 0.1823465 0.1694281 0.1705755 0.1869916 0.2060016 0.2152961 0.2153796
 0.2144844 0.215778 0.2158398 0.2137105 0.2144677 0.2223011 0.2343688 0.2436012 0.2449139 0.2372203
 0.2227494 0.207515 0.1997446 0.2032531 0.2130302 0.2206168 0.2222492 0.2183772 0.2086941 0.1941857
 0.1823552 0.1827195 0.1957902 0.2118435 0.221961 0.2261519 0.2292913 0.2327265 0.2326341 0.2258014
 0.2149809 0.2071939 0.2068 0.211701 0.216926 0.2198725 0.2203518 0.217638 0.2109173 0.2026671
 0.1986797 0.2030394 0.2138781 0.2250822 0.2317229 0.2331409 0.2315575 0.2291891 0.2267349 0.2235235
 0.2189951 0.2146388 0.2137091 0.2177529 0.224167 0.2288833 0.2310347 0.2332509 0.2375184 0.2424355
 0.2449157 0.2435583 0.2399795 0.2373983 0.2380557 0.2414427 0.2446794 0.244965 0.2422363 0.2394771
 0.2399733 0.2441783 0.249639 0.2537916 0.256054 0.2572974 0.2583399 0.2592281 0.2592008 0.2572624
 0.2535964 0.2503966 0.2503195 0.2538525 0.2588516 0.2627632 0.2646917 0.2652504 0.2651488 0.2644466
 0.2629783 0.2610396 0.2594004 0.2586948 0.2589667 0.2598268 0.2608576 0.2617943 0.2625087 0.262993
 0.263316 0.2635294 0.2636494 0.2637189 0.2637887 0.2638268 0.2637558 0.2636167 0.2635959 0.2638163
 0.2641714 0.2644359 0.2644738 0.264245 0.2636812 0.2627077 0.2613921 0.2599281 0.2584205 0.2568049
 0.2550998 0.2536928 0.2532294 0.254118 0.2561484 0.25862 0.2608254 0.2624091 0.263366 0.2638538
 0.2640539 0.2641169 0.2641298 0.2641022 0.2639994 0.2637967 0.2635056 0.2631584 0.2627835 0.2624002
 0.2620305 0.2616983 0.261407 0.2611227 0.2607889 0.2603649 0.2598558 0.259308 0.2587637 0.2582139
 0.2575971 0.2568524 0.2559713 0.2550064 0.254044 0.2531619 0.2523842 0.2516644 0.2509274 0.2501253
 0.2492348 0.2482238 0.2470791 0.2458779 0.2447771 0.243892 0.2432034 0.2425949 0.2419515 0.2412086
 0.2403469 0.2393806 0.2383445 0.2372701 0.2361697 0.2350405 0.2338712 0.2326389 0.231316 0.2298905
 0.228374 0.2267908 0.2251688 0.223531 0.2218661 0.2201001 0.2181095 0.2157701 0.212983 0.2096655
 0.2057664 0.2013234 0.1965001 0.1915384 0.1866616 0.1820205 0.1777135 0.1738317 0.1704695 0.1677058
 0.165593 0.1641632 0.163434 0.1634054 0.1640611 0.1653718 0.1672869 0.1697159 0.1725196 0.1755215
 0.1785321 0.1813831 0.1839757 0.1863164 0.1884894 0.1905684 0.192555 0.1944051 0.1960847 0.1975735
 0.1988421 0.1998709 0.2006869 0.2013511 0.2019117 0.20239 0.2028024 0.2031714 0.2035093 0.203808
 0.2040522 0.204243 0.2044053 0.2045703 0.2047553 0.2049644 0.2052036 0.2054926 0.2058621 0.2063327
 0.2068891 0.2074831 0.2080762 0.2086698 0.209287 0.2099421 0.210648 0.2114388 0.2123609 0.2134427
 0.2146772 0.216027 0.2174285 0.2187939 0.2200224 0.2210281 0.2217692 0.2222533 0.222518 0.2226076
 0.222559 0.2223919 0.2221115 0.2217293 0.2212741 0.2207692 0.220211 0.2195862 0.2189012 0.2181804
 0.2174467 0.2167144 0.2159955 0.2152985 0.2146253 0.2139753 0.2133476 0.2127394 0.2121463 0.2115661
 0.2109974 0.2104346 0.2098701 0.2093009 0.2087285 0.2081439 0.2075149 0.2068006 0.205982 0.2050673
 0.2040655 0.2029698 0.2017727 0.2004809 0.1991086 0.1976665 0.1961613 0.1945955 0.1929653 0.1912592
 0.1894566 0.1875343 0.1854994 0.1834195 0.1814014 0.1795286 0.1778232 0.1762581 0.1747912 0.1733933
 0.1720565 0.1707773 0.1695444 0.1683541 0.1672229 0.1661669 0.165177 0.1642337 0.1633358 0.1625063
 0.1617733 0.1611491 0.16062 0.1601582 0.1597455 0.1593809 0.1590791 0.1588727 0.1587969 0.1588431
 0.1589399 0.1590004 0.1589802 0.1588881 0.1587609 0.1586369 0.1585349 0.1584527 0.1583789 0.1582923
 0.1581446 0.1578544 0.1573264 0.1564812 0.1552874 0.1537763 0.1520261 0.1501453 0.1482723 0.1465536
 0.1450911 0.1439216 0.1430376 0.1423929 0.1419039 0.1414967 0.1411668 0.1409789 0.1410024 0.1412266
 0.1415124 0.1416738 0.1416568 0.1416102 0.1417448 0.1421618 0.1428222 0.1436106 0.144396 0.1450814
 0.1456226 0.1460037 0.146226 0.1463247 0.1463483 0.1463161 0.1462239 0.146069 0.1458443 0.1455409
 0.1451683 0.1447384 0.1442396 0.1436602 0.1430078 0.142285 0.1414861 0.1406099 0.1396282 0.1384926
 0.1372529 0.1361272 0.1353864 0.1351943 0.1355501 0.1363147 0.1372998 0.1383813 0.1394633 0.140319
 0.1406727 0.1406028 0.1407259 0.1417495 0.1438069 0.146317 0.1485047 0.1499605 0.1506835 0.150781
 0.1503163 0.1493426 0.1478749 0.1458681 0.1433491 0.1404765 0.1374097 0.1342703 0.1312405 0.1285168
 0.1261887 0.1242795 0.1228136 0.1218543 0.1215235 0.1213998 0.1195237 0.1134425 0.104001 0.09697808
 0.09821127 0.1070372 0.116782 0.1218028 0.1219535 0.120238 0.1187269 0.1177368 0.1171692 0.1171778
 0.1179031 0.1192038 0.1206713 0.1218728 0.1226335 0.1230189 0.1230194 0.1222698 0.1199914 0.1152892
 0.1078763 0.09866235 0.08942047 0.08175509 0.07639351 0.07321818 0.07161711 0.07083388 0.07033132 0.07004318
 0.07027762 0.07134697 0.07329864 0.07597134 0.07916823 0.08263574 0.08596 0.0887303 0.09085746 0.09256282
 0.09401401 0.09511895 0.09570155 0.09573366 0.09534649 0.09471589 0.09398513 0.09322344 0.09238499 0.09134728
 0.09009381 0.08886205 0.08799519 0.08761601 0.08754651 0.08754941 0.08752309 0.08746697 0.08740238 0.08735131
 0.0873161 0.08730009 0.08737776 0.08765529 0.08811773 0.08859687 0.0889236 0.08906476 0.08910327 0.08908616
 0.08888777 0.0883249 0.08748221 0.08673416 0.08625336 0.085694 0.08464924 0.08329282 0.08226562 0.08197398
 0.08223877 0.08259986 0.0827367 0.08258806 0.08230366 0.08219023 0.08251844 0.08319782 0.08374374 0.0837386
</values></Ydata></ScRf><Data_Parameters_AB><parameter name="DPF">1</parameter><parameter name="NPT">3497</parameter><parameter name="FXV">3996</parameter><parameter name="LXV">500</parameter><parameter name="CSF">1</parameter><parameter name="MXY">0.0785242840647697</parameter><parameter name="MNY">-0.0391482412815094</parameter><parameter name="DAT">01/06/2022</parameter><parameter name="TIM">11:21:11.716 (GMT+2)</parameter><parameter name="DXU">WN</parameter></Data_Parameters_AB><AB__Qtest><MainReport name="Quality Test Report"><Header><Line><Legend>Test result ok/not ok [1/0]: </Legend><Value>0</Value></Line><Line><Legend>Method file: </Legend><Value>C:\Users\Public\Documents\Bruker\OPUS_8.2.28\QT\IRBT_v3_default.QT</Value></Line></Header><Matrix><Line><Legend></Legend><Legend>min</Legend><Legend>max</Legend><Legend>measured</Legend></Line><Line><Value>Absorption (X-Range 1):</Value><Value>0.400000</Value><Value>2.000000</Value><Value>0.087281</Value></Line><Line><Value>Noise (X-Range 4):</Value><Value></Value><Value>0.000300</Value><Value>0.000051</Value></Line><Line><Value>Signal/Noise (X-Range 2):</Value><Value>200.000000</Value><Value></Value><Value>30.756522</Value></Line><Line><Value>Signal/Noise (X-Range 3):</Value><Value>40.000000</Value><Value></Value><Value>22.473368</Value></Line><Line><Value>Water vapour (X-Range 5):</Value><Value></Value><Value>0.000300</Value><Value>0.000034</Value></Line><Line><Value>Signal/Water (X-Range 2):</Value><Value>100.000000</Value><Value></Value><Value>46.501778</Value></Line><Line><Value>Signal/Water (X-Range 3):</Value><Value>20.000000</Value><Value></Value><Value>33.978211</Value></Line><Line><Value>Fringes (X-Range 6):</Value><Value></Value><Value>0.000100</Value><Value>0.000069</Value></Line></Matrix></MainReport></AB__Qtest><Data_Parameters_ScSm><parameter name="DPF">1</parameter><parameter name="NPT">1814</parameter><parameter name="FXV">3996.33169228125</parameter><parameter name="LXV">499.541461535156</parameter><parameter name="CSF">1</parameter><parameter name="MXY">0.263680219650269</parameter><parameter name="MNY">0.0313392728567123</parameter><parameter name="DAT">01/06/2022</parameter><parameter name="TIM">11:21:11.716 (GMT+2)</parameter><parameter name="DXU">WN</parameter></Data_Parameters_ScSm><Data_Parameters_ScRf><parameter name="DPF">1</parameter><parameter name="NPT">1820</parameter><parameter name="FXV">4004.04661832813</parameter><parameter name="LXV">495.683998511719</parameter><parameter name="CSF">1</parameter><parameter name="MXY">0.265250384807587</parameter><parameter name="MNY">0.0286372769623995</parameter><parameter name="DAT">01/06/2022</parameter><parameter name="TIM">11:20:46.568 (GMT+2)</parameter><parameter name="DXU">WN</parameter></Data_Parameters_ScRf><Optic_Parameters_Rf><parameter name="APR">0</parameter><parameter name="APT">Open</parameter><parameter name="BMS">KBr</parameter><parameter name="DTC">RT-DLaTGS_IR-Biotyper [Microplate reader]</parameter><parameter name="HPF">0</parameter><parameter name="LPF">10.0</parameter><parameter name="LPV">4000</parameter><parameter name="PGR">0</parameter><parameter name="RCH">Module port</parameter><parameter name="RDX">0</parameter><parameter name="SRC">MIR</parameter><parameter name="VEL">10.0</parameter><parameter name="SON">Off</parameter></Optic_Parameters_Rf><Acquisition_Parameters_Rf><parameter name="ADT">1</parameter><parameter name="AQM">DD</parameter><parameter name="CFE">0</parameter><parameter name="COR">0</parameter><parameter name="DEL">0</parameter><parameter name="DLY">0</parameter><parameter name="HFW">8000</parameter><parameter name="LFW">0</parameter><parameter name="NSR">32</parameter><parameter name="PLF">AB</parameter><parameter name="RES">6</parameter><parameter name="RGN">-1</parameter><parameter name="STR">0</parameter><parameter name="TCL">MakeCompatibleScalar (0, {WSV=1.000000, ARV=0});</parameter><parameter name="TDL">37</parameter><parameter name="RPO">0</parameter></Acquisition_Parameters_Rf><FT_-_Parameters_Rf><parameter name="APF">B3</parameter><parameter name="HFQ">500</parameter><parameter name="LFQ">4000</parameter><parameter name="NLI">0</parameter><parameter name="PHR">24</parameter><parameter name="PHZ">ML</parameter><parameter name="SPZ">NO</parameter><parameter name="ZFF">1</parameter></FT_-_Parameters_Rf><Optic_Parameters_><parameter name="APR">0</parameter><parameter name="APT">Open</parameter><parameter name="BMS">KBr</parameter><parameter name="CHN">Module port</parameter><parameter name="DTC">RT-DLaTGS_IR-Biotyper [Microplate reader]</parameter><parameter name="HPF">0</parameter><parameter name="LPF">10.0</parameter><parameter name="LPV">4000</parameter><parameter name="PGN">0</parameter><parameter name="RDX">0</parameter><parameter name="SRC">MIR</parameter><parameter name="VEL">10.0</parameter><parameter name="SON">Off</parameter></Optic_Parameters_><FT_-_Parameters_><parameter name="APF">B3</parameter><parameter name="HFQ">500</parameter><parameter name="LFQ">4000</parameter><parameter name="NLI">0</parameter><parameter name="PHR">24</parameter><parameter name="PHZ">ML</parameter><parameter name="SPZ">NO</parameter><parameter name="ZFF">1</parameter></FT_-_Parameters_><Acquisition_Parameters_><parameter name="ADT">1</parameter><parameter name="AQM">DD</parameter><parameter name="CFE">0</parameter><parameter name="COR">0</parameter><parameter name="DEL">0</parameter><parameter name="DLY">0</parameter><parameter name="HFW">8000</parameter><parameter name="LFW">0</parameter><parameter name="NSS">32</parameter><parameter name="PLF">AB</parameter><parameter name="RES">6</parameter><parameter name="SOT">0</parameter><parameter name="TCL">MakeCompatibleScalar (0, {WSV=1.000000, ARV=0});</parameter><parameter name="TDL">37</parameter><parameter name="SPO">0</parameter><parameter name="SGN">-1</parameter></Acquisition_Parameters_><Instrument_Parameters_Rf><parameter name="HFL">15800.168544</parameter><parameter name="LFL">0</parameter><parameter name="LWN">15800.168544</parameter><parameter name="ABP">32197</parameter><parameter name="SSP">1</parameter><parameter name="ARG">2</parameter><parameter name="ASG">2</parameter><parameter name="ASS">32</parameter><parameter name="GFW">16</parameter><parameter name="GBW">16</parameter><parameter name="BFW">0</parameter><parameter name="BBW">0</parameter><parameter name="PKA">7308</parameter><parameter name="PKL">4990</parameter><parameter name="PRA">7480</parameter><parameter name="PRL">5001</parameter><parameter name="P2A">1</parameter><parameter name="P2L">1</parameter><parameter name="P2R">1</parameter><parameter name="P2K">1</parameter><parameter name="DAQ">0</parameter><parameter name="AG2">1</parameter><parameter name="SSM">1</parameter><parameter name="RSN">25883</parameter><parameter name="CRR">0</parameter><parameter name="SRT">1654082446.568</parameter><parameter name="DUR">19.6389923095703</parameter><parameter name="TSC">29</parameter><parameter name="MVD">0.199265047907829</parameter><parameter name="AN1">0.225794873794462</parameter><parameter name="AN2">0</parameter><parameter name="VSN">2.485 Apr  4 2017</parameter><parameter name="SRN">0085</parameter><parameter name="CAM">0</parameter><parameter name="INS">IR-Biotyper</parameter><parameter name="FOC">69</parameter><parameter name="RDY">1</parameter><parameter name="ARS">32</parameter></Instrument_Parameters_Rf><Sample_Parameters_><parameter name="BLD"></parameter><parameter name="CNM">Admin</parameter><parameter name="CPY"></parameter><parameter name="DPM"></parameter><parameter name="EXP">IRBT_v3_32Scans.XPM</parameter><parameter name="LCT"></parameter><parameter name="SFM">Microplate, HTS-XT</parameter><parameter name="SNM">220601-1028(v.3)_RTF49M (D_11)_H3_c5175a2a-5952-493b-9017-314579f84466.0</parameter><parameter name="XPP">C:\Users\Public\Documents\Bruker\OPUS_8.2.28\XPM</parameter><parameter name="IST">OK</parameter><parameter name="CPG">1252</parameter><parameter name="UID">f4bef2e8-13b3-49d2-8415-c86789044acc</parameter></Sample_Parameters_><Instrument_Parameters_><parameter name="HFL">15800.168544</parameter><parameter name="LFL">0</parameter><parameter name="LWN">15800.168544</parameter><parameter name="ABP">32197</parameter><parameter name="SSP">1</parameter><parameter name="ASG">2</parameter><parameter name="ARG">2</parameter><parameter name="ASS">32</parameter><parameter name="GFW">16</parameter><parameter name="GBW">16</parameter><parameter name="BFW">0</parameter><parameter name="BBW">0</parameter><parameter name="PKA">7376</parameter><parameter name="PKL">4988</parameter><parameter name="PRA">7596</parameter><parameter name="PRL">4993</parameter><parameter name="P2A">1</parameter><parameter name="P2L">1</parameter><parameter name="P2R">1</parameter><parameter name="P2K">1</parameter><parameter name="DAQ">0</parameter><parameter name="AG2">1</parameter><parameter name="SSM">1</parameter><parameter name="RSN">13567</parameter><parameter name="CRR">0</parameter><parameter name="SRT">1654082471.716</parameter><parameter name="DUR">19.6399993896484</parameter><parameter name="TSC">29</parameter><parameter name="MVD">0.214567571878433</parameter><parameter name="AN1">0.225785421929321</parameter><parameter name="AN2">0</parameter><parameter name="VSN">2.485 Apr  4 2017</parameter><parameter name="SRN">0085</parameter><parameter name="CAM">0</parameter><parameter name="INS">IR-Biotyper</parameter><parameter name="FOC">69</parameter><parameter name="RDY">1</parameter></Instrument_Parameters_><History/></OPUSDataFile>
