<?xml version="1.0" encoding="UTF-8" ?>
<OPUSDataFile><AB><Ydata ylabel="Absorbance Units"><values byteorder="INTEL" format="FLOAT32" numvalues="3497"> -0.03951752 -0.03952965 -0.03953679 -0.03953936 -0.03953134 -0.03951243 -0.03947602 -0.03942321 -0.03936481 -0.03930433
 -0.03926873 -0.03925802 -0.03928932 -0.03935403 -0.03944189 -0.03954237 -0.03963236 -0.03971048 -0.03976497 -0.03980175
 -0.03982249 -0.03982957 -0.0398251 -0.03980859 -0.0397784 -0.0397427 -0.03970134 -0.03967108 -0.03965456 -0.03966305
 -0.03969865 -0.03975681 -0.03983738 -0.03992064 -0.0400051 -0.04006583 -0.04010298 -0.04010261 -0.04007013 -0.04001563
 -0.03994761 -0.03989207 -0.03985146 -0.03984415 -0.03986127 -0.03990127 -0.03995159 -0.04000046 -0.04004496 -0.04007925
 -0.04010796 -0.04013302 -0.04015147 -0.04016435 -0.04016054 -0.04013736 -0.04009529 -0.04003288 -0.03996992 -0.03990746
 -0.03986812 -0.03985194 -0.03986499 -0.03990486 -0.03996025 -0.04002937 -0.0400995 -0.04017127 -0.04024022 -0.0403068
 -0.04037057 -0.0404296 -0.0404825 -0.04052467 -0.04055258 -0.04056136 -0.04054613 -0.04050942 -0.04044769 -0.04037914
 -0.04030576 -0.04025159 -0.04022129 -0.04022633 -0.04026901 -0.04034538 -0.04045537 -0.04058884 -0.0407447 -0.04090808
 -0.04107542 -0.0412185 -0.04133262 -0.04138188 -0.04137252 -0.04129655 -0.04117424 -0.04103581 -0.04089561 -0.04078455
 -0.04070084 -0.04065545 -0.04063514 -0.04063639 -0.0406458 -0.04065591 -0.04066637 -0.04067416 -0.04069013 -0.04071627
 -0.04075597 -0.04081088 -0.04086668 -0.04092265 -0.04096131 -0.04098306 -0.04098975 -0.04098445 -0.04098761 -0.04100085
 -0.04104272 -0.04110897 -0.04120082 -0.04130826 -0.04141544 -0.04151404 -0.04158702 -0.04163383 -0.04164824 -0.0416327
 -0.04158434 -0.04151519 -0.04142277 -0.04134443 -0.04128591 -0.04129181 -0.04137269 -0.04154076 -0.04180339 -0.04210056
 -0.04243004 -0.04263237 -0.04270419 -0.04255536 -0.04221357 -0.04181817 -0.04138457 -0.04104899 -0.04079586 -0.04065397
 -0.04060568 -0.04063716 -0.04072726 -0.04084974 -0.04097841 -0.0410814 -0.04115069 -0.04116588 -0.04115511 -0.04112258
 -0.04109989 -0.04109997 -0.04111971 -0.04116234 -0.04120708 -0.04125137 -0.04128996 -0.04132223 -0.0413611 -0.04140687
 -0.04146755 -0.04154066 -0.04161488 -0.04168604 -0.04173161 -0.04175104 -0.04172983 -0.04167383 -0.04158432 -0.04147264
 -0.04135109 -0.04123279 -0.04113249 -0.04105787 -0.04101842 -0.04101253 -0.04104285 -0.04110154 -0.04118792 -0.0412917
 -0.04141229 -0.04153417 -0.04165699 -0.04175297 -0.0418205 -0.04183091 -0.04178437 -0.04167955 -0.04152065 -0.04133408
 -0.04112419 -0.04092087 -0.04072721 -0.04056559 -0.04043767 -0.04035827 -0.04032225 -0.04033305 -0.04037395 -0.04043477
 -0.04049474 -0.04053777 -0.04055726 -0.04054362 -0.04051054 -0.04045811 -0.04040717 -0.04036158 -0.04033322 -0.04032419
 -0.04033603 -0.04036902 -0.04041989 -0.04048806 -0.04056437 -0.04064712 -0.04071964 -0.04078194 -0.04082331 -0.04084894
 -0.04086672 -0.04088125 -0.04090598 -0.04093806 -0.04097926 -0.04102626 -0.0410727 -0.0411302 -0.04120117 -0.04130435
 -0.04145256 -0.04163656 -0.04186422 -0.04208243 -0.04228419 -0.04242239 -0.0424883 -0.04249047 -0.04242895 -0.04231222
 -0.04214013 -0.04190296 -0.04160812 -0.04130032 -0.04099236 -0.04076369 -0.04061059 -0.04057137 -0.04061786 -0.04072335
 -0.04084888 -0.04092691 -0.04096 -0.04091639 -0.04084418 -0.04076638 -0.04070577 -0.04068407 -0.04067941 -0.04069374
 -0.04068678 -0.04065049 -0.04056545 -0.04042569 -0.04025651 -0.04005862 -0.03988091 -0.03972539 -0.03962931 -0.03959099
 -0.03962074 -0.03970831 -0.03982342 -0.03994646 -0.04000537 -0.04000127 -0.03989189 -0.03971586 -0.03950638 -0.03928914
 -0.0391045 -0.03894223 -0.03880978 -0.03868549 -0.03855951 -0.03842857 -0.03828688 -0.03815144 -0.03802529 -0.03791604
 -0.03782728 -0.03773495 -0.03763827 -0.03748985 -0.03728884 -0.03701612 -0.03668092 -0.03634176 -0.03600665 -0.03574411
 -0.03554451 -0.03541665 -0.03534972 -0.03532894 -0.03534527 -0.03538834 -0.03543175 -0.03545528 -0.03542035 -0.03529131
 -0.03507147 -0.03474459 -0.03436095 -0.03393457 -0.03348475 -0.03301997 -0.0325274 -0.03200499 -0.03145974 -0.03089157
 -0.03032326 -0.02975596 -0.02921009 -0.02868716 -0.028209 -0.02777473 -0.02739604 -0.02706357 -0.02675905 -0.02647255
 -0.02617496 -0.0258677 -0.02554404 -0.02519794 -0.02482982 -0.02440905 -0.02391197 -0.02333742 -0.02266648 -0.02195987
 -0.02123193 -0.02052218 -0.01984378 -0.01919216 -0.0185685 -0.0179631 -0.0173752 -0.01680512 -0.01625322 -0.01572883
 -0.01523148 -0.01476677 -0.01432513 -0.01387546 -0.01339593 -0.01280294 -0.01210231 -0.01124672 -0.0103017 -0.009336999
 -0.008391021 -0.007536395 -0.006742791 -0.006014461 -0.005311983 -0.004614868 -0.003917852 -0.003211301 -0.002519065 -0.001845597
 -0.001199876 -0.0005867096 2.545197E-05 0.0006376848 0.001303527 0.0020244 0.002823425 0.003694154 0.004597668 0.00552674
 0.006427641 0.007303343 0.008134596 0.008927219 0.009683088 0.01040703 0.01110358 0.01178342 0.01245804 0.01313345
 0.01381996 0.0145073 0.01518962 0.01587452 0.01655447 0.01728186 0.01806639 0.01894198 0.01992185 0.0209363
 0.02198281 0.02295415 0.02384807 0.02464279 0.02534617 0.02601046 0.0266414 0.02729386 0.02796206 0.02866117
 0.02937594 0.03008278 0.03077505 0.03142667 0.03205875 0.03267439 0.03331498 0.03401034 0.03477687 0.03563964
 0.03655699 0.03752547 0.03849199 0.03944355 0.04036164 0.04124108 0.0420885 0.04290362 0.04370524 0.04449434
 0.04529033 0.04609266 0.0469056 0.04772766 0.04855338 0.04938444 0.0502235 0.05107089 0.05193229 0.05279714
 0.05365508 0.05449348 0.05529298 0.05605959 0.05678695 0.05749892 0.05820486 0.05891972 0.05965372 0.06039413
 0.06114176 0.06187316 0.06258366 0.06327685 0.06395169 0.06464281 0.06535153 0.06610052 0.06688636 0.0676906
 0.0685088 0.06930917 0.07009458 0.07085597 0.07160018 0.07233723 0.07306951 0.0738059 0.0745424 0.0752793
 0.07600971 0.07672776 0.07743418 0.07812432 0.07881492 0.07950919 0.08022426 0.08096672 0.08172908 0.08251271
 0.08329447 0.08407261 0.08483541 0.08558251 0.08631269 0.08702532 0.08771384 0.08837803 0.08901168 0.08961888
 0.09020739 0.09078315 0.09136271 0.09194623 0.09254289 0.09314487 0.09374829 0.09434576 0.09492824 0.09550286
 0.09606808 0.09664118 0.09722961 0.09783261 0.09845446 0.09907012 0.09967616 0.1002616 0.1008242 0.1013883
 0.1019548 0.1025481 0.1031656 0.1037978 0.1044397 0.1050633 0.105668 0.1062367 0.106775 0.1072841
 0.1077737 0.1082582 0.1087429 0.1092418 0.109744 0.1102486 0.1107384 0.1112015 0.1116425 0.1120566
 0.1124688 0.1128838 0.1133166 0.1137713 0.1142417 0.1147281 0.1152171 0.1157081 0.1161904 0.1166648
 0.1171321 0.1175966 0.1180792 0.1185816 0.1191238 0.1196939 0.1202802 0.1208659 0.1214192 0.1219395
 0.1224115 0.1228506 0.1232639 0.1236589 0.1240437 0.1244092 0.1247538 0.1250719 0.1253593 0.1256311
 0.125887 0.1261541 0.1264348 0.1267453 0.1270858 0.1274528 0.1278452 0.1282531 0.1286761 0.1291089
 0.1295481 0.1299828 0.1304051 0.1307918 0.1311428 0.1314418 0.1317094 0.1319551 0.1322096 0.1324993
 0.1328334 0.1332311 0.1336595 0.1341174 0.1345526 0.1349512 0.1352963 0.1355792 0.1358382 0.1360754
 0.1363295 0.136601 0.1368666 0.1371216 0.137309 0.1374342 0.137488 0.1374895 0.1374927 0.1375107
 0.1376016 0.1377561 0.1379903 0.1382793 0.1386048 0.1389449 0.1392754 0.1395975 0.1399 0.1402128
 0.1405426 0.1409151 0.1413435 0.1418013 0.1422922 0.1427397 0.1431383 0.143429 0.1436103 0.1436991
 0.1437022 0.1436933 0.1436752 0.143703 0.1437679 0.1438698 0.1440039 0.1441551 0.1443348 0.1445556
 0.1448205 0.1451479 0.1455036 0.1458744 0.1462166 0.1464976 0.146725 0.1468845 0.1470375 0.1471943
 0.1474027 0.1476755 0.1479947 0.1483624 0.1487117 0.1490393 0.1492842 0.1494482 0.1495211 0.1495142
 0.1494755 0.1494196 0.149419 0.1494774 0.1496434 0.1498978 0.1502409 0.1506325 0.1510352 0.1514111
 0.1517168 0.151952 0.1520968 0.1521963 0.1522571 0.1523334 0.1524387 0.1526019 0.1528284 0.1531332
 0.1535174 0.1539992 0.1545789 0.155251 0.1560085 0.1567815 0.1575543 0.1582074 0.1587341 0.159039
 0.1591497 0.159065 0.1588491 0.1585923 0.158353 0.1582367 0.1582342 0.1583897 0.1586163 0.1588911
 0.1591164 0.1592503 0.159255 0.1591071 0.1588414 0.158455 0.1580226 0.1575495 0.1571057 0.1566945
 0.1563452 0.1560554 0.1558087 0.1556008 0.1553986 0.1552032 0.1549991 0.1547919 0.1545896 0.1543881
 0.1541937 0.1539759 0.1537125 0.153358 0.1528682 0.1522322 0.1514187 0.1504887 0.1494448 0.1483878
 0.1473398 0.1463722 0.1455014 0.1447401 0.1440928 0.1435296 0.1430488 0.1425944 0.1421634 0.1416997
 0.1412077 0.1406776 0.1401233 0.1395887 0.1390756 0.1386187 0.1381912 0.13777 0.1373256 0.1368093
 0.1362324 0.1355756 0.1348966 0.1342135 0.1335903 0.1330557 0.1326323 0.1323395 0.132129 0.1320041
 0.1318584 0.1316837 0.1313886 0.1309689 0.1304277 0.1297731 0.1290967 0.1284058 0.1277918 0.1272464
 0.1267938 0.1264152 0.1260815 0.1257776 0.1254663 0.1251431 0.124786 0.1244046 0.1239964 0.123581
 0.1231682 0.1227698 0.1223952 0.1220349 0.1216899 0.1213424 0.1209896 0.1206238 0.1202438 0.1198489
 0.119439 0.1190124 0.1185696 0.1181144 0.117649 0.1171884 0.1167342 0.1163004 0.1158854 0.1154927
 0.11512 0.1147661 0.1144279 0.1141043 0.1137848 0.1134639 0.1131259 0.1127597 0.1123625 0.1119274
 0.1114716 0.110997 0.110521 0.1100478 0.1095743 0.1091012 0.1086137 0.1081112 0.1075915 0.1070562
 0.1065211 0.1059873 0.1054706 0.1049687 0.1044825 0.1040082 0.1035364 0.1030667 0.1025935 0.102121
 0.1016513 0.1011895 0.1007388 0.1003065 0.09989391 0.09951798 0.0991843 0.09890732 0.09869751 0.09852833
 0.09840408 0.09824504 0.09804524 0.09772976 0.09729463 0.09674586 0.09609088 0.09542149 0.09474708 0.09417222
 0.09369066 0.093344 0.09310357 0.09292997 0.09278571 0.09259073 0.09233167 0.09195186 0.09148701 0.09093735
 0.09036537 0.08980723 0.08929009 0.08883991 0.08842691 0.08804865 0.08767727 0.08730218 0.08695531 0.08663635
 0.08640989 0.08627935 0.08626015 0.08634605 0.08646473 0.08660365 0.0866499 0.08660378 0.08639774 0.0860589
 0.08561073 0.08509234 0.08458128 0.0840895 0.08366933 0.08329102 0.08294915 0.08261417 0.08226002 0.08190395
 0.08154197 0.08121256 0.08092953 0.08068889 0.08049615 0.08030827 0.08012044 0.0799191 0.0797033 0.07951193
 0.07934663 0.07924142 0.07919057 0.07917808 0.079196 0.07920544 0.07920824 0.07918831 0.07915344 0.079112
 0.07906231 0.07901109 0.07893878 0.0788365 0.07867561 0.07843709 0.07810876 0.07767394 0.07716504 0.07657827
 0.07598949 0.07540779 0.07490624 0.07449556 0.0741839 0.07397239 0.07379093 0.07363418 0.07341093 0.07312378
 0.07273703 0.07226754 0.07175503 0.071217 0.07071811 0.07025808 0.06986964 0.06953418 0.06924496 0.06897989
 0.06871904 0.06844974 0.06815734 0.06784642 0.06751128 0.06717703 0.0668476 0.06654956 0.06629165 0.06606041
 0.06585865 0.06562532 0.06535708 0.06500868 0.0645831 0.06411219 0.06360482 0.06313646 0.06270191 0.0623281
 0.06199187 0.0616479 0.06128605 0.06085932 0.06039396 0.05989762 0.05940808 0.05896251 0.05856965 0.05824928
 0.05798135 0.05776219 0.05757727 0.05742007 0.05729494 0.057202 0.05714432 0.05712404 0.05711858 0.05712696
 0.05709783 0.05702833 0.05686533 0.05661231 0.05625889 0.0558208 0.05534747 0.05485756 0.05442279 0.05404844
 0.05377804 0.05360231 0.0535277 0.05354262 0.05364038 0.05381077 0.05404915 0.05433916 0.05467634 0.05503824
 0.05541873 0.05580128 0.05618035 0.05656062 0.05693982 0.05735187 0.05779842 0.05833294 0.05895725 0.05970955
 0.06058484 0.06157375 0.06266427 0.06380704 0.06499296 0.0661735 0.06734937 0.06849913 0.06962921 0.07073904
 0.07183442 0.07291894 0.07399973 0.07508 0.07617077 0.07727755 0.0784049 0.07955916 0.08071965 0.08188836
 0.08301532 0.08409724 0.08507688 0.08595056 0.08668557 0.08728224 0.08774247 0.08806883 0.08827814 0.08837266
 0.08836547 0.08826662 0.08809896 0.08789221 0.08770139 0.08756496 0.08755435 0.08767979 0.08798373 0.08842901
 0.08901153 0.08967925 0.09040805 0.09117831 0.0919764 0.0928179 0.09370345 0.09464803 0.09565533 0.0967098
 0.09781122 0.09890718 0.09999333 0.1009941 0.1019061 0.1026669 0.1032833 0.1037432 0.1040642 0.1042849
 0.1044172 0.1045082 0.1045391 0.1045214 0.1043876 0.1041017 0.1035587 0.1026925 0.1014243 0.09969073
 0.09752844 0.09490825 0.09201607 0.0888627 0.08570743 0.08257727 0.07966923 0.0769983 0.07461631 0.07251989
 0.07065015 0.06900043 0.06749769 0.06614228 0.06489971 0.06376847 0.06273182 0.06177747 0.06087702 0.06001935
 0.05917549 0.05835284 0.05754409 0.05677089 0.05604365 0.05537818 0.05478453 0.05426484 0.05382189 0.05345299
 0.05315746 0.05293725 0.05279166 0.05273296 0.05276177 0.05289507 0.05313195 0.05346205 0.05387532 0.05430143
 0.05472345 0.05503384 0.05522946 0.05523909 0.05508907 0.05478663 0.05437533 0.05390945 0.05342631 0.05297417
 0.05257836 0.05226472 0.05205176 0.05195308 0.0519753 0.05212546 0.05239077 0.05277289 0.05324255 0.05380062
 0.0543852 0.05499451 0.05548288 0.05583746 0.05582064 0.05542224 0.05443772 0.05290118 0.05081537 0.04827212
 0.04550159 0.04259783 0.03984467 0.03726391 0.03501236 0.03302984 0.03132352 0.02981385 0.02845192 0.02719837
 0.02602228 0.02492343 0.02389597 0.02294603 0.02207479 0.02128085 0.0205649 0.01991763 0.01933876 0.01880939
 0.01832826 0.01787236 0.0174412 0.0170199 0.01660981 0.01620804 0.01581712 0.01544178 0.01508499 0.01475554
 0.01445186 0.01417936 0.01392406 0.01367878 0.01342234 0.01313783 0.01282038 0.01245746 0.01207765 0.01168175
 0.01131711 0.01099331 0.01073697 0.0105554 0.01042652 0.01035018 0.01027171 0.01018916 0.01006695 0.00990897
 0.009727542 0.009527356 0.009337949 0.009152965 0.00897229 0.008783561 0.008560278 0.008304233 0.008001491 0.007673207
 0.00733166 0.006998589 0.006692259 0.006419235 0.006188169 0.005992941 0.005835124 0.005700469 0.005588311 0.005476477
 0.00536265 0.005227678 0.005069757 0.00488963 0.004688112 0.004483941 0.004278142 0.004087747 0.003911175 0.003751186
 0.003604952 0.003466335 0.003333217 0.003198776 0.003062232 0.002918945 0.002771603 0.002618978 0.002470238 0.002329633
 0.002207387 0.002111056 0.0020371 0.001989758 0.001945044 0.001900521 0.001828604 0.001724516 0.001583856 0.001405313
 0.001212248 0.001006071 0.0008150899 0.0006388103 0.0004873205 0.0003569742 0.0002379136 0.0001265912 7.469261E-06 -0.0001191148
 -0.0002617148 -0.0004134176 -0.0005703885 -0.0007216569 -0.00085475 -0.0009665603 -0.001047019 -0.001112824 -0.001165144 -0.001232341
 -0.001323949 -0.001452994 -0.001626812 -0.001828235 -0.002057547 -0.00228419 -0.002505902 -0.00270572 -0.002883499 -0.003042419
 -0.003183573 -0.003316789 -0.003442523 -0.003567306 -0.003692086 -0.003822668 -0.003960141 -0.004110548 -0.004270924 -0.004441441
 -0.004614467 -0.004782948 -0.004941989 -0.005085004 -0.005215264 -0.005332371 -0.005440771 -0.005542601 -0.005635915 -0.005720438
 -0.00579547 -0.005859758 -0.005925162 -0.005992177 -0.006078586 -0.006184751 -0.006314122 -0.006464119 -0.006615876 -0.006766022
 -0.006888283 -0.006984286 -0.007042308 -0.007072112 -0.007085086 -0.007094231 -0.007122329 -0.007175419 -0.007269638 -0.007398102
 -0.007563352 -0.007750221 -0.007953938 -0.008158855 -0.008359728 -0.008545479 -0.008712509 -0.008858536 -0.008981812 -0.009092817
 -0.009191928 -0.009295105 -0.009402874 -0.009522181 -0.009651965 -0.009786287 -0.009924268 -0.01005833 -0.01018963 -0.0103176
 -0.01044378 -0.01057146 -0.01070004 -0.01083049 -0.01096082 -0.01108965 -0.01121517 -0.01133603 -0.01145049 -0.01155737
 -0.01165599 -0.01174539 -0.01182799 -0.01190334 -0.01197835 -0.0120535 -0.01213695 -0.01222937 -0.01233539 -0.01245503
 -0.01258591 -0.01272713 -0.01287013 -0.01301399 -0.01314946 -0.01327741 -0.01339484 -0.01350491 -0.0136127 -0.01371997
 -0.01383277 -0.01394709 -0.01406229 -0.01417147 -0.01426868 -0.01435401 -0.01442392 -0.01448867 -0.01455027 -0.01461856
 -0.01469682 -0.01478459 -0.01488282 -0.01498369 -0.01508669 -0.01518604 -0.0152816 -0.0153731 -0.01546096 -0.01554864
 -0.01563677 -0.01573042 -0.01582908 -0.0159349 -0.01604483 -0.01615415 -0.01625959 -0.01635358 -0.0164375 -0.01650856
 -0.01657323 -0.01663503 -0.0166983 -0.01676705 -0.01683848 -0.01691311 -0.01698525 -0.01705326 -0.01711672 -0.01717478
 -0.01723356 -0.0172934 -0.01736027 -0.01743432 -0.01751577 -0.01760421 -0.01769595 -0.01779099 -0.0178874 -0.01798571
 -0.01808723 -0.0181908 -0.01829565 -0.01839824 -0.01849323 -0.01857824 -0.01864785 -0.01870489 -0.01874831 -0.0187855
 -0.01881918 -0.01885607 -0.0188993 -0.01895038 -0.01901085 -0.01907623 -0.01914652 -0.01921409 -0.01927828 -0.01933482
 -0.0193837 -0.01942894 -0.01947128 -0.01951938 -0.01957321 -0.01963745 -0.01971072 -0.01979135 -0.01987818 -0.01996809
 -0.02006056 -0.02015444 -0.02024696 -0.02033602 -0.02041637 -0.02048297 -0.02053562 -0.02057063 -0.02059853 -0.02062105
 -0.02065038 -0.02069087 -0.0207405 -0.02080072 -0.02085708 -0.02090845 -0.02094651 -0.02097118 -0.02099028 -0.02100483
 -0.02102769 -0.02105858 -0.02110303 -0.02115977 -0.02122782 -0.02130636 -0.02139352 -0.02148822 -0.02158876 -0.02169279
 -0.0217975 -0.02190101 -0.02200115 -0.02209715 -0.02218839 -0.02227373 -0.02235299 -0.02242409 -0.02248637 -0.02253955
 -0.02258302 -0.02262115 -0.02265397 -0.02269043 -0.02273098 -0.02278391 -0.02284889 -0.0229267 -0.0230156 -0.02310763
 -0.0232012 -0.02328646 -0.02336486 -0.02343371 -0.02349751 -0.02356174 -0.02362953 -0.02370759 -0.02379231 -0.02388485
 -0.02397599 -0.0240616 -0.02413537 -0.02419286 -0.02423841 -0.02427104 -0.02430228 -0.02433345 -0.02437399 -0.02442505
 -0.02448745 -0.02456112 -0.02463948 -0.02472196 -0.02480039 -0.02487484 -0.02494119 -0.02500025 -0.02505231 -0.02509807
 -0.02513912 -0.02517583 -0.02520904 -0.02524003 -0.02527009 -0.02530112 -0.02533513 -0.02537224 -0.02541337 -0.02545682
 -0.02550211 -0.02554855 -0.02559568 -0.02564473 -0.02569578 -0.02575014 -0.025808 -0.02586867 -0.02593206 -0.0259948
 -0.02605663 -0.02611343 -0.02616516 -0.0262094 -0.02624636 -0.0262754 -0.0262966 -0.02630938 -0.02631483 -0.0263132
 -0.02630869 -0.02630507 -0.02630756 -0.02632167 -0.02634813 -0.02638973 -0.0264418 -0.02650381 -0.02657002 -0.02663932
 -0.02670668 -0.02677144 -0.02682875 -0.02687817 -0.02691651 -0.02694368 -0.0269609 -0.02696869 -0.02697256 -0.02697353
 -0.02697969 -0.02699191 -0.0270179 -0.02705632 -0.02710912 -0.02717192 -0.02723921 -0.02730711 -0.02736904 -0.02742451
 -0.02747088 -0.02750969 -0.02754102 -0.02756637 -0.02758599 -0.02760225 -0.02761558 -0.02762846 -0.02764145 -0.02765473
 -0.02766838 -0.02768186 -0.02769519 -0.02770972 -0.02772564 -0.02774493 -0.02776811 -0.02779797 -0.02783657 -0.0278912
 -0.02796567 -0.02807175 -0.02821213 -0.02839634 -0.0286243 -0.02889949 -0.02922084 -0.02958847 -0.03000195 -0.03046146
 -0.03096524 -0.03151336 -0.03210143 -0.03272787 -0.0333933 -0.0340968 -0.03484678 -0.03564423 -0.03649217 -0.03739033
 -0.03830172 -0.03921773 -0.04003452 -0.04073667 -0.04118291 -0.0413725 -0.04121753 -0.04075105 -0.03998672 -0.03899699
 -0.0378865 -0.03674217 -0.03570005 -0.03479699 -0.03410991 -0.03361964 -0.03333907 -0.03323197 -0.03329214 -0.03347759
 -0.03378415 -0.03414692 -0.03456067 -0.03493946 -0.03527484 -0.03551413 -0.03565462 -0.03570089 -0.03565569 -0.03555021
 -0.0353884 -0.03520824 -0.03501067 -0.03482074 -0.03463291 -0.0344467 -0.03425752 -0.03405598 -0.03384534 -0.03362561
 -0.03340006 -0.03317298 -0.03293999 -0.03269998 -0.03244924 -0.03218396 -0.03191273 -0.03163502 -0.0313688 -0.03111655
 -0.0308917 -0.03069628 -0.03052921 -0.03039043 -0.0302655 -0.03015351 -0.03003883 -0.0299222 -0.02979891 -0.02967183
 -0.02954804 -0.02943028 -0.02932859 -0.02924342 -0.0291808 -0.02913754 -0.02911346 -0.02910225 -0.02909981 -0.02909935
 -0.02909607 -0.02908703 -0.02906947 -0.02904582 -0.02901593 -0.02898347 -0.02894925 -0.02891351 -0.02887647 -0.02883609
 -0.0287923 -0.0287468 -0.02870012 -0.02865917 -0.02862436 -0.02860219 -0.02859129 -0.02859101 -0.02859849 -0.02860659
 -0.02861408 -0.0286149 -0.02861177 -0.02860484 -0.02859826 -0.02859601 -0.02859819 -0.02860701 -0.02861759 -0.02862857
 -0.02863665 -0.02863991 -0.02864168 -0.0286419 -0.02864594 -0.02865465 -0.02866632 -0.02868087 -0.02868975 -0.02869269
 -0.02868364 -0.02866378 -0.02863657 -0.02860382 -0.0285741 -0.02854746 -0.02852882 -0.02851592 -0.02850736 -0.02850096
 -0.02849334 -0.0284845 -0.02847325 -0.0284605 -0.0284467 -0.02843161 -0.02841524 -0.02839732 -0.02837749 -0.02835716
 -0.02833645 -0.02831691 -0.02829883 -0.02828091 -0.0282631 -0.0282428 -0.02822019 -0.02819632 -0.02817214 -0.02815388
 -0.02814222 -0.02814375 -0.02815668 -0.02818119 -0.02821257 -0.02824327 -0.02826977 -0.02828384 -0.02828802 -0.02828048
 -0.02826806 -0.02825453 -0.02824241 -0.02823467 -0.02822637 -0.0282168 -0.02820203 -0.02818045 -0.0281567 -0.02813067
 -0.02811225 -0.02810198 -0.02810641 -0.02812527 -0.02815685 -0.02819978 -0.02824528 -0.02829184 -0.02832899 -0.02835707
 -0.02837095 -0.02837336 -0.02836622 -0.02835269 -0.0283373 -0.0283216 -0.02830816 -0.02829787 -0.02829151 -0.02829077
 -0.02829639 -0.0283095 -0.0283309 -0.02835906 -0.02839426 -0.02843182 -0.02847147 -0.02850746 -0.02853944 -0.02856359
 -0.02857998 -0.02858871 -0.02859037 -0.02858834 -0.02858333 -0.0285797 -0.02857772 -0.02858049 -0.02858726 -0.02859839
 -0.02861243 -0.02862782 -0.02864362 -0.02865836 -0.02867242 -0.0286856 -0.02869838 -0.02871098 -0.02872334 -0.02873537
 -0.02874768 -0.02876028 -0.02877429 -0.02878992 -0.02880638 -0.02882362 -0.02883859 -0.02885121 -0.02885959 -0.02886419
 -0.02886683 -0.0288684 -0.02887339 -0.02888196 -0.02889717 -0.02891757 -0.02894245 -0.02896945 -0.02899549 -0.02901921
 -0.02903829 -0.02905302 -0.02906249 -0.02906898 -0.02907249 -0.02907776 -0.02908575 -0.02910135 -0.02912619 -0.02915828
 -0.02919823 -0.02923533 -0.02926898 -0.02928965 -0.02929751 -0.02929399 -0.02928039 -0.02926577 -0.02925093 -0.02924379
 -0.02924404 -0.02925526 -0.0292759 -0.02930573 -0.02934126 -0.02937865 -0.02941417 -0.02944275 -0.02946492 -0.0294785
 -0.02948886 -0.02949738 -0.02950886 -0.02952537 -0.02954666 -0.02957335 -0.02960209 -0.02963254 -0.02966313 -0.02969371
 -0.02972576 -0.02975934 -0.02979544 -0.02983353 -0.02987055 -0.02990591 -0.02993503 -0.02995925 -0.02997895 -0.02999702
 -0.03001895 -0.03004573 -0.03008187 -0.03012389 -0.03017108 -0.03021823 -0.03026177 -0.03029991 -0.03033021 -0.03035628
 -0.03037813 -0.03040131 -0.03042701 -0.03045722 -0.03049263 -0.03052971 -0.03056832 -0.03060296 -0.03063355 -0.03065783
 -0.0306763 -0.03069104 -0.03070286 -0.03071585 -0.03073047 -0.03074992 -0.03077411 -0.03080436 -0.03084017 -0.03088145
 -0.03092777 -0.03097905 -0.03103404 -0.03109277 -0.03115159 -0.03120984 -0.03126181 -0.03130585 -0.03133832 -0.03135787
 -0.03136596 -0.03136222 -0.03135251 -0.03133711 -0.03132373 -0.03131277 -0.0313111 -0.03131871 -0.03133927 -0.03137165
 -0.03141398 -0.03146401 -0.03151513 -0.03156556 -0.03160849 -0.03164494 -0.03167246 -0.0316956 -0.0317169 -0.03174139
 -0.03177321 -0.03181326 -0.03186382 -0.03192034 -0.03198254 -0.03204413 -0.03210394 -0.0321579 -0.03220525 -0.03224575
 -0.03227929 -0.03230868 -0.0323341 -0.03235918 -0.03238378 -0.03240897 -0.03243387 -0.03245556 -0.03247333 -0.03248334
 -0.0324868 -0.03248339 -0.0324764 -0.03246944 -0.03246583 -0.03246989 -0.03248252 -0.03250635 -0.03253792 -0.0325776
 -0.03261744 -0.03265575 -0.03268478 -0.03270222 -0.03270837 -0.03270233 -0.0326934 -0.03268209 -0.03267771 -0.03268034
 -0.03269103 -0.03270899 -0.03272905 -0.0327509 -0.03277009 -0.0327878 -0.03280461 -0.03282236 -0.03284513 -0.03287279
 -0.03290781 -0.03294658 -0.0329875 -0.0330256 -0.0330575 -0.03308008 -0.03309084 -0.03309029 -0.03307726 -0.03305689
 -0.03302915 -0.03300337 -0.03298053 -0.03296806 -0.03296665 -0.03297422 -0.03299025 -0.03300466 -0.03301709 -0.03301977
 -0.03301383 -0.03299926 -0.03297832 -0.03295642 -0.03293649 -0.03292624 -0.03292773 -0.03294827 -0.03298359 -0.03303517
 -0.03308994 -0.03314109 -0.03317713 -0.03318917 -0.03318211 -0.03315338 -0.03312034 -0.03308615 -0.03306059 -0.03304605
 -0.03303727 -0.03303415 -0.03302781 -0.03301817 -0.03300471 -0.03298819 -0.03297424 -0.03296288 -0.03295731 -0.03295679
 -0.03296073 -0.03296895 -0.03298114 -0.03299656 -0.03301495 -0.03303337 -0.03304937 -0.03306015 -0.03306272 -0.03305778
 -0.03304458 -0.0330255 -0.0330009 -0.03297319 -0.03294244 -0.03291307 -0.03288545 -0.03286456 -0.03285087 -0.0328436
 -0.03284247 -0.03284125 -0.03283989 -0.03283465 -0.03282677 -0.03281942 -0.03281419 -0.03281773 -0.03282924 -0.03285185
 -0.03288019 -0.03290951 -0.03293282 -0.03294133 -0.03293378 -0.03290514 -0.03286236 -0.03280664 -0.03274573 -0.03268212
 -0.0326202 -0.03256078 -0.03250905 -0.0324656 -0.03243511 -0.03241806 -0.03241276 -0.03241899 -0.03243177 -0.03245139
 -0.03247806 -0.03251219 -0.03255694 -0.03260976 -0.03266687 -0.03272186 -0.03276069 -0.03277965 -0.03276541 -0.03272492
 -0.03265802 -0.03257726 -0.03249092 -0.03240546 -0.03232664 -0.0322527 -0.03218411 -0.03211912 -0.03205677 -0.03200062
 -0.03195092 -0.03191089 -0.03188085 -0.03186017 -0.03184883 -0.03184676 -0.03185365 -0.03186845 -0.03188852 -0.03190183
 -0.03190576 -0.03188431 -0.03184247 -0.03178107 -0.03170856 -0.0316381 -0.03157072 -0.03151218 -0.03146083 -0.03141627
 -0.03138032 -0.03135447 -0.03133662 -0.03132854 -0.03131768 -0.03130248 -0.03126995 -0.03121758 -0.03114512 -0.03105205
 -0.0309491 -0.03083693 -0.03072855 -0.03062426 -0.03053282 -0.03045296 -0.03038403 -0.03032432 -0.03026847 -0.03021609
 -0.03016461 -0.0301123 -0.03005691 -0.02999398 -0.02991721 -0.02982821 -0.02972343 -0.02961508 -0.02950787 -0.02940964
 -0.02932592 -0.02924914 -0.02917976 -0.02910389 -0.0290195 -0.02892108 -0.02880779 -0.02868555 -0.02855466 -0.0284225
 -0.02828835 -0.02814945 -0.02800446 -0.02784398 -0.02767123 -0.02748946 -0.0273049 -0.02713379 -0.02697335 -0.02682923
 -0.02668955 -0.02654409 -0.02638741 -0.02620958 -0.0260212 -0.0258233 -0.02563004 -0.02544695 -0.02527777 -0.02512602
 -0.02498077 -0.02484317 -0.02468254 -0.02449681 -0.0242583 -0.02396709 -0.02364353 -0.02329115 -0.02295151 -0.02262157
 -0.02231007 -0.02200966 -0.02170251 -0.02138606 -0.02104599 -0.02068484 -0.02030024 -0.01989506 -0.01947157 -0.01903081
 -0.01857737 -0.01809988 -0.01759923 -0.01704619 -0.01642936 -0.01574192 -0.01497262 -0.01417444 -0.01335229 -0.01255181
 -0.01177857 -0.01101407 -0.01025734 -0.009482577 -0.008692733 -0.007905348 -0.007121918 -0.00636398 -0.005619208 -0.004862768
 -0.004082185 -0.003232062 -0.002329481 -0.001374712 -0.0003982186 0.0005631734 0.001512857 0.002437319 0.003362006 0.004297013
 0.00525361 0.006239075 0.00724856 0.008277713 0.009349518 0.01046012 0.01169307 0.01305572 0.01458674 0.01628321
 0.01799524 0.01971484 0.02129667 0.02276406 0.02415283 0.02548702 0.0268603 0.02827374 0.029772 0.0313531
 0.03301885 0.03480759 0.03673579 0.03890131 0.04137275 0.04422129 0.04753938 0.05118404 0.0551675 0.0591814
 0.0631571 0.06693104 0.07046161 0.07377321 0.0768609 0.07982993 0.08268835 0.08562935 0.08867192 0.0920978
 0.09587478 0.1000459 0.1044669 0.1086825 0.1126766 0.116146 0.1192678 0.1221752 0.1249925 0.1279107
 0.1309316 0.1341178 0.1374302 0.1408634 0.1443932 0.1480287 0.1516653 0.1552913 0.1587726 0.1620786
 0.1652363 0.1682439 0.1711756 0.174031 0.1766954 0.1791563 0.1812347 0.182951 0.1843079 0.1853447
 0.1861943 0.1868547 0.1873956 0.1877739 0.1879388 0.1879098 0.1876727 0.187299 0.1868363 0.1863234
 0.1857969 0.1852469 0.1846838 0.1840635 0.1833833 0.18258 0.1816469 0.1805179 0.179184 0.1776585
 0.1759443 0.1741788 0.1723648 0.1705891 0.1688358 0.1670669 0.1652738 0.1634017 0.1614686 0.1594762
 0.157467 0.1555044 0.1536174 0.1518672 0.1502379 0.1487386 0.1473445 0.1460385 0.1448344 0.143729
 0.1427562 0.1419269 0.1412375 0.1406913 0.1402564 0.1399299 0.1396989 0.139563 0.139533 0.1396093
 0.1397987 0.1400975 0.1404905 0.1409726 0.1415187 0.1421288 0.1427887 0.1435063 0.1442859 0.1451388
 0.1460788 0.1471126 0.1482507 0.1494912 0.1508351 0.1522819 0.1538291 0.1554879 0.1572618 0.1591504
 0.1611595 0.1632384 0.1653849 0.167529 0.1696679 0.1717972 0.1739206 0.176086 0.1782767 0.1804412
 0.1825414 0.1844093 0.1860637 0.1874484 0.1886326 0.1897082 0.190691 0.191647 0.1925249 0.1933023
 0.1939585 0.1944642 0.1948653 0.1951659 0.1954267 0.1956671 0.1958951 0.1961245 0.1962592 0.1962929
 0.1961377 0.1957896 0.1952378 0.1944831 0.1935309 0.1923831 0.1910507 0.1895365 0.1878666 0.1860174
 0.1839769 0.1816573 0.1789089 0.1757043 0.1718639 0.1676947 0.1633547 0.1591026 0.1551797 0.1514264
 0.1478388 0.1442654 0.1406436 0.1370479 0.1334742 0.1300535 0.1268018 0.1237162 0.1207961 0.1179515
 0.1151811 0.1124394 0.1097346 0.1070893 0.1045077 0.1020198 0.09961627 0.09729315 0.09503551 0.0928187
 0.09063336 0.08846546 0.08629505 0.08411963 0.0818696 0.07951355 0.0769862 0.07420847 0.0713836 0.06851131
 0.06596046 0.06381799 0.06203498 0.06062649 0.05931563 0.05808937 0.0568043 0.05546744 0.05411207 0.05275124
 0.0514784 0.0502843 0.04918469 0.04816974 0.04721307 0.04634088 0.0455768 0.04495893 0.04454704 0.04433256
 0.04433549 0.04451508 0.04485387 0.04532987 0.04592786 0.04665481 0.04750222 0.04852106 0.04970825 0.0511859
 0.05296616 0.05512605 0.05766777 0.06035856 0.06317334 0.06573012 0.06804325 0.06999384 0.07162151 0.07300268
 0.07414985 0.07512388 0.07593337 0.07659987 0.07717876 0.07772089 0.07831943 0.0790782 0.07998969 0.08111712
 0.08227571 0.08340659 0.08441243 0.08523992 0.08596347 0.08658516 0.08718659 0.08777782 0.0883728 0.08897247
 0.08954267 0.09008239 0.09056678 0.09100143 0.09140186 0.09178027 0.09218618 0.09262808 0.09315578 0.09375586
 0.09443171 0.09516159 0.09591591 0.09670211 0.09751244 0.09837011 0.09928992 0.1002695 0.1013173 0.1023995
 0.1035106 0.1046194 0.105719 0.1068027 0.1078698 0.1089154 0.1099389 0.1108929 0.1117724 0.1124997
 0.1130733 0.1134448 0.1136163 0.1135723 0.11331 0.1128153 0.1120866 0.1111093 0.1098997 0.1084626
 0.1068352 0.105045 0.1031249 0.1011024 0.09898201 0.09677029 0.09446754 0.09206347 0.08962278 0.08714395
 0.0847595 0.08248263 0.08039334 0.07849646 0.07675999 0.07517978 0.07369273 0.07230029 0.07097925 0.06973464
 0.06857528 0.06749687 0.06649794 0.06556232 0.06466572 0.06378921 0.06290285 0.06199391 0.06104112 0.06004598
 0.05899967 0.0579224 0.05681696 0.05571065 0.05461164 0.05353145 0.05247495 0.05143124 0.0503997 0.04937025
 0.04834228 0.04734028 0.04636795 0.0454817 0.04468255 0.04400801 0.04345004 0.04299988 0.04264982 0.04237631
 0.04217848 0.04204507 0.04197596 0.04196837 0.0420177 0.04212124 0.04226992 0.0424601 0.04267872 0.04292075
 0.04317566 0.04343905 0.04371059 0.04398942 0.04427875 0.04457958 0.04488321 0.04518924 0.04548223 0.04576276
 0.0460336 0.04629944 0.04658875 0.04690778 0.04729441 0.04775092 0.04830388 0.04894665 0.04968383 0.05049821
 0.05137721 0.05229137 0.05322184 0.05412108 0.05496703 0.05569742 0.0562869 0.05668627 0.05687441 0.05684856
 0.05660012 0.05617362 0.05557039 0.05485425 0.05402884 0.05315234 0.05222717 0.05129749 0.05036464 0.04945958
 0.04858234 0.04775063 0.04696163 0.04621821 0.04551575 0.04484687 0.04421106 0.04360317 0.043029 0.04249184
 0.04199497 0.04154319 0.04112974 0.04075423 0.04040629 0.04008268 0.03977972 0.03949577 0.03923371 0.03899354
 0.03877926 0.03859111 0.03843269 0.0383041 0.03820726 0.03814171 0.03810533 0.03809794 0.03811678 0.03816412
 0.03824324 0.03835836 0.03851845 0.03872514 0.03898573 0.03929454 0.03965127 0.04004472 0.04046921 0.040915
 0.041377 0.0418507 0.04233482 0.04282333 0.04331657 0.04379907 0.04427003 0.04470845 0.045113 0.04547099
 0.04578276 0.04605186 0.04627998 0.0464802 0.04665239 0.04680428 0.04693176 0.04702918 0.04709154 0.0471067
 0.04707461 0.04698907 0.04685556 0.04667681 0.04645627 0.04619827 0.04589821 0.04555618 0.04516415 0.04471853
 0.04422201 0.04367208 0.04309002 0.04247689 0.04186027 0.04124198 0.04063432 0.04003683 0.03944222 0.03884985
 0.03825142 0.03764832 0.03704233 0.03643333 0.0358231 0.03520789 0.03458108 0.03394233 0.0332857 0.03262077
 0.03195138 0.0312919 0.03065181 0.03003906 0.02946041 0.02891254 0.0283969 0.02790381 0.02743166 0.02697449
 0.0265308 0.02610585 0.02569974 0.02532696 0.02498827 0.02469735 0.02445411 0.02426487 0.02412874 0.02404556
 0.02401488 0.02403519 0.02410708 0.02423087 0.02440736 0.02463816 0.02492227 0.02525939 0.02564853 0.02608759
 0.02658136 0.02712954 0.02774323 0.02842546 0.02918313 0.03001961 0.03092624 0.03190384 0.03292809 0.03399774
 0.03508204 0.03617962 0.0372654 0.03833978 0.03939222 0.04042554 0.04144428 0.04245264 0.0434634 0.04447982
 0.04551422 0.04656586 0.047641 0.04873108 0.04983404 0.05093295 0.05202014 0.05307433 0.05408689 0.05503816
 0.05592116 0.05672471 0.05744403 0.05808592 0.05864875 0.05916103 0.05962412 0.06007734 0.06052255 0.06099293
 0.06148913 0.06203135 0.06262006 0.0632677 0.06397499 0.06475134 0.06559411 0.06650567 0.06747576 0.06849495
 0.06954835 0.07062028 0.07170089 0.07278001 0.07385378 0.07492034 0.07596999 0.07700159 0.0779985 0.07895682
 0.079871 0.08073859 0.08157434 0.08237892 0.08317064 0.08394973 0.08472005 0.08547999 0.08621989 0.0869385
 0.08762472 0.08828031 0.08890274 0.08949793 0.09007543 0.0906395 0.09120169 0.09175678 0.09230581 0.09283825
 0.09334712 0.09382901 0.09427931 0.09470409 0.09510355 0.09548581 0.09585156 0.09621156 0.09656615 0.09693339
 0.09731429 0.09773078 0.09818356 0.09868623 0.09923593 0.09982183 0.1004346 0.1010323 0.1016033 0.102094
 0.1024998 0.1027858 0.1029566 0.1030041 0.1029342 0.1027498 0.1024537 0.102047 0.101537 0.1009226
 0.1002263 0.09944898 0.09863179 0.09777896 0.09694225 0.09612723 0.09537713 0.09469544 0.09410112 0.09359404
 0.09316867 0.09282214 0.09253217 0.09229445 0.09207942 0.09188478 0.09168793 0.091492 0.09129144 0.09109246
 0.09090129 0.09072112 0.0905582 0.09040982 0.09027816 0.09015288 0.0900325 0.08989984 0.0897502 0.08957011
 0.08935525 0.08910552 0.08881997 0.088505 0.08816103 0.08779078 0.08739453 0.08697659 0.08653822 0.0860913
 0.08563636 0.0851837 0.08472932 0.08426985 0.08379599 0.08329059 0.08274242 0.0821292 0.0814467 0.08068032
 0.07983997 0.07892518 0.07795374 0.07693259 0.07587528 0.07478572 0.07367775 0.07255223 0.07143371 0.07032424
 0.06925078 0.06821538 0.06723398 0.06630708 0.06544107 0.06463518 0.06388814 0.06319612 0.06254338 0.06192399
 0.06131271 0.06070805 0.06009406 0.05947531 0.05885151 0.05822661 0.05760602 0.05698616 0.05636915 0.0557415
 0.05510046 0.05442596 0.05371219 0.0529434 0.05211465 0.05122389 0.0502693 0.04926149 0.04820072 0.04710574
 0.04597793 0.04484434 0.0437072 0.04259633 0.0415129 0.04047837 0.03949168 0.03856185 0.03768504 0.03686022
 0.03607855 0.03532954 0.0346017 0.03388005 0.0331604 0.03243411 0.0317068 0.03097877 0.03025572 0.02953978
 0.02883248 0.02813394 0.02744795 0.02677466 0.02612025 0.02548527 0.0248713 0.02427833 0.02370501 0.02315173
 0.02262104 0.0221135 0.02163355 0.0211802 0.02075359 0.02035091 0.01996688 0.01959909 0.01924142 0.01889465
 0.01855629 0.01823106 0.01792109 0.01763048 0.01736251 0.01711544 0.01689008 0.016681 0.01648685 0.01630625
 0.0161382 0.01598921 0.01585948 0.01576055 0.0156928 0.01566202 0.01566654 0.01569577 0.01574639 0.01579683
 0.01584738 0.01588621 0.01591893 0.0159516 0.01598712 0.01603455 0.01608717 0.01614364 0.0161922 0.01622434
 0.01623414 0.01621437 0.01617324 0.01610832 0.01604427 0.01598413 0.01595532 0.01596294 0.01601166 0.01610305
 0.01621494 0.01634642 0.01647955 0.01661683 0.01677197 0.01694884 0.0171759 0.01744769 0.01776727 0.01811788
 0.01846749 0.01880473 0.01909514 0.01935034 0.01956465 0.01976509 0.01996936 0.02019025 0.02044273 0.0207114
 0.02099688 0.02127404 0.02153742 0.02177326 0.02197832 0.02215282 0.02229619 0.02241805 0.02251915 0.02261738
 0.02271397 0.02282775 0.02295822 0.02311352 0.02329129 0.02348857 0.02370407 0.02393333 0.02417724 0.02443601
 0.02470807 0.02499439 0.02528586 0.02557874 0.02585946 0.02612026 0.0263557 0.02656038 0.02674321 0.02690392
 0.02705787 0.02720716 0.02736081 0.02751991 0.02768407 0.02785318 0.02802229 0.02819138 0.02835731 0.02852151
 0.02868827 0.02886078 0.02905104 0.02926063 0.02950025 0.02976518 0.03005522 0.03036 0.03066927 0.03097599
 0.03127047 0.03155636 0.03183249 0.03210504 0.03237818 0.03264392 0.03290302 0.03313708 0.03334237 0.03351915
 0.03366586 0.03381468 0.03396735 0.03415984 0.03439115 0.03466734 0.03498363 0.03532014 0.03567385 0.03602524
 0.03637436 0.03671289 0.0370396 0.03735001 0.03764126 0.03790686 0.03815192 0.03837316 0.03859223 0.0388158
 0.03906974 0.03936614 0.0397083 0.04010253 0.04052465 0.04097329 0.04141999 0.04186223 0.04228434 0.04268578
 0.04306486 0.04342362 0.04377936 0.04413661 0.04452831 0.04495373 0.04543213 0.04595045 0.04649346 0.04704338
 0.04756892 0.04805689 0.04848438 0.04884028 0.04911022 0.049289 0.04936567 0.0493593 0.04926753 0.04913567
 0.04897046 0.04881876 0.04868813 0.04860501 0.04857273 0.04859571 0.04867387 0.04879328 0.04895142 0.04911953
 0.04929407 0.04944159 0.04956191 0.0496337 0.04966615 0.04966484 0.04964684 0.04964 0.04965395 0.04971322
 0.04980631 0.04993531 0.05007964 0.05022831 0.05037443 0.05051146 0.05064726 0.05078195 0.05092555 0.05107949
 0.05125036 0.05143928 0.05164222 0.05185872 0.05206972 0.05227447 0.05245665 0.05261962 0.05277042 0.05291563
 0.0530787 0.05326567 0.05350043 0.05378623 0.05414136 0.05455656 0.05503539 0.05554879 0.05608059 0.05659936
 0.05708386 0.05752441 0.05791062 0.0582539 0.05855272 0.05883083 0.05908968 0.05936148 0.05964923 0.05997259
 0.06033212 0.06071163 0.06110848 0.0614877 0.06185025 0.06218129 0.06248742 0.06278258 0.0630707 0.06337009
 0.06367373 0.06398184 0.0642792 0.06454918 0.06478428 0.06496942 0.06511831 0.06523194 0.06532976 0.0654211
 0.06550539 0.06558497 0.0656509 0.06569999 0.06574583 0.06578855 0.06585365 0.0659422 0.0660594 0.06620469
 0.0663725 0.06656469 0.06678876 0.06704641 0.06734943 0.06769285 0.06807502 0.06848204 0.0688955 0.0692959
 0.06965335 0.06996434 0.07020488 0.07041951 0.07061145 0.07086647 0.07122497 0.07169251 0.07229803 0.07290354
 0.07348974 0.07398429 0.07437522 0.07469617 0.07494842 0.07515949 0.07532855 0.07545428 0.0755358 0.07556736
 0.07555039 0.07548488 0.07537628 0.07523318 0.07506853 0.07490518 0.07475367 0.07463772 0.07454934 0.0744941
 0.07444941 0.07440614 0.07434532 0.07425573 0.07413965 0.07399042 0.07384413 0.07370278 0.07361516 0.07358733
 0.07362576 0.07373046 0.07384953 0.07397902 0.07405705 0.07408392 0.0740279 0.07389477 0.07368203 0.0734061
 0.0730954 0.07277969 0.07251962 0.07232708 0.07224973 0.07225022 0.07232153 0.0724124 0.07249197 0.07254034
 0.07254068 0.07250183 0.07241854 0.07232637 0.07222677 0.0721736 0.07217297 0.0722433 0.07238548 0.07256551
 0.07278186 0.07300656 0.07324038 0.07347709 0.07371084 0.07391804 0.0740939 0.07420931 0.07428022 0.07431398
 0.07433894 0.07439058 0.07448169 0.0746403 0.07484493 0.07510051 0.07535356 0.07558858 0.07575839 0.07584222
 0.0758538 0.07578626 0.07570837 0.07562618 0.07558386 0.07558374 0.07560603 0.07564873 0.07568029 0.07570296
 0.07571416 0.0757162 0.07571547 0.07571288 0.07571137 0.07571696 0.07573974 0.07578599 0.0758673 0.07598414
 0.07614064 0.07633533 0.07657213 0.0768354 0.07712753 0.0774041 0.07765689 0.07784368 0.07795303 0.07799074
 0.07795356 0.07789206 0.07780887 0.07776062 0.07774758 0.07779239 0.077886 0.07799084 0.07809337 0.07812224
 0.07808078 0.07793522 0.07771014 0.07742967 0.07711435 0.07679786 0.07648612 0.07619462 0.07592231 0.07567684
 0.07543876 0.07520764 0.07494581 0.07464135 0.07428491 0.07386832 0.07343179 0.07297786 0.0725458 0.07213788
 0.07174845 0.07137534 0.07098844 0.07058658 0.07014663 0.06967182 0.06915793 0.06861621 0.06807004 0.06752997
 0.06702895 0.06655636 0.06611604 0.06568676 0.06524926 0.06480276 0.06433981 0.06387087 0.06340063 0.06292512
 0.06244265 0.06195711 0.06146423 0.06100566 0.06058415 0.06024364 0.05998672</values></Ydata></AB><ScSm><Ydata ylabel="Single channel"><values byteorder="INTEL" format="FLOAT32" numvalues="1814"> 0.0668162 0.06681582 0.06688279 0.06703933 0.0672512 0.06745163 0.06759013 0.06766202 0.06768572 0.06766409
 0.0675994 0.06754246 0.06757907 0.0677454 0.06797779 0.06815767 0.06820604 0.06815234 0.06811726 0.06819224
 0.06831113 0.06827156 0.06792592 0.06735358 0.0668112 0.06649905 0.06643708 0.06661484 0.0671176 0.0678864
 0.06844804 0.06825379 0.06737155 0.06651647 0.06625877 0.06647614 0.06668822 0.06661098 0.0662448 0.06576212
 0.06555422 0.06613024 0.06762078 0.06936012 0.07012215 0.06889641 0.06561137 0.06136058 0.05799387 0.05712599
 0.05900363 0.06217915 0.06459738 0.06523583 0.06459577 0.06366385 0.0628446 0.06209178 0.06160192 0.06184855
 0.06293182 0.06414239 0.06433325 0.06290485 0.06051832 0.05862034 0.0581213 0.05882785 0.06022452 0.06203625
 0.06344421 0.06263082 0.05856366 0.05326748 0.05093003 0.05392354 0.06027319 0.065584 0.0669513 0.06460353
 0.06064189 0.057295 0.0560665 0.05732913 0.06026543 0.06354392 0.06612264 0.06729931 0.06653297 0.06391206
 0.0606184 0.05835932 0.05831963 0.0606925 0.06463845 0.06836642 0.06994728 0.06873497 0.0657962 0.06278569
 0.06085634 0.060658 0.06250097 0.06603734 0.07023662 0.07397742 0.07650465 0.07751402 0.07722 0.07621835
 0.07503286 0.07402556 0.07370695 0.07442327 0.07553186 0.07564426 0.07413249 0.071964 0.07070671 0.07091088
 0.07167131 0.07173075 0.07075221 0.0691314 0.06676625 0.06301335 0.05817224 0.05390112 0.05156674 0.05119521
 0.05244184 0.05512895 0.05810631 0.05918993 0.05755422 0.05525438 0.055198 0.05804499 0.06186482 0.06448185
 0.065487 0.06608772 0.06755786 0.06993747 0.07186684 0.0716119 0.06878161 0.06529571 0.06402608 0.06597686
 0.06931917 0.07164401 0.07250726 0.07316408 0.07437436 0.07522136 0.07406774 0.07049914 0.06636219 0.06462318
 0.06678814 0.07139668 0.0750827 0.07507043 0.07104219 0.06519991 0.06054367 0.05880085 0.05996524 0.06343289
 0.06866719 0.07460431 0.07938261 0.08138706 0.08042876 0.07764323 0.07419567 0.07021035 0.06538832 0.06078669
 0.0590344 0.06185032 0.06784885 0.07369201 0.07706548 0.07783781 0.07677354 0.07411301 0.06976993 0.06467363
 0.06121462 0.06139623 0.06442521 0.06715488 0.06737614 0.06583308 0.06461669 0.06456329 0.06493382 0.06499495
 0.06505534 0.06591338 0.06770173 0.06956805 0.07050002 0.07025398 0.06939887 0.06865358 0.06823869 0.06772129
 0.06661783 0.06533776 0.06515545 0.06681964 0.06953067 0.07176311 0.07280134 0.07301333 0.07284476 0.07203671
 0.07000695 0.06695038 0.06430243 0.06368159 0.06532317 0.06792498 0.07000496 0.07097257 0.07099515 0.07046284
 0.06972212 0.06896037 0.0682621 0.06785542 0.06806038 0.06883511 0.06966281 0.07006875 0.0700126 0.06966719
 0.06908339 0.06824163 0.06728347 0.0665295 0.06625428 0.0664774 0.06698935 0.06753985 0.06793322 0.06800212
 0.06766646 0.06705185 0.06641181 0.06589939 0.06552027 0.06529153 0.06529006 0.06551015 0.06579506 0.06596785
 0.06596808 0.06583373 0.06561038 0.06531834 0.06497914 0.06464566 0.06440504 0.06432761 0.06438542 0.06445906
 0.06447108 0.0644667 0.06450173 0.06450982 0.06437209 0.06408519 0.06377612 0.0635642 0.0634682 0.06343472
 0.06339546 0.06327941 0.06301586 0.06259313 0.06213223 0.06184162 0.06184831 0.0621018 0.06245887 0.06279732
 0.06302929 0.06309968 0.06302957 0.06290255 0.06276865 0.0626017 0.0623699 0.06211665 0.06195596 0.061985
 0.06218974 0.06244624 0.06262926 0.06269953 0.06268571 0.06263763 0.06261086 0.06263255 0.06265782 0.06261068
 0.06248313 0.06235383 0.06230116 0.06232491 0.06235459 0.06232397 0.06224182 0.06218364 0.06220536 0.06228426
 0.0623587 0.06240049 0.06242679 0.06245482 0.06246259 0.06240237 0.06226127 0.06209758 0.061988 0.06194586
 0.06192683 0.0619083 0.06191708 0.06197252 0.06204125 0.06206796 0.0620355 0.06197739 0.06193057 0.06188798
 0.06181171 0.06168787 0.06154921 0.06144066 0.06137798 0.06134307 0.06130738 0.06125433 0.06118401 0.06110177
 0.06100769 0.06089738 0.0607674 0.06062165 0.06048224 0.06038769 0.06036073 0.06037424 0.06036445 0.06028584
 0.06015094 0.06001505 0.05992272 0.05986935 0.05981688 0.05974375 0.0596668 0.05961315 0.05958736 0.05957469
 0.05956304 0.05955406 0.05956498 0.05962655 0.05976396 0.05996466 0.06017286 0.06033193 0.06043284 0.06051204
 0.06060633 0.06072186 0.06084432 0.06096598 0.06109949 0.06126615 0.06146483 0.06165635 0.06179767 0.06189324
 0.06199213 0.06213336 0.06231654 0.06252219 0.06272914 0.06290953 0.06304154 0.06313963 0.06324783 0.06339121
 0.06355208 0.0637034 0.06384709 0.06400447 0.06418143 0.06436576 0.06455724 0.06478067 0.0650584 0.0653778
 0.06569356 0.06596123 0.06617275 0.06636712 0.06660413 0.06691566 0.0672771 0.0676298 0.06793402 0.06819923
 0.06846209 0.06874159 0.06902812 0.06931826 0.06963892 0.07001635 0.07043408 0.07084656 0.07123043 0.07159969
 0.07197376 0.07235365 0.07273272 0.07311319 0.07350464 0.07391062 0.07431924 0.0747077 0.07506016 0.07538176
 0.07569438 0.07602332 0.07638523 0.07677154 0.07713845 0.07743731 0.07767318 0.07791365 0.07821608 0.07856101
 0.0788842 0.07916348 0.07944074 0.07975867 0.0801082 0.08045147 0.0807723 0.08108474 0.08140212 0.08171353
 0.08198967 0.08220789 0.08237587 0.08253068 0.08270879 0.08292225 0.08317244 0.08347083 0.0838208 0.08418724
 0.08451231 0.08476289 0.08494639 0.08509105 0.08523264 0.08540668 0.08562644 0.08587149 0.08611029 0.08632183
 0.08649263 0.08662307 0.08675082 0.08693564 0.08720075 0.08751369 0.08783966 0.08818397 0.08855982 0.08894467
 0.08930567 0.08965427 0.0900343 0.09045095 0.09084666 0.09116273 0.0913966 0.09158167 0.09174423 0.09191138
 0.09213379 0.09245458 0.09285881 0.09328392 0.09368034 0.09404184 0.09438085 0.09469622 0.0949726 0.09520093
 0.09539029 0.09555858 0.09571892 0.09588315 0.09607042 0.09629238 0.09652651 0.09672242 0.09684066 0.09686919
 0.09680066 0.09662278 0.09635064 0.09604351 0.09575579 0.09547238 0.09511577 0.09461813 0.09396918 0.09319503
 0.09231739 0.09135005 0.09032561 0.08931021 0.08838848 0.08763591 0.08710602 0.0868385 0.08686513 0.08718759
 0.08774204 0.08839682 0.08899537 0.08940253 0.08952171 0.08930176 0.08875385 0.08795412 0.08700997 0.08601867
 0.08505388 0.08416638 0.08337858 0.08269453 0.08214262 0.08180881 0.08181606 0.08227349 0.08324556 0.08473935
 0.08668061 0.08889455 0.09114149 0.09320926 0.09499314 0.09650058 0.09779574 0.09894928 0.1000191 0.101038
 0.1020016 0.102882 0.1036641 0.1043577 0.1049754 0.105512 0.1059504 0.1062731 0.1064711 0.1065555
 0.1065626 0.1065402 0.1065296 0.1065605 0.1066459 0.1067656 0.106858 0.1068383 0.1066359 0.1062268
 0.1056552 0.1050467 0.1046167 0.1046508 0.1054176 0.107021 0.1092982 0.1118799 0.1143757 0.1165304
 0.1182573 0.1195894 0.1206205 0.1214557 0.122175 0.122825 0.1234322 0.1240108 0.1245621 0.1250809
 0.1255679 0.1260362 0.1265048 0.1269867 0.1274759 0.1279499 0.1283917 0.1288093 0.1292284 0.1296653
 0.1301107 0.1305426 0.1309546 0.1313641 0.1317866 0.1322087 0.1326027 0.1329622 0.1333115 0.1336799
 0.1340799 0.1345051 0.1349314 0.1353253 0.1356668 0.1359674 0.1362585 0.1365608 0.1368749 0.1371958
 0.1375256 0.1378666 0.1382122 0.1385539 0.1388947 0.1392446 0.1395976 0.1399259 0.1402071 0.1404517
 0.140696 0.1409662 0.1412567 0.141547 0.1418325 0.1421333 0.142469 0.1428319 0.1431901 0.1435159
 0.1438043 0.1440684 0.1443267 0.1445952 0.1448838 0.1451903 0.1455017 0.145806 0.1461041 0.1464047
 0.1467102 0.1470147 0.1473135 0.147606 0.1478897 0.1481621 0.1484288 0.1487027 0.148993 0.1493018
 0.1496282 0.1499653 0.150295 0.1505967 0.150864 0.1511106 0.1513559 0.1516097 0.1518707 0.1521367
 0.1524124 0.1527043 0.1530109 0.1533213 0.1536262 0.1539253 0.1542231 0.1545204 0.1548132 0.1550993
 0.1553826 0.1556713 0.1559699 0.1562735 0.1565723 0.1568615 0.1571434 0.1574216 0.1576985 0.1579762
 0.1582544 0.1585272 0.1587875 0.1590368 0.1592844 0.1595389 0.159802 0.1600699 0.1603376 0.160603
 0.1608683 0.1611395 0.1614211 0.1617098 0.1619934 0.1622612 0.1625143 0.1627631 0.1630166 0.163276
 0.1635379 0.1637989 0.1640582 0.1643201 0.1645897 0.1648662 0.1651413 0.1654072 0.1656625 0.1659131
 0.1661665 0.1664251 0.166685 0.1669415 0.1671941 0.1674444 0.1676936 0.1679434 0.1681979 0.1684626
 0.1687412 0.1690306 0.1693199 0.1695991 0.1698669 0.1701259 0.1703777 0.1706284 0.1708856 0.1711484
 0.1714083 0.171664 0.1719237 0.1721904 0.1724585 0.1727222 0.1729803 0.1732346 0.1734863 0.1737342
 0.1739755 0.1742118 0.1744487 0.1746871 0.1749247 0.1751668 0.1754225 0.1756919 0.1759645 0.1762308
 0.1764902 0.1767508 0.1770218 0.1773013 0.1775762 0.1778379 0.1780915 0.1783462 0.1786066 0.1788732
 0.1791407 0.1794024 0.1796611 0.1799255 0.1801952 0.1804625 0.1807264 0.1809907 0.181255 0.1815175
 0.1817785 0.1820349 0.1822847 0.1825343 0.1827902 0.1830499 0.1833094 0.1835659 0.1838112 0.1840412
 0.1842693 0.1845124 0.1847724 0.1850421 0.1853153 0.1855862 0.1858523 0.1861169 0.1863765 0.1866218
 0.1868574 0.187101 0.1873582 0.1876212 0.1878871 0.1881547 0.1884172 0.1886712 0.1889153 0.1891318
 0.1892716 0.1892124 0.1886504 0.1869856 0.1833127 0.1766129 0.1661719 0.1520402 0.1351699 0.1170691
 0.09925082 0.08285338 0.06854373 0.05661323 0.04712291 0.03999371 0.03506121 0.03217542 0.03131325 0.03269535
 0.03690471 0.0445402 0.05492133 0.06493808 0.07025474 0.06872927 0.06246039 0.05587446 0.05204226 0.05118549
 0.0519926 0.053342 0.05487892 0.05680766 0.05947828 0.06299148 0.06718515 0.07206436 0.078004 0.0852741
 0.09347897 0.1017272 0.1094005 0.1166418 0.1240476 0.1319585 0.1401063 0.1478795 0.1548124 0.1608195
 0.1660959 0.1708984 0.1753989 0.1796713 0.183747 0.187616 0.191141 0.1940237 0.1959468 0.1968142
 0.1968656 0.196544 0.1962383 0.1961314 0.1962419 0.1965381 0.1969936 0.1975861 0.1982944 0.1990969
 0.1999629 0.2008554 0.2017431 0.202603 0.2034181 0.2041819 0.2048952 0.2055549 0.2061553 0.206699
 0.2071958 0.2076525 0.208073 0.2084641 0.2088335 0.2091867 0.2095263 0.2098525 0.2101648 0.2104652
 0.2107559 0.2110317 0.2112847 0.2115161 0.2117351 0.2119491 0.2121601 0.2123697 0.2125811 0.2127999
 0.2130325 0.2132795 0.2135303 0.2137706 0.2139925 0.2141953 0.2143829 0.2145658 0.2147583 0.2149689
 0.2151971 0.2154376 0.2156808 0.215915 0.2161346 0.2163435 0.2165484 0.216756 0.2169732 0.2172017
 0.217436 0.2176731 0.2179174 0.2181697 0.2184224 0.2186687 0.2189079 0.2191411 0.2193713 0.2196019
 0.2198271 0.2200312 0.220208 0.220375 0.2205629 0.2207924 0.2210552 0.2213198 0.221563 0.2217915
 0.2220236 0.2222618 0.2224928 0.2227024 0.2228902 0.2230818 0.2233179 0.22361 0.2239236 0.2242206
 0.2244969 0.2247652 0.2250319 0.2253022 0.2255744 0.2258219 0.2260152 0.2261715 0.2263625 0.2266586
 0.2270632 0.2275014 0.2278853 0.2281889 0.2284479 0.2287099 0.229006 0.229326 0.2295808 0.2296603
 0.2296019 0.2296306 0.2299493 0.2305303 0.2311733 0.2317174 0.2321399 0.2324968 0.2328291 0.233119
 0.2333059 0.2333486 0.2333054 0.2333502 0.2336545 0.2342157 0.2348486 0.2353747 0.2357602 0.2360517
 0.2362868 0.2364962 0.2366549 0.2366059 0.2362235 0.2357259 0.2356293 0.2362424 0.2373163 0.2383143
 0.238949 0.2393291 0.2396543 0.2399688 0.2402218 0.2403156 0.2399885 0.2389634 0.2374878 0.2364888
 0.2368134 0.2383791 0.2403179 0.2418405 0.2427368 0.243198 0.2434829 0.2437419 0.2438973 0.2436439
 0.2427845 0.2416812 0.2411693 0.2417853 0.2431693 0.2444562 0.2451618 0.2454446 0.2456537 0.2459351
 0.2461301 0.2457291 0.2441664 0.2416543 0.2395976 0.2396054 0.2419183 0.2451185 0.247529 0.2486534
 0.2490547 0.2491286 0.2485229 0.2467806 0.2440378 0.2409729 0.2385839 0.2380368 0.2398929 0.2431548
 0.2458315 0.2469015 0.2471811 0.2479985 0.2496121 0.2512239 0.2520126 0.2517696 0.2507525 0.2492293
 0.2473476 0.2455504 0.2448348 0.2460462 0.2488484 0.2518418 0.253864 0.2548736 0.2553313 0.2548397
 0.2518747 0.2456122 0.238213 0.2342322 0.2366005 0.2435561 0.2505385 0.2546802 0.2563841 0.2571753
 0.2576518 0.2573208 0.2548995 0.2490289 0.240427 0.2332207 0.2321536 0.237899 0.2462933 0.2522122
 0.2530555 0.2490204 0.2421796 0.235866 0.2333199 0.2357276 0.2416978 0.2486395 0.2543175 0.2574636
 0.2577718 0.2557933 0.2528989 0.2509351 0.2508876 0.2514313 0.2499346 0.2457765 0.2413721 0.2386301
 0.2360152 0.2314091 0.2267603 0.2267963 0.2328738 0.2407076 0.2451733 0.2454919 0.244338 0.2429774
 0.2391267 0.2302626 0.2184078 0.2102281 0.2111944 0.2199111 0.2293619 0.2337646 0.2331625 0.2313958
 0.2309685 0.2304921 0.2266602 0.2185562 0.2098425 0.2057011 0.2073601 0.2109982 0.2122885 0.2099029
 0.2040754 0.195143 0.1858844 0.1824381 0.1891437 0.2032143 0.216898 0.2238624 0.2215613 0.2098726
 0.1918677 0.1755103 0.1698066 0.1768118 0.1891699 0.1968776 0.195247 0.1857863 0.1718736 0.1563483
 0.1427719 0.1359316 0.1389666 0.1501359 0.1629772 0.1696578 0.1653259 0.1517617 0.1374625 0.131558
 0.1356693 0.1428927 0.1455497 0.1421259 0.1362411 0.1318408 0.1308481 0.1329704 0.1360995 0.1382378
 0.1391174 0.1381874 0.1324638 0.1201631 0.1058072 0.09733174 0.09781148 0.1038299 0.1118618 0.1214309
 0.1309065 0.135335 0.1320129 0.1256398 0.1243566 0.1311075 0.141058 0.1474334 0.1482103 0.1465495
 0.1458671 0.1461112 0.1455021 0.14463 0.1466022 0.1527692 0.1603562 0.165551 0.1674744 0.1678427
 0.1680545 0.1681349 0.1677221 0.1666931 0.165099 0.1632662 0.1616997 0.1605084 0.1592962 0.1577431
 0.1556213 0.1519892 0.1454057 0.1360401 0.1269943 0.1219102 0.1211758 0.1221223 0.122955 0.1238588
 0.1234342 0.1175846 0.1049161 0.09125058 0.08540042 0.0906616 0.1023794 0.1132941 0.1191003 0.1188136
 0.1126181 0.1021156 0.0922466 0.08976571 0.09770447 0.11245 0.1276393 0.1396197 0.1477709 0.151475
 0.1496719 0.1432933 0.1361796 0.1329151 0.1360976 0.1451623 0.1564419 0.1639741 0.162431 0.1525136
 0.1434726 0.1462429 0.1618112 0.1793906 0.1885273 0.1897374 0.1901198 0.1923227 0.1932778 0.1921384
 0.1933967 0.2007262 0.2115315 0.2194743 0.2200309 0.2122744 0.1982151 0.1831565 0.1743372 0.1752403
 0.1817823 0.1868501 0.1872341 0.1832806 0.1746837 0.1621263 0.1516857 0.1512234 0.1612671 0.1738773
 0.1816881 0.1846429 0.1867216 0.1890669 0.1886106 0.1827445 0.173651 0.1669506 0.1661361 0.1695101
 0.1730542 0.1746575 0.1741984 0.1711944 0.1650967 0.1578858 0.1540743 0.156837 0.1647743 0.1732414
 0.1785076 0.1801094 0.1797648 0.1791362 0.1786703 0.1777479 0.1758758 0.1742222 0.1753695 0.1805032
 0.1874298 0.1927781 0.1958453 0.1988465 0.203465 0.2085399 0.2114874 0.2111537 0.2089589 0.2076974
 0.2093083 0.2133226 0.2171882 0.2184246 0.2169611 0.2154039 0.2166178 0.2209709 0.2262729 0.2302471
 0.2323895 0.2334983 0.2343267 0.2349374 0.2346713 0.2326545 0.2290651 0.2258899 0.2255381 0.2284545
 0.2326788 0.235847 0.2370806 0.2368915 0.2359375 0.2343494 0.2320937 0.22957 0.2276035 0.2268564
 0.2273825 0.2287693 0.2305372 0.2323375 0.2339557 0.2353079 0.2364181 0.2373375 0.2381081 0.2387834
 0.239398 0.2399056 0.2402344 0.2404362 0.240698 0.241145 0.2416819 0.2420885 0.242221 0.2420397
 0.2414924 0.2405088 0.2391243 0.237489 0.235704 0.2337499 0.2316895 0.2299045 0.228993 0.2293347
 0.2307549 0.232642 0.2343724 0.2356237 0.2363795 0.2367775 0.2369877 0.2371517 0.2373486 0.2375934
 0.237871 0.2381719 0.2384932 0.2388154 0.2391081 0.2393687 0.2396412 0.2399738 0.2403679 0.240781
 0.2411634 0.2414811 0.2417212 0.2418923 0.242007 0.242052 0.241982 0.2417512 0.2413471 0.2407991
 0.2401634 0.2394944 0.2388083 0.2380663 0.2372022 0.2361699 0.2349497 0.2335178 0.2318575 0.2300228
 0.228148 0.2263534 0.2246575 0.2230039 0.2213374 0.2196263 0.2178458 0.2159831 0.2140537 0.2120896
 0.2101184 0.2081571 0.2062176 0.2043118 0.2024532 0.2006479 0.1988777 0.1970994 0.1952685 0.1933588
 0.191343 0.189157 0.1867011 0.1838832 0.1806494 0.176973 0.1728532 0.1683533 0.1636228 0.1588544
 0.154218 0.1498322 0.1457815 0.1421403 0.1389805 0.1363585 0.134302 0.1328198 0.1319209 0.131616
 0.1319011 0.1327438 0.1340783 0.1358035 0.1377887 0.1398865 0.141949 0.1438591 0.1455766 0.1471585
 0.1487175 0.150343 0.1520514 0.1538039 0.1555542 0.1572623 0.1588681 0.1602885 0.161464 0.1623952
 0.1631248 0.1637038 0.1641825 0.1646055 0.1649964 0.1653522 0.165659 0.1659169 0.1661551 0.1664226
 0.1667561 0.1671598 0.1676238 0.16815 0.1687491 0.1694236 0.1701656 0.1709705 0.1718521 0.1728436
 0.1739739 0.1752443 0.1766437 0.1781779 0.1798613 0.181684 0.1836034 0.1855566 0.1874664 0.189252
 0.190853 0.1922404 0.1934068 0.1943599 0.195126 0.1957481 0.1962777 0.1967651 0.1972456 0.1977351
 0.1982371 0.1987419 0.1992183 0.1996212 0.1999144 0.2000845 0.2001457 0.2001434 0.2001352 0.2001497
 0.2001738 0.2001854 0.200182 0.2001746 0.2001678 0.2001533 0.2001141 0.2000343 0.199906 0.199731
 0.1995166 0.1992641 0.1989512 0.1985339 0.1979788 0.1972858 0.19647 0.1955372 0.1944854 0.1933144
 0.1920256 0.1906257 0.1891333 0.1875668 0.1859323 0.1842265 0.1824421 0.1805729 0.1786367 0.1766934
 0.1748164 0.1730448 0.1713744 0.1697799 0.1682303 0.1667009 0.165188 0.1637126 0.1623023 0.1609753
 0.1597328 0.1585602 0.1574405 0.156371 0.1553665 0.1544513 0.1536472 0.1529577 0.1523589 0.151818
 0.1513187 0.1508602 0.1504492 0.1501065 0.149861 0.1497138 0.149618 0.1495059 0.1493307 0.1490862
 0.1488082 0.1485531 0.1483587 0.1482184 0.1480879 0.1479036 0.1475991 0.1471173 0.1464085 0.1454235
 0.1441325 0.1425607 0.1407942 0.1389505 0.1371479 0.1354828 0.1340158 0.1327793 0.1317871 0.1310154
 0.1303949 0.1298575 0.1293948 0.1290526 0.1288738 0.1288395 0.1288482 0.1287714 0.1285703 0.1283498
 0.1282711 0.1284177 0.1287507 0.1291599 0.1295432 0.129858 0.1301139 0.1303279 0.1305059 0.1306523
 0.130757 0.1307801 0.130684 0.1304696 0.1301662 0.1298085 0.129426 0.1290211 0.1285599 0.1280116
 0.1273784 0.1266717 0.1258925 0.1250368 0.1240786 0.1229788 0.1217801 0.120675 0.1199194 0.1196776
 0.119941 0.1205451 0.1212762 0.122005 0.122674 0.1231427 0.1232157 0.1229689 0.1229228 0.1236688
 0.12529 0.1272584 0.1289148 0.1299442 0.1303703 0.1302776 0.1297005 0.1286834 0.1272633 0.1254274
 0.1231948 0.1206762 0.1179954 0.1152584 0.1126193 0.1102425 0.1082075 0.1065238 0.1051778 0.1041953
 0.1036883 0.1033452 0.1015626 0.09628947 0.08820298 0.08212236 0.08295956 0.09019415 0.09823705 0.1023421
 0.1023886 0.1009102 0.09964563 0.09885319 0.09844546 0.09854271 0.0992433 0.100409 0.1016941 0.1027525
 0.1034504 0.1038198 0.1038105 0.1031176 0.1011446 0.09718806 0.09099963 0.08330779 0.0755778 0.06914797
 0.06462917 0.06193016 0.06054601 0.05985363 0.05942044 0.05919749 0.05942091 0.06032055 0.06192524 0.06411354
 0.06674641 0.06963585 0.07243948 0.07478943 0.07657664 0.07796466 0.07909875 0.07994016 0.08039041 0.08043587
 0.08014477 0.07961716 0.0789578 0.07823789 0.07745304 0.07654296 0.07550368 0.07449162 0.07374239 0.07334511
 0.07317395 0.07307157 0.07299737 0.07296877 0.0729719 0.07296796 0.07292494 0.07286032 0.0728872 0.07314061
 0.07361288 0.07413556 0.07454339 0.07479474 0.07494085 0.07501197 0.07491778 0.07452046 0.07388885 0.07334001
 0.07304071 0.07271592 0.07201467 0.07106308 0.07038519 0.07031639 0.07070392 0.07115269 0.07138224 0.07135296
 0.07122736 0.07128097 0.07171323 0.07240728</values></Ydata></ScSm><ScRf><Ydata ylabel="Single channel"><values byteorder="INTEL" format="FLOAT32" numvalues="1820"> 0.06074227 0.06090268 0.06099464 0.06101973 0.06100556 0.06100212 0.06106296 0.06121122 0.06141831 0.06161716
 0.06174787 0.06179855 0.06179392 0.06175128 0.06167972 0.06162368 0.06165944 0.0618198 0.0620423 0.0622098
 0.0622439 0.06217359 0.06211919 0.06217669 0.06229193 0.06227333 0.06197067 0.06144671 0.06093961 0.06064219
 0.06057698 0.06073284 0.06118883 0.06189675 0.06242542 0.06226452 0.06146438 0.06067486 0.06042227 0.06060136
 0.06077651 0.06068964 0.06034322 0.05989825 0.05971491 0.06025645 0.06163313 0.06322525 0.06390723 0.06275999
 0.05972722 0.05581701 0.05272679 0.05193606 0.05366825 0.05659176 0.05881818 0.05940864 0.0588247 0.05797341
 0.05722481 0.05653221 0.05607298 0.05628416 0.05726407 0.05836604 0.05853652 0.05722174 0.05502595 0.05327597
 0.05280834 0.05344993 0.05473242 0.0564007 0.05769147 0.05692802 0.05317063 0.04829697 0.04616321 0.04894223
 0.05480657 0.05970851 0.06097539 0.05882004 0.05518206 0.05211595 0.05099711 0.05215223 0.05482233 0.05779413
 0.06012799 0.06118869 0.06047951 0.05807895 0.0550687 0.05301027 0.05298451 0.05516541 0.05878343 0.06219839
 0.06364435 0.06253065 0.05983338 0.05706551 0.0552832 0.0550877 0.05677227 0.06002418 0.06389862 0.06736027
 0.06970462 0.07064129 0.07036507 0.06943358 0.06834316 0.06743132 0.06715626 0.06782149 0.0688339 0.06892636
 0.06752914 0.06553046 0.06436736 0.06454456 0.06523214 0.06527782 0.06437467 0.06288566 0.06071188 0.05725902
 0.05280783 0.04888978 0.04675975 0.04643541 0.04760186 0.05010377 0.05288073 0.05390813 0.0524145 0.05029371
 0.05023002 0.05283409 0.05632889 0.05871624 0.0596296 0.06018876 0.0615657 0.06378798 0.06559185 0.0653722
 0.06276803 0.05955566 0.05839326 0.06021224 0.06332278 0.06549734 0.06632465 0.06696337 0.06811325 0.0689266
 0.06789731 0.06465606 0.0609161 0.05940454 0.06148502 0.06579068 0.06921428 0.0692026 0.06547643 0.06009231
 0.05584117 0.05431634 0.05549795 0.05882988 0.06383258 0.06952579 0.07416443 0.07621408 0.07546475 0.07296303
 0.06981408 0.06615316 0.06170153 0.05745906 0.05593318 0.05877848 0.064686 0.07046738 0.07389741 0.07483298
 0.07399086 0.07158574 0.06752522 0.06272506 0.05954589 0.05996425 0.06319042 0.06611018 0.06653999 0.0652177
 0.0642126 0.06435028 0.06489716 0.06513779 0.06540747 0.06652318 0.06860788 0.07077562 0.07198079 0.0719647
 0.07130615 0.07075208 0.07053936 0.07021737 0.06928644 0.06819752 0.06830233 0.07036769 0.073514 0.07611716
 0.07743865 0.07789383 0.07795918 0.07733384 0.07536906 0.07227909 0.06964344 0.0692407 0.0713307 0.0744834
 0.07706375 0.07841315 0.07871464 0.07840326 0.07786214 0.07729576 0.07680065 0.07663646 0.07715798 0.07830864
 0.07950458 0.08022007 0.08041783 0.08028562 0.07986403 0.07912961 0.07826534 0.07765676 0.07761534 0.07814997
 0.07901454 0.07992402 0.08065289 0.08099833 0.08085436 0.0803661 0.07984686 0.07949346 0.07931071 0.07930658
 0.07956843 0.08009017 0.08067758 0.08111043 0.08131999 0.08136439 0.08130458 0.08115897 0.08094555 0.08073354
 0.08064474 0.08076949 0.0810588 0.08135576 0.08157709 0.08179425 0.08207091 0.08230335 0.08232778 0.08214203
 0.08192192 0.08183143 0.08188906 0.08201186 0.08211221 0.0821147 0.08193839 0.08156404 0.08113961 0.08093081
 0.08110745 0.08162031 0.08229436 0.08295593 0.08346072 0.0837235 0.0837814 0.08375321 0.0837004 0.08358382
 0.0833706 0.08313695 0.08304688 0.08322933 0.08366001 0.08416823 0.08457469 0.08480688 0.08489431 0.08492311
 0.08500265 0.08518587 0.08539062 0.08547339 0.08540697 0.08532227 0.08535159 0.08547901 0.08557115 0.08553559
 0.08542844 0.08539787 0.08552805 0.08576327 0.08599067 0.08616547 0.08633269 0.08653712 0.08673166 0.0867966
 0.08667228 0.08645214 0.08629507 0.08625797 0.08627888 0.08631768 0.08642372 0.08663236 0.0868671 0.08700635
 0.08702286 0.08700697 0.08704796 0.08712626 0.0871422 0.08703363 0.08684216 0.08667062 0.08659808 0.08663373
 0.08672591 0.08680151 0.08680882 0.08674243 0.0866348 0.08652384 0.0864304 0.08637299 0.08639494 0.08654393
 0.08679865 0.08703104 0.08708295 0.08690542 0.08661509 0.08639534 0.08633317 0.08635464 0.0863166 0.08614679
 0.08588935 0.08563644 0.08544476 0.08531395 0.08521505 0.08512734 0.085065 0.08507666 0.08519454 0.08536465
 0.08545248 0.08535504 0.08510275 0.0848266 0.08463654 0.08455448 0.08454026 0.08454399 0.08454559 0.08457072
 0.08464971 0.08474831 0.0847793 0.08470502 0.08458973 0.0845336 0.08459323 0.08476673 0.08499487 0.08516599
 0.08518681 0.08507965 0.08496833 0.08494958 0.08501336 0.08509655 0.08516829 0.08523847 0.08531814 0.08540836
 0.08552136 0.0856853 0.08591694 0.08619277 0.08645157 0.08663405 0.08673356 0.08681281 0.08696029 0.08721966
 0.08755649 0.08788998 0.08815689 0.0883531 0.08852047 0.08869506 0.08887769 0.0890629 0.08927539 0.08954741
 0.08986884 0.09019256 0.09048891 0.09076815 0.09105094 0.09134232 0.09164034 0.09195635 0.09231828 0.09274417
 0.09320017 0.09359722 0.0938583 0.09399512 0.09410703 0.09430636 0.09464048 0.09505348 0.09541012 0.09560049
 0.09565364 0.09571836 0.09590197 0.0961632 0.09640108 0.09661141 0.09689407 0.09731127 0.09779215 0.09819823
 0.09845891 0.09862389 0.09878998 0.09899224 0.09917754 0.09928505 0.09933264 0.09939803 0.09952591 0.09969848
 0.09990615 0.1001919 0.100585 0.1010287 0.1014207 0.1017081 0.1019074 0.1020532 0.1021655 0.1022514
 0.102308 0.102336 0.1023641 0.102432 0.1025329 0.10261 0.1026331 0.1026468 0.1027185 0.1028705
 0.1030896 0.1033666 0.1036854 0.1039979 0.1042653 0.104523 0.1048469 0.1052331 0.1055644 0.1057362
 0.1057745 0.1057818 0.1058057 0.1058311 0.1058758 0.1060116 0.1062751 0.1066186 0.106972 0.1073131
 0.1076579 0.1080068 0.1083219 0.1085469 0.1086465 0.108637 0.1085863 0.1085818 0.1086895 0.1089263
 0.1092538 0.1096004 0.1099018 0.1101198 0.1102277 0.1102141 0.1101262 0.1100794 0.1101681 0.1103631
 0.1105246 0.1105226 0.1103209 0.109949 0.1094386 0.1088145 0.1081273 0.1074611 0.1069002 0.1064933
 0.1062579 0.106217 0.1064133 0.1068652 0.1075104 0.1082202 0.1088755 0.1094014 0.1097253 0.1097541
 0.1094399 0.1088438 0.1081044 0.1073526 0.1066648 0.1060575 0.1054939 0.1049287 0.1043957 0.1040471
 0.1040824 0.1046295 0.1056796 0.107093 0.1086463 0.1101087 0.1113343 0.1123102 0.1131161 0.1138336
 0.1145004 0.1151388 0.115784 0.1164539 0.1171083 0.1176829 0.1181604 0.1185795 0.1189788 0.1193608
 0.1197058 0.1199975 0.1202383 0.1204558 0.1206751 0.1208724 0.1209807 0.1209648 0.1208647 0.1207448
 0.1206198 0.1204497 0.1201881 0.1198204 0.1193835 0.1189868 0.1188067 0.119019 0.1196945 0.1207484
 0.1220053 0.1233143 0.1245886 0.1257503 0.1267002 0.1273775 0.1278195 0.1281288 0.1283967 0.1286727
 0.1289755 0.1293001 0.1296237 0.1299252 0.1302033 0.1304783 0.1307808 0.1311256 0.1314847 0.1317998
 0.1320395 0.1322421 0.1324894 0.1328313 0.1332375 0.133628 0.1339588 0.1342617 0.1345822 0.1349016
 0.1351579 0.135334 0.1354859 0.1356831 0.135956 0.1362943 0.136657 0.1369841 0.1372333 0.1374166
 0.1375862 0.1377819 0.1380067 0.1382474 0.1384962 0.1387499 0.1390045 0.1392654 0.1395525 0.1398742
 0.1401967 0.1404591 0.1406317 0.140751 0.1408852 0.141071 0.1412903 0.1415025 0.1416947 0.1418979
 0.142155 0.1424696 0.1427903 0.143051 0.1432258 0.1433452 0.1434629 0.1436155 0.14381 0.1440325
 0.1442612 0.1444761 0.144671 0.1448579 0.1450543 0.1452662 0.1454875 0.1457117 0.1459381 0.1461641
 0.1463816 0.1465829 0.1467742 0.1469815 0.1472359 0.1475419 0.1478594 0.1481292 0.1483198 0.1484478
 0.1485543 0.1486735 0.1488215 0.1490006 0.1492032 0.1494169 0.1496318 0.1498443 0.1500544 0.1502619
 0.1504669 0.1506696 0.1508698 0.1510691 0.151275 0.1514969 0.1517364 0.1519798 0.1522072 0.1524079
 0.1525875 0.1527607 0.1529411 0.1531339 0.1533305 0.1535172 0.1536924 0.1538704 0.1540631 0.1542656
 0.1544652 0.154657 0.1548455 0.1550359 0.155231 0.1554316 0.1556358 0.155839 0.1560382 0.1562347
 0.156431 0.1566272 0.1568227 0.1570208 0.1572258 0.1574355 0.1576421 0.157842 0.1580397 0.1582389
 0.158434 0.1586166 0.1587885 0.1589653 0.159163 0.1593817 0.1596059 0.1598194 0.1600179 0.1602083
 0.1604015 0.160605 0.1608173 0.1610323 0.1612478 0.1614635 0.1616741 0.1618737 0.1620681 0.162271
 0.1624875 0.1627087 0.1629236 0.1631319 0.1633435 0.1635682 0.1638036 0.1640359 0.1642521 0.1644483
 0.164627 0.1647939 0.1649571 0.1651206 0.1652843 0.1654522 0.1656326 0.1658269 0.1660272 0.1662262
 0.1664217 0.1666134 0.1668032 0.1669959 0.167193 0.1673907 0.1675869 0.1677829 0.1679821 0.1681889
 0.1684039 0.1686198 0.1688272 0.1690248 0.1692166 0.1694076 0.1696061 0.1698197 0.1700452 0.1702733
 0.1704992 0.1707219 0.1709394 0.1711523 0.1713622 0.1715647 0.1717559 0.1719432 0.1721372 0.1723417
 0.1725565 0.1727797 0.1730043 0.1732234 0.1734387 0.1736528 0.1738627 0.1740679 0.1742719 0.1744775
 0.1746902 0.1749174 0.1751541 0.1753829 0.1755956 0.1757975 0.175993 0.176187 0.1763906 0.1766078
 0.1768312 0.1770548 0.1772733 0.1774661 0.1775865 0.1775203 0.1769804 0.1754007 0.1719271 0.1655929
 0.1557152 0.142341 0.1263799 0.1092685 0.0924425 0.07697865 0.06350453 0.052286 0.04336672 0.03666053
 0.03201062 0.02928373 0.0284682 0.02977384 0.03374245 0.04092888 0.05068772 0.0600939 0.06507809 0.0636391
 0.05775434 0.05157291 0.04796701 0.04714751 0.04789805 0.04917378 0.05063376 0.05245716 0.05496915 0.05826947
 0.06221024 0.0667962 0.07237992 0.07921955 0.08694765 0.09472352 0.1019563 0.1087733 0.1157385 0.1231834
 0.1308625 0.138196 0.1447336 0.1503841 0.1553304 0.1598226 0.1640353 0.1680452 0.1718802 0.1755261
 0.1788538 0.1815862 0.1834232 0.184264 0.1843231 0.1840179 0.1837254 0.1836266 0.1837356 0.1840133
 0.1844321 0.1849785 0.185639 0.1863892 0.1871928 0.1880173 0.188846 0.189666 0.1904553 0.1911937
 0.1918744 0.1924984 0.1930677 0.1935871 0.1940646 0.1945069 0.194918 0.195302 0.195664 0.1960107
 0.1963484 0.1966746 0.1969784 0.1972515 0.1974987 0.1977322 0.1979612 0.1981865 0.1984032 0.1986108
 0.1988181 0.1990335 0.1992531 0.1994663 0.1996687 0.1998644 0.2000589 0.2002568 0.2004589 0.2006585
 0.2008482 0.2010304 0.2012147 0.201405 0.2015985 0.2017924 0.2019855 0.2021767 0.2023671 0.20256
 0.2027555 0.2029519 0.2031505 0.2033529 0.2035581 0.203767 0.2039838 0.2042087 0.2044342 0.2046529
 0.2048627 0.2050657 0.2052696 0.2054806 0.2056893 0.2058733 0.2060218 0.2061541 0.206307 0.2065059
 0.206744 0.2069875 0.2072059 0.207396 0.2075776 0.2077707 0.2079784 0.2081848 0.2083735 0.2085542
 0.2087588 0.2090011 0.2092603 0.2095137 0.2097603 0.2100021 0.2102349 0.2104625 0.2106884 0.2108908
 0.2110398 0.2111506 0.2112956 0.211548 0.211908 0.2122937 0.2126149 0.2128535 0.2130558 0.2132724
 0.2135272 0.2138004 0.2140045 0.2140429 0.2139593 0.2139676 0.2142525 0.2147802 0.2153577 0.2158324
 0.2161839 0.2164654 0.2167182 0.216934 0.2170681 0.2170906 0.2170537 0.217109 0.2174018 0.2179175
 0.2184774 0.2189205 0.2192298 0.2194627 0.2196567 0.2198293 0.2199428 0.2198463 0.2194308 0.2189118
 0.2187766 0.2193128 0.2202842 0.2211863 0.221751 0.2220852 0.2223814 0.2226787 0.2229187 0.2229981
 0.2226682 0.2216782 0.2202743 0.2193325 0.2196385 0.2211003 0.2228962 0.2242919 0.2251021 0.2255116
 0.2257582 0.2259726 0.2260795 0.2258047 0.2249798 0.2239501 0.2234901 0.2240873 0.2253911 0.2265855
 0.2272252 0.2274753 0.2276734 0.2279535 0.228155 0.2277866 0.2263097 0.2239284 0.2219777 0.2219785
 0.22415 0.2271473 0.2293959 0.2304426 0.2308243 0.2309088 0.2303592 0.2287462 0.226197 0.2233422
 0.2211098 0.2205893 0.2223097 0.2253474 0.2278535 0.2288759 0.2291619 0.2299337 0.2314321 0.2329283
 0.233667 0.2334474 0.2324951 0.2310561 0.2292847 0.2276173 0.2269882 0.2281692 0.2308322 0.2336687
 0.2355887 0.2365434 0.236963 0.236487 0.2337014 0.2278397 0.2209215 0.2172035 0.219427 0.2259514
 0.2325179 0.2364429 0.2380964 0.2388959 0.23939 0.2391141 0.2368767 0.2314154 0.2234039 0.2167023
 0.2157445 0.2211507 0.2290241 0.2345856 0.2354131 0.2316835 0.2253284 0.2194728 0.2171561 0.2194864
 0.2251551 0.2317285 0.2371066 0.2401062 0.2404509 0.2386604 0.236022 0.2342749 0.234341 0.2349575
 0.2336444 0.2298305 0.2257984 0.2233452 0.2210249 0.2168406 0.2126208 0.2128146 0.2186955 0.2262177
 0.2305594 0.2310133 0.2301132 0.2290313 0.2255813 0.2173657 0.2063064 0.1987486 0.1999162 0.2084863
 0.2177659 0.2222459 0.2219826 0.220646 0.2206258 0.2205931 0.2173721 0.2100829 0.2022761 0.1989635
 0.2012953 0.2055334 0.2074896 0.2058759 0.2008573 0.1927059 0.1841947 0.1814893 0.18897 0.2038916
 0.2185163 0.2264783 0.2251396 0.2142487 0.1968561 0.1811746 0.1765913 0.1852724 0.1995375 0.2089186
 0.2084823 0.1997494 0.186217 0.1709351 0.1579183 0.1526532 0.1588421 0.1746265 0.1925388 0.2032095
 0.2005815 0.1866461 0.1718734 0.1676911 0.1760758 0.1881509 0.1940949 0.1920413 0.1867546 0.1835243
 0.1851027 0.1911279 0.1985058 0.2043402 0.2082514 0.2091339 0.2020617 0.1842131 0.1627261 0.1499852
 0.1507645 0.1598259 0.1718205 0.1860765 0.2000806 0.2061996 0.2002802 0.1894809 0.1861443 0.1946877
 0.2078333 0.215507 0.2148089 0.2105209 0.2077591 0.2065478 0.2043603 0.201991 0.203775 0.2115909
 0.2215705 0.2284195 0.2309325 0.2315088 0.2320883 0.2326736 0.2327109 0.2319987 0.2306177 0.2290566
 0.2280501 0.2277598 0.2276281 0.2272129 0.2261683 0.2229959 0.2153719 0.203413 0.1917358 0.1857904
 0.1860861 0.1885921 0.1907434 0.1929316 0.1928935 0.1841374 0.1645121 0.1432355 0.1341765 0.1424502
 0.1606141 0.1771578 0.1853174 0.1836679 0.1727085 0.1550699 0.1382302 0.1321419 0.1411032 0.1596329
 0.1783302 0.1919641 0.2 0.2020819 0.1970893 0.1863723 0.1750016 0.1688493 0.1710369 0.1805891
 0.1927299 0.2000731 0.1962586 0.1823109 0.1693985 0.1705467 0.1869498 0.2059398 0.2152294 0.2153356
 0.2144775 0.2157992 0.2158707 0.2137384 0.2144857 0.2223016 0.2343475 0.2435634 0.2448688 0.237168
 0.2226793 0.2074221 0.1996375 0.203145 0.2129289 0.2205281 0.2221814 0.2183329 0.2086623 0.1941504
 0.1823112 0.1826748 0.1957555 0.2118238 0.2219565 0.2261618 0.2293127 0.23275 0.2326464 0.2257978
 0.2149747 0.207207 0.2068441 0.2117677 0.2169935 0.2199204 0.2203734 0.2176418 0.2109141 0.2026577
 0.1986594 0.2030096 0.2138453 0.2250487 0.2316858 0.2330982 0.2315102 0.229137 0.226676 0.2234556
 0.2189172 0.2145536 0.2136267 0.2176901 0.2241415 0.2289048 0.2310959 0.2333264 0.2375798 0.2424709
 0.2449337 0.243575 0.2400066 0.2374406 0.2381112 0.2415013 0.2447276 0.2449949 0.2422496 0.2394796
 0.239966 0.2441544 0.2495911 0.2537207 0.2559713 0.2572163 0.2582695 0.2591729 0.2591614 0.2572367
 0.2535836 0.2504017 0.2503492 0.2539042 0.2589087 0.2628016 0.2646897 0.2651967 0.2650468 0.264314
 0.2628389 0.2609112 0.2592902 0.2586026 0.2588929 0.2597761 0.2608377 0.2618084 0.2625462 0.2630315
 0.263334 0.2635174 0.263611 0.2636654 0.2637344 0.2637798 0.26371 0.2635573 0.2635157 0.2637265
 0.2640936 0.2643846 0.264447 0.2642329 0.2636815 0.262727 0.2614313 0.2599722 0.2584456 0.2567952
 0.255058 0.2536381 0.2531829 0.2540857 0.2561165 0.2585728 0.2607681 0.2623684 0.2633669 0.2638978
 0.264118 0.2641719 0.2641602 0.264112 0.2640019 0.2638006 0.263509 0.2631513 0.2627538 0.2623415
 0.2619489 0.2616119 0.2613348 0.2610717 0.2607515 0.2603296 0.2598197 0.2592769 0.2587444 0.2582056
 0.2575922 0.2568424 0.255954 0.2549886 0.2540345 0.2531614 0.2523854 0.2516614 0.2509199 0.2501142
 0.24922 0.2482067 0.2470642 0.2458716 0.244786 0.2439178 0.2432376 0.2426223 0.2419613 0.2411996
 0.2403215 0.2393428 0.2383075 0.2372592 0.2362067 0.2351216 0.233961 0.2326904 0.2312999 0.2298105
 0.2282585 0.2266706 0.2250594 0.2234335 0.2217841 0.2200502 0.2181074 0.2158074 0.2130277 0.209693
 0.205779 0.2013344 0.1965052 0.1915142 0.1865923 0.1819153 0.1775958 0.1737162 0.1703559 0.1675914
 0.1654819 0.1640621 0.1633444 0.1633283 0.1640042 0.1653426 0.1672764 0.1696985 0.1724739 0.1754519
 0.1784682 0.1813557 0.1839907 0.1863488 0.1885056 0.1905547 0.1925197 0.1943538 0.1960091 0.1974728
 0.1987417 0.1998042 0.2006654 0.201364 0.2019465 0.2024383 0.2028489 0.2031942 0.2034962 0.2037669
 0.2040033 0.2042037 0.2043836 0.2045695 0.2047786 0.2050123 0.2052676 0.2055519 0.2058864 0.2062942
 0.2067803 0.2073258 0.2079043 0.208502 0.2091214 0.2097744 0.2104828 0.2112829 0.2122189 0.2133223
 0.2145907 0.2159811 0.2174172 0.2188031 0.2200383 0.221041 0.2217737 0.2222493 0.2225116 0.2226061
 0.2225631 0.2223957 0.2221093 0.2217148 0.2212352 0.2206959 0.2201144 0.2194976 0.2188472 0.2181652
 0.2174589 0.2167454 0.2160441 0.2153635 0.2146958 0.2140288 0.2133646 0.2127221 0.2121167 0.2115425
 0.2109802 0.2104174 0.2098532 0.2092874 0.2087155 0.2081259 0.2074925 0.2067793 0.2059619 0.205039
 0.2040173 0.2028995 0.2016943 0.2004191 0.1990822 0.1976705 0.1961664 0.1945717 0.1929056 0.1911785
 0.1893714 0.1874508 0.1854192 0.1833505 0.1813605 0.1795325 0.1778698 0.1763152 0.1748133 0.1733587
 0.1719843 0.1707057 0.1694926 0.1683096 0.1671644 0.1660925 0.1651082 0.1641923 0.163324 0.1625074
 0.1617649 0.1611139 0.1605537 0.1600748 0.1596703 0.1593347 0.1590687 0.1588939 0.1588378 0.158885
 0.1589614 0.1589833 0.1589104 0.1587565 0.1585726 0.1584191 0.1583304 0.1582966 0.1582778 0.1582239
 0.1580772 0.1577699 0.1572249 0.1563692 0.1551704 0.153663 0.1519297 0.150075 0.1482278 0.1465308
 0.1450911 0.1439491 0.1430945 0.1424777 0.1420116 0.1416151 0.1412709 0.1410353 0.1409862 0.1411417
 0.1414007 0.1415961 0.1416509 0.1416605 0.141802 0.1421911 0.1428248 0.1436007 0.1443773 0.1450536
 0.1455941 0.1459849 0.1462168 0.146316 0.1463299 0.1462765 0.1461501 0.1459585 0.1457167 0.1454263
 0.1450787 0.1446537 0.1441292 0.1435171 0.142855 0.1421478 0.1413661 0.1404907 0.139499 0.1383587
 0.137125 0.1360095 0.1352801 0.1351074 0.1354937 0.1362852 0.1372741 0.1383372 0.1394024 0.1402628
 0.1406391 0.1405916 0.1407242 0.1417443 0.1437889 0.1462792 0.1484409 0.1498683 0.1505686 0.150656
 0.15019 0.1492125 0.1477323 0.1457113 0.1431866 0.1403151 0.1372447 0.1340911 0.1310482 0.1283333
 0.126044 0.1241869 0.1227541 0.1217862 0.1214078 0.1212249 0.1193115 0.1132324 0.1038218 0.09683077
 0.09807736 0.1068992 0.1166339 0.1216469 0.1217957 0.1200842 0.1185764 0.1175837 0.1170173 0.1170512
 0.1178297 0.1191867 0.1206857 0.1218896 0.1226379 0.1230049 0.1229811 0.1222121 0.119938 0.1152627
 0.1078681 0.09863825 0.0893612 0.08167778 0.07632689 0.07316533 0.07155187 0.07073053 0.07019296 0.0699022
 0.07016787 0.07127331 0.07323753 0.0759035 0.07910234 0.08259431 0.08595298 0.08875242 0.09090166 0.09262239
 0.09407572 0.09516749 0.09573338 0.09576108 0.09538321 0.09475392 0.09398477 0.09313759 0.09220509 0.09112092
 0.08988491 0.08869416 0.08784053 0.08743421 0.08732536 0.08731401 0.08731702 0.08732176 0.08731318 0.08727983
 0.08722325 0.08717794 0.0872484 0.08754323 0.08803184 0.08853862 0.08890141 0.08908892 0.08916658 0.08915573
 0.08891905 0.08828443 0.08736237 0.08655616 0.0860583 0.08552288 0.08452255 0.08320854 0.08221662 0.08195958
 0.08225247 0.08261251 0.08270805 0.0825011 0.08217961 0.08206487 0.08241214 0.08311467 0.08368659 0.0837068
</values></Ydata></ScRf><Data_Parameters_AB><parameter name="DPF">1</parameter><parameter name="NPT">3497</parameter><parameter name="FXV">3996</parameter><parameter name="LXV">500</parameter><parameter name="CSF">1</parameter><parameter name="MXY">0.196292892098427</parameter><parameter name="MNY">-0.0427041947841644</parameter><parameter name="DAT">01/06/2022</parameter><parameter name="TIM">11:33:41.121 (GMT+2)</parameter><parameter name="DXU">WN</parameter></Data_Parameters_AB><AB__Qtest><MainReport name="Quality Test Report"><Header><Line><Legend>Test result ok/not ok [1/0]: </Legend><Value>0</Value></Line><Line><Legend>Method file: </Legend><Value>C:\Users\Public\Documents\Bruker\OPUS_8.2.28\QT\IRBT_v3_default.QT</Value></Line></Header><Matrix><Line><Legend></Legend><Legend>min</Legend><Legend>max</Legend><Legend>measured</Legend></Line><Line><Value>Absorption (X-Range 1):</Value><Value>0.400000</Value><Value>2.000000</Value><Value>0.221128</Value></Line><Line><Value>Noise (X-Range 4):</Value><Value></Value><Value>0.000300</Value><Value>0.000064</Value></Line><Line><Value>Signal/Noise (X-Range 2):</Value><Value>200.000000</Value><Value></Value><Value>92.354390</Value></Line><Line><Value>Signal/Noise (X-Range 3):</Value><Value>40.000000</Value><Value></Value><Value>34.418928</Value></Line><Line><Value>Water vapour (X-Range 5):</Value><Value></Value><Value>0.000300</Value><Value>0.000057</Value></Line><Line><Value>Signal/Water (X-Range 2):</Value><Value>100.000000</Value><Value></Value><Value>102.261796</Value></Line><Line><Value>Signal/Water (X-Range 3):</Value><Value>20.000000</Value><Value></Value><Value>38.111252</Value></Line><Line><Value>Fringes (X-Range 6):</Value><Value></Value><Value>0.000100</Value><Value>0.000065</Value></Line></Matrix></MainReport></AB__Qtest><Data_Parameters_ScSm><parameter name="DPF">1</parameter><parameter name="NPT">1814</parameter><parameter name="FXV">3996.33169228125</parameter><parameter name="LXV">499.541461535156</parameter><parameter name="CSF">1</parameter><parameter name="MXY">0.257771760225296</parameter><parameter name="MNY">0.0313132517039776</parameter><parameter name="DAT">01/06/2022</parameter><parameter name="TIM">11:33:41.121 (GMT+2)</parameter><parameter name="DXU">WN</parameter></Data_Parameters_ScSm><Data_Parameters_ScRf><parameter name="DPF">1</parameter><parameter name="NPT">1820</parameter><parameter name="FXV">4004.04661832813</parameter><parameter name="LXV">495.683998511719</parameter><parameter name="CSF">1</parameter><parameter name="MXY">0.265196681022644</parameter><parameter name="MNY">0.0284682027995586</parameter><parameter name="DAT">01/06/2022</parameter><parameter name="TIM">11:33:15.266 (GMT+2)</parameter><parameter name="DXU">WN</parameter></Data_Parameters_ScRf><Optic_Parameters_Rf><parameter name="APR">0</parameter><parameter name="APT">Open</parameter><parameter name="BMS">KBr</parameter><parameter name="DTC">RT-DLaTGS_IR-Biotyper [Microplate reader]</parameter><parameter name="HPF">0</parameter><parameter name="LPF">10.0</parameter><parameter name="LPV">4000</parameter><parameter name="PGR">0</parameter><parameter name="RCH">Module port</parameter><parameter name="RDX">0</parameter><parameter name="SRC">MIR</parameter><parameter name="VEL">10.0</parameter><parameter name="SON">Off</parameter></Optic_Parameters_Rf><Acquisition_Parameters_Rf><parameter name="ADT">1</parameter><parameter name="AQM">DD</parameter><parameter name="CFE">0</parameter><parameter name="COR">0</parameter><parameter name="DEL">0</parameter><parameter name="DLY">0</parameter><parameter name="HFW">8000</parameter><parameter name="LFW">0</parameter><parameter name="NSR">32</parameter><parameter name="PLF">AB</parameter><parameter name="RES">6</parameter><parameter name="RGN">-1</parameter><parameter name="STR">0</parameter><parameter name="TCL">MakeCompatibleScalar (0, {WSV=1.000000, ARV=0});</parameter><parameter name="TDL">37</parameter><parameter name="RPO">0</parameter></Acquisition_Parameters_Rf><FT_-_Parameters_Rf><parameter name="APF">B3</parameter><parameter name="HFQ">500</parameter><parameter name="LFQ">4000</parameter><parameter name="NLI">0</parameter><parameter name="PHR">24</parameter><parameter name="PHZ">ML</parameter><parameter name="SPZ">NO</parameter><parameter name="ZFF">1</parameter></FT_-_Parameters_Rf><Optic_Parameters_><parameter name="APR">0</parameter><parameter name="APT">Open</parameter><parameter name="BMS">KBr</parameter><parameter name="CHN">Module port</parameter><parameter name="DTC">RT-DLaTGS_IR-Biotyper [Microplate reader]</parameter><parameter name="HPF">0</parameter><parameter name="LPF">10.0</parameter><parameter name="LPV">4000</parameter><parameter name="PGN">0</parameter><parameter name="RDX">0</parameter><parameter name="SRC">MIR</parameter><parameter name="VEL">10.0</parameter><parameter name="SON">Off</parameter></Optic_Parameters_><FT_-_Parameters_><parameter name="APF">B3</parameter><parameter name="HFQ">500</parameter><parameter name="LFQ">4000</parameter><parameter name="NLI">0</parameter><parameter name="PHR">24</parameter><parameter name="PHZ">ML</parameter><parameter name="SPZ">NO</parameter><parameter name="ZFF">1</parameter></FT_-_Parameters_><Acquisition_Parameters_><parameter name="ADT">1</parameter><parameter name="AQM">DD</parameter><parameter name="CFE">0</parameter><parameter name="COR">0</parameter><parameter name="DEL">0</parameter><parameter name="DLY">0</parameter><parameter name="HFW">8000</parameter><parameter name="LFW">0</parameter><parameter name="NSS">32</parameter><parameter name="PLF">AB</parameter><parameter name="RES">6</parameter><parameter name="SOT">0</parameter><parameter name="TCL">MakeCompatibleScalar (0, {WSV=1.000000, ARV=0});</parameter><parameter name="TDL">37</parameter><parameter name="SPO">0</parameter><parameter name="SGN">-1</parameter></Acquisition_Parameters_><Instrument_Parameters_Rf><parameter name="HFL">15800.168544</parameter><parameter name="LFL">0</parameter><parameter name="LWN">15800.168544</parameter><parameter name="ABP">32197</parameter><parameter name="SSP">1</parameter><parameter name="ARG">2</parameter><parameter name="ASG">2</parameter><parameter name="ASS">32</parameter><parameter name="GFW">16</parameter><parameter name="GBW">16</parameter><parameter name="BFW">0</parameter><parameter name="BBW">0</parameter><parameter name="PKA">7307</parameter><parameter name="PKL">4990</parameter><parameter name="PRA">7481</parameter><parameter name="PRL">5001</parameter><parameter name="P2A">1</parameter><parameter name="P2L">1</parameter><parameter name="P2R">1</parameter><parameter name="P2K">1</parameter><parameter name="DAQ">0</parameter><parameter name="AG2">1</parameter><parameter name="SSM">1</parameter><parameter name="RSN">25911</parameter><parameter name="CRR">0</parameter><parameter name="SRT">1654083195.267</parameter><parameter name="DUR">19.6399993896484</parameter><parameter name="TSC">29</parameter><parameter name="MVD">0.232380956411362</parameter><parameter name="AN1">0.225805469633022</parameter><parameter name="AN2">0</parameter><parameter name="VSN">2.485 Apr  4 2017</parameter><parameter name="SRN">0085</parameter><parameter name="CAM">0</parameter><parameter name="INS">IR-Biotyper</parameter><parameter name="FOC">69</parameter><parameter name="RDY">1</parameter><parameter name="ARS">32</parameter></Instrument_Parameters_Rf><Sample_Parameters_><parameter name="BLD"></parameter><parameter name="CNM">Admin</parameter><parameter name="CPY"></parameter><parameter name="DPM"></parameter><parameter name="EXP">IRBT_v3_32Scans.XPM</parameter><parameter name="LCT"></parameter><parameter name="SFM">Microplate, HTS-XT</parameter><parameter name="SNM">220601-1028(v.3)_RTF49M (D_9)_F5_ec78d686-d37e-4fa4-b28d-3cc928c46311.0</parameter><parameter name="XPP">C:\Users\Public\Documents\Bruker\OPUS_8.2.28\XPM</parameter><parameter name="IST">OK</parameter><parameter name="CPG">1252</parameter><parameter name="UID">9691c908-c8e3-44e2-ba08-890abad50453</parameter></Sample_Parameters_><Instrument_Parameters_><parameter name="HFL">15800.168544</parameter><parameter name="LFL">0</parameter><parameter name="LWN">15800.168544</parameter><parameter name="ABP">32197</parameter><parameter name="SSP">1</parameter><parameter name="ASG">2</parameter><parameter name="ARG">2</parameter><parameter name="ASS">32</parameter><parameter name="GFW">16</parameter><parameter name="GBW">16</parameter><parameter name="BFW">0</parameter><parameter name="BBW">0</parameter><parameter name="PKA">6900</parameter><parameter name="PKL">4988</parameter><parameter name="PRA">7166</parameter><parameter name="PRL">4993</parameter><parameter name="P2A">1</parameter><parameter name="P2L">1</parameter><parameter name="P2R">1</parameter><parameter name="P2K">1</parameter><parameter name="DAQ">0</parameter><parameter name="AG2">1</parameter><parameter name="SSM">1</parameter><parameter name="RSN">13581</parameter><parameter name="CRR">0</parameter><parameter name="SRT">1654083221.121</parameter><parameter name="DUR">19.6389923095703</parameter><parameter name="TSC">29</parameter><parameter name="MVD">0.22620202600956</parameter><parameter name="AN1">0.225813526519528</parameter><parameter name="AN2">0</parameter><parameter name="VSN">2.485 Apr  4 2017</parameter><parameter name="SRN">0085</parameter><parameter name="CAM">0</parameter><parameter name="INS">IR-Biotyper</parameter><parameter name="FOC">69</parameter><parameter name="RDY">1</parameter></Instrument_Parameters_><History/></OPUSDataFile>
