<?xml version="1.0" encoding="UTF-8" ?>
<OPUSDataFile><AB><Ydata ylabel="Absorbance Units"><values byteorder="INTEL" format="FLOAT32" numvalues="3497"> -0.0517054 -0.05167913 -0.0516517 -0.05162319 -0.05159166 -0.05155703 -0.05152386 -0.05149235 -0.05146577 -0.05144409
 -0.05142864 -0.05141951 -0.05141857 -0.05142403 -0.05143398 -0.05144352 -0.05144383 -0.05143185 -0.05139863 -0.05134993
 -0.05128527 -0.05121674 -0.05115034 -0.05109503 -0.05105626 -0.05103435 -0.0510311 -0.05104124 -0.05106473 -0.05109326
 -0.05112631 -0.0511539 -0.05117548 -0.05118391 -0.05117961 -0.05116533 -0.05114305 -0.05112587 -0.05111479 -0.0511218
 -0.05114328 -0.05117827 -0.05121921 -0.05125299 -0.05127573 -0.0512753 -0.05125906 -0.05122698 -0.051192 -0.05116309
 -0.05114052 -0.05112948 -0.05111352 -0.05108902 -0.0510463 -0.05098032 -0.05090996 -0.05083534 -0.05079 -0.05077584
 -0.05080659 -0.05088038 -0.05097573 -0.05108858 -0.05118215 -0.05125762 -0.05129759 -0.05131014 -0.05130507 -0.05129096
 -0.05128692 -0.05129586 -0.05133085 -0.05138426 -0.05145783 -0.05153253 -0.05160019 -0.05164158 -0.05164513 -0.05161195
 -0.05153625 -0.05144432 -0.05133804 -0.05124881 -0.05118001 -0.05115074 -0.05116231 -0.05121755 -0.05131518 -0.05144024
 -0.05158784 -0.05172155 -0.05183578 -0.05188673 -0.05188133 -0.05180942 -0.05169187 -0.05155954 -0.05142555 -0.05132029
 -0.05123911 -0.05119061 -0.05115942 -0.05113935 -0.0511192 -0.05109029 -0.05106083 -0.05102911 -0.05101582 -0.05102542
 -0.05106234 -0.05112956 -0.05119858 -0.05126799 -0.05130151 -0.05129962 -0.05126121 -0.05119171 -0.051125 -0.05106409
 -0.05104018 -0.05104772 -0.05109078 -0.05115805 -0.05123235 -0.05130572 -0.05136118 -0.05139828 -0.05141108 -0.05140147
 -0.05136638 -0.05131743 -0.05125322 -0.05120539 -0.05118014 -0.05120842 -0.05129943 -0.05144903 -0.05166228 -0.05187326
 -0.0520789 -0.0521557 -0.05210381 -0.05189778 -0.05156031 -0.05123178 -0.05091709 -0.05071142 -0.05059823 -0.05058381
 -0.05065304 -0.05078836 -0.05096605 -0.05115855 -0.05132804 -0.05143276 -0.05145663 -0.05136454 -0.05120987 -0.05099702
 -0.05080543 -0.05066223 -0.05058574 -0.05058824 -0.05063276 -0.05071698 -0.05080869 -0.05090566 -0.0510036 -0.05110233
 -0.0512008 -0.0512959 -0.0513665 -0.05140925 -0.05139673 -0.05133546 -0.05122433 -0.05107948 -0.05092787 -0.05078151
 -0.05066686 -0.05058461 -0.05054612 -0.05054179 -0.0505715 -0.05061873 -0.05067825 -0.05073388 -0.05077956 -0.05081072
 -0.0508243 -0.05082985 -0.05082812 -0.05082608 -0.05082436 -0.05081503 -0.05079738 -0.05075818 -0.05069798 -0.05061264
 -0.05050592 -0.05038884 -0.05026744 -0.05016322 -0.05007811 -0.0500281 -0.05000453 -0.05000517 -0.05001642 -0.05002467
 -0.05002634 -0.05001345 -0.04999429 -0.04997033 -0.04994826 -0.04993027 -0.04991927 -0.04991511 -0.04992672 -0.0499551
 -0.05000701 -0.05008322 -0.05017041 -0.05026681 -0.05034089 -0.05039202 -0.05039784 -0.05036458 -0.05030358 -0.05022321
 -0.05015236 -0.05009082 -0.05005265 -0.05003137 -0.05002293 -0.0500269 -0.05003794 -0.05006864 -0.05012399 -0.0502165
 -0.05035666 -0.05053262 -0.05074923 -0.05096317 -0.05116954 -0.05132325 -0.05141792 -0.05143734 -0.05138002 -0.05124044
 -0.05101998 -0.05073838 -0.05040481 -0.05009366 -0.04981063 -0.04962333 -0.04951918 -0.04950483 -0.04955457 -0.04962645
 -0.04970094 -0.04972859 -0.04972688 -0.04968999 -0.04964986 -0.04962964 -0.04962818 -0.04965517 -0.04968395 -0.04970934
 -0.04971031 -0.04968021 -0.04962229 -0.04953485 -0.04943872 -0.04933505 -0.04924337 -0.04916458 -0.04911467 -0.04909365
 -0.04911221 -0.04916478 -0.04923845 -0.04931987 -0.04936395 -0.04937039 -0.04931029 -0.04920914 -0.04908881 -0.04896522
 -0.04886509 -0.0487776 -0.04870548 -0.04863102 -0.04854411 -0.04844817 -0.04833822 -0.04824099 -0.04816093 -0.04811546
 -0.0481096 -0.04812389 -0.04815816 -0.04815847 -0.04812303 -0.04801445 -0.04784114 -0.04764572 -0.04743898 -0.04729292
 -0.04719985 -0.04717708 -0.04721032 -0.04728192 -0.04738078 -0.04748959 -0.04759078 -0.04766595 -0.04769538 -0.04765733
 -0.04755941 -0.0473957 -0.04719322 -0.04696111 -0.04670304 -0.04642081 -0.04611502 -0.04578348 -0.04545579 -0.04513361
 -0.04484631 -0.04459426 -0.04438075 -0.0442043 -0.04405593 -0.04393477 -0.04383324 -0.04375023 -0.04367896 -0.04361881
 -0.04356566 -0.04351901 -0.04348053 -0.04343781 -0.04338624 -0.04329751 -0.04314839 -0.04293835 -0.04265149 -0.042337
 -0.04200628 -0.04169207 -0.04140512 -0.04114257 -0.04090572 -0.04068466 -0.04047873 -0.04028365 -0.04009939 -0.03992676
 -0.03976571 -0.0396181 -0.03948068 -0.03934328 -0.03919759 -0.03901275 -0.03879068 -0.0385128 -0.0382052 -0.0378955
 -0.03759971 -0.03734818 -0.03712646 -0.03693726 -0.03675532 -0.03656984 -0.03636727 -0.03613831 -0.03589422 -0.03563406
 -0.03537951 -0.0351341 -0.0349011 -0.03468167 -0.03445185 -0.03421033 -0.03393007 -0.03361376 -0.03326805 -0.03289993
 -0.0325439 -0.03220209 -0.03189978 -0.03163123 -0.03139944 -0.03119298 -0.03099953 -0.03080663 -0.03059685 -0.03036939
 -0.03011522 -0.02984966 -0.02957859 -0.02930758 -0.0290444 -0.02876443 -0.02846429 -0.02812311 -0.0277338 -0.02733045
 -0.02691412 -0.02654273 -0.02621737 -0.02594784 -0.02572902 -0.0255243 -0.02533037 -0.02511122 -0.02487257 -0.02460982
 -0.02433457 -0.02406815 -0.02381486 -0.02359363 -0.02339156 -0.02320779 -0.02301683 -0.02280138 -0.02254833 -0.0222418
 -0.02190264 -0.02153123 -0.02115848 -0.0207918 -0.02044171 -0.02011132 -0.01979459 -0.01949145 -0.01919257 -0.01889761
 -0.01860138 -0.01830422 -0.01800678 -0.01770913 -0.01741207 -0.01711476 -0.01681436 -0.01651234 -0.01620878 -0.01590906
 -0.01562147 -0.01534665 -0.01509138 -0.01484418 -0.01460057 -0.01434868 -0.01407955 -0.01379765 -0.01350005 -0.01320473
 -0.0129153 -0.01264112 -0.01238535 -0.01213633 -0.01189373 -0.01163937 -0.01137283 -0.01109044 -0.01079413 -0.01049835
 -0.01020461 -0.009928628 -0.009667594 -0.009422936 -0.009188287 -0.008951582 -0.00870933 -0.008449149 -0.008177924 -0.007894984
 -0.007615664 -0.007350618 -0.007106598 -0.006893357 -0.00669553 -0.006512801 -0.006320561 -0.006112593 -0.005881275 -0.005623488
 -0.005351193 -0.005064924 -0.004777361 -0.004488897 -0.004202988 -0.003919651 -0.003640107 -0.003365348 -0.003100661 -0.002846908
 -0.002610543 -0.002388916 -0.002181546 -0.001981369 -0.001778292 -0.00156802 -0.001340222 -0.001101978 -0.0008534239 -0.000606125
 -0.0003669865 -0.0001363284 8.301334E-05 0.0002995237 0.0005152785 0.000730997 0.000947506 0.001158995 0.001364769 0.001568972
 0.001772021 0.001985828 0.002209928 0.002446281 0.00269191 0.002934063 0.003170406 0.003386842 0.003584373 0.00375718
 0.003910108 0.004046236 0.004173049 0.004298461 0.004428474 0.004570314 0.00472343 0.004890333 0.005065162 0.005246802
 0.005429971 0.005613296 0.005794439 0.005973005 0.006147089 0.006316523 0.006479504 0.006636117 0.006790118 0.006942799
 0.007107257 0.007284666 0.007489036 0.007717362 0.007970046 0.00823898 0.008508584 0.008771575 0.009009984 0.009223869
 0.009405255 0.009561416 0.009694013 0.009811988 0.009920334 0.01002251 0.01012117 0.01021455 0.01030211 0.0103858
 0.01046478 0.01055073 0.01064443 0.01075653 0.01088728 0.01103406 0.01119618 0.01136578 0.01154324 0.01172743
 0.01191733 0.01211142 0.01230378 0.01248125 0.01264037 0.01276729 0.01287089 0.01295262 0.01302763 0.0131082
 0.01319825 0.0133053 0.0134185 0.01353604 0.01364871 0.01375294 0.01385204 0.01394584 0.01403989 0.01413514
 0.01422346 0.01430425 0.01436041 0.01439254 0.01439775 0.01438096 0.01436405 0.01435222 0.01437467 0.01442876
 0.01452618 0.01465431 0.01480168 0.01495348 0.01508954 0.0152051 0.01528739 0.01534847 0.01538809 0.01542774
 0.01547456 0.01554137 0.01563431 0.015746 0.01587779 0.01600792 0.01613498 0.01623797 0.01631609 0.016363
 0.01638023 0.01637981 0.0163637 0.01634862 0.0163333 0.01632231 0.01631396 0.0163047 0.01629912 0.01630164
 0.01631813 0.01635907 0.01641829 0.01649761 0.01658101 0.01666039 0.01672896 0.01678082 0.01682356 0.0168577
 0.01689072 0.01692433 0.01695754 0.01699059 0.0170188 0.0170419 0.01705356 0.01705321 0.01703179 0.01699034
 0.01692688 0.01684763 0.01676953 0.01670118 0.01667091 0.01667825 0.01673966 0.01683716 0.01696201 0.01708839
 0.017194 0.01726831 0.01729612 0.01729312 0.01725891 0.01721848 0.01717745 0.01715054 0.0171404 0.01715589
 0.01719757 0.01727913 0.01740113 0.01756928 0.01778072 0.01801047 0.01825138 0.0184531 0.01861241 0.01868862
 0.01869214 0.01862033 0.01849724 0.01835521 0.01821776 0.01812447 0.01807682 0.01809485 0.0181498 0.01823715
 0.0183166 0.01837325 0.01838437 0.01833915 0.01824624 0.0181029 0.01794107 0.01776268 0.017601 0.01745757
 0.0173458 0.01726422 0.01720212 0.01715742 0.01711237 0.01706919 0.01702487 0.01698449 0.0169601 0.01694886
 0.01695703 0.01696566 0.01695989 0.01691737 0.0168131 0.01664971 0.01641455 0.0161444 0.01584579 0.01556085
 0.01530234 0.01508277 0.01490789 0.0147616 0.0146434 0.01453316 0.01442988 0.01432151 0.01420808 0.01408485
 0.01395358 0.01382072 0.01368869 0.01357075 0.01346342 0.01336779 0.01327406 0.01316618 0.01304196 0.01288891
 0.01272102 0.01254256 0.01237171 0.0122195 0.01209342 0.01199986 0.01193435 0.0118992 0.01187685 0.01186744
 0.01183723 0.01178357 0.01167647 0.01151463 0.01130458 0.01104994 0.01079359 0.01053862 0.01032565 0.01015083
 0.01002437 0.009937624 0.009877184 0.009834959 0.009793172 0.009746227 0.009681313 0.009596999 0.009486921 0.009356397
 0.0092051 0.009043052 0.008873153 0.008704317 0.00853946 0.008381628 0.00823221 0.00808748 0.007947266 0.007807634
 0.007668423 0.007532355 0.007399973 0.007278787 0.007168547 0.007072346 0.006988276 0.006912185 0.006841149 0.006767235
 0.006687032 0.006591811 0.00647972 0.006343694 0.006189039 0.006015194 0.005834693 0.005654054 0.005480547 0.005320184
 0.005166354 0.005019047 0.004869228 0.004714393 0.004558499 0.004401272 0.004253733 0.004116395 0.003989296 0.003871481
 0.003750999 0.003627745 0.003494171 0.003352821 0.003208612 0.003063293 0.002924631 0.002789578 0.002657733 0.002523277
 0.002378655 0.002223234 0.002050985 0.001873553 0.001692544 0.001527937 0.001387796 0.001282054 0.001218211 0.00117897
 0.001165529 0.001140221 0.001099784 0.001015681 0.0008863577 0.0007154203 0.000505339 0.000286844 6.306728E-05 -0.0001314235
 -0.0002979831 -0.000420097 -0.0005072386 -0.0005703804 -0.0006239419 -0.0006967554 -0.0007946512 -0.0009399393 -0.001117908 -0.001328359
 -0.001544856 -0.001752094 -0.001938549 -0.002093534 -0.002228228 -0.00234377 -0.002448505 -0.002546307 -0.002621713 -0.002674128
 -0.002682375 -0.002645333 -0.002570783 -0.002462016 -0.002362246 -0.002275751 -0.002251464 -0.002286439 -0.002400333 -0.002579025
 -0.002802163 -0.003051734 -0.003287924 -0.003505581 -0.003679046 -0.003823898 -0.003942439 -0.004053643 -0.00417159 -0.004294623
 -0.004427618 -0.004555061 -0.004672178 -0.004778583 -0.004871799 -0.004968395 -0.00507041 -0.005180066 -0.005297576 -0.005398138
 -0.00548077 -0.005524412 -0.005532789 -0.005516403 -0.005481217 -0.005455448 -0.005438647 -0.005445497 -0.005468666 -0.005501829
 -0.005541421 -0.005577453 -0.005619522 -0.005668904 -0.005743768 -0.005855463 -0.006010768 -0.006219629 -0.006461399 -0.00673691
 -0.007006203 -0.007263424 -0.007478069 -0.007645181 -0.007766574 -0.007842058 -0.007901974 -0.007948246 -0.008014718 -0.008100251
 -0.008216986 -0.00835884 -0.008511051 -0.008667529 -0.008804521 -0.008924227 -0.009017286 -0.009094348 -0.009164054 -0.00923451
 -0.009317474 -0.009408357 -0.009509958 -0.009608878 -0.009700343 -0.00977686 -0.009833481 -0.009878946 -0.009912035 -0.009955507
 -0.01001128 -0.01009902 -0.01022004 -0.0103712 -0.01055063 -0.01073077 -0.01090992 -0.01106142 -0.01118985 -0.01129611
 -0.0113888 -0.01149059 -0.01160311 -0.01174222 -0.01189823 -0.01206693 -0.01223726 -0.01239798 -0.01254585 -0.01267605
 -0.01278843 -0.01288325 -0.01295489 -0.01300239 -0.01301925 -0.01300278 -0.01295992 -0.01288961 -0.01281807 -0.01274668
 -0.01270866 -0.01270476 -0.01275318 -0.01285045 -0.01298578 -0.01315213 -0.01331799 -0.01347861 -0.0136052 -0.01370045
 -0.01375456 -0.01377573 -0.01376982 -0.0137432 -0.01370366 -0.01365232 -0.01359158 -0.01352207 -0.01344307 -0.01336135
 -0.01327745 -0.01320213 -0.01313809 -0.01308645 -0.01304911 -0.01300578 -0.01295553 -0.01286479 -0.0127327 -0.01253958
 -0.01228939 -0.01199602 -0.01166643 -0.01133497 -0.01100328 -0.01069463 -0.0104023 -0.01012525 -0.009857186 -0.009587826
 -0.009320849 -0.009054586 -0.008797313 -0.008555356 -0.008326197 -0.00811321 -0.00790011 -0.007683088 -0.007451368 -0.007199923
 -0.006942938 -0.006679943 -0.006441999 -0.006231023 -0.006063265 -0.005937631 -0.005838285 -0.005762793 -0.005685649 -0.005609879
 -0.005532928 -0.005460311 -0.005407941 -0.005370767 -0.005351171 -0.005332663 -0.00529505 -0.005230788 -0.005121775 -0.004983188
 -0.004817015 -0.004642693 -0.004471685 -0.004300678 -0.0041337 -0.003950009 -0.003745707 -0.003512649 -0.003247921 -0.002968648
 -0.002675509 -0.002396907 -0.002134102 -0.001910451 -0.001725365 -0.001588472 -0.001494932 -0.001433301 -0.001395153 -0.001351811
 -0.001302157 -0.001225074 -0.001139719 -0.001055128 -0.001005137 -0.001019445 -0.001125244 -0.001348166 -0.001694248 -0.002175312
 -0.002774728 -0.003495836 -0.004295347 -0.005171263 -0.006056624 -0.006945334 -0.007775759 -0.008543427 -0.009226192 -0.009824938
 -0.01035528 -0.01081898 -0.0112356 -0.01160421 -0.01192983 -0.01221404 -0.01246063 -0.0126782 -0.01288262 -0.01308286
 -0.01329829 -0.01352733 -0.01377838 -0.01403702 -0.01429907 -0.01454656 -0.01477111 -0.01496289 -0.0151161 -0.01523491
 -0.01531823 -0.01537789 -0.01541536 -0.0154354 -0.01543857 -0.01541619 -0.0153681 -0.01528908 -0.01518235 -0.01506642
 -0.01494716 -0.0148591 -0.01480248 -0.01479802 -0.0148368 -0.01491361 -0.01501732 -0.01513216 -0.0152506 -0.01536174
 -0.01545951 -0.01553789 -0.01559235 -0.01561881 -0.01561941 -0.0155935 -0.01554607 -0.01547864 -0.01538888 -0.01527633
 -0.0151411 -0.01498243 -0.01483479 -0.01470239 -0.01466359 -0.01472283 -0.01495478 -0.01534909 -0.01591217 -0.01661406
 -0.017383 -0.0181889 -0.01894062 -0.01963454 -0.02022325 -0.02073261 -0.02116712 -0.02155604 -0.02192101 -0.02226926
 -0.02261157 -0.02293596 -0.02324114 -0.02351701 -0.02376 -0.02397507 -0.02416141 -0.02433524 -0.02449748 -0.02466357
 -0.02483367 -0.02501025 -0.02519162 -0.02536671 -0.02553424 -0.02568217 -0.02581229 -0.02592277 -0.02601671 -0.02609907
 -0.02617144 -0.02623751 -0.02629888 -0.02635692 -0.02641661 -0.02648107 -0.02655433 -0.0266403 -0.02673456 -0.02683824
 -0.02693876 -0.02703416 -0.02711456 -0.02717801 -0.02722569 -0.02725737 -0.02728211 -0.02730038 -0.02732046 -0.02734232
 -0.0273696 -0.02740227 -0.02744189 -0.02748911 -0.02754661 -0.02761456 -0.02769531 -0.02778658 -0.02788738 -0.0279928
 -0.02809891 -0.0281999 -0.0282915 -0.02836899 -0.02842909 -0.02847067 -0.02849131 -0.02849857 -0.02849215 -0.02848748
 -0.02848632 -0.02849956 -0.02852834 -0.02856886 -0.02862069 -0.02867342 -0.0287274 -0.02878051 -0.02883374 -0.02889112
 -0.02895129 -0.02901295 -0.02907349 -0.02912661 -0.02917278 -0.0292096 -0.02923942 -0.02926421 -0.02928337 -0.0292974
 -0.02930428 -0.02930213 -0.02929439 -0.02928045 -0.02926956 -0.02926318 -0.02926894 -0.02928831 -0.02932137 -0.02936837
 -0.02942265 -0.02948379 -0.02954355 -0.02960193 -0.02965505 -0.0297033 -0.02974655 -0.02978447 -0.02981611 -0.02984092
 -0.02985657 -0.02986508 -0.02986729 -0.02986751 -0.0298704 -0.02987734 -0.02989159 -0.02990939 -0.02993009 -0.02994989
 -0.02996681 -0.02998239 -0.02999609 -0.03001298 -0.03003361 -0.03006146 -0.0300969 -0.03014012 -0.03019102 -0.03024694
 -0.0303074 -0.03036725 -0.03042625 -0.03048016 -0.03053004 -0.03057666 -0.03062114 -0.0306672 -0.03071217 -0.03075497
 -0.03079053 -0.0308121 -0.0308221 -0.03081697 -0.03081101 -0.03080909 -0.03082337 -0.03086093 -0.03091547 -0.03098866
 -0.03106184 -0.03113268 -0.03119079 -0.03123494 -0.03126953 -0.03129481 -0.03131698 -0.0313357 -0.03135043 -0.03136096
 -0.03136546 -0.03136539 -0.03136368 -0.03136232 -0.03136673 -0.03137754 -0.0313982 -0.03142758 -0.03146637 -0.03151175
 -0.03156251 -0.03161523 -0.03166787 -0.03171944 -0.03176882 -0.031818 -0.03186748 -0.03191694 -0.03196681 -0.03201207
 -0.03205229 -0.03208577 -0.03211271 -0.0321409 -0.03217075 -0.03221034 -0.03225766 -0.03230875 -0.03236016 -0.03239893
 -0.03242547 -0.03243285 -0.03242686 -0.03241192 -0.03239452 -0.03238292 -0.03237912 -0.03238785 -0.03240554 -0.03243247
 -0.0324625 -0.03249413 -0.03252184 -0.03254414 -0.03255866 -0.03256459 -0.03256433 -0.0325578 -0.03255261 -0.03254921
 -0.03255728 -0.03257669 -0.03261125 -0.03265921 -0.03271488 -0.03277613 -0.03283335 -0.03288651 -0.03293081 -0.03296766
 -0.03299723 -0.03302022 -0.03303711 -0.03304909 -0.03305613 -0.03306234 -0.03306927 -0.03308087 -0.03309963 -0.0331228
 -0.03315105 -0.03317632 -0.03319745 -0.03321096 -0.03321618 -0.03321961 -0.03322163 -0.03323108 -0.03324756 -0.03327156
 -0.03330142 -0.03332927 -0.03335463 -0.03337104 -0.03338097 -0.03338571 -0.03338908 -0.03339717 -0.03341177 -0.03343754
 -0.03347254 -0.0335179 -0.03356792 -0.03362091 -0.03367027 -0.03371348 -0.03374733 -0.03377015 -0.03378436 -0.03378963
 -0.03379221 -0.03379249 -0.03379701 -0.03380604 -0.03382251 -0.03384598 -0.033874 -0.0339057 -0.03393561 -0.03396368
 -0.03398672 -0.0340056 -0.03402084 -0.0340324 -0.03404095 -0.03404488 -0.03404263 -0.03403391 -0.03401705 -0.03399566
 -0.0339701 -0.03394677 -0.03392768 -0.03391737 -0.03391762 -0.0339276 -0.03394791 -0.03397258 -0.03400123 -0.03402829
 -0.03405361 -0.03407689 -0.03409844 -0.03412109 -0.03414464 -0.0341698 -0.03419577 -0.03422052 -0.03424368 -0.03426338
 -0.03427991 -0.03429295 -0.0343026 -0.03430868 -0.03431163 -0.03431112 -0.03430947 -0.03430742 -0.03430773 -0.03431185
 -0.03431932 -0.03433089 -0.03434179 -0.03435155 -0.0343558 -0.03435399 -0.0343474 -0.03433616 -0.03432502 -0.03431397
 -0.03430504 -0.03429773 -0.03429033 -0.03428303 -0.03427495 -0.03426782 -0.03426469 -0.03426728 -0.03428008 -0.03430196
 -0.03433454 -0.03437296 -0.03441489 -0.03445491 -0.03448917 -0.03451736 -0.03453769 -0.03455533 -0.03457113 -0.03458884
 -0.03460964 -0.03463044 -0.03465123 -0.03466562 -0.03467335 -0.03467283 -0.03466475 -0.03465469 -0.03464375 -0.03464055
 -0.03464502 -0.03466217 -0.03468969 -0.03472586 -0.03476682 -0.03480633 -0.03484165 -0.03486731 -0.03488356 -0.03488839
 -0.03488463 -0.03487242 -0.03485677 -0.03483877 -0.03482439 -0.03481508 -0.03481476 -0.03482442 -0.0348435 -0.0348722
 -0.03490647 -0.03494607 -0.03498504 -0.03502296 -0.03505327 -0.03507593 -0.03508662 -0.03508682 -0.03507846 -0.03506387
 -0.03504908 -0.03503495 -0.03502594 -0.03502016 -0.03501755 -0.03501561 -0.03501217 -0.03500691 -0.03499877 -0.03498957
 -0.03497978 -0.03497025 -0.03496138 -0.03495275 -0.03494408 -0.03493742 -0.03493271 -0.03493521 -0.03494514 -0.03496405
 -0.03499124 -0.03502013 -0.03504989 -0.0350722 -0.03508808 -0.03509601 -0.03509821 -0.03509901 -0.03509922 -0.03510243
 -0.03510711 -0.03511306 -0.03511865 -0.03512215 -0.03512426 -0.03512448 -0.03512521 -0.03512748 -0.03513137 -0.03513768
 -0.03514228 -0.03514475 -0.03514154 -0.03513208 -0.03511869 -0.03510152 -0.03508604 -0.03507232 -0.03506307 -0.03505807
 -0.03505766 -0.03506166 -0.03506998 -0.035082 -0.0350967 -0.03511277 -0.03512773 -0.03514082 -0.03515039 -0.03515595
 -0.03515704 -0.03515214 -0.03513997 -0.0351213 -0.03509495 -0.03506732 -0.03503911 -0.03501842 -0.03500693 -0.03500619
 -0.03501681 -0.03503272 -0.0350536 -0.03507294 -0.03509083 -0.035106 -0.03511927 -0.03513432 -0.03515191 -0.03517613
 -0.03520775 -0.03524993 -0.03530435 -0.03537457 -0.03546264 -0.03557272 -0.03570369 -0.03585736 -0.03602768 -0.03621234
 -0.03640607 -0.03660553 -0.03681273 -0.03702715 -0.03725375 -0.03749407 -0.03774395 -0.03800377 -0.0382593 -0.03850978
 -0.03874112 -0.03895314 -0.03914078 -0.03930252 -0.03943119 -0.03951825 -0.03953295 -0.03946535 -0.03926796 -0.03896307
 -0.03855169 -0.03809151 -0.03764629 -0.03725068 -0.03695609 -0.03675595 -0.03666289 -0.03665332 -0.0367258 -0.03684403
 -0.03700452 -0.03715208 -0.03727804 -0.03734446 -0.0373439 -0.03731002 -0.03724452 -0.03720514 -0.03719103 -0.03721119
 -0.03725892 -0.03730188 -0.03733583 -0.03732721 -0.03728133 -0.03719093 -0.03706942 -0.03693576 -0.036796 -0.0366677
 -0.03654034 -0.03641199 -0.03627183 -0.03610959 -0.03593549 -0.03574806 -0.03556964 -0.03540574 -0.03526825 -0.03516074
 -0.03508091 -0.0350294 -0.03499557 -0.03497881 -0.03496256 -0.034946 -0.03491376 -0.03486692 -0.03480285 -0.03472472
 -0.03464196 -0.03455686 -0.03447957 -0.03441019 -0.03435333 -0.03430812 -0.0342756 -0.03425394 -0.03424278 -0.03423852
 -0.03423993 -0.03424202 -0.034243 -0.03423866 -0.03422733 -0.03420867 -0.03418176 -0.03415231 -0.03412063 -0.03409329
 -0.03407062 -0.03405203 -0.03403701 -0.03401867 -0.03399712 -0.03396886 -0.03393583 -0.03390279 -0.03387149 -0.03384879
 -0.03383394 -0.03382932 -0.03383208 -0.03384046 -0.03385062 -0.03385942 -0.03386333 -0.03385922 -0.0338471 -0.03382549
 -0.03379888 -0.03376793 -0.03373689 -0.03370693 -0.03367712 -0.03364761 -0.03361494 -0.03357893 -0.03354055 -0.03350022
 -0.03346368 -0.03343104 -0.03340629 -0.03338812 -0.03337442 -0.03336323 -0.03334842 -0.03333021 -0.03330522 -0.03327727
 -0.03324889 -0.0332246 -0.03320976 -0.03320349 -0.03320824 -0.0332165 -0.03322616 -0.0332313 -0.03322905 -0.03322216
 -0.03321025 -0.03319954 -0.03319087 -0.03318454 -0.03318061 -0.0331752 -0.03316837 -0.03315985 -0.03315008 -0.03314196
 -0.03313475 -0.03312766 -0.03311917 -0.0331047 -0.03308495 -0.03305831 -0.03302795 -0.03299682 -0.03296728 -0.03294263
 -0.03292228 -0.03290709 -0.03289475 -0.03288463 -0.03287483 -0.03286465 -0.03285364 -0.03284162 -0.03282848 -0.0328142
 -0.03279844 -0.03278118 -0.03276304 -0.0327441 -0.03272586 -0.03270823 -0.03269153 -0.03267572 -0.03266035 -0.03264624
 -0.03263509 -0.03262772 -0.03262718 -0.03263126 -0.03263932 -0.03264711 -0.03265055 -0.03264868 -0.03263908 -0.03262501
 -0.0326072 -0.03258814 -0.03256879 -0.03254931 -0.03252967 -0.03251122 -0.03249404 -0.03248011 -0.03246957 -0.03246062
 -0.03245305 -0.03244303 -0.03243097 -0.03241724 -0.03240285 -0.03239203 -0.03238455 -0.03238251 -0.03238393 -0.03238644
 -0.0323885 -0.03238694 -0.03238245 -0.03237422 -0.03236438 -0.03235378 -0.0323444 -0.03233705 -0.03233341 -0.03233416
 -0.03233972 -0.0323506 -0.03236414 -0.03238029 -0.03239475 -0.03240725 -0.03241546 -0.03241936 -0.03241859 -0.032413
 -0.03240114 -0.03238319 -0.03235836 -0.0323282 -0.03229601 -0.03226336 -0.03223512 -0.03220991 -0.03218846 -0.03216784
 -0.03214518 -0.03212085 -0.03209338 -0.03206686 -0.03204257 -0.03202321 -0.03201028 -0.03200206 -0.03199882 -0.03199637
 -0.03199427 -0.03198968 -0.03198236 -0.03197361 -0.03196369 -0.031957 -0.03195366 -0.03195678 -0.03196561 -0.03197915
 -0.03199605 -0.03201243 -0.03202745 -0.03203773 -0.03204357 -0.03204359 -0.03203942 -0.03203168 -0.03202249 -0.03201333
 -0.03200494 -0.03199819 -0.03199221 -0.03198707 -0.03198131 -0.03197464 -0.03196633 -0.03195622 -0.03194482 -0.03193215
 -0.03192076 -0.03191081 -0.03190539 -0.03190425 -0.03190758 -0.03191441 -0.0319213 -0.03192724 -0.03192791 -0.03192303
 -0.03190983 -0.03188945 -0.03186142 -0.031829 -0.03179395 -0.03176108 -0.03173368 -0.03171434 -0.03170564 -0.03170493
 -0.03171278 -0.03172256 -0.03173332 -0.03173975 -0.03174096 -0.03173669 -0.03172684 -0.03171506 -0.03170147 -0.03168837
 -0.03167566 -0.03166347 -0.03165216 -0.03164309 -0.03163704 -0.03163735 -0.03164281 -0.03165379 -0.03166628 -0.03167545
 -0.0316788 -0.03167108 -0.03165657 -0.03163499 -0.03161498 -0.03160021 -0.03159514 -0.03160313 -0.0316181 -0.03164049
 -0.03165758 -0.03166788 -0.03166439 -0.03164644 -0.03161971 -0.0315849 -0.03155444 -0.0315284 -0.03151365 -0.03150867
 -0.03151132 -0.03151991 -0.03152898 -0.03153776 -0.03154241 -0.03154273 -0.03153687 -0.03152532 -0.03150732 -0.03148535
 -0.03146001 -0.03143556 -0.03141387 -0.03139764 -0.03138863 -0.03138446 -0.03138543 -0.03138614 -0.031386 -0.03138187
 -0.03137347 -0.0313615 -0.03134606 -0.03132893 -0.03131026 -0.03129187 -0.03127406 -0.03125932 -0.03124721 -0.03123829
 -0.03123101 -0.0312225 -0.03121255 -0.03119889 -0.03118447 -0.03117107 -0.03116086 -0.03115663 -0.0311556 -0.03115785
 -0.03115844 -0.0311556 -0.03114855 -0.03113645 -0.03112272 -0.03110775 -0.03109315 -0.03107915 -0.03106251 -0.03104307
 -0.03101724 -0.03098559 -0.0309502 -0.03091245 -0.03087934 -0.03085115 -0.03083274 -0.0308222 -0.03081858 -0.03081932
 -0.03082082 -0.03082151 -0.03081886 -0.03081208 -0.03079959 -0.03078277 -0.03076102 -0.03073912 -0.03071821 -0.03070216
 -0.03069265 -0.0306861 -0.03068265 -0.03067477 -0.03066189 -0.03064208 -0.03061562 -0.03058842 -0.03056092 -0.03053946
 -0.03052331 -0.03051311 -0.03050728 -0.03050175 -0.03049611 -0.03048732 -0.03047669 -0.03046484 -0.03045244 -0.03044119
 -0.03042849 -0.03041361 -0.03039306 -0.03036417 -0.03032934 -0.03028746 -0.03024768 -0.03021139 -0.03018598 -0.03017298
 -0.0301709 -0.03017992 -0.03019134 -0.03020474 -0.03021199 -0.03021328 -0.03020609 -0.03019129 -0.03017097 -0.03014613
 -0.03012041 -0.03009467 -0.03007265 -0.0300535 -0.03003837 -0.03002406 -0.03000795 -0.02998838 -0.02996239 -0.02993378
 -0.02990323 -0.02987482 -0.02985075 -0.02982874 -0.02980914 -0.02978662 -0.02976039 -0.02972932 -0.02969319 -0.02965534
 -0.02961596 -0.02957849 -0.02954308 -0.02951266 -0.02948712 -0.02946812 -0.02945431 -0.02944329 -0.0294329 -0.02941782
 -0.02939718 -0.02936715 -0.02932915 -0.02928226 -0.02923076 -0.02917612 -0.02912465 -0.02907967 -0.02904377 -0.02901975
 -0.02900113 -0.0289877 -0.0289703 -0.02894741 -0.02891742 -0.02887992 -0.02884141 -0.02880225 -0.02876934 -0.02874249
 -0.02872375 -0.02871216 -0.02870502 -0.028701 -0.02869499 -0.02868631 -0.02867113 -0.02864988 -0.02862181 -0.02858681
 -0.02854449 -0.02849497 -0.02843674 -0.02837534 -0.02831153 -0.02825472 -0.02820838 -0.02817541 -0.02815815 -0.02814887
 -0.02814708 -0.02814483 -0.02814134 -0.02813721 -0.02813256 -0.02813092 -0.02813172 -0.02813256 -0.0281316 -0.02811923
 -0.02809486 -0.02805046 -0.02798982 -0.02791555 -0.02783345 -0.02775236 -0.02767594 -0.02761049 -0.02755803 -0.02752185
 -0.02750175 -0.02750001 -0.0275093 -0.02752986 -0.02754625 -0.02755584 -0.02754577 -0.02751319 -0.02746021 -0.02738641
 -0.02730561 -0.02721849 -0.0271376 -0.02706286 -0.02699933 -0.02694609 -0.02690201 -0.02686595 -0.02683426 -0.02680613
 -0.02677863 -0.02675072 -0.02672011 -0.02668532 -0.02664348 -0.02659603 -0.02654197 -0.02648681 -0.02643309 -0.02638308
 -0.02633939 -0.02629557 -0.02625129 -0.02619762 -0.02613274 -0.02605761 -0.02597178 -0.02588791 -0.0258066 -0.02573935
 -0.02568504 -0.0256404 -0.0256018 -0.02555018 -0.02548503 -0.02539241 -0.02527985 -0.02515536 -0.02502581 -0.02490581
 -0.02479325 -0.02469207 -0.02459648 -0.02450213 -0.02441095 -0.02432086 -0.02424213 -0.02417814 -0.02413291 -0.02411017
 -0.02409605 -0.02409085 -0.02406697 -0.02402217 -0.02394203 -0.02382682 -0.02369609 -0.02355142 -0.02341643 -0.02328818
 -0.02316587 -0.02304524 -0.02291217 -0.02276726 -0.0226033 -0.02242677 -0.02224296 -0.02205905 -0.02188445 -0.02172116
 -0.02157527 -0.02143938 -0.0213141 -0.02118315 -0.02104141 -0.02087914 -0.02069096 -0.02048933 -0.02027474 -0.02006256
 -0.01985444 -0.01964862 -0.01944504 -0.01924022 -0.01903503 -0.01883696 -0.01864515 -0.01846168 -0.01828049 -0.01808424
 -0.01786925 -0.01761558 -0.01733411 -0.0170303 -0.01671802 -0.01641629 -0.01612179 -0.01583906 -0.015559 -0.0152767
 -0.01499348 -0.01470802 -0.01442636 -0.01415188 -0.01387406 -0.01359467 -0.01327704 -0.01291812 -0.01249698 -0.01201432
 -0.01151828 -0.01101201 -0.01054728 -0.01011686 -0.009712943 -0.00932777 -0.008933088 -0.008528339 -0.008099597 -0.007647427
 -0.007170356 -0.00665896 -0.006108931 -0.005495953 -0.004803501 -0.004011755 -0.003096669 -0.002093046 -0.0009953303 0.0001096718
 0.001204176 0.002233569 0.003184984 0.004061241 0.004860343 0.005614728 0.0063267 0.007050257 0.007790251 0.008619396
 0.009531081 0.01054366 0.01162369 0.01267162 0.01367969 0.01457298 0.01538714 0.01614388 0.01686756 0.01759448
 0.01832382 0.01906441 0.01981585 0.02057721 0.02135943 0.02217026 0.02299493 0.02383549 0.02465393 0.02544358
 0.02619698 0.02691247 0.02760187 0.02826503 0.02888319 0.02945414 0.02994612 0.03036322 0.03070693 0.03098664
 0.0312321 0.03144914 0.03166638 0.03187912 0.03209209 0.03230122 0.03250152 0.03269846 0.03289583 0.03309258
 0.03329213 0.0334808 0.03365528 0.03380393 0.03392324 0.03400949 0.03406156 0.03407924 0.0340621 0.03401677
 0.03394379 0.03385903 0.03376263 0.03366261 0.03355701 0.03343984 0.03331031 0.03316106 0.03299668 0.03282099
 0.03264426 0.03248345 0.0323445 0.03224127 0.03217042 0.03213312 0.03212786 0.03215293 0.0322127 0.03230896
 0.03244138 0.0326109 0.03281206 0.0330439 0.03330569 0.03359724 0.03391933 0.03427193 0.03465217 0.03506005
 0.03549431 0.03595537 0.03644556 0.03696376 0.0375081 0.03807639 0.03866258 0.03926651 0.03988485 0.04051951
 0.04117079 0.04184164 0.04253354 0.04325081 0.0439964 0.04477097 0.04557689 0.04640664 0.04726019 0.04812476
 0.04899949 0.04986741 0.05072733 0.05156137 0.05236879 0.05314543 0.05389188 0.05461628 0.05531409 0.05596878
 0.05656999 0.05707107 0.05747678 0.0577699 0.05797102 0.05810404 0.05818303 0.05823286 0.05825545 0.05826089
 0.05824343 0.05820773 0.05812905 0.05800917 0.05778624 0.05744586 0.05694837 0.05627288 0.05552208 0.0547019
 0.05391312 0.05315957 0.05241326 0.05167133 0.05089267 0.05008073 0.04923378 0.04835509 0.04745974 0.04653618
 0.04557589 0.04454385 0.04337743 0.04207034 0.04055831 0.03895538 0.03732349 0.03574941 0.03431905 0.03296635
 0.0316861 0.03042171 0.02914857 0.02789969 0.02667413 0.02552511 0.02445962 0.02346879 0.0225519 0.02165626
 0.02078096 0.01989574 0.01900739 0.01813598 0.0172889 0.0165046 0.01577733 0.01511635 0.01450554 0.01392428
 0.01336066 0.01279466 0.01221943 0.01162674 0.01100405 0.01034177 0.009636763 0.008871574 0.008115124 0.007374184
 0.006738493 0.006232525 0.005820431 0.005503952 0.005199864 0.004904273 0.004586575 0.004249921 0.003921038 0.003602826
 0.003327607 0.003088571 0.002878845 0.002693457 0.002513773 0.002348921 0.002203289 0.002090083 0.00202799 0.002016332
 0.002062375 0.002156344 0.00229488 0.002471559 0.002683237 0.002927169 0.003200663 0.00351109 0.003856596 0.004265998
 0.0047418 0.005307102 0.005962669 0.006658277 0.007387979 0.008062853 0.00868581 0.009226895 0.00969498 0.01010528
 0.01046102 0.01077513 0.01105191 0.01129871 0.01153241 0.01177065 0.01203586 0.01235749 0.01272328 0.01314509
 0.01356737 0.01396871 0.01433179 0.01464272 0.01493265 0.0152043 0.01548319 0.0157729 0.01607254 0.01638214
 0.01668801 0.01699043 0.01728766 0.01758264 0.01789064 0.01821457 0.01857396 0.01896611 0.01939704 0.01985654
 0.02032939 0.02081305 0.02129484 0.02178809 0.02229955 0.02283758 0.02341274 0.0240116 0.02463361 0.02525852
 0.0258796 0.02649469 0.02710172 0.02770946 0.02831994 0.02891866 0.02950482 0.03003264 0.03050083 0.03087897
 0.03117109 0.03138595 0.03152572 0.03160453 0.03161728 0.03155978 0.03142519 0.03119883 0.03088189 0.03046707
 0.02996654 0.0293858 0.02873918 0.02803697 0.02728241 0.02648008 0.02562385 0.02471012 0.02375014 0.02274069
 0.02172826 0.02071647 0.01974678 0.01882158 0.01793492 0.01708475 0.01624094 0.01540514 0.0145697 0.01374248
 0.01294822 0.01219023 0.01149184 0.01084412 0.01024439 0.00968015 0.009135216 0.008604884 0.008078607 0.007561342
 0.007052426 0.006558875 0.006083686 0.005628729 0.005195251 0.004782218 0.004389565 0.004016893 0.003664064 0.003332156
 0.003021222 0.00273405 0.002470769 0.002234142 0.002023596 0.001837422 0.00167436 0.001528752 0.001400389 0.001285579
 0.001185664 0.001101146 0.001033399 0.0009850742 0.0009542115 0.000942111 0.0009402678 0.0009460459 0.0009474154 0.000938998
 0.0009151093 0.0008718927 0.000815434 0.0007453124 0.000673558 0.0006012828 0.0005371902 0.0004818402 0.0004360568 0.0003993577
 0.0003653384 0.0003332875 0.0002950347 0.0002516219 0.0002011387 0.0001479128 0.0001008133 6.44383E-05 5.15143E-05 6.107947E-05
 9.950053E-05 0.0001567042 0.0002287048 0.0003012623 0.0003652575 0.000413202 0.0004382845 0.0004466592 0.0004375374 0.0004229854
 0.0004052711 0.0003891884 0.0003757775 0.0003623812 0.0003488916 0.0003340916 0.0003182222 0.0003047448 0.0002937883 0.0002881539
 0.0002871076 0.000289926 0.000294818 0.0002978437 0.0002958737 0.0002823121 0.0002541076 0.0002045547 0.0001340391 3.929912E-05
 -7.381862E-05 -0.0002040452 -0.0003428555 -0.0004865718 -0.0006306845 -0.0007725135 -0.0009149815 -0.001058033 -0.001205897 -0.001359531
 -0.001514582 -0.001670914 -0.001815329 -0.001947389 -0.002057729 -0.002147707 -0.002220811 -0.002279379 -0.002334421 -0.002386091
 -0.002441548 -0.002496714 -0.002548904 -0.002591842 -0.002616465 -0.002620693 -0.002597765 -0.002554618 -0.002491846 -0.002420664
 -0.002345901 -0.00227286 -0.002204863 -0.002138123 -0.002072734 -0.002003239 -0.00192883 -0.001849268 -0.001764451 -0.001679299
 -0.001594145 -0.00151472 -0.001441183 -0.00137738 -0.001323266 -0.001280956 -0.001249868 -0.001230472 -0.001220137 -0.001215041
 -0.001211934 -0.001204486 -0.001193828 -0.001176982 -0.001161721 -0.001151294 -0.001152551 -0.001170255 -0.001201992 -0.001249201
 -0.001302465 -0.001360423 -0.001416079 -0.001468081 -0.001518449 -0.00156716 -0.001622717 -0.001685334 -0.001759826 -0.001845169
 -0.001936753 -0.0020339 -0.002130621 -0.002229074 -0.00233176 -0.002440576 -0.002561615 -0.002691103 -0.002828105 -0.002965501
 -0.003096504 -0.003218355 -0.003326871 -0.003424246 -0.00351048 -0.003587355 -0.003655341 -0.003715444 -0.003767378 -0.003815598
 -0.003860243 -0.003908618 -0.003961221 -0.004020873 -0.004087058 -0.004151684 -0.004213231 -0.004256831 -0.004282954 -0.004284142
 -0.004264777 -0.004231971 -0.004189982 -0.004150865 -0.004112939 -0.004080751 -0.004046193 -0.004005096 -0.003947605 -0.003866139
 -0.003757667 -0.003616713 -0.003454074 -0.003269761 -0.003082561 -0.002896508 -0.002718646 -0.002551333 -0.002382895 -0.002212808
 -0.002027333 -0.001826394 -0.001608533 -0.001374466 -0.001128463 -0.0008705515 -0.0006026442 -0.0003252054 -4.003404E-05 0.0002516022
 0.0005464533 0.0008442185 0.001143592 0.00144358 0.001744182 0.002040529 0.002330868 0.002607853 0.002868176 0.003107218
 0.0033225 0.003515092 0.003684491 0.003834569 0.003965845 0.004079116 0.004174481 0.004250604 0.004307934 0.004353513
 0.004389618 0.004435622 0.004493282 0.004580948 0.004696579 0.004845023 0.005021561 0.005220414 0.005436906 0.005662868
 0.005895779 0.00612987 0.006367259 0.006607108 0.006853598 0.007109572 0.007372035 0.007642006 0.007909614 0.008172815
 0.008427911 0.008673792 0.008914674 0.009150785 0.009384045 0.009614471 0.009841816 0.01006652 0.01029214 0.01051833
 0.01074601 0.01097344 0.01119552 0.01141352 0.01162733 0.01183861 0.01205169 0.01226068 0.012462 0.01265085
 0.01281931 0.01297999 0.01313395 0.01330103 0.01348864 0.01370029 0.01393936 0.0141943 0.01446438 0.01473839
 0.01501551 0.01529039 0.01556313 0.01583568 0.01610917 0.01639309 0.01668748 0.0169994 0.0173241 0.01765458
 0.01798156 0.01828583 0.01855863 0.01877958 0.01894879 0.01905546 0.01911519 0.01913171 0.01912698 0.01911227
 0.01909563 0.01908348 0.01906761 0.01904723 0.01901693 0.01897523 0.01892789 0.01887512 0.01882449 0.01877635
 0.01873628 0.01870485 0.018689 0.01868905 0.01871065 0.01875267 0.01881548 0.01889678 0.01899351 0.0191013
 0.01921429 0.01932651 0.01943074 0.01952322 0.01959968 0.01965846 0.01969864 0.01971641 0.01971033 0.01967897
 0.01962092 0.0195425 0.0194443 0.01933121 0.01920375 0.01905854 0.01889557 0.01871438 0.01851601 0.01830853
 0.01809252 0.01787438 0.01765444 0.0174359 0.01722107 0.0170167 0.01682172 0.01664034 0.0164623 0.01628098
 0.01608479 0.01586355 0.01561475 0.01533365 0.01502584 0.01469063 0.0143397 0.01397387 0.01361024 0.01325127
 0.01290519 0.01257324 0.01224243 0.01191177 0.01156014 0.01118779 0.01078626 0.01035861 0.009912546 0.009452442
 0.008994209 0.008540649 0.008105917 0.00768682 0.00728636 0.006896656 0.006510642 0.006125706 0.005736767 0.005348453
 0.004961777 0.004579654 0.004203339 0.003833277 0.003469262 0.003114936 0.002770998 0.002437192 0.002113795 0.001791726
 0.001470747 0.001146924 0.0008218069 0.0005061939 0.000201598 -7.906309E-05 -0.0003367915 -0.0005677972 -0.0007736066 -0.0009552678
 -0.001114154 -0.00125167 -0.001371225 -0.0014757 -0.001569803 -0.001656795 -0.001741401 -0.001826058 -0.001915031 -0.002010837
 -0.002111835 -0.002219206 -0.002323502 -0.002423708 -0.002512915 -0.002590351 -0.002658159 -0.002716435 -0.002767271 -0.002810586
 -0.002845597 -0.00287374 -0.002900769 -0.002928704 -0.002968183 -0.003015664 -0.003071304 -0.003125991 -0.003166676 -0.003189426
 -0.00318298 -0.00315615 -0.003109535 -0.003057213 -0.003007 -0.002961737 -0.002926111 -0.002888191 -0.00284605 -0.002792244
 -0.002724034 -0.002654012 -0.002582669 -0.002527292 -0.002488164 -0.002463992 -0.002453454 -0.002444111 -0.002436572 -0.002427098
 -0.002417281 -0.002410282 -0.002405975 -0.002404664 -0.002408313 -0.002419134 -0.002440382 -0.002478445 -0.00252698 -0.002586828
 -0.002641482 -0.002683809 -0.002702806 -0.002692375 -0.00265381 -0.002585783 -0.002494473 -0.00237986 -0.002252516 -0.002112831
 -0.001978839 -0.001851422 -0.001746606 -0.001663645 -0.001604028 -0.001564617 -0.001532719 -0.001504284 -0.001460872 -0.001400619
 -0.001309213 -0.001191804 -0.00104698 -0.0008873353 -0.0007238471 -0.0005671544 -0.0004291866 -0.0003091608 -0.0002113984 -0.0001257855
 -5.07159E-05 2.454785E-05 0.0001028355 0.0001883766 0.000282788 0.0003808423 0.0004825566 0.0005761838 0.0006611969 0.000728737
 0.0007793492 0.0008134455 0.0008330148 0.0008470898 0.0008579444 0.0008770424 0.0009052332 0.0009502177 0.001010298 0.001086936
 0.001176495 0.001276367 0.001382656 0.001492173 0.001602092 0.001710349 0.001815698 0.00191757 0.002014422 0.002106006
 0.002190104 0.002265846 0.002336775 0.002402594 0.002478566 0.002565444 0.002678094 0.002814956 0.002969278 0.003136491
 0.003290292 0.003429851 0.003536921 0.003618065 0.003677539 0.003722301 0.003765347 0.003806729 0.003851291 0.003897133
 0.003942927 0.003992182 0.004045795 0.00410803 0.004181455 0.004263406 0.00435434 0.004447914 0.004543222 0.004637283
 0.004729783 0.004819017 0.004904961 0.004987863 0.005068813 0.005158082 0.005256808 0.005378464 0.005518126 0.005669732
 0.005823963 0.005956312 0.006067339 0.006143166 0.006199626 0.006246732 0.006299088 0.00637278 0.006464722 0.006579804
 0.006703342 0.006831296 0.006954818 0.007069977 0.007181088 0.007287872 0.007398302 0.007513337 0.007630887 0.007750709
 0.007862747 0.007967385 0.008063971 0.008154388 0.008248569 0.008345832 0.008449664 0.008557486 0.008664551 0.008771701
 0.008878646 0.008985093 0.009092745 0.00919449 0.009284834 0.009362707 0.009422926 0.009479548 0.009535946 0.009603032
 0.009685685 0.009777208 0.009877414 0.009979152 0.01008146 0.01018808 0.01029913 0.01041561 0.01053668 0.01065375
 0.0107665 0.01086844 0.01096079 0.01104395 0.01111915 0.01118933 0.0112548 0.01131829 0.01137681 0.0114289
 0.01147038 0.01149616 0.01150991 0.01151114 0.01150725 0.01150246 0.01149213 0.01147621 0.01144811 0.01140438
 0.0113642 0.01132806 0.01132842 0.0113665 0.01144679 0.01156659 0.0116998 0.01184452 0.01197687 0.01209909
 0.01220515 0.01229931 0.01238731 0.01247308 0.01256589 0.01266479 0.01277248 0.01288638 0.01300305 0.01312925
 0.01326722 0.01342304 0.01360393 0.01379011 0.0139808 0.01414542 0.01427745 0.01437635 0.01444037 0.01449475
 0.01454069 0.01459709 0.01466461 0.01475674 0.01487374 0.01502708 0.01521093 0.01541472 0.01562854 0.01582368
 0.01600002 0.01614314 0.01626142 0.01636002 0.01644037 0.01650564 0.0165539 0.01658334 0.01659906 0.01660274
 0.01659628 0.01658114 0.01655272 0.01650903 0.01645982 0.01640479 0.01637029 0.01635757 0.01638257 0.01644417
 0.01653644 0.01665701 0.01679024 0.01693551 0.01708116 0.01723129 0.01738944 0.01755864 0.01774941 0.01795029
 0.01815484 0.01834833 0.01851342 0.01865806 0.01877952 0.01889555 0.01901701 0.01912924 0.01923045 0.01930897
 0.01935784 0.01941725 0.01949073 0.01959926 0.01974336 0.01988089 0.02000811 0.02006586 0.02005954 0.01998472
 0.01985514 0.01971512 0.01957034 0.01945664 0.01936899 0.01931626 0.01928895 0.01927994 0.0192831 0.01929053
 0.01930341 0.01932321 0.01934067 0.01935817 0.01934388 0.01929008 0.01917921 0.01900281 0.01879415 0.0185539
 0.01833558 0.01814181 0.01799749 0.01790122 0.01784613 0.01782817 0.01782301 0.01782651 0.01780838 0.01777566
 0.01772429 0.01767478 0.01766337 0.01768648 0.01776471 0.01785645 0.01793252 0.01797939 0.01797516 0.01794675
 0.01790405 0.01784374 0.01776825 0.01766152 0.01751453 0.01737704 0.01725107 0.0172063 0.01724598 0.01735712
 0.01753393 0.01770267 0.01786126 0.01795803 0.01800117 0.01798696 0.01793309 0.0178758 0.01783193 0.01784879
 0.01791974 0.01806139 0.01824476 0.0184537 0.0186656 0.01886472 0.01903911 0.01918366 0.01928151 0.01932533
 0.01931897 0.01925717 0.01918666 0.01911073 0.01907271 0.01907482 0.01910821 0.01916995 0.01922126 0.01926113
 0.0192624 0.01923028 0.01916485 0.01907893 0.01900169 0.01894249 0.01893554 0.01896565 0.0190336 0.0191107
 0.01917144 0.01921067 0.01921634 0.01920023 0.01916544 0.01911431 0.01904629 0.0189714 0.01888897 0.01882498
 0.01878263 0.01876647 0.0187768 0.01879508 0.01882134 0.01885227 0.01888824 0.01893259 0.01897992 0.01901207
 0.01902655 0.0190067 0.01895743 0.01888122 0.01877718 0.01864346 0.01848475 0.01829623 0.01810875 0.01793774
 0.01780265 0.01772245 0.01766573 0.01762905 0.01758133 0.01751211 0.01744577 0.01738304 0.01735554 0.017365
 0.01738669 0.0174173 0.01740518 0.01735228 0.01724086 0.01708172 0.01690156 0.01671314 0.0165628 0.01644875
 0.01639591 0.01637781 0.01637525 0.01636399 0.01631373 0.01622944 0.01610447 0.01595231 0.01577949 0.01558142
 0.01535753 0.01510596 0.01482251 0.0145366 0.01424833 0.01401793 0.01384881</values></Ydata></AB><ScSm><Ydata ylabel="Single channel"><values byteorder="INTEL" format="FLOAT32" numvalues="1814"> 0.06856152 0.06856415 0.06862649 0.06877174 0.0689753 0.06917679 0.06931974 0.06938823 0.06939857 0.06936274
 0.06929159 0.06923538 0.06927446 0.06944247 0.06967722 0.0698612 0.06991211 0.06985331 0.06980425 0.06986532
 0.06998341 0.06996058 0.06964163 0.06909505 0.06857066 0.06826592 0.0681998 0.06836264 0.06884365 0.06959292
 0.07015021 0.06997423 0.06912369 0.06829171 0.06803302 0.0682302 0.06842159 0.06833911 0.06798702 0.0675301
 0.06734336 0.0679177 0.06937613 0.07106635 0.07178955 0.07055566 0.06729269 0.06307791 0.05974206 0.0588867
 0.06075622 0.06391169 0.06630919 0.06693035 0.06627607 0.06533822 0.06453098 0.06380828 0.06335036 0.06360979
 0.06468077 0.06586944 0.06605066 0.06463135 0.06225932 0.06036626 0.059862 0.06056271 0.06195854 0.06377172
 0.06517458 0.06433699 0.06022106 0.05486881 0.05250213 0.05551137 0.06190564 0.0672639 0.06867537 0.06637441
 0.06245225 0.05911343 0.05785303 0.0590643 0.06195893 0.06521854 0.06779602 0.06897996 0.06822593 0.06562114
 0.06234075 0.06008122 0.06002208 0.06236351 0.06628062 0.06999417 0.07157729 0.07037696 0.06745021 0.06444674
 0.06252196 0.06233004 0.06417874 0.06770982 0.07188612 0.07559523 0.07810231 0.07911547 0.07884359 0.07786876
 0.07670595 0.07571159 0.07538983 0.0760873 0.07717671 0.07728957 0.07580267 0.07366823 0.07243441 0.07264344
 0.07339607 0.07344751 0.07247117 0.07086338 0.06851062 0.06475732 0.05990507 0.05562338 0.05328025 0.05289388
 0.05412716 0.05683047 0.05986875 0.06103472 0.05946055 0.0571793 0.05711001 0.0599414 0.06376486 0.06640541
 0.06743638 0.0680462 0.0695017 0.07184944 0.07374445 0.073469 0.07063971 0.06716911 0.06591541 0.06787761
 0.07123299 0.07357779 0.07446286 0.07513495 0.0763565 0.0772246 0.07611003 0.07258914 0.06849132 0.06677557
 0.06895637 0.0735888 0.0773139 0.07734512 0.07334577 0.06751321 0.06286507 0.06114991 0.06236763 0.06590898
 0.07123415 0.07728145 0.08218671 0.08431818 0.08346349 0.08075038 0.07735693 0.07341676 0.06862709 0.06405909
 0.06238993 0.06537625 0.07161091 0.0776936 0.08126576 0.08219159 0.0812418 0.07864168 0.07428476 0.06913376
 0.06568713 0.06604426 0.06937827 0.07239549 0.07278278 0.07132314 0.07021013 0.07031134 0.0708351 0.07101045
 0.0711855 0.07222739 0.07428339 0.07644442 0.07762548 0.07755181 0.07681309 0.07617047 0.07586264 0.0754316
 0.0743716 0.07314202 0.07312162 0.07510412 0.07821049 0.08079001 0.08207583 0.08247212 0.08245772 0.08173685
 0.07966635 0.07646981 0.07373574 0.0732402 0.07522875 0.07826281 0.08071658 0.08194685 0.08214015 0.08172444
 0.08107939 0.08041312 0.0798236 0.07956383 0.07998092 0.08101939 0.08210365 0.08271218 0.08280571 0.08257456
 0.08206891 0.08126736 0.08033876 0.07965034 0.07950629 0.07991947 0.08065081 0.08142172 0.08201642 0.08224845
 0.08202577 0.08148724 0.08091984 0.08049971 0.08023337 0.08013678 0.08029344 0.08069173 0.08114651 0.08145469
 0.08155747 0.08151346 0.08138038 0.08117199 0.08090086 0.08062899 0.08046851 0.08050482 0.0806974 0.08090375
 0.08104365 0.08117872 0.08136676 0.08151236 0.08146562 0.08122873 0.08096704 0.0808287 0.08082558 0.08087999
 0.08091101 0.08084564 0.08060698 0.08018297 0.0797213 0.0794736 0.07959045 0.08001094 0.08056293 0.08109155
 0.08147919 0.08165871 0.08166581 0.08160567 0.08152987 0.08139764 0.08117422 0.0809253 0.08079845 0.08091165
 0.0812449 0.08164696 0.08196215 0.08213234 0.08218447 0.0821882 0.08223513 0.08237261 0.08252837 0.08257262
 0.08248028 0.08237173 0.08237143 0.08247039 0.08254845 0.08251415 0.08240708 0.08235551 0.0824381 0.08261193
 0.08278272 0.08291313 0.08304022 0.08319996 0.08335166 0.08339356 0.0832738 0.08307072 0.08292016 0.08287375
 0.08288387 0.08291931 0.08301781 0.08320133 0.08340111 0.08351498 0.08351967 0.08349085 0.08350737 0.08355822
 0.08356208 0.08346771 0.08331174 0.08317883 0.08312719 0.08315523 0.08321679 0.08325575 0.08323732 0.08316234
 0.08305797 0.08295293 0.08285986 0.08278646 0.08276202 0.08282998 0.08298908 0.08315054 0.08318831 0.08305213
 0.08282214 0.08263693 0.08256547 0.08255541 0.08250404 0.08236469 0.08217503 0.08199915 0.08186775 0.08177282
 0.08169471 0.08162462 0.081578 0.08159573 0.08170956 0.08188497 0.08201505 0.08200512 0.08186452 0.08169339
 0.08158499 0.08156128 0.08158945 0.0816287 0.08166628 0.08172728 0.08183752 0.08196691 0.08204085 0.08202563
 0.08197229 0.08196311 0.08204643 0.08222408 0.0824523 0.0826457 0.08273137 0.08272219 0.08270495 0.08274533
 0.08283459 0.0829348 0.08303707 0.08315589 0.08329391 0.08344182 0.08360596 0.08381341 0.08408311 0.08439718
 0.08470093 0.08493571 0.08508686 0.0852083 0.08538815 0.08567708 0.08604728 0.08642025 0.08673206 0.08697767
 0.08719959 0.08743502 0.08768252 0.0879302 0.08819884 0.08852513 0.08890688 0.08929771 0.08965966 0.08999572
 0.09032894 0.09067239 0.09102579 0.0913906 0.09178157 0.09221447 0.0926712 0.09308881 0.09340814 0.09363486
 0.0938395 0.09410189 0.09445804 0.09487429 0.09525787 0.09552522 0.09569021 0.09586126 0.09612289 0.09644483
 0.09674252 0.0970026 0.09729886 0.09768552 0.0981202 0.09851036 0.09881034 0.09905297 0.09929714 0.09956071
 0.09980707 0.09999397 0.1001288 0.1002631 0.1004355 0.1006458 0.1008947 0.1012125 0.1016145 0.1020517
 0.1024417 0.102739 0.1029526 0.1031136 0.1032536 0.1033959 0.1035425 0.1036813 0.1038158 0.103963
 0.1041127 0.1042262 0.1042969 0.1043767 0.1045198 0.1047319 0.1049966 0.1053145 0.1056787 0.1060411
 0.1063558 0.1066511 0.1070027 0.1074191 0.1078018 0.1080514 0.1081753 0.1082535 0.1083363 0.1084314
 0.1085651 0.1087885 0.1091154 0.1094992 0.1098842 0.1102509 0.1106047 0.1109441 0.1112512 0.111499
 0.1116666 0.1117576 0.1118091 0.1118815 0.1120308 0.1122753 0.1125798 0.1128792 0.1131217 0.1132855
 0.1133562 0.1133227 0.1132151 0.1131192 0.1131089 0.1131608 0.113162 0.1130048 0.1126564 0.1121423
 0.111495 0.1107419 0.1099276 0.1091274 0.1084284 0.1078981 0.1075735 0.1074784 0.1076366 0.1080494
 0.1086583 0.1093481 0.1099951 0.1104966 0.1107583 0.1106968 0.1102881 0.1096026 0.1087683 0.1079057
 0.1070963 0.1063734 0.1057191 0.105099 0.1045409 0.1041765 0.1041883 0.1047132 0.1057815 0.1073058
 0.1091008 0.1109352 0.112613 0.1140424 0.1152418 0.1162801 0.1172142 0.1180791 0.1189078 0.1197211
 0.1204998 0.1212019 0.1218164 0.1223735 0.1228997 0.1233852 0.1238008 0.1241249 0.124361 0.1245404
 0.1246986 0.1248349 0.1249136 0.1249168 0.1248741 0.1248215 0.1247496 0.1246065 0.124341 0.1239384
 0.1234409 0.1229622 0.1226888 0.122835 0.1235488 0.1248211 0.1264815 0.1282912 0.1300434 0.131593
 0.1328484 0.1337833 0.1344529 0.1349595 0.1353927 0.1358041 0.136218 0.136641 0.1370643 0.1374725
 0.1378567 0.1382237 0.1385932 0.1389809 0.1393761 0.1397453 0.1400695 0.140374 0.1407099 0.1411048
 0.1415332 0.1419421 0.142309 0.1426638 0.1430401 0.1434183 0.1437451 0.144005 0.1442415 0.1445108
 0.14484 0.1452236 0.1456274 0.1459964 0.1462896 0.1465172 0.1467286 0.1469642 0.1472295 0.1475112
 0.1478003 0.1480929 0.1483847 0.1486768 0.1489839 0.1493163 0.1496495 0.1499313 0.1501357 0.1502966
 0.1504764 0.1507068 0.1509682 0.1512214 0.1514534 0.1516933 0.1519821 0.1523225 0.152665 0.1529506
 0.1531615 0.15333 0.1535037 0.1537105 0.1539512 0.1542105 0.154471 0.1547208 0.154957 0.1551859
 0.1554181 0.1556603 0.1559132 0.1561723 0.15643 0.1566792 0.1569198 0.1571586 0.1574055 0.157672
 0.157968 0.1582864 0.1585965 0.1588665 0.1590896 0.1592816 0.1594598 0.1596374 0.1598303 0.1600505
 0.160294 0.1605452 0.1607929 0.1610362 0.1612753 0.1615061 0.1617263 0.1619425 0.162167 0.1624062
 0.1626575 0.1629169 0.1631822 0.1634469 0.1636994 0.1639349 0.1641603 0.1643868 0.1646202 0.1648573
 0.1650892 0.1653084 0.1655185 0.1657319 0.1659556 0.1661857 0.1664141 0.1666365 0.1668538 0.1670714
 0.1672943 0.1675214 0.1677466 0.1679688 0.1681942 0.1684284 0.1686692 0.1689089 0.1691403 0.1693619
 0.1695779 0.1697946 0.1700169 0.1702477 0.1704856 0.1707253 0.1709608 0.1711881 0.1714042 0.1716097
 0.1718112 0.1720177 0.1722319 0.1724521 0.1726771 0.1729059 0.1731359 0.1733649 0.1735924 0.173818
 0.1740434 0.1742742 0.1745133 0.1747568 0.1749973 0.1752301 0.1754568 0.1756864 0.1759282 0.17618
 0.1764303 0.1766724 0.1769086 0.1771404 0.1773653 0.1775814 0.1777911 0.1779995 0.1782092 0.1784157
 0.1786126 0.1788032 0.1790004 0.1792114 0.1794309 0.1796496 0.1798624 0.1800707 0.1802841 0.1805136
 0.1807586 0.1810064 0.181245 0.1814702 0.1816854 0.1819009 0.1821251 0.1823553 0.1825856 0.1828195
 0.1830618 0.1833049 0.1835383 0.1837629 0.1839872 0.1842178 0.1844563 0.1846976 0.1849337 0.1851636
 0.1853907 0.1856123 0.1858271 0.1860461 0.1862792 0.1865209 0.1867602 0.186994 0.187223 0.1874498
 0.1876785 0.1879075 0.1881313 0.1883532 0.1885812 0.1888117 0.1890388 0.1892694 0.1895089 0.1897492
 0.1899844 0.1902188 0.1904531 0.1906847 0.1909159 0.1911454 0.1913645 0.1915747 0.1917854 0.1919853
 0.1921246 0.1920783 0.1915492 0.1899554 0.1864118 0.1798995 0.1696676 0.1557029 0.1389001 0.1207476
 0.1027787 0.08617115 0.07162654 0.0594569 0.04973476 0.04239208 0.0372827 0.0342839 0.03339926 0.03486352
 0.03926141 0.04718247 0.05790422 0.06822017 0.07367989 0.07209469 0.06562719 0.0588234 0.05484125 0.05392282
 0.05473417 0.05612214 0.05771104 0.05970229 0.0624538 0.06606726 0.07036636 0.07533818 0.08135234 0.08868891
 0.09696714 0.105304 0.1130774 0.1204123 0.1278754 0.1357829 0.1438681 0.1515478 0.1583861 0.164305
 0.1694895 0.1741867 0.1785664 0.1827037 0.1866329 0.1903526 0.1937433 0.1965243 0.1983845 0.1992199
 0.1992571 0.1989325 0.1986318 0.1985319 0.1986427 0.1989273 0.1993605 0.1999261 0.2006091 0.2013873
 0.2022226 0.2030727 0.2039134 0.2047364 0.2055331 0.2062902 0.2069936 0.2076336 0.2082127 0.2087466
 0.2092468 0.2097088 0.2101265 0.2105086 0.2108715 0.2112262 0.2115744 0.2119089 0.2122155 0.2124843
 0.2127193 0.2129356 0.2131484 0.213366 0.2135868 0.2138053 0.2140208 0.2142385 0.2144593 0.2146782
 0.2148932 0.2151065 0.2153183 0.215528 0.2157384 0.2159506 0.2161565 0.21635 0.2165366 0.2167271
 0.2169245 0.2171247 0.2173236 0.2175181 0.2177061 0.2178918 0.2180865 0.2182992 0.218525 0.2187476
 0.2189575 0.219163 0.2193773 0.2196007 0.2198274 0.2200598 0.2203001 0.2205392 0.220767 0.220983
 0.2211858 0.221365 0.2215168 0.2216597 0.221824 0.2220281 0.2222625 0.2224981 0.2227138 0.2229139
 0.2231151 0.2233229 0.2235279 0.2237184 0.2238957 0.2240853 0.2243191 0.2245961 0.2248794 0.2251439
 0.2253976 0.2256501 0.2258963 0.226137 0.2263748 0.2265879 0.226747 0.2268697 0.2270291 0.227295
 0.2276636 0.228053 0.2283779 0.2286265 0.2288494 0.2290956 0.2293838 0.2296877 0.2299107 0.2299473
 0.2298408 0.2298173 0.2300819 0.2306181 0.2312377 0.231775 0.2321857 0.2325065 0.2327787 0.2330037
 0.2331433 0.2331674 0.2331245 0.2331658 0.2334474 0.2339703 0.2345591 0.2350369 0.2353677 0.2356035
 0.235788 0.2359467 0.2360485 0.2359505 0.2355493 0.2350588 0.2349587 0.2355298 0.2365334 0.2374631
 0.2380458 0.2383832 0.2386639 0.2389292 0.2391348 0.2391967 0.238869 0.237881 0.236465 0.2355111
 0.2358286 0.237326 0.2391596 0.2405769 0.2413922 0.241801 0.2420491 0.2422667 0.2423712 0.242081
 0.2412279 0.2401662 0.2396834 0.2402754 0.2415896 0.2428024 0.2434621 0.2437308 0.2439409 0.244221
 0.2444086 0.2440147 0.2425043 0.2400866 0.2381059 0.2380954 0.2402807 0.24331 0.2455927 0.2466661
 0.2470672 0.2471595 0.2465929 0.2449319 0.2423124 0.2393758 0.2370631 0.2364919 0.2382228 0.2413258
 0.2439013 0.2449531 0.2452354 0.2460056 0.2475214 0.2490392 0.2497828 0.2495489 0.248574 0.2471057
 0.2452849 0.2435455 0.2428527 0.2440177 0.2467138 0.2495918 0.2515283 0.25248 0.2528984 0.2524151
 0.2495725 0.2435765 0.2364939 0.232687 0.2349598 0.2416213 0.2483033 0.2522665 0.2539068 0.2546856
 0.2551684 0.2548813 0.2525966 0.2469928 0.2387294 0.2317671 0.2306984 0.236205 0.2442886 0.2500096
 0.2508581 0.2470189 0.2404824 0.2344517 0.2320398 0.2343843 0.2401462 0.2468336 0.2522988 0.2553336
 0.2556607 0.2538171 0.2511085 0.2492889 0.2492922 0.2498489 0.2484475 0.2445037 0.2403339 0.2377575
 0.2352843 0.2308756 0.2264256 0.226512 0.2324463 0.2400793 0.2444617 0.244857 0.2438521 0.242646
 0.2390038 0.2304788 0.219051 0.2112238 0.2123371 0.2210202 0.2304107 0.234871 0.2344693 0.2329696
 0.2328162 0.2326512 0.2292437 0.2217091 0.2136594 0.2101727 0.2123893 0.2164854 0.2182004 0.2162454
 0.2108187 0.2022245 0.1933055 0.1903319 0.1977114 0.2125857 0.2270714 0.2347582 0.2330558 0.2217696
 0.2039847 0.1879388 0.1830246 0.1913827 0.2052994 0.214301 0.2134712 0.2043337 0.1903699 0.1746284
 0.1611196 0.1552531 0.1605992 0.1752715 0.1919891 0.2016963 0.1985588 0.1844994 0.169591 0.1648039
 0.1720297 0.1827898 0.1877441 0.185168 0.1796115 0.1760142 0.1768447 0.1817181 0.1878203 0.1925339
 0.1955278 0.1958215 0.1889535 0.1723565 0.1525383 0.1408083 0.1415155 0.1498026 0.1606692 0.1734569
 0.1859675 0.1913884 0.1859846 0.1761986 0.1731741 0.1809294 0.1929168 0.2000265 0.1995972 0.1959018
 0.1935282 0.1924797 0.1904703 0.1882358 0.1897242 0.1966471 0.2054889 0.2114297 0.2133627 0.2134603
 0.2134884 0.2134714 0.2129418 0.2117401 0.2099324 0.2079289 0.2063604 0.2053613 0.2044448 0.2032391
 0.2014732 0.1978979 0.1905654 0.1796167 0.1690348 0.1635176 0.1635286 0.1655975 0.167455 0.1693641
 0.1693528 0.1618605 0.1450835 0.1270068 0.1196016 0.12727 0.1435732 0.1585547 0.1663332 0.1655955
 0.1566553 0.1417365 0.1274776 0.1228563 0.1318551 0.1496407 0.1677532 0.1813884 0.1899099 0.1928279
 0.1890243 0.1797492 0.1697657 0.1646276 0.1673189 0.1769391 0.1889821 0.1964655 0.1933355 0.1805052
 0.1685857 0.1700669 0.1861748 0.2047932 0.2140808 0.2144796 0.2139012 0.2154279 0.2157872 0.2140114
 0.2149063 0.222457 0.2339486 0.2426275 0.2436281 0.2359004 0.2215716 0.2064035 0.1982943 0.2009486
 0.2096522 0.2163818 0.217564 0.2136179 0.2042135 0.1902198 0.1787037 0.1786906 0.190705 0.2055677
 0.2148317 0.2184743 0.2210823 0.2239476 0.2235146 0.2167884 0.2063388 0.1987117 0.197953 0.2020707
 0.2064067 0.2085552 0.2084031 0.2053449 0.1986564 0.1906065 0.1864936 0.1900492 0.1995741 0.2095236
 0.2154639 0.2168493 0.2157135 0.2140363 0.2124072 0.2101941 0.2068867 0.2038334 0.2039719 0.208667
 0.2154962 0.220724 0.2235775 0.2264915 0.2312785 0.2366056 0.2395901 0.2389312 0.2361481 0.2342652
 0.2353918 0.2390459 0.2425054 0.2431305 0.2408757 0.2385692 0.2393094 0.2435135 0.24886 0.2529289
 0.255174 0.2564242 0.257467 0.2583688 0.2584298 0.2567106 0.2533689 0.2504603 0.2504875 0.2539123
 0.2587137 0.2624792 0.2643508 0.2648876 0.2647508 0.2640108 0.2625414 0.2606502 0.2590801 0.2584253
 0.2587086 0.2595441 0.2605324 0.2614273 0.2621086 0.2625653 0.2628636 0.2630637 0.2632002 0.2633306
 0.2635096 0.2637 0.2638113 0.2638654 0.2640309 0.2644246 0.2649404 0.2653473 0.2654966 0.2653472
 0.264849 0.2639434 0.2626827 0.2612223 0.2596487 0.2579265 0.2561224 0.2546461 0.2541277 0.2549504
 0.2568959 0.2592781 0.2614132 0.2629583 0.2639013 0.2643803 0.2645614 0.2645952 0.2645823 0.2645475
 0.2644636 0.2643042 0.2640709 0.2637807 0.2634524 0.2631184 0.262825 0.2626045 0.2624473 0.262308
 0.2621291 0.2618636 0.2615001 0.2610717 0.260621 0.2601452 0.2595896 0.2589002 0.2580752 0.2571668
 0.2562464 0.255367 0.2545406 0.2537393 0.2529235 0.2520638 0.2511232 0.250037 0.2487695 0.2474057
 0.2461279 0.2450597 0.2441624 0.243303 0.242378 0.2413454 0.2401952 0.2389397 0.2376151 0.2362565
 0.234876 0.2334712 0.2320393 0.230575 0.2290655 0.2275008 0.2258858 0.2242385 0.2225751 0.2208935
 0.2191559 0.2172773 0.2151392 0.2126255 0.2096419 0.206114 0.2020102 0.1973937 0.1924372 0.1873646
 0.182378 0.1776274 0.1732215 0.1692523 0.1658114 0.1629789 0.1608005 0.1592929 0.1584684 0.1583359
 0.1588815 0.160062 0.1618066 0.1640098 0.1665324 0.1692182 0.1719034 0.1744299 0.1766965 0.1787157
 0.1805945 0.1824313 0.1842313 0.1859292 0.1874736 0.1888632 0.1901025 0.1911678 0.1920389 0.1927348
 0.1932966 0.1937519 0.1941133 0.1943947 0.1946138 0.1947877 0.1949332 0.1950683 0.1952164 0.1954033
 0.1956435 0.195936 0.1962843 0.1967067 0.1972179 0.1978115 0.1984686 0.1991698 0.1999007 0.2006594
 0.2014565 0.2023077 0.2032382 0.2042924 0.2055132 0.2069085 0.2084506 0.2100983 0.2118005 0.2134857
 0.2150645 0.2164507 0.2175875 0.2184666 0.2191212 0.2195942 0.2199184 0.2201155 0.2201959 0.2201644
 0.2200368 0.2198388 0.2195805 0.2192477 0.2188263 0.2183212 0.217751 0.2171423 0.2165279 0.2159348
 0.2153717 0.2148311 0.2142983 0.213761 0.2132168 0.2126696 0.2121198 0.2115683 0.2110258 0.2104984
 0.2099662 0.2093888 0.2087296 0.2079714 0.2071152 0.2061671 0.2051227 0.2039723 0.2027199 0.2013855
 0.1999861 0.1985266 0.1970059 0.1954218 0.1937737 0.192064 0.1902801 0.1883881 0.1863737 0.1842898
 0.1822327 0.1802781 0.1784581 0.1767793 0.1752311 0.1737841 0.1724014 0.1710545 0.169733 0.1684502
 0.1672345 0.166102 0.1650437 0.1640404 0.163084 0.162187 0.1613792 0.1606873 0.160108 0.1596114
 0.159171 0.1587827 0.1584624 0.1582382 0.1581322 0.1581269 0.1581556 0.1581388 0.1580323 0.1578474
 0.1576352 0.1574436 0.1572848 0.157145 0.1570108 0.1568626 0.1566508 0.1562972 0.1557156 0.1548305
 0.1536044 0.1520635 0.1502896 0.1483946 0.1465115 0.1447771 0.1432878 0.1420777 0.1411394 0.1404372
 0.1399045 0.139471 0.1391125 0.1388636 0.1387801 0.1388676 0.1390309 0.1391209 0.1390775 0.1390056
 0.139083 0.1394138 0.1399775 0.1406664 0.1413487 0.1419331 0.1423908 0.1427208 0.1429216 0.1430055
 0.1429985 0.142913 0.142748 0.142509 0.1422059 0.1418454 0.1414342 0.140969 0.1404336 0.1398268
 0.1391692 0.1384631 0.1376857 0.1368178 0.1358341 0.1347022 0.1334722 0.1323461 0.1315897 0.1313763
 0.1317089 0.1324371 0.1333553 0.134329 0.1352752 0.1360082 0.1362896 0.1361925 0.1362835 0.137213
 0.1390949 0.1413881 0.143382 0.1446937 0.1453071 0.1453235 0.1448249 0.1438745 0.142479 0.1405918
 0.1382389 0.1355621 0.1326979 0.1297528 0.126898 0.124324 0.122122 0.1203077 0.1188807 0.1178786
 0.117418 0.1171374 0.1152413 0.109431 0.100452 0.09370546 0.09472734 0.1029602 0.1121195 0.1168422
 0.1169788 0.115384 0.1140095 0.113124 0.1126156 0.1126332 0.1133156 0.1145249 0.1158697 0.1169519
 0.1176308 0.1179741 0.1179469 0.1171828 0.1149543 0.1104328 0.1033536 0.09457947 0.08578883 0.07849386
 0.07338256 0.07034945 0.06880734 0.06802928 0.06752595 0.06726599 0.06753313 0.06858023 0.07042809 0.07293963
 0.07595866 0.07926078 0.08244326 0.08508953 0.08709525 0.08866876 0.089981 0.09097081 0.09150238 0.09155019
 0.09119941 0.09058105 0.08983569 0.08905998 0.08823988 0.08727078 0.08611792 0.08496775 0.0841255 0.0837189
 0.08359982 0.08356838 0.08355916 0.08357339 0.08357964 0.08354268 0.08346815 0.08341294 0.0834924 0.08380868
 0.08431882 0.08483941 0.08520833 0.08539748 0.08548068 0.08550816 0.08537924 0.08491068 0.08413589 0.08338951
 0.08288477 0.08235974 0.08143131 0.08020607 0.07924913 0.07896867 0.07924479 0.07964692 0.07983087 0.07971583
 0.07946418 0.07938892 0.07974155 0.08041945</values></Ydata></ScSm><ScRf><Ydata ylabel="Single channel"><values byteorder="INTEL" format="FLOAT32" numvalues="1820"> 0.06054229 0.0607044 0.06081203 0.06085904 0.06086486 0.06087434 0.06093749 0.06107567 0.06126494 0.06144999
 0.06157983 0.06163972 0.06164626 0.06161622 0.0615642 0.0615324 0.0615842 0.06174289 0.06195185 0.06210902
 0.06214564 0.06208771 0.06204492 0.06210467 0.06221288 0.06218784 0.06189367 0.06140035 0.06093662 0.06067483
 0.06062326 0.0607715 0.06120692 0.06189085 0.06240541 0.06225222 0.06147704 0.06070828 0.0604573 0.06062692
 0.06079989 0.06072573 0.06040101 0.05997528 0.05979397 0.06030572 0.06162185 0.0631514 0.06381202 0.06271193
 0.0597872 0.05600752 0.05301832 0.05225682 0.05394004 0.05677519 0.05892941 0.05949226 0.05891597 0.05808969
 0.05737878 0.05673272 0.05630965 0.05652427 0.05747581 0.05854817 0.05872493 0.05746335 0.05534 0.0536397
 0.05318067 0.05380241 0.05505216 0.05667792 0.05792776 0.05715827 0.05345317 0.0486622 0.04657266 0.0493091
 0.05506494 0.05986794 0.06111351 0.05902392 0.05549122 0.05250812 0.05141459 0.05253868 0.05514467 0.05804434
 0.0603167 0.06134392 0.06064691 0.05830728 0.05538097 0.05338498 0.05336389 0.05548225 0.05899294 0.06230472
 0.06370376 0.06261939 0.06000401 0.05732876 0.05561681 0.05544683 0.05709613 0.06025296 0.06399816 0.06733596
 0.06959743 0.0705111 0.0702668 0.06939631 0.06836461 0.06748533 0.06720334 0.06782536 0.06878702 0.06886499
 0.06751268 0.06559649 0.06450489 0.06471229 0.06540149 0.06545554 0.06458604 0.06314771 0.06103243 0.05765034
 0.05328012 0.04942933 0.04732904 0.04699811 0.04813926 0.05061521 0.05338851 0.05445886 0.0530479 0.05099596
 0.05093133 0.05346561 0.05687939 0.05922776 0.06014232 0.06069539 0.06201724 0.06414069 0.06585497 0.06561594
 0.06307658 0.05995689 0.05883286 0.06060696 0.06363757 0.06575995 0.06657255 0.06720011 0.06832469 0.06912395
 0.06812833 0.06496935 0.06131204 0.05981884 0.06182723 0.06601191 0.06934915 0.06935011 0.06573337 0.06049129
 0.05634168 0.05484706 0.05599835 0.05925311 0.06413376 0.0696763 0.07418224 0.07616764 0.07543816 0.07301454
 0.06996608 0.0664169 0.06209503 0.05797924 0.05651158 0.05929391 0.06504233 0.07065579 0.07398203 0.0748935
 0.07408883 0.07176942 0.06783549 0.06317228 0.06007881 0.06048486 0.06362381 0.066461 0.06687191 0.06558643
 0.06462948 0.06479671 0.06535016 0.06557692 0.06580999 0.06686556 0.06887938 0.07099168 0.07217811 0.072179
 0.07155268 0.07102267 0.0708169 0.07049935 0.06959156 0.06853479 0.06863342 0.0706217 0.07364923 0.07615557
 0.07743593 0.07789066 0.07797079 0.07737797 0.07548857 0.07251972 0.06999825 0.06962551 0.07163358 0.07464282
 0.07709587 0.07837684 0.07866503 0.07837023 0.07785448 0.07731674 0.07685274 0.07670522 0.07720359 0.07829337
 0.07942814 0.0801139 0.08031005 0.08018769 0.07978745 0.0790944 0.07828324 0.07771356 0.077674 0.07816952
 0.07896832 0.07980816 0.08048615 0.08081485 0.08068809 0.0802327 0.07973997 0.07940093 0.07922896 0.0792336
 0.07949002 0.07998492 0.08053409 0.08093199 0.08111565 0.08114499 0.08108693 0.0809629 0.08078143 0.08059455
 0.08051239 0.08062597 0.08089622 0.08117744 0.08139177 0.08160826 0.08188559 0.08211855 0.08214566 0.08196528
 0.08174874 0.08165524 0.08170513 0.08182164 0.0819191 0.08191936 0.08174206 0.08137313 0.08096123 0.08076501
 0.08094706 0.0814551 0.08211306 0.08274941 0.08322823 0.08347443 0.08352873 0.08350667 0.08346518 0.08336206
 0.08316317 0.08294348 0.08286122 0.08303617 0.08344331 0.08392641 0.0843225 0.08456001 0.08465662 0.08468989
 0.08476995 0.08495272 0.08515719 0.085242 0.08518234 0.08510566 0.08513508 0.08525039 0.08532687 0.08528702
 0.08519314 0.08518383 0.08532615 0.0855542 0.08575919 0.08590958 0.08606133 0.08626358 0.08647045 0.08656119
 0.08646677 0.08626417 0.08610322 0.08604932 0.08605632 0.08609042 0.0861965 0.08640608 0.08664474 0.08679222
 0.08681628 0.08679961 0.0868297 0.08689497 0.08690755 0.08680934 0.08663249 0.08646567 0.08638486 0.08641132
 0.08650657 0.08659559 0.08661228 0.08654113 0.08641921 0.08629572 0.08619665 0.08613767 0.08615874 0.08630767
 0.08656362 0.08679645 0.08684587 0.08666381 0.08637001 0.08614935 0.08608748 0.08610912 0.08607222 0.08590635
 0.08565446 0.08540557 0.08521508 0.08508393 0.08498416 0.08489472 0.08483064 0.08484298 0.08496469 0.0851385
 0.08522522 0.08512177 0.08486526 0.08459391 0.08441682 0.08434708 0.0843367 0.08433475 0.08432509 0.08433878
 0.0844111 0.0845091 0.08454148 0.08446561 0.08434491 0.08428182 0.08433517 0.08450496 0.08473362 0.08490954
 0.08493728 0.08483532 0.08472295 0.08469547 0.08474953 0.08483355 0.0849214 0.08501492 0.08511123 0.08520377
 0.08530724 0.08545695 0.08567517 0.08594148 0.08619764 0.08638598 0.08649679 0.08658673 0.08674143 0.08700484
 0.08734023 0.08766228 0.08790955 0.08808878 0.08825127 0.08843126 0.08862071 0.08880977 0.08902672 0.08930847
 0.08964443 0.08998279 0.09028944 0.090573 0.09085461 0.0911394 0.09142376 0.09171882 0.09205785 0.09246734
 0.09291755 0.09331682 0.09358361 0.09372623 0.09383945 0.09403006 0.09434494 0.09473662 0.09508306 0.09528156
 0.09535576 0.09544145 0.09563833 0.09591019 0.09616636 0.09640472 0.09671424 0.09714192 0.09761056 0.09798869
 0.0982177 0.09835412 0.09849766 0.0986893 0.09888289 0.09901543 0.09909123 0.09917352 0.09930214 0.0994647
 0.0996604 0.09993808 0.1003285 0.1007734 0.1011669 0.1014527 0.101647 0.1017885 0.1018995 0.1019824
 0.1020286 0.1020423 0.102062 0.1021322 0.1022426 0.1023306 0.1023619 0.1023786 0.1024486 0.1025991
 0.1028202 0.1030995 0.1034165 0.1037248 0.1039924 0.1042557 0.1045823 0.1049611 0.1052788 0.1054411
 0.1054792 0.1054928 0.105528 0.1055696 0.1056298 0.1057674 0.1060121 0.1063265 0.1066586 0.1069953
 0.1073478 0.1077092 0.1080389 0.1082815 0.1084013 0.1084137 0.1083861 0.1084052 0.1085329 0.1087777
 0.1090944 0.1094155 0.1096893 0.1098878 0.1099869 0.1099742 0.1098969 0.1098681 0.1099756 0.1101824
 0.1103455 0.1103382 0.1101309 0.1097589 0.1092527 0.1086293 0.1079328 0.1072522 0.106684 0.1062836
 0.1060619 0.1060295 0.1062238 0.1066674 0.1073034 0.108005 0.1086531 0.109173 0.1094909 0.1095123
 0.109191 0.1085951 0.1078686 0.1071385 0.1064711 0.105875 0.1053122 0.1047426 0.1042076 0.1038663
 0.103916 0.1044711 0.1055118 0.1069049 0.1084449 0.1099087 0.1111403 0.112114 0.1129099 0.1136211
 0.1142927 0.1149423 0.115597 0.11627 0.1169214 0.1174866 0.1179488 0.1183533 0.118749 0.119141
 0.1194995 0.1197929 0.1200198 0.1202181 0.1204248 0.1206186 0.1207291 0.1207195 0.1206285 0.1205151
 0.1203893 0.1202141 0.1199479 0.1195758 0.1191333 0.1187314 0.1185476 0.1187534 0.1194148 0.1204507
 0.1216951 0.123003 0.1242859 0.1254615 0.1264258 0.1271129 0.1275583 0.1278695 0.1281439 0.1284265
 0.1287236 0.1290258 0.1293223 0.1296105 0.129895 0.1301832 0.1304868 0.130815 0.1311528 0.1314606
 0.1317139 0.1319403 0.132202 0.1325364 0.1329193 0.1332917 0.1336231 0.1339373 0.1342635 0.13458
 0.1348346 0.1350164 0.1351757 0.1353762 0.1356518 0.1360002 0.1363812 0.1367259 0.1369831 0.1371659
 0.1373312 0.137519 0.1377309 0.1379572 0.1381975 0.1384507 0.1387098 0.1389759 0.1392652 0.1395838
 0.1398976 0.1401482 0.1403105 0.1404237 0.1405554 0.1407399 0.1409594 0.1411789 0.1413883 0.1416117
 0.1418783 0.1421862 0.1424931 0.142749 0.1429366 0.14308 0.1432194 0.1433804 0.1435671 0.1437714
 0.1439817 0.1441855 0.1443764 0.1445646 0.1447704 0.1449995 0.1452329 0.1454476 0.1456412 0.145829
 0.1460241 0.1462291 0.1464463 0.1466871 0.1469616 0.1472587 0.1475418 0.1477764 0.1479564 0.1481011
 0.1482324 0.1483649 0.1485115 0.1486839 0.1488838 0.1490983 0.1493082 0.1495038 0.1496921 0.1498861
 0.1500909 0.1503025 0.1505163 0.1507302 0.1509448 0.1511652 0.1513974 0.1516391 0.151877 0.1520968
 0.1522934 0.1524731 0.1526493 0.1528323 0.1530202 0.1532056 0.1533904 0.1535836 0.1537851 0.1539848
 0.1541779 0.1543703 0.1545674 0.1547667 0.1549624 0.1551533 0.1553442 0.1555416 0.1557476 0.1559565
 0.1561587 0.1563478 0.156526 0.1567028 0.1568877 0.1570842 0.1572889 0.1574959 0.1577002 0.1579005
 0.1580984 0.1582944 0.1584851 0.1586708 0.1588608 0.1590648 0.1592804 0.1594959 0.1597026 0.1598999
 0.1600929 0.1602866 0.1604813 0.160673 0.1608631 0.1610595 0.1612678 0.1614847 0.1617036 0.1619194
 0.1621298 0.1623385 0.1625539 0.1627802 0.1630128 0.1632441 0.1634701 0.16369 0.1639031 0.1641082
 0.1643017 0.1644814 0.1646492 0.1648099 0.1649681 0.1651295 0.1652996 0.1654794 0.1656677 0.1658639
 0.1660653 0.1662651 0.1664599 0.1666539 0.1668511 0.1670522 0.1672566 0.1674633 0.1676718 0.1678832
 0.1680956 0.1683001 0.1684913 0.1686784 0.168874 0.1690806 0.1692937 0.1695103 0.1697281 0.1699462
 0.1701679 0.1703937 0.1706179 0.1708374 0.1710536 0.1712643 0.1714653 0.1716597 0.1718553 0.1720562
 0.1722637 0.1724761 0.1726871 0.1728932 0.1730996 0.1733086 0.1735146 0.1737173 0.1739231 0.1741346
 0.1743513 0.1745766 0.174808 0.175034 0.1752487 0.1754565 0.1756605 0.1758631 0.1760704 0.1762831
 0.1764964 0.176711 0.1769258 0.1771182 0.1772387 0.1771804 0.1766783 0.1751975 0.171916 0.1658884
 0.1564188 0.1434935 0.1279401 0.1111406 0.0945226 0.07917818 0.06575048 0.05452082 0.04555367 0.03878547
 0.03407856 0.03131454 0.03049368 0.03183676 0.03589503 0.04322125 0.05314249 0.06268129 0.06771728 0.06623596
 0.06025286 0.05397874 0.05032413 0.04949373 0.05024179 0.05150654 0.05295676 0.05479248 0.0573457 0.06070062
 0.06468718 0.06929868 0.07488593 0.08170612 0.08939517 0.09712587 0.1043198 0.1110963 0.1179916 0.1253129
 0.1328185 0.1399607 0.146323 0.1518251 0.1566347 0.1609816 0.1650281 0.1688522 0.1724933 0.1759521
 0.1791106 0.1816999 0.183433 0.1842228 0.1842832 0.1840088 0.1837451 0.183653 0.1837479 0.1840055
 0.1844119 0.1849539 0.185611 0.1863559 0.1871538 0.1879705 0.1887818 0.1895714 0.1903258 0.1910371
 0.191703 0.1923185 0.1928776 0.1933818 0.1938402 0.1942611 0.1946507 0.1950143 0.1953579 0.1956903
 0.1960188 0.1963369 0.1966275 0.1968837 0.1971171 0.1973427 0.1975667 0.1977884 0.1980056 0.198217
 0.198426 0.1986386 0.1988561 0.1990742 0.1992901 0.1995036 0.1997142 0.1999215 0.2001245 0.2003193
 0.2005033 0.2006816 0.2008647 0.2010575 0.2012579 0.201461 0.2016605 0.2018507 0.2020325 0.2022153
 0.2024086 0.2026135 0.2028229 0.2030275 0.203225 0.2034238 0.2036319 0.2038449 0.2040537 0.2042594
 0.2044685 0.2046794 0.2048871 0.2050921 0.2052956 0.2054879 0.2056584 0.2058153 0.2059871 0.2061979
 0.2064405 0.2066803 0.2068916 0.2070807 0.2072701 0.2074697 0.2076687 0.2078489 0.2080067 0.2081682
 0.2083711 0.2086212 0.2088863 0.2091398 0.2093838 0.2096244 0.2098581 0.2100883 0.2103187 0.210528
 0.210685 0.2108005 0.2109432 0.2111845 0.2115299 0.211908 0.2122384 0.2125017 0.212732 0.212967
 0.2132275 0.2135009 0.2137075 0.2137503 0.2136638 0.213654 0.2139108 0.2144158 0.2149884 0.2154765
 0.2158523 0.2161607 0.216434 0.2166545 0.2167755 0.2167782 0.2167303 0.2167853 0.2170786 0.2175899
 0.2181443 0.2185821 0.2188812 0.2190983 0.2192785 0.2194453 0.2195644 0.2194927 0.2191273 0.2186706
 0.2185783 0.2191178 0.2200661 0.2209489 0.2215086 0.2218352 0.2221042 0.2223603 0.2225656 0.2226351
 0.2223331 0.2214119 0.2200977 0.2192216 0.2195315 0.2209397 0.2226662 0.2240163 0.2248122 0.2252223
 0.2254665 0.2256703 0.2257665 0.2255006 0.22472 0.2237525 0.2233221 0.223883 0.2251123 0.2262557
 0.226896 0.2271734 0.2273866 0.2276549 0.2278354 0.2274783 0.2260824 0.2238402 0.2220103 0.2220307
 0.2241092 0.2269688 0.2291106 0.2301041 0.2304658 0.2305501 0.2300351 0.2285094 0.2260913 0.2233714
 0.2212277 0.220712 0.222354 0.2252802 0.2277083 0.2287112 0.229002 0.2297576 0.2312132 0.2326674
 0.2333895 0.2331868 0.2322868 0.2309336 0.2292668 0.2276905 0.2270967 0.2282288 0.2307741 0.2334816
 0.2353179 0.2362467 0.2366782 0.2362546 0.2336077 0.2280004 0.2213785 0.217833 0.2199917 0.2262746
 0.2325935 0.2363705 0.2379529 0.2387003 0.2391556 0.2388903 0.2367533 0.2315008 0.2237571 0.2172523
 0.2163035 0.2215443 0.2292063 0.2346362 0.2354639 0.2318589 0.2257048 0.2200396 0.2178092 0.2200802
 0.2255755 0.2319342 0.2371278 0.2400209 0.2403598 0.2386559 0.2361434 0.2344785 0.2345383 0.2351169
 0.233844 0.2301796 0.2263201 0.2239774 0.2217261 0.2176258 0.2134701 0.2136107 0.2193102 0.2266402
 0.2308963 0.2313709 0.2305166 0.2294644 0.2260796 0.2180373 0.2072358 0.1998734 0.2010261 0.2093773
 0.2183986 0.2227468 0.2225053 0.2212507 0.2212858 0.2212955 0.2181919 0.21114 0.2036072 0.2004532
 0.2027588 0.2068603 0.208688 0.2070061 0.2019843 0.1939074 0.1855276 0.1828934 0.190245 0.204829
 0.21906 0.2267599 0.2254 0.2147477 0.1977783 0.1825152 0.1781172 0.1866649 0.2006273 0.2097882
 0.2093492 0.2007828 0.1874736 0.1724142 0.1595942 0.1544283 0.1605251 0.1760315 0.1936309 0.2041473
 0.2016171 0.187963 0.1734653 0.1693634 0.177591 0.189408 0.1951805 0.1931256 0.1879511 0.1848162
 0.1863603 0.1922064 0.1993541 0.2050076 0.2088077 0.2096536 0.2026874 0.1851279 0.1640063 0.1515388
 0.1524426 0.161512 0.1733797 0.1873418 0.2010031 0.2069659 0.2011654 0.190566 0.1872367 0.19554
 0.2083981 0.2159567 0.2153406 0.2111882 0.2084913 0.2072806 0.2050945 0.2027214 0.2044201 0.2120441
 0.2218097 0.2285195 0.230969 0.2314906 0.2319911 0.2325 0.2325014 0.2318032 0.2304653 0.2289364
 0.227919 0.2275776 0.2273801 0.2268986 0.2257999 0.2226377 0.2151587 0.2034734 0.1920828 0.1863187
 0.1866912 0.1892514 0.1914618 0.193676 0.1936597 0.1850503 0.1657595 0.1448668 0.1360123 0.1442163
 0.1621441 0.1784705 0.1865562 0.185012 0.1743135 0.1570108 0.1404377 0.1344133 0.1432312 0.1615403
 0.1800682 0.1936123 0.2016207 0.2037546 0.1989157 0.1884168 0.1772529 0.17124 0.173465 0.1829263
 0.194882 0.2020867 0.1983336 0.1846162 0.1718444 0.172805 0.1887548 0.2073302 0.2164434 0.216527
 0.215639 0.2169394 0.217115 0.2151653 0.2159422 0.2234918 0.2351056 0.2439915 0.2452375 0.2377559
 0.2236682 0.2088043 0.2011773 0.2045196 0.2139737 0.2213186 0.2228963 0.2191362 0.2097114 0.1955586
 0.1839967 0.1843278 0.1970625 0.212712 0.2225697 0.2266356 0.2296545 0.2329437 0.2327999 0.2261169
 0.2155836 0.2080291 0.2076761 0.2124552 0.2175181 0.2203522 0.2208006 0.21816 0.2116243 0.2035976
 0.1997173 0.2039496 0.2144622 0.2253113 0.2317324 0.2331122 0.2316059 0.2293392 0.2269794 0.2238969
 0.2195755 0.2154508 0.2146369 0.2186009 0.2248285 0.2294084 0.2315113 0.2336682 0.2377946 0.2425532
 0.2449814 0.2437252 0.2403281 0.2378793 0.2385255 0.2417668 0.2448414 0.2450898 0.2424821 0.2398779
 0.240393 0.2444332 0.2496518 0.2536149 0.2557809 0.2569888 0.2580251 0.2589336 0.2589798 0.2572048
 0.2537787 0.2507869 0.2507526 0.2541378 0.2589055 0.2626244 0.2644357 0.2649255 0.2647885 0.2641047
 0.2627192 0.2608943 0.2593463 0.2586799 0.258944 0.2597646 0.2607379 0.2616156 0.2622845 0.2627391
 0.2630424 0.2632423 0.2633533 0.2634137 0.2634726 0.263507 0.2634501 0.2633378 0.2633345 0.2635479
 0.2638813 0.264132 0.2641712 0.2639495 0.263392 0.262427 0.261119 0.2596506 0.2581228 0.2564855
 0.2547753 0.2533832 0.252942 0.2538452 0.2558776 0.2583473 0.2605602 0.2621655 0.2631456 0.2636392
 0.2638243 0.2638686 0.2638748 0.2638474 0.2637382 0.2635231 0.2632239 0.2628738 0.2624883 0.2620824
 0.2616932 0.2613626 0.2610925 0.2608302 0.2605065 0.260084 0.2595764 0.2590309 0.2584878 0.2579398
 0.2573296 0.256594 0.2557161 0.2547429 0.253763 0.2528593 0.252056 0.2513057 0.2505404 0.2497256
 0.248847 0.2478711 0.2467756 0.2456231 0.2445545 0.2436757 0.2429694 0.2423297 0.2416567 0.2409002
 0.2400447 0.2390971 0.238085 0.237039 0.2359669 0.234853 0.233676 0.2324182 0.2310676 0.2296216
 0.228088 0.2264845 0.2248437 0.2232011 0.2215519 0.2198156 0.2178548 0.2155291 0.2127271 0.2093725
 0.2054389 0.2009839 0.196165 0.1912028 0.1863095 0.1816425 0.1773144 0.1734254 0.1700713 0.167329
 0.1652482 0.1638524 0.1631462 0.1631297 0.1638071 0.165166 0.1671448 0.1696232 0.1724435 0.1754374
 0.1784385 0.1812966 0.1839143 0.1862871 0.1884847 0.190566 0.1925195 0.1943011 0.195902 0.1973424
 0.1986175 0.1996938 0.2005578 0.2012422 0.2018004 0.2022734 0.2026836 0.203045 0.2033671 0.2036509
 0.2038927 0.2040973 0.2042823 0.204467 0.2046629 0.2048789 0.2051262 0.2054198 0.2057749 0.2061984
 0.206682 0.2072133 0.2077903 0.2084128 0.2090663 0.2097337 0.210428 0.211202 0.212121 0.213223
 0.2144938 0.2158692 0.2172602 0.2185786 0.21975 0.2207201 0.2214605 0.2219659 0.2222503 0.2223458
 0.2222935 0.2221227 0.2218468 0.2214774 0.2210301 0.2205162 0.2199406 0.2193093 0.2186318 0.2179198
 0.2171884 0.2164583 0.2157504 0.2150772 0.2144343 0.213804 0.2131733 0.2125459 0.211932 0.2113328
 0.2107449 0.2101692 0.2096041 0.2090385 0.208459 0.2078567 0.2072169 0.206509 0.2057033 0.204795
 0.2037979 0.2027153 0.2015318 0.2002408 0.1988611 0.1974169 0.1959132 0.1943423 0.1927019 0.1909878
 0.1891779 0.1872487 0.185218 0.1831611 0.1811742 0.1793221 0.1776195 0.1760466 0.1745709 0.1731632
 0.1718085 0.170508 0.1692713 0.1681063 0.1670121 0.1659777 0.1649891 0.1640413 0.1631427 0.1623133
 0.1615764 0.1609437 0.1604009 0.1599196 0.159487 0.159116 0.1588332 0.1586674 0.1586336 0.1587056
 0.15881 0.1588641 0.1588206 0.1586883 0.1585231 0.1583926 0.1583267 0.1583005 0.1582652 0.1581786
 0.1580005 0.1576732 0.157118 0.1562577 0.1550592 0.1535551 0.1518251 0.1499739 0.1481313 0.1464338
 0.1449805 0.1438187 0.1429545 0.1423399 0.141875 0.1414764 0.1411434 0.1409416 0.1409303 0.1410985
 0.1413363 0.1414957 0.1415237 0.1415249 0.1416699 0.142065 0.1427008 0.1434708 0.1442354 0.1449004
 0.1454354 0.1458278 0.1460714 0.1461959 0.1462432 0.1462205 0.1461184 0.1459457 0.1457127 0.1454163
 0.1450556 0.1446285 0.1441222 0.1435383 0.1428931 0.1421814 0.1413829 0.1404876 0.1394661 0.1382787
 0.1369978 0.1358647 0.1351561 0.1350212 0.1354377 0.1362457 0.1372432 0.1383043 0.139347 0.140177
 0.1405569 0.1405699 0.1407785 0.1418193 0.1438071 0.14621 0.1483169 0.1497493 0.1505017 0.1506591
 0.1502646 0.1493642 0.1479746 0.1460524 0.143624 0.1408436 0.1378569 0.1347715 0.1317767 0.1290976
 0.1268435 0.1250227 0.1236175 0.1226566 0.1222669 0.1220812 0.1202116 0.1142302 0.1049133 0.09791861
 0.09902883 0.1076613 0.1172793 0.1222938 0.1225028 0.1208346 0.1193344 0.1183328 0.1177501 0.1177484
 0.1184602 0.1197296 0.1211456 0.1222812 0.122955 0.123217 0.1230618 0.1221614 0.1197843 0.1150596
 0.1076837 0.0985295 0.0893518 0.08175665 0.07646196 0.07332252 0.07171132 0.07088545 0.07033533 0.07002081
 0.07026377 0.07136478 0.07334055 0.07600839 0.0791738 0.08260067 0.0858987 0.08867438 0.09083013 0.09255758
 0.09400681 0.09509631 0.09566653 0.09569176 0.09529634 0.09465037 0.09389434 0.09309976 0.09223241 0.09118748
 0.08995664 0.08876072 0.08790942 0.08750471 0.08737956 0.08733155 0.08729534 0.08728015 0.08727113 0.08723542
 0.08716728 0.08712323 0.0872239 0.08756177 0.08807968 0.08858734 0.08891486 0.08903772 0.08906176 0.08906083
 0.08891048 0.08839633 0.08756761 0.08679283 0.08627657 0.08571161 0.08469012 0.0833475 0.08230665 0.08200344
 0.08228794 0.08268182 0.08282332 0.08263791 0.08229314 0.08211282 0.08237614 0.08301394 0.08357204 0.08363056
</values></Ydata></ScRf><Data_Parameters_AB><parameter name="DPF">1</parameter><parameter name="NPT">3497</parameter><parameter name="FXV">3996</parameter><parameter name="LXV">500</parameter><parameter name="CSF">1</parameter><parameter name="MXY">0.0582608878612518</parameter><parameter name="MNY">-0.0521556958556175</parameter><parameter name="DAT">02/06/2022</parameter><parameter name="TIM">11:40:55.594 (GMT+2)</parameter><parameter name="DXU">WN</parameter></Data_Parameters_AB><AB__Qtest><MainReport name="Quality Test Report"><Header><Line><Legend>Test result ok/not ok [1/0]: </Legend><Value>0</Value></Line><Line><Legend>Method file: </Legend><Value>C:\Users\Public\Documents\Bruker\OPUS_8.2.28\QT\IRBT_v3_default.QT</Value></Line></Header><Matrix><Line><Legend></Legend><Legend>min</Legend><Legend>max</Legend><Legend>measured</Legend></Line><Line><Value>Absorption (X-Range 1):</Value><Value>0.400000</Value><Value>2.000000</Value><Value>0.070629</Value></Line><Line><Value>Noise (X-Range 4):</Value><Value></Value><Value>0.000300</Value><Value>0.000038</Value></Line><Line><Value>Signal/Noise (X-Range 2):</Value><Value>200.000000</Value><Value></Value><Value>31.723773</Value></Line><Line><Value>Signal/Noise (X-Range 3):</Value><Value>40.000000</Value><Value></Value><Value>20.138602</Value></Line><Line><Value>Water vapour (X-Range 5):</Value><Value></Value><Value>0.000300</Value><Value>0.000046</Value></Line><Line><Value>Signal/Water (X-Range 2):</Value><Value>100.000000</Value><Value></Value><Value>25.771564</Value></Line><Line><Value>Signal/Water (X-Range 3):</Value><Value>20.000000</Value><Value></Value><Value>16.360074</Value></Line><Line><Value>Fringes (X-Range 6):</Value><Value></Value><Value>0.000100</Value><Value>0.000039</Value></Line></Matrix></MainReport></AB__Qtest><Data_Parameters_ScSm><parameter name="DPF">1</parameter><parameter name="NPT">1814</parameter><parameter name="FXV">3996.33169228125</parameter><parameter name="LXV">499.541461535156</parameter><parameter name="CSF">1</parameter><parameter name="MXY">0.265496611595154</parameter><parameter name="MNY">0.0333992578089237</parameter><parameter name="DAT">02/06/2022</parameter><parameter name="TIM">11:40:55.594 (GMT+2)</parameter><parameter name="DXU">WN</parameter></Data_Parameters_ScSm><Data_Parameters_ScRf><parameter name="DPF">1</parameter><parameter name="NPT">1820</parameter><parameter name="FXV">4004.04661832813</parameter><parameter name="LXV">495.683998511719</parameter><parameter name="CSF">1</parameter><parameter name="MXY">0.264925479888916</parameter><parameter name="MNY">0.0304936803877354</parameter><parameter name="DAT">02/06/2022</parameter><parameter name="TIM">11:40:29.742 (GMT+2)</parameter><parameter name="DXU">WN</parameter></Data_Parameters_ScRf><Optic_Parameters_Rf><parameter name="APR">0</parameter><parameter name="APT">Open</parameter><parameter name="BMS">KBr</parameter><parameter name="DTC">RT-DLaTGS_IR-Biotyper [Microplate reader]</parameter><parameter name="HPF">0</parameter><parameter name="LPF">10.0</parameter><parameter name="LPV">4000</parameter><parameter name="PGR">0</parameter><parameter name="RCH">Module port</parameter><parameter name="RDX">0</parameter><parameter name="SRC">MIR</parameter><parameter name="VEL">10.0</parameter><parameter name="SON">Off</parameter></Optic_Parameters_Rf><Acquisition_Parameters_Rf><parameter name="ADT">1</parameter><parameter name="AQM">DD</parameter><parameter name="CFE">0</parameter><parameter name="COR">0</parameter><parameter name="DEL">0</parameter><parameter name="DLY">0</parameter><parameter name="HFW">8000</parameter><parameter name="LFW">0</parameter><parameter name="NSR">32</parameter><parameter name="PLF">AB</parameter><parameter name="RES">6</parameter><parameter name="RGN">-1</parameter><parameter name="STR">0</parameter><parameter name="TCL">MakeCompatibleScalar (0, {WSV=1.000000, ARV=0});</parameter><parameter name="TDL">37</parameter><parameter name="RPO">0</parameter></Acquisition_Parameters_Rf><FT_-_Parameters_Rf><parameter name="APF">B3</parameter><parameter name="HFQ">500</parameter><parameter name="LFQ">4000</parameter><parameter name="NLI">0</parameter><parameter name="PHR">24</parameter><parameter name="PHZ">ML</parameter><parameter name="SPZ">NO</parameter><parameter name="ZFF">1</parameter></FT_-_Parameters_Rf><Optic_Parameters_><parameter name="APR">0</parameter><parameter name="APT">Open</parameter><parameter name="BMS">KBr</parameter><parameter name="CHN">Module port</parameter><parameter name="DTC">RT-DLaTGS_IR-Biotyper [Microplate reader]</parameter><parameter name="HPF">0</parameter><parameter name="LPF">10.0</parameter><parameter name="LPV">4000</parameter><parameter name="PGN">0</parameter><parameter name="RDX">0</parameter><parameter name="SRC">MIR</parameter><parameter name="VEL">10.0</parameter><parameter name="SON">Off</parameter></Optic_Parameters_><FT_-_Parameters_><parameter name="APF">B3</parameter><parameter name="HFQ">500</parameter><parameter name="LFQ">4000</parameter><parameter name="NLI">0</parameter><parameter name="PHR">24</parameter><parameter name="PHZ">ML</parameter><parameter name="SPZ">NO</parameter><parameter name="ZFF">1</parameter></FT_-_Parameters_><Acquisition_Parameters_><parameter name="ADT">1</parameter><parameter name="AQM">DD</parameter><parameter name="CFE">0</parameter><parameter name="COR">0</parameter><parameter name="DEL">0</parameter><parameter name="DLY">0</parameter><parameter name="HFW">8000</parameter><parameter name="LFW">0</parameter><parameter name="NSS">32</parameter><parameter name="PLF">AB</parameter><parameter name="RES">6</parameter><parameter name="SOT">0</parameter><parameter name="TCL">MakeCompatibleScalar (0, {WSV=1.000000, ARV=0});</parameter><parameter name="TDL">37</parameter><parameter name="SPO">0</parameter><parameter name="SGN">-1</parameter></Acquisition_Parameters_><Instrument_Parameters_Rf><parameter name="HFL">15800.168544</parameter><parameter name="LFL">0</parameter><parameter name="LWN">15800.168544</parameter><parameter name="ABP">32197</parameter><parameter name="SSP">1</parameter><parameter name="ARG">2</parameter><parameter name="ASG">2</parameter><parameter name="ASS">32</parameter><parameter name="GFW">16</parameter><parameter name="GBW">16</parameter><parameter name="BFW">0</parameter><parameter name="BBW">0</parameter><parameter name="PKA">7268</parameter><parameter name="PKL">4996</parameter><parameter name="PRA">7448</parameter><parameter name="PRL">5001</parameter><parameter name="P2A">1</parameter><parameter name="P2L">1</parameter><parameter name="P2R">1</parameter><parameter name="P2K">1</parameter><parameter name="DAQ">0</parameter><parameter name="AG2">1</parameter><parameter name="SSM">1</parameter><parameter name="RSN">26079</parameter><parameter name="CRR">0</parameter><parameter name="SRT">1654170029.742</parameter><parameter name="DUR">19.6379852294922</parameter><parameter name="TSC">28.8</parameter><parameter name="MVD">0.222411185503006</parameter><parameter name="AN1">0.225788381306028</parameter><parameter name="AN2">0</parameter><parameter name="VSN">2.485 Apr  4 2017</parameter><parameter name="SRN">0085</parameter><parameter name="CAM">0</parameter><parameter name="INS">IR-Biotyper</parameter><parameter name="FOC">69</parameter><parameter name="RDY">1</parameter><parameter name="ARS">32</parameter></Instrument_Parameters_Rf><Sample_Parameters_><parameter name="BLD"></parameter><parameter name="CNM">Admin</parameter><parameter name="CPY"></parameter><parameter name="DPM"></parameter><parameter name="EXP">IRBT_v3_32Scans.XPM</parameter><parameter name="LCT"></parameter><parameter name="SFM">Microplate, HTS-XT</parameter><parameter name="SNM">220602-1054_RTF49M (D_18)_A5_1c9c1752-12ca-45e2-9331-6e804ce7ea7d.0</parameter><parameter name="XPP">C:\Users\Public\Documents\Bruker\OPUS_8.2.28\XPM</parameter><parameter name="IST">OK</parameter><parameter name="CPG">1252</parameter><parameter name="UID">a40008b9-01f6-46a3-8179-5aa17be81c5a</parameter></Sample_Parameters_><Instrument_Parameters_><parameter name="HFL">15800.168544</parameter><parameter name="LFL">0</parameter><parameter name="LWN">15800.168544</parameter><parameter name="ABP">32197</parameter><parameter name="SSP">1</parameter><parameter name="ASG">2</parameter><parameter name="ARG">2</parameter><parameter name="ASS">32</parameter><parameter name="GFW">16</parameter><parameter name="GBW">16</parameter><parameter name="BFW">0</parameter><parameter name="BBW">0</parameter><parameter name="PKA">7464</parameter><parameter name="PKL">4988</parameter><parameter name="PRA">7742</parameter><parameter name="PRL">4993</parameter><parameter name="P2A">1</parameter><parameter name="P2L">1</parameter><parameter name="P2R">1</parameter><parameter name="P2K">1</parameter><parameter name="DAQ">0</parameter><parameter name="AG2">1</parameter><parameter name="SSM">1</parameter><parameter name="RSN">13665</parameter><parameter name="CRR">0</parameter><parameter name="SRT">1654170055.594</parameter><parameter name="DUR">19.6379852294922</parameter><parameter name="TSC">28.8</parameter><parameter name="MVD">0.211356848478317</parameter><parameter name="AN1">0.225832555238524</parameter><parameter name="AN2">0</parameter><parameter name="VSN">2.485 Apr  4 2017</parameter><parameter name="SRN">0085</parameter><parameter name="CAM">0</parameter><parameter name="INS">IR-Biotyper</parameter><parameter name="FOC">69</parameter><parameter name="RDY">1</parameter></Instrument_Parameters_><History/></OPUSDataFile>
