<?xml version="1.0" encoding="UTF-8" ?>
<OPUSDataFile><AB><Ydata ylabel="Absorbance Units"><values byteorder="INTEL" format="FLOAT32" numvalues="3497"> 0.01080357 0.01077144 0.01075135 0.0107423 0.01076022 0.0108059 0.01087636 0.01096983 0.01106318 0.01115439
 0.01121869 0.0112583 0.01126708 0.01125005 0.01121679 0.01116836 0.01111152 0.01104343 0.01096152 0.0108694
 0.01076518 0.01066499 0.01057578 0.01051267 0.0104854 0.01048949 0.01052836 0.01058042 0.01064326 0.01069732
 0.01074015 0.01076468 0.01077041 0.01075826 0.01072868 0.01068692 0.01063466 0.01058436 0.01053749 0.01050753
 0.01049093 0.01048752 0.01048992 0.01048457 0.01047069 0.0104393 0.0104005 0.01035941 0.01032331 0.01029964
 0.01028351 0.01027484 0.01026866 0.0102631 0.01025915 0.01025766 0.0102522 0.01024282 0.01021483 0.0101674
 0.01009972 0.01001335 0.009929867 0.009850509 0.009795232 0.009760387 0.009743469 0.009740456 0.009739444 0.009741249
 0.009741702 0.009743237 0.009746862 0.009755142 0.009769623 0.009794666 0.009833458 0.009887098 0.009959332 0.01003827
 0.01012408 0.0101941 0.0102456 0.01025645 0.01022422 0.01013369 0.009983808 0.00977415 0.009507114 0.009212029
 0.008897736 0.00863242 0.008423903 0.00834519 0.008379659 0.008532117 0.008763685 0.009010436 0.009249635 0.009425274
 0.009544295 0.009588971 0.009588324 0.009550417 0.009509082 0.009481839 0.009475281 0.009499308 0.009524764 0.009548856
 0.009543969 0.009504895 0.009444707 0.009363748 0.009300905 0.009256071 0.00923675 0.009236698 0.009219015 0.009181478
 0.009091379 0.008961682 0.008804432 0.008639619 0.008510689 0.008417421 0.008381893 0.008382071 0.008403784 0.008442051
 0.008488107 0.008550144 0.008637645 0.008719976 0.00879817 0.008808396 0.008738058 0.008557986 0.008257046 0.007908933
 0.007516239 0.007284424 0.007217357 0.007423582 0.007867504 0.008365685 0.008900265 0.009301954 0.009590758 0.00973352
 0.009749687 0.009651965 0.009468428 0.009226168 0.008977883 0.008772563 0.008652578 0.008670552 0.008786147 0.009009724
 0.009240449 0.009451166 0.009590297 0.009638995 0.009619718 0.009531424 0.00941449 0.00927135 0.00912234 0.008968106
 0.008818885 0.008677214 0.008564669 0.008484289 0.008461924 0.008492699 0.008580508 0.008712138 0.008868213 0.009034905
 0.009189532 0.00931987 0.009408829 0.009449199 0.009430287 0.009357425 0.00922601 0.009060397 0.008861938 0.008670711
 0.008492281 0.008364267 0.0082919 0.008290472 0.008361538 0.008488215 0.008668372 0.008864957 0.009076817 0.009278168
 0.009470276 0.00964615 0.00980336 0.009933439 0.01003095 0.01007986 0.01008453 0.010038 0.009963496 0.009874839
 0.009799754 0.009760891 0.009762924 0.009818512 0.009900996 0.01000892 0.01010384 0.01017849 0.01021053 0.01019524
 0.01013957 0.0100434 0.00993308 0.009810232 0.009704354 0.009615171 0.009557353 0.009525561 0.009507516 0.009497049
 0.009469917 0.009428824 0.009364411 0.009289518 0.009216707 0.009154056 0.009119841 0.009093346 0.009074342 0.009020457
 0.008911841 0.008733327 0.00846674 0.008163142 0.007821866 0.007534223 0.007310736 0.007204146 0.007218883 0.007360791
 0.007627665 0.007985808 0.008423823 0.008846535 0.009245137 0.009528697 0.009708067 0.009759125 0.00971065 0.00959763
 0.009455504 0.009348189 0.009277808 0.009276185 0.009308079 0.009359545 0.009410558 0.009445751 0.00947317 0.009490731
 0.009514849 0.009549079 0.009598174 0.009664416 0.009733138 0.009803756 0.009853482 0.009881503 0.009871715 0.009826491
 0.009750497 0.009654067 0.009579668 0.009538677 0.00959323 0.009721805 0.009923087 0.0101511 0.01033939 0.01048212
 0.01054018 0.01055703 0.0105429 0.01055007 0.01060841 0.01072292 0.01090971 0.01111583 0.01133527 0.01151952
 0.01165897 0.01176383 0.01183301 0.01193396 0.01206926 0.01229341 0.01259513 0.01292024 0.01325209 0.01348658
 0.01363236 0.01365679 0.01358161 0.01342837 0.0132216 0.01299257 0.01278203 0.01263164 0.01258135 0.01267843
 0.01289932 0.01325585 0.01367667 0.01413988 0.01462 0.01510719 0.01560528 0.0161156 0.01661932 0.01711532
 0.01758772 0.01803631 0.01846125 0.01886103 0.01922474 0.01954935 0.01981286 0.02002105 0.02017499 0.02028917
 0.02039056 0.02048977 0.0206067 0.02076009 0.02096654 0.02125966 0.02167686 0.02219222 0.02282081 0.0234629
 0.02408816 0.02465515 0.02514405 0.02558972 0.02599294 0.02639552 0.02680089 0.02721664 0.02764148 0.02804425
 0.02842302 0.02874277 0.02901468 0.02925766 0.02950363 0.02985545 0.03031994 0.0309836 0.03176962 0.03261574
 0.03345249 0.03417957 0.03481359 0.03532808 0.03577966 0.03618627 0.03658862 0.03700714 0.0374359 0.03787854
 0.03831281 0.03873335 0.0391591 0.03958995 0.04008219 0.04063728 0.04128021 0.04200307 0.04275614 0.04353086
 0.04426099 0.04495162 0.04558188 0.04616247 0.04670304 0.04721373 0.04770913 0.04820303 0.04871437 0.0492462
 0.04981159 0.05038811 0.05096769 0.05153945 0.05209038 0.0526596 0.05325211 0.05390337 0.05462519 0.05536198
 0.05611203 0.05678098 0.05736712 0.05785668 0.05825841 0.05863509 0.05899361 0.05940031 0.05984814 0.06035637
 0.06090408 0.06146085 0.06201015 0.06251104 0.06297528 0.06338903 0.06379952 0.06422993 0.06472337 0.06531577
 0.06598067 0.06672721 0.06747837 0.06821983 0.06890416 0.06952067 0.07007701 0.07057197 0.07104705 0.07150427
 0.07198074 0.07247546 0.07299639 0.0735412 0.07410287 0.07468243 0.07528099 0.07589629 0.0765286 0.07716452
 0.07778641 0.07838396 0.07893652 0.0794554 0.07993925 0.0804081 0.08087308 0.08133599 0.08180248 0.08225583
 0.08269268 0.08310635 0.08349276 0.08387846 0.08426429 0.0846955 0.08517347 0.08571696 0.08632059 0.08694942
 0.08759549 0.08820147 0.08877051 0.08927795 0.08974012 0.09017712 0.09060206 0.09104534 0.09150079 0.09197722
 0.09245403 0.09291907 0.09336253 0.09377138 0.09416583 0.094546 0.09494556 0.09537268 0.09584018 0.09635285
 0.09689394 0.09746304 0.09803297 0.09860241 0.09914945 0.09967385 0.1001634 0.1006197 0.1010423 0.101436
 0.1018131 0.1021802 0.1025567 0.1029446 0.1033577 0.1037865 0.1042287 0.1046709 0.1051005 0.1055219
 0.1059303 0.1063473 0.1067818 0.1072332 0.107708 0.108167 0.1086055 0.1089981 0.1093404 0.1096688
 0.1099858 0.1103537 0.1107707 0.1112518 0.1117855 0.1123276 0.1128693 0.1133589 0.1138017 0.1141811
 0.1145128 0.1148119 0.1150894 0.1153639 0.1156323 0.1158984 0.1161562 0.1164007 0.1166407 0.1168759
 0.1171225 0.1173848 0.117668 0.1179741 0.1182955 0.1186319 0.1189738 0.1193207 0.119667 0.1200136
 0.1203658 0.120727 0.121118 0.1215386 0.122004 0.122502 0.1230174 0.1235326 0.124014 0.1244575
 0.124844 0.1251858 0.1254852 0.1257544 0.1260005 0.1262271 0.1264356 0.1266316 0.1268147 0.1270001
 0.1271896 0.1273966 0.1276225 0.1278667 0.128129 0.1284032 0.1286901 0.1289947 0.1293177 0.129667
 0.1300358 0.1304106 0.1307794 0.1311086 0.1313993 0.1316317 0.1318324 0.1320157 0.1322162 0.1324664
 0.1327698 0.1331475 0.133549 0.1339689 0.1343376 0.1346348 0.1348461 0.13496 0.1350433 0.1350996
 0.1351978 0.1353398 0.1355066 0.1356919 0.1358228 0.1359041 0.1359157 0.1358791 0.1358508 0.1358436
 0.1359175 0.1360582 0.1362755 0.13654 0.1368261 0.137113 0.1373745 0.1376152 0.1378248 0.1380354
 0.138254 0.1385096 0.1388154 0.1391517 0.1395227 0.1398627 0.1401668 0.1403854 0.1405171 0.1405772
 0.1405701 0.1405481 0.1405104 0.140482 0.1404563 0.1404206 0.1403814 0.1403406 0.1403223 0.1403673
 0.1404792 0.1406907 0.1409529 0.1412483 0.1415171 0.141717 0.1418515 0.1419016 0.1419342 0.1419595
 0.1420327 0.1421672 0.1423535 0.1425943 0.1428307 0.1430596 0.1432185 0.1433077 0.1433019 0.1432112
 0.1430684 0.1428905 0.1427488 0.1426511 0.1426542 0.142742 0.1429226 0.1431575 0.1434145 0.143654
 0.1438349 0.1439487 0.1439716 0.1439429 0.1438645 0.1437974 0.1437552 0.1437764 0.1438697 0.1440417
 0.1442939 0.1446265 0.1450394 0.1455289 0.1460903 0.1466799 0.1472835 0.1478051 0.1482343 0.1484775
 0.1485561 0.1484552 0.1482362 0.1479778 0.1477417 0.147632 0.1476456 0.1478325 0.1481036 0.1484394
 0.1487278 0.1489228 0.1489771 0.1488616 0.1486242 0.1482618 0.1478707 0.1474588 0.1470951 0.1467829
 0.1465296 0.146333 0.1461703 0.1460424 0.1459414 0.1458716 0.1458452 0.1458605 0.1459253 0.1460226
 0.1461374 0.1462346 0.1462769 0.1462247 0.146033 0.1456976 0.1451907 0.1445747 0.1438534 0.1431277
 0.1424198 0.1418005 0.1412867 0.1408845 0.1405984 0.1403867 0.1402473 0.140118 0.1399965 0.1398333
 0.1396341 0.1394008 0.1391456 0.1389142 0.1387026 0.1385334 0.138377 0.1381975 0.1379737 0.1376583
 0.1372781 0.1368265 0.1363679 0.1359304 0.1355658 0.1353031 0.1351433 0.1351006 0.1351157 0.1351878
 0.1352199 0.1352035 0.1350687 0.1348126 0.1344528 0.1339963 0.1335267 0.1330478 0.1326254 0.1322514
 0.1319337 0.1316646 0.1314292 0.1312278 0.1310574 0.1309118 0.130789 0.1306664 0.1305282 0.1303547
 0.1301267 0.1298551 0.1295337 0.1292013 0.1288645 0.1285591 0.1282937 0.1280702 0.1278914 0.1277243
 0.1275673 0.1273824 0.1271704 0.1269236 0.1266476 0.1263688 0.1260917 0.1258473 0.125632 0.1254545
 0.1253046 0.1251703 0.125043 0.1249084 0.1247644 0.1246045 0.1244299 0.1242399 0.1240341 0.1238125
 0.1235749 0.1233206 0.123054 0.122775 0.122493 0.1222088 0.12193 0.1216568 0.1213866 0.121119
 0.1208458 0.1205677 0.1202837 0.1199965 0.1197155 0.1194407 0.1191793 0.1189248 0.1186705 0.1184102
 0.1181309 0.1178401 0.1175328 0.1172383 0.1169663 0.1167524 0.116615 0.1165585 0.1165965 0.1166723
 0.1167855 0.1168395 0.1168253 0.1166766 0.11639 0.1159857 0.115471 0.1149409 0.1144044 0.113966
 0.113621 0.1134178 0.1133273 0.1133147 0.1133374 0.1133087 0.1132121 0.112982 0.1126615 0.1122522
 0.1118288 0.1114359 0.1111004 0.1108528 0.1106478 0.1104804 0.1103085 0.1101177 0.1099398 0.1097739
 0.1096912 0.1096955 0.1098061 0.1100168 0.1102558 0.1105109 0.1106722 0.11074 0.1106494 0.1104256
 0.1100893 0.1096773 0.1092609 0.1088549 0.1085104 0.1082055 0.1079402 0.10769 0.1074348 0.1071863
 0.1069414 0.106727 0.1065541 0.106411 0.1063009 0.1061829 0.1060515 0.1059034 0.105738 0.1056061
 0.1055095 0.1054874 0.1055325 0.1056229 0.1057483 0.1058586 0.1059552 0.1060147 0.1060477 0.1060636
 0.1060648 0.1060632 0.1060425 0.1059984 0.1059019 0.1057359 0.1054841 0.105129 0.1046995 0.1041901
 0.1036796 0.1031768 0.1027607 0.1024429 0.1022335 0.1021339 0.1020716 0.1020413 0.1019502 0.1018006
 0.1015558 0.1012323 0.1008678 0.1004808 0.1001367 0.09983779 0.09962191 0.09946974 0.09937737 0.09931621
 0.09926259 0.09919749 0.09910075 0.09897766 0.09882129 0.09865978 0.09849818 0.09836169 0.0982591 0.0981745
 0.09811017 0.09800782 0.09786423 0.09763816 0.0973326 0.09697962 0.09658872 0.09623852 0.09592632 0.09569049
 0.09550815 0.0953429 0.09517726 0.09495721 0.09469967 0.09439594 0.09408695 0.09380309 0.093571 0.0934182
 0.09333844 0.09333806 0.09339584 0.0935076 0.09365807 0.0938445 0.09405631 0.09429364 0.09453083 0.09476661
 0.09494921 0.09507561 0.09509028 0.0949963 0.09478012 0.09445643 0.09406924 0.09363617 0.09322285 0.09283657
 0.09252015 0.0922701 0.09209937 0.09200044 0.09197284 0.09200556 0.09209467 0.09222436 0.09238935 0.09257275
 0.0927697 0.09296766 0.09316234 0.09335715 0.09354935 0.09377722 0.09404255 0.09441432 0.0948948 0.09553313
 0.0963214 0.09723847 0.09826688 0.09932999 0.1004175 0.1014618 0.1024712 0.1034268 0.1043484 0.1052517
 0.1061529 0.10707 0.1080129 0.1089894 0.1100127 0.1110875 0.112231 0.1134509 0.114746 0.1161221
 0.1175395 0.1189972 0.1204289 0.1218306 0.1231389 0.1243505 0.1254118 0.1263188 0.1270164 0.1275044
 0.1277426 0.1277553 0.1275669 0.1272393 0.1268802 0.12656 0.1264119 0.1264544 0.1267629 0.1272788
 0.1279969 0.1288377 0.1297623 0.1307508 0.1317806 0.1329038 0.1341224 0.135506 0.1370625 0.1388313
 0.1408155 0.1430165 0.1454335 0.1480506 0.1508701 0.1538956 0.1571398 0.1606519 0.1644457 0.1685935
 0.1730698 0.177904 0.1829559 0.1881458 0.1931262 0.1976744 0.2012442 0.2034921 0.2039725 0.2023516
 0.1987549 0.193031 0.1860083 0.1777409 0.1693211 0.1608675 0.1531525 0.1462352 0.140328 0.13542
 0.1313239 0.12801 0.1251937 0.1228607 0.1208102 0.1190359 0.1174269 0.1159681 0.1145851 0.1132644
 0.1119554 0.1106686 0.1093905 0.1081513 0.1069651 0.1058522 0.1048269 0.1038863 0.1030325 0.1022575
 0.1015584 0.1009416 0.1004062 0.09997571 0.09965151 0.09946381 0.09941266 0.09950451 0.09972996 0.100033
 0.1003941 0.1007035 0.1009537 0.1010578 0.1010471 0.100925 0.1007551 0.1006128 0.1005572 0.1006648
 0.1009654 0.1014972 0.1022702 0.1032908 0.1045838 0.1061438 0.1080581 0.1103304 0.1131087 0.116418
 0.1202837 0.1247183 0.1292779 0.1339067 0.137576 0.140215 0.1407606 0.1393197 0.1356584 0.1301251
 0.1234718 0.1160579 0.1088989 0.1021121 0.09629168 0.09129845 0.08723269 0.08386647 0.08109239 0.07874649
 0.0767356 0.07498099 0.07344586 0.0720854 0.07088789 0.06981906 0.06887421 0.06802975 0.06728405 0.0666132
 0.06601541 0.06545775 0.06493855 0.06442863 0.06393016 0.06343475 0.0629491 0.06248626 0.06205216 0.06166625
 0.06132394 0.06103202 0.06077055 0.06052721 0.06027803 0.0600024 0.05969646 0.05934752 0.05898437 0.05860868
 0.05826363 0.05795861 0.0577138 0.05753552 0.05739973 0.05730591 0.05720636 0.05709954 0.05695771 0.05678376
 0.05658633 0.05636838 0.05614866 0.05592372 0.05569412 0.05545489 0.05519449 0.05491705 0.05462045 0.0543174
 0.05401777 0.05373263 0.05347177 0.05323987 0.0530417 0.05287657 0.05274732 0.0526417 0.05256068 0.05247537
 0.05238318 0.05225578 0.05209057 0.05188726 0.05164715 0.05139987 0.05114755 0.05092096 0.05071814 0.0505481
 0.05040565 0.05028155 0.05017132 0.0500621 0.04995227 0.04983309 0.049709 0.04957865 0.04945388 0.04934137
 0.04925018 0.04918936 0.04914816 0.04912924 0.04910243 0.04906275 0.04898676 0.04886919 0.04871699 0.04852965
 0.04833735 0.04814149 0.04796812 0.04781629 0.04769127 0.04758997 0.04750222 0.04742549 0.0473473 0.04726753
 0.04717914 0.04708567 0.04698818 0.04689185 0.04680301 0.0467207 0.04664908 0.04657552 0.04649694 0.04639849
 0.04627349 0.04612217 0.04594136 0.04574822 0.04554398 0.04534621 0.0451564 0.04497953 0.04481558 0.04466127
 0.04451643 0.04437838 0.04424716 0.04412191 0.04400191 0.04388484 0.04376974 0.0436534 0.04353611 0.04341653
 0.0432964 0.04317687 0.04305929 0.04294544 0.04283374 0.04272442 0.04261397 0.04250114 0.04238491 0.04226422
 0.04214338 0.04202257 0.04190752 0.04179871 0.04169707 0.04160261 0.04151391 0.0414318 0.04136193 0.04130589
 0.04127532 0.04126778 0.04128554 0.04131805 0.04134729 0.04136206 0.04133745 0.04127482 0.04116327 0.04101815
 0.04084501 0.04065952 0.04047026 0.04028475 0.04010668 0.03994029 0.03978685 0.03964961 0.03952976 0.03942262
 0.03932821 0.03923399 0.03913944 0.03903614 0.0389247 0.03880655 0.03868249 0.03855686 0.0384296 0.03830254
 0.03817609 0.03805162 0.03793019 0.03781408 0.03770301 0.0375976 0.03749713 0.03740059 0.03730998 0.03722567
 0.03715031 0.03708573 0.03702882 0.0369803 0.03693036 0.03687803 0.03681449 0.03673882 0.03664995 0.03654803
 0.0364382 0.03632095 0.03620241 0.03608293 0.03596742 0.03585579 0.03575107 0.03565124 0.03555448 0.03545703
 0.03535275 0.03523985 0.03511298 0.03497643 0.0348301 0.03468255 0.03453739 0.03440113 0.03427716 0.03416558
 0.03406776 0.03397778 0.03389546 0.03381234 0.03372773 0.03363665 0.033539 0.03343608 0.03332832 0.03322016
 0.03311173 0.03300596 0.03290277 0.03280324 0.03270793 0.03261857 0.03253531 0.03245968 0.03238977 0.03232474
 0.03226155 0.03219802 0.032132 0.0320619 0.0319871 0.03190703 0.03182187 0.03173134 0.03163716 0.03153946
 0.03144008 0.03133921 0.03123702 0.03113356 0.03102918 0.03092426 0.03082237 0.03072386 0.03063289 0.03054832
 0.03046927 0.03039377 0.03031694 0.03023869 0.03015635 0.03007187 0.02998642 0.02990084 0.02981632 0.02973209
 0.02964759 0.02956404 0.02948119 0.02940268 0.02932935 0.02926295 0.02920418 0.02915023 0.02910105 0.02905169
 0.0290019 0.02894738 0.02888815 0.02882238 0.02875093 0.02867668 0.02860104 0.0285303 0.02846405 0.02840555
 0.02835091 0.02829639 0.02823775 0.02816831 0.02808935 0.02799807 0.02790236 0.02780468 0.02771286 0.02763067
 0.02755894 0.02749919 0.02744636 0.02740012 0.02735519 0.02731111 0.02726521 0.02721734 0.02716625 0.02711191
 0.02705336 0.02699078 0.02692434 0.02685458 0.02678328 0.02671071 0.02663866 0.02656624 0.02649342 0.02641793
 0.02633762 0.02625068 0.02615441 0.0260508 0.02593911 0.02582542 0.02571163 0.02560149 0.02549696 0.02539439
 0.02529363 0.02519003 0.02508281 0.0249772 0.02487359 0.02478384 0.02470757 0.02464646 0.02459777 0.02454825
 0.02449669 0.02443093 0.02435497 0.02427119 0.0241839 0.02410186 0.02402335 0.02395045 0.02387903 0.0238056
 0.02373159 0.02365624 0.02358361 0.02351572 0.02345114 0.02339046 0.02332847 0.02326417 0.02319724 0.02312744
 0.02305802 0.02298906 0.02291897 0.02284728 0.02276801 0.02268168 0.02258707 0.02248646 0.02238644 0.02228852
 0.02219969 0.02211885 0.02204782 0.02198387 0.02192512 0.0218687 0.02181207 0.02175326 0.02169024 0.02162387
 0.02155308 0.02148342 0.02141569 0.02135533 0.02130384 0.02125887 0.02122069 0.02118001 0.0211364 0.02108386
 0.02102287 0.02095617 0.02088445 0.02081281 0.02074091 0.02067028 0.02060053 0.02053117 0.02046317 0.0203976
 0.02033586 0.02028006 0.02023013 0.02018743 0.020149 0.02011454 0.02007864 0.02003941 0.01999342 0.01993876
 0.01987878 0.01981339 0.01974859 0.01968511 0.01962244 0.01956048 0.01949261 0.01941896 0.01933798 0.01925132
 0.0191669 0.01908602 0.01901772 0.01896045 0.01891581 0.01888041 0.0188497 0.01882172 0.01879206 0.01876205
 0.01873074 0.0187015 0.01867623 0.0186554 0.01864087 0.01862626 0.01861124 0.01858595 0.01854845 0.01849627
 0.01842847 0.01835411 0.01827366 0.01819805 0.01812671 0.01805804 0.01798929 0.01790497 0.01780295 0.01766737
 0.01749959 0.01729414 0.01705488 0.01678534 0.01648837 0.01616915 0.01582645 0.01546308 0.01507018 0.01464748
 0.0141751 0.01364858 0.01304333 0.01235183 0.01156517 0.0106771 0.009717062 0.008684283 0.007648873 0.006614882
 0.005677067 0.004840966 0.004200197 0.003755273 0.003560913 0.003608186 0.003898742 0.004419174 0.005152834 0.006059433
 0.007088138 0.008157451 0.009161868 0.01004721 0.0107334 0.01122386 0.01149653 0.0115796 0.01147299 0.01122236
 0.01082842 0.01037962 0.009884067 0.009447575 0.009083056 0.008812741 0.008637821 0.008512583 0.008436934 0.008396477
 0.008394959 0.008448296 0.008554224 0.008715411 0.008923161 0.009159428 0.009417295 0.009676599 0.009938665 0.01019566
 0.01045602 0.01072444 0.01100459 0.01130341 0.01160709 0.01191492 0.012204 0.0124682 0.01269651 0.01288484
 0.01304137 0.01316584 0.01327557 0.01337146 0.01346679 0.01356133 0.01365644 0.01375088 0.01383828 0.01391843
 0.01398673 0.014045 0.0140949 0.01413853 0.01418014 0.01422024 0.01426117 0.01430227 0.01434381 0.01438496
 0.01442573 0.01446416 0.01449982 0.01453021 0.01455439 0.01457226 0.01458322 0.01459129 0.01459668 0.01460441
 0.01461477 0.01462878 0.01464592 0.01466022 0.01467044 0.01466622 0.01464752 0.01460751 0.01454957 0.01447704
 0.01439556 0.01431595 0.01424074 0.01417804 0.01412466 0.01408086 0.01404312 0.01400846 0.0139794 0.01395552
 0.0139423 0.01394202 0.01395247 0.01397488 0.01399662 0.01401678 0.01402331 0.01401552 0.01399323 0.01395718
 0.01391723 0.01387395 0.01383612 0.01380281 0.01377551 0.01375302 0.01373292 0.01371563 0.01370051 0.0136889
 0.0136826 0.01368084 0.01368454 0.01368966 0.01369453 0.01369543 0.01369014 0.01367892 0.01366108 0.01363952
 0.01361468 0.01358801 0.01355974 0.01352987 0.0134984 0.01346752 0.01343753 0.0134132 0.01339453 0.01338464
 0.01338208 0.01338389 0.01338761 0.01338578 0.01337729 0.01335592 0.01332467 0.0132837 0.01323841 0.01319334
 0.013151 0.01311466 0.01308241 0.01305413 0.01302864 0.01300521 0.01298559 0.01297023 0.01295831 0.01295014
 0.01293945 0.01292588 0.01290461 0.0128759 0.01284238 0.01280482 0.01276948 0.01273601 0.01270672 0.01268029
 0.01265443 0.01262899 0.01260231 0.01257582 0.01255078 0.0125277 0.01250841 0.01248959 0.01247064 0.01244624
 0.01241384 0.01237211 0.01231916 0.01226096 0.01219763 0.01213832 0.01208399 0.01204048 0.01200819 0.01198672
 0.01197567 0.01196953 0.01196758 0.01196245 0.01195411 0.01193799 0.01191558 0.01188808 0.01185733 0.01182757
 0.01179802 0.01177017 0.01174054 0.01170667 0.01166663 0.01161802 0.0115627 0.01150043 0.01143462 0.01136562
 0.01129811 0.01123226 0.0111762 0.0111307 0.01110256 0.01109231 0.01109524 0.01111036 0.01112188 0.01112914
 0.01111928 0.01109442 0.01105475 0.01100426 0.01095288 0.01090316 0.01086468 0.01083596 0.01082013 0.01081153
 0.01080704 0.01080096 0.01078852 0.01076953 0.01074216 0.01071039 0.01067503 0.01063836 0.010601 0.01056304
 0.0105244 0.01048686 0.01045052 0.01041755 0.01038777 0.01035905 0.0103309 0.01029889 0.01026353 0.01022416
 0.01018213 0.01014058 0.01009999 0.0100627 0.01002832 0.009997254 0.009969233 0.009944185 0.009921807 0.009902374
 0.009883935 0.009866259 0.009845925 0.009821944 0.009792373 0.009756343 0.009715851 0.009670821 0.009625589 0.009580427
 0.009537404 0.009496408 0.009455793 0.009415232 0.009371751 0.009325323 0.009273964 0.009218506 0.009159399 0.009098969
 0.009041219 0.00898836 0.008945649 0.008911021 0.008885881 0.008863472 0.008840122 0.00881198 0.00877562 0.008734238
 0.008687885 0.008640402 0.008593009 0.008543801 0.008492712 0.008437677 0.008378494 0.008319214 0.008260212 0.008208443
 0.008163645 0.008127864 0.008099647 0.008074608 0.008051306 0.008023683 0.007991637 0.007951801 0.007905829 0.007854044
 0.007799013 0.007742965 0.007687701 0.007634859 0.007585306 0.007539659 0.007498652 0.00746277 0.007431496 0.007405272
 0.007380222 0.007356216 0.007327281 0.007293008 0.007250799 0.007200922 0.007147788 0.007092241 0.007042688 0.006998662
 0.00696382 0.006934983 0.006906039 0.006873973 0.006829149 0.006774362 0.006707504 0.006636883 0.006569442 0.006509014
 0.006462069 0.006421176 0.006385606 0.006345801 0.006297697 0.006242609 0.006179209 0.006116795 0.006056455 0.006002252
 0.005954622 0.005909217 0.005865859 0.005820915 0.005774878 0.005729587 0.005685479 0.005645521 0.005609215 0.005576735
 0.005547571 0.005520731 0.005496375 0.005474614 0.005454731 0.005436836 0.005418096 0.005397089 0.005371072 0.005337874
 0.005299178 0.005254181 0.005209179 0.005165213 0.005126515 0.005094045 0.005065653 0.005041298 0.005016921 0.004992502
 0.004967968 0.004943479 0.004920486 0.004898384 0.004875449 0.00485104 0.004822151 0.00478958 0.004753143 0.004714394
 0.004675455 0.004636674 0.004599217 0.004562562 0.004526519 0.004491336 0.004457087 0.004423952 0.004392457 0.004360204
 0.004327114 0.004289269 0.004245956 0.004197454 0.004143585 0.004091662 0.004042169 0.004004499 0.003978481 0.003967935
 0.0039711 0.003983527 0.004002187 0.004017306 0.004025705 0.004016703 0.003989812 0.003938157 0.003868382 0.003781266
 0.003691252 0.003606488 0.003539369 0.003499186 0.003482662 0.003493109 0.003513091 0.003540191 0.003559779 0.003569133
 0.003568202 0.003556602 0.00354423 0.003531391 0.003523845 0.003520516 0.003515997 0.003509129 0.003491464 0.003464348
 0.00342635 0.003381008 0.003333996 0.003288395 0.003250798 0.003221739 0.003204933 0.003196719 0.003197244 0.003198568
 0.003197834 0.003187886 0.003165216 0.003130548 0.003082267 0.003030277 0.002975077 0.002929427 0.002894325 0.002875165
 0.00287172 0.002877733 0.002892066 0.00290304 0.002910486 0.002907172 0.002894396 0.002871969 0.002841193 0.002804148
 0.002762316 0.002717394 0.002673511 0.002634244 0.002604665 0.002589965 0.002589124 0.002604732 0.002627372 0.002655374
 0.002679122 0.002695951 0.002704022 0.002702298 0.002696214 0.002686057 0.002677157 0.002669411 0.002659343 0.002645678
 0.002616346 0.002571356 0.002502147 0.00241421 0.00231594 0.002217907 0.002145232 0.002101341 0.002106133 0.002143863
 0.002209677 0.002281916 0.002343512 0.002388888 0.002408758 0.002414979 0.002408645 0.002402499 0.002400252 0.002402335
 0.002409847 0.002415112 0.0024177 0.002410993 0.002394697 0.002363647 0.002318239 0.002257646 0.002185164 0.002113907
 0.002048478 0.00201093 0.001997862 0.00201546 0.002052814 0.0020972 0.00214275 0.002178778 0.002205651 0.002220627
 0.002225067 0.002218298 0.002204191 0.002182489 0.002162456 0.002145424 0.002140618 0.002149634 0.002174885 0.002216814
 0.002271933 0.00233992 0.002413974 0.002493235 0.002567725 0.002636813 0.002691984 0.002734042 0.002760191 0.002773094
 0.002775552 0.002772374 0.002770739 0.002775145 0.002793802 0.002824013 0.002868537 0.002916613 0.002964112 0.003003747
 0.003031082 0.003049727 0.003058834 0.003067805 0.003077779 0.003094596 0.003118938 0.003149118 0.003185045 0.003223646
 0.003265893 0.003318364 0.003382776 0.003472432 0.003583953 0.003716294 0.003861344 0.004001064 0.00413443 0.004250302
 0.004356742 0.004457542 0.004559083 0.004668702 0.004782343 0.004901323 0.005015868 0.005122576 0.005218073 0.005298721
 0.005378766 0.005457242 0.005569756 0.005719076 0.005927399 0.006194209 0.006487397 0.006803818 0.007099831 0.007380282
 0.007643166 0.007897804 0.008170794 0.008466633 0.008808698 0.009192389 0.009623876 0.01008949 0.01057979 0.01108007
 0.01157448 0.01206714 0.01255008 0.01305446 0.01358935 0.01417222 0.0148154 0.01547844 0.01615928 0.01680932
 0.01742353 0.01800229 0.01854586 0.01906887 0.01956995 0.02004088 0.02048179 0.02088459 0.02125974 0.02163135
 0.02201448 0.02245574 0.0229504 0.02351895 0.02413071 0.02476249 0.02539395 0.02600112 0.02658724 0.02714754
 0.02769006 0.02821644 0.02873134 0.02923233 0.02974423 0.03026436 0.03086756 0.03155935 0.03240122 0.03339257
 0.03445047 0.03556632 0.03661954 0.03762336 0.03857758 0.03950048 0.04044867 0.04142604 0.04246583 0.04356928
 0.04474281 0.04601265 0.04739228 0.04894692 0.05072177 0.0527686 0.05515131 0.05777587 0.06065466 0.0635655
 0.06646154 0.06921076 0.07178187 0.07418005 0.07640069 0.07851109 0.08051657 0.08254723 0.08461746 0.08693012
 0.08946835 0.0922939 0.09530797 0.09822033 0.1010067 0.1034421 0.1056388 0.1076669 0.1096112 0.1115949
 0.1136191 0.1157239 0.1178829 0.1200897 0.122338 0.1246342 0.1269265 0.1292114 0.1314102 0.1335044
 0.1355172 0.1374474 0.1393621 0.1412619 0.1430927 0.1448455 0.1464029 0.1477777 0.1489644 0.1499972
 0.1509846 0.1519332 0.152926 0.1539107 0.1548356 0.1556895 0.1564234 0.1570997 0.1577561 0.1584051
 0.1590783 0.1597095 0.1602849 0.1607512 0.1610892 0.1613029 0.161387 0.1613789 0.16128 0.1611421
 0.1609674 0.1607787 0.1605726 0.1603226 0.1600267 0.1596593 0.1592263 0.1587299 0.1581845 0.1576187
 0.1570489 0.1565142 0.1560142 0.1555655 0.1551537 0.1547702 0.1544158 0.1540837 0.1537955 0.1535576
 0.1533811 0.1532717 0.1532202 0.1532252 0.1532865 0.153403 0.1535906 0.15385 0.1541944 0.1546239
 0.1551439 0.155754 0.1564568 0.1572511 0.1581347 0.1591079 0.1601671 0.1613213 0.1625786 0.1639563
 0.1654736 0.1671451 0.1689861 0.1710069 0.1732103 0.175625 0.1782517 0.1811552 0.1843492 0.1878832
 0.191778 0.1959573 0.200425 0.204958 0.2095429 0.2138939 0.2179872 0.2214838 0.2243528 0.2262284
 0.2271485 0.2270034 0.2259305 0.2241583 0.2218261 0.2192176 0.2164723 0.2138276 0.2113892 0.2093297
 0.2076009 0.2062446 0.2051114 0.2041608 0.2032821 0.2024288 0.2016313 0.2008782 0.2002969 0.1999018
 0.1996918 0.1996666 0.1997673 0.1999968 0.2003697 0.200894 0.201621 0.2025495 0.2037144 0.2050819
 0.2066493 0.2082471 0.2097206 0.2106466 0.2104923 0.2090824 0.2059661 0.2016685 0.1963322 0.1903824
 0.1839917 0.1774005 0.170647 0.1641316 0.1579118 0.1523007 0.1473444 0.1429797 0.1392026 0.13576
 0.132646 0.1297108 0.1269679 0.1244166 0.1220612 0.1199226 0.1179773 0.1161872 0.1145213 0.1129163
 0.1113523 0.1097889 0.1082047 0.1065833 0.1048738 0.1030455 0.1010678 0.09888148 0.09667604 0.09446302
 0.09252416 0.09093139 0.0896076 0.08856077 0.08755914 0.08659185 0.08555999 0.08447117 0.0833802 0.08229804
 0.08131706 0.08042839 0.07964589 0.07896713 0.07838033 0.07792015 0.0776318 0.07755151 0.07774663 0.07820006
 0.07892753 0.07988294 0.08104871 0.08238564 0.08387817 0.08549524 0.08722205 0.0890701 0.09103259 0.09318436
 0.09553665 0.09807051 0.1007831 0.10337 0.1058136 0.1078008 0.109355 0.1104477 0.1111076 0.111415
 0.1113845 0.1110739 0.1105223 0.1097997 0.1089789 0.108149 0.1074071 0.1068547 0.106543 0.1065587
 0.1067805 0.1071951 0.1076557 0.108111 0.1085565 0.108979 0.1094392 0.1099422 0.1105234 0.1111847
 0.1119076 0.1126894 0.1134913 0.1143153 0.1151515 0.1160068 0.1169043 0.1178389 0.1188194 0.1198155
 0.1207805 0.1217001 0.1225264 0.1233022 0.1240367 0.124792 0.1256065 0.1265041 0.1275096 0.1285925
 0.1297544 0.130944 0.1321552 0.1333424 0.1345026 0.1355822 0.136578 0.1374198 0.1381054 0.1385859
 0.1388642 0.1389335 0.1387961 0.1384574 0.1379171 0.1371742 0.1362344 0.1351011 0.1337944 0.1323334
 0.1307463 0.1290607 0.1272933 0.1254635 0.1235631 0.1215935 0.119544 0.1174038 0.1152154 0.1129755
 0.1107865 0.1086585 0.1066569 0.1047857 0.1030225 0.101365 0.09977464 0.09825654 0.09682103 0.09547517
 0.0942551 0.09315101 0.09216384 0.09126732 0.09042145 0.08960211 0.08876579 0.08790354 0.08699093 0.08603979
 0.08504532 0.08403744 0.08302385 0.08203486 0.08108089 0.08017059 0.07930928 0.078479 0.07767905 0.07688625
 0.07609925 0.07532445 0.07456505 0.07386591 0.07322942 0.07269561 0.0722572 0.07191046 0.07164518 0.0714343
 0.07127465 0.07114873 0.07105784 0.07099839 0.07096764 0.07096495 0.07097949 0.0710068 0.07103373 0.0710538
 0.07106242 0.07105587 0.07104117 0.07101864 0.07099629 0.07097556 0.07095223 0.07092615 0.07088399 0.07082583
 0.07074828 0.07065497 0.07056426 0.07048316 0.07044592 0.07045827 0.07055276 0.07072623 0.07099205 0.07133369
 0.07174251 0.07218946 0.07265437 0.07309934 0.07350199 0.07382667 0.07405433 0.07416984 0.07416262 0.07404616
 0.07381897 0.07351005 0.07312144 0.07268232 0.07219443 0.07168472 0.07115468 0.0706301 0.0701119 0.06961992
 0.06915254 0.06871635 0.06830532 0.06790977 0.06752097 0.06711923 0.06670138 0.06625315 0.06578378 0.06529356
 0.06479917 0.06430998 0.06383645 0.0633858 0.0629574 0.06255261 0.06216804 0.06180261 0.06145943 0.0611383
 0.06084762 0.06058788 0.06036282 0.06017187 0.06000702 0.05986686 0.05973778 0.05962053 0.05950966 0.05940918
 0.05932614 0.0592637 0.05923156 0.05922765 0.05925439 0.05930601 0.05937845 0.05946829 0.05957152 0.05969056
 0.05982522 0.05997915 0.06015442 0.06034699 0.06055785 0.06077326 0.06099234 0.06119965 0.06139423 0.06156764
 0.06171997 0.06185156 0.06196335 0.06206147 0.06214659 0.06222518 0.06229568 0.06235825 0.06240935 0.0624423
 0.06245669 0.06244767 0.06242124 0.06238055 0.06233079 0.06227815 0.06221622 0.06214613 0.06205241 0.06193095
 0.06177269 0.06157416 0.06134064 0.06107181 0.06077924 0.06046362 0.06013248 0.05978613 0.05942934 0.05906276
 0.05869297 0.05832064 0.05795204 0.05758712 0.05722857 0.05687692 0.05653409 0.05620116 0.05588112 0.05557157
 0.05527281 0.0549784 0.05468456 0.05438773 0.05408451 0.0537784 0.05346927 0.05316263 0.05285944 0.052563
 0.05227344 0.05199654 0.05173255 0.05149311 0.05127883 0.05110119 0.05095951 0.05085572 0.05078703 0.05074391
 0.0507236 0.05071345 0.0507143 0.050721 0.05073756 0.05076696 0.05081192 0.05087586 0.05095984 0.05106406
 0.05119375 0.05134914 0.05154191 0.05177458 0.05205838 0.05239633 0.05279022 0.05324158 0.05373837 0.05428013
 0.05484582 0.0554345 0.05602876 0.05662909 0.05723049 0.05783383 0.05844055 0.05904936 0.05965817 0.06026435
 0.06086252 0.06145027 0.06202318 0.06257794 0.06311032 0.06361845 0.06409863 0.06455576 0.06499029 0.06540916
 0.06581555 0.06620729 0.06658525 0.06694108 0.06727342 0.06758229 0.06786736 0.06814206 0.06840743 0.06868248
 0.06896833 0.0692819 0.06962327 0.07000215 0.07041705 0.0708686 0.07135639 0.07187883 0.07243911 0.07304096
 0.07368574 0.07437896 0.07511067 0.07587996 0.07666654 0.0774627 0.07825208 0.07902686 0.07978803 0.08053238
 0.08127858 0.08202747 0.08280306 0.08360691 0.08445635 0.08535143 0.08629476 0.08728205 0.08828843 0.08930223
 0.09026455 0.09116377 0.09193437 0.09258401 0.09308868 0.09348065 0.09378754 0.09404456 0.09429318 0.09454887
 0.09483474 0.09514593 0.09548731 0.0958447 0.0962154 0.09658737 0.09695703 0.09732408 0.09768715 0.09805834
 0.09843826 0.098841 0.09926715 0.09972683 0.1002201 0.1007537 0.1013254 0.1019321 0.1025671 0.1032129
 0.103859 0.1044797 0.1050629 0.1055835 0.1060316 0.1063876 0.1066546 0.1068243 0.1069197 0.1069452
 0.1069306 0.1068848 0.1068274 0.1067632 0.1067053 0.1066553 0.1066265 0.1066199 0.1066412 0.1066902
 0.1067585 0.1068455 0.1069418 0.1070489 0.1071677 0.1072995 0.1074495 0.1076143 0.1077918 0.1079745
 0.1081526 0.1083191 0.1084643 0.1085858 0.1086795 0.1087451 0.1087824 0.1087877 0.10876 0.1086951
 0.108591 0.1084526 0.1082793 0.1080867 0.107876 0.1076635 0.1074498 0.1072396 0.107031 0.106812
 0.106579 0.1063102 0.1060044 0.1056459 0.1052382 0.1047795 0.1042758 0.1037328 0.1031584 0.1025595
 0.1019473 0.101331 0.1007157 0.1001091 0.09949916 0.09888562 0.09824993 0.09758733 0.09689406 0.09616827
 0.09541867 0.0946458 0.09385299 0.09304032 0.09220707 0.09135441 0.09049086 0.089619 0.08875473 0.08789916
 0.087064 0.08624777 0.08545388 0.08467853 0.08391912 0.08316984 0.08242497 0.08167918 0.08092798 0.08016685
 0.07939354 0.07860278 0.07779187 0.07696132 0.07610875 0.07524954 0.07438439 0.07353456 0.0727018 0.07189322
 0.07110855 0.07033785 0.06958041 0.06882551 0.06807467 0.06732777 0.06658861 0.06586662 0.06516716 0.06450476
 0.06388298 0.06331451 0.06279473 0.06232677 0.06189618 0.06149643 0.06111116 0.06073147 0.06034895 0.05995854
 0.05956109 0.05915562 0.05874632 0.05833347 0.0579211 0.05750943 0.0571044 0.05670638 0.05632332 0.055955
 0.0556037 0.05526811 0.05494285 0.05462861 0.05432353 0.05403137 0.05375944 0.05350807 0.05328281 0.05307664
 0.05288487 0.05270231 0.05252193 0.05234967 0.05218584 0.05203833 0.0519118 0.0517998 0.0517038 0.05160433
 0.05149914 0.05137438 0.05122837 0.05106612 0.05088825 0.05071182 0.05053731 0.05037659 0.0502284 0.05009302
 0.04997009 0.0498581 0.0497588 0.04967572 0.04960825 0.04955872 0.04952116 0.04949115 0.04946302 0.04943083
 0.04939503 0.04935375 0.04931097 0.04926693 0.04922735 0.04919218 0.04917328 0.04917177 0.04920034 0.04926054
 0.04934733 0.04945989 0.04957351 0.0496877 0.04978546 0.04987162 0.04995898 0.05005326 0.05018017 0.05033674
 0.05053166 0.05075404 0.05099294 0.05123864 0.05147811 0.05170542 0.05191271 0.05209823 0.05225675 0.05239917
 0.05252544 0.05265607 0.05279687 0.05295114 0.05312283 0.05328342 0.05343138 0.05353605 0.05359678 0.0536167
 0.05359905 0.05357401 0.05354361 0.05353357 0.05354225 0.05357817 0.05363887 0.0537239 0.0538302 0.05395481
 0.05409124 0.05423304 0.0543732 0.05450315 0.05462633 0.05473825 0.05485933 0.05499361 0.05516293 0.05537495
 0.05562711 0.05592266 0.05623116 0.05655088 0.05685056 0.05712909 0.05737705 0.05759578 0.05779336 0.05797149
 0.05814182 0.05830593 0.05847484 0.05864859 0.05883425 0.05902654 0.05922256 0.05941315 0.05958692 0.05974247
 0.05987214 0.05998877 0.06009517 0.06020628 0.06032959 0.06046308 0.06060941 0.06075284 0.06089101 0.06101789
 0.06113204 0.06124858 0.06136843 0.06151306 0.06168261 0.06188758 0.06212582 0.06239355 0.06268682 0.0629928
 0.06330656 0.06361226 0.06390613 0.06417594 0.06442083 0.06463468 0.06482106 0.06497782 0.06511791 0.06524377
 0.06537694 0.0655245 0.06570162 0.06591461 0.06615941 0.06643755 0.06673216 0.06704221 0.06735119 0.06765835
 0.06795345 0.06823742 0.06851326 0.06878522 0.06907488 0.06938731 0.06975119 0.07016432 0.07064076 0.07116364
 0.07172061 0.07228052 0.07281018 0.07328136 0.07365928 0.07394877 0.07413498 0.07426221 0.07433889 0.0744113
 0.07449365 0.07459567 0.07472283 0.07485457 0.07498983 0.07510926 0.07521218 0.07529677 0.07536409 0.07542426
 0.07547761 0.07553136 0.07558399 0.07563296 0.07568019 0.07572547 0.0757789 0.07585514 0.07596167 0.07611489
 0.07630712 0.0765398 0.07679898 0.07707825 0.07736891 0.07766889 0.07796364 0.07825114 0.07851189 0.07874105
 0.07894325 0.07911735 0.07929272 0.07947056 0.0796629 0.07986819 0.08007184 0.08027687 0.08048709 0.08071532
 0.08100517 0.08136398 0.08183559 0.08240251 0.08306596 0.0837851 0.08452093 0.08523715 0.08589277 0.08648153
 0.08699016 0.08742195 0.08778165 0.08804242 0.08820055 0.08822588 0.08810659 0.08788671 0.08756494 0.08725513
 0.08696289 0.08677594 0.08669208 0.08672141 0.08685591 0.0870608 0.08733038 0.0876298 0.08795485 0.08828188
 0.08860385 0.08890199 0.08916717 0.08938255 0.08954503 0.08964407 0.08969095 0.08968533 0.0896492 0.08958852
 0.08952388 0.08946007 0.08941409 0.08938839 0.08939872 0.08944694 0.08953802 0.08967208 0.08983952 0.09003937
 0.09025887 0.09049644 0.09073771 0.09098078 0.09120908 0.09142818 0.09164011 0.09185589 0.09209644 0.09235915
 0.09264853 0.09296186 0.09328668 0.09366286 0.09410468 0.09465189 0.09535167 0.09607866 0.09682782 0.09740449
 0.09776135 0.09793844 0.09792991 0.09787735 0.09778727 0.09772498 0.097688 0.09767088 0.09766909 0.09765741
 0.09763263 0.09757143 0.09747234 0.09731691 0.09711573 0.09687306 0.09660975 0.09635094 0.09610615 0.095893
 0.09570429 0.09554113 0.09539503 0.09526271 0.09514115 0.09502751 0.09492976 0.09484682 0.09480178 0.09479687
 0.09484513 0.09494692 0.09507356 0.09522109 0.09533479 0.0954132 0.09541826 0.09535526 0.09521856 0.09502065
 0.09478229 0.09452333 0.0942818 0.09407486 0.09393808 0.09387039 0.09388763 0.09396537 0.09410287 0.09425125
 0.09439681 0.09449027 0.09451006 0.09447213 0.09436701 0.09429067 0.09425118 0.09431592 0.09448806 0.0947213
 0.09501033 0.09527434 0.09551846 0.09572904 0.09591767 0.09611902 0.09633423 0.09658541 0.09686252 0.09716228
 0.09746794 0.09776206 0.098027 0.09824311 0.09840424 0.0984998 0.09853837 0.09851839 0.09845801 0.09835761
 0.09825081 0.09814055 0.09806841 0.09803913 0.09806966 0.09816098 0.09829839 0.09848043 0.09868755 0.09891641
 0.09914158 0.09935427 0.09950811 0.09960315 0.09960715 0.09954839 0.09945235 0.09935705 0.09931946 0.09934578
 0.09946714 0.09965101 0.09989277 0.1001495 0.1004051 0.1006322 0.1008194 0.1009662 0.1010696 0.1011454
 0.101195 0.1012256 0.1012378 0.1012325 0.1012103 0.1011807 0.1011417 0.1010891 0.101015 0.1008853
 0.1007043 0.1004566 0.1001723 0.09989307 0.09964306 0.09947621 0.09936931 0.0993327 0.09930564 0.09926103
 0.09914897 0.09894084 0.09863146 0.09820832 0.09771042 0.09713829 0.09655239 0.09595787 0.09540588 0.09489946
 0.09445389 0.09406679 0.09371248 0.09338605 0.09304415 0.09268802 0.0922956 0.09187865 0.09145449 0.09103103
 0.09063482 0.09025182 0.08987916 0.08949515 0.0890779 0.08862752 0.08813255 0.08761913 0.0870889 0.08658557
 0.08611649 0.08573198 0.08544336 0.08526543 0.08520517 0.08519483 0.08523087</values></Ydata></AB><ScSm><Ydata ylabel="Single channel"><values byteorder="INTEL" format="FLOAT32" numvalues="1814"> 0.05947348 0.05947751 0.05953818 0.05967418 0.05985934 0.0600374 0.06016032 0.06021909 0.06023169 0.06020837
 0.06015561 0.06011452 0.06015398 0.06030332 0.0605079 0.0606638 0.06069921 0.06063983 0.06059818 0.06066349
 0.06077851 0.06075545 0.06045426 0.05994475 0.05945994 0.05918117 0.05912662 0.05928748 0.05974082 0.06043545
 0.06095122 0.06079746 0.06002685 0.05926784 0.05902747 0.05920349 0.05937496 0.05929236 0.05895866 0.05852947
 0.05835035 0.05886598 0.06018483 0.06171646 0.06238206 0.06129535 0.05839497 0.05464394 0.05167295 0.05090716
 0.05256467 0.05536755 0.05750157 0.05806449 0.05749911 0.05667555 0.05594914 0.05527858 0.05484021 0.0550567
 0.05601964 0.05710201 0.05728514 0.05602991 0.05391377 0.05221921 0.05176349 0.05238479 0.05362507 0.05523261
 0.05647785 0.0557523 0.05214263 0.04744153 0.04536179 0.04801352 0.05365198 0.05837712 0.05960523 0.0575355
 0.05403014 0.05105866 0.04994735 0.05103413 0.05361461 0.05652216 0.05882835 0.05989575 0.05923321 0.05691418
 0.05398633 0.0519684 0.05191999 0.05402035 0.05752771 0.06085112 0.06227375 0.06121483 0.05861392 0.05593673
 0.05420887 0.05401255 0.05563013 0.0587588 0.0624855 0.06581189 0.06806454 0.06897236 0.06872389 0.06784207
 0.06678568 0.06587636 0.06557673 0.06620643 0.06719977 0.06731685 0.06598817 0.0640679 0.06295315 0.06313859
 0.06381956 0.06387357 0.06299768 0.06154636 0.05943593 0.05610094 0.05181019 0.04803429 0.04597729 0.04564869
 0.04673829 0.04910146 0.05173347 0.05269613 0.05124382 0.04919457 0.04913706 0.05166677 0.05506954 0.05740617
 0.05830871 0.05885144 0.06016946 0.06229869 0.06402844 0.0638146 0.06130516 0.05820242 0.05706281 0.0587925
 0.06177752 0.06387249 0.06466484 0.06525612 0.06632472 0.06707074 0.06604883 0.06288647 0.05921529 0.05767097
 0.0596028 0.06372474 0.06704567 0.06708302 0.06353171 0.05833793 0.05418015 0.05261679 0.05365648 0.05676349
 0.06145747 0.06678817 0.07109119 0.07291983 0.07210214 0.06965134 0.0666053 0.06306845 0.05876944 0.05465934
 0.05310541 0.05566205 0.06109478 0.06640507 0.06950115 0.07025042 0.0693364 0.06698134 0.06311243 0.05856365
 0.05548396 0.05568182 0.05845257 0.06096693 0.06123113 0.05990894 0.05888076 0.05889726 0.05928642 0.05938279
 0.05947083 0.06028605 0.06195972 0.06371967 0.06463858 0.06448467 0.06376855 0.06314239 0.06280755 0.06237102
 0.06139581 0.06026462 0.06015471 0.06176062 0.06434786 0.06650253 0.06754961 0.06781834 0.06771861 0.06701344
 0.06517083 0.06238376 0.05999076 0.0594877 0.06108398 0.06357354 0.06559087 0.06658889 0.06671041 0.06630388
 0.06568685 0.06503733 0.06444158 0.06412257 0.0643875 0.06519579 0.06605405 0.06651269 0.06654003 0.06630395
 0.06584597 0.06513468 0.06429613 0.06363542 0.06342208 0.06368759 0.06424134 0.06484267 0.06529742 0.0654439
 0.06520863 0.06471069 0.06418455 0.0637674 0.06346141 0.06328948 0.06333707 0.06360408 0.06393496 0.06415413
 0.06420536 0.0641284 0.06396466 0.06373049 0.06344953 0.06317734 0.06299652 0.06297041 0.06307364 0.06319755
 0.0632675 0.06331632 0.06338897 0.06342636 0.06332658 0.06309368 0.06284894 0.06270334 0.06267024 0.06269245
 0.06269984 0.0626231 0.06239514 0.06200781 0.06158454 0.06133386 0.06138021 0.06166915 0.06205354 0.06240995
 0.06265525 0.06274332 0.06270099 0.06260958 0.06251159 0.06237389 0.06216311 0.06192859 0.06179202 0.06185014
 0.06208059 0.06235542 0.06255541 0.06264772 0.06265837 0.06262919 0.06261217 0.06263941 0.06267627 0.06265467
 0.06256503 0.06247508 0.06245309 0.06249835 0.06254603 0.0625327 0.06246557 0.06241965 0.0624533 0.06254576
 0.06263578 0.06269639 0.06274667 0.06280382 0.0628434 0.06281313 0.06269363 0.0625384 0.06242964 0.0623965
 0.06240683 0.06243385 0.06248965 0.06258433 0.06268652 0.06274594 0.06274614 0.06271887 0.06270064 0.06268474
 0.06263294 0.06253248 0.06241977 0.06234313 0.06231902 0.06232862 0.06234097 0.06233319 0.06229824 0.06224144
 0.06217067 0.06208903 0.06199475 0.06189064 0.0617982 0.06175435 0.06177673 0.06183081 0.06184725 0.06178125
 0.06165117 0.06151551 0.06141499 0.06134121 0.06126132 0.06116357 0.06106752 0.06099492 0.0609472 0.06091165
 0.0608744 0.0608268 0.06077709 0.06075972 0.06081313 0.0609337 0.06106367 0.06113997 0.061151 0.06113483
 0.06113096 0.06114951 0.06118206 0.06122423 0.06128456 0.0613766 0.06149736 0.06161423 0.06168969 0.06172401
 0.06175667 0.06182408 0.06193468 0.06208035 0.06224208 0.06238288 0.06246877 0.06250891 0.06255262 0.06263673
 0.06275211 0.06286792 0.06297141 0.06307314 0.06318688 0.06332049 0.06348248 0.06368314 0.06392254 0.06418201
 0.06442891 0.06463259 0.06478578 0.06491916 0.0650876 0.06532757 0.06562359 0.06592025 0.06617057 0.06637371
 0.06656493 0.06677141 0.06698921 0.06721106 0.06745839 0.06776056 0.06810777 0.06845269 0.06876172 0.06904395
 0.06932797 0.06962875 0.06994212 0.07025766 0.07057105 0.07088611 0.07120404 0.07151317 0.07179765 0.0720565
 0.07230645 0.07256824 0.07285437 0.07315893 0.07345008 0.07368916 0.07387617 0.07406271 0.07429717 0.07456692
 0.07481952 0.07503494 0.07524772 0.07549503 0.07577068 0.07604278 0.07629821 0.07655259 0.07682282 0.07710017
 0.07735037 0.07754054 0.07767165 0.0777822 0.07791461 0.07808509 0.07829472 0.07855172 0.07885718 0.0791771
 0.07945701 0.07966603 0.07981149 0.07992011 0.08002517 0.08015957 0.08033542 0.08053336 0.08072334 0.08088546
 0.08100705 0.08108756 0.08115992 0.08127856 0.08146595 0.08169356 0.08193075 0.08218489 0.08247061 0.08276685
 0.0830411 0.08330482 0.08360295 0.08394194 0.08426369 0.08450795 0.08467147 0.08478693 0.08487779 0.08496729
 0.08510427 0.08533302 0.08564006 0.0859621 0.08624714 0.08648755 0.08669833 0.08688606 0.08704592 0.0871768
 0.08728983 0.08740238 0.08753028 0.08768851 0.0878911 0.08813629 0.08839296 0.08861499 0.08877138 0.08885293
 0.08885284 0.08876157 0.08859019 0.08838063 0.08817063 0.08794913 0.08766103 0.08725682 0.08672526 0.08607769
 0.0853204 0.0844563 0.08350874 0.0825336 0.08160523 0.08078949 0.08013268 0.07968143 0.07950243 0.0796525
 0.08010945 0.08074027 0.08134902 0.08175597 0.0818456 0.08157869 0.08098831 0.08015536 0.07916388 0.07806902
 0.0768979 0.07565854 0.07433641 0.07290275 0.07135646 0.06976627 0.06827627 0.06710028 0.06653724 0.06694575
 0.06858397 0.07137778 0.07484804 0.0783296 0.08131769 0.08365017 0.0854324 0.08685753 0.08808647 0.08921094
 0.09025818 0.09121992 0.09209045 0.09288093 0.09360368 0.09425512 0.09481516 0.09525694 0.09556295 0.09574065
 0.09582083 0.09584025 0.09583173 0.09582147 0.09581129 0.09575594 0.09557152 0.09517362 0.09450454 0.09352756
 0.09220799 0.09053836 0.08866929 0.0870813 0.08654678 0.0877182 0.09061616 0.09453622 0.0985053 0.1018408
 0.1043444 0.1061363 0.1074283 0.1084076 0.109205 0.1098951 0.1105144 0.1110813 0.1116078 0.1121047
 0.1125824 0.1130482 0.113506 0.1139567 0.1143952 0.1148113 0.1152001 0.1155711 0.1159435 0.1163315
 0.1167321 0.1171284 0.11751 0.1178889 0.1182818 0.1186779 0.1190448 0.119369 0.119672 0.1199849
 0.120324 0.1206882 0.1210609 0.1214134 0.1217264 0.1220084 0.1222837 0.1225655 0.1228499 0.1231322
 0.1234163 0.1237062 0.123998 0.1242886 0.1245854 0.1248967 0.1252103 0.1254944 0.1257277 0.1259261
 0.1261287 0.1263599 0.126611 0.1268587 0.1270978 0.1273493 0.1276377 0.1279618 0.1282923 0.1285944
 0.1288531 0.1290799 0.1293015 0.1295399 0.1297994 0.13007 0.1303381 0.1305955 0.1308427 0.1310886
 0.1313434 0.1316091 0.1318786 0.1321436 0.132401 0.1326511 0.1328936 0.1331298 0.1333662 0.1336142
 0.1338818 0.1341633 0.1344405 0.1346963 0.1349257 0.1351358 0.1353386 0.1355463 0.1357674 0.1360029
 0.136248 0.1364986 0.136754 0.1370139 0.137276 0.1375361 0.1377914 0.1380432 0.1382961 0.1385519
 0.138806 0.1390549 0.1393033 0.1395576 0.1398162 0.1400709 0.1403169 0.1405567 0.1407955 0.1410369
 0.1412829 0.1415349 0.1417928 0.1420541 0.1423122 0.1425597 0.1427946 0.143023 0.1432557 0.1434995
 0.1437523 0.1440046 0.1442491 0.1444867 0.1447219 0.1449571 0.1451935 0.1454322 0.1456724 0.145911
 0.1461476 0.1463838 0.1466215 0.1468624 0.1471072 0.1473536 0.147597 0.1478361 0.1480735 0.1483119
 0.1485505 0.1487872 0.149021 0.1492521 0.1494813 0.1497101 0.1499401 0.1501737 0.1504133 0.1506601
 0.1509129 0.1511668 0.1514151 0.1516559 0.1518958 0.1521428 0.1523955 0.1526466 0.152892 0.1531317
 0.1533684 0.1536056 0.1538465 0.1540911 0.1543365 0.1545791 0.1548139 0.1550391 0.1552605 0.1554855
 0.155714 0.1559412 0.1561654 0.1563915 0.1566263 0.1568709 0.1571175 0.1573583 0.157597 0.1578415
 0.1580902 0.1583377 0.1585874 0.1588436 0.1590988 0.1593422 0.1595733 0.1597991 0.1600259 0.1602603
 0.1605081 0.1607699 0.1610411 0.1613149 0.1615825 0.1618388 0.162086 0.1623295 0.1625739 0.1628238
 0.1630772 0.1633209 0.163547 0.1637673 0.1639988 0.1642448 0.1644998 0.1647581 0.165012 0.1652552
 0.1654898 0.1657201 0.1659488 0.1661833 0.1664313 0.1666865 0.1669383 0.1671879 0.1674403 0.1676927
 0.1679423 0.1681901 0.1684337 0.1686712 0.1689094 0.1691506 0.1693863 0.1696129 0.1698338 0.17004
 0.1701903 0.1701691 0.1696938 0.1682214 0.1649419 0.1589406 0.1495655 0.1368489 0.1216437 0.1053142
 0.08923455 0.0744423 0.06154831 0.05081632 0.04229002 0.03588082 0.03143067 0.02880942 0.02801064 0.02924386
 0.03303465 0.03991631 0.04927014 0.05829231 0.06307856 0.06170391 0.05606404 0.05014851 0.04672242 0.04598221
 0.0467401 0.04797585 0.04936228 0.05108636 0.05347666 0.05663567 0.06041661 0.06481413 0.07016225 0.07671532
 0.08413266 0.09161377 0.09858776 0.1051679 0.1118893 0.1190684 0.1264708 0.1335416 0.1398503 0.1453134
 0.1501077 0.1544691 0.1585547 0.1624332 0.1661366 0.16966 0.1728807 0.1755236 0.1772927 0.1780972
 0.1781608 0.1778957 0.1776572 0.1776029 0.17774 0.1780369 0.1784708 0.1790219 0.1796713 0.1804025
 0.1811944 0.1820192 0.1828504 0.1836639 0.1844376 0.1851593 0.1858277 0.1864426 0.1870038 0.187517
 0.1879921 0.1884372 0.1888575 0.1892568 0.1896361 0.1899969 0.190343 0.1906741 0.1909812 0.1912565
 0.1915045 0.1917385 0.1919689 0.1921989 0.1924274 0.1926537 0.1928786 0.1931017 0.1933204 0.1935357
 0.1937562 0.1939888 0.1942301 0.1944706 0.1947027 0.1949212 0.1951233 0.1953139 0.1955062 0.1957127
 0.195937 0.1961728 0.1964066 0.1966245 0.1968225 0.1970094 0.1972002 0.197406 0.1976254 0.1978458
 0.19806 0.1982815 0.1985292 0.1988015 0.1990772 0.1993379 0.199576 0.1997921 0.1999997 0.2002194
 0.2004527 0.2006744 0.2008612 0.201022 0.2011918 0.2014001 0.2016447 0.2018959 0.2021304 0.2023539
 0.2025811 0.2028097 0.203025 0.2032207 0.2034075 0.2036115 0.2038578 0.2041446 0.2044422 0.2047266
 0.2049958 0.2052514 0.205495 0.2057408 0.2059987 0.2062433 0.2064381 0.2065934 0.2067793 0.2070691
 0.2074668 0.2078914 0.2082487 0.2085174 0.2087482 0.2089959 0.209283 0.2095881 0.2098256 0.2098977
 0.2098416 0.2098686 0.2101733 0.2107355 0.2113667 0.2119053 0.2123165 0.2126459 0.2129365 0.2131844
 0.213344 0.213382 0.2133539 0.2134211 0.2137391 0.2142949 0.2149034 0.2153958 0.2157541 0.2160408
 0.2162926 0.2165167 0.2166684 0.2166065 0.216236 0.2157715 0.2156873 0.2162654 0.2172781 0.2182275
 0.2188373 0.2192005 0.2195069 0.2198078 0.2200605 0.2201691 0.2198837 0.2189466 0.2175949 0.2166958
 0.2170328 0.2185186 0.2203364 0.2217514 0.2225772 0.2230026 0.2232698 0.2235089 0.2236419 0.2233947
 0.2226008 0.2216009 0.2211599 0.2217646 0.2230785 0.2243024 0.22499 0.2252887 0.225517 0.2258032
 0.2259993 0.2256443 0.2242279 0.2219471 0.2200865 0.2201161 0.2222549 0.2252064 0.2274398 0.228503
 0.2289065 0.229003 0.2284685 0.2268917 0.224401 0.2216096 0.2194229 0.2189147 0.220616 0.223626
 0.2261232 0.2271648 0.2274844 0.2282829 0.2297914 0.2312873 0.2320304 0.2318318 0.2309209 0.2295403
 0.2278322 0.2262118 0.225594 0.2267476 0.2293609 0.2321503 0.2340464 0.235004 0.235444 0.2350047
 0.2322895 0.2265426 0.2197509 0.2161044 0.2183033 0.2247357 0.2312124 0.235091 0.2367285 0.2375148
 0.237995 0.2377194 0.2355151 0.2301354 0.2222418 0.2156351 0.2146862 0.2200178 0.2277963 0.2332994
 0.2341217 0.2304313 0.2241377 0.2183302 0.2160149 0.2182881 0.2238535 0.2303058 0.2355807 0.2385211
 0.2388575 0.2370958 0.2344894 0.2327389 0.2327565 0.2333144 0.2319747 0.228167 0.2241392 0.2216655
 0.2193164 0.2151152 0.2108637 0.2109561 0.2166598 0.2239936 0.2281913 0.2285308 0.227506 0.2262994
 0.2227868 0.2146109 0.2036374 0.1960636 0.1969977 0.205158 0.214008 0.2181425 0.2175855 0.215914
 0.2154761 0.215001 0.2114237 0.2038914 0.1958134 0.1920242 0.1936803 0.1972329 0.198653 0.1966857
 0.191509 0.1834076 0.1749946 0.1720611 0.1787013 0.1922944 0.2055446 0.2124889 0.2107064 0.2000318
 0.1833396 0.1682133 0.1632725 0.1704909 0.1828077 0.1906096 0.1893818 0.1805624 0.1674033 0.1526773
 0.1398996 0.1337891 0.1374466 0.1491734 0.1625879 0.1698886 0.1661845 0.1532211 0.1395453 0.1343816
 0.1393512 0.1474141 0.1507546 0.1478542 0.1424444 0.1386134 0.1383867 0.1414497 0.1455382 0.1485221
 0.1501029 0.1495893 0.1436443 0.1303286 0.1146169 0.105163 0.1052986 0.1113036 0.1193375 0.1288756
 0.1382386 0.1422579 0.1381142 0.1307071 0.1284888 0.1344994 0.1437597 0.1493398 0.1492036 0.1465947
 0.1450086 0.1444492 0.143165 0.1417061 0.1430892 0.1486295 0.1556247 0.1603509 0.1619329 0.1620283
 0.1619882 0.1618228 0.1611673 0.1598934 0.1580345 0.1558802 0.1538929 0.152155 0.1502511 0.1478185
 0.1446027 0.139798 0.1323265 0.1227274 0.1141637 0.1100566 0.1106253 0.1131941 0.1158691 0.1185257
 0.1195068 0.114727 0.1029231 0.08993865 0.08450383 0.0898542 0.1013302 0.1116782 0.1165897 0.1151266
 0.1076459 0.095971 0.08508675 0.08159634 0.08853515 0.1026702 0.118035 0.1308905 0.1401167 0.1446979
 0.1435277 0.1376295 0.1308224 0.1275686 0.1303805 0.1387235 0.1491017 0.1558703 0.1540288 0.1442839
 0.1353775 0.1376067 0.1519018 0.168132 0.1764742 0.1773881 0.1775064 0.1793091 0.1799294 0.1785512
 0.1793126 0.1855878 0.1949456 0.2015335 0.2012623 0.1934289 0.1800116 0.1659292 0.1578214 0.1588747
 0.1653331 0.1706611 0.171897 0.1692757 0.1623433 0.1515903 0.142645 0.1428815 0.1528151 0.165004
 0.1725432 0.1754004 0.1773276 0.179388 0.1786869 0.1727995 0.1638527 0.157225 0.1562703 0.1594049
 0.162801 0.1643913 0.1639916 0.1611257 0.1553089 0.148466 0.1448967 0.1476056 0.1552556 0.1634392
 0.1686091 0.1702901 0.1700589 0.1694562 0.1689128 0.1678822 0.165942 0.1642226 0.1651732 0.1699188
 0.1764027 0.1814591 0.1844203 0.1873391 0.1917535 0.196542 0.1992806 0.19891 0.1967811 0.1955144
 0.1969176 0.2005443 0.2040032 0.2049783 0.2034215 0.2017957 0.2027945 0.206758 0.2116327 0.2152999
 0.2173055 0.2184057 0.2193066 0.2200652 0.2200516 0.2184227 0.2153231 0.2126122 0.2125636 0.215617
 0.2199537 0.2233621 0.2250045 0.2253331 0.224936 0.2239135 0.222217 0.2202036 0.2186219 0.2180554
 0.2185198 0.2196234 0.2209548 0.2222488 0.2233599 0.2242461 0.2249503 0.2255344 0.2260518 0.2265671
 0.2271146 0.2276289 0.2280103 0.2282866 0.2286258 0.2291348 0.2297102 0.2301509 0.2303506 0.2302941
 0.2299268 0.2291657 0.2280441 0.2267187 0.2252916 0.2237316 0.2220769 0.2206723 0.2200775 0.2206494
 0.2222186 0.2241999 0.2259997 0.2273096 0.2281033 0.2284962 0.2286467 0.2286999 0.2287376 0.2287654
 0.2287604 0.2287232 0.2286799 0.2286492 0.2286298 0.2286251 0.2286602 0.2287578 0.2289015 0.2290332
 0.2290892 0.2290398 0.2289046 0.2287342 0.2285649 0.228382 0.2281301 0.2277565 0.2272445 0.2266183
 0.2259288 0.2252329 0.2245619 0.2239004 0.2232044 0.2224383 0.2215767 0.2205777 0.2194033 0.2180936
 0.2167746 0.2155552 0.2144363 0.2133413 0.2121992 0.2109744 0.2096567 0.208262 0.2068303 0.2053995
 0.2039843 0.2025789 0.2011671 0.1997301 0.1982556 0.1967419 0.1951883 0.1935907 0.1919477 0.1902579
 0.1884987 0.1866052 0.184475 0.1819978 0.1790884 0.175702 0.1718437 0.1675806 0.163043 0.1583952
 0.1537906 0.1493461 0.145158 0.1413429 0.1380474 0.1353989 0.1334415 0.1321336 0.1314081 0.1312231
 0.1315649 0.1324206 0.1337495 0.1354654 0.1374394 0.1395233 0.1415717 0.1434634 0.1451341 0.1466033
 0.147958 0.1492892 0.150629 0.151945 0.1531892 0.1543337 0.1553582 0.1562304 0.1569246 0.1574499
 0.1578438 0.158142 0.1583677 0.158538 0.1586673 0.1587682 0.1588542 0.1589432 0.159059 0.1592268
 0.1594611 0.1597593 0.1601116 0.1605142 0.1609737 0.1615056 0.1621242 0.1628296 0.1636081 0.1644493
 0.1653498 0.1663054 0.1673244 0.1684469 0.1697251 0.1711798 0.1727899 0.1745137 0.1762959 0.1780612
 0.1797222 0.1812039 0.1824638 0.1834997 0.1843411 0.1850322 0.1856184 0.1861347 0.1865916 0.1869755
 0.1872751 0.1874976 0.1876568 0.1877597 0.1878055 0.1877865 0.1876884 0.187508 0.187269 0.1870074
 0.186748 0.1865009 0.1862717 0.1860646 0.1858767 0.1856953 0.1855025 0.1852874 0.1850484 0.184782
 0.1844767 0.1841228 0.1837105 0.1832159 0.1826096 0.1818866 0.1810738 0.1801994 0.179267 0.1782615
 0.1771717 0.1760011 0.1747577 0.1734402 0.1720415 0.1705601 0.1689917 0.16732 0.1655479 0.1637345
 0.1619706 0.1603095 0.1587459 0.1572581 0.1558423 0.1545008 0.1532197 0.1519734 0.1507452 0.1495415
 0.1483877 0.1473112 0.146323 0.1454088 0.1445434 0.1437261 0.1429934 0.1423791 0.1418718 0.1414319
 0.1410396 0.1407008 0.1404215 0.1402072 0.1400722 0.1400151 0.139989 0.1399178 0.1397499 0.1394938
 0.1392058 0.1389441 0.1387341 0.1385708 0.1384346 0.1382845 0.1380553 0.1376777 0.1370943 0.1362523
 0.135116 0.1337021 0.13209 0.130391 0.1287181 0.127168 0.1258072 0.1246683 0.1237564 0.1230475
 0.1224896 0.1220313 0.1216598 0.1214055 0.1213083 0.121358 0.1214541 0.121461 0.121336 0.1211819
 0.1211511 0.1213214 0.1216628 0.1220743 0.1224434 0.1227122 0.1228978 0.1230422 0.1231618 0.1232466
 0.123271 0.123203 0.1230332 0.1227908 0.1225115 0.1222079 0.1218779 0.1215072 0.1210661 0.1205324
 0.1199087 0.1192003 0.1184077 0.1175377 0.116581 0.1155068 0.1143492 0.1132844 0.112555 0.1123117
 0.1125228 0.1130028 0.1135467 0.1140709 0.1145709 0.1149317 0.1149525 0.1147035 0.1147224 0.1156211
 0.1174664 0.1196697 0.1215045 0.1226245 0.1230721 0.1229823 0.1224423 0.1215238 0.1202555 0.1185962
 0.1165403 0.1141877 0.1116584 0.109058 0.1065448 0.1042905 0.1023738 0.1007947 0.09953821 0.09863831
 0.09820478 0.09792835 0.09626719 0.09125967 0.08354585 0.07772198 0.0784964 0.08541004 0.09314429 0.09714393
 0.09725463 0.09587619 0.09467619 0.09392235 0.09355007 0.09367774 0.09438869 0.09554154 0.09680462 0.09784292
 0.09851995 0.09886722 0.09884937 0.09818182 0.0962899 0.09250046 0.08658589 0.07925153 0.07189506 0.06578274
 0.06148425 0.05890683 0.05757683 0.05691475 0.05651199 0.05630619 0.05650224 0.05731982 0.058811 0.06087842
 0.06337479 0.06609002 0.06869265 0.0708629 0.07253153 0.07386233 0.07497498 0.07580494 0.07623993 0.07626785
 0.07596891 0.07545063 0.07481312 0.07412192 0.07337722 0.0725254 0.0715547 0.07059912 0.06987961 0.06949639
 0.0693462 0.06927526 0.06922126 0.06918016 0.06914242 0.06910194 0.06906605 0.06906259 0.06916908 0.06946748
 0.06992299 0.07037426 0.07068127 0.07084195 0.07095392 0.07106766 0.07106757 0.07077166 0.07021974 0.06972022
 0.06944717 0.06914493 0.06847334 0.06754044 0.06683907 0.06669485 0.06697828 0.06733751 0.06753069 0.06751807
 0.06741014 0.06742319 0.0677551 0.06834777</values></Ydata></ScSm><ScRf><Ydata ylabel="Single channel"><values byteorder="INTEL" format="FLOAT32" numvalues="1820"> 0.06070848 0.06086327 0.06095679 0.0609858 0.06097341 0.06096929 0.06102998 0.06118157 0.06139559 0.06160262
 0.061741 0.06179878 0.06179997 0.06175872 0.06168076 0.06161053 0.06162908 0.06177693 0.06199756 0.06217376
 0.06222126 0.06216203 0.06211177 0.06216506 0.06226996 0.06224068 0.06193219 0.06140747 0.0609013 0.06060524
 0.06054372 0.06070624 0.06116898 0.06187947 0.06240412 0.06223361 0.06142235 0.06062465 0.06036822 0.06054626
 0.06072181 0.06063761 0.06029791 0.05986399 0.05969245 0.06023963 0.06161138 0.06319152 0.06386217 0.06270804
 0.05967228 0.05576368 0.05268117 0.05190092 0.05363908 0.05656029 0.05877881 0.05936085 0.05877271 0.05792545
 0.05718876 0.05650774 0.05604994 0.05625248 0.05722482 0.0583289 0.05850681 0.05719482 0.05499515 0.05324091
 0.05277222 0.0534125 0.05468966 0.0563503 0.057636 0.05687327 0.05312171 0.04825518 0.04612628 0.04890829
 0.05477708 0.05968571 0.06095788 0.05880264 0.05515958 0.05208676 0.05096496 0.05212533 0.05480763 0.05779023
 0.06012535 0.0611784 0.06046083 0.05805752 0.05504994 0.05299602 0.05297394 0.05515673 0.05877514 0.06218943
 0.06363252 0.0625115 0.0598039 0.05702999 0.05525243 0.05506912 0.05676162 0.06000905 0.06386984 0.06731835
 0.0696562 0.07059255 0.0703191 0.06939115 0.06830335 0.0673921 0.06711616 0.06778052 0.06879207 0.06888378
 0.06748879 0.06549868 0.0643482 0.06453389 0.06521937 0.06525406 0.06433983 0.06284903 0.06068531 0.05724729
 0.05280513 0.04888618 0.04674974 0.04641915 0.04758077 0.05007933 0.05285687 0.0538899 0.0524015 0.05027678
 0.05019816 0.05278568 0.05627495 0.05867134 0.05959905 0.06016365 0.06152871 0.06372491 0.06550217 0.06527185
 0.06268028 0.0594953 0.05835714 0.06018422 0.0632864 0.06544398 0.06625402 0.06688216 0.06803426 0.06886365
 0.06785592 0.06462999 0.06089489 0.05938224 0.06145961 0.06575901 0.06917334 0.06915502 0.06542984 0.06005237
 0.05580783 0.05428763 0.05547486 0.05881463 0.06382191 0.06950974 0.07413595 0.07617868 0.07543524 0.07294337
 0.06979303 0.06611624 0.06164648 0.05739745 0.05587814 0.05873241 0.06463946 0.07040915 0.07382557 0.07475639
 0.07392158 0.07153094 0.06748404 0.06268956 0.05950586 0.05991387 0.06313126 0.06604768 0.06647867 0.06516065
 0.06416215 0.06430564 0.06485239 0.06508501 0.06534238 0.06644672 0.06852404 0.07068981 0.0718997 0.07189519
 0.07125297 0.07071656 0.07051972 0.07020931 0.06928279 0.06818913 0.06828175 0.07033362 0.07347159 0.07607307
 0.07739688 0.07785612 0.07792629 0.07730427 0.07533967 0.07224964 0.06961851 0.06922325 0.07131591 0.07446274
 0.07703446 0.07838067 0.07868549 0.07837766 0.07783471 0.07726207 0.07676192 0.0765975 0.07712242 0.07827708
 0.07947609 0.08019313 0.08039108 0.08025989 0.07984352 0.07911928 0.07826681 0.0776668 0.07762623 0.07815131
 0.07899807 0.07988982 0.08061093 0.08096308 0.08083584 0.08036293 0.07984649 0.07948102 0.07928029 0.07926413
 0.07952341 0.08004523 0.08062704 0.08104788 0.08124626 0.08128718 0.08123158 0.0810934 0.08088896 0.08068927
 0.08061514 0.08074978 0.08103719 0.08132169 0.0815297 0.0817425 0.08202583 0.08227099 0.08230861 0.08213359
 0.08191942 0.08182829 0.08188062 0.08199821 0.08209489 0.0820915 0.08190425 0.08151706 0.08108511 0.0808797
 0.08107077 0.08160222 0.08228871 0.08295099 0.08344786 0.08370094 0.08375131 0.08371839 0.08366378 0.08354802
 0.08333705 0.08310625 0.08301914 0.08320285 0.08363166 0.08413753 0.08454619 0.08478596 0.0848813 0.08491357
 0.08499272 0.08517493 0.08537801 0.085455 0.08537729 0.08528008 0.08530235 0.08543082 0.08552957 0.08550295
 0.08540642 0.08538724 0.08552571 0.08576162 0.08598173 0.08614546 0.08630237 0.08649985 0.08669299 0.08676426
 0.08665163 0.08643918 0.08627631 0.08622035 0.08622009 0.08624705 0.08635519 0.08657682 0.08682808 0.08697937
 0.0869984 0.0869754 0.08700404 0.08707167 0.08708459 0.0869809 0.08679582 0.08662555 0.08654977 0.08658448
 0.08668287 0.08676825 0.08677901 0.08670246 0.08657593 0.08645187 0.08636038 0.08631341 0.08634144 0.0864906
 0.08675001 0.08699819 0.08707125 0.08691108 0.08663258 0.08642209 0.08636568 0.08638388 0.08633114 0.0861416
 0.08587062 0.08561651 0.08543121 0.08530398 0.08520095 0.08510534 0.08503677 0.08504456 0.08515942 0.08532762
 0.08541481 0.08531584 0.08505961 0.08477874 0.08458565 0.08450308 0.08449146 0.08450158 0.08451228 0.0845461
 0.08463083 0.084731 0.08475824 0.08467487 0.08454868 0.08448622 0.08454896 0.08473428 0.08497643 0.0851564
 0.08517855 0.08506767 0.08494914 0.08491831 0.08496745 0.08504333 0.08512413 0.08521539 0.08531129 0.08539965
 0.0854955 0.08564088 0.08586366 0.08614232 0.08641109 0.08660321 0.08670481 0.08677699 0.08691573 0.08717416
 0.08751857 0.08785994 0.08812861 0.08832246 0.0884881 0.08866157 0.08884086 0.08902317 0.08924224 0.08953508
 0.08988305 0.09022359 0.09051971 0.09078754 0.09105682 0.09133619 0.09162422 0.09193482 0.0922976 0.09272669
 0.09318209 0.09357365 0.09382843 0.09396055 0.0940666 0.09425509 0.09457426 0.09497355 0.09532355 0.09551713
 0.09558277 0.09566557 0.09586735 0.09614248 0.09638854 0.09660093 0.09687752 0.09727944 0.09773983 0.09812767
 0.09837681 0.09853661 0.09870405 0.0989176 0.09912471 0.09925696 0.09932077 0.09938814 0.09950659 0.09966557
 0.09986327 0.1001489 0.1005532 0.1010126 0.1014146 0.1017006 0.1018897 0.1020235 0.1021277 0.1022101
 0.1022641 0.1022868 0.1023084 0.1023731 0.1024761 0.1025576 0.1025833 0.1025946 0.1026585 0.1028015
 0.1030179 0.1033025 0.1036349 0.1039582 0.1042301 0.1044892 0.1048158 0.105206 0.105539 0.1057061
 0.1057329 0.1057276 0.1057476 0.1057811 0.105838 0.1059777 0.1062353 0.1065747 0.1069354 0.1072901
 0.1076417 0.1079867 0.1082944 0.1085166 0.1086189 0.1086152 0.1085727 0.1085781 0.1086945 0.1089325
 0.109249 0.1095737 0.1098498 0.1100467 0.1101421 0.1101268 0.1100494 0.110023 0.1101351 0.1103472
 0.1105136 0.1105041 0.1102883 0.109904 0.109387 0.108758 0.1080621 0.1073881 0.106832 0.1064458
 0.1062343 0.1062053 0.1064018 0.1068537 0.1075036 0.1082167 0.108869 0.1093877 0.1097018 0.1097148
 0.1093777 0.1087604 0.1080129 0.1072684 0.1065954 0.1060018 0.1054492 0.1048967 0.1043811 0.104051
 0.1040979 0.1046454 0.1056884 0.1070964 0.108653 0.1101257 0.1113578 0.1123248 0.1131064 0.1137989
 0.1144572 0.1151082 0.1157784 0.1164715 0.1171362 0.1177041 0.1181635 0.1185658 0.1189589 0.1193426
 0.1196867 0.119965 0.1201805 0.1203723 0.120581 0.1207885 0.1209189 0.1209214 0.1208275 0.1207041
 0.1205742 0.1204038 0.1201446 0.1197751 0.1193312 0.1189288 0.1187498 0.1189666 0.1196433 0.1206941
 0.1219465 0.1232523 0.1245268 0.1256951 0.1266565 0.1273438 0.1277898 0.1280992 0.1283665 0.1286398
 0.1289353 0.129248 0.1295569 0.1298442 0.1301152 0.1303965 0.1307153 0.1310736 0.1314346 0.1317449
 0.1319843 0.1321942 0.1324473 0.1327859 0.1331833 0.1335699 0.1339043 0.1342093 0.134523 0.134832
 0.1350865 0.1352739 0.1354407 0.1356441 0.1359138 0.1362499 0.1366194 0.1369571 0.137209 0.1373839
 0.1375421 0.1377326 0.1379602 0.1382066 0.1384581 0.1387082 0.1389564 0.1392175 0.1395157 0.1398503
 0.1401719 0.140415 0.1405619 0.1406638 0.1407939 0.1409853 0.1412151 0.1414415 0.1416505 0.1418697
 0.1421367 0.1424518 0.1427658 0.1430186 0.1431908 0.1433146 0.1434405 0.1435997 0.1437939 0.1440088
 0.1442279 0.1444384 0.1446367 0.1448313 0.1450364 0.1452569 0.1454834 0.1457022 0.145908 0.1461059
 0.1463026 0.1465009 0.1467074 0.1469425 0.147228 0.1475554 0.1478739 0.1481259 0.1482945 0.1484081
 0.1485069 0.1486193 0.1487623 0.1489415 0.1491461 0.1493569 0.149563 0.1497657 0.1499677 0.1501675
 0.1503643 0.1505631 0.1507699 0.1509856 0.1512078 0.1514366 0.1516737 0.1519138 0.1521438 0.1523528
 0.1525419 0.152722 0.152905 0.1530982 0.1532992 0.1534983 0.1536884 0.1538713 0.1540536 0.1542386
 0.1544262 0.154616 0.1548086 0.1550052 0.1552047 0.1554024 0.1555946 0.155784 0.1559783 0.1561815
 0.1563916 0.1566038 0.1568125 0.1570128 0.1572037 0.1573895 0.1575745 0.157761 0.1579507 0.1581459
 0.1583465 0.1585489 0.1587487 0.1589453 0.1591405 0.1593344 0.1595252 0.1597146 0.1599089 0.160112
 0.1603223 0.1605361 0.1607502 0.1609638 0.1611802 0.1614029 0.1616278 0.161844 0.162047 0.1622434
 0.1624438 0.1626541 0.162873 0.1630946 0.1633142 0.1635319 0.1637491 0.1639644 0.1641753 0.1643807
 0.1645775 0.1647627 0.1649369 0.1651031 0.1652634 0.1654217 0.1655827 0.1657478 0.1659182 0.1661021
 0.1663059 0.1665225 0.1667367 0.1669415 0.1671407 0.1673429 0.167553 0.1677689 0.1679829 0.1681897
 0.1683878 0.1685777 0.1687649 0.1689601 0.1691672 0.169379 0.1695903 0.1698044 0.1700228 0.1702417
 0.1704581 0.1706707 0.170879 0.1710882 0.1713043 0.1715215 0.1717287 0.1719261 0.1721233 0.1723276
 0.1725402 0.1727574 0.172971 0.173177 0.173382 0.1735918 0.1738042 0.1740181 0.1742348 0.1744519
 0.1746661 0.1748784 0.1750855 0.1752832 0.1754807 0.1756924 0.1759164 0.1761417 0.1763671 0.176595
 0.1768225 0.1770473 0.1772639 0.177448 0.1775521 0.1774679 0.1769157 0.175326 0.1718326 0.1654643
 0.1555478 0.1421427 0.1261639 0.1090457 0.09221599 0.07674231 0.06325002 0.05201448 0.04309103 0.03639546
 0.03176373 0.02905386 0.02824725 0.02954989 0.03350537 0.04067492 0.05041856 0.05981174 0.06478274 0.06333072
 0.05744059 0.05127107 0.04769289 0.04689926 0.04765493 0.04891342 0.05034795 0.05215119 0.05465189 0.05794743
 0.06188694 0.06647208 0.07205302 0.07888835 0.08661428 0.09439359 0.101636 0.108467 0.1154478 0.1229065
 0.1305949 0.1379337 0.1444795 0.1501505 0.1551327 0.1596694 0.1639216 0.1679568 0.1718037 0.1754559
 0.1787915 0.1815331 0.1833759 0.1842161 0.1842689 0.1839518 0.1836415 0.1835224 0.1836166 0.1838897
 0.1843111 0.1848632 0.1855352 0.1863077 0.1871402 0.1879856 0.1888158 0.1896205 0.1903904 0.1911151
 0.1917894 0.1924127 0.1929885 0.1935217 0.194015 0.1944684 0.1948862 0.1952766 0.1956434 0.1959886
 0.1963199 0.1966446 0.1969575 0.197244 0.1974943 0.1977119 0.1979115 0.19811 0.1983148 0.1985237
 0.1987355 0.1989522 0.1991694 0.1993785 0.199581 0.1997883 0.2000069 0.2002302 0.2004464 0.2006476
 0.2008342 0.2010133 0.2011926 0.2013737 0.2015564 0.2017436 0.2019367 0.2021316 0.2023239 0.2025131
 0.2027021 0.2028951 0.203094 0.2032936 0.2034879 0.2036824 0.2038907 0.2041131 0.2043342 0.204544
 0.2047488 0.2049604 0.2051845 0.2054159 0.2056355 0.2058199 0.2059656 0.2061003 0.2062633 0.2064723
 0.2067095 0.2069407 0.2071485 0.207343 0.2075405 0.2077415 0.2079341 0.208108 0.2082673 0.208438
 0.2086522 0.2089127 0.2091898 0.2094587 0.2097163 0.2099605 0.210186 0.2104034 0.2106254 0.2108335
 0.210994 0.2111144 0.2112612 0.2115063 0.2118561 0.2122379 0.2125663 0.212818 0.2130297 0.2132468
 0.2134957 0.2137615 0.2139548 0.2139727 0.2138603 0.2138446 0.2141264 0.2146763 0.2152901 0.215797
 0.2161645 0.2164463 0.2166924 0.216902 0.2170307 0.2170439 0.216991 0.217026 0.2173022 0.2178146
 0.2183895 0.2188601 0.2191939 0.2194357 0.2196243 0.2197888 0.2198991 0.2198 0.2193757 0.2188438
 0.2187008 0.21924 0.2202237 0.221141 0.2217155 0.2220467 0.2223271 0.2226068 0.2228421 0.222934
 0.2226225 0.2216395 0.2202275 0.2192758 0.2195853 0.2210641 0.2228788 0.2242859 0.2250987 0.2255047
 0.2257435 0.2259474 0.2260427 0.2257557 0.2249178 0.2238737 0.2233966 0.2239734 0.2252567 0.2264396
 0.2270851 0.2273591 0.2275896 0.2278952 0.2281038 0.2277257 0.2262348 0.2238455 0.2218919 0.221889
 0.2240568 0.227057 0.2293172 0.2303789 0.2307732 0.2308661 0.23032 0.2287054 0.2261519 0.2232928
 0.2210569 0.2205322 0.2222469 0.2252754 0.2277653 0.2287657 0.2290339 0.2298032 0.2313164 0.2328348
 0.2335907 0.2333801 0.2324342 0.2310037 0.2292393 0.2275735 0.2269425 0.2281207 0.2307769 0.2335993
 0.2355056 0.2364594 0.2368933 0.2364361 0.2336603 0.2277959 0.2208707 0.217152 0.2193833 0.225917
 0.232485 0.2364016 0.2380422 0.2388314 0.2393211 0.2390453 0.2368113 0.2313571 0.223353 0.2166497
 0.2156762 0.2210614 0.2289228 0.2344864 0.2353243 0.2316058 0.2252593 0.219409 0.2170927 0.219418
 0.2250785 0.2316458 0.2370245 0.2400312 0.2403882 0.2386141 0.2359926 0.2342557 0.2343211 0.2349297
 0.233607 0.2297826 0.2257376 0.2232704 0.220939 0.2167477 0.2125235 0.2127166 0.2186044 0.2261404
 0.2304917 0.2309382 0.2300161 0.2289155 0.2254662 0.217271 0.2062402 0.1987056 0.199883 0.2084489
 0.2177144 0.2221748 0.221892 0.2205469 0.2205398 0.2205382 0.2173449 0.2100586 0.2022272 0.1988816
 0.2011967 0.2054452 0.2074274 0.2058323 0.2008123 0.192645 0.184119 0.1814138 0.1889113 0.2038526
 0.2184795 0.226418 0.2250417 0.2141211 0.1967222 0.1810578 0.176502 0.1852051 0.1994793 0.2088567
 0.2084062 0.1996549 0.1861137 0.1708458 0.157861 0.1526232 0.1588112 0.1745627 0.1924286 0.2030678
 0.2004392 0.1865256 0.1717752 0.1676037 0.1759932 0.1880779 0.1940389 0.1920052 0.186735 0.1835131
 0.1850878 0.1910958 0.1984502 0.2042692 0.2081856 0.2090906 0.2020384 0.1841873 0.1626768 0.1499155
 0.1507012 0.1597955 0.1718271 0.1861037 0.2001082 0.2062148 0.2002773 0.1894579 0.1861019 0.1946286
 0.207761 0.215426 0.2147242 0.210438 0.2076845 0.2064877 0.2043143 0.2019476 0.2037182 0.211513
 0.2214792 0.228329 0.2308475 0.2314168 0.2319719 0.2325311 0.2325635 0.2318734 0.2305277 0.2289966
 0.2280065 0.2277203 0.2275854 0.2271672 0.2261268 0.222964 0.2153424 0.2033677 0.191665 0.1857087
 0.1860224 0.1885593 0.1907248 0.1929002 0.1928404 0.1840748 0.1644507 0.1431686 0.1340875 0.1423335
 0.1604857 0.1770468 0.1852469 0.1836407 0.1727054 0.1550631 0.1382013 0.1320927 0.1410523 0.1595998
 0.1783201 0.1919648 0.1999933 0.2020573 0.1970462 0.1863128 0.1749281 0.1687682 0.1709589 0.1805202
 0.1926674 0.2000118 0.1961997 0.1822601 0.1693596 0.1705193 0.1869293 0.2059168 0.2151912 0.2152723
 0.2143892 0.2156944 0.2157592 0.2136245 0.2143698 0.2221874 0.234244 0.2434793 0.2448038 0.2371134
 0.2226277 0.2073705 0.1995835 0.2030845 0.2128637 0.2204694 0.2221384 0.2183029 0.2086394 0.1941375
 0.1823136 0.1826846 0.1957517 0.2117902 0.2218932 0.2260814 0.229234 0.2326942 0.2326299 0.225818
 0.2150062 0.2072188 0.2068222 0.2117227 0.2169476 0.2198889 0.2203555 0.2176266 0.2108934 0.2026312
 0.1986268 0.2029629 0.2137743 0.2249518 0.2315726 0.232982 0.2313971 0.2290221 0.2265503 0.2233212
 0.2187965 0.214475 0.2135973 0.2176836 0.2241161 0.2288364 0.2309976 0.2332366 0.2375288 0.2424572
 0.2449308 0.2435558 0.2399572 0.2373574 0.2379957 0.2413646 0.244593 0.2448879 0.2421815 0.2394417
 0.2399416 0.2441325 0.2495669 0.2536903 0.255933 0.2571771 0.2582435 0.2591678 0.259171 0.2572435
 0.2535685 0.2503521 0.2502638 0.2537943 0.2587963 0.2627122 0.264643 0.2652005 0.2650969 0.2643947
 0.2629244 0.2609761 0.2593263 0.2586204 0.2589 0.2597596 0.2607744 0.2616907 0.2623957 0.2628849
 0.2632207 0.2634459 0.2635689 0.2636319 0.2636919 0.2637221 0.2636433 0.2634936 0.2634614 0.2636753
 0.2640333 0.2643116 0.2643707 0.2641649 0.2636227 0.2626688 0.2613646 0.2598911 0.2583469 0.2566822
 0.2549425 0.2535312 0.2530839 0.2539852 0.2560109 0.25847 0.2606782 0.2622919 0.2632928 0.2638109
 0.2640108 0.2640513 0.2640423 0.2640086 0.2639121 0.2637168 0.263429 0.2630789 0.2626896 0.2622826
 0.2618985 0.2615786 0.261318 0.2610576 0.2607307 0.2603104 0.2598141 0.2592809 0.2587394 0.2581787
 0.2575486 0.2567984 0.2559234 0.2549753 0.2540343 0.2531657 0.2523811 0.2516342 0.2508658 0.250046
 0.2491579 0.2481597 0.2470214 0.2458139 0.2447037 0.2438176 0.2431328 0.2425203 0.2418644 0.2411132
 0.2402553 0.2393012 0.2382819 0.2372268 0.2361388 0.2350037 0.2338121 0.2325577 0.2312245 0.2297961
 0.2282723 0.2266743 0.2250365 0.223389 0.221722 0.2199586 0.2179741 0.2156437 0.2128668 0.2095622
 0.2056841 0.2012701 0.1964704 0.1915102 0.1866108 0.1819375 0.1776058 0.1737136 0.1703532 0.1675981
 0.1654969 0.1640788 0.16336 0.1633441 0.1640212 0.1653597 0.1672934 0.1697146 0.1724806 0.1754276
 0.1783906 0.1812275 0.1838489 0.1862431 0.1884647 0.1905692 0.1925498 0.1943546 0.1959585 0.1973811
 0.1986369 0.199711 0.2005937 0.2013067 0.2018854 0.2023611 0.2027656 0.2031277 0.2034566 0.2037418
 0.2039741 0.2041638 0.2043374 0.2045197 0.2047214 0.2049465 0.2052086 0.20553 0.2059262 0.2063939
 0.2069116 0.207451 0.207994 0.2085444 0.2091236 0.2097576 0.2104738 0.2113034 0.212276 0.2134051
 0.2146744 0.2160359 0.2174206 0.2187517 0.2199533 0.2209581 0.2217224 0.2222358 0.2225172 0.2226038
 0.2225379 0.2223502 0.2220538 0.2216614 0.2211987 0.2206887 0.2201318 0.2195185 0.2188509 0.2181431
 0.2174121 0.2166802 0.2159713 0.2152924 0.2146304 0.2139734 0.2133258 0.2126988 0.212097 0.2115165
 0.2109502 0.2103887 0.2098217 0.209244 0.2086577 0.2080586 0.2074199 0.2066988 0.2058698 0.2049423
 0.2039376 0.2028548 0.2016745 0.2003877 0.1990094 0.1975625 0.1960569 0.1944895 0.1928579 0.1911608
 0.1893785 0.1874773 0.1854573 0.1833912 0.1813903 0.1795323 0.1778288 0.1762468 0.1747472 0.1733116
 0.1719461 0.1706589 0.1694388 0.1682673 0.1671426 0.1660767 0.1650753 0.1641374 0.1632644 0.162462
 0.1617358 0.1610859 0.1605046 0.1599875 0.1595471 0.1592011 0.1589542 0.1588041 0.1587506 0.1587757
 0.1588275 0.1588483 0.158812 0.1587277 0.1586213 0.1585186 0.1584355 0.1583774 0.1583385 0.158288
 0.1581589 0.1578619 0.1573083 0.1564287 0.1551987 0.1536605 0.1519053 0.1500423 0.1481938 0.1464891
 0.14503 0.1438652 0.1429945 0.142372 0.1419144 0.1415446 0.1412396 0.1410384 0.1410061 0.1411614
 0.1414105 0.1415932 0.1416408 0.1416531 0.1417968 0.1421693 0.1427648 0.143501 0.1442582 0.1449345
 0.1454783 0.1458712 0.1461218 0.1462727 0.1463583 0.1463592 0.1462431 0.1460218 0.145735 0.1454094
 0.1450508 0.1446404 0.1441474 0.143571 0.142937 0.1422462 0.141478 0.1406243 0.139654 0.1385064
 0.1372269 0.1360575 0.1353033 0.135134 0.1355241 0.136307 0.1372863 0.1383463 0.1394025 0.1402325
 0.140559 0.1404619 0.1405669 0.1415888 0.1436538 0.1461671 0.1483476 0.149791 0.1505062 0.1506078
 0.1501623 0.1492215 0.1477891 0.1458003 0.143263 0.140333 0.1371888 0.1339822 0.1309243 0.1282292
 0.1259816 0.1241669 0.1227508 0.121761 0.1213413 0.1211356 0.11924 0.1132112 0.1038617 0.09692305
 0.09819483 0.1070038 0.1166975 0.1216662 0.1217836 0.120054 0.1185392 0.1175494 0.1169878 0.117015
 0.117771 0.1191019 0.1205921 0.1218155 0.1225986 0.1229893 0.1229668 0.1221886 0.119908 0.1152303
 0.1078395 0.09862648 0.08937182 0.08169276 0.07631953 0.07313395 0.07152732 0.07074554 0.07024795 0.06996356
 0.07019942 0.07126705 0.07321037 0.0758667 0.07904622 0.08251043 0.08586168 0.08869381 0.09089546 0.09264275
 0.09407011 0.09509875 0.09560238 0.09559452 0.09520995 0.09459755 0.09387143 0.09309618 0.09224796 0.09122229
 0.08998708 0.08874729 0.0878401 0.08741567 0.08732225 0.08732849 0.08732972 0.08731709 0.08728864 0.08724247
 0.08718947 0.08717033 0.08727719 0.08758906 0.08805741 0.08852207 0.08885407 0.08904339 0.08915695 0.08920617
 0.08903357 0.08843961 0.08752234 0.08670537 0.08621445 0.08571178 0.08474581 0.08343937 0.08241773 0.0820981
 0.08230881 0.08259201 0.08264486 0.0824385 0.0821431 0.08205968 0.08243997 0.0831743 0.0837587 0.08376119
</values></Ydata></ScRf><Data_Parameters_AB><parameter name="DPF">1</parameter><parameter name="NPT">3497</parameter><parameter name="FXV">3996</parameter><parameter name="LXV">500</parameter><parameter name="CSF">1</parameter><parameter name="MXY">0.227148473262787</parameter><parameter name="MNY">0.00199786154553294</parameter><parameter name="DAT">01/06/2022</parameter><parameter name="TIM">11:59:57.158 (GMT+2)</parameter><parameter name="DXU">WN</parameter></Data_Parameters_AB><AB__Qtest><MainReport name="Quality Test Report"><Header><Line><Legend>Test result ok/not ok [1/0]: </Legend><Value>0</Value></Line><Line><Legend>Method file: </Legend><Value>C:\Users\Public\Documents\Bruker\OPUS_8.2.28\QT\IRBT_v3_default.QT</Value></Line></Header><Matrix><Line><Legend></Legend><Legend>min</Legend><Legend>max</Legend><Legend>measured</Legend></Line><Line><Value>Absorption (X-Range 1):</Value><Value>0.400000</Value><Value>2.000000</Value><Value>0.159389</Value></Line><Line><Value>Noise (X-Range 4):</Value><Value></Value><Value>0.000300</Value><Value>0.000038</Value></Line><Line><Value>Signal/Noise (X-Range 2):</Value><Value>200.000000</Value><Value></Value><Value>84.761465</Value></Line><Line><Value>Signal/Noise (X-Range 3):</Value><Value>40.000000</Value><Value></Value><Value>47.098225</Value></Line><Line><Value>Water vapour (X-Range 5):</Value><Value></Value><Value>0.000300</Value><Value>0.000082</Value></Line><Line><Value>Signal/Water (X-Range 2):</Value><Value>100.000000</Value><Value></Value><Value>39.993818</Value></Line><Line><Value>Signal/Water (X-Range 3):</Value><Value>20.000000</Value><Value></Value><Value>22.222809</Value></Line><Line><Value>Fringes (X-Range 6):</Value><Value></Value><Value>0.000100</Value><Value>0.000096</Value></Line></Matrix></MainReport></AB__Qtest><Data_Parameters_ScSm><parameter name="DPF">1</parameter><parameter name="NPT">1814</parameter><parameter name="FXV">3996.33169228125</parameter><parameter name="LXV">499.541461535156</parameter><parameter name="CSF">1</parameter><parameter name="MXY">0.238857492804527</parameter><parameter name="MNY">0.0280106384307146</parameter><parameter name="DAT">01/06/2022</parameter><parameter name="TIM">11:59:57.158 (GMT+2)</parameter><parameter name="DXU">WN</parameter></Data_Parameters_ScSm><Data_Parameters_ScRf><parameter name="DPF">1</parameter><parameter name="NPT">1820</parameter><parameter name="FXV">4004.04661832813</parameter><parameter name="LXV">495.683998511719</parameter><parameter name="CSF">1</parameter><parameter name="MXY">0.265200465917587</parameter><parameter name="MNY">0.0282472502440214</parameter><parameter name="DAT">01/06/2022</parameter><parameter name="TIM">11:59:30.934 (GMT+2)</parameter><parameter name="DXU">WN</parameter></Data_Parameters_ScRf><Optic_Parameters_Rf><parameter name="APR">0</parameter><parameter name="APT">Open</parameter><parameter name="BMS">KBr</parameter><parameter name="DTC">RT-DLaTGS_IR-Biotyper [Microplate reader]</parameter><parameter name="HPF">0</parameter><parameter name="LPF">10.0</parameter><parameter name="LPV">4000</parameter><parameter name="PGR">0</parameter><parameter name="RCH">Module port</parameter><parameter name="RDX">0</parameter><parameter name="SRC">MIR</parameter><parameter name="VEL">10.0</parameter><parameter name="SON">Off</parameter></Optic_Parameters_Rf><Acquisition_Parameters_Rf><parameter name="ADT">1</parameter><parameter name="AQM">DD</parameter><parameter name="CFE">0</parameter><parameter name="COR">0</parameter><parameter name="DEL">0</parameter><parameter name="DLY">0</parameter><parameter name="HFW">8000</parameter><parameter name="LFW">0</parameter><parameter name="NSR">32</parameter><parameter name="PLF">AB</parameter><parameter name="RES">6</parameter><parameter name="RGN">-1</parameter><parameter name="STR">0</parameter><parameter name="TCL">MakeCompatibleScalar (0, {WSV=1.000000, ARV=0});</parameter><parameter name="TDL">37</parameter><parameter name="RPO">0</parameter></Acquisition_Parameters_Rf><FT_-_Parameters_Rf><parameter name="APF">B3</parameter><parameter name="HFQ">500</parameter><parameter name="LFQ">4000</parameter><parameter name="NLI">0</parameter><parameter name="PHR">24</parameter><parameter name="PHZ">ML</parameter><parameter name="SPZ">NO</parameter><parameter name="ZFF">1</parameter></FT_-_Parameters_Rf><Optic_Parameters_><parameter name="APR">0</parameter><parameter name="APT">Open</parameter><parameter name="BMS">KBr</parameter><parameter name="CHN">Module port</parameter><parameter name="DTC">RT-DLaTGS_IR-Biotyper [Microplate reader]</parameter><parameter name="HPF">0</parameter><parameter name="LPF">10.0</parameter><parameter name="LPV">4000</parameter><parameter name="PGN">0</parameter><parameter name="RDX">0</parameter><parameter name="SRC">MIR</parameter><parameter name="VEL">10.0</parameter><parameter name="SON">Off</parameter></Optic_Parameters_><FT_-_Parameters_><parameter name="APF">B3</parameter><parameter name="HFQ">500</parameter><parameter name="LFQ">4000</parameter><parameter name="NLI">0</parameter><parameter name="PHR">24</parameter><parameter name="PHZ">ML</parameter><parameter name="SPZ">NO</parameter><parameter name="ZFF">1</parameter></FT_-_Parameters_><Acquisition_Parameters_><parameter name="ADT">1</parameter><parameter name="AQM">DD</parameter><parameter name="CFE">0</parameter><parameter name="COR">0</parameter><parameter name="DEL">0</parameter><parameter name="DLY">0</parameter><parameter name="HFW">8000</parameter><parameter name="LFW">0</parameter><parameter name="NSS">32</parameter><parameter name="PLF">AB</parameter><parameter name="RES">6</parameter><parameter name="SOT">0</parameter><parameter name="TCL">MakeCompatibleScalar (0, {WSV=1.000000, ARV=0});</parameter><parameter name="TDL">37</parameter><parameter name="SPO">0</parameter><parameter name="SGN">-1</parameter></Acquisition_Parameters_><Instrument_Parameters_Rf><parameter name="HFL">15800.168544</parameter><parameter name="LFL">0</parameter><parameter name="LWN">15800.168544</parameter><parameter name="ABP">32197</parameter><parameter name="SSP">1</parameter><parameter name="ARG">2</parameter><parameter name="ASG">2</parameter><parameter name="ASS">32</parameter><parameter name="GFW">16</parameter><parameter name="GBW">16</parameter><parameter name="BFW">0</parameter><parameter name="BBW">0</parameter><parameter name="PKA">7314</parameter><parameter name="PKL">4990</parameter><parameter name="PRA">7479</parameter><parameter name="PRL">5001</parameter><parameter name="P2A">1</parameter><parameter name="P2L">1</parameter><parameter name="P2R">1</parameter><parameter name="P2K">1</parameter><parameter name="DAQ">0</parameter><parameter name="AG2">1</parameter><parameter name="SSM">1</parameter><parameter name="RSN">25969</parameter><parameter name="CRR">0</parameter><parameter name="SRT">1654084770.934</parameter><parameter name="DUR">19.6389923095703</parameter><parameter name="TSC">29</parameter><parameter name="MVD">0.343044847249985</parameter><parameter name="AN1">0.225781348517395</parameter><parameter name="AN2">0</parameter><parameter name="VSN">2.485 Apr  4 2017</parameter><parameter name="SRN">0085</parameter><parameter name="CAM">0</parameter><parameter name="INS">IR-Biotyper</parameter><parameter name="FOC">69</parameter><parameter name="RDY">1</parameter><parameter name="ARS">32</parameter></Instrument_Parameters_Rf><Sample_Parameters_><parameter name="BLD"></parameter><parameter name="CNM">Admin</parameter><parameter name="CPY"></parameter><parameter name="DPM"></parameter><parameter name="EXP">IRBT_v3_32Scans.XPM</parameter><parameter name="LCT"></parameter><parameter name="SFM">Microplate, HTS-XT</parameter><parameter name="SNM">220601-1028(v.3)_RTF49M (D_12)_C9_c8e5510a-e53b-421f-b68e-80cf0713eac2.0</parameter><parameter name="XPP">C:\Users\Public\Documents\Bruker\OPUS_8.2.28\XPM</parameter><parameter name="IST">OK</parameter><parameter name="CPG">1252</parameter><parameter name="UID">e3552ff8-1720-4978-aab9-25f47e0ed704</parameter></Sample_Parameters_><Instrument_Parameters_><parameter name="HFL">15800.168544</parameter><parameter name="LFL">0</parameter><parameter name="LWN">15800.168544</parameter><parameter name="ABP">32197</parameter><parameter name="SSP">1</parameter><parameter name="ASG">2</parameter><parameter name="ARG">2</parameter><parameter name="ASS">32</parameter><parameter name="GFW">16</parameter><parameter name="GBW">16</parameter><parameter name="BFW">0</parameter><parameter name="BBW">0</parameter><parameter name="PKA">6402</parameter><parameter name="PKL">4988</parameter><parameter name="PRA">6623</parameter><parameter name="PRL">4993</parameter><parameter name="P2A">1</parameter><parameter name="P2L">1</parameter><parameter name="P2R">1</parameter><parameter name="P2K">1</parameter><parameter name="DAQ">0</parameter><parameter name="AG2">1</parameter><parameter name="SSM">1</parameter><parameter name="RSN">13610</parameter><parameter name="CRR">0</parameter><parameter name="SRT">1654084797.159</parameter><parameter name="DUR">19.6379852294922</parameter><parameter name="TSC">29</parameter><parameter name="MVD">0.563557028770447</parameter><parameter name="AN1">0.225812428556897</parameter><parameter name="AN2">0</parameter><parameter name="VSN">2.485 Apr  4 2017</parameter><parameter name="SRN">0085</parameter><parameter name="CAM">0</parameter><parameter name="INS">IR-Biotyper</parameter><parameter name="FOC">69</parameter><parameter name="RDY">1</parameter></Instrument_Parameters_><History/></OPUSDataFile>
