<?xml version="1.0" encoding="UTF-8" ?>
<OPUSDataFile><AB><Ydata ylabel="Absorbance Units"><values byteorder="INTEL" format="FLOAT32" numvalues="3497"> -0.06279348 -0.06285484 -0.0628996 -0.06292816 -0.06293407 -0.06291702 -0.0628801 -0.06282407 -0.06275859 -0.06268567
 -0.06262209 -0.06256888 -0.06253996 -0.06253183 -0.06254426 -0.06257123 -0.06260217 -0.06263527 -0.06266378 -0.06268984
 -0.06271324 -0.06273512 -0.06275638 -0.06277642 -0.06279492 -0.06281268 -0.06282974 -0.06284712 -0.06286512 -0.06288327
 -0.0629015 -0.06292058 -0.06294054 -0.06296055 -0.06298009 -0.06299172 -0.06299505 -0.06298257 -0.06295706 -0.06292301
 -0.06288598 -0.06286171 -0.0628523 -0.0628703 -0.06290939 -0.0629691 -0.06303793 -0.06310689 -0.06316807 -0.06321431
 -0.06324433 -0.06325606 -0.06325015 -0.06322595 -0.06318638 -0.06313027 -0.0630719 -0.06301168 -0.06297284 -0.06295671
 -0.06297553 -0.06302794 -0.06309881 -0.06318449 -0.06325397 -0.06330825 -0.0633326 -0.06333442 -0.06332401 -0.06330716
 -0.06329972 -0.06329943 -0.06331185 -0.06332722 -0.06334051 -0.06334168 -0.06332233 -0.0632831 -0.06321973 -0.06314658
 -0.0630656 -0.06299218 -0.06292928 -0.06288441 -0.06285844 -0.06285747 -0.06288187 -0.06294158 -0.06303641 -0.06316864
 -0.06333353 -0.06350559 -0.06367583 -0.06379513 -0.06386448 -0.06385611 -0.063789 -0.06368102 -0.06355115 -0.06342984
 -0.06332304 -0.0632479 -0.063196 -0.06316968 -0.06315131 -0.06313337 -0.06311021 -0.06307518 -0.06304869 -0.06303246
 -0.06304861 -0.06310145 -0.06317822 -0.06327854 -0.06336477 -0.06343667 -0.0634821 -0.06350626 -0.06353637 -0.06357541
 -0.06365228 -0.06375863 -0.06389239 -0.06403558 -0.06415631 -0.06424437 -0.06427 -0.06424669 -0.06417286 -0.06407078
 -0.06395262 -0.06383191 -0.06371526 -0.06361435 -0.06353112 -0.06348465 -0.06347764 -0.06352933 -0.06364401 -0.06380999
 -0.06402748 -0.06420247 -0.06432995 -0.0643075 -0.0641518 -0.0639199 -0.06363094 -0.0633916 -0.06319676 -0.06308806
 -0.06305086 -0.06308281 -0.06316105 -0.06326056 -0.06335689 -0.06341776 -0.06344402 -0.06341976 -0.06338053 -0.06333713
 -0.06331273 -0.06332126 -0.06334121 -0.06337239 -0.06338491 -0.06337386 -0.06334358 -0.06329381 -0.06325676 -0.06323341
 -0.06324454 -0.06328663 -0.06334784 -0.0634224 -0.0634809 -0.06352306 -0.06353224 -0.06351366 -0.06346855 -0.06340232
 -0.06332001 -0.06323086 -0.06314155 -0.06306656 -0.06301548 -0.06299851 -0.0630243 -0.06308651 -0.06318857 -0.06330501
 -0.06343375 -0.06354383 -0.06363193 -0.06367586 -0.063674 -0.06361831 -0.0635098 -0.06336315 -0.06318223 -0.06299947
 -0.0628179 -0.06266709 -0.0625461 -0.06246871 -0.06242949 -0.06242719 -0.06245199 -0.06249346 -0.06253899 -0.0625743
 -0.0625931 -0.0625851 -0.06255899 -0.06251382 -0.06246637 -0.06242101 -0.06238837 -0.0623715 -0.06237188 -0.06239012
 -0.06242508 -0.06247678 -0.06254139 -0.06261818 -0.06269513 -0.06277066 -0.06282742 -0.06286585 -0.0628769 -0.06286509
 -0.06283663 -0.06279708 -0.0627589 -0.06272561 -0.06270646 -0.0627028 -0.06271785 -0.06275503 -0.06281631 -0.06290711
 -0.0630329 -0.06318466 -0.06336752 -0.06353834 -0.06369235 -0.06378251 -0.06380019 -0.06375377 -0.06364287 -0.0635015
 -0.06333043 -0.06314081 -0.0629345 -0.06272774 -0.06252676 -0.06236633 -0.06224808 -0.06219756 -0.06220378 -0.06226424
 -0.06235403 -0.0624404 -0.06250903 -0.06253085 -0.06251995 -0.06247587 -0.06241503 -0.06234519 -0.06227132 -0.06219646
 -0.0621208 -0.06204457 -0.06196911 -0.06189422 -0.061825 -0.06176167 -0.06171265 -0.06167844 -0.06166844 -0.06168219
 -0.06172371 -0.06178733 -0.06185582 -0.06191704 -0.06192643 -0.06188604 -0.06177058 -0.0616095 -0.06143036 -0.06125377
 -0.06111323 -0.06099773 -0.0609147 -0.06083416 -0.06074419 -0.06063002 -0.06048022 -0.06031564 -0.06013675 -0.05997252
 -0.05982768 -0.05970475 -0.05960469 -0.05950269 -0.05939784 -0.05927119 -0.05912649 -0.0589828 -0.05884314 -0.05873292
 -0.05864577 -0.05857742 -0.05852166 -0.05846483 -0.05840465 -0.05833421 -0.05824871 -0.05814206 -0.05801016 -0.05784568
 -0.05765887 -0.05745223 -0.05723444 -0.0570133 -0.05676709 -0.05649384 -0.05616996 -0.05579012 -0.05536743 -0.05490187
 -0.05442785 -0.05394703 -0.05348858 -0.05305338 -0.05266267 -0.05231473 -0.05201652 -0.05176014 -0.05152879 -0.05131431
 -0.0510929 -0.05086333 -0.05061696 -0.0503473 -0.05004946 -0.04970688 -0.04930212 -0.0488474 -0.04833607 -0.04781342
 -0.04729357 -0.04679354 -0.04632114 -0.04586564 -0.04542652 -0.04499637 -0.04457453 -0.04416127 -0.04375671 -0.04336364
 -0.04298202 -0.04261488 -0.04225859 -0.04190323 -0.04153752 -0.04112306 -0.04065828 -0.04011216 -0.03951551 -0.03889537
 -0.03827769 -0.03770202 -0.03715921 -0.03665858 -0.03617438 -0.03569879 -0.03520956 -0.03469623 -0.03415955 -0.03359541
 -0.03302614 -0.03245427 -0.03189266 -0.03134304 -0.03078812 -0.03022674 -0.029633 -0.02900919 -0.02835995 -0.02769145
 -0.02703318 -0.02638739 -0.02577602 -0.02519652 -0.02465582 -0.02414644 -0.02366443 -0.02319482 -0.02272337 -0.02223798
 -0.02172488 -0.02118651 -0.02062105 -0.02003101 -0.01941833 -0.01877599 -0.01810029 -0.01740385 -0.01668479 -0.01598708
 -0.01531396 -0.01468853 -0.0141103 -0.01355765 -0.01302824 -0.01249386 -0.01195502 -0.01139893 -0.01082777 -0.01023961
 -0.009639398 -0.009034724 -0.008431553 -0.00784385 -0.00726609 -0.006703529 -0.006132551 -0.005539888 -0.004908633 -0.004220827
 -0.003500069 -0.002745326 -0.001999496 -0.001272201 -0.0005817803 6.651027E-05 0.0006838273 0.001270109 0.001850364 0.002425699
 0.003015447 0.003619034 0.004240264 0.004878218 0.005530821 0.006198115 0.006880738 0.007575366 0.008277815 0.008980217
 0.009669434 0.01034288 0.01099126 0.01162198 0.01223644 0.01284325 0.01344734 0.01405063 0.01465568 0.01525741
 0.01585561 0.01644336 0.01701917 0.01758468 0.01813947 0.01869881 0.01926342 0.0198474 0.02044947 0.02106564
 0.02169347 0.02231927 0.02294354 0.02356029 0.02417219 0.02478215 0.0253909 0.02600168 0.02661131 0.02721907
 0.02781868 0.02840501 0.02897719 0.0295305 0.0300784 0.03062258 0.03118048 0.03175764 0.03235301 0.03296858
 0.03358643 0.03420543 0.03481167 0.03540468 0.03597992 0.03653728 0.03707344 0.03758864 0.03808113 0.03855341
 0.03901089 0.03945808 0.03990584 0.04035857 0.04082733 0.04131253 0.04182046 0.04234365 0.04288041 0.04342007
 0.04395704 0.04448642 0.04500553 0.04551286 0.04600793 0.04648805 0.04695177 0.04740748 0.04785514 0.04831757
 0.04879557 0.04930041 0.04982932 0.05036334 0.05089837 0.0514042 0.05188202 0.05231796 0.05271927 0.05309236
 0.05344691 0.05379891 0.05415474 0.05452807 0.05491523 0.05531932 0.05573043 0.05614452 0.05655598 0.05696219
 0.05736078 0.05775123 0.05812979 0.0584952 0.05885227 0.05920092 0.05955522 0.05991559 0.06028551 0.06066382
 0.06103983 0.0614152 0.06179116 0.0621723 0.06257598 0.06299808 0.06344214 0.06389347 0.06433264 0.06474996
 0.06512607 0.06546649 0.0657674 0.06604172 0.06629413 0.06653501 0.06676822 0.0670011 0.06723531 0.06747809
 0.06773053 0.06799794 0.0682811 0.06857693 0.0688851 0.06919421 0.06950418 0.06980894 0.0701105 0.07041658
 0.07072639 0.07104473 0.07136235 0.07166322 0.0719386 0.07216447 0.07235097 0.07249355 0.07262132 0.07275226
 0.07290772 0.0731075 0.0733396 0.07360852 0.07388051 0.07414841 0.07439405 0.07461207 0.07481343 0.07499864
 0.07517754 0.07535 0.0754988 0.07562263 0.07569958 0.07573438 0.0757367 0.07571585 0.07570598 0.07571108
 0.075758 0.07584069 0.07596409 0.07611488 0.07628334 0.07645399 0.07661197 0.07675319 0.07686754 0.07697367
 0.07707346 0.07719179 0.07733753 0.07750612 0.07770148 0.07788488 0.07805385 0.07817287 0.07824079 0.07825845
 0.0782285 0.07817769 0.07810634 0.07803043 0.07794683 0.07785061 0.07774719 0.07764091 0.07754914 0.0775018
 0.07750256 0.07757604 0.07768847 0.0778289 0.07795329 0.07803165 0.07806315 0.07803307 0.0779882 0.07793478
 0.07791679 0.07794434 0.07801502 0.07813153 0.07824618 0.07835627 0.07840275 0.07838573 0.07827947 0.07809412
 0.07786335 0.0776038 0.07738633 0.07721767 0.07715239 0.07717326 0.07728535 0.07745077 0.07763579 0.07780396
 0.07791539 0.07796492 0.07793263 0.07785258 0.07772809 0.07760395 0.07749083 0.07741473 0.07738073 0.07740156
 0.07747836 0.07762691 0.07784781 0.07814372 0.07851006 0.07890534 0.07931799 0.07966659 0.07994444 0.08008055
 0.08009124 0.07996699 0.07975116 0.07949943 0.07925627 0.07909472 0.07901768 0.0790624 0.07917533 0.07934809
 0.07950559 0.0796205 0.07964858 0.07956962 0.07939654 0.07912368 0.0788091 0.07845622 0.07812668 0.07782337
 0.07757027 0.07736518 0.07719317 0.07705203 0.07692128 0.07680438 0.07670153 0.07661753 0.07656704 0.07654197
 0.07654462 0.07654359 0.07651214 0.07641131 0.07619955 0.0758734 0.07540783 0.07485949 0.0742342 0.07361282
 0.07301541 0.07248841 0.07204439 0.07167964 0.07139651 0.07116071 0.07097031 0.07077675 0.07057839 0.07033726
 0.07005947 0.06975482 0.06943532 0.06915019 0.06889545 0.06869466 0.06851838 0.06833234 0.06811289 0.06781273
 0.0674505 0.06701531 0.06656058 0.06610768 0.0657033 0.0653722 0.06511997 0.06495944 0.06484465 0.06477565
 0.06467345 0.06453122 0.06429117 0.06395075 0.06352526 0.06302097 0.06251317 0.06200615 0.06156532 0.06118237
 0.06086666 0.06060331 0.06036341 0.06013862 0.05990259 0.05965531 0.05938758 0.05909987 0.05878997 0.05845817
 0.05810158 0.05773052 0.05734425 0.05696792 0.05660673 0.05628101 0.05599709 0.05574468 0.05552502 0.0553009
 0.05507046 0.05480496 0.05450562 0.05417673 0.05382241 0.0534679 0.05311462 0.05278152 0.05246548 0.05216934
 0.05188825 0.0516169 0.05134903 0.0510774 0.05079334 0.05048838 0.05015673 0.04979105 0.04939776 0.04897547
 0.04853961 0.04809349 0.04764774 0.0472047 0.04676741 0.04633594 0.04591831 0.04551497 0.0451397 0.04479215
 0.04447398 0.04418166 0.04389632 0.04361468 0.04331414 0.04299711 0.04265667 0.04229958 0.04193348 0.04156353
 0.04119829 0.04084023 0.04049166 0.0401609 0.03984922 0.03957635 0.03935077 0.03918024 0.03907585 0.03899536
 0.03893994 0.03882555 0.03864413 0.03834191 0.037916 0.03739837 0.0367955 0.03619546 0.03560335 0.0350949
 0.03466583 0.03434597 0.03411859 0.03396719 0.03386023 0.03374247 0.03358705 0.03333381 0.03300003 0.03256756
 0.03209845 0.03162109 0.03117626 0.03079389 0.03045083 0.030148 0.02985445 0.0295594 0.02929365 0.0290569
 0.02891152 0.02886076 0.02890781 0.02904595 0.02919216 0.02933638 0.02937434 0.02931009 0.02909591 0.02875632
 0.02832066 0.02781884 0.02731498 0.02681777 0.02636714 0.02594416 0.02554617 0.02515824 0.02476501 0.02438407
 0.024017 0.02368594 0.02340227 0.02314648 0.02292011 0.02268017 0.02242052 0.02214374 0.0218497 0.02159684
 0.02138698 0.0212624 0.02121489 0.02121897 0.02126262 0.021287 0.02129269 0.02124904 0.0211689 0.02106053
 0.0209323 0.0208015 0.02065806 0.02050512 0.02031492 0.02007471 0.01976051 0.01935412 0.0188723 0.01830567
 0.01772868 0.01714745 0.01665173 0.01625337 0.01597647 0.01582313 0.01571839 0.01565565 0.01552481 0.01532827
 0.0150187 0.01461585 0.0141634 0.01368201 0.01324643 0.01285635 0.01254977 0.01230475 0.01211318 0.01194886
 0.01178778 0.01161613 0.01141691 0.01119717 0.010952 0.01070667 0.01046645 0.01025074 0.01006719 0.009897717
 0.009743745 0.009553757 0.009324838 0.009026752 0.008662318 0.008264489 0.007840435 0.007454466 0.007102645 0.006809477
 0.006556456 0.006309836 0.006058795 0.005763263 0.005439489 0.005086775 0.004733337 0.004404025 0.004108945 0.003863612
 0.003657482 0.003489366 0.003352451 0.003243298 0.003166896 0.003124544 0.003113903 0.003136802 0.003164896 0.003196814
 0.003184488 0.003125951 0.002981751 0.002755783 0.0024483 0.002072206 0.001672975 0.001264843 0.0009065978 0.0006014009
 0.0003834623 0.0002430744 0.0001833647 0.0001907688 0.0002559453 0.0003675446 0.0005181689 0.0006965673 0.0008986538 0.001110289
 0.001328267 0.001537452 0.001734121 0.001913847 0.002073849 0.00223777 0.002406559 0.002632871 0.002918951 0.003309637
 0.003800225 0.004386469 0.005055879 0.005759865 0.006489277 0.007195172 0.007880196 0.008525201 0.009140436 0.009729852
 0.01030432 0.01087268 0.0114462 0.01203204 0.01264215 0.0132831 0.01396002 0.01467849 0.01542386 0.01619794
 0.01696304 0.01771677 0.01841501 0.01905491 0.01961274 0.02008888 0.0204878 0.02081056 0.02106713 0.02125523
 0.02136882 0.02141074 0.02137723 0.02129107 0.02118338 0.02108919 0.02106534 0.02112508 0.02130629 0.02158316
 0.0219543 0.02238543 0.02285849 0.02337138 0.023916 0.02451893 0.02518338 0.02593054 0.02676432 0.02768093
 0.02868065 0.02973897 0.03085401 0.03199245 0.03315357 0.03431396 0.03547871 0.03665258 0.03784583 0.03908937
 0.04038349 0.04175701 0.04316689 0.04460293 0.04593646 0.04709323 0.04786238 0.04811459 0.04767585 0.04641771
 0.0443852 0.04151772 0.03813951 0.03426907 0.03035335 0.02643964 0.02285691 0.01963018 0.01684983 0.01451079
 0.01252657 0.01088454 0.009460189 0.008248539 0.007167177 0.006212436 0.005337243 0.004531384 0.003755889 0.003004092
 0.002248558 0.001499792 0.0007542757 3.33061E-05 -0.0006507213 -0.001287092 -0.00186623 -0.002394687 -0.002871998 -0.003307216
 -0.003703159 -0.004056577 -0.004368565 -0.00462177 -0.00481528 -0.004928224 -0.004960801 -0.004912819 -0.004790789 -0.004636506
 -0.004461717 -0.004336569 -0.00426503 -0.004298487 -0.004421181 -0.004634055 -0.004906782 -0.005205151 -0.00549882 -0.005752486
 -0.0059424 -0.006046942 -0.006047984 -0.005935445 -0.005692355 -0.005316285 -0.00477661 -0.004071112 -0.0031508 -0.002006283
 -0.0006393869 0.0009543155 0.002582276 0.004221717 0.005452038 0.006246003 0.006182726 0.00530542 0.003524417 0.0009804118
 -0.002022745 -0.005333869 -0.008530827 -0.01156418 -0.01418234 -0.01645413 -0.0183451 -0.01996046 -0.02135642 -0.02259434
 -0.02371582 -0.02473385 -0.02565868 -0.02649624 -0.0272471 -0.02792781 -0.02853971 -0.02910058 -0.02961166 -0.03008489
 -0.0305209 -0.03093041 -0.03131467 -0.03168776 -0.03205067 -0.03241657 -0.03278231 -0.03314854 -0.03350625 -0.03383885
 -0.03414124 -0.03439532 -0.03461447 -0.03479938 -0.03497773 -0.03516787 -0.03538246 -0.03563751 -0.03590938 -0.03619839
 -0.0364645 -0.03669865 -0.03688637 -0.03702212 -0.03713291 -0.03721981 -0.03732084 -0.03743657 -0.03757474 -0.0377317
 -0.03788245 -0.03802673 -0.03814636 -0.03825185 -0.0383612 -0.03848617 -0.03866139 -0.03888048 -0.03915539 -0.03945904
 -0.03977356 -0.04007242 -0.04033213 -0.04054654 -0.04070466 -0.04081945 -0.04088996 -0.04094006 -0.04097207 -0.04101617
 -0.04107587 -0.04117468 -0.04131492 -0.04149309 -0.04170791 -0.04193117 -0.0421613 -0.04237257 -0.04256706 -0.0427398
 -0.04289371 -0.04303484 -0.04316325 -0.04328177 -0.04338976 -0.04348704 -0.04357444 -0.04365312 -0.04372218 -0.04378198
 -0.04382947 -0.04386215 -0.0438832 -0.04389026 -0.04390047 -0.0439152 -0.04395743 -0.04403072 -0.04414289 -0.04429536
 -0.04446943 -0.0446636 -0.0448462 -0.04501697 -0.04515799 -0.04527326 -0.04536996 -0.04545269 -0.04553913 -0.04562827
 -0.04572809 -0.04583162 -0.04593313 -0.04602668 -0.04610296 -0.0461651 -0.04620984 -0.04625011 -0.04628967 -0.04634196
 -0.04641245 -0.04650486 -0.0466219 -0.04675672 -0.04690927 -0.0470693 -0.04723614 -0.04740142 -0.04756479 -0.04771968
 -0.04786623 -0.04800189 -0.04812809 -0.04824928 -0.04836784 -0.04849323 -0.04862561 -0.04877112 -0.0489252 -0.04908534
 -0.04924456 -0.04939503 -0.04953409 -0.04965621 -0.0497666 -0.04986531 -0.04996043 -0.05005476 -0.05015155 -0.05025237
 -0.05035507 -0.05045964 -0.05056345 -0.05066631 -0.05076636 -0.05086342 -0.05095386 -0.05103716 -0.05110725 -0.05116417
 -0.05120392 -0.05122914 -0.0512438 -0.05125371 -0.05127154 -0.0513023 -0.05135932 -0.05144072 -0.05155133 -0.051682
 -0.05182871 -0.05198309 -0.0521399 -0.05229716 -0.0524533 -0.05260801 -0.05276155 -0.05291024 -0.05305372 -0.05318855
 -0.05331434 -0.05343298 -0.05354467 -0.05365393 -0.05376073 -0.05386677 -0.05397165 -0.05407415 -0.05417449 -0.05427243
 -0.05436873 -0.05446493 -0.05456106 -0.05465806 -0.0547551 -0.05485163 -0.05494735 -0.05504176 -0.05513538 -0.05522871
 -0.0553205 -0.05541091 -0.05549666 -0.05557672 -0.05565159 -0.05572059 -0.05579098 -0.05586319 -0.05594406 -0.05603365
 -0.05612968 -0.05623138 -0.05633073 -0.05642814 -0.05652048 -0.05661018 -0.0567027 -0.05679995 -0.05690934 -0.0570287
 -0.0571597 -0.05729543 -0.05743041 -0.05755821 -0.05767175 -0.05777226 -0.05785701 -0.05793465 -0.05800704 -0.05808168
 -0.05816096 -0.05824544 -0.05833565 -0.05842933 -0.05852632 -0.05862569 -0.05872738 -0.05883017 -0.05893374 -0.05903461
 -0.05913255 -0.05922423 -0.05931054 -0.05939191 -0.05947017 -0.0595491 -0.0596301 -0.05971728 -0.05980936 -0.05990763
 -0.06000735 -0.06010575 -0.06019955 -0.06028543 -0.06036665 -0.06044291 -0.06052027 -0.06060064 -0.0606834 -0.0607693
 -0.06085109 -0.06092813 -0.06099829 -0.06106168 -0.06112535 -0.0611898 -0.06126285 -0.06134354 -0.06143194 -0.06152596
 -0.06161938 -0.06171082 -0.06179397 -0.06186986 -0.06193643 -0.06199756 -0.06205615 -0.06211543 -0.06217936 -0.06224621
 -0.06231697 -0.06238632 -0.06245233 -0.06251361 -0.06256883 -0.06262222 -0.06267408 -0.06272867 -0.06278639 -0.06284932
 -0.06291758 -0.06299273 -0.06307451 -0.06316184 -0.06325358 -0.06334353 -0.06343101 -0.06350987 -0.06358193 -0.06364772
 -0.06370944 -0.06377099 -0.06383192 -0.06389324 -0.06395385 -0.06401248 -0.06407116 -0.06413011 -0.06419243 -0.06425962
 -0.06433126 -0.06440799 -0.06448617 -0.06456558 -0.06464178 -0.06471445 -0.06477921 -0.06483588 -0.06488217 -0.06491872
 -0.06494992 -0.06497737 -0.06501126 -0.06505209 -0.06510753 -0.06517536 -0.06525508 -0.06534346 -0.06543524 -0.06552956
 -0.06562354 -0.0657177 -0.0658121 -0.06590557 -0.06599805 -0.0660869 -0.06617103 -0.06624985 -0.06632274 -0.06639179
 -0.06645712 -0.06652122 -0.06658433 -0.06664718 -0.06670977 -0.06677106 -0.06683101 -0.06688841 -0.06694383 -0.06699911
 -0.06705552 -0.06711845 -0.06718773 -0.06726676 -0.06735186 -0.06743943 -0.06752554 -0.06760355 -0.06767564 -0.06773992
 -0.06780378 -0.06787067 -0.0679441 -0.06802732 -0.06811511 -0.0682075 -0.06829635 -0.06838024 -0.06845646 -0.06852441
 -0.06858848 -0.06864887 -0.0687111 -0.06877503 -0.06884149 -0.06890992 -0.06897762 -0.06904453 -0.06910887 -0.06917141
 -0.06923296 -0.06929421 -0.06935637 -0.06942026 -0.06948707 -0.06955732 -0.06963264 -0.06971 -0.06978934 -0.06986424
 -0.06993221 -0.06999071 -0.07003749 -0.07007945 -0.0701168 -0.07015915 -0.07020756 -0.070264 -0.07032847 -0.07039469
 -0.07046235 -0.07052562 -0.07058529 -0.07064227 -0.0706979 -0.0707573 -0.07082043 -0.07089048 -0.07096483 -0.07104144
 -0.07111669 -0.07118585 -0.07124744 -0.07129823 -0.07134047 -0.07137396 -0.07140271 -0.07142793 -0.0714528 -0.07147837
 -0.07150546 -0.07153436 -0.07156521 -0.07159796 -0.07163446 -0.07167482 -0.07172213 -0.07177626 -0.07183731 -0.07190427
 -0.07197198 -0.0720396 -0.07210121 -0.07215778 -0.07220794 -0.07225443 -0.07230075 -0.07234912 -0.07240374 -0.07246381
 -0.07253105 -0.07260096 -0.07267237 -0.07273947 -0.07279975 -0.07285115 -0.07289203 -0.07292624 -0.07295363 -0.07298139
 -0.07301011 -0.07304512 -0.07308666 -0.07313509 -0.07319016 -0.07324879 -0.07331116 -0.07337603 -0.07344499 -0.07352196
 -0.07360989 -0.07371663 -0.07384536 -0.07400397 -0.07419496 -0.07442433 -0.07469165 -0.07500017 -0.07534292 -0.07571857
 -0.07611659 -0.07653105 -0.07696478 -0.07741272 -0.07790691 -0.07845008 -0.07907879 -0.07979938 -0.08058899 -0.08144569
 -0.08225878 -0.08302032 -0.08360151 -0.08400617 -0.08418396 -0.08415239 -0.08394373 -0.08356907 -0.08306389 -0.08244391
 -0.08173494 -0.08098577 -0.08025336 -0.07958526 -0.07903676 -0.0786232 -0.07836821 -0.07826619 -0.07832538 -0.0785145
 -0.07883928 -0.0792082 -0.07961456 -0.07993834 -0.08016406 -0.08028223 -0.08029254 -0.08028986 -0.08027587 -0.08030124
 -0.0803565 -0.080415 -0.08046868 -0.08047411 -0.0804355 -0.08033878 -0.0801966 -0.08002289 -0.0798261 -0.07962153
 -0.07941041 -0.07919728 -0.07898511 -0.07877427 -0.07857528 -0.07839152 -0.07823163 -0.07809947 -0.07799251 -0.07791204
 -0.07784563 -0.07779261 -0.07773817 -0.07768152 -0.07761371 -0.07753523 -0.077449 -0.07735666 -0.07726916 -0.07718704
 -0.07711843 -0.0770615 -0.0770163 -0.07698066 -0.07695091 -0.07692643 -0.07690504 -0.076887 -0.07687188 -0.07685975
 -0.07685025 -0.07684462 -0.07684311 -0.07684717 -0.07685772 -0.07687265 -0.07689225 -0.07691051 -0.07692689 -0.07693714
 -0.07694105 -0.07694048 -0.07693587 -0.07693312 -0.07693263 -0.07693992 -0.076955 -0.07698117 -0.07701746 -0.07706396
 -0.07711785 -0.07717544 -0.07723253 -0.07728295 -0.07732464 -0.07735274 -0.07737119 -0.07737967 -0.07738598 -0.07739318
 -0.07740501 -0.07742398 -0.07744546 -0.07746935 -0.07748918 -0.07750404 -0.07751448 -0.07752051 -0.07752819 -0.07753763
 -0.07755177 -0.07756988 -0.07758901 -0.07760887 -0.07762647 -0.07764297 -0.07765959 -0.0776772 -0.07769829 -0.07772163
 -0.07774726 -0.07777258 -0.07779539 -0.07781458 -0.07782836 -0.07783871 -0.07784552 -0.07785264 -0.07786097 -0.07787327
 -0.07789047 -0.07791142 -0.07793634 -0.07796067 -0.07798418 -0.07800268 -0.07801632 -0.07802561 -0.07803137 -0.07803872
 -0.07804801 -0.07806377 -0.07808447 -0.07810899 -0.07813533 -0.07815884 -0.07818075 -0.07819945 -0.07822017 -0.07824674
 -0.07828209 -0.07833053 -0.07838652 -0.07845029 -0.07851121 -0.07856642 -0.0786103 -0.07864074 -0.07866129 -0.07867178
 -0.07868 -0.07868639 -0.07869586 -0.07870838 -0.07872443 -0.07874385 -0.07876577 -0.07879055 -0.07881913 -0.07885159
 -0.07888932 -0.07893047 -0.07897311 -0.0790144 -0.07904963 -0.0790791 -0.0791004 -0.07911822 -0.07913429 -0.0791528
 -0.07917628 -0.07920451 -0.07923824 -0.07927468 -0.07931351 -0.07935244 -0.07939121 -0.07942817 -0.07946318 -0.07949545
 -0.07952509 -0.07955352 -0.07958099 -0.07960986 -0.07964007 -0.0796727 -0.07970703 -0.07974193 -0.0797765 -0.07980862
 -0.07983825 -0.07986397 -0.07988769 -0.07990988 -0.07993402 -0.0799624 -0.07999621 -0.08003736 -0.08008189 -0.08012972
 -0.08017448 -0.08021489 -0.0802484 -0.08027429 -0.08029621 -0.08031434 -0.08033468 -0.08035732 -0.08038459 -0.08041601
 -0.0804494 -0.08048483 -0.08052108 -0.08055919 -0.08060163 -0.08064777 -0.08069865 -0.080751 -0.08080104 -0.08084747
 -0.08088642 -0.08092287 -0.08095825 -0.08099769 -0.08104487 -0.08109643 -0.08115313 -0.08120629 -0.08125417 -0.08129388
 -0.0813245 -0.08135091 -0.08137335 -0.0813961 -0.08141912 -0.08144161 -0.08146363 -0.08148471 -0.08150589 -0.08153117
 -0.08156098 -0.08159913 -0.08164351 -0.08169246 -0.08174356 -0.08179275 -0.08184034 -0.08188511 -0.08192833 -0.08197089
 -0.08201192 -0.08205105 -0.08208843 -0.08212315 -0.08216037 -0.08220086 -0.08224842 -0.08230409 -0.08236273 -0.08242415
 -0.0824794 -0.0825285 -0.08257028 -0.08260559 -0.08263967 -0.08267269 -0.08270817 -0.0827453 -0.08278345 -0.08282261
 -0.08286224 -0.08290317 -0.08294619 -0.08299188 -0.08304127 -0.08309365 -0.08314945 -0.08320603 -0.08326299 -0.08331608
 -0.08336408 -0.08340439 -0.0834359 -0.08346093 -0.08347931 -0.083497 -0.08351438 -0.08353695 -0.0835648 -0.08359957
 -0.08364062 -0.08368482 -0.08373104 -0.08377305 -0.08381073 -0.0838399 -0.08386295 -0.08388167 -0.08389946 -0.08392151
 -0.0839489 -0.08398481 -0.08402737 -0.08407646 -0.08412986 -0.08418673 -0.0842454 -0.08430579 -0.08436419 -0.08442027
 -0.08446896 -0.08450933 -0.0845422 -0.08456746 -0.08459375 -0.08462145 -0.08465806 -0.0847027 -0.08475342 -0.08480863
 -0.0848607 -0.08490957 -0.0849509 -0.08498622 -0.08501621 -0.08504234 -0.08506659 -0.08509006 -0.08511408 -0.08514016
 -0.08516955 -0.08520302 -0.08524156 -0.08528358 -0.08532929 -0.08537496 -0.08541996 -0.08546158 -0.08549926 -0.08553353
 -0.08556436 -0.08559479 -0.08562486 -0.08565579 -0.08568729 -0.0857176 -0.08574676 -0.08577366 -0.08579904 -0.08582455
 -0.08585007 -0.08587666 -0.08590271 -0.08592613 -0.08594738 -0.08596475 -0.0859836 -0.08600652 -0.08603765 -0.08608112
 -0.08613096 -0.08618789 -0.08623838 -0.08627971 -0.08630529 -0.08631308 -0.08631156 -0.08630099 -0.08629585 -0.08629651
 -0.08630979 -0.08633475 -0.08636824 -0.08640885 -0.0864492 -0.08648871 -0.08652166 -0.08654919 -0.08657017 -0.08658752
 -0.08660427 -0.08662309 -0.08664808 -0.08667797 -0.08671448 -0.08675117 -0.08678629 -0.08681311 -0.08682857 -0.08683329
 -0.08682583 -0.08681522 -0.08680204 -0.08679588 -0.0867975 -0.08680785 -0.08682662 -0.08684694 -0.08686833 -0.08688374
 -0.08689382 -0.08689713 -0.08689528 -0.08689158 -0.08688758 -0.08688783 -0.0868926 -0.08690469 -0.08692203 -0.08694457
 -0.08696794 -0.08698972 -0.08700601 -0.08701394 -0.08701448 -0.08700645 -0.08699586 -0.08698348 -0.08697495 -0.08697128
 -0.08697301 -0.08698033 -0.08698974 -0.08700112 -0.08701237 -0.08702369 -0.08703618 -0.08704961 -0.08706393 -0.08707822
 -0.08708955 -0.08709823 -0.08710296 -0.08710568 -0.08710882 -0.08711242 -0.08711816 -0.08712294 -0.08712485 -0.08712333
 -0.08711672 -0.0871093 -0.08710194 -0.08709812 -0.08709931 -0.08710273 -0.08710855 -0.08711074 -0.08710885 -0.08710039
 -0.08708548 -0.08706771 -0.08704752 -0.08703031 -0.08701575 -0.08700578 -0.08699923 -0.08699382 -0.08698897 -0.08698229
 -0.08697444 -0.08696543 -0.08695569 -0.08694596 -0.08693521 -0.08692306 -0.08690858 -0.086891 -0.08687119 -0.08684903
 -0.08682653 -0.08680406 -0.08678299 -0.08676359 -0.0867459 -0.08672994 -0.08671567 -0.08670324 -0.08669603 -0.08669479
 -0.08670738 -0.08673392 -0.0867809 -0.08684427 -0.08691904 -0.08699466 -0.08704907 -0.08707428 -0.0870458 -0.08697519
 -0.08685975 -0.08672595 -0.08658958 -0.08646845 -0.08637666 -0.08631124 -0.0862762 -0.08625536 -0.08624633 -0.08623682
 -0.08622454 -0.08620786 -0.08618636 -0.0861648 -0.08614358 -0.08613069 -0.08612629 -0.08613674 -0.08615932 -0.0861871
 -0.0862142 -0.0862191 -0.08620144 -0.08614723 -0.0860669 -0.08596749 -0.08586089 -0.08576086 -0.08567351 -0.08560761
 -0.08556169 -0.08553924 -0.08552916 -0.0855305 -0.08552679 -0.08551447 -0.08548434 -0.08543395 -0.08536822 -0.08528716
 -0.08520125 -0.08511092 -0.0850231 -0.08493774 -0.08485747 -0.08478214 -0.08471248 -0.08464842 -0.08459023 -0.08453777
 -0.08449154 -0.08444978 -0.08441095 -0.08437186 -0.0843285 -0.08428048 -0.08422571 -0.08416707 -0.0841058 -0.08404221
 -0.08397745 -0.08390696 -0.0838299 -0.08374353 -0.08364674 -0.08354511 -0.08343877 -0.08333889 -0.08324579 -0.08316449
 -0.08309323 -0.08302031 -0.08294234 -0.08283573 -0.08270295 -0.0825363 -0.08234578 -0.08214842 -0.08194864 -0.08176148
 -0.08158226 -0.08141149 -0.08124565 -0.08108098 -0.08092118 -0.08076659 -0.08062206 -0.08048999 -0.08036926 -0.08026154
 -0.08015577 -0.08005236 -0.07992609 -0.07977507 -0.07958051 -0.07934263 -0.07908217 -0.07880201 -0.07853775 -0.0782872
 -0.07805976 -0.0778501 -0.07764711 -0.07744804 -0.07724184 -0.07702889 -0.07680451 -0.07657177 -0.07633071 -0.07608791
 -0.07584865 -0.07561401 -0.07539001 -0.0751586 -0.07491791 -0.07464182 -0.07432231 -0.07395907 -0.0735493 -0.07311445
 -0.07265614 -0.07218441 -0.07169967 -0.07120416 -0.07069854 -0.07019109 -0.06968068 -0.0691693 -0.06865002 -0.06810372
 -0.0675245 -0.06688627 -0.06620076 -0.06546889 -0.06471524 -0.06396612 -0.06323115 -0.06252686 -0.06184725 -0.06119334
 -0.06055956 -0.05994419 -0.05934503 -0.05876439 -0.05818279 -0.05760274 -0.05696185 -0.05625573 -0.05542834 -0.05447983
 -0.05347054 -0.0524078 -0.05138941 -0.05040554 -0.04946051 -0.04854004 -0.0476015 -0.04664293 -0.04564072 -0.0445963
 -0.04350843 -0.04235976 -0.04114347 -0.03981276 -0.03833624 -0.03667564 -0.03478545 -0.03272972 -0.03049925 -0.02824781
 -0.02600827 -0.02386866 -0.02185069 -0.01994383 -0.01815078 -0.01641909 -0.01474487 -0.01303639 -0.01128419 -0.00935101
 -0.007250585 -0.004951608 -0.002524446 -0.0001832914 0.002057798 0.004042455 0.005850834 0.007535723 0.009154125 0.01079116
 0.01244672 0.01414634 0.01587758 0.01763772 0.01942876 0.0212594 0.02308874 0.02491508 0.02667131 0.02834331
 0.0299361 0.03144793 0.03291559 0.03433922 0.03568062 0.03693504 0.03803492 0.03899032 0.03981131 0.04051946
 0.04119056 0.04182795 0.04248463 0.04312963 0.04373383 0.04429124 0.04477499 0.04521867 0.04564374 0.04605291
 0.04646195 0.04683061 0.04715024 0.04738619 0.04752856 0.04756374 0.04748808 0.04729866 0.04699325 0.04660568
 0.04613841 0.04566294 0.04517915 0.04471451 0.04426175 0.04379621 0.04331768 0.04280826 0.0422821 0.04175714
 0.0412535 0.04081134 0.04043339 0.04013968 0.039919 0.03976441 0.03968436 0.03967696 0.03976671 0.03996571
 0.04026809 0.04067875 0.04116348 0.04171678 0.0423275 0.04299324 0.04372979 0.04453789 0.04543279 0.04641444
 0.04748815 0.04865268 0.04990572 0.05124415 0.05265697 0.05414203 0.05568785 0.05729808 0.05897268 0.06071683
 0.06253652 0.06443301 0.06640814 0.06846483 0.07060251 0.07283267 0.07515725 0.07759263 0.08014482 0.08281275
 0.08560275 0.08846149 0.09138777 0.09428884 0.09716 0.09993105 0.102598 0.1051053 0.1074337 0.1094539
 0.1111488 0.1123753 0.1131752 0.113557 0.1135943 0.1133983 0.1130245 0.1125701 0.1120651 0.1115679
 0.1110616 0.1105715 0.1100006 0.1093428 0.1084249 0.1071937 0.1056128 0.103633 0.1015961 0.09952988
 0.09763444 0.09591664 0.09422378 0.09254978 0.09077566 0.08891638 0.086991 0.08501313 0.0830518 0.08107562
 0.07908211 0.07695582 0.07452358 0.07169663 0.06822946 0.06436508 0.06017771 0.05595372 0.05191712 0.04798036
 0.04415859 0.04035768 0.03652871 0.03279689 0.02916819 0.02579669 0.02270319 0.01986285 0.01727384 0.01480224
 0.0124452 0.01012429 0.007850808 0.005644498 0.003516113 0.001515295 -0.0003643871 -0.00210905 -0.003738212 -0.005273352
 -0.006735707 -0.008150716 -0.009546958 -0.01094241 -0.012391 -0.01392471 -0.01557685 -0.01740253 -0.01923979 -0.02108069
 -0.02267616 -0.02396364 -0.02500391 -0.02578912 -0.02652194 -0.02721195 -0.0279566 -0.02875044 -0.02956329 -0.0303856
 -0.03114556 -0.0318506 -0.03248996 -0.03307061 -0.03361322 -0.0340945 -0.03449172 -0.03477285 -0.03488547 -0.03484051
 -0.03462218 -0.03427123 -0.03380534 -0.03324929 -0.03261802 -0.03191232 -0.03113989 -0.03026937 -0.02930281 -0.02816535
 -0.02684876 -0.02531911 -0.02357586 -0.02178761 -0.01997023 -0.01837108 -0.01698096 -0.01587665 -0.01503501 -0.01441819
 -0.01401322 -0.0137784 -0.01369558 -0.01372789 -0.01383761 -0.01398236 -0.01409931 -0.01413041 -0.01403091 -0.01374169
 -0.01332825 -0.01279243 -0.01222996 -0.01167236 -0.01112838 -0.01060792 -0.01007036 -0.009512905 -0.008903888 -0.008241681
 -0.007533225 -0.006780371 -0.006010059 -0.00521961 -0.004410799 -0.003572966 -0.002669352 -0.00169484 -0.0006122781 0.0005593112
 0.001806658 0.003111426 0.004438286 0.005808812 0.007224073 0.008717597 0.01031389 0.01200752 0.01380846 0.01567651
 0.01760218 0.01956626 0.02156058 0.02361084 0.02571997 0.02789355 0.0301316 0.03232877 0.03447513 0.03641414
 0.03814675 0.03960042 0.04078063 0.04167506 0.04227139 0.0425364 0.04245507 0.04197962 0.04112863 0.03989301
 0.03832769 0.03646769 0.03436514 0.03205894 0.02956744 0.02690394 0.02407862 0.02108281 0.01799701 0.0148195
 0.01171714 0.008705981 0.00589647 0.003295198 0.0008642212 -0.001402111 -0.003590851 -0.005697467 -0.007741706 -0.009708806
 -0.01155264 -0.01327357 -0.014843 -0.01628396 -0.01761854 -0.0188727 -0.02008417 -0.02126803 -0.02244989 -0.02362857
 -0.02481448 -0.02598584 -0.02713977 -0.02824685 -0.02929728 -0.03028455 -0.03120314 -0.03207782 -0.03291014 -0.03372469
 -0.03452291 -0.03529242 -0.03603021 -0.03669164 -0.03727615 -0.03775538 -0.0381366 -0.03843064 -0.03864443 -0.03880035
 -0.03889985 -0.03895467 -0.03896542 -0.03893572 -0.03887 -0.03877024 -0.03864798 -0.03850649 -0.03836637 -0.03823367
 -0.03813142 -0.03806648 -0.03805218 -0.0380926 -0.03818701 -0.03833626 -0.03853106 -0.03877096 -0.03904599 -0.03935582
 -0.03969449 -0.04006098 -0.0404477 -0.0408507 -0.0412531 -0.04164888 -0.04201528 -0.042349 -0.04263352 -0.04287107
 -0.04305732 -0.04319702 -0.04329183 -0.04334782 -0.0433672 -0.04335969 -0.04332775 -0.04328493 -0.04323445 -0.04318812
 -0.04314874 -0.04312003 -0.04310314 -0.04309234 -0.04308737 -0.04308061 -0.04307214 -0.04306188 -0.04305088 -0.04304585
 -0.04304721 -0.04306 -0.04308409 -0.043121 -0.04317212 -0.04324023 -0.04332706 -0.04343641 -0.04356704 -0.04371997
 -0.04389113 -0.04407893 -0.04427917 -0.04449058 -0.04470787 -0.04493033 -0.04514979 -0.04536513 -0.04556839 -0.04575855
 -0.04593181 -0.04608786 -0.04622855 -0.04635409 -0.0464687 -0.04657202 -0.04666447 -0.0467444 -0.04680584 -0.04684777
 -0.04686385 -0.04685598 -0.0468241 -0.04677119 -0.04670102 -0.04661482 -0.04651478 -0.0464015 -0.0462756 -0.04613838
 -0.04599058 -0.04583243 -0.0456639 -0.04548598 -0.04529775 -0.04510809 -0.04491711 -0.04474092 -0.0445805 -0.04444659
 -0.04433886 -0.04425407 -0.04419075 -0.04413755 -0.04409435 -0.04405401 -0.04401857 -0.0439895 -0.0439685 -0.04395972
 -0.04396231 -0.0439769 -0.0440025 -0.04403772 -0.04408471 -0.04414426 -0.04421819 -0.04430818 -0.04441155 -0.04452814
 -0.04465439 -0.04478937 -0.04493325 -0.045086 -0.04524779 -0.04541866 -0.04559452 -0.04577514 -0.04595643 -0.04613864
 -0.04632167 -0.04650551 -0.04669054 -0.04687554 -0.04705774 -0.04723584 -0.0474063 -0.04756861 -0.04772044 -0.04786282
 -0.04799535 -0.04812047 -0.04823904 -0.04835427 -0.04846799 -0.0485804 -0.04869268 -0.04880005 -0.04890199 -0.04899387
 -0.04907467 -0.04914726 -0.04921165 -0.04927724 -0.04934414 -0.0494161 -0.04949132 -0.04955982 -0.0496196 -0.04965667
 -0.04967266 -0.04966412 -0.04963467 -0.04959011 -0.04953023 -0.04945809 -0.0493697 -0.04926264 -0.04913409 -0.0489817
 -0.04880428 -0.04860174 -0.04836975 -0.0481078 -0.0478093 -0.04747258 -0.04709664 -0.04668043 -0.04623323 -0.04575544
 -0.04526221 -0.04475416 -0.04424316 -0.04372859 -0.04321236 -0.04269311 -0.04216632 -0.04163165 -0.04108583 -0.04052961
 -0.03996312 -0.03938631 -0.03879916 -0.03820158 -0.03759205 -0.03697527 -0.036351 -0.03573219 -0.03512186 -0.03453792
 -0.03398572 -0.03347693 -0.03301588 -0.03259834 -0.03222555 -0.03187809 -0.03155501 -0.0312312 -0.03090549 -0.03055667
 -0.0301848 -0.02977917 -0.02934212 -0.02887674 -0.02838615 -0.02788099 -0.02736056 -0.02682955 -0.02628355 -0.02571799
 -0.02513231 -0.02452217 -0.02389553 -0.0232541 -0.02261034 -0.02196869 -0.02134128 -0.02073197 -0.02014949 -0.0195965
 -0.01907433 -0.01858422 -0.01811719 -0.01767297 -0.01723464 -0.01680109 -0.01635154 -0.01588557 -0.015388 -0.01486303
 -0.01431719 -0.01375984 -0.01321926 -0.01270084 -0.01222996 -0.01180051 -0.01141689 -0.01106664 -0.01074136 -0.01042901
 -0.0101217 -0.009806506 -0.009477232 -0.009122646 -0.008737152 -0.008321687 -0.007874281 -0.007406675 -0.006920204 -0.00642114
 -0.005910267 -0.005378518 -0.004825248 -0.004236673 -0.003614209 -0.00295976 -0.002279063 -0.001595784 -0.0009162984 -0.0002699523
 0.0003410557 0.0008996974 0.001405127 0.001850944 0.002233107 0.002545649 0.002787184 0.002953012 0.003051284 0.003082793
 0.003060154 0.002986309 0.002872921 0.002721077 0.00254806 0.002354775 0.002166558 0.00198511 0.001830532 0.001703182
 0.001607127 0.001541133 0.001498137 0.001477054 0.001469618 0.001475761 0.001491101 0.001516042 0.001549758 0.001591476
 0.001641067 0.001694279 0.001749032 0.001796585 0.001833205 0.001845259 0.001827504 0.001765806 0.001654409 0.001488882
 0.00126596 0.0009952603 0.000677131 0.0003234835 -6.484769E-05 -0.0004805719 -0.0009230635 -0.00138097 -0.001852803 -0.00232099
 -0.00278598 -0.003239422 -0.003684647 -0.004127631 -0.00456834 -0.005010884 -0.005450475 -0.005880523 -0.00630341 -0.006713896
 -0.007131498 -0.007563334 -0.008036052 -0.008564014 -0.009157509 -0.00982571 -0.01055411 -0.0113427 -0.01216999 -0.01303273
 -0.01392423 -0.01484359 -0.0157953 -0.01677918 -0.01779137 -0.01882991 -0.01987823 -0.02093351 -0.02197587 -0.02300168
 -0.02399123 -0.02494144 -0.02583522 -0.02667724 -0.02746366 -0.02820856 -0.02892324 -0.02961836 -0.03030608 -0.0309834
 -0.03165276 -0.03230628 -0.03294108 -0.03355706 -0.03415323 -0.0347342 -0.03530072 -0.03585313 -0.03639165 -0.0369113
 -0.03741177 -0.03788729 -0.03833766 -0.0387591 -0.03915115 -0.03951015 -0.03983489 -0.04011941 -0.04036444 -0.04056695
 -0.04073267 -0.0408677 -0.04097726 -0.04106994 -0.04114303 -0.0411968 -0.0412298 -0.04123745 -0.04123574 -0.04122578
 -0.04123354 -0.04126548 -0.04133066 -0.041433 -0.04155475 -0.04169539 -0.04182552 -0.04194385 -0.04202907 -0.04208229
 -0.04210206 -0.04209184 -0.04206673 -0.04202775 -0.04198751 -0.04194066 -0.04188294 -0.04180894 -0.04170733 -0.04158172
 -0.04142993 -0.04126099 -0.04108101 -0.04089281 -0.04070061 -0.04049869 -0.04028602 -0.04005856 -0.03981402 -0.03955901
 -0.03929316 -0.03903126 -0.03877434 -0.03853314 -0.03830795 -0.03809975 -0.03790886 -0.03773742 -0.03758772 -0.03747207
 -0.03739081 -0.03735422 -0.03735479 -0.03738441 -0.03743199 -0.03747797 -0.0375187 -0.03754248 -0.03755348 -0.03755184
 -0.03753892 -0.03751721 -0.03747975 -0.03742528 -0.03734671 -0.03724165 -0.03711104 -0.03695435 -0.03677702 -0.0365795
 -0.03636328 -0.03612838 -0.03587369 -0.03559998 -0.03531285 -0.03501411 -0.03471543 -0.03441703 -0.03412627 -0.03384103
 -0.03356042 -0.03328296 -0.03300567 -0.03272955 -0.03245397 -0.03218165 -0.03191376 -0.0316539 -0.03140449 -0.03116566
 -0.03093972 -0.03071723 -0.03049753 -0.03026748 -0.03002433 -0.02976871 -0.02949966 -0.02923891 -0.02898767 -0.02877139
 -0.02858911 -0.02844487 -0.02833308 -0.02823045 -0.02813132 -0.02800524 -0.02785395 -0.02766424 -0.02744566 -0.02720541
 -0.02695286 -0.02670035 -0.0264511 -0.02621193 -0.02597947 -0.02575532 -0.02552987 -0.0253012 -0.02505875 -0.02479862
 -0.02452347 -0.02423172 -0.02394126 -0.02365338 -0.023381 -0.02312425 -0.02287494 -0.02263187 -0.02237959 -0.02211954
 -0.02184972 -0.0215742 -0.02130435 -0.02104259 -0.02080038 -0.02057515 -0.02037012 -0.02017628 -0.01998802 -0.01979214
 -0.01957766 -0.01933797 -0.0190639 -0.0187671 -0.01844634 -0.01812635 -0.017812 -0.01752063 -0.01725665 -0.01701564
 -0.01679816 -0.01658593 -0.01637817 -0.01616203 -0.01593824 -0.01570818 -0.0154734 -0.01524241 -0.01501525 -0.01479692
 -0.01458555 -0.01437985 -0.0141777 -0.01397597 -0.01377216 -0.01356427 -0.01334558 -0.01311224 -0.01285512 -0.01256629
 -0.01225146 -0.01190601 -0.01155961 -0.01121703 -0.01090469 -0.01062946 -0.01038122 -0.01016062 -0.009936759 -0.009708539
 -0.009467304 -0.009214897 -0.008967089 -0.008723366 -0.008490138 -0.008263505 -0.008033471 -0.007800032 -0.00755739 -0.007309498
 -0.007060153 -0.00681103 -0.006565104 -0.006323281 -0.006086545 -0.005857085 -0.005637659 -0.005423518 -0.005215602 -0.00500059
 -0.004775211 -0.004533606 -0.00427266 -0.0040072 -0.003737458 -0.003490577 -0.003267722 -0.00308361 -0.002936206 -0.0028122
 -0.002707262 -0.002591955 -0.002465807 -0.00231004 -0.002131035 -0.001931841 -0.001721693 -0.001515417 -0.001318863 -0.001145602
 -0.000990797 -0.0008590654 -0.0007314505 -0.0006009468 -0.00045042 -0.0002690564 -6.56169E-05 0.000162699 0.0003887085 0.0006084446
 0.0008080992 0.0009854876 0.001147402 0.001294213 0.00143626 0.001574571 0.001721977 0.00188114 0.0020734 0.002298711
 0.002570821 0.002882003 0.003223922 0.003586171 0.003949544 0.004308436 0.004648312 0.004973001 0.005277852 0.005577798
 0.005879008 0.006191894 0.006526126 0.00686318 0.007204042 0.007511807 0.007779823 0.007997144 0.008160685 0.008297202
 0.008408085 0.008524078 0.008645578 0.008787471 0.008948903 0.009134028 0.009340959 0.009566844 0.009808217 0.01005679
 0.01030889 0.01055622 0.01079455 0.01101668 0.01121971 0.01139788 0.01155559 0.01169294 0.01181643 0.01193008
 0.01202914 0.01211368 0.01217613 0.01221348 0.01223769 0.01224847 0.01227462 0.01231766 0.01240523 0.01253784
 0.01273297 0.01298685 0.01329269 0.01363941 0.01398749 0.01432907 0.01462405 0.01488008 0.01509064 0.01526694
 0.01541899 0.0155528 0.01566874 0.01579419 0.01593226 0.01614429 0.01645928 0.01688187 0.01743495 0.01800755
 0.01858463 0.01910331 0.01955388 0.01995505 0.02030741 0.02062549 0.02090931 0.02116264 0.02138665 0.02159259
 0.02177656 0.02193537 0.0220565 0.02210918 0.02208876 0.0219691 0.02176676 0.02148387 0.02115303 0.02079433
 0.02044464 0.02012733 0.01986418 0.01967144 0.0195402 0.01947381 0.01944663 0.01945551 0.01948187 0.01952409
 0.01956644 0.01960792 0.01962475 0.01961584 0.01956114 0.01946105 0.0193071 0.0191008 0.0188395 0.01853143
 0.01818861 0.0178303 0.01749236 0.01718514 0.01693901 0.01673871 0.01658319 0.01645566 0.0163464 0.01624864
 0.01615954 0.01606858 0.01597038 0.01587248 0.01577121 0.01570958 0.01569127 0.01574561 0.01587402 0.01606216
 0.01630888 0.01659761 0.016927 0.01728605 0.017665 0.01802482 0.01835787 0.01862157 0.01882953 0.01898063
 0.01909946 0.01921263 0.01933624 0.01949142 0.01968293 0.0199223 0.02019504 0.02050412 0.02081133 0.02110908
 0.02136587 0.02157323 0.02173564 0.02185203 0.02194056 0.02200211 0.02203964 0.02205332 0.02204477 0.02201631
 0.02198243 0.02194463 0.02191614 0.02189592 0.02188841 0.02189118 0.02190354 0.02192021 0.02193379 0.02194491
 0.02194805 0.02195756 0.02198113 0.02202261 0.02209095 0.02215898 0.02222292 0.02225552 0.02224961 0.02220942
 0.02213387 0.0220415 0.02193326 0.02182298 0.02171108 0.02160779 0.02151099 0.02141464 0.02131454 0.02118844
 0.02104398 0.02088341 0.02072629 0.02060945 0.02053338 0.0205212 0.02054178 0.02058101 0.02060675 0.02059524
 0.0205403 0.0204318 0.02028321 0.02009431 0.01988586 0.01966067 0.019436 0.01921422 0.01899885 0.01879016
 0.01858244 0.0183746 0.01815305 0.01791447 0.01762958 0.01730111 0.01691377 0.01649295 0.01608838 0.0157258
 0.01548323 0.01533258 0.01528281 0.01527163 0.01524427 0.01519021 0.01507721 0.01495593 0.01484052 0.01475818
 0.01472642 0.01471016 0.01470761 0.0146786 0.01461703 0.01453014 0.01441809</values></Ydata></AB><ScSm><Ydata ylabel="Single channel"><values byteorder="INTEL" format="FLOAT32" numvalues="1814"> 0.07050237 0.07051241 0.07059015 0.07075579 0.07097578 0.07118255 0.0713225 0.07138883 0.07140189 0.07136852
 0.07129409 0.07123217 0.07127243 0.07145275 0.07170369 0.07189474 0.07193772 0.07186513 0.0718123 0.0718842
 0.07201315 0.07198012 0.07162169 0.07101877 0.07044429 0.07011239 0.0700443 0.07022786 0.07075366 0.07156252
 0.07215868 0.07196403 0.07104637 0.07015283 0.06987859 0.07009411 0.07029917 0.07020335 0.06981301 0.06931014
 0.06910251 0.06971906 0.07128797 0.07310119 0.07386937 0.0725407 0.06905546 0.06457566 0.06105024 0.06017014
 0.06217747 0.06553095 0.06806299 0.06870987 0.06801641 0.06702827 0.06616706 0.06537765 0.06486469 0.06512763
 0.06627327 0.06755443 0.06776087 0.06625918 0.06374557 0.06174218 0.06120344 0.06192688 0.06338185 0.06528902
 0.06677738 0.06591313 0.06160534 0.05600568 0.05354312 0.05671262 0.06341703 0.06901744 0.07045761 0.0679854
 0.06381705 0.06029913 0.05901239 0.06034569 0.06343551 0.06687962 0.06958202 0.07080443 0.06998058 0.06721027
 0.06374343 0.06137756 0.06135526 0.0638734 0.06804108 0.07196823 0.073627 0.07234527 0.06924905 0.06607512
 0.06403202 0.06380563 0.0657289 0.06944154 0.07386253 0.07781093 0.08048539 0.08155727 0.08124934 0.08019176
 0.07894029 0.07787789 0.07754131 0.07829361 0.07945841 0.07957655 0.07799029 0.0757193 0.07441013 0.0746318
 0.07542115 0.07545575 0.07439576 0.07267196 0.07017685 0.06622471 0.06112773 0.05663271 0.05417525 0.05377811
 0.05508183 0.05790796 0.06104762 0.06219596 0.06048132 0.05807307 0.05803712 0.06106121 0.0650963 0.06784241
 0.06887898 0.06949788 0.07104998 0.07356805 0.07560423 0.07532571 0.07232741 0.06864397 0.06730908 0.06937966
 0.0729223 0.07539224 0.07631564 0.07701029 0.07827744 0.07915823 0.07793593 0.07418048 0.06984232 0.06804574
 0.07036582 0.07524738 0.07913442 0.07910569 0.07484056 0.06867771 0.06378922 0.06198958 0.06325874 0.06695573
 0.0725196 0.0788303 0.083919 0.08607507 0.08509453 0.08217486 0.07854863 0.07434922 0.06926267 0.06441517
 0.06260242 0.06565003 0.07208138 0.0783464 0.08198687 0.08286366 0.08178349 0.07899174 0.07439555 0.06900315
 0.06538745 0.06568802 0.06903079 0.07202686 0.07231647 0.0707166 0.06947406 0.06947172 0.06990615 0.07000185
 0.07011443 0.07111236 0.07312644 0.07522126 0.07629848 0.07609603 0.07523026 0.07447964 0.07408048 0.07355861
 0.07239518 0.07105745 0.07094842 0.07287051 0.07592088 0.07841904 0.07959402 0.07986531 0.07972199 0.07886895
 0.07666495 0.07333871 0.07048121 0.06986758 0.07174315 0.07467109 0.07702547 0.07815801 0.07824908 0.07772512
 0.07696657 0.07617955 0.07546087 0.07506905 0.07535747 0.07626897 0.07722318 0.07770129 0.07767425 0.07734083
 0.07675137 0.07587622 0.07487122 0.07409319 0.07384412 0.07414141 0.07475164 0.07539943 0.07587098 0.07598452
 0.07565546 0.07502506 0.07437144 0.07385764 0.0734854 0.07327633 0.07332193 0.07361607 0.07397715 0.07420313
 0.07423167 0.07411362 0.07389948 0.07360244 0.07324229 0.07288828 0.07265157 0.07261087 0.07272175 0.07284048
 0.07288365 0.07291116 0.07298888 0.07303731 0.07291605 0.07262073 0.07230146 0.07209889 0.07202987 0.07202184
 0.07199061 0.07186161 0.07156789 0.07110594 0.07061468 0.07032726 0.07038507 0.07072869 0.07118845 0.07161438
 0.07190271 0.07200158 0.07195 0.07184506 0.07173064 0.0715641 0.07130992 0.07102869 0.07085895 0.07091174
 0.07116874 0.07148947 0.07173205 0.07184871 0.07186843 0.07185002 0.07186423 0.07194573 0.07203461 0.072028
 0.07191086 0.07178578 0.07175739 0.07182148 0.07187997 0.07185265 0.07176754 0.07173063 0.07180621 0.07195335
 0.07209079 0.0721895 0.07228013 0.07238854 0.07248311 0.07249155 0.07238248 0.07222145 0.07211389 0.07209757
 0.07213223 0.07218783 0.07228621 0.07244183 0.07260774 0.07271264 0.07273795 0.07273349 0.07275081 0.07277796
 0.07276014 0.07267705 0.0725729 0.07250798 0.07250354 0.07253741 0.07257295 0.07258348 0.07256082 0.07251126
 0.07244686 0.07237727 0.07230461 0.07222997 0.07217283 0.07217312 0.07224909 0.07235329 0.07239523 0.07232267
 0.07217227 0.07203163 0.07195365 0.0719141 0.07185335 0.07174789 0.07162845 0.07153548 0.07147837 0.0714407
 0.07140441 0.07136238 0.07132668 0.07133487 0.07142662 0.07159281 0.07175843 0.07184076 0.07182559 0.07177208
 0.0717474 0.07177361 0.07183266 0.07190111 0.0719768 0.07207952 0.07221918 0.0723639 0.07246325 0.07251075
 0.07255712 0.07265405 0.07281192 0.07301395 0.07323235 0.07342282 0.07354543 0.07361028 0.07367498 0.0737825
 0.07392383 0.0740704 0.07421705 0.0743769 0.07455458 0.0747463 0.07495937 0.07521244 0.07551341 0.07584362
 0.07616348 0.07643449 0.07664862 0.07684545 0.07709059 0.07742193 0.07781471 0.07820408 0.07854286 0.07883701
 0.07912591 0.07943346 0.07974897 0.08006045 0.08038758 0.08076088 0.08117786 0.08160397 0.08201362 0.08240831
 0.08279751 0.08318318 0.08356653 0.08395637 0.08436558 0.08480065 0.08524958 0.08568003 0.08606037 0.08638979
 0.08670425 0.08705008 0.08744861 0.08787505 0.0882679 0.08857673 0.08881728 0.08906761 0.08938926 0.08976054
 0.09011032 0.09041125 0.09070863 0.09105349 0.09143837 0.09181716 0.09216663 0.09250566 0.09286049 0.09322618
 0.09356348 0.09383257 0.09403465 0.09421722 0.09443051 0.09468961 0.09499024 0.0953401 0.09574374 0.09616732
 0.09655277 0.0968657 0.09711012 0.09730865 0.09749281 0.0976989 0.09794448 0.09821319 0.09847429 0.09870306
 0.09888026 0.09900564 0.09912416 0.09930405 0.09956923 0.0998828 0.10021 0.1005607 0.1009483 0.1013434
 0.1017095 0.1020657 0.1024672 0.1029181 0.1033452 0.1036743 0.1039018 0.1040712 0.1042144 0.1043567
 0.10455 0.1048485 0.1052492 0.1056922 0.1061205 0.1065165 0.1068845 0.1072247 0.1075286 0.1077878
 0.1080003 0.1081735 0.1083238 0.1084791 0.1086742 0.108926 0.1092076 0.1094606 0.109641 0.1097374
 0.1097452 0.1096555 0.1094889 0.1093115 0.109178 0.109063 0.1088737 0.1085302 0.1080175 0.107361
 0.1065809 0.1056875 0.1047127 0.1037284 0.1028295 0.1020982 0.1015887 0.1013393 0.1013845 0.1017327
 0.1023263 0.1030367 0.1037084 0.1042021 0.1044064 0.1042465 0.1037147 0.1028857 0.1018784 0.1008003
 0.09972237 0.0986758 0.0976534 0.09663613 0.09565191 0.0948097 0.09426831 0.09418692 0.09471343 0.09597416
 0.09799914 0.1006215 0.1034806 0.106177 0.1084616 0.110299 0.1117889 0.1130612 0.1142219 0.115328
 0.1163765 0.1173304 0.1181732 0.1189287 0.1196275 0.1202719 0.1208364 0.1212888 0.1216151 0.1218331
 0.1219787 0.1220763 0.1221354 0.1221737 0.1222171 0.1222643 0.1222624 0.122128 0.1217845 0.1211879
 0.1203393 0.1193104 0.1183007 0.1176865 0.117941 0.1193762 0.12189 0.1249813 0.1280422 0.1306571
 0.1326885 0.1341902 0.1352966 0.1361502 0.1368648 0.1375137 0.1381363 0.1387436 0.1393282 0.1398832
 0.1404136 0.1409309 0.141444 0.1419562 0.1424611 0.1429412 0.1433839 0.1438006 0.144225 0.1446853
 0.1451772 0.145667 0.1461277 0.1465642 0.1469966 0.1474243 0.1478278 0.1482009 0.1485627 0.1489394
 0.1493469 0.1497836 0.150226 0.1506377 0.1510007 0.1513315 0.1516602 0.1519994 0.1523416 0.1526797
 0.1530152 0.1533509 0.1536841 0.1540158 0.1543592 0.1547245 0.1550954 0.1554363 0.1557286 0.1559919
 0.1562614 0.1565537 0.1568586 0.1571574 0.1574468 0.1577495 0.1580948 0.1584827 0.1588724 0.1592139
 0.1594927 0.1597386 0.1599942 0.1602817 0.1605972 0.160928 0.1612635 0.1615967 0.1619238 0.162248
 0.1625755 0.1629069 0.1632355 0.163555 0.1638646 0.1641691 0.1644727 0.1647765 0.1650817 0.1653976
 0.1657354 0.1660915 0.1664419 0.1667618 0.1670461 0.167307 0.1675609 0.1678211 0.168096 0.1683871
 0.1686899 0.1689995 0.1693123 0.1696232 0.1699269 0.1702237 0.1705206 0.1708249 0.1711391 0.1714617
 0.1717908 0.1721243 0.172456 0.1727771 0.1730829 0.1733776 0.1736678 0.1739577 0.1742499 0.1745468
 0.1748462 0.1751436 0.175438 0.1757335 0.1760334 0.1763361 0.1766379 0.1769366 0.1772329 0.1775302
 0.1778299 0.1781287 0.1784245 0.1787212 0.1790229 0.1793271 0.1796277 0.1799204 0.1802062 0.1804897
 0.1807765 0.1810682 0.1813631 0.1816601 0.181959 0.1822574 0.1825519 0.1828402 0.1831209 0.1833954
 0.1836706 0.183953 0.1842408 0.1845281 0.1848131 0.1850983 0.1853849 0.1856746 0.1859698 0.18627
 0.186573 0.1868785 0.1871854 0.1874888 0.1877857 0.1880787 0.1883713 0.1886648 0.1889597 0.1892571
 0.1895576 0.1898605 0.1901628 0.1904607 0.1907542 0.1910446 0.1913288 0.1916035 0.1918736 0.1921463
 0.1924224 0.1927003 0.1929813 0.1932638 0.1935428 0.193818 0.1940957 0.1943811 0.1946766 0.1949825
 0.1952931 0.1955987 0.1958952 0.1961867 0.1964804 0.1967835 0.1970953 0.1974035 0.1976984 0.1979891
 0.1982923 0.1986103 0.1989315 0.199244 0.1995415 0.1998259 0.200108 0.2003976 0.2006937 0.2009924
 0.2012927 0.2015946 0.2018988 0.2022073 0.2025153 0.2028152 0.2031121 0.2034179 0.2037293 0.2040317
 0.2043208 0.2046021 0.2048805 0.2051627 0.2054549 0.2057532 0.2060516 0.2063548 0.2066663 0.2069798
 0.2072904 0.207597 0.2078948 0.2081849 0.2084826 0.2087942 0.2091062 0.2094055 0.2096876 0.2099376
 0.2101106 0.2100755 0.2094893 0.2076736 0.203617 0.1961897 0.184599 0.1688971 0.1501399 0.1300085
 0.1101915 0.09195803 0.07605077 0.06279537 0.05225898 0.04434524 0.03885998 0.03563629 0.03466444 0.03620816
 0.04092004 0.0494535 0.06103106 0.07217728 0.07807015 0.07634737 0.0693669 0.06205755 0.05782205 0.05689511
 0.05781626 0.05933727 0.06105821 0.06320488 0.06617514 0.07008997 0.0747672 0.08020448 0.08681921 0.09492522
 0.1040974 0.1133458 0.1219689 0.1301058 0.1384067 0.1472519 0.1563553 0.1650483 0.1728132 0.1795451
 0.1854534 0.1908259 0.1958618 0.2006486 0.2052206 0.2095622 0.2135206 0.2167669 0.2189494 0.2199587
 0.2200596 0.219747 0.2194534 0.219374 0.21952 0.2198563 0.2203648 0.2210329 0.22184 0.2227553
 0.2237385 0.2247516 0.2257694 0.2267708 0.227729 0.2286234 0.2294498 0.2302116 0.2309114 0.2315549
 0.2321502 0.2327027 0.2332168 0.2336996 0.2341579 0.2345944 0.2350079 0.2353948 0.235755 0.2360955
 0.2364234 0.2367388 0.2370412 0.2373366 0.2376311 0.2379211 0.2382004 0.2384708 0.2387402 0.2390158
 0.2392997 0.2395863 0.2398661 0.2401368 0.2404061 0.2406771 0.2409426 0.2411976 0.241448 0.2417017
 0.2419619 0.2422321 0.2425129 0.2427952 0.2430655 0.2433215 0.2435775 0.2438502 0.2441396 0.2444272
 0.2447004 0.2449725 0.2452668 0.2455829 0.2458983 0.2461966 0.2464784 0.2467508 0.2470229 0.2473026
 0.2475817 0.2478382 0.2480643 0.2482841 0.2485368 0.2488435 0.2491887 0.24953 0.2498346 0.250104
 0.2503615 0.2506227 0.2508867 0.251143 0.2513877 0.2516423 0.2519438 0.2522982 0.2526683 0.2530217
 0.2533603 0.2536923 0.2540165 0.2543398 0.2546666 0.2549666 0.255199 0.2553818 0.2556043 0.2559557
 0.2564381 0.2569545 0.2573971 0.257744 0.2580523 0.25838 0.2587465 0.2591201 0.2593943 0.2594576
 0.2593713 0.2594017 0.2597787 0.2604634 0.26122 0.2618603 0.2623547 0.2627624 0.2631303 0.263449
 0.2636647 0.2637366 0.2637214 0.2638033 0.264172 0.2648268 0.2655579 0.2661611 0.2666012 0.2669371
 0.2672118 0.2674505 0.2676158 0.2675343 0.2670787 0.2665071 0.2664019 0.2671057 0.2683349 0.2694828
 0.2702217 0.2706695 0.2710484 0.2714064 0.2716885 0.2717919 0.2714274 0.2702799 0.2686261 0.267515
 0.2679056 0.2697006 0.2719134 0.273652 0.2746813 0.2752165 0.2755443 0.2758275 0.2759768 0.2756588
 0.2746716 0.273436 0.2728882 0.2736155 0.2751979 0.2766591 0.2774633 0.2777995 0.2780612 0.2784055
 0.2786472 0.2782057 0.2764353 0.2735772 0.2712367 0.2712522 0.2738947 0.2775403 0.2802807 0.2815654
 0.2820455 0.282163 0.2814991 0.2795281 0.2764146 0.2729428 0.2702485 0.2696444 0.271754 0.2754449
 0.2784735 0.2796943 0.2800258 0.2809561 0.282774 0.2845895 0.2854835 0.2852115 0.2840481 0.282294
 0.2801353 0.2780967 0.2773111 0.2787202 0.2819266 0.285338 0.2876377 0.2887821 0.2893005 0.2887456
 0.285388 0.2782932 0.2699127 0.265403 0.268073 0.2759268 0.2838173 0.2885139 0.2904691 0.2913896
 0.2919385 0.2915594 0.2888086 0.2821532 0.2724109 0.2642591 0.2630626 0.2695688 0.2790599 0.2857506
 0.2867096 0.2821524 0.2744132 0.2672675 0.2643942 0.2671407 0.2739258 0.2818036 0.2882357 0.2917943
 0.292147 0.2899197 0.2866564 0.2844472 0.2844143 0.285056 0.2833845 0.278693 0.2737202 0.2706346
 0.2677005 0.2625185 0.2572933 0.2573763 0.2642935 0.2731767 0.2782218 0.2785679 0.277265 0.2757462
 0.2714097 0.2613848 0.2479656 0.2387274 0.2398955 0.2498891 0.2607326 0.2658559 0.2653158 0.263484
 0.2632097 0.2629083 0.2588032 0.2498494 0.2402441 0.2359093 0.2382121 0.2427485 0.2445718 0.2421626
 0.2357406 0.2256518 0.2151353 0.2113531 0.2193585 0.2359228 0.2520695 0.2604749 0.2581792 0.2449977
 0.2244765 0.2059297 0.1999179 0.2088265 0.2239681 0.2335572 0.232081 0.2213227 0.2052809 0.1873696
 0.1719271 0.164784 0.1697804 0.1848165 0.2019557 0.2114494 0.2071586 0.1912661 0.1745055 0.1684488
 0.1750913 0.185557 0.1900419 0.1866768 0.1801693 0.1756683 0.1757488 0.1800249 0.1856101 0.1897967
 0.1922178 0.1919493 0.1846319 0.1677488 0.1477419 0.1357851 0.1361573 0.1440619 0.154596 0.1671287
 0.1794581 0.184824 0.1795582 0.1700737 0.1673967 0.1754552 0.1877003 0.1950621 0.1948936 0.1914461
 0.1892843 0.1884063 0.186522 0.1843421 0.1857794 0.1925295 0.2010872 0.2066583 0.2081603 0.2077709
 0.2072403 0.2065753 0.2053068 0.2032806 0.2005647 0.1975717 0.1949382 0.1928056 0.1906854 0.1881823
 0.1850196 0.1800857 0.1717287 0.1602681 0.149486 0.143717 0.1433673 0.1452124 0.147072 0.1490654
 0.1493448 0.1428734 0.1280465 0.112119 0.1059394 0.1135016 0.1289899 0.1433737 0.1512376 0.1512278
 0.14347 0.130011 0.1172478 0.1138961 0.1238901 0.1426654 0.162107 0.1774827 0.1878826 0.1924489
 0.1898705 0.1814367 0.1720956 0.1676401 0.1712747 0.1821982 0.1957492 0.2044855 0.2018568 0.1888295
 0.1768903 0.1795212 0.1979175 0.2188202 0.2294075 0.2303047 0.2301868 0.2323106 0.2329832 0.2311891
 0.2323411 0.2408485 0.2535879 0.2629732 0.2636194 0.2544452 0.2378729 0.2202896 0.2104215 0.2124242
 0.2212592 0.2282448 0.2294887 0.2253907 0.2155007 0.2006457 0.1883837 0.1884479 0.201423 0.2174091
 0.2272825 0.23101 0.2335328 0.2362431 0.2353229 0.227566 0.2157397 0.2068696 0.2053036 0.2089186
 0.212708 0.2140427 0.2127829 0.2083708 0.2001566 0.190534 0.1849391 0.1871927 0.1956312 0.2047354
 0.2101312 0.2113739 0.2105832 0.2097346 0.2093132 0.2085382 0.206783 0.2053871 0.2073752 0.2141274
 0.2230268 0.2300781 0.2344687 0.2388267 0.2450965 0.2518156 0.2558473 0.2557957 0.2533725 0.2519587
 0.253912 0.2586778 0.263184 0.2644563 0.2624426 0.2603189 0.2615604 0.2666163 0.2728456 0.2775083
 0.2800052 0.2813031 0.2823114 0.2831156 0.2829446 0.2807766 0.2768504 0.2735611 0.2737893 0.2780498
 0.2839892 0.2887892 0.2914074 0.2924373 0.2926106 0.2920003 0.2904596 0.2883445 0.2865237 0.2857113
 0.2859695 0.2868806 0.2879936 0.2890202 0.2898175 0.290372 0.2907584 0.2910469 0.2912829 0.2915328
 0.2918431 0.292148 0.2923359 0.2924408 0.2926623 0.2931301 0.293722 0.2941904 0.294385 0.2942517
 0.2936957 0.2926209 0.2911015 0.2893572 0.2875103 0.2855067 0.2833928 0.2816144 0.2808875 0.281665
 0.2837257 0.2863109 0.2886489 0.2903475 0.2913915 0.2919379 0.2921725 0.2922607 0.2923153 0.2923695
 0.2923942 0.2923517 0.2922357 0.2920646 0.2918564 0.2916316 0.2914309 0.2912975 0.2912295 0.2911617
 0.2910061 0.2907112 0.2902964 0.289831 0.2893696 0.2888933 0.2883205 0.2875805 0.2866752 0.2856795
 0.284691 0.2837745 0.2829307 0.2821018 0.2812124 0.2802124 0.279072 0.2777519 0.2762279 0.2745681
 0.2729337 0.2714546 0.2701233 0.2688323 0.2674813 0.2660193 0.2644281 0.2627149 0.2609121 0.2590551
 0.2571651 0.255254 0.2533314 0.2514005 0.2494541 0.2474795 0.2454601 0.2433799 0.2412332 0.2390247
 0.2367436 0.2343278 0.2316596 0.2286035 0.2250489 0.2209275 0.216228 0.2110252 0.2054896 0.199844
 0.1942992 0.1890172 0.1841127 0.179677 0.1758026 0.1725812 0.170082 0.168337 0.1673467 0.1670878
 0.1675168 0.1685778 0.1702033 0.1722974 0.174719 0.1772883 0.1798143 0.1821403 0.1841978 0.186034
 0.1877722 0.1895181 0.1912886 0.1930251 0.1946645 0.1961786 0.1975484 0.1987404 0.1997328 0.2005431
 0.2012066 0.201744 0.2021659 0.202493 0.2027557 0.2029808 0.2031827 0.2033711 0.2035706 0.2038301
 0.2041992 0.2046971 0.205315 0.2060367 0.2068464 0.2077258 0.2086566 0.209621 0.2106019 0.211594
 0.2126168 0.2137153 0.2149511 0.216389 0.2180796 0.2200446 0.2222705 0.2246997 0.2272271 0.229721
 0.2320529 0.2341129 0.2358294 0.2371959 0.2382648 0.239096 0.2397237 0.240169 0.2404592 0.2406231
 0.2406788 0.240632 0.2404805 0.2402234 0.2398636 0.2394005 0.2388373 0.2382004 0.2375299 0.2368445
 0.2361409 0.2354308 0.2347504 0.2341271 0.2335518 0.2329896 0.2324075 0.2317952 0.2311616 0.230509
 0.2298164 0.2290522 0.22819 0.2272112 0.2261058 0.2248736 0.2235177 0.2220462 0.2204814 0.2188548
 0.217187 0.2154875 0.2137689 0.2120382 0.2102806 0.2084628 0.206544 0.2044824 0.202266 0.1999504
 0.1976451 0.1954473 0.1933925 0.1914606 0.1896147 0.187836 0.1861286 0.1844977 0.182937 0.1814433
 0.1800248 0.1786853 0.1774177 0.1762177 0.1750908 0.1740455 0.1730937 0.1722507 0.1715243 0.1709049
 0.1703667 0.1698776 0.1694255 0.1690416 0.1687755 0.1686288 0.1685316 0.1683942 0.168168 0.1678643
 0.1675317 0.1672155 0.1669282 0.166661 0.1664098 0.16616 0.1658504 0.1653772 0.1646325 0.1635379
 0.1620699 0.1602771 0.1582647 0.1561583 0.1540861 0.152168 0.150493 0.1491093 0.14803 0.1472203
 0.1465919 0.1460524 0.1455714 0.1451916 0.144981 0.1449626 0.1450561 0.1451054 0.1450161 0.144863
 0.1448309 0.1450581 0.1455441 0.1461722 0.1467972 0.1473257 0.1477251 0.1479769 0.1480685 0.1480251
 0.1478939 0.1476935 0.1474188 0.1470836 0.146715 0.1463218 0.1458892 0.1453862 0.1447826 0.1440792
 0.143302 0.142455 0.1415165 0.1404756 0.1393226 0.1380403 0.1366892 0.1354771 0.1346696 0.1344279
 0.1347259 0.1353763 0.1361558 0.1369514 0.137726 0.1383194 0.1384816 0.138271 0.1382772 0.1391926
 0.1411323 0.1434971 0.1455123 0.1467815 0.1473126 0.1472225 0.1465949 0.145507 0.14399 0.1419978
 0.1395277 0.1366964 0.1336452 0.1305068 0.1274797 0.1247721 0.1224719 0.1205697 0.1190436 0.1179449
 0.1174267 0.1171295 0.1151958 0.1092633 0.1000995 0.09319912 0.09415634 0.1023734 0.1114862 0.1160978
 0.1160777 0.1143122 0.1127867 0.1118127 0.1113128 0.1114355 0.112289 0.1136983 0.1152374 0.1164732
 0.1172354 0.1175872 0.117527 0.1167447 0.1145571 0.1101374 0.1031832 0.09451531 0.08579546 0.07854486
 0.07346477 0.07045875 0.06894977 0.06821455 0.06774337 0.06747274 0.0676831 0.06866116 0.07045586 0.07292113
 0.07587989 0.07911249 0.08224185 0.08486673 0.08687331 0.08844528 0.08972865 0.0906506 0.09108588 0.09103999
 0.09063289 0.09001055 0.08929551 0.0885479 0.08773203 0.08675286 0.08559456 0.08444264 0.08358704 0.08315501
 0.08301744 0.08298314 0.08296941 0.082962 0.08294541 0.08291551 0.0828838 0.08288209 0.08300121 0.08333782
 0.08385003 0.08435215 0.08468785 0.08484986 0.08493015 0.08497378 0.08486222 0.08441465 0.08369394 0.08305104
 0.08266789 0.08223441 0.08136189 0.0801915 0.07930151 0.07906854 0.07934333 0.07970409 0.07982981 0.07965128
 0.07934493 0.07925024 0.07963218 0.08037098</values></Ydata></ScSm><ScRf><Ydata ylabel="Single channel"><values byteorder="INTEL" format="FLOAT32" numvalues="1820"> 0.06074823 0.06091889 0.06101337 0.06103476 0.06101468 0.06100735 0.06106744 0.06121517 0.06141999 0.06161812
 0.06175426 0.0618156 0.06182097 0.06178322 0.06171132 0.06165149 0.06168063 0.06183165 0.06204406 0.06220441
 0.06223652 0.06216826 0.06211742 0.06217851 0.06229623 0.06227752 0.06197146 0.06144158 0.06092712 0.06062234
 0.06055257 0.06070941 0.0611713 0.0618857 0.06241669 0.06225229 0.0614454 0.06065089 0.06039859 0.06058256
 0.06076368 0.06068177 0.0603406 0.05990375 0.05973127 0.06028178 0.06165976 0.06324478 0.063916 0.06275915
 0.05971941 0.05580622 0.05272031 0.0519412 0.05368497 0.0566108 0.05882807 0.05940439 0.05881102 0.05796164
 0.05722504 0.05654477 0.05608793 0.05629168 0.05726373 0.05836305 0.0585313 0.05720928 0.05500487 0.05325197
 0.05278707 0.05343149 0.05471575 0.05639008 0.05769453 0.05694705 0.05319783 0.04831901 0.04617012 0.04893186
 0.05478212 0.0596744 0.0609365 0.05878298 0.05515467 0.05210357 0.05099837 0.05215925 0.05482751 0.05779762
 0.06013624 0.06120485 0.06049851 0.0580941 0.05508041 0.05302522 0.05300803 0.05519766 0.05882172 0.06223978
 0.06368527 0.06256658 0.05986134 0.0570865 0.05530129 0.05510661 0.05679364 0.06004767 0.06392159 0.06737708
 0.06970918 0.0706333 0.07035288 0.06942841 0.06834932 0.06744301 0.067164 0.06781985 0.06882289 0.0689096
 0.06751369 0.06552623 0.06438141 0.06457472 0.06526799 0.06530821 0.06439403 0.06289507 0.06071621 0.05726304
 0.05281416 0.04890003 0.04677537 0.04645436 0.04761587 0.05010389 0.0528673 0.05389259 0.05240997 0.05030568
 0.05025715 0.05287413 0.05638076 0.05877769 0.05969562 0.06025232 0.0616181 0.06381939 0.06559561 0.06535082
 0.06273346 0.05952236 0.05837099 0.06020473 0.06332909 0.06551176 0.06633837 0.06697121 0.06811915 0.06893894
 0.06791744 0.06467455 0.06092126 0.05939124 0.06145411 0.0657447 0.06915936 0.06915229 0.0654465 0.06008862
 0.05585435 0.05432919 0.05549772 0.05881505 0.06381063 0.0695054 0.07414877 0.07620114 0.07545225 0.07295027
 0.06979945 0.0661342 0.06168036 0.05744446 0.05593293 0.05878982 0.06469667 0.07046687 0.07388517 0.0748153
 0.07397286 0.07156934 0.0675127 0.06272065 0.05955259 0.05997969 0.06320569 0.06611346 0.06652522 0.0651924
 0.06419465 0.06435326 0.06491967 0.06516819 0.06543682 0.06655107 0.06863766 0.07080738 0.07200982 0.07198543
 0.07131675 0.07075503 0.0705394 0.07022095 0.06930083 0.06822534 0.0683364 0.07039642 0.07353345 0.0761338
 0.07745977 0.07791986 0.07798621 0.07735892 0.07539189 0.07230238 0.06967291 0.06928056 0.07137784 0.0745286
 0.07709952 0.07843839 0.07873178 0.07841414 0.07786806 0.07729924 0.07680518 0.07664514 0.07717267 0.07832853
 0.07952419 0.08023143 0.08041893 0.08028591 0.07987775 0.0791626 0.07831078 0.07770366 0.0776576 0.07818674
 0.07904533 0.07994634 0.08066463 0.0810024 0.08085995 0.08038298 0.07987697 0.07952981 0.07934499 0.07933614
 0.07959475 0.08011268 0.08069138 0.08110978 0.08130357 0.08133692 0.08127405 0.08113274 0.08092885 0.08072906
 0.08065151 0.08078277 0.08107302 0.08136835 0.08158991 0.08181094 0.08209205 0.08232333 0.08233738 0.08213577
 0.08190326 0.08181162 0.08188111 0.08202234 0.08213405 0.0821283 0.08192536 0.08152347 0.08109002 0.08089509
 0.08109675 0.08163051 0.08231317 0.0829708 0.08346327 0.08371159 0.08375958 0.08372995 0.08368337 0.08357678
 0.08337416 0.08314985 0.08306399 0.0832401 0.08365414 0.08414651 0.0845512 0.08479609 0.08489647 0.08492564
 0.08499543 0.08517121 0.08537805 0.08546975 0.08541305 0.08533499 0.08536576 0.08548913 0.08557508 0.08553746
 0.08543654 0.08541873 0.08556135 0.08580139 0.08602312 0.08618379 0.08633245 0.08651935 0.08670544 0.08677788
 0.08667403 0.08647265 0.0863184 0.08626757 0.08627035 0.08629949 0.08640886 0.08663043 0.08688065 0.08703055
 0.08704853 0.08702637 0.08705956 0.08713442 0.08715227 0.08704747 0.08685753 0.08668401 0.0866085 0.08664436
 0.08674152 0.08682276 0.08682911 0.08675153 0.08662741 0.08650431 0.08640759 0.08634995 0.08636558 0.08650187
 0.08674788 0.08698528 0.08705473 0.08689757 0.08662125 0.08640565 0.08633988 0.08635619 0.08631777 0.08615433
 0.08590722 0.08566517 0.08548284 0.08535774 0.08525838 0.08516268 0.08508624 0.08508292 0.08519287 0.08536701
 0.08546653 0.08537772 0.08512474 0.08484247 0.08464982 0.08457337 0.08456816 0.08457269 0.0845599 0.08456274
 0.08462754 0.08472733 0.08476692 0.08469824 0.08458564 0.08453485 0.08460203 0.08477834 0.08500113 0.08516342
 0.08517836 0.08506882 0.08495426 0.08492892 0.08498587 0.08506723 0.08514404 0.08522239 0.08530509 0.08538735
 0.08548541 0.08563973 0.08587517 0.08616456 0.08643776 0.08663139 0.08673988 0.08682664 0.08697952 0.08724222
 0.08758003 0.0879099 0.08816694 0.08834988 0.0885063 0.0886748 0.08885253 0.0890296 0.08923414 0.08950935
 0.08985248 0.09021035 0.09053752 0.09083155 0.09111135 0.09138876 0.09167091 0.09197672 0.09233864 0.09277245
 0.0932339 0.09362324 0.09386384 0.09397876 0.09407568 0.09426445 0.09458868 0.0949978 0.095364 0.09557338
 0.09564231 0.09571369 0.09590071 0.09616975 0.09642106 0.09664717 0.09694284 0.0973634 0.0978335 0.09821935
 0.09846108 0.09861401 0.09877247 0.09896924 0.09915389 0.09926753 0.09932395 0.09939346 0.09951586 0.09967366
 0.09986369 0.1001389 0.1005355 0.1009943 0.1014036 0.101702 0.1019044 0.1020507 0.1021674 0.1022623
 0.1023253 0.1023496 0.1023665 0.1024279 0.1025362 0.1026298 0.1026653 0.1026782 0.1027375 0.1028754
 0.1030881 0.1033675 0.1036898 0.1040002 0.1042627 0.1045192 0.1048449 0.10523 0.1055572 0.1057264
 0.1057637 0.1057679 0.1057887 0.1058156 0.105865 0.1060005 0.1062568 0.1065945 0.1069507 0.1073012
 0.1076536 0.1080055 0.108323 0.108555 0.1086657 0.1086668 0.108623 0.1086226 0.1087342 0.1089736
 0.1092967 0.109628 0.1099083 0.1101101 0.1102128 0.1102028 0.1101222 0.1100844 0.1101826 0.1103841
 0.1105455 0.110536 0.1103209 0.109934 0.1094121 0.1087818 0.1080907 0.1074192 0.1068525 0.1064437
 0.1062118 0.106178 0.1063831 0.1068445 0.1074975 0.1082115 0.1088682 0.1093951 0.1097182 0.1097413
 0.1094167 0.1088119 0.1080718 0.1073278 0.1066507 0.1060514 0.1054927 0.1049349 0.104416 0.1040851
 0.104134 0.1046872 0.1057368 0.1071441 0.1086865 0.1101375 0.1113548 0.1123227 0.1131175 0.1138257
 0.1144951 0.1151511 0.1158217 0.1165128 0.1171751 0.1177415 0.1182008 0.1186049 0.1190032 0.1193957
 0.1197489 0.1200346 0.1202563 0.1204516 0.1206532 0.1208386 0.1209423 0.1209307 0.1208405 0.1207277
 0.1206047 0.1204367 0.1201792 0.1198112 0.1193654 0.1189565 0.11877 0.1189852 0.1196707 0.1207402
 0.1220168 0.1233463 0.1246379 0.1258126 0.1267697 0.1274453 0.1278748 0.1281651 0.1284143 0.1286742
 0.1289628 0.1292771 0.1295977 0.1299027 0.1301836 0.1304542 0.1307461 0.1310823 0.1314425 0.1317689
 0.1320247 0.1322429 0.1325005 0.1328428 0.1332394 0.13362 0.133952 0.134266 0.1345963 0.1349159
 0.1351645 0.1353309 0.1354758 0.135673 0.1359564 0.1363133 0.1366935 0.1370279 0.1372724 0.1374455
 0.1376056 0.1377925 0.1380053 0.13823 0.1384647 0.1387117 0.1389672 0.139233 0.1395253 0.13985
 0.1401721 0.1404316 0.140602 0.1407218 0.1408583 0.1410462 0.1412663 0.1414797 0.141676 0.1418869
 0.1421533 0.1424749 0.1427974 0.1430561 0.1432306 0.1433546 0.1434786 0.1436327 0.1438214 0.1440355
 0.1442591 0.1444735 0.1446692 0.144856 0.1450547 0.1452744 0.1455043 0.1457275 0.1459379 0.1461414
 0.1463451 0.1465525 0.1467696 0.1470118 0.1472929 0.1476017 0.1478963 0.1481347 0.1483082 0.1484411
 0.1485628 0.1486907 0.1488335 0.1489971 0.1491816 0.1493807 0.1495859 0.1497907 0.1499916 0.150189
 0.1503868 0.1505902 0.1508027 0.1510238 0.1512514 0.151485 0.1517236 0.1519588 0.1521782 0.1523771
 0.1525642 0.1527527 0.1529477 0.1531431 0.1533272 0.1534968 0.1536648 0.1538495 0.1540554 0.1542701
 0.1544791 0.1546782 0.1548705 0.1550606 0.1552512 0.1554442 0.1556418 0.1558457 0.1560532 0.156256
 0.1564491 0.1566368 0.1568268 0.15702 0.1572131 0.1574075 0.1576103 0.1578231 0.158037 0.1582404
 0.1584311 0.1586165 0.1588046 0.1589977 0.1591946 0.1593934 0.159593 0.1597959 0.1600035 0.1602129
 0.1604195 0.1606214 0.160819 0.1610139 0.161213 0.1614237 0.1616434 0.1618614 0.1620738 0.1622844
 0.1624935 0.1626973 0.1628962 0.1630956 0.1633025 0.1635224 0.163755 0.1639905 0.1642143 0.1644177
 0.1646001 0.1647682 0.1649315 0.165097 0.1652672 0.1654451 0.1656331 0.1658274 0.1660202 0.1662101
 0.1664039 0.1666072 0.1668187 0.1670309 0.1672355 0.1674325 0.1676303 0.167832 0.1680317 0.168228
 0.1684264 0.1686278 0.1688284 0.1690306 0.1692415 0.1694618 0.1696854 0.1699043 0.1701117 0.1703063
 0.1704949 0.170684 0.1708772 0.1710818 0.1713021 0.1715294 0.1717508 0.1719648 0.1721756 0.1723843
 0.1725936 0.1728058 0.1730145 0.1732128 0.1734077 0.17361 0.1738215 0.1740414 0.1742692 0.1744996
 0.1747269 0.1749523 0.1751748 0.1753895 0.1756002 0.1758146 0.1760294 0.1762379 0.1764451 0.1766552
 0.1768643 0.1770719 0.1772791 0.1774682 0.1775909 0.1775286 0.1769906 0.1754085 0.17193 0.1655962
 0.1557296 0.1423717 0.1264213 0.1093134 0.09249349 0.07704469 0.06358735 0.05237453 0.04344743 0.03673112
 0.03208061 0.02936344 0.02856033 0.02987506 0.0338494 0.04104165 0.05080827 0.06021925 0.06519458 0.06372978
 0.05781907 0.05163843 0.04806746 0.04729147 0.04805858 0.04931223 0.05073062 0.05252024 0.05501899 0.05832221
 0.06227162 0.06686333 0.07244422 0.07927035 0.08697899 0.09474021 0.1019728 0.1088037 0.1157853 0.1232343
 0.130901 0.1382159 0.1447436 0.1503999 0.1553628 0.1598734 0.1640984 0.1681089 0.1719308 0.1755535
 0.1788573 0.1815731 0.1834041 0.1842498 0.1843232 0.1840342 0.1837465 0.1836332 0.1837177 0.1839795
 0.1843987 0.1849506 0.1856101 0.1863571 0.1871675 0.1880091 0.1888525 0.1896756 0.1904605 0.1911943
 0.1918707 0.1924886 0.1930518 0.1935714 0.1940582 0.1945139 0.1949356 0.1953239 0.1956859 0.1960308
 0.196364 0.1966814 0.1969744 0.197242 0.1974934 0.1977371 0.1979724 0.1981925 0.1983935 0.1985804
 0.1987672 0.1989669 0.1991816 0.1994052 0.199631 0.1998533 0.2000652 0.2002631 0.2004522 0.2006408
 0.2008332 0.2010281 0.2012217 0.2014108 0.2015971 0.2017876 0.2019871 0.2021909 0.202389 0.2025771
 0.2027633 0.2029598 0.2031693 0.203381 0.203586 0.2037916 0.2040089 0.2042338 0.2044536 0.204666
 0.2048766 0.2050856 0.205291 0.2054954 0.2056954 0.2058741 0.2060209 0.206156 0.2063216 0.2065415
 0.2067942 0.207033 0.2072347 0.2074154 0.2076005 0.2077957 0.2079934 0.2081855 0.2083685 0.208553
 0.2087637 0.2090108 0.2092724 0.2095241 0.2097653 0.2100042 0.2102392 0.2104677 0.2106865 0.2108785
 0.2110245 0.2111412 0.2112937 0.2115498 0.2119119 0.2123006 0.2126244 0.2128631 0.2130647 0.2132824
 0.2135412 0.2138203 0.2140284 0.2140633 0.2139657 0.2139529 0.2142207 0.2147483 0.215348 0.2158585
 0.2162424 0.2165411 0.2167955 0.2170028 0.2171229 0.2171296 0.2170786 0.2171203 0.2173961 0.217893
 0.2184423 0.2188904 0.2192159 0.219465 0.2196677 0.2198396 0.2199453 0.2198398 0.2194211 0.2189085
 0.2187856 0.2193332 0.2203129 0.2212247 0.2218024 0.2221444 0.2224302 0.222698 0.2229073 0.2229744
 0.2226497 0.221664 0.2202541 0.2193058 0.2196182 0.2210977 0.2229105 0.2243126 0.2251177 0.2255168
 0.225756 0.2259691 0.2260736 0.225786 0.2249409 0.2238967 0.2234352 0.2240378 0.2253449 0.2265394
 0.2271804 0.227435 0.227638 0.2279203 0.2281221 0.2277576 0.2262934 0.2239309 0.2219956 0.2220027
 0.2241736 0.2271688 0.229415 0.2304595 0.2308412 0.2309257 0.2303689 0.2287414 0.226184 0.2233396
 0.2211317 0.2206321 0.2223577 0.2253844 0.227869 0.2288666 0.229133 0.2298967 0.2313987 0.2329043
 0.2336514 0.2334366 0.2324897 0.2310616 0.2293042 0.2276458 0.2270159 0.2281879 0.2308356 0.2336518
 0.235555 0.2365088 0.236946 0.2364927 0.2337175 0.2278478 0.2209128 0.217186 0.2194203 0.2259734
 0.2325702 0.2365066 0.2381437 0.2389093 0.2393731 0.2390843 0.2368498 0.2313967 0.2233874 0.2166772
 0.2157062 0.2211098 0.2290001 0.234589 0.2354372 0.2317144 0.2253594 0.2195068 0.2171965 0.2195304
 0.2251953 0.2317594 0.2371295 0.2401269 0.2404752 0.238688 0.2360421 0.2342702 0.2343017 0.234895
 0.2335865 0.2297998 0.2257963 0.2233546 0.2210242 0.2168167 0.2125755 0.2127635 0.2186588 0.2262078
 0.2305727 0.2310323 0.230118 0.2290114 0.2255394 0.2173134 0.2062564 0.1987087 0.199888 0.2084686
 0.2177584 0.222249 0.2219952 0.2206685 0.2206629 0.2206472 0.2174312 0.2101204 0.2022675 0.1989068
 0.2012146 0.2054631 0.2074515 0.205868 0.2008628 0.1927096 0.1841934 0.1814919 0.1889898 0.2039328
 0.2185632 0.2265018 0.2251162 0.2141765 0.1967549 0.1810749 0.1765207 0.1852458 0.1995522 0.2089558
 0.2085156 0.1997596 0.1862046 0.170918 0.1579136 0.1526637 0.158857 0.1746344 0.1925372 0.2032052
 0.2005822 0.1866496 0.1718681 0.16767 0.1760471 0.1881309 0.1940928 0.192054 0.1867739 0.183545
 0.185126 0.1911596 0.1985514 0.2043998 0.2083163 0.2091891 0.2020933 0.1842175 0.162715 0.1499786
 0.150777 0.1598597 0.1718681 0.1861273 0.2001215 0.2062163 0.2002621 0.1894285 0.1860708 0.1946134
 0.207774 0.2154671 0.2147838 0.2105054 0.207752 0.2065506 0.2043717 0.2020055 0.2037844 0.211585
 0.2215388 0.228356 0.230843 0.2314099 0.2319997 0.2326121 0.2326899 0.2320215 0.2306692 0.2291077
 0.2280789 0.2277668 0.2276296 0.2272239 0.2261922 0.2230258 0.2153945 0.203416 0.1917188 0.1857702
 0.1860865 0.1886223 0.1907873 0.1929616 0.1928934 0.1841099 0.1644671 0.1431811 0.1341209 0.1424049
 0.1605905 0.1771638 0.1853563 0.1837359 0.1727904 0.1551439 0.1382786 0.1321591 0.1410957 0.1596151
 0.1783168 0.1919616 0.2000028 0.2020776 0.1970692 0.186338 0.1749639 0.168819 0.1710176 0.1805784
 0.1927257 0.2000746 0.1962639 0.1823191 0.1694155 0.170584 0.1870137 0.2060233 0.2153146 0.2154027
 0.2145146 0.2158058 0.2158561 0.2137147 0.2144616 0.2222782 0.2343196 0.243528 0.2448336 0.2371486
 0.2226854 0.2074475 0.199668 0.2031726 0.2129566 0.220563 0.2222285 0.2183955 0.2087415 0.1942376
 0.1823851 0.1827156 0.1957646 0.2118219 0.2219598 0.2261665 0.2293082 0.2327394 0.2326449 0.2258104
 0.2149847 0.2071909 0.2067946 0.2116993 0.2169292 0.2198761 0.2203538 0.2176444 0.2109333 0.2026851
 0.1986827 0.2030159 0.2138291 0.2250158 0.231648 0.2330652 0.2314863 0.2291259 0.2266814 0.2234772
 0.2189481 0.2145847 0.2136513 0.2177041 0.2241409 0.2288881 0.231069 0.2333012 0.2375659 0.2424712
 0.2449475 0.2435995 0.2400302 0.2374428 0.2380754 0.2414296 0.2446392 0.244913 0.2421901 0.2394477
 0.2399566 0.2441572 0.2495979 0.2537279 0.255977 0.2572179 0.2582653 0.259163 0.2591482 0.2572235
 0.2535726 0.2503918 0.2503359 0.2538859 0.2588933 0.2628038 0.2647195 0.2652479 0.2651014 0.264357
 0.2628709 0.2609451 0.259337 0.2586578 0.2589346 0.2597793 0.2607943 0.2617337 0.2624677 0.2629694
 0.2632949 0.2635023 0.2636237 0.2637094 0.2638016 0.2638519 0.2637722 0.2636077 0.2635581 0.2637586
 0.2641078 0.2643797 0.2644313 0.264215 0.2636605 0.2626948 0.2613819 0.259906 0.2583684 0.256716
 0.2549859 0.2535776 0.2531338 0.2540462 0.2560852 0.2585447 0.260734 0.2623217 0.263308 0.2638296
 0.2640442 0.2641003 0.2641023 0.2640754 0.2639877 0.2638105 0.2635463 0.2632126 0.2628262 0.2624142
 0.2620217 0.2616882 0.2614124 0.2611433 0.2608116 0.2603773 0.2598565 0.2593047 0.2587616 0.2582085
 0.2575821 0.2568291 0.2559457 0.2549806 0.254015 0.2531291 0.2523522 0.2516375 0.2509038 0.2501007
 0.2492117 0.2482108 0.2470808 0.2458914 0.2447999 0.2439252 0.243242 0.2426234 0.2419556 0.2411883
 0.2403134 0.2393432 0.2383059 0.2372332 0.2361442 0.2350377 0.2338918 0.2326681 0.2313336 0.2298831
 0.2283389 0.2267345 0.2251042 0.2234702 0.2218131 0.2200525 0.2180689 0.2157432 0.2129718 0.2096687
 0.20579 0.2013766 0.1965719 0.1915872 0.1866416 0.1819203 0.1775665 0.1736885 0.1703611 0.1676302
 0.1655306 0.1640989 0.1633652 0.1633373 0.1640022 0.1653287 0.1672565 0.1696808 0.1724578 0.1754248
 0.1784132 0.1812626 0.1838639 0.186211 0.1883916 0.1904923 0.1925119 0.1943809 0.1960453 0.197498
 0.1987415 0.1997724 0.2006116 0.2013109 0.2019137 0.2024297 0.2028551 0.2032028 0.2035012 0.2037738
 0.2040234 0.2042373 0.204409 0.2045565 0.2047178 0.2049256 0.2051907 0.2055106 0.2058896 0.2063385
 0.2068515 0.2074005 0.2079634 0.2085479 0.2091715 0.209835 0.210535 0.2113027 0.2122047 0.2132963
 0.2145749 0.2159764 0.2174055 0.2187669 0.2199798 0.2209855 0.2217543 0.2222835 0.2225866 0.222686
 0.2226129 0.2224029 0.2220851 0.2216793 0.2212022 0.2206682 0.2200862 0.2194634 0.2188105 0.2181379
 0.2174504 0.2167535 0.216063 0.2153957 0.2147509 0.2141092 0.2134541 0.2127907 0.2121398 0.2115204
 0.2109388 0.2103865 0.2098439 0.2092929 0.2087266 0.2081382 0.2075019 0.20678 0.2059527 0.2050272
 0.2040136 0.2029079 0.2017061 0.2004187 0.1990614 0.1976378 0.1961396 0.1945618 0.1929142 0.1912098
 0.1894347 0.187549 0.1855382 0.1834635 0.1814366 0.1795451 0.1778136 0.1762206 0.1747317 0.1733201
 0.1719722 0.1706827 0.1694485 0.1682716 0.1671594 0.1661108 0.1651128 0.1641604 0.1632718 0.1624733
 0.1617754 0.1611649 0.1606176 0.1601225 0.1596902 0.1593334 0.1590556 0.1588695 0.1587965 0.1588252
 0.1588922 0.1589267 0.1588985 0.1588157 0.1587021 0.1585844 0.1584845 0.1584129 0.1583664 0.1583142
 0.1581821 0.15787 0.1572928 0.1564028 0.1551924 0.1536936 0.1519721 0.1501239 0.1482765 0.1465673
 0.1450975 0.1439125 0.1430154 0.1423681 0.1418886 0.1414938 0.1411612 0.1409447 0.140926 0.1411238
 0.1414251 0.1416449 0.1416993 0.141694 0.1418198 0.1421961 0.1428175 0.1435821 0.1443536 0.1450338
 0.1455846 0.1459843 0.146216 0.1463098 0.1463287 0.1462991 0.1461989 0.14601 0.1457428 0.1454237
 0.1450739 0.144684 0.1442151 0.1436428 0.1429724 0.1422094 0.1413587 0.1404354 0.1394226 0.1382719
 0.1370265 0.1359011 0.1351754 0.1350281 0.1354586 0.1362933 0.137294 0.138318 0.139306 0.1400945
 0.1404489 0.1404436 0.140657 0.1417523 0.1438337 0.1463192 0.1484551 0.1498556 0.1505324 0.1505983
 0.1501234 0.14917 0.1477546 0.1458202 0.1433681 0.1405273 0.1374394 0.134234 0.1311296 0.1283714
 0.1260779 0.124254 0.1228638 0.1219151 0.1215255 0.121321 0.1193939 0.1133055 0.1038781 0.09686485
 0.09809882 0.106927 0.1166778 0.1216962 0.1218306 0.1201001 0.1185967 0.1176414 0.117119 0.1171619
 0.1178985 0.1191899 0.1206432 0.1218415 0.1226059 0.1229786 0.1229373 0.1221394 0.1198457 0.115174
 0.1078088 0.09862371 0.08938481 0.0817142 0.07635319 0.07318224 0.07158138 0.07078981 0.07027046 0.06996118
 0.07017609 0.07122986 0.07316949 0.0758379 0.07904549 0.08253743 0.08588937 0.08868286 0.09082711 0.0925405
 0.09398781 0.09508306 0.09566161 0.0956991 0.09532068 0.09469247 0.09394696 0.09315046 0.09227739 0.09123838
 0.09001979 0.08881418 0.08791915 0.08746692 0.08733372 0.0873237 0.08733089 0.08731914 0.08727293 0.08720053
 0.08712439 0.08708455 0.08717085 0.08747038 0.08794615 0.08843584 0.08878957 0.08897287 0.0890465 0.08904513
 0.08885265 0.08829641 0.08745676 0.08670417 0.0862238 0.08568084 0.08465162 0.08328232 0.0822201 0.08190928
 0.08218328 0.08254297 0.08263079 0.08240741 0.08207931 0.08197775 0.08234982 0.08307254 0.08364742 0.08365881
</values></Ydata></ScRf><Data_Parameters_AB><parameter name="DPF">1</parameter><parameter name="NPT">3497</parameter><parameter name="FXV">3996</parameter><parameter name="LXV">500</parameter><parameter name="CSF">1</parameter><parameter name="MXY">0.113594278693199</parameter><parameter name="MNY">-0.0871248468756676</parameter><parameter name="DAT">01/06/2022</parameter><parameter name="TIM">11:27:24.793 (GMT+2)</parameter><parameter name="DXU">WN</parameter></Data_Parameters_AB><AB__Qtest><MainReport name="Quality Test Report"><Header><Line><Legend>Test result ok/not ok [1/0]: </Legend><Value>0</Value></Line><Line><Legend>Method file: </Legend><Value>C:\Users\Public\Documents\Bruker\OPUS_8.2.28\QT\IRBT_v3_default.QT</Value></Line></Header><Matrix><Line><Legend></Legend><Legend>min</Legend><Legend>max</Legend><Legend>measured</Legend></Line><Line><Value>Absorption (X-Range 1):</Value><Value>0.400000</Value><Value>2.000000</Value><Value>0.142813</Value></Line><Line><Value>Noise (X-Range 4):</Value><Value></Value><Value>0.000300</Value><Value>0.000034</Value></Line><Line><Value>Signal/Noise (X-Range 2):</Value><Value>200.000000</Value><Value></Value><Value>79.138995</Value></Line><Line><Value>Signal/Noise (X-Range 3):</Value><Value>40.000000</Value><Value></Value><Value>49.505168</Value></Line><Line><Value>Water vapour (X-Range 5):</Value><Value></Value><Value>0.000300</Value><Value>0.000095</Value></Line><Line><Value>Signal/Water (X-Range 2):</Value><Value>100.000000</Value><Value></Value><Value>28.483608</Value></Line><Line><Value>Signal/Water (X-Range 3):</Value><Value>20.000000</Value><Value></Value><Value>17.817838</Value></Line><Line><Value>Fringes (X-Range 6):</Value><Value></Value><Value>0.000100</Value><Value>0.000058</Value></Line></Matrix></MainReport></AB__Qtest><Data_Parameters_ScSm><parameter name="DPF">1</parameter><parameter name="NPT">1814</parameter><parameter name="FXV">3996.33169228125</parameter><parameter name="LXV">499.541461535156</parameter><parameter name="CSF">1</parameter><parameter name="MXY">0.294384986162186</parameter><parameter name="MNY">0.0346644371747971</parameter><parameter name="DAT">01/06/2022</parameter><parameter name="TIM">11:27:24.793 (GMT+2)</parameter><parameter name="DXU">WN</parameter></Data_Parameters_ScSm><Data_Parameters_ScRf><parameter name="DPF">1</parameter><parameter name="NPT">1820</parameter><parameter name="FXV">4004.04661832813</parameter><parameter name="LXV">495.683998511719</parameter><parameter name="CSF">1</parameter><parameter name="MXY">0.265247941017151</parameter><parameter name="MNY">0.0285603329539299</parameter><parameter name="DAT">01/06/2022</parameter><parameter name="TIM">11:26:59.122 (GMT+2)</parameter><parameter name="DXU">WN</parameter></Data_Parameters_ScRf><Optic_Parameters_Rf><parameter name="APR">0</parameter><parameter name="APT">Open</parameter><parameter name="BMS">KBr</parameter><parameter name="DTC">RT-DLaTGS_IR-Biotyper [Microplate reader]</parameter><parameter name="HPF">0</parameter><parameter name="LPF">10.0</parameter><parameter name="LPV">4000</parameter><parameter name="PGR">0</parameter><parameter name="RCH">Module port</parameter><parameter name="RDX">0</parameter><parameter name="SRC">MIR</parameter><parameter name="VEL">10.0</parameter><parameter name="SON">Off</parameter></Optic_Parameters_Rf><Acquisition_Parameters_Rf><parameter name="ADT">1</parameter><parameter name="AQM">DD</parameter><parameter name="CFE">0</parameter><parameter name="COR">0</parameter><parameter name="DEL">0</parameter><parameter name="DLY">0</parameter><parameter name="HFW">8000</parameter><parameter name="LFW">0</parameter><parameter name="NSR">32</parameter><parameter name="PLF">AB</parameter><parameter name="RES">6</parameter><parameter name="RGN">-1</parameter><parameter name="STR">0</parameter><parameter name="TCL">MakeCompatibleScalar (0, {WSV=1.000000, ARV=0});</parameter><parameter name="TDL">37</parameter><parameter name="RPO">0</parameter></Acquisition_Parameters_Rf><FT_-_Parameters_Rf><parameter name="APF">B3</parameter><parameter name="HFQ">500</parameter><parameter name="LFQ">4000</parameter><parameter name="NLI">0</parameter><parameter name="PHR">24</parameter><parameter name="PHZ">ML</parameter><parameter name="SPZ">NO</parameter><parameter name="ZFF">1</parameter></FT_-_Parameters_Rf><Optic_Parameters_><parameter name="APR">0</parameter><parameter name="APT">Open</parameter><parameter name="BMS">KBr</parameter><parameter name="CHN">Module port</parameter><parameter name="DTC">RT-DLaTGS_IR-Biotyper [Microplate reader]</parameter><parameter name="HPF">0</parameter><parameter name="LPF">10.0</parameter><parameter name="LPV">4000</parameter><parameter name="PGN">0</parameter><parameter name="RDX">0</parameter><parameter name="SRC">MIR</parameter><parameter name="VEL">10.0</parameter><parameter name="SON">Off</parameter></Optic_Parameters_><FT_-_Parameters_><parameter name="APF">B3</parameter><parameter name="HFQ">500</parameter><parameter name="LFQ">4000</parameter><parameter name="NLI">0</parameter><parameter name="PHR">24</parameter><parameter name="PHZ">ML</parameter><parameter name="SPZ">NO</parameter><parameter name="ZFF">1</parameter></FT_-_Parameters_><Acquisition_Parameters_><parameter name="ADT">1</parameter><parameter name="AQM">DD</parameter><parameter name="CFE">0</parameter><parameter name="COR">0</parameter><parameter name="DEL">0</parameter><parameter name="DLY">0</parameter><parameter name="HFW">8000</parameter><parameter name="LFW">0</parameter><parameter name="NSS">32</parameter><parameter name="PLF">AB</parameter><parameter name="RES">6</parameter><parameter name="SOT">0</parameter><parameter name="TCL">MakeCompatibleScalar (0, {WSV=1.000000, ARV=0});</parameter><parameter name="TDL">37</parameter><parameter name="SPO">0</parameter><parameter name="SGN">-1</parameter></Acquisition_Parameters_><Instrument_Parameters_Rf><parameter name="HFL">15800.168544</parameter><parameter name="LFL">0</parameter><parameter name="LWN">15800.168544</parameter><parameter name="ABP">32197</parameter><parameter name="SSP">1</parameter><parameter name="ARG">2</parameter><parameter name="ASG">2</parameter><parameter name="ASS">32</parameter><parameter name="GFW">16</parameter><parameter name="GBW">16</parameter><parameter name="BFW">0</parameter><parameter name="BBW">0</parameter><parameter name="PKA">7309</parameter><parameter name="PKL">4990</parameter><parameter name="PRA">7478</parameter><parameter name="PRL">5001</parameter><parameter name="P2A">1</parameter><parameter name="P2L">1</parameter><parameter name="P2R">1</parameter><parameter name="P2K">1</parameter><parameter name="DAQ">0</parameter><parameter name="AG2">1</parameter><parameter name="SSM">1</parameter><parameter name="RSN">25897</parameter><parameter name="CRR">0</parameter><parameter name="SRT">1654082819.123</parameter><parameter name="DUR">19.6389923095703</parameter><parameter name="TSC">29</parameter><parameter name="MVD">0.201392084360123</parameter><parameter name="AN1">0.225802750398093</parameter><parameter name="AN2">0</parameter><parameter name="VSN">2.485 Apr  4 2017</parameter><parameter name="SRN">0085</parameter><parameter name="CAM">0</parameter><parameter name="INS">IR-Biotyper</parameter><parameter name="FOC">69</parameter><parameter name="RDY">1</parameter><parameter name="ARS">32</parameter></Instrument_Parameters_Rf><Sample_Parameters_><parameter name="BLD"></parameter><parameter name="CNM">Admin</parameter><parameter name="CPY"></parameter><parameter name="DPM"></parameter><parameter name="EXP">IRBT_v3_32Scans.XPM</parameter><parameter name="LCT"></parameter><parameter name="SFM">Microplate, HTS-XT</parameter><parameter name="SNM">220601-1028(v.3)_RTF49M (D_10)_G4_b712d58e-d8c9-4a37-96d7-d69a22e04ea5.0</parameter><parameter name="XPP">C:\Users\Public\Documents\Bruker\OPUS_8.2.28\XPM</parameter><parameter name="IST">OK</parameter><parameter name="CPG">1252</parameter><parameter name="UID">fd4e8e8a-056d-4474-b95d-cd4367c3e348</parameter></Sample_Parameters_><Instrument_Parameters_><parameter name="HFL">15800.168544</parameter><parameter name="LFL">0</parameter><parameter name="LWN">15800.168544</parameter><parameter name="ABP">32197</parameter><parameter name="SSP">1</parameter><parameter name="ASG">2</parameter><parameter name="ARG">2</parameter><parameter name="ASS">32</parameter><parameter name="GFW">16</parameter><parameter name="GBW">16</parameter><parameter name="BFW">0</parameter><parameter name="BBW">0</parameter><parameter name="PKA">7926</parameter><parameter name="PKL">4988</parameter><parameter name="PRA">8141</parameter><parameter name="PRL">4993</parameter><parameter name="P2A">1</parameter><parameter name="P2L">1</parameter><parameter name="P2R">1</parameter><parameter name="P2K">1</parameter><parameter name="DAQ">0</parameter><parameter name="AG2">1</parameter><parameter name="SSM">1</parameter><parameter name="RSN">13574</parameter><parameter name="CRR">0</parameter><parameter name="SRT">1654082844.794</parameter><parameter name="DUR">19.6389923095703</parameter><parameter name="TSC">29</parameter><parameter name="MVD">0.278540879487991</parameter><parameter name="AN1">0.225828073292225</parameter><parameter name="AN2">0</parameter><parameter name="VSN">2.485 Apr  4 2017</parameter><parameter name="SRN">0085</parameter><parameter name="CAM">0</parameter><parameter name="INS">IR-Biotyper</parameter><parameter name="FOC">69</parameter><parameter name="RDY">1</parameter></Instrument_Parameters_><History/></OPUSDataFile>
