<?xml version="1.0" encoding="UTF-8" ?>
<OPUSDataFile><AB><Ydata ylabel="Absorbance Units"><values byteorder="INTEL" format="FLOAT32" numvalues="3497"> -0.05220823 -0.05221674 -0.05223188 -0.05225435 -0.05227409 -0.05229057 -0.05229151 -0.05227728 -0.05224889 -0.0522087
 -0.05217109 -0.0521373 -0.05212034 -0.05211747 -0.05212935 -0.05215177 -0.05217795 -0.05220592 -0.05223039 -0.05225246
 -0.05227058 -0.0522887 -0.05230814 -0.05233316 -0.05236645 -0.05240647 -0.05245458 -0.05250158 -0.05254631 -0.0525814
 -0.05260559 -0.05262163 -0.05262962 -0.05263602 -0.05264081 -0.05264526 -0.05264909 -0.05265092 -0.05265142 -0.05265234
 -0.05265433 -0.05266018 -0.05266919 -0.05268148 -0.05269627 -0.05271304 -0.05273029 -0.05274734 -0.05276102 -0.05276965
 -0.05277041 -0.05276129 -0.0527437 -0.05271669 -0.05268696 -0.05265471 -0.0526306 -0.05261557 -0.05261905 -0.05264162
 -0.05268215 -0.05273961 -0.05279956 -0.05286106 -0.05291003 -0.05294903 -0.05298015 -0.05300542 -0.05303252 -0.05305751
 -0.05307748 -0.05308838 -0.05308177 -0.05306371 -0.05303438 -0.0530054 -0.05298544 -0.05297291 -0.05297207 -0.05296614
 -0.05295077 -0.052919 -0.05286629 -0.05281185 -0.05275616 -0.05272812 -0.05272944 -0.05277334 -0.05285865 -0.05297269
 -0.05311127 -0.05324267 -0.05336368 -0.05344342 -0.05348677 -0.05348724 -0.0534576 -0.05341627 -0.05337215 -0.05334516
 -0.05333143 -0.05333807 -0.05334709 -0.0533514 -0.05333462 -0.05328409 -0.053213 -0.05311759 -0.05303736 -0.05297882
 -0.05296558 -0.05300301 -0.05307112 -0.05316914 -0.05325898 -0.05334045 -0.05340345 -0.05345155 -0.05350314 -0.0535587
 -0.05363174 -0.0537158 -0.05380286 -0.05388479 -0.05394289 -0.05397654 -0.05397646 -0.05394841 -0.05389453 -0.05381798
 -0.05371868 -0.05360737 -0.05348261 -0.05337632 -0.05329365 -0.05327167 -0.05331862 -0.05344916 -0.05366928 -0.05394096
 -0.05426311 -0.05450177 -0.0546518 -0.05460058 -0.05437073 -0.05405423 -0.05367178 -0.05335398 -0.05309421 -0.05294023
 -0.05288059 -0.05292121 -0.05304135 -0.05322745 -0.05343775 -0.05363735 -0.05378721 -0.05384646 -0.05383201 -0.05373143
 -0.05360835 -0.05347796 -0.05337892 -0.0533234 -0.05330534 -0.05332608 -0.05336816 -0.05343061 -0.05350282 -0.05358393
 -0.05366002 -0.05372876 -0.05376664 -0.05377433 -0.05373817 -0.05366815 -0.05358163 -0.05348854 -0.0534171 -0.0533631
 -0.05333413 -0.05331939 -0.05331101 -0.05330585 -0.05329809 -0.05329425 -0.05329444 -0.05330903 -0.05334141 -0.05339518
 -0.05347363 -0.05356199 -0.05366046 -0.05373944 -0.05379713 -0.05381175 -0.05378361 -0.05371548 -0.05360995 -0.05348508
 -0.05334309 -0.05320093 -0.05306151 -0.05293977 -0.05283944 -0.05277482 -0.05274477 -0.05275738 -0.05279847 -0.05286299
 -0.05292636 -0.0529728 -0.05298799 -0.0529576 -0.05289805 -0.05280625 -0.05272291 -0.05265483 -0.05262904 -0.05265142
 -0.05270899 -0.05280167 -0.0528928 -0.05298092 -0.05303771 -0.0530654 -0.05306393 -0.05303856 -0.05301058 -0.05298146
 -0.05296675 -0.05296278 -0.05297 -0.05298532 -0.05300394 -0.05302769 -0.05305394 -0.05309328 -0.05314896 -0.05323677
 -0.0533661 -0.05353667 -0.05375743 -0.05398659 -0.05422271 -0.05440036 -0.05451095 -0.05452773 -0.05444796 -0.05428672
 -0.05404619 -0.05376206 -0.05344111 -0.05314737 -0.05288578 -0.05271388 -0.05262373 -0.05262938 -0.05270815 -0.05283015
 -0.05296775 -0.05306833 -0.05313582 -0.05314916 -0.05314019 -0.05312547 -0.05311507 -0.05312173 -0.05312711 -0.05313027
 -0.05310721 -0.05305205 -0.05295938 -0.05282583 -0.0526754 -0.05250909 -0.0523631 -0.05223888 -0.05216295 -0.0521342
 -0.05216077 -0.05223558 -0.05233907 -0.05245601 -0.05253413 -0.05256986 -0.05252417 -0.05242334 -0.0522843 -0.0521303
 -0.05199229 -0.05186636 -0.05176252 -0.05165943 -0.05154987 -0.05142155 -0.05126567 -0.05109797 -0.05091834 -0.05075216
 -0.05060345 -0.0504755 -0.05036934 -0.05025807 -0.05014048 -0.04999089 -0.04981356 -0.0496276 -0.04943812 -0.04927957
 -0.04914623 -0.0490403 -0.04895477 -0.04887707 -0.0488052 -0.048733 -0.04865614 -0.04856981 -0.04846814 -0.04834404
 -0.04820265 -0.04804502 -0.04787374 -0.0476945 -0.04748261 -0.04723483 -0.04692933 -0.04656089 -0.04614407 -0.04567907
 -0.04519596 -0.04469636 -0.04420755 -0.04373232 -0.04330447 -0.04292531 -0.04262349 -0.04238776 -0.04220651 -0.04205966
 -0.04190227 -0.04172852 -0.04151048 -0.04125584 -0.04096503 -0.04063563 -0.04026629 -0.03985499 -0.03939471 -0.03891001
 -0.03840522 -0.0379048 -0.03741549 -0.03694084 -0.03648257 -0.03603412 -0.03559507 -0.03516296 -0.03473829 -0.03433282
 -0.03394743 -0.03359853 -0.0332785 -0.03297063 -0.03265303 -0.03225189 -0.03176604 -0.03114012 -0.0304327 -0.02969749
 -0.02898063 -0.02835518 -0.02780132 -0.02733448 -0.02690505 -0.02649629 -0.02607046 -0.0256082 -0.02511676 -0.02459102
 -0.02406653 -0.02354838 -0.02304605 -0.02256155 -0.02206078 -0.02154193 -0.020968 -0.02034267 -0.0196762 -0.01897664
 -0.01828539 -0.01760355 -0.01695628 -0.01633837 -0.01575241 -0.01519139 -0.01464866 -0.01411487 -0.0135788 -0.01303641
 -0.01247945 -0.01191647 -0.01135035 -0.0107832 -0.01022003 -0.009640779 -0.009042061 -0.008410451 -0.007740623 -0.007062158
 -0.006376337 -0.005721899 -0.005099279 -0.00450702 -0.003941663 -0.003374853 -0.002805291 -0.002210343 -0.001595582 -0.0009623106
 -0.0003223023 0.0003011619 0.0009008379 0.001452585 0.001968922 0.00244564 0.002918322 0.003406188 0.003940835 0.004547577
 0.005213182 0.00594513 0.006695601 0.007456908 0.008192888 0.008896767 0.00956236 0.010188 0.01079522 0.01138546
 0.01198919 0.01260609 0.01324804 0.01391135 0.01458587 0.01526902 0.01594776 0.01662268 0.01728907 0.01794772
 0.01859755 0.01924 0.01987507 0.02050693 0.02113806 0.02177202 0.02241265 0.0230548 0.02370044 0.02433111
 0.02494411 0.02552166 0.02605901 0.026568 0.02704802 0.02754435 0.02805896 0.02862777 0.02924715 0.02990406
 0.03059131 0.03126757 0.03193384 0.03256966 0.03318421 0.03378677 0.03438205 0.0349828 0.03558342 0.03618444
 0.03677614 0.03735119 0.0379075 0.03843998 0.03895869 0.03946466 0.03997072 0.04047995 0.04099793 0.04152588
 0.04206496 0.0426154 0.04317676 0.04374872 0.04432213 0.0448959 0.04545593 0.04600295 0.04653223 0.04704639
 0.04755082 0.04804696 0.04854013 0.04903101 0.04952285 0.05001537 0.05051043 0.05100422 0.05149375 0.05197999
 0.05245966 0.05294685 0.05344628 0.05396311 0.05450369 0.05503944 0.05556852 0.05605739 0.05650211 0.05691358
 0.05729331 0.05768652 0.05809356 0.05853871 0.05901518 0.05950456 0.06000043 0.06047226 0.06092311 0.06134255
 0.06174099 0.06212898 0.062513 0.06290542 0.06330162 0.06370245 0.06410214 0.06449591 0.06488985 0.06528395
 0.06568806 0.06610572 0.06653309 0.06697118 0.06740554 0.06783526 0.06824779 0.06864256 0.06901112 0.06935427
 0.06967355 0.06997363 0.07027657 0.07058737 0.07093517 0.07131519 0.07173485 0.07217973 0.07263275 0.07308335
 0.07351358 0.0739233 0.0743067 0.07466761 0.07500668 0.07532606 0.07562616 0.07591017 0.0761779 0.07643739
 0.07668902 0.07694501 0.0772063 0.07748216 0.07777284 0.07807817 0.07839726 0.07872251 0.07905255 0.0793773
 0.07969506 0.07999475 0.08027709 0.08053544 0.08077883 0.08101504 0.08125786 0.08152581 0.0818206 0.08215438
 0.08250599 0.08287219 0.08322217 0.08354425 0.08382516 0.0840562 0.08425719 0.08442774 0.08460356 0.08478817
 0.08499046 0.08520993 0.08541038 0.08558933 0.08570578 0.0857653 0.08577067 0.08573482 0.08569857 0.08567066
 0.0856906 0.08575588 0.08588285 0.08605675 0.08627219 0.08650637 0.08674131 0.08696538 0.08716294 0.08735327
 0.08753679 0.08774289 0.08798274 0.08824529 0.08853534 0.08879445 0.0890184 0.08916103 0.08922118 0.08921673
 0.08915287 0.08908842 0.08902336 0.08899038 0.08898082 0.08898165 0.0889931 0.08900424 0.08903175 0.08909838
 0.08920783 0.08938318 0.08958804 0.08980887 0.09000118 0.09013229 0.0902091 0.0902179 0.09021594 0.09021287
 0.09025317 0.09034837 0.09048639 0.09066911 0.0908439 0.09100811 0.0911126 0.09115849 0.09113509 0.09105109
 0.09094214 0.09081946 0.0907383 0.09070041 0.09074111 0.09084426 0.09100675 0.09119812 0.09138785 0.09155003
 0.09165192 0.09169929 0.09167832 0.09163283 0.09157133 0.09154022 0.09155392 0.09162267 0.09175187 0.09192368
 0.0921368 0.09238283 0.09266151 0.09298012 0.09333704 0.09372246 0.09412726 0.0945013 0.09483384 0.09505946
 0.09518503 0.09518332 0.0950915 0.09494658 0.09479623 0.09470941 0.09469491 0.09479462 0.09495327 0.0951636
 0.09534537 0.09546757 0.09549282 0.09539968 0.09522008 0.09495135 0.09466163 0.0943565 0.09408334 0.09384415
 0.09363814 0.0934634 0.09329749 0.0931429 0.09299908 0.09287422 0.09279669 0.09276716 0.09280844 0.09289824
 0.09302165 0.09313496 0.09318962 0.09314873 0.09296277 0.09264221 0.09216657 0.09160397 0.09096603 0.09033545
 0.08973442 0.08920432 0.08875741 0.08838423 0.08808628 0.08783104 0.08761677 0.08740772 0.08720276 0.0869754
 0.0867297 0.08647095 0.08620808 0.08597661 0.08577406 0.08562006 0.08548886 0.08535222 0.08518315 0.08493485
 0.08461702 0.08421037 0.08376937 0.08331001 0.08289633 0.08255679 0.0823149 0.08219036 0.08213499 0.0821514
 0.0821391 0.08208992 0.08192497 0.08164067 0.0812444 0.08074285 0.08021286 0.0796598 0.07915425 0.07869121
 0.07829224 0.07794835 0.07765024 0.07739177 0.07716075 0.07695063 0.07675138 0.07655475 0.07635142 0.0761375
 0.0759073 0.07566517 0.07541011 0.07515216 0.07489327 0.07464177 0.07440013 0.07416543 0.07393844 0.07370258
 0.07345702 0.07318647 0.07289166 0.07257553 0.07224117 0.07190735 0.07157553 0.07126181 0.07096282 0.07068008
 0.0704071 0.07013495 0.06985762 0.06956463 0.06925483 0.06892202 0.06857405 0.06821098 0.06784832 0.06749137
 0.06715097 0.06683261 0.06652977 0.06624367 0.06595545 0.06566353 0.06535415 0.06502655 0.06468009 0.06431529
 0.06393778 0.06354866 0.06315603 0.06276224 0.06237968 0.06200976 0.0616633 0.06133651 0.06102894 0.06073473
 0.06044534 0.0601633 0.05988486 0.0596232 0.05938337 0.05917777 0.0590149 0.05888819 0.05880292 0.05872172
 0.05864339 0.05850927 0.05831371 0.05801686 0.0576166 0.05713277 0.05657128 0.05600895 0.05545299 0.05498764
 0.05460735 0.05434534 0.05417505 0.0540576 0.05395775 0.05379766 0.05357007 0.05322369 0.05280545 0.0523262
 0.05185406 0.05143445 0.05108239 0.05082486 0.05060646 0.05041958 0.05021465 0.04997617 0.04973003 0.04947421
 0.04928095 0.04915403 0.04912319 0.04918307 0.04927595 0.04938975 0.0494222 0.04937298 0.04917881 0.04886441
 0.04845008 0.04797245 0.04750245 0.04705436 0.0466792 0.04635376 0.04607881 0.0458242 0.04556918 0.04531388
 0.04505106 0.04479843 0.04456206 0.04433732 0.04412613 0.04390717 0.04367705 0.04344336 0.04320638 0.04300798
 0.04284888 0.04275168 0.04270947 0.04269319 0.04269528 0.04267058 0.04262318 0.04253801 0.04242759 0.04230704
 0.04218182 0.04206876 0.04195452 0.04183971 0.04169372 0.04150141 0.04123811 0.04088451 0.04045901 0.03995309
 0.03943908 0.03892414 0.03848613 0.03813598 0.03788656 0.03773926 0.03762446 0.03753679 0.03738484 0.03717135
 0.03686121 0.03647165 0.03604389 0.03559607 0.03519559 0.03484148 0.03456786 0.03435172 0.03418282 0.03403273
 0.03387485 0.03369447 0.03347227 0.03321942 0.03293015 0.03264156 0.03236014 0.0321225 0.03193973 0.0318015
 0.03171157 0.03160452 0.03147681 0.03127077 0.03098828 0.0306431 0.03024397 0.02985437 0.02947366 0.02913731
 0.02882987 0.02853022 0.0282293 0.02789639 0.02754573 0.0271793 0.02681865 0.02648467 0.02618098 0.02591724
 0.02568412 0.02547794 0.02530137 0.02515233 0.02504601 0.02498611 0.02497241 0.02500767 0.02505731 0.02511965
 0.02513759 0.02510874 0.02498651 0.02477465 0.02446872 0.02408229 0.02365981 0.02321828 0.02282204 0.02247804
 0.02223009 0.02206863 0.02200216 0.02201156 0.02208537 0.02220562 0.02235978 0.02253595 0.02272744 0.02292624
 0.02312966 0.02333041 0.02352637 0.02371656 0.02389901 0.02409519 0.024306 0.02457925 0.02491713 0.02536277
 0.02591164 0.02656055 0.02729581 0.02806563 0.02885809 0.02961543 0.0303392 0.03100319 0.03162101 0.0321973
 0.03274754 0.03328509 0.03382244 0.03436875 0.03493584 0.03553019 0.03615867 0.03682729 0.03752273 0.03824757
 0.03896108 0.03966065 0.04029928 0.04087389 0.04136202 0.04176422 0.04208736 0.04233256 0.04251072 0.04262058
 0.04266013 0.04263381 0.04254504 0.04241457 0.04227484 0.04215431 0.04210237 0.04212799 0.04226127 0.04248066
 0.04278423 0.04314507 0.04354943 0.04399319 0.04447073 0.0449939 0.04556461 0.04618696 0.04686249 0.04758205
 0.0483453 0.04913548 0.04995119 0.05076819 0.05158544 0.0523812 0.05316054 0.05392798 0.0546962 0.05550104
 0.05634744 0.05727196 0.0582417 0.0592548 0.06021081 0.06105369 0.06161843 0.06180716 0.06147289 0.06051549
 0.05894493 0.05670737 0.05403796 0.05094441 0.04778532 0.04459666 0.04166091 0.03899925 0.0366944 0.03474202
 0.03306741 0.03166042 0.03041733 0.0293367 0.02836069 0.02748823 0.02669168 0.02596059 0.02526463 0.02459515
 0.02392551 0.02326478 0.02260834 0.02197704 0.02138249 0.02083616 0.02034747 0.01991168 0.01953002 0.01919322
 0.01889925 0.01864567 0.01843109 0.01826535 0.0181488 0.01810185 0.01812463 0.01822377 0.01839222 0.01858842
 0.01879768 0.01893773 0.01900352 0.01893221 0.01874603 0.01844852 0.01808068 0.01769331 0.01731876 0.01700361
 0.01675747 0.01659941 0.01652651 0.0165396 0.01664344 0.01683472 0.01714187 0.01756588 0.01815504 0.01891766
 0.01985998 0.02098603 0.02214857 0.02332967 0.0241986 0.02473304 0.02459572 0.02381962 0.02232586 0.02022665
 0.01775978 0.01504845 0.01243252 0.009952034 0.007811084 0.005950487 0.004395748 0.003057583 0.001887034 0.0008333224
 -0.0001390501 -0.00103821 -0.001873067 -0.002641426 -0.00334321 -0.003982112 -0.004557831 -0.005080879 -0.005551705 -0.005987558
 -0.006389443 -0.006776005 -0.007147324 -0.007513305 -0.007872453 -0.0082246 -0.008567101 -0.008893332 -0.009200483 -0.00947902
 -0.009731329 -0.00995289 -0.01015776 -0.01035433 -0.01056084 -0.01079356 -0.01105235 -0.01134674 -0.01164829 -0.01195371
 -0.01222664 -0.01245811 -0.01263728 -0.01275917 -0.01285124 -0.01291445 -0.01299325 -0.01308885 -0.01322211 -0.01338918
 -0.01357127 -0.01376465 -0.01394061 -0.01410545 -0.01425948 -0.01441464 -0.0145963 -0.01480337 -0.0150502 -0.01531621
 -0.01559009 -0.01584933 -0.01607502 -0.01626162 -0.01639943 -0.01650112 -0.01656605 -0.01661696 -0.01665656 -0.01671019
 -0.0167814 -0.01688379 -0.01701902 -0.01717692 -0.01735645 -0.01753499 -0.01771231 -0.01787588 -0.01802754 -0.01816907
 -0.01830073 -0.01842435 -0.01853883 -0.01864146 -0.01873538 -0.0188224 -0.01890865 -0.01900209 -0.01910052 -0.01920771
 -0.01931021 -0.01940259 -0.01947798 -0.01952971 -0.01957374 -0.01960986 -0.01966613 -0.01974654 -0.01986249 -0.02001573
 -0.0201877 -0.02037691 -0.02055178 -0.02071208 -0.02084023 -0.02094002 -0.02101762 -0.02107805 -0.02113914 -0.02120149
 -0.02127647 -0.02135742 -0.02144128 -0.02151902 -0.02157942 -0.02162314 -0.0216433 -0.02165722 -0.02166861 -0.02169914
 -0.02175739 -0.02184869 -0.02197776 -0.02212945 -0.02230317 -0.02247971 -0.02265754 -0.02282834 -0.02299198 -0.02314891
 -0.02329924 -0.02344373 -0.02358229 -0.02371458 -0.02384102 -0.02396252 -0.02407981 -0.0241948 -0.02430765 -0.02441952
 -0.02452974 -0.02463812 -0.02474394 -0.02484643 -0.02494619 -0.02504299 -0.02513865 -0.02523355 -0.02532946 -0.02542694
 -0.02552614 -0.02562734 -0.02572866 -0.02583006 -0.02592799 -0.0260222 -0.02610789 -0.02618481 -0.02624834 -0.0262991
 -0.02633638 -0.02636279 -0.02638414 -0.02640522 -0.02643773 -0.02648535 -0.02655907 -0.02665661 -0.02678157 -0.02692488
 -0.0270827 -0.02724516 -0.02740679 -0.02756284 -0.0277106 -0.02784939 -0.02797869 -0.02809831 -0.02820812 -0.02830843
 -0.02839917 -0.02848357 -0.02856188 -0.0286396 -0.02871693 -0.02879826 -0.02888311 -0.02897195 -0.02906374 -0.02915558
 -0.02924737 -0.02933683 -0.02942609 -0.02951693 -0.02961153 -0.02971379 -0.0298209 -0.02993368 -0.03004424 -0.03014942
 -0.03024321 -0.03032227 -0.03038779 -0.03043875 -0.03048173 -0.03051712 -0.0305528 -0.03058926 -0.03063448 -0.0306888
 -0.03075815 -0.03084216 -0.03094052 -0.03105199 -0.03117061 -0.03129581 -0.03142287 -0.03155212 -0.03168296 -0.03181338
 -0.03194176 -0.0320625 -0.03216965 -0.03225957 -0.03232605 -0.03237504 -0.03240567 -0.03243145 -0.03245622 -0.03248958
 -0.03253495 -0.03259185 -0.03266104 -0.03273673 -0.0328185 -0.03290346 -0.03299161 -0.0330849 -0.03318354 -0.03329056
 -0.03340558 -0.03352904 -0.03365922 -0.03379206 -0.03392437 -0.03404803 -0.03416067 -0.03425426 -0.0343319 -0.03439196
 -0.03444317 -0.03449051 -0.0345412 -0.03460136 -0.03466804 -0.03474303 -0.03481568 -0.03488409 -0.03494067 -0.03498341
 -0.03501574 -0.03503739 -0.03506093 -0.03508699 -0.03512758 -0.03518239 -0.03525423 -0.03534121 -0.03543606 -0.03553718
 -0.03563579 -0.03573196 -0.03582188 -0.03590563 -0.03598208 -0.03605047 -0.03610896 -0.03615943 -0.03620141 -0.03624069
 -0.03627991 -0.0363225 -0.03637083 -0.03642278 -0.03647822 -0.03653578 -0.03659489 -0.03665897 -0.03672835 -0.03680314
 -0.03688313 -0.03695939 -0.0370314 -0.03708995 -0.03713659 -0.03717345 -0.03720329 -0.03723605 -0.0372724 -0.03731907
 -0.0373739 -0.03743672 -0.03750513 -0.03757669 -0.03764984 -0.03772336 -0.03779454 -0.03786224 -0.03792311 -0.03797547
 -0.03801906 -0.03805267 -0.03808215 -0.03810781 -0.03813722 -0.03817115 -0.038211 -0.0382567 -0.03830351 -0.03835138
 -0.03839771 -0.03844365 -0.03849367 -0.03854838 -0.03861311 -0.03868533 -0.0387629 -0.03884218 -0.03891612 -0.03898516
 -0.03904568 -0.03910362 -0.03916177 -0.03922528 -0.03929849 -0.03937935 -0.03946943 -0.03956009 -0.03965019 -0.03973078
 -0.03980012 -0.03985604 -0.03989785 -0.03993221 -0.03995954 -0.03999037 -0.04002492 -0.04006986 -0.0401246 -0.04018982
 -0.04026475 -0.04034762 -0.04043739 -0.04053159 -0.04062802 -0.04072301 -0.04081328 -0.04089431 -0.04096378 -0.04101786
 -0.04105878 -0.04108504 -0.04110534 -0.04112116 -0.04114378 -0.0411764 -0.04122328 -0.04128644 -0.04135804 -0.04143784
 -0.04151413 -0.04158643 -0.04165126 -0.04170921 -0.04176539 -0.04181994 -0.04187667 -0.04193414 -0.04198971 -0.04204242
 -0.04208814 -0.04212865 -0.04216447 -0.04219839 -0.04223407 -0.04227135 -0.04231202 -0.04235251 -0.04239137 -0.04242665
 -0.04245641 -0.04248456 -0.04251099 -0.04254285 -0.04258125 -0.04262999 -0.0426897 -0.04275806 -0.04283489 -0.04291333
 -0.04299293 -0.04306652 -0.04313414 -0.04319206 -0.04324091 -0.04328069 -0.04331184 -0.04333505 -0.04335114 -0.04336066
 -0.04336692 -0.04337284 -0.04338297 -0.04340212 -0.04343056 -0.04347081 -0.0435175 -0.04356976 -0.04362163 -0.04367132
 -0.04371715 -0.04375843 -0.04379616 -0.04383031 -0.04386298 -0.04389434 -0.04392846 -0.04396555 -0.0440095 -0.04405974
 -0.04411561 -0.04417583 -0.04423585 -0.04429499 -0.04434947 -0.04439946 -0.04444385 -0.04448241 -0.04451461 -0.04453993
 -0.04455725 -0.04456832 -0.04457289 -0.04457567 -0.04457807 -0.04458395 -0.04459484 -0.04461019 -0.04463023 -0.04465329
 -0.0446791 -0.04470894 -0.04474287 -0.04478288 -0.04482881 -0.04487906 -0.0449336 -0.04499067 -0.04505157 -0.04511935
 -0.04519592 -0.04528715 -0.0453938 -0.04551945 -0.04566452 -0.04582968 -0.04601842 -0.04623199 -0.04647797 -0.04675969
 -0.04708502 -0.04745768 -0.04788055 -0.04835594 -0.04887898 -0.04945063 -0.05005535 -0.05069285 -0.05133599 -0.05198317
 -0.05259759 -0.0531761 -0.0536737 -0.05408513 -0.05435913 -0.05449147 -0.05443779 -0.05420476 -0.05377262 -0.05318243
 -0.05247503 -0.05172162 -0.0510146 -0.05039616 -0.0499315 -0.04961781 -0.04947217 -0.04947512 -0.04962794 -0.04989521
 -0.05027848 -0.05069761 -0.05114669 -0.05151897 -0.05180212 -0.05196324 -0.05200073 -0.05196303 -0.05185268 -0.05171244
 -0.05154229 -0.05136275 -0.05117484 -0.05099348 -0.05081828 -0.05065678 -0.05050522 -0.05036177 -0.05022119 -0.05007831
 -0.04992595 -0.04975744 -0.04956746 -0.04934868 -0.04911014 -0.04884987 -0.04859209 -0.04834121 -0.04811917 -0.04793071
 -0.0477821 -0.04767509 -0.04760053 -0.04755791 -0.04752715 -0.04750697 -0.04747577 -0.04743392 -0.04737129 -0.04729135
 -0.0472 -0.0471015 -0.0470088 -0.04692318 -0.04685314 -0.04679592 -0.04675231 -0.04671764 -0.04668866 -0.04666205
 -0.04663458 -0.04660721 -0.04657894 -0.04655416 -0.04653374 -0.04652096 -0.04651695 -0.0465194 -0.04652847 -0.04653784
 -0.04654716 -0.04655229 -0.04655341 -0.04655128 -0.0465467 -0.04654448 -0.04654529 -0.04655422 -0.04657069 -0.04659649
 -0.04662915 -0.04666593 -0.04670383 -0.04673816 -0.04676814 -0.04679149 -0.0468091 -0.04682119 -0.0468273 -0.04682755
 -0.04682037 -0.04680478 -0.04678323 -0.04675534 -0.04672831 -0.04670284 -0.04668367 -0.04667107 -0.04666176 -0.04665536
 -0.04664567 -0.04663328 -0.04661817 -0.04660194 -0.04659064 -0.04658435 -0.04658692 -0.04659583 -0.04660893 -0.04662357
 -0.04663564 -0.0466446 -0.04664878 -0.04664811 -0.04664234 -0.04663079 -0.04661254 -0.04658998 -0.04656242 -0.04653813
 -0.04651805 -0.0465101 -0.04651558 -0.04653255 -0.04656098 -0.04659026 -0.04661997 -0.0466417 -0.04665612 -0.04666278
 -0.04666264 -0.04665884 -0.04665186 -0.04664429 -0.0466365 -0.04663019 -0.04662546 -0.04662349 -0.04662291 -0.04662307
 -0.04662269 -0.04662034 -0.04661753 -0.04661404 -0.04661335 -0.04661634 -0.04662493 -0.0466398 -0.04665982 -0.04668508
 -0.04671276 -0.04674271 -0.04677109 -0.0467977 -0.04681897 -0.04683505 -0.04684475 -0.04684874 -0.04684881 -0.04684561
 -0.04684161 -0.04683701 -0.046833 -0.04683036 -0.04682999 -0.04683378 -0.04684362 -0.04686036 -0.04688595 -0.04691673
 -0.04695273 -0.04698667 -0.04701673 -0.04703816 -0.04704933 -0.04705229 -0.04704671 -0.0470395 -0.04703101 -0.04702687
 -0.04702707 -0.04703301 -0.04704425 -0.04705886 -0.04707652 -0.04709512 -0.04711463 -0.04713401 -0.04715307 -0.04717123
 -0.0471878 -0.04720154 -0.04721273 -0.04722065 -0.04722751 -0.04723426 -0.0472428 -0.04725475 -0.04726797 -0.04728266
 -0.04729428 -0.0473018 -0.0473046 -0.04730212 -0.04730003 -0.04729863 -0.04730427 -0.04731688 -0.04733638 -0.04736182
 -0.04738726 -0.04741225 -0.04743151 -0.04744624 -0.04745651 -0.04746407 -0.04747206 -0.04748105 -0.04749299 -0.04750777
 -0.04752569 -0.04754734 -0.04757312 -0.04760338 -0.047639 -0.04767715 -0.04771789 -0.04775559 -0.04778918 -0.04781583
 -0.04783482 -0.04784889 -0.04785813 -0.04786627 -0.04787322 -0.04787798 -0.04788039 -0.04787815 -0.04787273 -0.04786808
 -0.04786652 -0.04787693 -0.04789772 -0.04793195 -0.04797266 -0.04801283 -0.0480471 -0.04806688 -0.04807591 -0.04807244
 -0.04806615 -0.04806069 -0.0480612 -0.04807057 -0.04808629 -0.04810852 -0.04813334 -0.04816021 -0.04818849 -0.04821811
 -0.04825015 -0.04828455 -0.04832071 -0.04835835 -0.04839537 -0.04843149 -0.04846461 -0.04849472 -0.04852061 -0.04854267
 -0.04856079 -0.04857599 -0.04858932 -0.04860195 -0.04861538 -0.04862963 -0.04864538 -0.04866133 -0.04867707 -0.04869181
 -0.048705 -0.0487176 -0.04872948 -0.04874275 -0.04875764 -0.04877548 -0.04879637 -0.0488196 -0.04884497 -0.04886924
 -0.0488922 -0.04891063 -0.04892522 -0.04893641 -0.04894586 -0.04895796 -0.04897382 -0.04899801 -0.04902913 -0.04906801
 -0.04911098 -0.04915572 -0.04919806 -0.04923456 -0.04926446 -0.04928572 -0.04930272 -0.04931581 -0.04933074 -0.04934902
 -0.04937104 -0.0493974 -0.04942252 -0.04944608 -0.04946415 -0.04947686 -0.0494865 -0.04949351 -0.04950205 -0.04951191
 -0.04952415 -0.04953873 -0.0495558 -0.04957619 -0.04960182 -0.04963233 -0.0496691 -0.04970838 -0.0497477 -0.04978348
 -0.04981177 -0.04983509 -0.04985248 -0.04987124 -0.04989364 -0.04992214 -0.04995867 -0.04999541 -0.05003207 -0.05005812
 -0.05007278 -0.05007456 -0.05006395 -0.05004984 -0.05003307 -0.050024 -0.05002216 -0.05003159 -0.05005039 -0.05007587
 -0.05010601 -0.05013581 -0.05016459 -0.0501891 -0.05021064 -0.05022897 -0.05024632 -0.05026402 -0.05028334 -0.05030552
 -0.05032937 -0.05035519 -0.05037991 -0.05040306 -0.05042224 -0.0504371 -0.05044683 -0.05045134 -0.05045003 -0.05044286
 -0.05042898 -0.0504088 -0.05038447 -0.05035731 -0.0503337 -0.05031466 -0.05030673 -0.05030876 -0.05032243 -0.05034447
 -0.05037159 -0.05040101 -0.05042889 -0.05045461 -0.0504768 -0.05049544 -0.05051056 -0.05052081 -0.05052574 -0.05052485
 -0.05051753 -0.05050685 -0.05049294 -0.05047961 -0.05046716 -0.05045588 -0.05044574 -0.05043528 -0.05042481 -0.05041596
 -0.05040917 -0.05040751 -0.05041031 -0.05041725 -0.05042772 -0.05043983 -0.05045487 -0.05047381 -0.0504974 -0.05052808
 -0.05056132 -0.05059624 -0.05062509 -0.05064385 -0.0506502 -0.05064149 -0.05062374 -0.0505974 -0.05056925 -0.05054037
 -0.05051257 -0.05048609 -0.05046012 -0.05043475 -0.0504117 -0.05039135 -0.05037742 -0.05037005 -0.05037194 -0.05038287
 -0.0504038 -0.05043396 -0.05047358 -0.05051869 -0.05056583 -0.05060738 -0.05063495 -0.05064522 -0.05063113 -0.05060171
 -0.05055754 -0.05051255 -0.05047169 -0.05043927 -0.05041787 -0.05040177 -0.05039069 -0.05037886 -0.05036577 -0.05035027
 -0.05033233 -0.05031183 -0.05028872 -0.05026229 -0.05023308 -0.05020259 -0.05017236 -0.05014743 -0.05012873 -0.05012127
 -0.05012275 -0.05013333 -0.05014752 -0.05016053 -0.05016836 -0.0501661 -0.05015592 -0.05013682 -0.05011436 -0.05009004
 -0.05006712 -0.05004676 -0.05002824 -0.05001175 -0.04999468 -0.04997685 -0.04995608 -0.04993247 -0.04990898 -0.04988661
 -0.04987463 -0.04987357 -0.04989216 -0.04992704 -0.04997554 -0.05002938 -0.05007187 -0.05009684 -0.05008619 -0.05004699
 -0.04997674 -0.0498913 -0.04979985 -0.04971316 -0.04963909 -0.04957823 -0.04953297 -0.04949843 -0.04947419 -0.04945557
 -0.04944207 -0.04942925 -0.04941673 -0.04940212 -0.04938551 -0.04937076 -0.04935815 -0.04935309 -0.04935339 -0.04935307
 -0.04934818 -0.04932265 -0.04927872 -0.049211 -0.04912852 -0.04904135 -0.04895554 -0.04888067 -0.04881805 -0.04877123
 -0.04873984 -0.04872549 -0.04872346 -0.0487342 -0.0487464 -0.04875864 -0.0487583 -0.04874332 -0.04870906 -0.04865478
 -0.04858635 -0.04850428 -0.04842027 -0.04833478 -0.04825724 -0.04818684 -0.04812513 -0.04807075 -0.0480205 -0.04797395
 -0.0479291 -0.04788507 -0.04784044 -0.04779286 -0.04773885 -0.04767961 -0.04761356 -0.04754708 -0.0474829 -0.04742417
 -0.04737356 -0.04732631 -0.04728242 -0.04723457 -0.0471818 -0.0471196 -0.04704748 -0.04696539 -0.04687338 -0.04677441
 -0.04666831 -0.04655536 -0.0464346 -0.04630106 -0.04615559 -0.045997 -0.04582904 -0.04565932 -0.04548858 -0.04532197
 -0.04515624 -0.04498924 -0.04482119 -0.04465009 -0.04448212 -0.04431987 -0.04416645 -0.0440244 -0.04388973 -0.04376262
 -0.04363625 -0.0435104 -0.04337411 -0.0432266 -0.04305891 -0.04287117 -0.0426735 -0.04246749 -0.04227243 -0.042087
 -0.04191597 -0.04175546 -0.04159674 -0.0414368 -0.04126537 -0.04108181 -0.04087989 -0.04066319 -0.04043139 -0.04019265
 -0.03995297 -0.03971512 -0.03948535 -0.03924925 -0.03900518 -0.0387341 -0.03842968 -0.03809475 -0.03772815 -0.03734211
 -0.03693791 -0.0365115 -0.03606279 -0.03558922 -0.03509286 -0.03459218 -0.03408772 -0.03359542 -0.03310646 -0.03260448
 -0.03207839 -0.0314927 -0.03085617 -0.03016064 -0.02943255 -0.02869733 -0.02796474 -0.02725182 -0.02655006 -0.02585873
 -0.02517343 -0.02449157 -0.02381667 -0.02315185 -0.02248304 -0.02181327 -0.0210862 -0.02029768 -0.01940304 -0.01840282
 -0.01736192 -0.01628615 -0.01526105 -0.01427567 -0.01332186 -0.01238706 -0.01142715 -0.01044235 -0.009413625 -0.008341302
 -0.007226584 -0.006044645 -0.004783905 -0.003386603 -0.001811215 -1.773818E-05 0.002047181 0.004299845 0.0067468 0.009209967
 0.01164949 0.01397187 0.01615294 0.01821014 0.02014084 0.02200885 0.02381892 0.02568379 0.02761437 0.02977408
 0.03214358 0.03474525 0.0374936 0.04011784 0.04260805 0.044784 0.04674875 0.04857941 0.05034566 0.05215812
 0.05400852 0.05592893 0.05788171 0.05985459 0.06182943 0.06380343 0.06574023 0.0676344 0.06944273 0.07115328
 0.07279351 0.07436406 0.07590688 0.07742203 0.078857 0.08020633 0.08138873 0.08241701 0.08330672 0.08408426
 0.08484562 0.08559115 0.08638213 0.08717061 0.08790412 0.08857103 0.08912665 0.08961573 0.0900634 0.09047768
 0.09087814 0.09122577 0.09151262 0.0917066 0.09179925 0.09177394 0.09162795 0.0913445 0.09092025 0.09037939
 0.08972445 0.08904415 0.08833965 0.08765911 0.08699261 0.08631298 0.08561692 0.0848745 0.08410133 0.08331075
 0.0825303 0.08180878 0.08115532 0.08060154 0.08013333 0.07974634 0.07944161 0.07921306 0.07908529 0.07906837
 0.07916376 0.07937878 0.07967736 0.08005544 0.08048683 0.08096825 0.08149968 0.08208118 0.08272194 0.08342255
 0.08419265 0.08503196 0.08594532 0.08692976 0.08797875 0.08908918 0.09025007 0.09146328 0.09272628 0.09404305
 0.09541702 0.09685001 0.09834336 0.09990129 0.1015242 0.1032226 0.1049988 0.1068655 0.1088271 0.1108835
 0.1130393 0.1152578 0.1175384 0.1198155 0.1220858 0.1242993 0.1264526 0.1285033 0.1304353 0.1321439
 0.1336148 0.1347312 0.1355273 0.1360114 0.1362415 0.1363097 0.136248 0.1361256 0.1359468 0.1357382
 0.1354857 0.1351978 0.1348259 0.1343667 0.1337308 0.132888 0.1318352 0.1305466 0.1292318 0.1279095
 0.1266773 0.1255383 0.1243836 0.1232099 0.1219449 0.1205993 0.1191932 0.1177362 0.1162813 0.1148056
 0.1133103 0.111707 0.1098667 0.1077136 0.1050546 0.102065 0.0987909 0.09545106 0.09221472 0.08901373
 0.08585881 0.0826771 0.07942844 0.07622319 0.07306644 0.07009776 0.06733531 0.06476841 0.06239608 0.0601141
 0.05792077 0.05576022 0.05364232 0.05159229 0.04961664 0.04775447 0.04599553 0.0443388 0.04276691 0.04125336
 0.03978536 0.03834399 0.03690888 0.03547219 0.03397722 0.03239731 0.0306789 0.02876011 0.02679248 0.02477336
 0.02299081 0.02151162 0.02030579 0.01938624 0.01853338 0.01773678 0.0168694 0.01593681 0.01495955 0.01395161
 0.01300449 0.01211302 0.01130778 0.01057674 0.009898502 0.009288915 0.008758141 0.008335479 0.008063924 0.007937812
 0.007973152 0.008136514 0.00841443 0.008785116 0.009236061 0.009765382 0.01036617 0.01106471 0.01185841 0.01281713
 0.01394798 0.01529159 0.01684897 0.01847511 0.02015529 0.02166292 0.0230067 0.02411779 0.02501839 0.02574964
 0.02631903 0.02676018 0.0270802 0.02729494 0.02743591 0.02753146 0.02764028 0.0278169 0.02809121 0.02851306
 0.02901077 0.02957351 0.03012664 0.03064162 0.03112809 0.0315806 0.03204 0.03250995 0.03301379 0.03355279
 0.03411685 0.03470463 0.03529458 0.03588985 0.03649394 0.03711722 0.0377978 0.03854126 0.03938594 0.04031462
 0.04131757 0.04237706 0.04346011 0.04458717 0.04575919 0.04700876 0.04836025 0.04980616 0.05135659 0.05296594
 0.05462389 0.05630511 0.05800008 0.05973242 0.06150397 0.06333102 0.06521422 0.0670759 0.06890768 0.07058029
 0.07209454 0.07339019 0.07447377 0.07534204 0.07598621 0.0763872 0.07652841 0.07636969 0.07591558 0.07514723
 0.07409951 0.07278901 0.07125562 0.06952597 0.06761774 0.06554247 0.0633074 0.06090616 0.05839852 0.05578179
 0.05319177 0.05064089 0.04822774 0.04595813 0.04380523 0.04176419 0.03976068 0.03779952 0.0358682 0.03398275
 0.03219726 0.03051308 0.02896697 0.02753623 0.02620236 0.0249408 0.02371562 0.02251613 0.0213207 0.02013309
 0.01894696 0.01777854 0.01663051 0.01552354 0.01446464 0.01345844 0.01250941 0.01159569 0.01071608 0.009845383
 0.008982134 0.008136763 0.00731272 0.006559917 0.005879822 0.005310073 0.004841562 0.004462508 0.004162311 0.003908359
 0.003699596 0.003518625 0.003371253 0.003258412 0.003182512 0.003148789 0.003148133 0.003180468 0.003225622 0.003278215
 0.003315745 0.00333233 0.003310815 0.003247544 0.003133133 0.002965733 0.002748098 0.002480258 0.002177328 0.001840136
 0.001483242 0.00110663 0.0007163361 0.0003140208 -9.301698E-05 -0.0004988745 -0.0008867824 -0.001250042 -0.001569277 -0.001843482
 -0.0020623 -0.002232377 -0.00235417 -0.002438404 -0.00249038 -0.002519527 -0.002530379 -0.002528601 -0.00251597 -0.00249764
 -0.002474088 -0.002453182 -0.002435688 -0.002427829 -0.002430023 -0.002442461 -0.002464994 -0.002495329 -0.002533586 -0.002579527
 -0.002633226 -0.00269481 -0.002764295 -0.002841097 -0.002926931 -0.00302396 -0.003134772 -0.003263792 -0.003410799 -0.003577892
 -0.003761498 -0.003960791 -0.0041709 -0.004390381 -0.004613683 -0.004839625 -0.005062105 -0.005280029 -0.005489056 -0.005688568
 -0.005877021 -0.006054289 -0.006220435 -0.006375531 -0.006520839 -0.006656203 -0.006781728 -0.006896321 -0.006995949 -0.007079779
 -0.00714297 -0.007187241 -0.007212782 -0.00722279 -0.007221748 -0.007209804 -0.007189519 -0.00715708 -0.007111148 -0.007048444
 -0.00696682 -0.006867056 -0.006748094 -0.006615732 -0.006470143 -0.006320348 -0.006167057 -0.006019391 -0.005877923 -0.005749279
 -0.005633697 -0.005535679 -0.005455211 -0.005394627 -0.005353587 -0.005331994 -0.005329717 -0.005346243 -0.005381953 -0.005437526
 -0.005512564 -0.005607134 -0.005719996 -0.005849993 -0.005996829 -0.006160124 -0.006339508 -0.006535503 -0.006744561 -0.006966237
 -0.007195866 -0.007432274 -0.007674956 -0.007923559 -0.008180726 -0.008446626 -0.008721004 -0.009003544 -0.009289204 -0.009577431
 -0.009862021 -0.010143 -0.01041677 -0.01068447 -0.01094674 -0.01120549 -0.0114647 -0.01172454 -0.01198799 -0.012251
 -0.01251219 -0.01276508 -0.01300523 -0.01323002 -0.0134359 -0.01362886 -0.01380885 -0.01398603 -0.0141624 -0.01434264
 -0.01452794 -0.01471433 -0.01490164 -0.01508403 -0.01526137 -0.01543133 -0.01559385 -0.01574767 -0.01589206 -0.01602355
 -0.01614143 -0.01624212 -0.01632545 -0.0163898 -0.01643443 -0.016458 -0.0164596 -0.01643793 -0.01639291 -0.01632468
 -0.01623139 -0.01611319 -0.01596501 -0.01578573 -0.01557079 -0.01531886 -0.01502994 -0.0147037 -0.01434278 -0.01394728
 -0.01352066 -0.01306329 -0.01258144 -0.01207613 -0.0115573 -0.01102599 -0.01049194 -0.0099548 -0.009419012 -0.008882696
 -0.008344728 -0.007803044 -0.007254529 -0.00669829 -0.006132284 -0.005557069 -0.004971344 -0.004379704 -0.003781259 -0.003189876
 -0.002607107 -0.002053545 -0.001533482 -0.001057673 -0.0006293342 -0.0002353048 0.0001247235 0.0004797741 0.0008311288 0.001202245
 0.001592609 0.00200981 0.002452852 0.00292127 0.003415952 0.003939196 0.004491626 0.005077169 0.005691149 0.006331215
 0.006987706 0.007651412 0.008316415 0.008975236 0.009630828 0.01028227 0.01093465 0.01158951 0.01224857 0.01291225
 0.01358235 0.01425925 0.01494309 0.01563407 0.01632345 0.0170106 0.01768339 0.01834228 0.01898506 0.01961256
 0.02022856 0.02083011 0.02141219 0.02196986 0.02249042 0.0229749 0.02341665 0.02382667 0.02420943 0.02458281
 0.02495731 0.02534942 0.02576932 0.02622151 0.0267112 0.02722814 0.02777197 0.02832902 0.0288971 0.02947374
 0.03005831 0.03066294 0.03128842 0.03195142 0.03265091 0.03338972 0.03416165 0.03494461 0.03572953 0.03648097
 0.03719396 0.03784251 0.0384273 0.03893933 0.03937946 0.03974658 0.040038 0.04025235 0.04038573 0.04043455
 0.04040335 0.04028857 0.04011558 0.03988495 0.03963987 0.03938496 0.03915428 0.03895084 0.03877911 0.03863868
 0.03851781 0.03841669 0.03833126 0.03826304 0.03821688 0.03819265 0.0381931 0.0382158 0.03825824 0.03831658
 0.03838568 0.03846065 0.03853653 0.03860665 0.03866738 0.03870806 0.03872513 0.03870462 0.03864144 0.03852938
 0.03836516 0.03815586 0.03790215 0.03760795 0.03727388 0.03688982 0.0364555 0.03596474 0.03542024 0.03483878
 0.03422504 0.03360776 0.03298919 0.0323909 0.0318107 0.03125668 0.03071986 0.03019508 0.02966531 0.02911472
 0.02852787 0.02788918 0.02719638 0.02644359 0.02563769 0.02478001 0.02387374 0.0229205 0.02191603 0.02085999
 0.01974852 0.01858097 0.01736692 0.01610761 0.01482961 0.01353468 0.01224919 0.01097209 0.009712047 0.008468649
 0.007242781 0.006040367 0.004872788 0.003745474 0.002673058 0.001649664 0.0006763928 -0.0002571026 -0.001158531 -0.002029061
 -0.002871181 -0.003683313 -0.004463157 -0.005221284 -0.005958021 -0.006690698 -0.007422076 -0.008157197 -0.008897102 -0.009628518
 -0.01035044 -0.01104169 -0.01170146 -0.01231343 -0.01287849 -0.0133914 -0.01385428 -0.01427004 -0.01464102 -0.01497233
 -0.0152672 -0.01553115 -0.01576881 -0.01598615 -0.01618653 -0.01637371 -0.01654938 -0.01671468 -0.0168721 -0.01702231
 -0.01716826 -0.01731068 -0.01745089 -0.01758888 -0.01772789 -0.01786804 -0.01801492 -0.01816855 -0.01832781 -0.01849135
 -0.0186476 -0.0187954 -0.01892331 -0.01903181 -0.01911674 -0.01917816 -0.01921401 -0.01922473 -0.01920837 -0.01917055
 -0.01911419 -0.01904891 -0.01898279 -0.01891784 -0.01885913 -0.01879685 -0.01872902 -0.01864817 -0.01855041 -0.01844558
 -0.01833354 -0.01823256 -0.01814433 -0.01807124 -0.01801288 -0.01795347 -0.01789319 -0.01782498 -0.01775333 -0.01769521
 -0.01765403 -0.01765073 -0.01768054 -0.01774549 -0.01783618 -0.01794063 -0.01805216 -0.01816116 -0.01826137 -0.01834783
 -0.01841078 -0.01844482 -0.01844362 -0.01840212 -0.01832775 -0.01821956 -0.01809485 -0.01795577 -0.01781357 -0.01766953
 -0.01752252 -0.0173725 -0.01721745 -0.01705838 -0.01690354 -0.01675346 -0.01661681 -0.01648935 -0.01636446 -0.01623537
 -0.01608475 -0.01591053 -0.01570139 -0.01546121 -0.0151886 -0.01489091 -0.01456966 -0.01424038 -0.0139071 -0.0135939
 -0.01330911 -0.01306741 -0.01287623 -0.01272283 -0.0126083 -0.01250299 -0.01240463 -0.01229464 -0.01217263 -0.01204223
 -0.01190468 -0.01177304 -0.01164673 -0.01153067 -0.01142176 -0.01131349 -0.01120308 -0.0110812 -0.01094829 -0.01080032
 -0.01064058 -0.01047045 -0.01029397 -0.01011438 -0.009933667 -0.009754064 -0.009574004 -0.00939348 -0.009210707 -0.009024535
 -0.008838934 -0.008653934 -0.008476485 -0.008307445 -0.00814435 -0.007986749 -0.007819771 -0.007642547 -0.00744054 -0.007214776
 -0.006961745 -0.006684386 -0.006388253 -0.006078725 -0.005767062 -0.005462849 -0.005183423 -0.004937461 -0.004742761 -0.004593355
 -0.00449649 -0.004424146 -0.004368503 -0.004296027 -0.004193078 -0.004046812 -0.003849354 -0.003614981 -0.003343605 -0.003056876
 -0.002756591 -0.002454746 -0.002151864 -0.00185255 -0.001557265 -0.001272099 -0.0009979163 -0.0007426405 -0.0005058048 -0.0002915191
 -9.564797E-05 8.690468E-05 0.000263265 0.0004463031 0.0006389578 0.0008514309 0.001075661 0.001310583 0.001544465 0.001770627
 0.001985527 0.002185946 0.002374612 0.002551358 0.002719675 0.002879018 0.003040946 0.003205859 0.00339344 0.003604418
 0.003845458 0.004114353 0.004392655 0.004677772 0.004945867 0.005199347 0.005431939 0.005650011 0.005864187 0.006078039
 0.006303055 0.006535143 0.006775983 0.007016224 0.007249116 0.007471143 0.00767708 0.007873647 0.008061675 0.008247975
 0.008434763 0.008622153 0.008810378 0.008999454 0.009189324 0.009382204 0.009578049 0.009771777 0.009962445 0.01013829
 0.01029949 0.01043958 0.01056175 0.01067099 0.01077348 0.01088393 0.01100807 0.01116344 0.01134425 0.01155599
 0.01177658 0.01199278 0.01218721 0.01234341 0.01247224 0.0125712 0.01266409 0.01275729 0.01285653 0.0129645
 0.01307237 0.01317924 0.0132862 0.01339349 0.01351485 0.01365062 0.01380946 0.01399004 0.01418955 0.01440782
 0.01464153 0.01489444 0.01517378 0.01548056 0.01582385 0.01619025 0.01657289 0.01694977 0.01730123 0.01762093
 0.01789746 0.01814424 0.01836374 0.01856489 0.01875055 0.01892214 0.01907855 0.01923537 0.01939327 0.01957555
 0.01978318 0.02002082 0.02028736 0.02057245 0.02087588 0.02119206 0.02152073 0.02185955 0.02220532 0.02255077
 0.02289138 0.02321868 0.02352578 0.0238047 0.02404396 0.02423286 0.02436483 0.02443037 0.02444138 0.0243956
 0.02432325 0.02422837 0.02414572 0.02408116 0.02405381 0.02406697 0.02410953 0.0241809 0.02426103 0.02435161
 0.02446394 0.02460165 0.02479428 0.02503434 0.0253165 0.02562398 0.02591575 0.02618544 0.02640309 0.02657613
 0.02669913 0.02678707 0.02684025 0.02690033 0.02697571 0.02714442 0.02744417 0.02788055 0.02848361 0.02910691
 0.02973188 0.03026375 0.03068857 0.03102521 0.03127438 0.03147194 0.03161992 0.03175165 0.03186815 0.03199663
 0.03212882 0.0322551 0.03236036 0.03240351 0.03238293 0.03227261 0.03209219 0.03184896 0.03157176 0.03128158
 0.03100495 0.03076136 0.03056142 0.03041634 0.03031231 0.030249 0.03020901 0.0301886 0.03018765 0.0302064
 0.03023788 0.0302814 0.03029721 0.0302828 0.03019451 0.0300356 0.02979822 0.02949308 0.02914864 0.0287794
 0.02843204 0.02811344 0.02786213 0.02765695 0.02749425 0.02734024 0.02715858 0.02696312 0.0267412 0.02654994
 0.0264111 0.02634283 0.02636133 0.02642296 0.02652502 0.02661934 0.02670035 0.02675285 0.02677606 0.02678756
 0.02679066 0.02682961 0.02690679 0.02706181 0.02728707 0.02758029 0.02792753 0.02829623 0.02867738 0.02904286
 0.02938884 0.02969927 0.0299784 0.03022099 0.0304439 0.03065582 0.03086353 0.03107668 0.03127215 0.03144756
 0.03157684 0.03165368 0.03167918 0.03165194 0.03158873 0.03149045 0.03138163 0.03126483 0.03117949 0.0311255
 0.03112671 0.03117295 0.03124048 0.03132351 0.03139105 0.03145784 0.03153418 0.03163196 0.03177727 0.03194783
 0.03214179 0.03231703 0.03245047 0.03251747 0.03249841 0.03240909 0.03224327 0.03205535 0.03185242 0.03167765
 0.03153886 0.03141211 0.03129635 0.03114055 0.03094659 0.03072382 0.03047981 0.03026859 0.03008382 0.02993559
 0.02980534 0.02965188 0.02947026 0.02923007 0.02894471 0.0286146 0.0282615 0.02789905 0.02755281 0.02724098
 0.02697346 0.02676299 0.0265879 0.02644709 0.02631229 0.02617857 0.0260319 0.02587147 0.02567441 0.02543942
 0.02513557 0.0247644 0.02433516 0.02385619 0.0233815 0.02291636 0.02250973 0.02215728 0.02187485 0.02165168
 0.0214787 0.02134384 0.02122837 0.02113033 0.02103962 0.0209664 0.02091659 0.02088611 0.02088073 0.02086842
 0.02084209 0.02078039 0.02067542 0.02054458 0.02038833 0.02022846 0.02006623</values></Ydata></AB><ScSm><Ydata ylabel="Single channel"><values byteorder="INTEL" format="FLOAT32" numvalues="1814"> 0.06883422 0.06884181 0.06891611 0.06907438 0.06928493 0.06948552 0.0696248 0.0696936 0.06970937 0.06967835
 0.06960584 0.0695447 0.06958499 0.06976604 0.07001844 0.07021008 0.07025236 0.07017897 0.07012682 0.07020313
 0.07034323 0.07032818 0.0699892 0.06939946 0.06882827 0.0684924 0.06841889 0.06859827 0.06911722 0.06991316
 0.07049771 0.07030593 0.0694059 0.06852825 0.06825571 0.06846628 0.06867434 0.06859089 0.06821208 0.06771284
 0.06750003 0.0680998 0.06963792 0.07141707 0.07217419 0.07088182 0.06748073 0.06310288 0.05965036 0.05877866
 0.06073363 0.06401868 0.06651487 0.06716881 0.06649804 0.06552349 0.06466892 0.06389058 0.06338875 0.06364721
 0.06476833 0.06602222 0.0662246 0.06475256 0.0622853 0.06031686 0.0597897 0.06050687 0.06193846 0.06380189
 0.06525169 0.06441278 0.0602238 0.05477576 0.0523816 0.05547565 0.06201625 0.06747939 0.0688829 0.06646955
 0.06240346 0.05897153 0.0577095 0.05899475 0.06199359 0.06535169 0.06800522 0.06922533 0.06844369 0.0657457
 0.06234933 0.06001612 0.05997055 0.06241562 0.06648591 0.07032986 0.07195519 0.0706998 0.06767102 0.0645775
 0.06260283 0.06240889 0.06431101 0.06795146 0.07227151 0.07611727 0.07871135 0.07974336 0.07943925 0.07841316
 0.07719806 0.07616049 0.07582816 0.0765647 0.07771052 0.0778304 0.07627285 0.07403681 0.07274204 0.0729533
 0.07373039 0.07377623 0.07275227 0.07107586 0.06864326 0.06478859 0.05981977 0.05544156 0.05305 0.05266091
 0.05392328 0.05667076 0.05973075 0.06085331 0.0591821 0.05683095 0.05679355 0.05974594 0.0636934 0.06639186
 0.06742392 0.06804022 0.06955434 0.07200231 0.07397908 0.07370117 0.07077393 0.06718275 0.06588933 0.06792451
 0.07139583 0.07381339 0.07471515 0.07539339 0.07663353 0.0774969 0.0763039 0.07263441 0.06839472 0.06663735
 0.06890185 0.07367019 0.07746851 0.07744101 0.073272 0.06724511 0.06246097 0.060697 0.06193882 0.0655617
 0.07101381 0.07719379 0.08217186 0.0842752 0.08330925 0.08045134 0.07690874 0.07280748 0.06783576 0.06309662
 0.06132885 0.06431767 0.07061324 0.07674018 0.08029719 0.08115268 0.08009818 0.07737464 0.07288822 0.06761526
 0.06406429 0.06433528 0.06759205 0.07052855 0.07082538 0.06926714 0.06805272 0.06805824 0.06850208 0.0686148
 0.06873092 0.06969878 0.07165684 0.07369928 0.07475014 0.07454593 0.07368836 0.072946 0.07255624 0.07205309
 0.0709213 0.06961295 0.06950173 0.07137741 0.07435969 0.07680261 0.07794827 0.07820702 0.07806227 0.07722989
 0.07508205 0.07183847 0.06905268 0.0684597 0.07029734 0.07315901 0.0754576 0.07656425 0.07665548 0.07614283
 0.07539582 0.07462116 0.0739193 0.07354026 0.07382172 0.07470598 0.07563235 0.07610011 0.07608023 0.07576291
 0.07519647 0.07435307 0.0733827 0.07262847 0.07238197 0.07266238 0.07324756 0.07387474 0.07433824 0.0744573
 0.07414109 0.07352374 0.07288446 0.07239413 0.07205502 0.07187479 0.07192963 0.07221345 0.07255792 0.07277213
 0.07279457 0.07267258 0.07245664 0.0721641 0.07181717 0.07147986 0.07125184 0.07120535 0.07130452 0.07142295
 0.0714835 0.07153311 0.07162163 0.07166943 0.071549 0.07126392 0.07095946 0.07076696 0.07069917 0.07068613
 0.07064912 0.07051808 0.07022749 0.06977314 0.06929159 0.0690113 0.06906766 0.06939964 0.06984414 0.07026067
 0.07054827 0.07064788 0.07058839 0.07046391 0.07032559 0.07014206 0.06988341 0.06960609 0.06943913 0.06948745
 0.06973557 0.07005145 0.07029644 0.0704136 0.0704177 0.07036404 0.07033575 0.07038392 0.07045574 0.07044477
 0.07032816 0.07020087 0.07016282 0.07021173 0.07025744 0.07022522 0.07013917 0.07009602 0.07015479 0.07027727
 0.07038876 0.07046512 0.07053766 0.07063083 0.07071342 0.07071646 0.07060876 0.07044813 0.07032914 0.07028624
 0.07028615 0.0703075 0.07037443 0.07049927 0.07063547 0.07071544 0.07072146 0.07069933 0.07069764 0.07070655
 0.07067306 0.07057218 0.07044054 0.07033708 0.07029058 0.07028951 0.07030426 0.07030889 0.07028985 0.07024385
 0.07017267 0.07008026 0.06997232 0.06986281 0.06978455 0.0697784 0.06984832 0.06993087 0.06993522 0.06982515
 0.06965201 0.06950192 0.06941614 0.06936486 0.06929282 0.06917955 0.0690508 0.06894179 0.06886619 0.06881806
 0.06878354 0.0687473 0.06870908 0.06870196 0.06877097 0.06891459 0.06906256 0.06913462 0.06911679 0.06906497
 0.06904275 0.06907291 0.06913956 0.06921613 0.06929327 0.06938659 0.06950751 0.06962809 0.06970237 0.06972818
 0.06975772 0.06983995 0.06998111 0.07016189 0.07035444 0.07051715 0.07061601 0.07066859 0.07073719 0.07086228
 0.07102408 0.0711807 0.07132017 0.07145853 0.07160656 0.0717636 0.07193884 0.07215606 0.07242904 0.07273914
 0.07304039 0.07328887 0.07347782 0.07365175 0.0738779 0.07419133 0.07456536 0.0749369 0.07525953 0.0755343
 0.07579388 0.07606135 0.07633304 0.07660596 0.07690616 0.07726625 0.07767907 0.0780968 0.07847989 0.07883056
 0.07917597 0.07953327 0.07989845 0.08026429 0.08064024 0.08104461 0.08147263 0.08188435 0.08223875 0.08253584
 0.08281617 0.08312623 0.08349048 0.08389647 0.08429074 0.08461083 0.08484952 0.08507429 0.08535504 0.08568497
 0.08600456 0.08629211 0.08658928 0.08693343 0.08730461 0.08765668 0.08797541 0.08828509 0.08860867 0.08893476
 0.08922301 0.08944164 0.08960432 0.08976379 0.08996283 0.09020453 0.09048107 0.09080704 0.09119517 0.09161253
 0.09199277 0.09229029 0.09250389 0.09266099 0.09280341 0.09297365 0.0931863 0.09341768 0.09363613 0.0938274
 0.0939846 0.09410757 0.09422827 0.09440213 0.09465083 0.09494231 0.09524585 0.09557338 0.09594141 0.09632462
 0.09668607 0.09703693 0.0974222 0.09784329 0.09823294 0.09852576 0.09872603 0.09888417 0.09903568 0.09919822
 0.0994058 0.09969801 0.1000741 0.1004896 0.1009006 0.1012902 0.1016549 0.101988 0.1022805 0.1025268
 0.1027259 0.1028845 0.1030198 0.1031623 0.1033473 0.1035908 0.103866 0.1041155 0.104293 0.1043828
 0.1043805 0.1042832 0.1041145 0.1039342 0.1037899 0.1036593 0.1034608 0.1031244 0.1026354 0.1020128
 0.101272 0.1004248 0.09950717 0.09859279 0.09777286 0.09712239 0.09668511 0.09648918 0.0965645 0.09692207
 0.09750892 0.09820005 0.09884607 0.0993204 0.09952603 0.09939565 0.09891982 0.09816714 0.09725389 0.09628972
 0.09534745 0.09445733 0.0936106 0.09278734 0.09201086 0.09137902 0.09103525 0.0911165 0.0917324 0.09295778
 0.09478604 0.09706295 0.09949487 0.1017715 0.1037099 0.1052958 0.1066132 0.1077611 0.1088153 0.1098141
 0.1107517 0.1116013 0.1123562 0.1130378 0.1136644 0.1142303 0.114715 0.1150983 0.1153716 0.1155489
 0.1156628 0.1157433 0.1158062 0.1158661 0.1159381 0.1160126 0.1160403 0.1159525 0.1156925 0.1152308
 0.1145746 0.1137937 0.1130666 0.1127057 0.1130795 0.1144124 0.1166013 0.1192393 0.121845 0.1240877
 0.1258497 0.1271639 0.1281377 0.1288976 0.1295471 0.1301469 0.1307238 0.131285 0.1318262 0.1323413
 0.1328299 0.1332997 0.1337648 0.1342369 0.1347126 0.1351713 0.135596 0.1359957 0.1364012 0.1368377
 0.1373008 0.1377621 0.1382016 0.1386275 0.1390552 0.1394742 0.1398567 0.1401955 0.1405159 0.1408518
 0.1412248 0.1416382 0.1420706 0.1424798 0.1428316 0.1431282 0.1434025 0.1436867 0.1439925 0.1443142
 0.1446417 0.1449689 0.1452952 0.1456264 0.1459723 0.1463327 0.1466829 0.1469883 0.1472413 0.1474748
 0.1477297 0.1480156 0.1483101 0.1485897 0.148856 0.1491345 0.1494503 0.1498021 0.150158 0.1504797
 0.1507522 0.1509928 0.151235 0.1515041 0.1518046 0.1521238 0.1524434 0.1527501 0.1530419 0.153328
 0.1536194 0.1539179 0.154217 0.1545101 0.1547952 0.1550753 0.1553548 0.1556368 0.1559244 0.1562264
 0.1565537 0.156901 0.1572408 0.1575449 0.1578096 0.1580511 0.1582867 0.1585266 0.1587784 0.1590465
 0.159327 0.1596094 0.1598862 0.1601582 0.1604322 0.1607119 0.1609955 0.1612824 0.1615768 0.1618787
 0.1621808 0.1624775 0.1627716 0.163065 0.1633508 0.1636229 0.163887 0.1641552 0.164434 0.1647205
 0.1650063 0.1652845 0.1655535 0.1658171 0.1660782 0.1663364 0.1665907 0.1668432 0.1670995 0.1673665
 0.167647 0.1679366 0.1682282 0.1685174 0.1688011 0.169076 0.1693428 0.1696075 0.1698758 0.1701469
 0.1704144 0.1706714 0.1709186 0.1711684 0.1714352 0.1717191 0.1720049 0.1722792 0.1725406 0.1727946
 0.1730446 0.1732927 0.173543 0.1738008 0.1740672 0.1743377 0.1746073 0.1748755 0.1751429 0.175408
 0.1756716 0.1759389 0.1762137 0.1764942 0.1767776 0.1770614 0.1773414 0.1776148 0.1778839 0.1781526
 0.1784228 0.1786951 0.1789699 0.1792454 0.1795183 0.1797846 0.1800395 0.1802824 0.1805208 0.1807637
 0.1810142 0.1812704 0.1815275 0.1817779 0.1820185 0.1822583 0.18251 0.1827771 0.1830557 0.1833421
 0.1836305 0.1839122 0.1841816 0.1844375 0.1846828 0.1849299 0.1851947 0.1854797 0.1857715 0.1860579
 0.1863369 0.1866122 0.1868888 0.1871679 0.1874437 0.1877121 0.1879783 0.1882449 0.188504 0.1887518
 0.1889977 0.1892542 0.1895273 0.1898188 0.1901212 0.1904181 0.190699 0.1909646 0.1912159 0.191455
 0.1916943 0.1919468 0.1922122 0.1924827 0.1927525 0.1930178 0.1932815 0.1935539 0.1938362 0.1941161
 0.1943878 0.1946573 0.1949259 0.1951906 0.1954524 0.1957111 0.1959633 0.1962131 0.1964636 0.1966954
 0.1968572 0.1968223 0.1962704 0.1945667 0.1907635 0.1838041 0.1729477 0.1582416 0.1406701 0.1218069
 0.1032408 0.08616626 0.07127497 0.05885985 0.04897793 0.04154848 0.03640595 0.03339843 0.03250322 0.0339506
 0.03834953 0.04632488 0.05716348 0.06761603 0.07315986 0.07156906 0.06504193 0.05819494 0.05422086 0.05334025
 0.05418052 0.05557283 0.05715334 0.05914694 0.06193049 0.06560927 0.06999835 0.07508266 0.08124765 0.08879182
 0.09732823 0.1059388 0.1139673 0.1215422 0.1292737 0.1375208 0.1460122 0.1541153 0.1613442 0.1676064
 0.1731022 0.1780994 0.1827813 0.1872289 0.1914763 0.1955128 0.1991968 0.2022169 0.2042388 0.2051589
 0.2052274 0.2049085 0.2046073 0.2045111 0.2046356 0.2049464 0.2054171 0.2060286 0.2067636 0.2076001
 0.2085031 0.2094324 0.2103571 0.2112565 0.2121149 0.2129236 0.2136788 0.2143747 0.2150071 0.2155814
 0.2161054 0.2165837 0.2170246 0.2174432 0.2178503 0.2182472 0.2186309 0.2189959 0.2193344 0.2196424
 0.2199243 0.2201859 0.2204312 0.220666 0.2208974 0.2211295 0.2213671 0.221616 0.2218754 0.2221346
 0.2223838 0.2226223 0.2228544 0.223083 0.2233081 0.2235273 0.2237399 0.223954 0.2241811 0.2244219
 0.224665 0.2249007 0.2251291 0.2253549 0.2255829 0.2258159 0.2260528 0.2262898 0.226523 0.2267494
 0.2269727 0.2272073 0.2274655 0.2277371 0.2279974 0.2282358 0.2284641 0.2286991 0.2289487 0.2292085
 0.2294585 0.2296737 0.2298505 0.2300176 0.2302148 0.2304639 0.2307533 0.2310472 0.2313154 0.2315563
 0.2317887 0.2320258 0.2322617 0.2324788 0.2326718 0.2328709 0.2331226 0.2334345 0.2337603 0.234058
 0.2343308 0.2346005 0.2348764 0.2351607 0.2354472 0.2357052 0.2359027 0.23606 0.2362567 0.2365689
 0.2369946 0.2374453 0.2378257 0.2381181 0.2383745 0.2386502 0.238967 0.2392967 0.2395373 0.2395817
 0.2394849 0.2394934 0.2398217 0.2404373 0.2411229 0.2416996 0.2421361 0.2424898 0.2428088 0.2430852
 0.2432676 0.2433184 0.2432911 0.2433534 0.2436748 0.2442523 0.2448947 0.2454186 0.2457972 0.246091
 0.2463416 0.2465645 0.2467127 0.2466216 0.246182 0.2456412 0.2455352 0.2461709 0.24728 0.2483049
 0.2489502 0.2493299 0.2496521 0.2499651 0.2502218 0.2503238 0.2499904 0.2489207 0.2473759 0.2463408
 0.2467063 0.2483678 0.2503924 0.2519503 0.2528421 0.2532915 0.2535748 0.2538354 0.2539767 0.2536798
 0.2527542 0.251591 0.2510611 0.2517138 0.253164 0.2545056 0.2552368 0.2555323 0.2557631 0.2560776
 0.256298 0.2558846 0.2542505 0.2516233 0.2494708 0.2494699 0.2518694 0.2551885 0.2576815 0.2588426
 0.2592701 0.2593721 0.258764 0.2569591 0.2541056 0.2509201 0.24844 0.2478678 0.2497841 0.2531642
 0.2559559 0.2570978 0.2574174 0.258273 0.2599309 0.2615762 0.2623692 0.2620969 0.261025 0.259429
 0.2574622 0.2555872 0.2548425 0.2561099 0.2590435 0.2621862 0.2643158 0.2653742 0.2658384 0.2653036
 0.2621938 0.2556588 0.2479514 0.2438101 0.2462782 0.25352 0.2607946 0.2651226 0.2669198 0.2677657
 0.2682796 0.2679496 0.2654385 0.2593247 0.2503549 0.2428345 0.2417084 0.247677 0.2564081 0.262576
 0.2634727 0.259289 0.2521741 0.2456068 0.2429712 0.2455018 0.2517419 0.2589884 0.2649159 0.2682127
 0.2685651 0.2665384 0.2635475 0.2615188 0.2614945 0.2621001 0.2605843 0.2562893 0.2517325 0.24891
 0.2462209 0.2414514 0.2366349 0.2367094 0.2430847 0.2512709 0.2559151 0.2562257 0.2550215 0.25363
 0.2496534 0.2404398 0.2280983 0.2196085 0.2207086 0.2299421 0.2399606 0.2447116 0.2442459 0.2425863
 0.2423546 0.2420956 0.2383367 0.2301147 0.2212892 0.2173135 0.2194529 0.2236517 0.2253462 0.2231354
 0.2172326 0.2079642 0.1983035 0.1948324 0.2022066 0.2174641 0.2323398 0.2400784 0.2379439 0.2257658
 0.2068139 0.189671 0.1840714 0.1922241 0.2061347 0.2149438 0.2135669 0.2036446 0.1888545 0.1723249
 0.1580331 0.1513433 0.1557957 0.1694608 0.1850444 0.1936075 0.1895398 0.1748478 0.1593428 0.1536022
 0.1594709 0.1688689 0.1728472 0.1696785 0.1636406 0.1594284 0.1593911 0.1631778 0.1681633 0.1718841
 0.1740058 0.1737029 0.1670402 0.151731 0.1335832 0.1227023 0.1229795 0.1300944 0.1396098 0.1509446
 0.1621071 0.1669924 0.1622919 0.1538118 0.1515244 0.1589731 0.1702192 0.1770477 0.1770632 0.1741191
 0.1723456 0.1717242 0.1701675 0.1683386 0.1698259 0.1761843 0.1842068 0.1895053 0.1910898 0.1909569
 0.1907108 0.1903579 0.1894694 0.1879082 0.1857405 0.1833437 0.181299 0.1797327 0.178193 0.1763142
 0.1738301 0.1696683 0.1622267 0.1517625 0.1418267 0.1365119 0.1361984 0.1378428 0.1394203 0.1411079
 0.1412131 0.1349828 0.1208548 0.1056187 0.09948535 0.1062359 0.1204137 0.1335341 0.1405341 0.1402025
 0.1327217 0.1200087 0.1079343 0.1044693 0.1131906 0.1298976 0.1471682 0.1607164 0.1697833 0.1736557
 0.1711595 0.1634306 0.1549021 0.1507815 0.1539567 0.1637169 0.1758792 0.183751 0.1814292 0.1697704
 0.1591115 0.1615954 0.178292 0.1972403 0.2068819 0.2077996 0.2078364 0.2099252 0.2107058 0.2092436
 0.2104427 0.2183201 0.2300623 0.2387776 0.2395467 0.2313636 0.2164317 0.2005753 0.1917401 0.1936921
 0.201809 0.2081486 0.2091531 0.2052192 0.1960038 0.1823146 0.1710422 0.1710276 0.1827902 0.1973243
 0.2063351 0.2097954 0.2122005 0.2148125 0.2141458 0.2072695 0.1966958 0.1888225 0.1876109 0.1911258
 0.1948032 0.1962471 0.1953268 0.1915181 0.1842115 0.1756018 0.1706923 0.1729996 0.1809735 0.1894904
 0.1944717 0.1954719 0.1944413 0.1932329 0.1923442 0.1911052 0.188977 0.1872112 0.1885844 0.1943594
 0.202153 0.2083345 0.2121655 0.2160205 0.221644 0.2276973 0.2313353 0.23129 0.2291028 0.2278318
 0.2296185 0.2339697 0.2381028 0.2393172 0.2375633 0.2357207 0.2369367 0.2416134 0.2473612 0.2517077
 0.2541112 0.2554331 0.2564825 0.2573301 0.2572684 0.2553557 0.2518049 0.248812 0.2490209 0.2529079
 0.2583224 0.2626935 0.2650826 0.2660452 0.2662514 0.2657558 0.2644121 0.2625392 0.2609272 0.2602241
 0.260487 0.2613422 0.2623861 0.2633578 0.2641256 0.2646775 0.2650803 0.2653883 0.2656289 0.2658574
 0.2661256 0.2663928 0.2665715 0.2666939 0.2669342 0.2674008 0.2679765 0.2684333 0.2686353 0.2685392
 0.2680673 0.2671373 0.2658161 0.2643001 0.2626985 0.2609566 0.2591063 0.2575466 0.2569312 0.2576768
 0.2595805 0.2619498 0.2640923 0.2656664 0.2666647 0.2672265 0.2675191 0.2676945 0.2678503 0.2680025
 0.2681141 0.2681553 0.2681335 0.2680756 0.2680009 0.2679252 0.2678801 0.2678969 0.2679664 0.2680288
 0.2680124 0.267878 0.2676356 0.2673301 0.2670023 0.2666508 0.2662281 0.2656795 0.2649895 0.2641982
 0.263384 0.2626209 0.2619321 0.2612742 0.2605704 0.2597609 0.2588093 0.2576791 0.2563555 0.2549107
 0.2534953 0.2522194 0.251062 0.2499177 0.2486984 0.2473657 0.2459099 0.2443419 0.2426942 0.2410002
 0.2392738 0.2375123 0.2357098 0.2338678 0.2319992 0.2301195 0.228226 0.2262928 0.2242947 0.2222252
 0.2200727 0.217781 0.215247 0.2123577 0.2090172 0.2051522 0.2007331 0.1958193 0.1905711 0.1852024
 0.179919 0.1748856 0.1702237 0.1660265 0.1623791 0.1593574 0.15701 0.1553518 0.1543764 0.1540659
 0.1543904 0.1553074 0.1567545 0.1586364 0.1608192 0.1631373 0.165409 0.1674808 0.1692949 0.1709178
 0.1724784 0.1740646 0.1756742 0.1772528 0.1787593 0.1801785 0.18148 0.182604 0.1835115 0.184228
 0.184815 0.1853129 0.1857276 0.1860561 0.186307 0.1864984 0.186651 0.1867882 0.1869455 0.1871673
 0.1874846 0.187903 0.1884257 0.189075 0.1898715 0.1908002 0.1918077 0.1928321 0.1938417 0.1948556
 0.1959264 0.1971062 0.1984364 0.1999607 0.2017233 0.2037472 0.2060186 0.2084794 0.2110268 0.213537
 0.2159025 0.2180436 0.2199023 0.2214494 0.2226961 0.2236783 0.2244349 0.2250059 0.2254368 0.2257696
 0.2260263 0.2262009 0.2262686 0.2262099 0.2260251 0.2257246 0.2253219 0.2248438 0.2243277 0.2237967
 0.2232528 0.2227005 0.22216 0.2216506 0.2211741 0.2207149 0.2202512 0.2197692 0.219269 0.2187508
 0.2182004 0.2175923 0.2168977 0.2160905 0.215157 0.2141034 0.2129463 0.2116975 0.2103634 0.2089467
 0.207449 0.2058823 0.2042731 0.2026412 0.2009796 0.1992627 0.1974575 0.1955269 0.1934586 0.1913038
 0.1891668 0.187139 0.1852488 0.1834721 0.1817777 0.1801597 0.1786253 0.1771611 0.1757341 0.1743322
 0.1729769 0.1716892 0.1704688 0.1693148 0.1682408 0.1672626 0.1663912 0.1656352 0.1649932 0.1644452
 0.1639622 0.1635237 0.1631356 0.1628329 0.1626493 0.162567 0.162511 0.1624021 0.1622088 0.161954
 0.1616873 0.1614462 0.1612303 0.1610157 0.1607867 0.1605303 0.1602043 0.1597326 0.1590336 0.1580437
 0.1567314 0.155108 0.1532297 0.151196 0.149148 0.147239 0.1455839 0.1442382 0.1432081 0.1424459
 0.1418507 0.1413277 0.1408601 0.140511 0.1403544 0.1403948 0.1405277 0.140593 0.1405124 0.1403755
 0.1403656 0.1406105 0.1411014 0.1417178 0.1423142 0.1428039 0.1431694 0.1434087 0.1435155 0.1435091
 0.1434275 0.1432827 0.1430626 0.1427684 0.142417 0.1420243 0.1416029 0.141148 0.140622 0.1399843
 0.1392294 0.1383815 0.1374705 0.1365094 0.1354623 0.1342719 0.1329808 0.131796 0.1309843 0.1307154
 0.1309876 0.1316372 0.1324381 0.1332528 0.1340308 0.1346295 0.134825 0.1346709 0.1347143 0.1356064
 0.1374584 0.1397028 0.1416009 0.1427757 0.1432413 0.1431172 0.1424832 0.1414062 0.1399131 0.1379684
 0.1355836 0.1328735 0.1299605 0.1269548 0.124042 0.1214309 0.1192201 0.1174057 0.1159562 0.1149058
 0.1144035 0.1141209 0.1122724 0.106558 0.09770066 0.09102326 0.09196424 0.09995715 0.1088291 0.1133378
 0.1133522 0.1116736 0.1102278 0.109309 0.1088302 0.1089336 0.1097355 0.1110772 0.1125486 0.1137342
 0.1144815 0.1148524 0.1148181 0.1140491 0.1118889 0.1075674 0.1008033 0.09236649 0.08383933 0.07670438
 0.07168383 0.06872012 0.06725012 0.06653987 0.06607355 0.0657986 0.06600638 0.06697995 0.06875862 0.0711918
 0.07409797 0.07724997 0.08027372 0.08279062 0.08471587 0.08624829 0.08753164 0.08848383 0.08897086 0.08898778
 0.08863945 0.08805726 0.08735894 0.08661138 0.0857905 0.08481156 0.08366463 0.08253439 0.08170472 0.08129946
 0.08119471 0.08120757 0.0812536 0.08130109 0.08131512 0.08129118 0.08125886 0.08126155 0.0813843 0.08172399
 0.08226391 0.0828464 0.08330993 0.08360486 0.08377186 0.08382726 0.08366199 0.08313676 0.08236298 0.08172147
 0.08139377 0.08104146 0.08023906 0.07911444 0.07826579 0.07808833 0.0784173 0.07880357 0.07893097 0.07876153
 0.07848184 0.07840603 0.07877609 0.07948141</values></Ydata></ScSm><ScRf><Ydata ylabel="Single channel"><values byteorder="INTEL" format="FLOAT32" numvalues="1820"> 0.06077304 0.06092943 0.06101742 0.06104412 0.06103762 0.06104184 0.06110203 0.06123838 0.06142855 0.06161655
 0.06174933 0.06181226 0.06182116 0.06178617 0.06171548 0.06165632 0.06168617 0.06183704 0.06204773 0.06220575
 0.06223658 0.06216908 0.06212145 0.06218798 0.06231184 0.06229803 0.06199559 0.06146946 0.06095892 0.06065723
 0.06059055 0.06075249 0.06121944 0.06193269 0.06245401 0.06227797 0.06146587 0.06067245 0.0604201 0.06059919
 0.06077638 0.06069851 0.0603666 0.0599326 0.05974886 0.06028051 0.06164726 0.0632366 0.0639212 0.06277566
 0.05974216 0.05583364 0.05275042 0.05196719 0.05370008 0.05661554 0.05882841 0.05940471 0.05881232 0.05796477
 0.05723158 0.05655529 0.05610183 0.05630757 0.05727889 0.05837436 0.05853887 0.05721717 0.05501659 0.05326741
 0.05280519 0.05345368 0.05474352 0.0564201 0.05771938 0.0569621 0.05320615 0.04832847 0.04618683 0.04895772
 0.05481741 0.05971897 0.06098622 0.0588269 0.05517943 0.05210337 0.05098084 0.05214056 0.05482044 0.05780287
 0.06014449 0.06120712 0.06049496 0.0580929 0.05508862 0.05304123 0.05302226 0.05519909 0.0588044 0.06220613
 0.0636455 0.06253378 0.05984494 0.0570893 0.05532071 0.05513614 0.05682291 0.06006578 0.06392342 0.06736667
 0.06969585 0.07062365 0.07034577 0.06941728 0.06833094 0.06742402 0.0671559 0.06782604 0.06883386 0.06891347
 0.06750903 0.06552075 0.06438038 0.06457542 0.06526548 0.06530259 0.06439017 0.06289755 0.06072664 0.05728059
 0.05283594 0.04892079 0.04678988 0.04646286 0.04762533 0.05012073 0.05288903 0.05390979 0.0524169 0.0503051
 0.05025326 0.05286492 0.05636105 0.05874737 0.05966169 0.06022345 0.06159971 0.06381309 0.06560048 0.06536396
 0.06275016 0.0595367 0.0583776 0.0602017 0.06331979 0.06550251 0.06633326 0.06696974 0.06811901 0.06894013
 0.06792306 0.06468829 0.060945 0.05942442 0.06149473 0.06579132 0.06921189 0.06921013 0.06550588 0.06014261
 0.05589618 0.05435667 0.05551513 0.05882984 0.06382722 0.06952382 0.07416995 0.0762285 0.07548434 0.07297711
 0.06981295 0.06613909 0.06168763 0.05745655 0.05594236 0.05879049 0.06468921 0.07045418 0.07386993 0.07480268
 0.07396968 0.0715773 0.0675251 0.06272864 0.05955536 0.05998682 0.06322734 0.06614833 0.06656045 0.0652161
 0.06420626 0.06436072 0.06492899 0.06517748 0.06543955 0.06654347 0.06862293 0.07079333 0.07200316 0.07198878
 0.07133079 0.07078134 0.07057822 0.07026534 0.06933631 0.06824031 0.06833348 0.0703897 0.07353427 0.07614307
 0.07747501 0.07794289 0.07801917 0.07739644 0.07542227 0.07231615 0.0696681 0.06926171 0.07135305 0.07450671
 0.07708668 0.07843581 0.07873716 0.0784251 0.07788318 0.07731621 0.07681929 0.07665031 0.07716471 0.07830903
 0.07950297 0.08022268 0.08043037 0.08031063 0.07990019 0.07917516 0.07832211 0.0777282 0.0776982 0.07823087
 0.07907888 0.07996813 0.08068484 0.0810286 0.0808882 0.08040313 0.07988358 0.07952654 0.07934029 0.0793356
 0.07959743 0.08011483 0.08069349 0.0811182 0.08132321 0.08136444 0.08130018 0.08114999 0.08093518 0.08072778
 0.08065049 0.08079048 0.08109054 0.08138599 0.0815952 0.08179998 0.08207217 0.08230688 0.08233563 0.0821558
 0.08194503 0.08186591 0.08193307 0.08206141 0.08216317 0.08216354 0.08198358 0.08160783 0.08118661 0.08098263
 0.08115874 0.08166128 0.08231943 0.08297054 0.08347759 0.08375183 0.08382063 0.08379656 0.08374219 0.08362273
 0.08340824 0.08317441 0.0830819 0.08325675 0.08367594 0.0841741 0.08457649 0.08481124 0.0849064 0.08494738
 0.08504184 0.08523638 0.08544131 0.0855142 0.08543898 0.08535498 0.08538972 0.08551633 0.08559848 0.08555023
 0.0854342 0.08539976 0.08552931 0.08576421 0.08598836 0.08615644 0.08631811 0.08652543 0.0867345 0.08682075
 0.08671361 0.08649662 0.08632672 0.08626811 0.08627104 0.08630532 0.08642188 0.08664823 0.08689655 0.08703881
 0.08704952 0.08702549 0.08706164 0.08714027 0.08715976 0.08705483 0.08686519 0.0866928 0.0866161 0.08664532
 0.08673242 0.08680654 0.08681391 0.08674621 0.0866385 0.08653404 0.08645166 0.08639823 0.08640825 0.08653563
 0.08677523 0.08700864 0.08707432 0.086915 0.08664204 0.08643495 0.08637569 0.08638837 0.08633511 0.08615287
 0.08589178 0.08564326 0.08545834 0.0853304 0.08522836 0.08513508 0.08507119 0.08508941 0.0852199 0.08540174
 0.08549376 0.08539177 0.08513038 0.08484624 0.08465391 0.08457798 0.08457658 0.08459188 0.0845951 0.08461122
 0.08467932 0.08477362 0.08480612 0.0847315 0.08460908 0.08454233 0.08459568 0.08477101 0.08500446 0.08517598
 0.08518896 0.08506973 0.08494726 0.08491956 0.08497721 0.08506128 0.085145 0.08523531 0.08533317 0.08543141
 0.08554295 0.08570342 0.08593558 0.0862155 0.08647737 0.08665899 0.08675523 0.08683272 0.0869821 0.08724388
 0.08757675 0.08789553 0.08814111 0.08832053 0.0884856 0.08867344 0.08887632 0.08907737 0.08929645 0.08957022
 0.08989437 0.09022029 0.09051263 0.0907823 0.0910587 0.0913536 0.09166243 0.09198898 0.09235689 0.09278403
 0.09323604 0.09362116 0.09386128 0.09397252 0.09406202 0.09424768 0.09457721 0.09499209 0.09535483 0.09555455
 0.0956213 0.09570606 0.09591591 0.09620392 0.09646115 0.09667939 0.09695928 0.0973642 0.09782386 0.09820312
 0.09843834 0.09858581 0.09874599 0.09895524 0.09915874 0.09928918 0.09935518 0.09942849 0.0995543 0.09972024
 0.09992361 0.1002126 0.1006172 0.1010756 0.1014764 0.1017589 0.1019385 0.1020602 0.1021591 0.1022478
 0.1023121 0.1023375 0.1023507 0.1024042 0.1025034 0.1025913 0.1026281 0.1026488 0.1027184 0.1028654
 0.103084 0.1033656 0.1036867 0.1039932 0.1042502 0.1045031 0.1048353 0.1052419 0.1055968 0.1057822
 0.1058159 0.1058065 0.1058199 0.1058521 0.1059121 0.1060518 0.1063001 0.1066217 0.1069638 0.1073105
 0.1076712 0.1080391 0.1083744 0.1086201 0.1087347 0.1087256 0.1086591 0.1086346 0.1087336 0.1089762
 0.1093113 0.1096527 0.109934 0.1101275 0.1102206 0.1102092 0.1101379 0.1101127 0.110221 0.1104316
 0.1106045 0.1106054 0.1103929 0.1099978 0.10946 0.1088116 0.1081071 0.1074345 0.1068818 0.1064961
 0.1062855 0.1062627 0.1064671 0.1069203 0.1075642 0.108271 0.1089208 0.109437 0.1097467 0.1097609
 0.1094373 0.1088402 0.1081052 0.1073561 0.1066652 0.1060505 0.105481 0.1049177 0.1043957 0.1040628
 0.1041101 0.1046607 0.1057076 0.1071184 0.1086754 0.1101461 0.1113775 0.1123528 0.1131566 0.1138794
 0.1145623 0.1152218 0.1158835 0.1165561 0.1171967 0.1177473 0.1182044 0.1186171 0.1190243 0.1194195
 0.1197729 0.1200614 0.1202863 0.1204813 0.120683 0.1208746 0.1209852 0.1209691 0.120862 0.1207346
 0.1206106 0.1204517 0.1202032 0.1198402 0.1193982 0.1189941 0.1188132 0.1190316 0.1197148 0.120775
 0.1220378 0.1233538 0.1246368 0.1258103 0.1267735 0.1274577 0.1278925 0.1281835 0.1284338 0.1287008
 0.129 0.1293201 0.1296375 0.1299359 0.1302159 0.1304947 0.1307971 0.1311349 0.1314824 0.1317881
 0.1320287 0.132244 0.1325075 0.1328593 0.1332672 0.133657 0.1339876 0.1342876 0.1346015 0.1349141
 0.135166 0.1353388 0.1354869 0.1356835 0.135966 0.1363258 0.1367152 0.1370629 0.1373195 0.1374975
 0.1376533 0.1378319 0.1380429 0.138279 0.1385329 0.138793 0.1390463 0.139298 0.1395749 0.139888
 0.1401967 0.1404356 0.140583 0.140691 0.140834 0.1410404 0.1412798 0.1415071 0.1417112 0.1419253
 0.1421925 0.1425158 0.1428431 0.143107 0.1432824 0.1434016 0.1435192 0.14367 0.1438584 0.1440714
 0.1442921 0.1445062 0.1447091 0.1449082 0.1451145 0.1453309 0.145551 0.1457659 0.1459714 0.14617
 0.146368 0.1465728 0.1467931 0.1470427 0.1473314 0.1476443 0.1479367 0.1481661 0.148327 0.1484487
 0.1485645 0.1486936 0.1488455 0.1490247 0.1492271 0.1494389 0.1496463 0.1498448 0.1500406 0.1502409
 0.1504463 0.1506524 0.1508573 0.1510642 0.1512779 0.1515036 0.1517441 0.151993 0.1522337 0.1524501
 0.1526404 0.1528165 0.1529922 0.1531713 0.1533481 0.1535217 0.1537038 0.1539078 0.15413 0.1543508
 0.1545542 0.1547408 0.1549225 0.1551093 0.1553013 0.1554912 0.1556725 0.1558485 0.1560298 0.1562249
 0.1564326 0.1566433 0.1568478 0.1570466 0.1572476 0.1574553 0.1576669 0.1578779 0.1580863 0.1582892
 0.1584829 0.1586674 0.1588474 0.1590302 0.1592216 0.1594209 0.1596226 0.1598247 0.1600301 0.1602361
 0.1604344 0.1606248 0.1608194 0.1610278 0.1612469 0.1614668 0.1616819 0.1618919 0.1620997 0.1623076
 0.1625171 0.1627314 0.1629538 0.1631805 0.163403 0.1636198 0.1638368 0.1640553 0.1642658 0.1644584
 0.1646341 0.1648041 0.1649785 0.1651563 0.1653297 0.1654976 0.1656679 0.1658467 0.1660348 0.166232
 0.1664358 0.16664 0.1668403 0.1670364 0.1672281 0.1674159 0.1676048 0.1678013 0.1680062 0.1682174
 0.1684317 0.1686434 0.1688503 0.1690566 0.1692657 0.1694743 0.1696824 0.1698954 0.1701136 0.170331
 0.1705449 0.170756 0.1709624 0.1711647 0.1713664 0.1715685 0.1717705 0.1719769 0.1721908 0.1724074
 0.1726226 0.172837 0.17305 0.1732605 0.1734711 0.173682 0.1738895 0.1740941 0.1743003 0.1745084
 0.1747202 0.1749415 0.1751676 0.1753823 0.1755819 0.1757789 0.1759811 0.1761878 0.1764015 0.1766234
 0.1768478 0.1770705 0.1772873 0.1774805 0.1776059 0.1775475 0.1770141 0.1754356 0.1719605 0.1656325
 0.1557796 0.1424471 0.1265302 0.1094529 0.09264765 0.07719257 0.06371494 0.05248272 0.04354873 0.03683784
 0.03219594 0.02948113 0.02867022 0.02997074 0.03393396 0.041125 0.05089729 0.06031181 0.06528442 0.06381336
 0.05789474 0.0517017 0.048113 0.04732184 0.04808835 0.04935985 0.05080539 0.05261885 0.05513317 0.05844496
 0.06239557 0.06698036 0.07255265 0.07938056 0.08710632 0.09488943 0.1021289 0.1089393 0.1158814 0.1232966
 0.1309537 0.1382801 0.144823 0.1504859 0.1554473 0.1599548 0.1641796 0.1681949 0.1720247 0.1756538
 0.1789571 0.1816633 0.1834785 0.1843081 0.1843693 0.1840711 0.1837759 0.1836589 0.1837444 0.1840064
 0.1844208 0.1849713 0.1856449 0.1864183 0.1872496 0.1880951 0.1889318 0.1897497 0.1905339 0.1912668
 0.1919396 0.1925527 0.1931117 0.1936256 0.194103 0.1945493 0.1949681 0.1953595 0.1957201 0.1960534
 0.1963731 0.1966876 0.1969902 0.197272 0.1975319 0.1977717 0.1979931 0.1982041 0.1984141 0.1986249
 0.1988344 0.1990444 0.1992552 0.1994621 0.1996625 0.1998618 0.2000654 0.2002726 0.2004786 0.2006782
 0.2008676 0.2010485 0.2012279 0.2014126 0.2016057 0.2018081 0.2020173 0.2022267 0.2024313 0.2026311
 0.2028284 0.2030238 0.2032157 0.2034032 0.2035922 0.203796 0.2040208 0.2042534 0.2044743 0.2046819
 0.2048882 0.2050993 0.2053122 0.2055232 0.2057247 0.205903 0.2060538 0.2061957 0.2063603 0.2065656
 0.2067999 0.2070299 0.2072337 0.2074197 0.2076104 0.2078138 0.2080187 0.2082107 0.2083877 0.2085679
 0.2087775 0.2090214 0.2092785 0.2095309 0.2097792 0.210024 0.210261 0.2104947 0.2107261 0.210929
 0.2110738 0.2111796 0.2113216 0.2115718 0.2119305 0.2123181 0.212646 0.2128944 0.2131087 0.2133405
 0.2136113 0.2138944 0.2140948 0.2141148 0.2140048 0.2139906 0.2142693 0.2148097 0.2154082 0.2158963
 0.2162468 0.2165206 0.2167726 0.2169999 0.2171494 0.2171766 0.2171276 0.217161 0.217435 0.2179428
 0.2185065 0.2189604 0.2192795 0.2195139 0.2197002 0.219862 0.2199683 0.2198695 0.2194542 0.2189373
 0.2188092 0.2193619 0.2203587 0.2212871 0.2218651 0.2221876 0.2224466 0.2226965 0.2229025 0.2229757
 0.2226606 0.2216856 0.220285 0.2193415 0.219653 0.2211281 0.2229374 0.2243435 0.2251638 0.225584
 0.2258376 0.2260511 0.2261484 0.225857 0.225012 0.223963 0.2234876 0.2240762 0.2253806 0.2265874
 0.2272489 0.2275224 0.2277349 0.2280134 0.2282002 0.2278182 0.2263418 0.2239713 0.2220232 0.2220077
 0.2241535 0.2271336 0.2293815 0.2304423 0.2308486 0.2309603 0.2304275 0.2288115 0.2262434 0.2233646
 0.2211132 0.2205844 0.2223093 0.2253617 0.2278859 0.2289239 0.2292205 0.2299961 0.2314909 0.2329797
 0.2337156 0.2335043 0.2325706 0.2311509 0.2293856 0.2277041 0.227046 0.2281954 0.2308337 0.2336549
 0.2355704 0.2365329 0.2369708 0.2365167 0.2337469 0.2278901 0.2209691 0.2172474 0.2194716 0.2260029
 0.2325805 0.2365136 0.2381623 0.2389423 0.2394157 0.239135 0.2369108 0.2314668 0.2234618 0.2167534
 0.2157846 0.2211884 0.2290738 0.2346564 0.2355006 0.2317721 0.2254018 0.2195229 0.2171841 0.2194985
 0.2251574 0.2317253 0.2371042 0.240115 0.2404816 0.2387139 0.2360836 0.2343249 0.234372 0.23498
 0.2336729 0.2298676 0.225835 0.2233748 0.2210511 0.2168705 0.2126573 0.2128589 0.2187518 0.2262897
 0.2306422 0.2310939 0.2301814 0.2290876 0.2256365 0.2174325 0.2063894 0.1988395 0.2000002 0.2085553
 0.2178226 0.2222967 0.2220311 0.2206976 0.2206924 0.2206869 0.2174911 0.2102049 0.202369 0.1990067
 0.2012941 0.2055151 0.2074846 0.2058983 0.2008996 0.1927475 0.1842178 0.1814896 0.1889566 0.2038782
 0.2185111 0.2264814 0.2251469 0.2142576 0.1968673 0.1811899 0.1766135 0.1853086 0.1995966 0.2089984
 0.208563 0.1998073 0.1862449 0.1709452 0.1579284 0.152676 0.1588817 0.1746773 0.1925866 0.2032408
 0.2005945 0.1866478 0.1718679 0.1676746 0.1760468 0.1881232 0.1940951 0.1920913 0.1868534 0.1836457
 0.18521 0.191196 0.1985354 0.204352 0.2082651 0.2091524 0.2020756 0.1842166 0.1627259 0.1499965
 0.1508021 0.1598981 0.1719245 0.1861989 0.2002007 0.2062974 0.2003453 0.1895187 0.1861714 0.1947202
 0.2078753 0.2155495 0.2148389 0.210532 0.2077547 0.2065342 0.2043406 0.2019694 0.2037647 0.2116081
 0.2216187 0.2284832 0.2309894 0.2315433 0.2320968 0.2326644 0.2327031 0.2320119 0.2306553 0.229101
 0.2280798 0.2277704 0.2276321 0.2272206 0.2261773 0.223 0.215372 0.2034148 0.1917443 0.1858101
 0.1861218 0.1886423 0.1907977 0.1929787 0.1929283 0.1841568 0.1645096 0.1432079 0.1341323 0.1424065
 0.1605853 0.1771516 0.185339 0.1837208 0.1727865 0.1551556 0.1383049 0.1321988 0.141149 0.1596793
 0.1783856 0.1920308 0.2000731 0.2021495 0.1971388 0.1863998 0.1750145 0.1688592 0.1710496 0.1806025
 0.1927414 0.2000862 0.196281 0.1823457 0.1694428 0.170601 0.1870224 0.2060324 0.2153201 0.2153883
 0.2144761 0.2157654 0.2158441 0.2137423 0.2145175 0.2223485 0.2343993 0.2436133 0.2449109 0.2371994
 0.222702 0.2074398 0.1996551 0.2031695 0.212968 0.2205872 0.2222621 0.2184356 0.2087869 0.1942916
 0.1824539 0.1828008 0.1958573 0.2119093 0.2220366 0.2262371 0.2293773 0.2328031 0.2326946 0.2258447
 0.2150155 0.2072335 0.2068524 0.2117638 0.2169954 0.2199515 0.2204468 0.2177486 0.2110302 0.2027598
 0.1987345 0.2030538 0.2138633 0.2250547 0.2317 0.2331364 0.2315731 0.2292098 0.2267371 0.2234913
 0.2189329 0.2145705 0.2136636 0.2177471 0.2242027 0.2289557 0.2311361 0.2333658 0.2376264 0.2425248
 0.2449895 0.2436266 0.2400486 0.2374694 0.2381275 0.2415135 0.2447491 0.2450357 0.2423111 0.2395582
 0.24006 0.2442648 0.2497158 0.2538495 0.2560891 0.2573131 0.2583477 0.2592436 0.259236 0.257317
 0.2536586 0.250454 0.2503693 0.2539019 0.2589086 0.2628234 0.2647364 0.2652592 0.2651187 0.2643968
 0.2629365 0.2610231 0.2594117 0.2587281 0.2590151 0.259884 0.2609194 0.2618606 0.2625809 0.2630687
 0.2633904 0.2635997 0.2637159 0.2637811 0.263843 0.2638698 0.2637885 0.2636464 0.2636307 0.2638588
 0.2642189 0.2644859 0.2645243 0.2642927 0.2637249 0.2627505 0.2614317 0.2599483 0.2584023 0.2567481
 0.255026 0.2536276 0.2531849 0.2540907 0.2561273 0.2585981 0.2608089 0.2624161 0.2634112 0.2639323
 0.2641428 0.2641943 0.2641869 0.2641385 0.2640144 0.2637934 0.2634941 0.2631455 0.2627617 0.2623595
 0.2619809 0.2616701 0.261425 0.261184 0.2608672 0.2604316 0.2598984 0.2593314 0.2587808 0.2582337
 0.2576212 0.2568793 0.2560002 0.2550349 0.2540645 0.2531641 0.252364 0.2516302 0.2508934 0.2501001
 0.2492192 0.2482162 0.2470808 0.2458929 0.2448074 0.2439311 0.2432383 0.2426189 0.241973 0.2412415
 0.2403934 0.2394299 0.2383864 0.237304 0.2362013 0.2350752 0.2339094 0.2326748 0.2313415 0.2299029
 0.2283807 0.2268033 0.2251893 0.2235458 0.2218605 0.2200797 0.2181015 0.2157946 0.2130278 0.2097002
 0.205778 0.2013264 0.1965099 0.1915493 0.1866555 0.181987 0.177656 0.1737616 0.1704017 0.1676514
 0.1655487 0.1641099 0.1633537 0.1633012 0.1639578 0.1652949 0.1672392 0.1696749 0.1724584 0.1754317
 0.1784245 0.1812731 0.1838748 0.1862366 0.1884477 0.1905822 0.1926296 0.1945195 0.1961944 0.1976408
 0.1988661 0.1998771 0.2006905 0.2013457 0.2018939 0.2023738 0.2027996 0.203172 0.2034928 0.2037674
 0.2040006 0.2041987 0.2043754 0.2045497 0.2047409 0.2049636 0.2052269 0.205539 0.2059139 0.2063656
 0.2068875 0.2074517 0.208035 0.2086343 0.2092537 0.2098984 0.2105945 0.2113947 0.2123489 0.2134707
 0.2147347 0.2160935 0.2174844 0.2188261 0.2200277 0.2210189 0.2217736 0.2222982 0.2226034 0.2227036
 0.2226319 0.2224311 0.2221284 0.221734 0.2212601 0.2207248 0.2201431 0.2195262 0.2188837 0.2182183
 0.2175298 0.2168274 0.2161285 0.215442 0.214763 0.2140897 0.2134352 0.2128148 0.2122243 0.2116397
 0.2110434 0.2104428 0.2098582 0.209298 0.2087522 0.2081962 0.2075875 0.2068753 0.2060365 0.2050925
 0.204073 0.2029744 0.2017736 0.2004691 0.199086 0.1976436 0.1961377 0.1945542 0.1928899 0.1911501
 0.1893299 0.1874144 0.1854132 0.183388 0.1814278 0.179593 0.1778929 0.1763042 0.1747984 0.1733583
 0.1719811 0.1706684 0.1694177 0.1682348 0.1671378 0.1661327 0.165191 0.1642721 0.1633646 0.162499
 0.1617254 0.1610773 0.1605495 0.1601065 0.1597148 0.1593655 0.1590781 0.1588918 0.1588347 0.1588813
 0.1589535 0.1589748 0.1589167 0.1587963 0.1586541 0.1585301 0.1584431 0.1583883 0.1583535 0.1583152
 0.1582094 0.1579271 0.1573572 0.1564383 0.1551819 0.1536527 0.151929 0.1500929 0.1482562 0.1465549
 0.1450975 0.1439323 0.1430575 0.1424237 0.1419412 0.141536 0.1412044 0.1410013 0.1409833 0.1411477
 0.1413915 0.1415584 0.1415833 0.141578 0.1417341 0.1421593 0.1428183 0.1435843 0.1443256 0.1449695
 0.145496 0.1458873 0.1461276 0.146243 0.1462813 0.1462559 0.1461547 0.1459805 0.1457439 0.1454473
 0.1450975 0.1446988 0.1442356 0.1436895 0.1430521 0.1423121 0.1414677 0.1405401 0.1395208 0.1383607
 0.1370955 0.13594 0.135184 0.1350124 0.1354221 0.136243 0.1372524 0.1383154 0.1393582 0.1401915
 0.1405616 0.1405351 0.1406949 0.1417262 0.1437654 0.1462477 0.1484077 0.1498383 0.1505445 0.1506435
 0.1502044 0.1492788 0.1478734 0.1459255 0.1434335 0.1405345 0.1373987 0.1341863 0.1311154 0.1283942
 0.1261075 0.1242632 0.1228536 0.1219023 0.1215194 0.1213231 0.1194141 0.1133643 0.103991 0.09702821
 0.09829158 0.1071211 0.1168475 0.1218271 0.1219274 0.1201865 0.1186994 0.1177678 0.1172536 0.1172872
 0.118014 0.1193059 0.1207636 0.1219628 0.1227316 0.1231191 0.1230922 0.1222879 0.1199626 0.1152533
 0.1078679 0.09868179 0.08944079 0.08174729 0.0763432 0.07312603 0.07149482 0.07070231 0.07021438 0.06995204
 0.07019698 0.07124075 0.0731356 0.07574877 0.07891424 0.08239183 0.08576005 0.08858845 0.09076747 0.09250554
 0.09396978 0.09507956 0.09567271 0.09572072 0.09533462 0.09466912 0.09387199 0.0930452 0.09217763 0.09115721
 0.0899512 0.08877074 0.08794007 0.08757642 0.08750641 0.08750565 0.08749048 0.08746581 0.08742616 0.08735257
 0.08724427 0.08715561 0.08721362 0.08752451 0.08803566 0.08855444 0.08891477 0.08908859 0.08914913 0.0891283
 0.08889669 0.08828473 0.08739854 0.0866257 0.0861388 0.08558846 0.08456655 0.08324526 0.08226284 0.08202123
 0.08232775 0.08270264 0.08282045 0.08263955 0.08233328 0.08221465 0.08254631 0.08322541 0.08375293 0.08370429
</values></Ydata></ScRf><Data_Parameters_AB><parameter name="DPF">1</parameter><parameter name="NPT">3497</parameter><parameter name="FXV">3996</parameter><parameter name="LXV">500</parameter><parameter name="CSF">1</parameter><parameter name="MXY">0.136309742927551</parameter><parameter name="MNY">-0.0546518042683601</parameter><parameter name="DAT">01/06/2022</parameter><parameter name="TIM">11:20:19.229 (GMT+2)</parameter><parameter name="DXU">WN</parameter></Data_Parameters_AB><AB__Qtest><MainReport name="Quality Test Report"><Header><Line><Legend>Test result ok/not ok [1/0]: </Legend><Value>0</Value></Line><Line><Legend>Method file: </Legend><Value>C:\Users\Public\Documents\Bruker\OPUS_8.2.28\QT\IRBT_v3_default.QT</Value></Line></Header><Matrix><Line><Legend></Legend><Legend>min</Legend><Legend>max</Legend><Legend>measured</Legend></Line><Line><Value>Absorption (X-Range 1):</Value><Value>0.400000</Value><Value>2.000000</Value><Value>0.142449</Value></Line><Line><Value>Noise (X-Range 4):</Value><Value></Value><Value>0.000300</Value><Value>0.000045</Value></Line><Line><Value>Signal/Noise (X-Range 2):</Value><Value>200.000000</Value><Value></Value><Value>71.610611</Value></Line><Line><Value>Signal/Noise (X-Range 3):</Value><Value>40.000000</Value><Value></Value><Value>45.097829</Value></Line><Line><Value>Water vapour (X-Range 5):</Value><Value></Value><Value>0.000300</Value><Value>0.000058</Value></Line><Line><Value>Signal/Water (X-Range 2):</Value><Value>100.000000</Value><Value></Value><Value>55.339616</Value></Line><Line><Value>Signal/Water (X-Range 3):</Value><Value>20.000000</Value><Value></Value><Value>34.850932</Value></Line><Line><Value>Fringes (X-Range 6):</Value><Value></Value><Value>0.000100</Value><Value>0.000071</Value></Line></Matrix></MainReport></AB__Qtest><Data_Parameters_ScSm><parameter name="DPF">1</parameter><parameter name="NPT">1814</parameter><parameter name="FXV">3996.33169228125</parameter><parameter name="LXV">499.541461535156</parameter><parameter name="CSF">1</parameter><parameter name="MXY">0.268635332584381</parameter><parameter name="MNY">0.032503217458725</parameter><parameter name="DAT">01/06/2022</parameter><parameter name="TIM">11:20:19.229 (GMT+2)</parameter><parameter name="DXU">WN</parameter></Data_Parameters_ScSm><Data_Parameters_ScRf><parameter name="DPF">1</parameter><parameter name="NPT">1820</parameter><parameter name="FXV">4004.04661832813</parameter><parameter name="LXV">495.683998511719</parameter><parameter name="CSF">1</parameter><parameter name="MXY">0.265259206295013</parameter><parameter name="MNY">0.0286702178418636</parameter><parameter name="DAT">01/06/2022</parameter><parameter name="TIM">11:19:53.992 (GMT+2)</parameter><parameter name="DXU">WN</parameter></Data_Parameters_ScRf><Optic_Parameters_Rf><parameter name="APR">0</parameter><parameter name="APT">Open</parameter><parameter name="BMS">KBr</parameter><parameter name="DTC">RT-DLaTGS_IR-Biotyper [Microplate reader]</parameter><parameter name="HPF">0</parameter><parameter name="LPF">10.0</parameter><parameter name="LPV">4000</parameter><parameter name="PGR">0</parameter><parameter name="RCH">Module port</parameter><parameter name="RDX">0</parameter><parameter name="SRC">MIR</parameter><parameter name="VEL">10.0</parameter><parameter name="SON">Off</parameter></Optic_Parameters_Rf><Acquisition_Parameters_Rf><parameter name="ADT">1</parameter><parameter name="AQM">DD</parameter><parameter name="CFE">0</parameter><parameter name="COR">0</parameter><parameter name="DEL">0</parameter><parameter name="DLY">0</parameter><parameter name="HFW">8000</parameter><parameter name="LFW">0</parameter><parameter name="NSR">32</parameter><parameter name="PLF">AB</parameter><parameter name="RES">6</parameter><parameter name="RGN">-1</parameter><parameter name="STR">0</parameter><parameter name="TCL">MakeCompatibleScalar (0, {WSV=1.000000, ARV=0});</parameter><parameter name="TDL">37</parameter><parameter name="RPO">0</parameter></Acquisition_Parameters_Rf><FT_-_Parameters_Rf><parameter name="APF">B3</parameter><parameter name="HFQ">500</parameter><parameter name="LFQ">4000</parameter><parameter name="NLI">0</parameter><parameter name="PHR">24</parameter><parameter name="PHZ">ML</parameter><parameter name="SPZ">NO</parameter><parameter name="ZFF">1</parameter></FT_-_Parameters_Rf><Optic_Parameters_><parameter name="APR">0</parameter><parameter name="APT">Open</parameter><parameter name="BMS">KBr</parameter><parameter name="CHN">Module port</parameter><parameter name="DTC">RT-DLaTGS_IR-Biotyper [Microplate reader]</parameter><parameter name="HPF">0</parameter><parameter name="LPF">10.0</parameter><parameter name="LPV">4000</parameter><parameter name="PGN">0</parameter><parameter name="RDX">0</parameter><parameter name="SRC">MIR</parameter><parameter name="VEL">10.0</parameter><parameter name="SON">Off</parameter></Optic_Parameters_><FT_-_Parameters_><parameter name="APF">B3</parameter><parameter name="HFQ">500</parameter><parameter name="LFQ">4000</parameter><parameter name="NLI">0</parameter><parameter name="PHR">24</parameter><parameter name="PHZ">ML</parameter><parameter name="SPZ">NO</parameter><parameter name="ZFF">1</parameter></FT_-_Parameters_><Acquisition_Parameters_><parameter name="ADT">1</parameter><parameter name="AQM">DD</parameter><parameter name="CFE">0</parameter><parameter name="COR">0</parameter><parameter name="DEL">0</parameter><parameter name="DLY">0</parameter><parameter name="HFW">8000</parameter><parameter name="LFW">0</parameter><parameter name="NSS">32</parameter><parameter name="PLF">AB</parameter><parameter name="RES">6</parameter><parameter name="SOT">0</parameter><parameter name="TCL">MakeCompatibleScalar (0, {WSV=1.000000, ARV=0});</parameter><parameter name="TDL">37</parameter><parameter name="SPO">0</parameter><parameter name="SGN">-1</parameter></Acquisition_Parameters_><Instrument_Parameters_Rf><parameter name="HFL">15800.168544</parameter><parameter name="LFL">0</parameter><parameter name="LWN">15800.168544</parameter><parameter name="ABP">32197</parameter><parameter name="SSP">1</parameter><parameter name="ARG">2</parameter><parameter name="ASG">2</parameter><parameter name="ASS">32</parameter><parameter name="GFW">16</parameter><parameter name="GBW">16</parameter><parameter name="BFW">0</parameter><parameter name="BBW">0</parameter><parameter name="PKA">7310</parameter><parameter name="PKL">4990</parameter><parameter name="PRA">7481</parameter><parameter name="PRL">5001</parameter><parameter name="P2A">1</parameter><parameter name="P2L">1</parameter><parameter name="P2R">1</parameter><parameter name="P2K">1</parameter><parameter name="DAQ">0</parameter><parameter name="AG2">1</parameter><parameter name="SSM">1</parameter><parameter name="RSN">25881</parameter><parameter name="CRR">0</parameter><parameter name="SRT">1654082393.992</parameter><parameter name="DUR">19.6389923095703</parameter><parameter name="TSC">29</parameter><parameter name="MVD">0.214656621217728</parameter><parameter name="AN1">0.225817524917275</parameter><parameter name="AN2">0</parameter><parameter name="VSN">2.485 Apr  4 2017</parameter><parameter name="SRN">0085</parameter><parameter name="CAM">0</parameter><parameter name="INS">IR-Biotyper</parameter><parameter name="FOC">69</parameter><parameter name="RDY">1</parameter><parameter name="ARS">32</parameter></Instrument_Parameters_Rf><Sample_Parameters_><parameter name="BLD"></parameter><parameter name="CNM">Admin</parameter><parameter name="CPY"></parameter><parameter name="DPM"></parameter><parameter name="EXP">IRBT_v3_32Scans.XPM</parameter><parameter name="LCT"></parameter><parameter name="SFM">Microplate, HTS-XT</parameter><parameter name="SNM">220601-1028(v.3)_RTF49M (D_10)_G3_bd519b19-4011-4167-b13a-afc9f41092b5.0</parameter><parameter name="XPP">C:\Users\Public\Documents\Bruker\OPUS_8.2.28\XPM</parameter><parameter name="IST">OK</parameter><parameter name="CPG">1252</parameter><parameter name="UID">70f86656-7e94-47f1-b522-acdf3e44df1e</parameter></Sample_Parameters_><Instrument_Parameters_><parameter name="HFL">15800.168544</parameter><parameter name="LFL">0</parameter><parameter name="LWN">15800.168544</parameter><parameter name="ABP">32197</parameter><parameter name="SSP">1</parameter><parameter name="ASG">2</parameter><parameter name="ARG">2</parameter><parameter name="ASS">32</parameter><parameter name="GFW">16</parameter><parameter name="GBW">16</parameter><parameter name="BFW">0</parameter><parameter name="BBW">0</parameter><parameter name="PKA">7420</parameter><parameter name="PKL">4988</parameter><parameter name="PRA">7662</parameter><parameter name="PRL">4993</parameter><parameter name="P2A">1</parameter><parameter name="P2L">1</parameter><parameter name="P2R">1</parameter><parameter name="P2K">1</parameter><parameter name="DAQ">0</parameter><parameter name="AG2">1</parameter><parameter name="SSM">1</parameter><parameter name="RSN">13566</parameter><parameter name="CRR">0</parameter><parameter name="SRT">1654082419.229</parameter><parameter name="DUR">19.6389923095703</parameter><parameter name="TSC">29</parameter><parameter name="MVD">0.201889395713806</parameter><parameter name="AN1">0.225817231541975</parameter><parameter name="AN2">0</parameter><parameter name="VSN">2.485 Apr  4 2017</parameter><parameter name="SRN">0085</parameter><parameter name="CAM">0</parameter><parameter name="INS">IR-Biotyper</parameter><parameter name="FOC">69</parameter><parameter name="RDY">1</parameter></Instrument_Parameters_><History/></OPUSDataFile>
