<?xml version="1.0" encoding="UTF-8" ?>
<OPUSDataFile><AB><Ydata ylabel="Absorbance Units"><values byteorder="INTEL" format="FLOAT32" numvalues="3497"> -0.07115375 -0.07111671 -0.07106935 -0.07101114 -0.07095019 -0.0708869 -0.07082704 -0.07077131 -0.07072974 -0.07070336
 -0.07070507 -0.07073246 -0.0707866 -0.07085892 -0.07093064 -0.07099418 -0.07102602 -0.07103129 -0.0710035 -0.07095911
 -0.0709091 -0.0708638 -0.07083438 -0.07081452 -0.07080486 -0.07079659 -0.07078569 -0.07077789 -0.07077279 -0.07078187
 -0.070807 -0.07084391 -0.07089243 -0.07093205 -0.07096236 -0.07097153 -0.07096261 -0.0709476 -0.0709297 -0.0709285
 -0.07094049 -0.07096884 -0.07100496 -0.07103526 -0.07105675 -0.07105791 -0.07104757 -0.07102802 -0.07100991 -0.07100179
 -0.07100154 -0.07101248 -0.07102101 -0.07102401 -0.07101358 -0.07098651 -0.07095084 -0.07090652 -0.07086866 -0.07083813
 -0.07082137 -0.07081772 -0.07081985 -0.07082669 -0.07082727 -0.07082314 -0.07081361 -0.07080172 -0.07079501 -0.0707938
 -0.07080259 -0.07081895 -0.07084174 -0.07086908 -0.07089961 -0.07093041 -0.07096124 -0.07098373 -0.0709953 -0.07098755
 -0.07095639 -0.07090549 -0.07083307 -0.07075664 -0.07067696 -0.07061782 -0.07058059 -0.07058742 -0.07063826 -0.07074035
 -0.07088784 -0.07105175 -0.07122099 -0.0713356 -0.07139835 -0.07137913 -0.0713025 -0.07119654 -0.07107864 -0.07098398
 -0.07090785 -0.0708595 -0.07082577 -0.07080063 -0.07077913 -0.07075609 -0.07073864 -0.07072733 -0.07072994 -0.07074896
 -0.07078068 -0.07082592 -0.07086791 -0.07090575 -0.07092157 -0.07091567 -0.07088781 -0.07084158 -0.07079896 -0.07076335
 -0.07076065 -0.07078824 -0.07085618 -0.07095182 -0.07106053 -0.07116668 -0.07124412 -0.07129043 -0.07129177 -0.07126123
 -0.07120015 -0.07112778 -0.07105 -0.07098688 -0.0709442 -0.07093611 -0.07096656 -0.07103838 -0.071154 -0.07129256
 -0.07145336 -0.0715712 -0.07164375 -0.07161831 -0.07150601 -0.07135325 -0.0711702 -0.07102174 -0.07090452 -0.07084309
 -0.07082948 -0.07086504 -0.07093226 -0.07101562 -0.07108828 -0.07112019 -0.07110555 -0.07102198 -0.07091312 -0.07078743
 -0.07069306 -0.0706505 -0.0706526 -0.07070513 -0.07076577 -0.07083034 -0.07087387 -0.07089443 -0.0708997 -0.07089063
 -0.07088413 -0.07087938 -0.07088007 -0.07088304 -0.07087816 -0.0708635 -0.07082788 -0.07077409 -0.0707003 -0.070614
 -0.07052261 -0.07043403 -0.07035722 -0.0702965 -0.07025652 -0.07023957 -0.07024767 -0.07028138 -0.0703431 -0.07042289
 -0.07052191 -0.07061374 -0.07069628 -0.07074331 -0.07075291 -0.07072481 -0.07066028 -0.07058132 -0.0704884 -0.07039577
 -0.07030126 -0.07020267 -0.07010128 -0.06999713 -0.06989737 -0.06981449 -0.06975356 -0.0697291 -0.06973244 -0.06976517
 -0.06980599 -0.06984308 -0.06986234 -0.06985201 -0.06982097 -0.06976701 -0.06971201 -0.0696599 -0.0696222 -0.06960137
 -0.06959312 -0.06959734 -0.06960758 -0.06962366 -0.06964292 -0.06966479 -0.06968429 -0.06970044 -0.06970534 -0.06970172
 -0.06969102 -0.06967981 -0.06968157 -0.06969722 -0.06973655 -0.06978845 -0.06984753 -0.06990264 -0.06994197 -0.0699737
 -0.06999557 -0.07002803 -0.07007812 -0.07014959 -0.07024827 -0.07034416 -0.07043645 -0.07047975 -0.0704711 -0.07038072
 -0.07020978 -0.06997449 -0.06968392 -0.06940878 -0.06915555 -0.06899107 -0.06890774 -0.06892556 -0.06902052 -0.06916589
 -0.06932481 -0.06943554 -0.06949196 -0.06945617 -0.06937188 -0.06925356 -0.0691383 -0.06904864 -0.06898664 -0.06896029
 -0.06894827 -0.06894867 -0.0689398 -0.06891817 -0.06888057 -0.06882634 -0.0687677 -0.06870548 -0.06865551 -0.06861784
 -0.06860236 -0.06860477 -0.06861587 -0.06862567 -0.06859964 -0.0685402 -0.06842878 -0.06829026 -0.06814995 -0.06802226
 -0.06793542 -0.06787153 -0.06783281 -0.06778409 -0.06770891 -0.06759523 -0.06743015 -0.06724483 -0.06704147 -0.06685584
 -0.06669427 -0.0665554 -0.06644018 -0.06631296 -0.06617264 -0.06599593 -0.06578857 -0.06558225 -0.06538176 -0.06522735
 -0.06511096 -0.06503132 -0.06497995 -0.0649408 -0.06490897 -0.06487545 -0.0648272 -0.06475264 -0.06463381 -0.06445197
 -0.0642146 -0.06391528 -0.0635854 -0.06323446 -0.06287354 -0.06250757 -0.06213019 -0.06174058 -0.061341 -0.06093146
 -0.06051798 -0.06010095 -0.05968637 -0.05927596 -0.05888537 -0.05851649 -0.05818815 -0.0578957 -0.05763878 -0.05740643
 -0.05717896 -0.05694688 -0.05669179 -0.05640376 -0.05606801 -0.05567875 -0.05522053 -0.05472074 -0.05418255 -0.05364745
 -0.05313238 -0.05263877 -0.05217189 -0.05171067 -0.05125266 -0.05078871 -0.05031762 -0.04985046 -0.04938843 -0.0489562
 -0.04855405 -0.04819969 -0.04788494 -0.04759023 -0.04729646 -0.04693721 -0.04651076 -0.04596903 -0.04535595 -0.04470972
 -0.0440635 -0.04346962 -0.04291403 -0.04240613 -0.04191697 -0.04143576 -0.0409453 -0.04043608 -0.03991257 -0.0393729
 -0.03883167 -0.03829125 -0.03775284 -0.03721721 -0.03666371 -0.03609148 -0.03548309 -0.03484153 -0.03418138 -0.03350737
 -0.03284888 -0.03220503 -0.03158912 -0.03099659 -0.03042585 -0.02987083 -0.02932409 -0.02877811 -0.02822211 -0.02765643
 -0.02707546 -0.02649133 -0.0259102 -0.02533127 -0.02475969 -0.02417079 -0.02355953 -0.02291503 -0.0222318 -0.02154507
 -0.02085664 -0.02020359 -0.01958619 -0.0189989 -0.01843864 -0.01787836 -0.01731715 -0.01673584 -0.01613783 -0.01552098
 -0.01489306 -0.01426805 -0.01365094 -0.01305865 -0.0124793 -0.01191377 -0.01133236 -0.01071555 -0.01004729 -0.009306909
 -0.008526526 -0.007706406 -0.006899072 -0.006116289 -0.005381957 -0.004702655 -0.004066194 -0.003472869 -0.002889715 -0.002315166
 -0.001720811 -0.001107348 -0.0004675789 0.0001964135 0.0008792313 0.001580057 0.002295271 0.003021665 0.00375326 0.004482667
 0.005197115 0.005893062 0.006560411 0.007205967 0.007829475 0.008443044 0.009051952 0.009664014 0.01028427 0.01090807
 0.01153658 0.01215615 0.01276448 0.01335957 0.0139405 0.01452535 0.01511492 0.01572459 0.01635282 0.01699312
 0.01764384 0.01829314 0.01894284 0.01959278 0.02024343 0.02089701 0.02154985 0.02219782 0.02283818 0.02346619
 0.02408278 0.02468624 0.02528127 0.025868 0.02645639 0.02704924 0.02765433 0.02827515 0.02890587 0.02954685
 0.030186 0.03082235 0.03145121 0.0320724 0.03268395 0.03328541 0.03387095 0.03444136 0.03499635 0.03553844
 0.03607554 0.03660768 0.03713919 0.03766777 0.03819133 0.03871014 0.03922325 0.03973279 0.04023955 0.04074616
 0.04125309 0.04176572 0.04228647 0.04281571 0.04335608 0.04389235 0.04442315 0.04493406 0.04542319 0.04590042
 0.04636651 0.04684198 0.04732558 0.04781588 0.04830867 0.04878208 0.04923686 0.04966129 0.05006425 0.05045727
 0.05084905 0.0512593 0.05168445 0.0521318 0.05258453 0.05303366 0.05346704 0.05387307 0.05426178 0.05463177
 0.05500319 0.05538126 0.05577106 0.05617539 0.05658064 0.05698622 0.05737559 0.05774817 0.0580977 0.05842591
 0.05874427 0.059057 0.0593912 0.05974712 0.06014339 0.06056918 0.06101353 0.06146187 0.06188711 0.06228647
 0.0626445 0.0629724 0.06327221 0.06355651 0.06383251 0.06410414 0.06437537 0.06464067 0.06489998 0.06514552
 0.06537546 0.06559218 0.06579509 0.06600133 0.06621183 0.06644631 0.06670456 0.06699368 0.06731073 0.06764671
 0.06799626 0.06833899 0.06867061 0.06897029 0.06924281 0.06948299 0.06970569 0.06992428 0.07014767 0.07039079
 0.07063983 0.07089507 0.07113209 0.07134081 0.07151694 0.07165396 0.07177734 0.07188897 0.07201564 0.07216071
 0.07231724 0.07248424 0.07262424 0.0727366 0.07279766 0.072814 0.07280372 0.07277627 0.07277153 0.07279059
 0.07285789 0.07296247 0.07310135 0.07325749 0.07341336 0.07355607 0.07366835 0.07375552 0.07381043 0.07386184
 0.07391597 0.07400133 0.07412913 0.07429083 0.07449088 0.07468009 0.07485533 0.07497001 0.07502252 0.07500953
 0.0749345 0.07482979 0.07469741 0.07456455 0.07442901 0.07429569 0.07416745 0.07404954 0.07395278 0.07389794
 0.07388411 0.07392561 0.07399436 0.0740787 0.07414553 0.0741714 0.07415638 0.07408953 0.07400608 0.07391035
 0.07383802 0.07379658 0.0737901 0.07382113 0.07385703 0.0738958 0.07388741 0.07383095 0.07369507 0.07348731
 0.07322457 0.07292309 0.07264213 0.07239303 0.07223371 0.0721529 0.07216685 0.07223875 0.07234083 0.07243383
 0.07247739 0.07246491 0.07237476 0.07224361 0.07207464 0.07191756 0.07178406 0.07170386 0.07168365 0.07173013
 0.07184479 0.07202411 0.07226761 0.07255773 0.07289033 0.0732195 0.07353697 0.07377524 0.07393128 0.07395321
 0.07385879 0.07365122 0.07337227 0.0730814 0.07281884 0.07265561 0.07258808 0.07264957 0.07277773 0.07295969
 0.07311198 0.07320247 0.07318722 0.07304316 0.07279781 0.07244641 0.07206576 0.07166151 0.07129797 0.07097794
 0.07070994 0.07049137 0.07029635 0.07012583 0.06997001 0.06983592 0.06974328 0.0696925 0.06970056 0.06974807
 0.06982026 0.06988075 0.06988781 0.06981222 0.06961351 0.06930124 0.06885933 0.06834342 0.06776348 0.06718508
 0.06662598 0.06611844 0.06567149 0.06528299 0.06495415 0.06467041 0.06443086 0.06421077 0.06400797 0.06378861
 0.06355461 0.06329516 0.06302032 0.06275943 0.06251516 0.06231532 0.06213826 0.06196645 0.06177206 0.06151244
 0.06119227 0.06079084 0.06035555 0.05989905 0.05947885 0.05911985 0.05884497 0.05867191 0.05856066 0.05851426
 0.05844297 0.05833976 0.05812944 0.05780859 0.05738357 0.05686121 0.0563199 0.05576513 0.05527032 0.05482791
 0.05445356 0.05413318 0.05384302 0.05357431 0.05330319 0.05302649 0.05273207 0.05241971 0.05208387 0.05173144
 0.05136192 0.05099101 0.05062332 0.05027283 0.04994526 0.0496388 0.0493559 0.04907676 0.04880026 0.04850408
 0.04818711 0.04784361 0.047475 0.04709546 0.04670712 0.04632974 0.04596253 0.04561426 0.04528081 0.04495775
 0.04464063 0.04432065 0.04399519 0.04365798 0.0433084 0.04294334 0.04256555 0.04217422 0.04177727 0.0413766
 0.04098089 0.04059323 0.04021461 0.03984629 0.03948197 0.03912115 0.03875953 0.03839687 0.03803465 0.03767293
 0.0373132 0.03695498 0.03659622 0.03623645 0.03587296 0.03550569 0.035133 0.03475551 0.03437305 0.03398748
 0.03360007 0.03321441 0.0328321 0.03246061 0.03210137 0.03177035 0.03147314 0.03122223 0.03102687 0.03086333
 0.03073514 0.03057346 0.03037302 0.03007123 0.0296648 0.02916155 0.02856782 0.02796238 0.02735329 0.02682947
 0.02638704 0.02606658 0.02584463 0.02569436 0.02557906 0.02542769 0.02521981 0.02489446 0.02448124 0.02397249
 0.02343388 0.02290021 0.02240579 0.02197961 0.02159311 0.02124532 0.02090472 0.02056019 0.02024263 0.01995165
 0.01975088 0.01964367 0.0196399 0.0197331 0.01984615 0.01996733 0.01998619 0.01990399 0.01965826 0.01927561
 0.01878037 0.01821205 0.01764867 0.01710427 0.01663493 0.01620829 0.01581962 0.01543186 0.01501381 0.01458305
 0.01413189 0.01371293 0.01334304 0.01302713 0.01277482 0.01252889 0.01228417 0.01200605 0.01169241 0.01138367
 0.01108322 0.01084931 0.01067688 0.0105677 0.01050929 0.01045647 0.01040549 0.01032216 0.01021607 0.01008781
 0.00994636 0.009806646 0.009660078 0.009511113 0.009329964 0.009103873 0.008804462 0.008411982 0.007940057 0.007378418
 0.006798949 0.006207527 0.00568987 0.005257178 0.004933866 0.004722004 0.004555353 0.004427811 0.004238522 0.003989237
 0.003633447 0.003189763 0.002697726 0.002178468 0.001705812 0.001280313 0.0009416133 0.0006665427 0.0004463958 0.0002532669
 6.141988E-05 -0.0001434734 -0.0003791169 -0.0006386943 -0.0009277202 -0.001219265 -0.001509058 -0.001768979 -0.001990636 -0.002181483
 -0.00233845 -0.002513694 -0.002710033 -0.002970841 -0.003293861 -0.003657079 -0.004052504 -0.00441584 -0.004750628 -0.005030198
 -0.00527496 -0.00552249 -0.005784543 -0.006105855 -0.006466402 -0.00686527 -0.007268106 -0.007643929 -0.007981151 -0.008260392
 -0.008497744 -0.008695169 -0.008866033 -0.009016607 -0.009140148 -0.00923648 -0.009297959 -0.009322021 -0.009327504 -0.009315155
 -0.009331799 -0.009379898 -0.009505782 -0.00970657 -0.00999177 -0.01034886 -0.01073971 -0.01114828 -0.01151576 -0.01183557
 -0.01206726 -0.01221968 -0.01228498 -0.01228074 -0.01221745 -0.01211161 -0.0119747 -0.01181762 -0.01164613 -0.01146925
 -0.01128933 -0.01111694 -0.01095462 -0.01080643 -0.01067488 -0.010538 -0.01039492 -0.01019409 -0.009933305 -0.009568399
 -0.009104562 -0.008549213 -0.007915882 -0.007259167 -0.006587955 -0.005953758 -0.005352748 -0.004802336 -0.004293797 -0.003823216
 -0.003384475 -0.00297334 -0.002579319 -0.002198979 -0.001812187 -0.001410388 -0.000980887 -0.0005141825 -2.932562E-05 0.0004765136
 0.0009521933 0.001393758 0.001750692 0.002019509 0.002187185 0.002255642 0.002254396 0.002186584 0.002088369 0.001957507
 0.001803305 0.001624716 0.001418013 0.001197551 0.0009822956 0.0007950914 0.0006747114 0.0006230034 0.0006615274 0.0007620979
 0.0009157479 0.001096116 0.001287087 0.001490745 0.001702997 0.001938475 0.00220017 0.002490381 0.002810247 0.003152919
 0.003518125 0.003895834 0.0042847 0.004661884 0.005025787 0.005350112 0.005642409 0.005911595 0.006179103 0.006503482
 0.006900129 0.007434224 0.008078123 0.008847122 0.009643263 0.01041614 0.01100791 0.01132659 0.01122849 0.01062156
 0.009492978 0.007791262 0.005696901 0.003211432 0.0006341067 -0.002006735 -0.004459129 -0.006704584 -0.00865562 -0.01031547
 -0.01173907 -0.01293562 -0.01399336 -0.01491303 -0.01574229 -0.01648033 -0.0171446 -0.01774514 -0.01830537 -0.01883869
 -0.01937408 -0.01990879 -0.02045501 -0.02099103 -0.02150897 -0.02198752 -0.02241479 -0.02278569 -0.02309492 -0.02335115
 -0.02355454 -0.02371659 -0.02383888 -0.02392524 -0.02397616 -0.02398311 -0.02394617 -0.02386284 -0.02373856 -0.02360643
 -0.02347824 -0.02341972 -0.02343559 -0.02357762 -0.02382901 -0.02418981 -0.02462649 -0.02510002 -0.02557923 -0.02602348
 -0.02641921 -0.02674503 -0.02700662 -0.02720082 -0.02733823 -0.02742537 -0.02744777 -0.02740959 -0.027256 -0.02698115
 -0.02654278 -0.0259355 -0.02524152 -0.02447438 -0.02388419 -0.02349123 -0.02357423 -0.0241109 -0.02518492 -0.02670936
 -0.02851114 -0.03049397 -0.03239611 -0.03419118 -0.03572546 -0.03705458 -0.03816878 -0.03914333 -0.04002484 -0.04084646
 -0.04163721 -0.04238874 -0.04310464 -0.04377082 -0.04438385 -0.04494389 -0.04544967 -0.0459132 -0.04633504 -0.0467302
 -0.04709928 -0.04745256 -0.0477898 -0.04811422 -0.0484254 -0.04872361 -0.04900842 -0.04927935 -0.04953502 -0.04977204
 -0.04999122 -0.05018925 -0.0503763 -0.05055711 -0.05074938 -0.05096648 -0.05121443 -0.05150492 -0.05181296 -0.05213877
 -0.05243634 -0.05269642 -0.05289325 -0.05301933 -0.05310107 -0.05313892 -0.05319032 -0.05325701 -0.05337014 -0.05352506
 -0.05370191 -0.05389575 -0.0540723 -0.05423735 -0.0543873 -0.05453371 -0.05469896 -0.05488354 -0.055101 -0.05533728
 -0.05558594 -0.05583129 -0.05606144 -0.05626895 -0.05644703 -0.05659679 -0.05671508 -0.05681508 -0.05689633 -0.05698579
 -0.05708637 -0.05721935 -0.05738691 -0.05758056 -0.0577989 -0.05801162 -0.05821804 -0.05839802 -0.05855495 -0.05869261
 -0.05881399 -0.05893013 -0.05903975 -0.05914566 -0.05924573 -0.0593374 -0.0594219 -0.05949924 -0.05957135 -0.05964025
 -0.05970417 -0.05976275 -0.05981469 -0.0598574 -0.05990127 -0.05994611 -0.06001207 -0.06010199 -0.06022478 -0.06038186
 -0.06055592 -0.06074562 -0.06092221 -0.06108595 -0.0612247 -0.06134236 -0.06144923 -0.0615484 -0.06165491 -0.06176675
 -0.06188847 -0.06201388 -0.06213721 -0.06225223 -0.06235018 -0.06243118 -0.06249033 -0.06253805 -0.06257549 -0.06261954
 -0.06267501 -0.06275445 -0.06286184 -0.06299865 -0.06316647 -0.06335478 -0.06356331 -0.06377216 -0.06398027 -0.06416705
 -0.06433279 -0.0644691 -0.06457922 -0.06467211 -0.06475176 -0.06483439 -0.0649207 -0.06502063 -0.0651307 -0.06525066
 -0.06537636 -0.06550345 -0.06563049 -0.06575497 -0.06587786 -0.06599919 -0.06611915 -0.0662379 -0.06635481 -0.0664695
 -0.06658332 -0.0666962 -0.06681153 -0.06692962 -0.06705078 -0.06717476 -0.06729516 -0.06741101 -0.06751147 -0.06759641
 -0.0676584 -0.06770044 -0.06772568 -0.06774049 -0.06775799 -0.06778398 -0.06783259 -0.06790387 -0.06800412 -0.06812746
 -0.0682729 -0.06843226 -0.0686022 -0.06877565 -0.06894995 -0.06912081 -0.06928675 -0.06944703 -0.06960139 -0.06975003
 -0.06989302 -0.07002859 -0.07015661 -0.07027466 -0.07038286 -0.07048102 -0.07056955 -0.07064989 -0.07072277 -0.07079048
 -0.07085472 -0.07091947 -0.07098721 -0.07106316 -0.07114823 -0.07124557 -0.0713537 -0.07147337 -0.07160015 -0.07173348
 -0.07186493 -0.07199243 -0.07210736 -0.07220665 -0.07229176 -0.07236148 -0.07242855 -0.07249377 -0.07256776 -0.07265073
 -0.07274162 -0.07283983 -0.0729394 -0.07304072 -0.0731426 -0.07324546 -0.07335069 -0.07345676 -0.07356137 -0.07366292
 -0.07375711 -0.07384646 -0.07393023 -0.074016 -0.07410835 -0.074213 -0.07433569 -0.07447053 -0.07461905 -0.07476496
 -0.07490521 -0.07502851 -0.07513174 -0.07522172 -0.07529833 -0.07537845 -0.07546267 -0.07555848 -0.07566459 -0.07577277
 -0.07588152 -0.07597881 -0.076066 -0.07614017 -0.07620511 -0.07626696 -0.07632878 -0.0763979 -0.07647443 -0.07656194
 -0.07665706 -0.07675933 -0.0768635 -0.07696735 -0.07706632 -0.07715824 -0.0772422 -0.07731725 -0.07738627 -0.07744932
 -0.07751089 -0.07757137 -0.07763328 -0.07769668 -0.07776123 -0.07782693 -0.07789345 -0.0779615 -0.07803424 -0.07811253
 -0.07820125 -0.07829932 -0.07840787 -0.07852306 -0.07864027 -0.07875583 -0.0788642 -0.07896444 -0.07905393 -0.07913401
 -0.07920436 -0.07926743 -0.07932337 -0.07937662 -0.07942785 -0.07948186 -0.07953964 -0.07960176 -0.07966846 -0.07973675
 -0.0798065 -0.07987617 -0.07994593 -0.08001717 -0.08008957 -0.08016253 -0.08023509 -0.08030352 -0.0803682 -0.08042737
 -0.08048362 -0.08053993 -0.08059812 -0.08066189 -0.08072938 -0.08080083 -0.08087295 -0.08094371 -0.08101326 -0.08108065
 -0.08114944 -0.08122051 -0.08129461 -0.08137248 -0.08144912 -0.08152421 -0.08159356 -0.08165711 -0.08171739 -0.08177501
 -0.08183683 -0.08190263 -0.08197522 -0.08205301 -0.08213237 -0.0822126 -0.0822897 -0.0823658 -0.08244193 -0.0825209
 -0.08260687 -0.08269849 -0.08279742 -0.08289732 -0.08299578 -0.08308776 -0.08317021 -0.08324502 -0.08331151 -0.08337541
 -0.08343753 -0.08350089 -0.08356588 -0.08363234 -0.08370028 -0.08377001 -0.08384163 -0.08391678 -0.08399528 -0.08407736
 -0.08416218 -0.08424737 -0.08433187 -0.0844121 -0.08448795 -0.08455721 -0.08462166 -0.08468183 -0.08474063 -0.0848003
 -0.08486245 -0.08492894 -0.08499833 -0.08507098 -0.08514348 -0.08521519 -0.08528361 -0.08534809 -0.08540928 -0.08546702
 -0.08552516 -0.08558391 -0.08564831 -0.0857184 -0.08579694 -0.08588305 -0.08597409 -0.08606838 -0.08615907 -0.08624573
 -0.08632326 -0.08639418 -0.08645965 -0.086523 -0.08658896 -0.08665676 -0.08672841 -0.08679894 -0.08686615 -0.08692771
 -0.08698126 -0.0870313 -0.08707788 -0.08712814 -0.08718334 -0.08724602 -0.08731677 -0.08739118 -0.08746897 -0.08754247
 -0.0876116 -0.0876726 -0.08772659 -0.08777735 -0.08782593 -0.08787836 -0.08793343 -0.08799185 -0.08805109 -0.08810714
 -0.08815984 -0.08820694 -0.08825081 -0.08829238 -0.08833368 -0.08837604 -0.08842018 -0.08846669 -0.08851544 -0.08856656
 -0.08861945 -0.08867396 -0.08873004 -0.08878756 -0.08884847 -0.08891285 -0.08898184 -0.08905514 -0.08912995 -0.0892058
 -0.08927865 -0.08934854 -0.08941356 -0.08947391 -0.08952907 -0.08957926 -0.08962414 -0.08966535 -0.08970421 -0.08974279
 -0.08978368 -0.08982576 -0.08986975 -0.08991188 -0.08995038 -0.08998577 -0.09001687 -0.09005065 -0.09008786 -0.09013456
 -0.09019174 -0.09025589 -0.09032676 -0.09039471 -0.09045959 -0.09051611 -0.09056565 -0.09061251 -0.09065862 -0.09071238
 -0.09077507 -0.09085326 -0.09094806 -0.09106354 -0.09120128 -0.09136391 -0.09155394 -0.09177262 -0.09202608 -0.09231558
 -0.09265342 -0.09304457 -0.09349468 -0.09400994 -0.09456861 -0.09517156 -0.0957739 -0.09637175 -0.09693495 -0.09746193
 -0.09794553 -0.09838343 -0.09874963 -0.09903756 -0.09919414 -0.09922243 -0.09910037 -0.0988441 -0.09847496 -0.09801529
 -0.09750224 -0.09696844 -0.09646006 -0.09600472 -0.09563799 -0.09536937 -0.09521311 -0.09516826 -0.0952402 -0.09541395
 -0.09569483 -0.09602547 -0.09640411 -0.09673624 -0.09701183 -0.09718958 -0.09726753 -0.09729005 -0.09726062 -0.09723394
 -0.09720873 -0.09720788 -0.09722395 -0.09724624 -0.0972642 -0.09724738 -0.09719376 -0.09708297 -0.09692778 -0.0967324
 -0.09651422 -0.09628781 -0.09606316 -0.09584971 -0.09564929 -0.09546486 -0.09529436 -0.09513757 -0.09499411 -0.09486361
 -0.09474853 -0.09464917 -0.09456604 -0.09449914 -0.09444211 -0.09439452 -0.09434903 -0.09430607 -0.0942644 -0.09422463
 -0.09418894 -0.09415604 -0.0941242 -0.09409205 -0.09405573 -0.09401722 -0.09397627 -0.09393784 -0.09390572 -0.09388274
 -0.0938724 -0.09387182 -0.0938817 -0.09389493 -0.09391011 -0.09392127 -0.09392687 -0.093927 -0.09392115 -0.09391554
 -0.0939105 -0.09391309 -0.09392326 -0.09394275 -0.09397063 -0.09400249 -0.09403745 -0.09406961 -0.09409997 -0.09412753
 -0.09415442 -0.0941842 -0.09421666 -0.09425385 -0.09429238 -0.09433011 -0.09436508 -0.0943946 -0.09442207 -0.0944479
 -0.09447601 -0.09450801 -0.09454299 -0.09458154 -0.09461813 -0.09465234 -0.09467926 -0.0946986 -0.09470966 -0.09471286
 -0.09471323 -0.09471151 -0.09471488 -0.09472278 -0.09473746 -0.094757 -0.09477761 -0.09479886 -0.09481764 -0.09483625
 -0.0948564 -0.094879 -0.09490661 -0.09493497 -0.09496304 -0.09498546 -0.09499883 -0.09500541 -0.09500363 -0.09500472
 -0.09501 -0.09502963 -0.09506533 -0.09511448 -0.09517702 -0.09523849 -0.09529831 -0.09534484 -0.09537932 -0.09540304
 -0.09541792 -0.09543213 -0.09544527 -0.09546085 -0.09547678 -0.09549061 -0.09550254 -0.09551091 -0.09551914 -0.09552928
 -0.09554418 -0.09556659 -0.09559537 -0.09563144 -0.09567017 -0.09571092 -0.09574844 -0.09578175 -0.0958079 -0.0958263
 -0.09583795 -0.09584289 -0.09584561 -0.09584635 -0.09584965 -0.09585555 -0.09586661 -0.09588312 -0.09590752 -0.09594001
 -0.09598326 -0.09603507 -0.09609416 -0.09615542 -0.09621227 -0.09626193 -0.09629859 -0.09632646 -0.09634546 -0.09636256
 -0.09638088 -0.09640232 -0.09642829 -0.09645692 -0.09648788 -0.09652133 -0.09655719 -0.09659641 -0.09663905 -0.09668286
 -0.09672766 -0.09677023 -0.09681074 -0.09684876 -0.09688459 -0.09691942 -0.09695282 -0.09698434 -0.09701353 -0.09703918
 -0.09706172 -0.09708083 -0.09709802 -0.0971138 -0.09713125 -0.09715164 -0.09717906 -0.0972158 -0.09726232 -0.09732041
 -0.09738268 -0.0974488 -0.09750823 -0.09755957 -0.09759967 -0.09762821 -0.09765273 -0.09767368 -0.09770014 -0.09773152
 -0.09776894 -0.09781106 -0.09785298 -0.09789484 -0.09793408 -0.09797256 -0.09801263 -0.09805472 -0.09810131 -0.09814934
 -0.09819732 -0.09824228 -0.09828126 -0.09831611 -0.09834623 -0.09837643 -0.09840833 -0.09844233 -0.0984794 -0.0985138
 -0.09854501 -0.09856912 -0.09858581 -0.0985993 -0.09861 -0.09862514 -0.09864449 -0.09867036 -0.09870175 -0.0987361
 -0.09877306 -0.09881034 -0.09884848 -0.09888753 -0.09892763 -0.09896921 -0.09901137 -0.09905359 -0.09909504 -0.09913474
 -0.09917361 -0.09921136 -0.09925084 -0.09929277 -0.09933881 -0.09938992 -0.09944279 -0.09949752 -0.09954712 -0.09959117
 -0.09962497 -0.09964868 -0.099664 -0.09967175 -0.09967802 -0.0996836 -0.09969458 -0.09971126 -0.09973741 -0.09977306
 -0.09982029 -0.09987803 -0.09994697 -0.1000227 -0.1001032 -0.100181 -0.100251 -0.1003094 -0.1003517 -0.1003831
 -0.100403 -0.1004209 -0.1004386 -0.1004604 -0.1004872 -0.1005168 -0.1005492 -0.1005816 -0.100614 -0.100646
 -0.1006779 -0.100711 -0.1007458 -0.1007851 -0.1008286 -0.1008782 -0.1009315 -0.1009857 -0.1010378 -0.1010825
 -0.10112 -0.1011477 -0.1011708 -0.101191 -0.1012133 -0.1012408 -0.1012726 -0.1013099 -0.1013467 -0.1013819
 -0.1014121 -0.1014364 -0.1014594 -0.1014813 -0.1015106 -0.1015472 -0.1015934 -0.1016481 -0.1017061 -0.1017665
 -0.101823 -0.1018758 -0.1019214 -0.1019605 -0.101992 -0.1020186 -0.1020427 -0.1020679 -0.1020995 -0.102136
 -0.1021796 -0.1022224 -0.1022616 -0.1022928 -0.1023129 -0.1023283 -0.1023394 -0.1023534 -0.1023718 -0.1023921
 -0.1024141 -0.1024305 -0.1024413 -0.1024464 -0.1024468 -0.1024504 -0.1024577 -0.102475 -0.1025008 -0.1025343
 -0.1025729 -0.1026115 -0.1026487 -0.10268 -0.1027065 -0.1027266 -0.1027433 -0.102757 -0.1027719 -0.1027896
 -0.1028126 -0.1028424 -0.1028766 -0.1029155 -0.1029532 -0.1029889 -0.1030188 -0.1030427 -0.1030606 -0.1030726
 -0.10308 -0.1030832 -0.1030853 -0.1030871 -0.1030937 -0.1031051 -0.1031245 -0.1031497 -0.1031785 -0.1032089
 -0.1032369 -0.1032626 -0.1032845 -0.1033035 -0.10332 -0.1033336 -0.1033442 -0.103352 -0.1033567 -0.1033592
 -0.1033595 -0.1033574 -0.103353 -0.1033453 -0.1033342 -0.1033212 -0.1033066 -0.1032943 -0.1032845 -0.1032801
 -0.1032802 -0.1032828 -0.1032864 -0.103286 -0.1032819 -0.1032717 -0.1032585 -0.1032451 -0.1032347 -0.1032317
 -0.1032348 -0.1032456 -0.1032584 -0.1032711 -0.1032799 -0.1032822 -0.1032813 -0.1032764 -0.1032756 -0.1032797
 -0.1032928 -0.1033154 -0.1033418 -0.1033715 -0.1033941 -0.10341 -0.1034156 -0.1034124 -0.1034055 -0.1033955
 -0.1033877 -0.1033811 -0.1033765 -0.1033728 -0.1033691 -0.1033641 -0.1033564 -0.1033449 -0.1033272 -0.1033069
 -0.1032836 -0.103265 -0.1032539 -0.1032517 -0.1032607 -0.10327 -0.1032791 -0.1032745 -0.103255 -0.1032203
 -0.103171 -0.1031205 -0.1030699 -0.1030322 -0.1030064 -0.1029951 -0.1029954 -0.1030006 -0.1030094 -0.103015
 -0.1030189 -0.1030197 -0.1030195 -0.1030205 -0.1030209 -0.1030215 -0.1030165 -0.1030038 -0.102979 -0.1029392
 -0.1028895 -0.1028292 -0.1027716 -0.1027185 -0.1026787 -0.1026536 -0.102637 -0.1026284 -0.1026151 -0.1025975
 -0.1025742 -0.1025475 -0.1025284 -0.1025162 -0.1025171 -0.1025236 -0.1025249 -0.1025137 -0.1024729 -0.1024085
 -0.1023174 -0.1022154 -0.1021116 -0.1020159 -0.1019361 -0.1018707 -0.1018216 -0.1017824 -0.101752 -0.1017253
 -0.1017015 -0.1016769 -0.1016511 -0.101623 -0.1015929 -0.1015661 -0.1015431 -0.1015307 -0.1015267 -0.1015257
 -0.1015233 -0.1015027 -0.1014651 -0.1014027 -0.1013237 -0.1012357 -0.1011451 -0.1010604 -0.1009844 -0.1009212
 -0.1008722 -0.1008403 -0.1008196 -0.1008111 -0.1007979 -0.1007771 -0.1007337 -0.1006645 -0.1005724 -0.100457
 -0.1003348 -0.1002064 -0.1000846 -0.09996916 -0.09986302 -0.09976538 -0.0996742 -0.09958954 -0.09951059 -0.09943774
 -0.09937254 -0.09931222 -0.09925494 -0.09919453 -0.0991234 -0.09904138 -0.09894353 -0.09884051 -0.09873567 -0.09863761
 -0.09855156 -0.0984722 -0.09840044 -0.0983234 -0.09823925 -0.09814272 -0.09803298 -0.09791639 -0.09779324 -0.09766957
 -0.09754441 -0.09741206 -0.09727085 -0.09710844 -0.09692745 -0.09672772 -0.09651555 -0.09630433 -0.09609518 -0.09589637
 -0.09570356 -0.09551491 -0.09532873 -0.0951422 -0.09495886 -0.09477954 -0.09460728 -0.09444371 -0.09428801 -0.09414127
 -0.09399633 -0.09385373 -0.09369475 -0.09351806 -0.09330893 -0.09306759 -0.09281141 -0.09254254 -0.09228872 -0.09204718
 -0.09182043 -0.09160325 -0.09138034 -0.09115162 -0.09090813 -0.09065576 -0.09039868 -0.09014267 -0.08989555 -0.08965816
 -0.08943599 -0.08921909 -0.08900867 -0.08877897 -0.08852318 -0.08821936 -0.08785795 -0.08745302 -0.08700339 -0.0865408
 -0.08606791 -0.08559617 -0.08512588 -0.08465588 -0.08418606 -0.08371711 -0.08324622 -0.08276325 -0.08226051 -0.08170873
 -0.08110546 -0.0804254 -0.07968678 -0.07890155 -0.0780934 -0.07729347 -0.07650332 -0.07573444 -0.0749788 -0.07423368
 -0.07349992 -0.07277753 -0.07206706 -0.07137357 -0.07066618 -0.06994673 -0.06913824 -0.06823419 -0.06719197 -0.06601308
 -0.06479804 -0.06355397 -0.06239396 -0.06130382 -0.06027441 -0.05928989 -0.05829574 -0.05729121 -0.05624961 -0.0551738
 -0.05406306 -0.05290175 -0.05168378 -0.05036704 -0.04892202 -0.04731892 -0.04551788 -0.04358281 -0.04150826 -0.03943315
 -0.03738794 -0.03544953 -0.0336374 -0.03193943 -0.03035809 -0.02883903 -0.02737818 -0.02587879 -0.02433122 -0.02259475
 -0.02068323 -0.01856462 -0.01630847 -0.01412535 -0.01203027 -0.0101788 -0.008494499 -0.006928998 -0.005429553 -0.003915853
 -0.002393706 -0.0008418963 0.0007202941 0.002284897 0.003853981 0.005431567 0.00699592 0.008546675 0.01004346 0.01147677
 0.01286042 0.01419425 0.01550698 0.01679837 0.01802187 0.01917258 0.02017888 0.02105 0.02178959 0.02241831
 0.02300408 0.0235542 0.02412471 0.02469215 0.02524239 0.02576589 0.02623829 0.02668696 0.02712729 0.02756694
 0.02802189 0.02845873 0.0288708 0.02922883 0.02952238 0.02975366 0.02992003 0.03004129 0.03011857 0.03017236
 0.0302035 0.03021924 0.0302188 0.03019712 0.03015404 0.03008499 0.02999314 0.02988275 0.02976421 0.02965924
 0.02958084 0.02955939 0.0295956 0.02970043 0.02987363 0.03011131 0.03043726 0.03086125 0.03140277 0.03207971
 0.03285549 0.03372826 0.03464859 0.0356052 0.03660598 0.03764944 0.03877132 0.03997306 0.0412676 0.04265383
 0.04412506 0.04568088 0.04731712 0.04903238 0.05082062 0.05267953 0.05459952 0.05658413 0.0586336 0.06075411
 0.06295352 0.06523123 0.06759021 0.07002535 0.07253432 0.07511555 0.0777672 0.08049334 0.08329608 0.08617063
 0.08912145 0.09210116 0.09510833 0.09806399 0.1009646 0.1037734 0.1064917 0.1091312 0.1116773 0.1140663
 0.1162676 0.1181327 0.1196813 0.1208716 0.1217631 0.1224334 0.1229061 0.1232388 0.1234246 0.123475
 0.1233828 0.1231627 0.1227481 0.1221477 0.1211768 0.1197857 0.1179004 0.1154599 0.1128457 0.1100861
 0.1074568 0.1049677 0.1024685 0.09995152 0.09727953 0.09447024 0.09154993 0.08853306 0.08550136 0.08240867
 0.07922876 0.07582814 0.07196917 0.06763224 0.06258345 0.05724105 0.05183554 0.046675 0.04206578 0.0377776
 0.03379553 0.02991287 0.02604827 0.02227294 0.0185794 0.01510688 0.01187307 0.008858711 0.006062188 0.003357815
 0.0007434135 -0.001851252 -0.004412273 -0.00690259 -0.009307457 -0.0115536 -0.01364854 -0.01556794 -0.01733744 -0.01898417
 -0.02053201 -0.02201236 -0.0234515 -0.02486672 -0.02631259 -0.02781826 -0.02942932 -0.03120195 -0.03299547 -0.0348096
 -0.03639309 -0.03768605 -0.03872733 -0.03950667 -0.04022441 -0.04088999 -0.04161007 -0.04237922 -0.04317084 -0.04397433
 -0.0447139 -0.04539679 -0.04600906 -0.04655905 -0.0470688 -0.04751639 -0.04788212 -0.04813388 -0.04822082 -0.04815188
 -0.04791049 -0.0475352 -0.04704215 -0.04645569 -0.04578948 -0.04504775 -0.0442371 -0.04333863 -0.04235508 -0.04122998
 -0.03995777 -0.03850257 -0.03686346 -0.03516091 -0.03340808 -0.03180363 -0.03034221 -0.02909634 -0.02804961 -0.02718277
 -0.02649053 -0.02595683 -0.02556926 -0.02531414 -0.02514663 -0.02502816 -0.02487953 -0.02462803 -0.02423 -0.0236174
 -0.02288171 -0.02203446 -0.02117844 -0.0203523 -0.01954439 -0.01876274 -0.01794886 -0.01709729 -0.01617914 -0.01519291
 -0.01416416 -0.01309508 -0.01202334 -0.01094341 -0.009847331 -0.00871994 -0.007503057 -0.006191241 -0.004733583 -0.003157068
 -0.001481586 0.0002680333 0.002045186 0.003873059 0.005753384 0.00771182 0.00977417 0.01190898 0.01411819 0.01633984
 0.0185553 0.02074838 0.022909 0.02507717 0.02725733 0.02945929 0.03168335 0.03381742 0.03585127 0.03762304
 0.0391344 0.0403143 0.04116957 0.04169328 0.04187366 0.0416826 0.04110177 0.04008132 0.03863413 0.03674128
 0.03446255 0.03182797 0.0289136 0.02576708 0.0224333 0.01893819 0.01530156 0.01151931 0.007674721 0.003765611
 -2.759435E-05 -0.003687849 -0.007090776 -0.010229 -0.01314298 -0.01583912 -0.01841546 -0.02086707 -0.02321723 -0.02544928
 -0.02751186 -0.02940502 -0.03109594 -0.03261042 -0.03397281 -0.03521241 -0.0363711 -0.03746751 -0.03852852 -0.03956454
 -0.0405876 -0.04160234 -0.04261407 -0.04361892 -0.04461755 -0.04560227 -0.0465715 -0.04752404 -0.04845982 -0.04937717
 -0.05027601 -0.05113116 -0.05193967 -0.05265485 -0.05327669 -0.05377835 -0.05416821 -0.05446137 -0.05466652 -0.05481248
 -0.05490129 -0.05494918 -0.05495459 -0.05492062 -0.05484897 -0.05473878 -0.05460183 -0.05443979 -0.05427757 -0.0541213
 -0.05400226 -0.05392787 -0.05392547 -0.05400099 -0.05416721 -0.05442751 -0.05476667 -0.05518407 -0.05563986 -0.05613233
 -0.05662904 -0.0571311 -0.05763005 -0.0581256 -0.05861415 -0.05909011 -0.0595389 -0.05995467 -0.06032059 -0.06063573
 -0.06089249 -0.06109196 -0.0612327 -0.06131584 -0.06134028 -0.06131197 -0.06123054 -0.06111079 -0.06095457 -0.06078174
 -0.06059512 -0.0604125 -0.06023604 -0.06007549 -0.05993155 -0.05980624 -0.05969951 -0.05961089 -0.05954021 -0.05948667
 -0.0594495 -0.05942494 -0.05941342 -0.05941202 -0.05942663 -0.05946415 -0.05953387 -0.05965063 -0.05981598 -0.06003964
 -0.06030826 -0.06062029 -0.06095302 -0.06129864 -0.06163779 -0.06196357 -0.06226835 -0.06254897 -0.06280956 -0.06305004
 -0.06327698 -0.06349077 -0.06369095 -0.06387723 -0.06404481 -0.06419379 -0.06432229 -0.06443094 -0.06452143 -0.0645932
 -0.0646464 -0.06467874 -0.06468671 -0.06466796 -0.06461755 -0.06453669 -0.06442305 -0.06428379 -0.06412081 -0.06394483
 -0.06375994 -0.06357453 -0.06339149 -0.06321542 -0.06304727 -0.06289109 -0.06274731 -0.06261949 -0.06250787 -0.06241372
 -0.06233707 -0.0622785 -0.06223802 -0.06221654 -0.06221338 -0.06222714 -0.06225562 -0.062293 -0.06233675 -0.06237941
 -0.06242117 -0.06245807 -0.06249496 -0.06253361 -0.06258085 -0.06264181 -0.06271763 -0.06281177 -0.06291555 -0.06302827
 -0.06313822 -0.06324299 -0.06333727 -0.06341976 -0.0634938 -0.06355946 -0.06362512 -0.06369132 -0.06376767 -0.0638543
 -0.06395747 -0.06407572 -0.06420761 -0.06434998 -0.06449454 -0.06463825 -0.06477172 -0.06489452 -0.06500161 -0.0650961
 -0.06517816 -0.06525301 -0.06532361 -0.06539379 -0.06546617 -0.06554081 -0.06561858 -0.06569698 -0.06577565 -0.06585313
 -0.06592912 -0.06600415 -0.06607823 -0.06615103 -0.0662223 -0.06628764 -0.0663468 -0.06639495 -0.06643347 -0.06646489
 -0.06649096 -0.06651861 -0.06654553 -0.06657213 -0.06659234 -0.06659808 -0.06658781 -0.06655589 -0.06650786 -0.06644598
 -0.06637242 -0.06629111 -0.0661917 -0.06607371 -0.06592068 -0.06572913 -0.06549197 -0.06520684 -0.06488512 -0.06452715
 -0.0641573 -0.06377667 -0.06340566 -0.06304334 -0.06269372 -0.06235418 -0.0620166 -0.06167924 -0.06133332 -0.06097912
 -0.06061231 -0.06023607 -0.05985095 -0.05946458 -0.05908238 -0.05871358 -0.05836518 -0.05804201 -0.0577482 -0.05748291
 -0.05724724 -0.05703677 -0.05685171 -0.05668276 -0.05652944 -0.05637899 -0.05623063 -0.05607411 -0.05590891 -0.05572674
 -0.05552645 -0.0552959 -0.05503386 -0.0547277 -0.05437955 -0.05398677 -0.05355639 -0.05309844 -0.05262183 -0.05214173
 -0.05166327 -0.05119731 -0.05074098 -0.0502962 -0.04985717 -0.04942062 -0.04898844 -0.04855969 -0.0481413 -0.04773574
 -0.04733807 -0.04694925 -0.04654997 -0.04613906 -0.0457021 -0.04523927 -0.04475429 -0.04424948 -0.04374211 -0.04323539
 -0.04275138 -0.04229199 -0.04187493 -0.04149682 -0.0411615 -0.04086025 -0.04058473 -0.04032521 -0.04007123 -0.03981452
 -0.03954655 -0.03926602 -0.03896854 -0.03866345 -0.0383531 -0.03804197 -0.03773401 -0.03741144 -0.03707357 -0.03669592
 -0.03627653 -0.03581249 -0.03530428 -0.03476379 -0.03419114 -0.03359153 -0.03296572 -0.03231701 -0.03165158 -0.03098524
 -0.03032872 -0.0297066 -0.02913195 -0.028629 -0.02821189 -0.02790181 -0.02770403 -0.02763233 -0.02766968 -0.0278175
 -0.02803927 -0.02832844 -0.02864296 -0.02897581 -0.02928875 -0.02957678 -0.02981415 -0.02999851 -0.03012583 -0.0301967
 -0.03022508 -0.03021208 -0.0301732 -0.030107 -0.03001654 -0.02989798 -0.02974171 -0.0295471 -0.02930511 -0.02902588
 -0.0287152 -0.02839232 -0.02807513 -0.02778031 -0.02752278 -0.02731195 -0.02715429 -0.02705753 -0.02702543 -0.02706037
 -0.027165 -0.02732858 -0.02755089 -0.02781576 -0.0281222 -0.02845634 -0.02881711 -0.02918492 -0.02955809 -0.02991338
 -0.03025227 -0.03056765 -0.03086415 -0.03115206 -0.0314316 -0.03170861 -0.03198013 -0.03224207 -0.0324999 -0.032754
 -0.0330191 -0.03330364 -0.03362023 -0.03397626 -0.03437816 -0.03482863 -0.03533342 -0.03589373 -0.03651519 -0.03719911
 -0.03794437 -0.03875145 -0.03960381 -0.04049988 -0.04140776 -0.04232518 -0.0432196 -0.04409073 -0.04492007 -0.04570846
 -0.04644888 -0.04714192 -0.04778436 -0.04837975 -0.04893062 -0.04944231 -0.04992185 -0.05036851 -0.05078413 -0.05116601
 -0.05151048 -0.05182808 -0.05211886 -0.05240279 -0.05268457 -0.05297146 -0.05326606 -0.05355851 -0.05384836 -0.05412592
 -0.05439091 -0.05464078 -0.05487527 -0.05509145 -0.0552882 -0.05545879 -0.0556026 -0.05571369 -0.05579388 -0.05584309
 -0.0558652 -0.0558659 -0.05584634 -0.05581078 -0.05575529 -0.0556775 -0.05557818 -0.05545416 -0.05531917 -0.05517593
 -0.05503802 -0.05490984 -0.0547903 -0.05468005 -0.05457367 -0.05447062 -0.05437423 -0.05428448 -0.05420118 -0.05412219
 -0.05403009 -0.05392249 -0.05377791 -0.0535988 -0.05337955 -0.053127 -0.05285116 -0.05255872 -0.05226266 -0.05196708
 -0.05168032 -0.05140384 -0.05114153 -0.05089118 -0.05065425 -0.05042224 -0.05019406 -0.04995768 -0.04970969 -0.04944786
 -0.04916996 -0.04889221 -0.04861537 -0.04835894 -0.04812341 -0.04791212 -0.04772438 -0.04755496 -0.04740533 -0.04727969
 -0.04717965 -0.0471139 -0.04707873 -0.04707231 -0.04708736 -0.04711334 -0.04714479 -0.04717364 -0.04719466 -0.04720362
 -0.04719272 -0.04715826 -0.04709265 -0.04699261 -0.04685502 -0.04667805 -0.0464646 -0.04621401 -0.04593662 -0.04563288
 -0.04531702 -0.04498971 -0.04466194 -0.04433374 -0.04401024 -0.04369067 -0.04337496 -0.04306108 -0.04274303 -0.04241943
 -0.04208294 -0.04173786 -0.0413852 -0.04103445 -0.04069562 -0.04037322 -0.04007547 -0.03979548 -0.0395337 -0.03927764
 -0.03902355 -0.03876313 -0.03849324 -0.03821483 -0.03792663 -0.03764051 -0.03735698 -0.03709285 -0.03684869 -0.03663119
 -0.03643864 -0.03625916 -0.03609031 -0.03591356 -0.03573013 -0.03553336 -0.0353272 -0.03511741 -0.03490415 -0.03469121
 -0.03447438 -0.03425042 -0.03401757 -0.03377311 -0.03351857 -0.03325494 -0.03297977 -0.03269302 -0.03239006 -0.03206918
 -0.03173227 -0.03137887 -0.03101576 -0.03064338 -0.03026675 -0.02988621 -0.02950793 -0.0291327 -0.02877072 -0.02842175
 -0.02809072 -0.02777514 -0.02746994 -0.02717354 -0.02687969 -0.02658958 -0.02630237 -0.02601928 -0.02574223 -0.02546885
 -0.0251997 -0.02492723 -0.02464874 -0.0243565 -0.02404568 -0.02372094 -0.02338041 -0.02304219 -0.02270889 -0.02238946
 -0.02208556 -0.02178454 -0.02148583 -0.02117732 -0.02086024 -0.02054181 -0.02022311 -0.01991418 -0.01961238 -0.01931422
 -0.0190183 -0.01871853 -0.01841882 -0.01812203 -0.01783206 -0.01755473 -0.01728937 -0.01703809 -0.01679671 -0.01656416
 -0.01633576 -0.0161093 -0.01588435 -0.01565968 -0.01544067 -0.01522816 -0.0150237 -0.01482802 -0.01462994 -0.01442873
 -0.01420667 -0.01396333 -0.01368649 -0.01337848 -0.01304233 -0.01268442 -0.01232506 -0.01197075 -0.0116464 -0.01135067
 -0.01109415 -0.01086778 -0.01066674 -0.01048237 -0.01030826 -0.01013572 -0.009960357 -0.009772253 -0.009566082 -0.009342125
 -0.009097271 -0.008847839 -0.008595444 -0.008354154 -0.00812564 -0.00790999 -0.007707251 -0.007516413 -0.00733791 -0.00717661
 -0.007031747 -0.006903386 -0.00678768 -0.006673516 -0.006555947 -0.006418793 -0.006260532 -0.006069262 -0.005853585 -0.005615432
 -0.005370023 -0.005130908 -0.00489953 -0.004683347 -0.004466726 -0.004243589 -0.004014202 -0.003773392 -0.003550283 -0.003348596
 -0.003187241 -0.003069724 -0.002974313 -0.002899649 -0.002806341 -0.00269368 -0.002539202 -0.002345767 -0.002114951 -0.001851675
 -0.001572013 -0.001279369 -0.0009896246 -0.0007014364 -0.0004198833 -0.0001418694 0.0001344097 0.0004099367 0.0006857344 0.0009630281
 0.001243964 0.001524053 0.001805058 0.002069505 0.002312573 0.002529199 0.002714185 0.002901661 0.003093523 0.003327527
 0.003605 0.003917224 0.004261137 0.004600295 0.004935127 0.005248549 0.005544646 0.005828786 0.006101357 0.006367282
 0.006621663 0.006860535 0.007076242 0.007258839 0.007405168 0.007506202 0.007574372 0.007610544 0.007636454 0.007660862
 0.007691264 0.007731789 0.00777852 0.007830043 0.007895479 0.007975175 0.008083012 0.008219458 0.008377778 0.008556767
 0.008740043 0.008928766 0.009120173 0.009317301 0.009528119 0.00975563 0.01001133 0.01029376 0.01060993 0.01094526
 0.01128668 0.01162438 0.01193639 0.01225636 0.01258779 0.01298851 0.01349597 0.01406536 0.01470884 0.01528517
 0.01576645 0.01613685 0.01638819 0.01660085 0.01677855 0.01697596 0.01719193 0.01743442 0.01769623 0.01794632
 0.01817375 0.01832481 0.01839705 0.01835332 0.01821049 0.0179753 0.01767137 0.01732653 0.0169554 0.01657478
 0.01619967 0.01583946 0.01551089 0.0152228 0.01497866 0.01478114 0.01462813 0.01451926 0.0144573 0.01444361
 0.01446167 0.01451035 0.01454407 0.01456075 0.01452198 0.01442899 0.01426906 0.01404371 0.0137481 0.01338978
 0.01297672 0.01253148 0.01209333 0.01167533 0.01131435 0.01098911 0.01069404 0.01041458 0.01013404 0.009875779
 0.009642757 0.009461122 0.009338075 0.009286512 0.009310899 0.009406612 0.009576615 0.009765705 0.00997091 0.01011951
 0.01021405 0.01026118 0.01027081 0.01030798 0.01036579 0.01045718 0.01056557 0.01065156 0.01072506 0.01077854
 0.01084063 0.01094597 0.01109501 0.01131009 0.01154784 0.01179548 0.01200592 0.01215371 0.01223955 0.01225175
 0.01224185 0.01221564 0.01221585 0.01224947 0.01230046 0.01236819 0.0124204 0.01245886 0.01249724 0.01253817
 0.01260782 0.01269766 0.01279034 0.0128809 0.01294386 0.01299271 0.01303993 0.01309114 0.01316384 0.01323915
 0.01330674 0.01335708 0.01337736 0.01338376 0.01337944 0.01337658 0.01338026 0.0133878 0.01339978 0.0134108
 0.01342061 0.01342173 0.01341377 0.01339853 0.01337745 0.01337131 0.01337906 0.01340796 0.01345016 0.01348003
 0.01349598 0.01347942 0.01343787 0.01337884 0.01329858 0.01319638 0.01306645 0.01289553 0.01270982 0.01251523
 0.01234883 0.01223174 0.0121565 0.01213001 0.01211239 0.01209703 0.01206673 0.01201794 0.01196229 0.01190026
 0.01184409 0.01179361 0.01174996 0.01171181 0.01167163 0.01162921 0.01157819 0.01152285 0.01147075 0.01142384
 0.01139227 0.01136601 0.01133687 0.0112992 0.01124116 0.01117693 0.01111079 0.01105462 0.01101615 0.0109905
 0.01097708 0.01097567 0.01098624 0.01100972 0.01104799 0.01107188 0.0110798</values></Ydata></AB><ScSm><Ydata ylabel="Single channel"><values byteorder="INTEL" format="FLOAT32" numvalues="1814"> 0.07169196 0.07168753 0.07174717 0.07189886 0.07211599 0.07233433 0.07249689 0.07258706 0.07261422 0.07258126
 0.07249954 0.07243189 0.07247099 0.07265083 0.0728997 0.07309136 0.07314217 0.07308114 0.07303473 0.07310461
 0.07322963 0.07320017 0.07285695 0.07227752 0.07172724 0.07141322 0.07135373 0.07153654 0.0720515 0.07284163
 0.07342279 0.07323104 0.07233254 0.07145494 0.07117953 0.07138526 0.07158828 0.07150049 0.07111869 0.07061963
 0.07041205 0.07102259 0.07257549 0.07436866 0.0751292 0.07381892 0.07037757 0.0659513 0.06246426 0.06158781
 0.06356727 0.06688805 0.06940689 0.07005788 0.06936736 0.06837544 0.06751661 0.06674442 0.06625283 0.06652341
 0.06765792 0.06892179 0.06912261 0.06763273 0.06513824 0.06314956 0.0626213 0.0633551 0.06481437 0.06671019
 0.06817478 0.0672878 0.06296613 0.05736106 0.05490113 0.05808003 0.06479518 0.07040668 0.07186795 0.06943246
 0.06530191 0.06179818 0.06049311 0.06179083 0.06485085 0.06828295 0.07098897 0.07222334 0.07141457 0.06865898
 0.06520054 0.06282803 0.06277795 0.06525081 0.06936963 0.07326058 0.07490583 0.07363504 0.0705697 0.06743693
 0.06543318 0.06523535 0.06717177 0.07087679 0.07526409 0.07915804 0.08177924 0.08282525 0.08252931 0.08150907
 0.080295 0.07924874 0.07890055 0.07962237 0.08075593 0.08086073 0.07928781 0.07704842 0.07576948 0.07600765
 0.07680602 0.07685699 0.07582423 0.07412568 0.07163933 0.06768086 0.0625795 0.0580956 0.05565901 0.05527581
 0.05658205 0.05941583 0.06258893 0.06379826 0.06214815 0.05977273 0.05971887 0.0626916 0.06668562 0.06943209
 0.07049915 0.07113777 0.07266881 0.07513156 0.07711294 0.07681452 0.07383758 0.07018922 0.06886622 0.07091491
 0.07442417 0.076874 0.07778954 0.07847059 0.07971375 0.08057971 0.07937402 0.07566336 0.07136614 0.06957236
 0.07185155 0.07667768 0.08053499 0.08052203 0.07630403 0.07018471 0.06530912 0.06349025 0.06472173 0.06836963
 0.07387094 0.08011127 0.08514249 0.08727469 0.0863073 0.08342449 0.07984455 0.07569776 0.07067183 0.06588024
 0.06408713 0.06709366 0.07343543 0.07960521 0.0831825 0.08403862 0.0829739 0.08022775 0.07569849 0.07036853
 0.06677523 0.0670457 0.07033675 0.07330815 0.073619 0.07206128 0.07084456 0.0708376 0.07124835 0.0713172
 0.07140383 0.07237163 0.07435002 0.07641298 0.07747479 0.0772766 0.07642393 0.07567914 0.07527351 0.07474674
 0.07359567 0.07227686 0.07215717 0.07401775 0.07697792 0.07940014 0.08053429 0.08079021 0.08064462 0.07980958
 0.07765958 0.07441556 0.07162349 0.07100761 0.0728056 0.07562369 0.07788734 0.07896993 0.07904512 0.07852446
 0.0777784 0.07701112 0.07631737 0.0759399 0.07620887 0.0770651 0.07795618 0.07839155 0.07834351 0.07799717
 0.07739872 0.07652442 0.07553142 0.07476708 0.07451795 0.07478951 0.07535035 0.07594341 0.07637663 0.07647678
 0.07615004 0.07552174 0.07486278 0.07434283 0.07397179 0.07376511 0.07379838 0.07405998 0.07437925 0.0745663
 0.07456216 0.07441983 0.074196 0.07390653 0.07356401 0.07322475 0.07298826 0.07292858 0.07300858 0.07310131
 0.07313527 0.07316783 0.07325563 0.07331465 0.07320311 0.07291122 0.07258177 0.07235538 0.07225934 0.07223496
 0.07220503 0.07209142 0.07181837 0.0713762 0.07090023 0.07061801 0.07066543 0.07098602 0.07142274 0.07183746
 0.07212718 0.07223128 0.07217969 0.07206655 0.07193951 0.07176505 0.07151765 0.07125974 0.07111828 0.07118838
 0.07144699 0.07176225 0.0720007 0.07211268 0.07212065 0.07208372 0.07208277 0.07216422 0.07227032 0.07228804
 0.07219023 0.07207651 0.07205579 0.07212634 0.07218866 0.07216179 0.07207464 0.07203454 0.07210851 0.07225904
 0.07240516 0.07251573 0.07262181 0.07275194 0.07287172 0.07290012 0.07279987 0.07264064 0.07253715 0.07253136
 0.07257862 0.07264258 0.07274417 0.07290207 0.07307352 0.07318863 0.0732283 0.07324126 0.0732789 0.07333034
 0.07333995 0.07328247 0.07319695 0.07314424 0.07315075 0.07319944 0.07325596 0.0732928 0.07329768 0.07327259
 0.07322754 0.07317063 0.07310173 0.07302433 0.07296816 0.07298306 0.07308646 0.07321951 0.07327995 0.07321201
 0.07305846 0.07291606 0.07284193 0.07280986 0.07275783 0.07266153 0.07254944 0.07245915 0.07240292 0.07237211
 0.07235062 0.07232276 0.07229114 0.07229328 0.07237474 0.07252835 0.07267711 0.07274103 0.07271513 0.07266489
 0.07265402 0.07269524 0.07276228 0.07282799 0.07289298 0.07298507 0.07312054 0.07326575 0.07336375 0.07340556
 0.07344577 0.07354121 0.07370365 0.07391261 0.0741348 0.07432392 0.07444403 0.07451145 0.0745872 0.07471321
 0.0748758 0.07504034 0.07519862 0.0753667 0.07555392 0.07575676 0.07597858 0.07623627 0.07654108 0.07687916
 0.07721166 0.07749581 0.07771948 0.07792339 0.078178 0.07852377 0.07893482 0.07934469 0.07970435 0.08001499
 0.08031049 0.08061457 0.08092327 0.08123327 0.08157033 0.08196481 0.08240527 0.08284468 0.08325455 0.08364882
 0.08405147 0.08446462 0.08487748 0.08529094 0.08572046 0.08617614 0.0866435 0.08708796 0.08748303 0.08783393
 0.0881727 0.08853458 0.08893708 0.08936521 0.08977059 0.09010683 0.09038462 0.09067455 0.09103091 0.09142646
 0.09179132 0.09210686 0.09242529 0.09279466 0.09320132 0.09360097 0.09397821 0.09435239 0.09473914 0.09512573
 0.09548065 0.09577896 0.09602383 0.09624707 0.096485 0.09675771 0.09707755 0.09745991 0.09790075 0.0983534
 0.09875613 0.09908131 0.09934032 0.0995551 0.09975037 0.09995914 0.100204 0.1004763 0.1007491 0.1009981
 0.1012038 0.1013632 0.101516 0.1017247 0.1020114 0.1023419 0.1026879 0.1030655 0.1034879 0.1039189
 0.104314 0.1046886 0.1050979 0.1055484 0.1059711 0.1062979 0.1065285 0.1067058 0.1068624 0.1070264
 0.1072492 0.1075783 0.1080033 0.1084643 0.1089108 0.1093312 0.1097294 0.1100996 0.1104278 0.1107036
 0.1109257 0.111103 0.111256 0.111417 0.1116221 0.1118877 0.1121876 0.1124659 0.1126768 0.1128024
 0.1128329 0.1127597 0.1126062 0.1124381 0.1123106 0.1122031 0.1120295 0.1117135 0.11124 0.1106358
 0.1099234 0.1091117 0.1082265 0.1073387 0.1065514 0.105957 0.1056104 0.1055396 0.105763 0.1062712
 0.1069928 0.1077961 0.1085358 0.1090917 0.1093706 0.1093078 0.1088959 0.1082061 0.1073607 0.1064767
 0.10563 0.1048472 0.1041143 0.1034099 0.1027577 0.1022521 0.1020274 0.1022114 0.1029095 0.1041949
 0.106058 0.108343 0.1107641 0.113028 0.1149669 0.1165688 0.11791 0.1190817 0.1201585 0.1211824
 0.1221515 0.1230401 0.1238386 0.1245602 0.1252142 0.1257902 0.1262691 0.1266373 0.1268961 0.127072
 0.1272073 0.1273296 0.1274426 0.1275524 0.1276779 0.127818 0.1279231 0.1279164 0.1277395 0.1273772
 0.1268575 0.1262598 0.1257452 0.1255824 0.1260891 0.1274583 0.1295922 0.1321184 0.1345966 0.1367259
 0.1384039 0.1396702 0.1406319 0.1414082 0.1420892 0.1427228 0.1433275 0.1439082 0.1444625 0.1449896
 0.1454962 0.1459941 0.1464934 0.1469968 0.147496 0.1479759 0.1484294 0.1488687 0.1493156 0.1497832
 0.1502665 0.150749 0.151222 0.1516939 0.1521716 0.152637 0.1530592 0.1534335 0.1537919 0.1541728
 0.1545953 0.1550564 0.1555324 0.1559817 0.1563705 0.156702 0.1570124 0.1573374 0.1576881 0.1580556
 0.1584257 0.1587868 0.1591354 0.159483 0.1598526 0.1602549 0.1606645 0.161033 0.1613349 0.1615955
 0.1618663 0.1621765 0.1625124 0.1628408 0.1631494 0.163464 0.1638211 0.1642235 0.1646297 0.1649898
 0.1652909 0.165563 0.1658455 0.1661532 0.1664762 0.1668009 0.1671247 0.1674499 0.1677756 0.1681008
 0.1684282 0.1687614 0.1691004 0.1694406 0.1697766 0.170107 0.1704354 0.1707662 0.1711 0.1714394
 0.1717936 0.1721646 0.172534 0.1728741 0.1731746 0.1734501 0.1737219 0.1740024 0.1742976 0.1746107
 0.1749388 0.1752717 0.1755993 0.1759191 0.1762336 0.1765452 0.176854 0.1771628 0.1774783 0.1778071
 0.1781504 0.178503 0.1788563 0.179202 0.1795348 0.1798527 0.1801585 0.1804601 0.1807675 0.1810822
 0.1813936 0.181692 0.181983 0.1822839 0.1826042 0.1829343 0.1832556 0.1835586 0.1838512 0.18415
 0.1844621 0.1847795 0.1850912 0.1853952 0.1856955 0.185996 0.1863002 0.1866111 0.1869271 0.1872416
 0.1875481 0.1878454 0.188138 0.1884327 0.1887326 0.189037 0.1893459 0.1896605 0.1899776 0.1902897
 0.1905946 0.1908963 0.1911963 0.191493 0.191787 0.1920825 0.192382 0.1926845 0.1929875 0.193291
 0.1935986 0.1939135 0.1942328 0.1945513 0.194868 0.1951824 0.1954917 0.1957982 0.1961113 0.1964352
 0.1967631 0.1970877 0.1974078 0.1977236 0.1980335 0.1983345 0.1986245 0.1989055 0.1991862 0.1994732
 0.1997644 0.2000555 0.2003455 0.2006336 0.2009196 0.2012102 0.2015124 0.2018242 0.2021403 0.2024595
 0.2027801 0.2030971 0.2034089 0.203717 0.204022 0.2043251 0.2046301 0.2049372 0.2052446 0.2055541
 0.2058685 0.2061872 0.2065097 0.2068343 0.2071543 0.2074662 0.2077777 0.2080951 0.2084134 0.2087291
 0.2090472 0.2093693 0.2096912 0.2100107 0.2103258 0.2106335 0.2109385 0.2112492 0.2115616 0.2118665
 0.2121664 0.2124684 0.2127727 0.2130807 0.2133957 0.2137116 0.214022 0.2143337 0.2146538 0.2149768
 0.2152986 0.215621 0.2159401 0.2162522 0.2165633 0.216875 0.2171782 0.217472 0.2177649 0.2180462
 0.2182612 0.2182626 0.2177013 0.2159104 0.2118877 0.2044829 0.1928487 0.1769748 0.1578834 0.1372709
 0.1168826 0.09805287 0.08156652 0.06776482 0.05672729 0.04838379 0.04257474 0.03916119 0.0381474 0.03980647
 0.04481459 0.05385111 0.06609005 0.07786462 0.08409303 0.08228713 0.07492948 0.06720968 0.0627147 0.06170003
 0.06263725 0.06422113 0.06603802 0.06832424 0.07148296 0.07562031 0.0805316 0.08621077 0.09309281 0.1015014
 0.1109937 0.120552 0.1294659 0.1378855 0.1464652 0.1555679 0.1648845 0.1737395 0.1816234 0.1884405
 0.1944042 0.1998065 0.2048517 0.2096304 0.2141813 0.2184983 0.2224348 0.2256608 0.2278227 0.2288148
 0.2289062 0.2285886 0.2282896 0.2282087 0.2283654 0.2287266 0.229266 0.2299643 0.2308009 0.2317466
 0.2327566 0.2337857 0.2348085 0.2358132 0.2367839 0.2377014 0.2385505 0.239323 0.2400205 0.240656
 0.2412429 0.2417875 0.2422967 0.2427836 0.2432593 0.2437262 0.2441803 0.2446113 0.2450071 0.2453638
 0.2456901 0.245997 0.2462924 0.2465824 0.2468724 0.247164 0.2474577 0.2477525 0.2480437 0.248327
 0.2486054 0.2488845 0.249165 0.2494475 0.2497362 0.2500275 0.2503085 0.250574 0.2508359 0.2511066
 0.2513852 0.251666 0.2519473 0.2522277 0.2525039 0.2527761 0.25305 0.25333 0.2536126 0.2538902
 0.2541636 0.2544475 0.2547551 0.2550797 0.2554038 0.2557197 0.256029 0.2563348 0.2566424 0.2569571
 0.2572665 0.2575429 0.2577763 0.2579941 0.2582401 0.2585381 0.2588739 0.2592107 0.2595226 0.2598137
 0.2600998 0.2603852 0.2606631 0.260926 0.2611763 0.2614387 0.2617491 0.2621122 0.2624904 0.2628506
 0.2631961 0.2635393 0.2638829 0.264231 0.264579 0.2648893 0.2651209 0.2652966 0.2655112 0.2658584
 0.2663436 0.2668723 0.2673364 0.2677077 0.2680349 0.2683748 0.268754 0.2691469 0.2694442 0.2695267
 0.2694496 0.26948 0.2698561 0.270552 0.2713391 0.2720158 0.2725292 0.2729304 0.2732823 0.2735959
 0.2738201 0.2739048 0.2739037 0.2740053 0.2743987 0.2750768 0.2758254 0.2764412 0.2768884 0.2772251
 0.2774992 0.2777444 0.2779246 0.2778593 0.2774164 0.2768568 0.2767631 0.2774708 0.2786882 0.2798112
 0.2805227 0.2809512 0.2813263 0.2816996 0.2820103 0.2821403 0.2817881 0.2806448 0.2790046 0.2779248
 0.2783496 0.2801575 0.2823512 0.2840529 0.2850551 0.2855894 0.2859359 0.2862381 0.2863962 0.2860815
 0.285102 0.2838831 0.2833572 0.284103 0.2856922 0.287147 0.2879385 0.2882655 0.2885247 0.2888668
 0.2890983 0.2886423 0.2868678 0.2840232 0.2817006 0.2817167 0.2843389 0.2879642 0.2907066 0.292014
 0.2925149 0.2926349 0.2919656 0.2900019 0.2869076 0.2834379 0.2807082 0.2800503 0.2821299 0.2858373
 0.2889149 0.2901846 0.2905399 0.291464 0.2932578 0.295047 0.2959231 0.2956479 0.2944999 0.292775
 0.2906436 0.2886177 0.2878304 0.2892289 0.2924199 0.2958165 0.2981092 0.2992528 0.2997646 0.2991881
 0.2957978 0.288672 0.2802733 0.2757629 0.278446 0.2863175 0.2942189 0.298912 0.3008475 0.3017404
 0.3022705 0.3018963 0.2991639 0.2925 0.2826901 0.2744356 0.2731736 0.2796969 0.2892585 0.2960082
 0.2969826 0.2924101 0.284648 0.2774821 0.274591 0.2773179 0.2840795 0.2919357 0.2983543 0.3019036
 0.3022463 0.3000123 0.2967486 0.2945357 0.294484 0.2950943 0.2933915 0.2886795 0.2836968 0.2805941
 0.2776072 0.2723283 0.2669965 0.2670109 0.2739086 0.2827916 0.2878334 0.2881811 0.2868906 0.2853637
 0.2809504 0.2707708 0.2571761 0.2478244 0.2489784 0.2590166 0.2698907 0.275 0.2744276 0.2725763
 0.2722915 0.2719684 0.2678321 0.2588673 0.2492994 0.2450395 0.247399 0.2519156 0.2536338 0.2510661
 0.2444507 0.2341388 0.2234203 0.2195477 0.2275986 0.244247 0.2603946 0.2686896 0.2662162 0.2528175
 0.232045 0.2132514 0.2070537 0.2158433 0.2308885 0.2403798 0.2388157 0.2279655 0.211777 0.193659
 0.1780361 0.1708454 0.175961 0.1912454 0.2086982 0.2184803 0.2143414 0.1984279 0.1815916 0.175577
 0.1824072 0.1930639 0.1976208 0.1942434 0.1877494 0.1833412 0.18358 0.1880466 0.193818 0.1981641
 0.2007208 0.2005211 0.1930731 0.1757898 0.1552969 0.1430929 0.1435845 0.151804 0.1626346 0.1753931
 0.1878812 0.1932469 0.1877243 0.1777972 0.1746893 0.1824479 0.1944727 0.201585 0.2011019 0.1973104
 0.194802 0.1935605 0.191275 0.1886607 0.189658 0.1959905 0.2041617 0.2093593 0.2104683 0.2096492
 0.2086625 0.2075421 0.205846 0.2034428 0.2004066 0.1971236 0.1941878 0.1917279 0.1892906 0.1865284
 0.1832032 0.1782537 0.1700684 0.158896 0.1483037 0.1424266 0.1416717 0.1429736 0.1442783 0.145769
 0.1457509 0.1394293 0.1252521 0.1101511 0.1045182 0.1121893 0.1275968 0.1420721 0.1503793 0.1511358
 0.144349 0.1319297 0.1201501 0.117654 0.1283657 0.1477263 0.1676189 0.1833367 0.1940351 0.1989052
 0.1966183 0.1884204 0.179272 0.175044 0.1790001 0.1903118 0.2042251 0.2131941 0.2105885 0.1973709
 0.1851654 0.1876719 0.2061827 0.2273131 0.2380476 0.2389649 0.2388408 0.2410184 0.2417903 0.2400786
 0.2412572 0.2497364 0.2624145 0.2717215 0.2722699 0.2629703 0.2462549 0.2285379 0.2185601 0.2204534
 0.2291258 0.2358596 0.2367838 0.2323542 0.2221542 0.2070079 0.1944668 0.1942689 0.2069878 0.2226918
 0.2322301 0.2355624 0.2376446 0.2399172 0.2386334 0.2306206 0.2185909 0.2094601 0.2075015 0.2106018
 0.2138266 0.2146375 0.2129804 0.2083659 0.2001605 0.1906785 0.1852056 0.1874568 0.1958116 0.2049082
 0.2105054 0.21218 0.2119966 0.2118736 0.2122658 0.2123749 0.2115481 0.211076 0.2139174 0.2214036
 0.2309117 0.2384752 0.2433106 0.2480535 0.254633 0.2615654 0.265707 0.2656752 0.2632053 0.2617104
 0.2635955 0.2683589 0.2729533 0.2743828 0.2725464 0.2705737 0.2719135 0.2770118 0.2832451 0.2878963
 0.2903794 0.2916647 0.2926654 0.2934762 0.2933455 0.2912792 0.2875323 0.2844811 0.2849551 0.2894225
 0.2955181 0.3004427 0.3031771 0.304324 0.3046108 0.3040965 0.3026127 0.3004915 0.2985882 0.2976216
 0.2976775 0.2983741 0.2992961 0.3001764 0.3008697 0.3013479 0.3016752 0.3019232 0.3021502 0.3024431
 0.3028635 0.3033379 0.3037162 0.3039863 0.3043271 0.3048815 0.3055516 0.3060948 0.3063496 0.3062583
 0.3057377 0.304695 0.3031836 0.301395 0.2994461 0.2973055 0.2950548 0.2931757 0.292417 0.2932514
 0.2954484 0.2982101 0.300721 0.3025635 0.3037171 0.3043394 0.3046183 0.3047247 0.3047754 0.3048027
 0.3047794 0.3046771 0.3044945 0.30424 0.3039234 0.303578 0.3032687 0.3030465 0.3028974 0.3027474
 0.3025164 0.302164 0.3017042 0.301188 0.30066 0.3001122 0.2994835 0.2987118 0.297789 0.2967702
 0.295742 0.2947768 0.2938977 0.2930647 0.2922017 0.291243 0.2901466 0.2888749 0.287414 0.2858395
 0.284311 0.282951 0.2817468 0.2805916 0.2793856 0.278074 0.2766378 0.2750931 0.2734834 0.2718478
 0.2702012 0.2685428 0.2668628 0.2651415 0.2633598 0.2615115 0.2595968 0.257611 0.2555481 0.2534029
 0.2511514 0.2487254 0.2460133 0.2428907 0.2392451 0.23499 0.2300993 0.2246558 0.2188545 0.2129354
 0.2071084 0.2015314 0.1963317 0.1916317 0.1875556 0.1842078 0.1816449 0.1798738 0.1788772 0.1786384
 0.1791454 0.1803731 0.1822494 0.1846337 0.1873381 0.190167 0.1929344 0.195477 0.1977088 0.1996741
 0.201518 0.2033777 0.2052961 0.2072284 0.2091067 0.2108774 0.2124875 0.2138738 0.2149929 0.2158524
 0.2164994 0.2169796 0.217313 0.2175002 0.2175488 0.2174979 0.2174146 0.217368 0.2174141 0.2175958
 0.2179332 0.2184137 0.2190046 0.219677 0.2204125 0.2212008 0.2220341 0.2228978 0.2237726 0.2246573
 0.2255797 0.2265818 0.2277128 0.2290387 0.2306309 0.2325289 0.2347176 0.2371259 0.2396315 0.2420785
 0.244314 0.2462248 0.247755 0.248907 0.2497224 0.2502508 0.2505394 0.2506402 0.2506056 0.2504738
 0.2502639 0.2499793 0.2496101 0.2491432 0.2485718 0.247894 0.247117 0.2462718 0.2454037 0.2445357
 0.2436618 0.2427815 0.241916 0.2410844 0.2402856 0.2395055 0.2387268 0.2379316 0.2371049 0.2362412
 0.2353433 0.2344112 0.2334271 0.2323575 0.2311789 0.2298905 0.2284971 0.2269969 0.2253951 0.223712
 0.2219706 0.2201903 0.2183916 0.2165856 0.2147594 0.2128794 0.2109002 0.2087754 0.206492 0.2041038
 0.2017138 0.1994153 0.1972518 0.1952185 0.1932857 0.1914321 0.1896605 0.187977 0.1863689 0.1848225
 0.1833434 0.1819421 0.180614 0.1793508 0.1781588 0.1770598 0.1760813 0.1752382 0.1745144 0.1738702
 0.1732782 0.1727431 0.1722887 0.171939 0.1717012 0.1715466 0.1714094 0.1712208 0.1709459 0.1705925
 0.1701978 0.1698062 0.1694448 0.1691168 0.1688079 0.1684847 0.168087 0.1675325 0.1667329 0.1656105
 0.1641263 0.1623065 0.1602398 0.1580531 0.1558901 0.153887 0.1521413 0.1507004 0.1495658 0.14869
 0.1479872 0.1473856 0.146875 0.1465026 0.1463259 0.1463456 0.1464558 0.1464943 0.1463935 0.1462595
 0.1462706 0.1465258 0.1470014 0.1475979 0.1481964 0.1487084 0.1490959 0.1493476 0.1494582 0.14944
 0.149319 0.1491133 0.1488361 0.1485083 0.1481436 0.1477402 0.1472947 0.1467935 0.1462046 0.1455096
 0.1447271 0.1438777 0.1429556 0.1419394 0.1407943 0.1394953 0.1381193 0.1368947 0.1360919 0.1358609
 0.1361619 0.136807 0.1375888 0.138411 0.1392335 0.1398817 0.1401003 0.1399505 0.1400081 0.140933
 0.1428193 0.1450836 0.1469937 0.1481918 0.1487038 0.1486433 0.1480752 0.1470497 0.1455779 0.1436128
 0.1411688 0.1383795 0.1353879 0.1323117 0.1293311 0.1266446 0.1243459 0.122442 0.1209212 0.1198244
 0.1192844 0.1189391 0.1169538 0.1109844 0.1017848 0.09482443 0.0957012 0.1038531 0.1129429 0.1175656
 0.117568 0.1158329 0.1143573 0.1134489 0.1129995 0.113128 0.1139442 0.1153062 0.1168258 0.1180887
 0.1189153 0.1193322 0.1192888 0.118446 0.1161328 0.1115635 0.1044747 0.09570357 0.08690785 0.07959875
 0.074479 0.07146481 0.06997915 0.06927012 0.06879513 0.0684934 0.06868677 0.0697033 0.07159799 0.07419648
 0.0772865 0.08062994 0.08384772 0.08653659 0.08857779 0.09016457 0.09147339 0.09245653 0.09298132 0.09302117
 0.0926681 0.09205693 0.09130983 0.09049381 0.08958842 0.08851727 0.08728049 0.08607902 0.08521749 0.08482383
 0.08474504 0.0847549 0.08475068 0.08472127 0.08466458 0.08458778 0.08450884 0.08445972 0.08452585 0.08480534
 0.08527775 0.08578938 0.08619462 0.08645236 0.08659106 0.08661073 0.08640319 0.08583789 0.08501674 0.08429524
 0.0838486 0.0833672 0.0824548 0.08123109 0.08026774 0.07996483 0.08019738 0.08054285 0.08066809 0.08049661
 0.08019091 0.08006723 0.08038554 0.08105384</values></Ydata></ScSm><ScRf><Ydata ylabel="Single channel"><values byteorder="INTEL" format="FLOAT32" numvalues="1820"> 0.06058703 0.0607393 0.06083055 0.06086107 0.06085645 0.06086306 0.06092919 0.06107488 0.0612742 0.06146724
 0.06159946 0.0616579 0.06166279 0.06163018 0.06157072 0.06152644 0.06156681 0.06172219 0.06193635 0.06209979
 0.062136 0.06207167 0.0620241 0.06208487 0.06219549 0.06216819 0.06186756 0.06136859 0.06090263 0.06064114
 0.06059209 0.06074468 0.06118203 0.06186051 0.06236567 0.06221096 0.06144918 0.06070223 0.06046911 0.06064685
 0.06082018 0.06074205 0.06041097 0.05997888 0.0597952 0.0603121 0.06164041 0.06318337 0.06385077 0.06274656
 0.05980859 0.05601272 0.05301245 0.05225083 0.05394361 0.05679018 0.05895116 0.05951518 0.05893482 0.05809755
 0.05736984 0.05670856 0.05628018 0.05650126 0.05746594 0.05855021 0.05873005 0.05745925 0.05531893 0.05360441
 0.05314133 0.05376702 0.0550213 0.05664898 0.05790149 0.0571389 0.05344198 0.04865228 0.04655147 0.04926791
 0.05500631 0.05980321 0.06105268 0.05896954 0.05544203 0.05246449 0.05137758 0.0525066 0.05511497 0.05801893
 0.0603022 0.06134489 0.06065957 0.05832016 0.05538204 0.05336972 0.05333842 0.05545942 0.05898382 0.06231157
 0.06371988 0.06263456 0.06000986 0.05732157 0.05559949 0.05542911 0.0570895 0.06026237 0.06401936 0.06736161
 0.06962347 0.07053602 0.07028718 0.06940702 0.06836392 0.06747796 0.06719727 0.06782673 0.06879853 0.06888682
 0.06754225 0.06562849 0.06453442 0.06473762 0.06542078 0.06546135 0.06456853 0.06310599 0.06097934 0.05760336
 0.05324858 0.04941231 0.04732256 0.04699971 0.04814532 0.05061858 0.05338179 0.05443853 0.05301448 0.05095333
 0.05088853 0.05343536 0.05686924 0.05923281 0.06014961 0.06069528 0.06200803 0.06412441 0.06583299 0.0655894
 0.06304803 0.05993043 0.0588134 0.06059738 0.06363403 0.06575105 0.06654668 0.06715523 0.06827004 0.06907226
 0.06808703 0.06493883 0.06128945 0.05980216 0.06181587 0.06600499 0.06934426 0.06934381 0.06572324 0.06047766
 0.05632702 0.0548332 0.05598434 0.05923652 0.06411395 0.06965634 0.07416779 0.07616344 0.07544371 0.07302167
 0.06996296 0.06639718 0.06206361 0.05794809 0.05648958 0.05928068 0.06503104 0.07064124 0.07396653 0.0748837
 0.0740858 0.07176255 0.06780875 0.06311743 0.06000212 0.06040176 0.06354911 0.06640364 0.06683371 0.06556047
 0.06460036 0.06474878 0.06528065 0.06550036 0.06574716 0.0668268 0.06885795 0.07097216 0.07215047 0.07214554
 0.07152273 0.07100216 0.07080443 0.07049045 0.06958297 0.06852371 0.06861701 0.07059985 0.07362567 0.07613362
 0.07741427 0.07786535 0.07794073 0.07734649 0.07545874 0.07249063 0.06996821 0.0695986 0.07161944 0.07464726
 0.07711299 0.07839276 0.07866946 0.07836406 0.07784706 0.0773177 0.07686745 0.07673576 0.07724899 0.07834528
 0.07946958 0.0801302 0.08030221 0.08016977 0.07976935 0.07907297 0.07825218 0.0776758 0.07764007 0.0781481
 0.07896189 0.07981456 0.08049978 0.08082859 0.08069809 0.08024135 0.07975209 0.07941729 0.07924565 0.0792475
 0.07950223 0.07999764 0.08054729 0.08094579 0.08113343 0.08116929 0.08111264 0.08097991 0.0807862 0.08059555
 0.08052199 0.08064876 0.08092651 0.08120586 0.08141308 0.08162405 0.08190031 0.08213353 0.08215806 0.08197312
 0.08175442 0.08166251 0.08171474 0.08183268 0.08193375 0.08194321 0.08177906 0.08142102 0.08101191 0.08080846
 0.08097624 0.08147063 0.08212349 0.08276443 0.08325025 0.08349784 0.08354709 0.08351794 0.08347056 0.08336297
 0.08316007 0.08293586 0.08284967 0.08302587 0.08344278 0.08393952 0.0843437 0.08458114 0.08467709 0.08471666
 0.08480793 0.08499767 0.0851984 0.08527094 0.08519948 0.08511987 0.08515637 0.08528242 0.08536579 0.08532599
 0.08522753 0.08521426 0.0853581 0.08559333 0.08580542 0.0859572 0.08610716 0.08631252 0.08652893 0.0866265
 0.086528 0.08631375 0.08614285 0.0860846 0.08609112 0.08612683 0.08623476 0.08644301 0.08667617 0.08681753
 0.08683776 0.08681893 0.08684929 0.08692047 0.08694386 0.08685438 0.08667832 0.08650484 0.08641365 0.08642866
 0.08651321 0.08659473 0.08660868 0.08653943 0.08642343 0.08630991 0.08622429 0.08617778 0.08620284 0.08634405
 0.08658682 0.08681107 0.08686025 0.08668271 0.08639468 0.08618107 0.08612734 0.08615468 0.08611635 0.08594076
 0.08567616 0.0854203 0.08523309 0.08511141 0.0850199 0.08493496 0.08487396 0.08488878 0.0850096 0.08517814
 0.08526012 0.0851588 0.08491078 0.08464645 0.08446868 0.08439332 0.08437945 0.08437753 0.08436568 0.0843711
 0.0844344 0.0845324 0.08457652 0.08451636 0.08440676 0.0843502 0.08441058 0.08458822 0.08482026 0.08499163
 0.08500887 0.08489551 0.08477599 0.08474842 0.08480573 0.08488765 0.08496324 0.08503864 0.08512026 0.08520874
 0.08532077 0.08548722 0.08572064 0.08599202 0.08624223 0.08641952 0.08652081 0.08660579 0.08675843 0.08701865
 0.0873488 0.08766866 0.08792134 0.08811003 0.08827887 0.08846144 0.08865502 0.0888519 0.08907706 0.08936421
 0.08970145 0.09003583 0.09033424 0.09061071 0.09089165 0.09118172 0.09147377 0.09177689 0.09212272 0.09253393
 0.09297808 0.09336593 0.09362143 0.09375666 0.09386772 0.09406136 0.09438332 0.09478358 0.09513647 0.0953366
 0.09540913 0.09549447 0.0956928 0.09596019 0.0961987 0.09641054 0.0966979 0.09711691 0.09759001 0.09798082
 0.09822652 0.09838085 0.09854168 0.09874715 0.09894504 0.09906827 0.09912742 0.09919979 0.09933174 0.09950148
 0.09969426 0.09995627 0.1003276 0.1007591 0.101148 0.1014369 0.1016407 0.1017958 0.101922 0.1020211
 0.1020831 0.1021061 0.1021232 0.1021838 0.1022905 0.1023865 0.1024293 0.1024477 0.1025045 0.1026349
 0.1028437 0.1031275 0.1034596 0.103778 0.104039 0.104282 0.1045884 0.1049597 0.1052851 0.1054619
 0.1055101 0.1055266 0.1055615 0.1056027 0.1056611 0.1057963 0.1060448 0.1063724 0.1067201 0.1070633
 0.1074099 0.10776 0.1080834 0.1083284 0.1084538 0.1084636 0.1084196 0.1084144 0.1085242 0.1087679
 0.1090991 0.1094397 0.109729 0.109938 0.1100459 0.1100406 0.1099648 0.1099286 0.1100232 0.1102176
 0.1103726 0.1103611 0.1101504 0.1097734 0.1092623 0.10864 0.107955 0.1072929 0.106741 0.1063477
 0.1061252 0.1060913 0.1062898 0.1067421 0.1073851 0.1080879 0.1087332 0.1092483 0.1095597 0.1095762
 0.1092576 0.1086708 0.1079493 0.107213 0.1065323 0.1059237 0.1053532 0.1047798 0.104244 0.1039027
 0.10395 0.1045013 0.1055409 0.106938 0.1084834 0.1099495 0.11118 0.1121536 0.1129547 0.113675
 0.1143535 0.1150026 0.1156493 0.1163125 0.1169595 0.1175309 0.1180092 0.1184318 0.1188368 0.1192257
 0.1195744 0.1198592 0.1200779 0.1202626 0.1204522 0.1206346 0.1207429 0.1207323 0.1206336 0.1205102
 0.1203826 0.1202149 0.1199542 0.119576 0.1191205 0.1187134 0.1185416 0.1187714 0.1194572 0.1205126
 0.1217733 0.1230947 0.124383 0.1255517 0.1265007 0.1271719 0.1276053 0.1279093 0.1281806 0.1284645
 0.1287662 0.1290745 0.1293763 0.1296674 0.1299539 0.1302477 0.1305617 0.1308987 0.131235 0.1315284
 0.1317588 0.131963 0.1322136 0.1325539 0.1329539 0.1333392 0.1336698 0.1339748 0.1342966 0.1346189
 0.1348854 0.1350788 0.1352455 0.1354471 0.1357161 0.1360515 0.1364176 0.1367473 0.1369866 0.1371473
 0.1372939 0.1374794 0.1377087 0.1379611 0.1382211 0.1384821 0.13874 0.1390016 0.1392887 0.1396122
 0.139938 0.1402004 0.1403667 0.1404781 0.1406111 0.140804 0.1410318 0.1412477 0.1414375 0.1416352
 0.1418876 0.1422016 0.142528 0.1428005 0.1429897 0.143118 0.1432314 0.1433665 0.1435385 0.1437446
 0.14397 0.1441955 0.144408 0.1446088 0.1448086 0.1450154 0.1452287 0.1454444 0.1456586 0.1458685
 0.1460735 0.1462771 0.1464881 0.1467218 0.1469939 0.1472993 0.1476006 0.1478518 0.1480359 0.1481722
 0.1482918 0.1484171 0.1485601 0.1487253 0.1489105 0.1491091 0.1493153 0.1495272 0.1497447 0.1499658
 0.1501837 0.1503921 0.1505915 0.1507885 0.1509907 0.1512062 0.1514403 0.1516853 0.1519216 0.1521349
 0.152328 0.1525148 0.1527049 0.1528989 0.153092 0.1532815 0.1534693 0.1536568 0.1538404 0.1540179
 0.1541951 0.1543796 0.1545714 0.1547641 0.1549547 0.155147 0.155347 0.1555551 0.1557643 0.1559657
 0.1561577 0.1563467 0.1565405 0.1567412 0.156946 0.1571506 0.1573528 0.1575549 0.1577598 0.1579665
 0.1581704 0.1583663 0.1585517 0.1587301 0.1589106 0.1591015 0.1593034 0.1595113 0.1597192 0.1599239
 0.160126 0.1603283 0.1605306 0.1607316 0.1609356 0.1611502 0.1613744 0.1615979 0.1618139 0.1620233
 0.1622294 0.1624348 0.1626427 0.1628555 0.1630736 0.1632961 0.1635187 0.1637328 0.1639338 0.1641248
 0.1643089 0.1644847 0.164652 0.1648165 0.1649866 0.1651678 0.1653585 0.1655502 0.1657383 0.1659279
 0.1661243 0.1663238 0.1665222 0.1667224 0.1669289 0.1671405 0.1673528 0.1675612 0.1677618 0.167957
 0.1681548 0.1683592 0.1685681 0.1687776 0.1689833 0.1691813 0.1693759 0.169576 0.169783 0.1699901
 0.1701949 0.1704009 0.1706121 0.1708304 0.1710545 0.1712752 0.1714849 0.1716878 0.1718927 0.1721017
 0.1723132 0.1725254 0.1727353 0.1729425 0.1731524 0.1733669 0.173582 0.173797 0.1740142 0.1742295
 0.1744376 0.1746417 0.1748461 0.1750506 0.1752578 0.1754721 0.1756912 0.1759117 0.1761344 0.1763555
 0.1765681 0.1767774 0.1769902 0.1771882 0.177318 0.1772646 0.176758 0.1752642 0.1719631 0.1659092
 0.1564081 0.1434523 0.1278774 0.1110674 0.09444252 0.07908482 0.06563537 0.05438469 0.04540707 0.03863824
 0.03393314 0.03117145 0.03035685 0.03170737 0.03576408 0.04307603 0.05297978 0.06250922 0.06754485 0.06606545
 0.06008185 0.05380495 0.05014756 0.0493174 0.05007058 0.05134198 0.05279178 0.05461495 0.05715004 0.06049427
 0.06448241 0.06909904 0.07468435 0.08149558 0.08917795 0.09691276 0.1041242 0.1109294 0.1178576 0.1252065
 0.1327285 0.1398775 0.1462457 0.1517602 0.1565908 0.1609626 0.1650321 0.168874 0.1725294 0.176003
 0.179178 0.1817798 0.1835133 0.184291 0.1843369 0.1840559 0.183793 0.1837023 0.1837975 0.1840582
 0.1844687 0.1850087 0.185655 0.1863844 0.1871692 0.1879806 0.1887993 0.1896077 0.1903823 0.1911047
 0.1917695 0.1923745 0.1929169 0.1934037 0.193853 0.1942806 0.1946901 0.1950742 0.195425 0.1957478
 0.1960616 0.196376 0.1966786 0.1969531 0.1972011 0.1974363 0.1976661 0.1978883 0.1980993 0.1983011
 0.1985017 0.1987099 0.1989275 0.1991496 0.1993715 0.1995902 0.1998014 0.2000012 0.2001893 0.200369
 0.2005466 0.20073 0.2009234 0.201123 0.2013225 0.2015193 0.2017122 0.2018988 0.2020801 0.2022613
 0.2024478 0.2026414 0.2028404 0.2030409 0.2032432 0.2034553 0.2036805 0.2039042 0.2041104 0.2043045
 0.2045062 0.2047233 0.2049487 0.2051719 0.2053817 0.2055642 0.2057151 0.2058512 0.2060042 0.206199
 0.2064325 0.2066733 0.2068922 0.207091 0.2072912 0.2075027 0.2077132 0.2079052 0.2080768 0.2082525
 0.2084647 0.2087171 0.2089793 0.2092272 0.2094655 0.2097029 0.2099364 0.2101656 0.2103925 0.2105988
 0.2107599 0.2108908 0.2110556 0.2113173 0.2116725 0.2120425 0.2123429 0.2125628 0.2127604 0.212993
 0.213275 0.213569 0.2137795 0.2138146 0.2137227 0.2137164 0.2139817 0.2144932 0.2150675 0.2155531
 0.2159205 0.2162138 0.2164724 0.2166932 0.2168352 0.2168693 0.2168447 0.2169027 0.2171789 0.2176643
 0.218199 0.218634 0.2189475 0.2191859 0.2193787 0.2195397 0.2196399 0.2195525 0.2191837 0.2187298
 0.218638 0.2191767 0.2201275 0.2210127 0.2215679 0.2218832 0.2221431 0.2224006 0.2226174 0.2227016
 0.2224096 0.2214882 0.2201638 0.2192745 0.2195757 0.2209786 0.2226965 0.2240346 0.2248228 0.225234
 0.225484 0.2256925 0.2257903 0.2255215 0.2247339 0.2237634 0.2233447 0.2239326 0.22519 0.2263477
 0.2269857 0.2272534 0.2274587 0.2277251 0.2279106 0.2275632 0.2261763 0.2239338 0.2220911 0.2220926
 0.224158 0.2270196 0.2291762 0.2301845 0.2305506 0.2306284 0.2301021 0.2285636 0.2261318 0.2234011
 0.2212539 0.2207445 0.2224022 0.2253463 0.2277818 0.2287745 0.2290483 0.2297971 0.2312593 0.2327211
 0.233441 0.233227 0.2323138 0.2309484 0.2292669 0.227668 0.2270485 0.2281685 0.2307286 0.2334696
 0.2353322 0.2362621 0.2366773 0.2362403 0.2335895 0.2279763 0.2213391 0.2177829 0.2199539 0.2262686
 0.2326169 0.2364064 0.237987 0.2387253 0.2391706 0.2389021 0.2367706 0.2315201 0.2237613 0.2172302
 0.2162621 0.2214975 0.2291607 0.2345923 0.235425 0.2318297 0.2256863 0.22003 0.2178063 0.2200798
 0.2255722 0.2319297 0.2371335 0.2400466 0.240399 0.2386881 0.2361531 0.2344712 0.2345341 0.2351271
 0.2338583 0.2301778 0.2262913 0.2239248 0.2216614 0.2175677 0.213441 0.2136197 0.2193405 0.2266651
 0.2309067 0.2313782 0.2305317 0.2294851 0.2260983 0.2180487 0.2072357 0.1998594 0.2010021 0.2093518
 0.2183768 0.2227287 0.2224893 0.2212328 0.2212538 0.2212296 0.218078 0.210982 0.2034266 0.2002775
 0.2026084 0.2067391 0.2085844 0.2069042 0.2018748 0.193788 0.1853995 0.1827659 0.1901409 0.2047716
 0.2190511 0.2267746 0.2254063 0.2147271 0.1977307 0.1824556 0.1780679 0.1866427 0.2006325 0.209808
 0.2093725 0.2008052 0.1874903 0.1724145 0.1595697 0.154383 0.1604728 0.175983 0.1935847 0.2040922
 0.2015448 0.1878767 0.1733789 0.1692917 0.1775407 0.1893779 0.195168 0.1931295 0.1879672 0.1848348
 0.1863729 0.192216 0.1993766 0.2050605 0.2088952 0.2097563 0.2027695 0.1851595 0.1639836 0.1514792
 0.1523619 0.1614139 0.1732682 0.1872334 0.2009184 0.2069154 0.2011481 0.1905782 0.1872743 0.1955924
 0.2084469 0.2159878 0.2153598 0.2112163 0.2085401 0.2073373 0.2051376 0.2027502 0.2044574 0.2121097
 0.2218993 0.2286137 0.2310547 0.2315669 0.2320599 0.2325588 0.2325474 0.2318416 0.2305093 0.2289964
 0.2279928 0.2276511 0.2274394 0.2269405 0.2258329 0.2226725 0.2151974 0.2035097 0.1921112 0.1863413
 0.1867128 0.1892714 0.1914751 0.193679 0.1936484 0.1850133 0.1656813 0.144746 0.1358735 0.1440975
 0.1620697 0.1784389 0.1865504 0.185015 0.17431 0.1569832 0.1403742 0.1343214 0.1431352 0.1614614
 0.1800072 0.1935543 0.201552 0.2036729 0.1988261 0.1883226 0.1771505 0.1711228 0.1733349 0.1828004
 0.194783 0.2020235 0.1982934 0.1845799 0.1718082 0.1727837 0.1887631 0.2073682 0.2165023 0.2166019
 0.2157259 0.2170221 0.2171676 0.2151798 0.2159451 0.223523 0.2351802 0.2440893 0.2453287 0.237824
 0.2237054 0.2087997 0.2011227 0.2044246 0.213864 0.2212202 0.2228234 0.2190845 0.2096581 0.1954773
 0.1838888 0.1842356 0.1970365 0.2127614 0.2226555 0.2267139 0.2297173 0.2330099 0.2328769 0.2261832
 0.2156119 0.2080168 0.2076496 0.2124452 0.217538 0.2203962 0.2208519 0.2181978 0.2116301 0.2035674
 0.1996708 0.2039206 0.2144744 0.2253636 0.2318085 0.2331986 0.2316966 0.2294295 0.2270614 0.2239614
 0.219617 0.2154714 0.2146459 0.2186074 0.2248323 0.2294035 0.2314986 0.2336587 0.2377968 0.2425641
 0.2449946 0.243742 0.2403523 0.2379068 0.2385484 0.2417881 0.244874 0.2451376 0.2425314 0.2399155
 0.2404264 0.244483 0.2497272 0.2537043 0.2558655 0.2570581 0.2580794 0.2589804 0.2590312 0.2572721
 0.2538618 0.2508742 0.2508345 0.2542184 0.2589967 0.2627335 0.2645612 0.2650583 0.2649112 0.2641959
 0.2627711 0.2609224 0.2593753 0.2587175 0.2589778 0.2597844 0.2607534 0.2616459 0.2623357 0.2628004
 0.2631037 0.2633096 0.2634424 0.2635328 0.2636145 0.2636534 0.2635804 0.2634394 0.2634092 0.2636076
 0.2639364 0.2641864 0.2642286 0.2640174 0.2634783 0.2625334 0.2612396 0.2597742 0.2582375 0.2565823
 0.2548488 0.2534297 0.2529601 0.2538421 0.2558703 0.2583513 0.2605762 0.2621812 0.2631526 0.2636433
 0.2638355 0.2638845 0.2638789 0.2638249 0.2636915 0.2634727 0.2631947 0.2628787 0.2625269 0.26215
 0.261783 0.2614577 0.2611676 0.2608716 0.2605251 0.2601054 0.2596186 0.2590933 0.2585552 0.257995
 0.257365 0.2566153 0.2557384 0.2547835 0.2538335 0.2529594 0.2521739 0.2514288 0.2506628 0.2498429
 0.2489455 0.2479273 0.2467688 0.2455552 0.2444582 0.2435987 0.2429438 0.2423532 0.2417008 0.2409319
 0.2400474 0.2390798 0.2380742 0.2370564 0.2360148 0.2349198 0.2337462 0.2324761 0.2311022 0.2296381
 0.2281088 0.2265309 0.2249159 0.223282 0.2216294 0.2198956 0.2179514 0.2156437 0.2128431 0.2094689
 0.2055062 0.2010245 0.1961859 0.1912125 0.1863219 0.1816761 0.1773823 0.1735249 0.1701852 0.1674382
 0.16534 0.163922 0.1631985 0.1631781 0.163859 0.1652096 0.1671595 0.1696055 0.1724116 0.1754075
 0.1784095 0.1812592 0.183867 0.1862393 0.1884559 0.1905833 0.1926035 0.1944431 0.1960582 0.1974618
 0.1986817 0.1997294 0.2006117 0.2013461 0.2019552 0.2024576 0.2028691 0.2032078 0.2034917 0.2037312
 0.2039316 0.2041053 0.2042744 0.2044599 0.204674 0.204921 0.2051977 0.2055022 0.2058516 0.2062748
 0.2067746 0.2073187 0.2078794 0.2084607 0.2090762 0.2097285 0.2104288 0.2112187 0.2121484 0.2132405
 0.2144791 0.2158258 0.2172242 0.2185922 0.2198297 0.2208528 0.2216197 0.2221266 0.2223949 0.2224672
 0.2223912 0.2221941 0.2218841 0.2214787 0.2210101 0.2204991 0.219943 0.2193367 0.2186875 0.2180036
 0.2172885 0.2165549 0.2158343 0.215153 0.2145052 0.2138644 0.2132218 0.2125931 0.2119852 0.2113817
 0.2107707 0.2101678 0.2095962 0.2090567 0.2085267 0.2079741 0.2073606 0.2066469 0.2058139 0.2048768
 0.2038617 0.2027716 0.2015853 0.2002896 0.198899 0.1974378 0.1959174 0.1943362 0.192692 0.1909804
 0.1891835 0.1872765 0.1852648 0.1832111 0.1812131 0.1793488 0.1776411 0.176064 0.1745746 0.1731465
 0.1717841 0.1705028 0.1693009 0.1681587 0.1670587 0.1659961 0.164975 0.1640076 0.163114 0.1623143
 0.1616183 0.1610189 0.1604939 0.1600237 0.1596079 0.1592586 0.1589893 0.158818 0.1587591 0.1587913
 0.1588528 0.1588832 0.1588563 0.158777 0.1586714 0.1585732 0.1584991 0.158439 0.1583742 0.1582813
 0.1581123 0.1577903 0.1572293 0.1563586 0.1551522 0.1536461 0.151918 0.1500652 0.1482124 0.1465034
 0.1450445 0.1438738 0.1429833 0.1423335 0.1418495 0.1414569 0.141137 0.1409339 0.1409086 0.1410692
 0.1413154 0.1414855 0.1415122 0.1415106 0.141674 0.1421117 0.1427958 0.1436016 0.1443805 0.1450338
 0.1455364 0.1458943 0.146119 0.146238 0.1462783 0.1462387 0.1461146 0.1459245 0.145682 0.1453807
 0.1450191 0.1446008 0.1441167 0.1435621 0.1429437 0.1422538 0.141478 0.1406125 0.1396241 0.1384557
 0.1371629 0.1359958 0.1352664 0.1351489 0.1356016 0.1364185 0.1373741 0.1383667 0.1393597 0.1401803
 0.1405744 0.1405963 0.1408029 0.141852 0.1438776 0.1463375 0.148486 0.1499185 0.1506372 0.1507608
 0.1503573 0.1494662 0.1480789 0.146137 0.1436711 0.1408489 0.1378294 0.1347302 0.1317436 0.1290842
 0.1268399 0.125002 0.1235569 0.1225574 0.1221527 0.1219761 0.1201214 0.11415 0.1048533 0.09790963
 0.09908791 0.1077508 0.117317 0.1222202 0.1223397 0.1206712 0.1192555 0.1183581 0.117834 0.1178246
 0.1184862 0.1197011 0.1210906 0.1222496 0.1230022 0.123377 0.1233241 0.1224751 0.1200903 0.1153213
 0.1078928 0.09868604 0.08944398 0.08176623 0.07639047 0.0732051 0.07159653 0.07080252 0.07028336 0.06998523
 0.07023373 0.0713346 0.0733061 0.07597356 0.07915657 0.08261852 0.08594541 0.08872426 0.09086803 0.0925882
 0.09403001 0.09509595 0.09564046 0.09567353 0.09532434 0.09472212 0.09397049 0.09314828 0.09225093 0.0911846
 0.08993211 0.08871354 0.08785464 0.08747233 0.08739716 0.08740597 0.08740333 0.08737737 0.08732215 0.08724006
 0.08715159 0.0871033 0.08718616 0.087482 0.08795664 0.08845647 0.08882868 0.08902419 0.08909398 0.08907236
 0.08884822 0.0882594 0.08739647 0.08663166 0.08615322 0.08564352 0.08469032 0.08341347 0.0824064 0.08208507
 0.08231167 0.08264394 0.08274946 0.08256073 0.0822432 0.08212075 0.08245964 0.08314814 0.08368683 0.08366255
</values></Ydata></ScRf><Data_Parameters_AB><parameter name="DPF">1</parameter><parameter name="NPT">3497</parameter><parameter name="FXV">3996</parameter><parameter name="LXV">500</parameter><parameter name="CSF">1</parameter><parameter name="MXY">0.123474955558777</parameter><parameter name="MNY">-0.103415571153164</parameter><parameter name="DAT">02/06/2022</parameter><parameter name="TIM">11:52:33.930 (GMT+2)</parameter><parameter name="DXU">WN</parameter></Data_Parameters_AB><AB__Qtest><MainReport name="Quality Test Report"><Header><Line><Legend>Test result ok/not ok [1/0]: </Legend><Value>0</Value></Line><Line><Legend>Method file: </Legend><Value>C:\Users\Public\Documents\Bruker\OPUS_8.2.28\QT\IRBT_v3_default.QT</Value></Line></Header><Matrix><Line><Legend></Legend><Legend>min</Legend><Legend>max</Legend><Legend>measured</Legend></Line><Line><Value>Absorption (X-Range 1):</Value><Value>0.400000</Value><Value>2.000000</Value><Value>0.158015</Value></Line><Line><Value>Noise (X-Range 4):</Value><Value></Value><Value>0.000300</Value><Value>0.000062</Value></Line><Line><Value>Signal/Noise (X-Range 2):</Value><Value>200.000000</Value><Value></Value><Value>34.590208</Value></Line><Line><Value>Signal/Noise (X-Range 3):</Value><Value>40.000000</Value><Value></Value><Value>24.779631</Value></Line><Line><Value>Water vapour (X-Range 5):</Value><Value></Value><Value>0.000300</Value><Value>0.000062</Value></Line><Line><Value>Signal/Water (X-Range 2):</Value><Value>100.000000</Value><Value></Value><Value>34.292318</Value></Line><Line><Value>Signal/Water (X-Range 3):</Value><Value>20.000000</Value><Value></Value><Value>24.566230</Value></Line><Line><Value>Fringes (X-Range 6):</Value><Value></Value><Value>0.000100</Value><Value>0.000058</Value></Line></Matrix></MainReport></AB__Qtest><Data_Parameters_ScSm><parameter name="DPF">1</parameter><parameter name="NPT">1814</parameter><parameter name="FXV">3996.33169228125</parameter><parameter name="LXV">499.541461535156</parameter><parameter name="CSF">1</parameter><parameter name="MXY">0.306349575519562</parameter><parameter name="MNY">0.0381474047899246</parameter><parameter name="DAT">02/06/2022</parameter><parameter name="TIM">11:52:33.930 (GMT+2)</parameter><parameter name="DXU">WN</parameter></Data_Parameters_ScSm><Data_Parameters_ScRf><parameter name="DPF">1</parameter><parameter name="NPT">1820</parameter><parameter name="FXV">4004.04661832813</parameter><parameter name="LXV">495.683998511719</parameter><parameter name="CSF">1</parameter><parameter name="MXY">0.265058279037476</parameter><parameter name="MNY">0.0303568542003632</parameter><parameter name="DAT">02/06/2022</parameter><parameter name="TIM">11:52:07.221 (GMT+2)</parameter><parameter name="DXU">WN</parameter></Data_Parameters_ScRf><Optic_Parameters_Rf><parameter name="APR">0</parameter><parameter name="APT">Open</parameter><parameter name="BMS">KBr</parameter><parameter name="DTC">RT-DLaTGS_IR-Biotyper [Microplate reader]</parameter><parameter name="HPF">0</parameter><parameter name="LPF">10.0</parameter><parameter name="LPV">4000</parameter><parameter name="PGR">0</parameter><parameter name="RCH">Module port</parameter><parameter name="RDX">0</parameter><parameter name="SRC">MIR</parameter><parameter name="VEL">10.0</parameter><parameter name="SON">Off</parameter></Optic_Parameters_Rf><Acquisition_Parameters_Rf><parameter name="ADT">1</parameter><parameter name="AQM">DD</parameter><parameter name="CFE">0</parameter><parameter name="COR">0</parameter><parameter name="DEL">0</parameter><parameter name="DLY">0</parameter><parameter name="HFW">8000</parameter><parameter name="LFW">0</parameter><parameter name="NSR">32</parameter><parameter name="PLF">AB</parameter><parameter name="RES">6</parameter><parameter name="RGN">-1</parameter><parameter name="STR">0</parameter><parameter name="TCL">MakeCompatibleScalar (0, {WSV=1.000000, ARV=0});</parameter><parameter name="TDL">37</parameter><parameter name="RPO">0</parameter></Acquisition_Parameters_Rf><FT_-_Parameters_Rf><parameter name="APF">B3</parameter><parameter name="HFQ">500</parameter><parameter name="LFQ">4000</parameter><parameter name="NLI">0</parameter><parameter name="PHR">24</parameter><parameter name="PHZ">ML</parameter><parameter name="SPZ">NO</parameter><parameter name="ZFF">1</parameter></FT_-_Parameters_Rf><Optic_Parameters_><parameter name="APR">0</parameter><parameter name="APT">Open</parameter><parameter name="BMS">KBr</parameter><parameter name="CHN">Module port</parameter><parameter name="DTC">RT-DLaTGS_IR-Biotyper [Microplate reader]</parameter><parameter name="HPF">0</parameter><parameter name="LPF">10.0</parameter><parameter name="LPV">4000</parameter><parameter name="PGN">0</parameter><parameter name="RDX">0</parameter><parameter name="SRC">MIR</parameter><parameter name="VEL">10.0</parameter><parameter name="SON">Off</parameter></Optic_Parameters_><FT_-_Parameters_><parameter name="APF">B3</parameter><parameter name="HFQ">500</parameter><parameter name="LFQ">4000</parameter><parameter name="NLI">0</parameter><parameter name="PHR">24</parameter><parameter name="PHZ">ML</parameter><parameter name="SPZ">NO</parameter><parameter name="ZFF">1</parameter></FT_-_Parameters_><Acquisition_Parameters_><parameter name="ADT">1</parameter><parameter name="AQM">DD</parameter><parameter name="CFE">0</parameter><parameter name="COR">0</parameter><parameter name="DEL">0</parameter><parameter name="DLY">0</parameter><parameter name="HFW">8000</parameter><parameter name="LFW">0</parameter><parameter name="NSS">32</parameter><parameter name="PLF">AB</parameter><parameter name="RES">6</parameter><parameter name="SOT">0</parameter><parameter name="TCL">MakeCompatibleScalar (0, {WSV=1.000000, ARV=0});</parameter><parameter name="TDL">37</parameter><parameter name="SPO">0</parameter><parameter name="SGN">-1</parameter></Acquisition_Parameters_><Instrument_Parameters_Rf><parameter name="HFL">15800.168544</parameter><parameter name="LFL">0</parameter><parameter name="LWN">15800.168544</parameter><parameter name="ABP">32197</parameter><parameter name="SSP">1</parameter><parameter name="ARG">2</parameter><parameter name="ASG">2</parameter><parameter name="ASS">32</parameter><parameter name="GFW">16</parameter><parameter name="GBW">16</parameter><parameter name="BFW">0</parameter><parameter name="BBW">0</parameter><parameter name="PKA">7266</parameter><parameter name="PKL">4996</parameter><parameter name="PRA">7449</parameter><parameter name="PRL">5001</parameter><parameter name="P2A">1</parameter><parameter name="P2L">1</parameter><parameter name="P2R">1</parameter><parameter name="P2K">1</parameter><parameter name="DAQ">0</parameter><parameter name="AG2">1</parameter><parameter name="SSM">1</parameter><parameter name="RSN">26105</parameter><parameter name="CRR">0</parameter><parameter name="SRT">1654170727.222</parameter><parameter name="DUR">19.6379852294922</parameter><parameter name="TSC">28.8</parameter><parameter name="MVD">0.224128559231758</parameter><parameter name="AN1">0.225866290495231</parameter><parameter name="AN2">0</parameter><parameter name="VSN">2.485 Apr  4 2017</parameter><parameter name="SRN">0085</parameter><parameter name="CAM">0</parameter><parameter name="INS">IR-Biotyper</parameter><parameter name="FOC">69</parameter><parameter name="RDY">1</parameter><parameter name="ARS">32</parameter></Instrument_Parameters_Rf><Sample_Parameters_><parameter name="BLD"></parameter><parameter name="CNM">Admin</parameter><parameter name="CPY"></parameter><parameter name="DPM"></parameter><parameter name="EXP">IRBT_v3_32Scans.XPM</parameter><parameter name="LCT"></parameter><parameter name="SFM">Microplate, HTS-XT</parameter><parameter name="SNM">220602-1054_RTF49M (D_21)_F6_175cb598-35e7-4c9d-bee9-b14c631f2596.0</parameter><parameter name="XPP">C:\Users\Public\Documents\Bruker\OPUS_8.2.28\XPM</parameter><parameter name="IST">OK</parameter><parameter name="CPG">1252</parameter><parameter name="UID">e1974970-b9c6-4899-994f-77f87f5f20e4</parameter></Sample_Parameters_><Instrument_Parameters_><parameter name="HFL">15800.168544</parameter><parameter name="LFL">0</parameter><parameter name="LWN">15800.168544</parameter><parameter name="ABP">32197</parameter><parameter name="SSP">1</parameter><parameter name="ASG">2</parameter><parameter name="ARG">2</parameter><parameter name="ASS">32</parameter><parameter name="GFW">16</parameter><parameter name="GBW">16</parameter><parameter name="BFW">0</parameter><parameter name="BBW">0</parameter><parameter name="PKA">8135</parameter><parameter name="PKL">4988</parameter><parameter name="PRA">8375</parameter><parameter name="PRL">4993</parameter><parameter name="P2A">1</parameter><parameter name="P2L">1</parameter><parameter name="P2R">1</parameter><parameter name="P2K">1</parameter><parameter name="DAQ">0</parameter><parameter name="AG2">1</parameter><parameter name="SSM">1</parameter><parameter name="RSN">13678</parameter><parameter name="CRR">0</parameter><parameter name="SRT">1654170753.931</parameter><parameter name="DUR">19.6369934082031</parameter><parameter name="TSC">28.8</parameter><parameter name="MVD">0.237856402993202</parameter><parameter name="AN1">0.225814287864436</parameter><parameter name="AN2">0</parameter><parameter name="VSN">2.485 Apr  4 2017</parameter><parameter name="SRN">0085</parameter><parameter name="CAM">0</parameter><parameter name="INS">IR-Biotyper</parameter><parameter name="FOC">69</parameter><parameter name="RDY">1</parameter></Instrument_Parameters_><History/></OPUSDataFile>
