<?xml version="1.0" encoding="UTF-8" ?>
<OPUSDataFile><AB><Ydata ylabel="Absorbance Units"><values byteorder="INTEL" format="FLOAT32" numvalues="3497"> -0.05354395 -0.05359785 -0.05363618 -0.0536597 -0.05365669 -0.05362658 -0.05356839 -0.05348322 -0.05338299 -0.05327131
 -0.05317497 -0.05309673 -0.05306279 -0.05306811 -0.05311672 -0.05319599 -0.05328776 -0.05338192 -0.05345901 -0.05351807
 -0.05355095 -0.05356361 -0.05355634 -0.05353706 -0.0535078 -0.05347778 -0.05344925 -0.05342991 -0.05342174 -0.05342583
 -0.05344305 -0.0534646 -0.05349002 -0.05350634 -0.05351358 -0.05350796 -0.05349172 -0.05347582 -0.05346268 -0.05346775
 -0.05348936 -0.05353256 -0.05359171 -0.0536606 -0.05373296 -0.05379928 -0.05385607 -0.05389654 -0.05392312 -0.05393421
 -0.05393684 -0.05393406 -0.05392708 -0.05391844 -0.05389796 -0.05386411 -0.05381096 -0.05373655 -0.05365561 -0.05356883
 -0.05350234 -0.05345681 -0.05344782 -0.05347338 -0.05353003 -0.05361449 -0.05371398 -0.05382497 -0.05393354 -0.05403604
 -0.05411993 -0.05418463 -0.05422347 -0.05424091 -0.05423838 -0.05421932 -0.05418609 -0.05414004 -0.0540803 -0.05401579
 -0.05394667 -0.05388995 -0.05384811 -0.05383461 -0.05385108 -0.05390469 -0.05399592 -0.0541306 -0.05430789 -0.05452168
 -0.05476465 -0.05499228 -0.05519207 -0.05528779 -0.05528816 -0.05516538 -0.05495954 -0.05472541 -0.0544916 -0.05431969
 -0.05420015 -0.05415183 -0.05413836 -0.05414575 -0.05414378 -0.05411164 -0.05406165 -0.05398789 -0.05393421 -0.05390853
 -0.05393014 -0.05400507 -0.05409659 -0.05420302 -0.05427115 -0.05430173 -0.05429411 -0.05425636 -0.05424057 -0.05424893
 -0.05432298 -0.05444675 -0.05460684 -0.05477656 -0.05490074 -0.05497451 -0.05496175 -0.05489329 -0.05478144 -0.05465397
 -0.05453196 -0.05442175 -0.05432719 -0.05426282 -0.05422895 -0.05425822 -0.0543572 -0.05454174 -0.05481935 -0.05513171
 -0.05547678 -0.05568028 -0.05573854 -0.05555246 -0.0551538 -0.0547047 -0.0542224 -0.0538633 -0.05360806 -0.05348648
 -0.05347641 -0.05355797 -0.05370406 -0.05388121 -0.05405305 -0.05417776 -0.05423862 -0.05420294 -0.05411284 -0.05397085
 -0.05383986 -0.05374198 -0.05368727 -0.05368507 -0.05370064 -0.05373112 -0.05375303 -0.05376461 -0.05377061 -0.05377132
 -0.0537733 -0.05377472 -0.0537665 -0.05374697 -0.0537038 -0.05363917 -0.05355181 -0.05344548 -0.05332423 -0.05319579
 -0.05306785 -0.05295538 -0.05287286 -0.05283097 -0.05284265 -0.05290145 -0.05301175 -0.05314924 -0.05331094 -0.05346582
 -0.05360878 -0.05371558 -0.05378321 -0.05379542 -0.05375097 -0.05364516 -0.05347938 -0.05327488 -0.05303574 -0.05279943
 -0.0525681 -0.05237014 -0.05220454 -0.05208372 -0.05200415 -0.05196732 -0.05196455 -0.05198874 -0.05202504 -0.05205991
 -0.05208012 -0.0520727 -0.05203753 -0.05196883 -0.05188131 -0.05177549 -0.05167503 -0.05158367 -0.05152068 -0.05148954
 -0.05148944 -0.05152082 -0.05156121 -0.05160916 -0.05163733 -0.05164666 -0.05162848 -0.05158814 -0.05154204 -0.05149403
 -0.05146347 -0.05144827 -0.05145414 -0.0514763 -0.05151019 -0.05155515 -0.05160527 -0.05167369 -0.05176388 -0.0518952
 -0.05208164 -0.05231158 -0.05259582 -0.05286139 -0.053101 -0.0532318 -0.05323973 -0.05312555 -0.05288769 -0.05257946
 -0.05220389 -0.05181221 -0.05140974 -0.05105902 -0.05076214 -0.05056632 -0.05045848 -0.05043481 -0.05046793 -0.05050803
 -0.0505349 -0.05049289 -0.05040652 -0.0502728 -0.05013285 -0.05001605 -0.04992659 -0.04987807 -0.04984476 -0.04982458
 -0.04978465 -0.0497179 -0.04960879 -0.04945226 -0.04927085 -0.04906507 -0.04888387 -0.04872935 -0.04864231 -0.04861946
 -0.04866365 -0.04875919 -0.04884867 -0.0489113 -0.0488514 -0.04868818 -0.04840007 -0.04804363 -0.04768945 -0.0473528
 -0.04708124 -0.0468407 -0.04662545 -0.0464012 -0.04614694 -0.04586682 -0.04555303 -0.04524046 -0.0449346 -0.0446586
 -0.04441831 -0.04419694 -0.04399465 -0.04375445 -0.04347427 -0.0431109 -0.04267336 -0.04220662 -0.04172147 -0.04129233
 -0.04090871 -0.04058047 -0.04029395 -0.04002799 -0.0397761 -0.03952594 -0.03926186 -0.03896981 -0.03862744 -0.03821163
 -0.03773141 -0.03718147 -0.03658878 -0.03596558 -0.03529886 -0.0345885 -0.03381782 -0.03298131 -0.03211086 -0.03120779
 -0.03031521 -0.02943458 -0.02858851 -0.02777802 -0.02702179 -0.02632013 -0.02568772 -0.02511735 -0.02459946 -0.0241222
 -0.02366118 -0.02320387 -0.02273308 -0.02221565 -0.02162286 -0.02091175 -0.02002902 -0.019022 -0.0178797 -0.0167241
 -0.01559604 -0.01453162 -0.01355062 -0.0126162 -0.0117264 -0.01085023 -0.009985086 -0.009124833 -0.008270128 -0.007438056
 -0.006629403 -0.005864578 -0.005131586 -0.004398953 -0.003637506 -0.002739444 -0.001715352 -0.0005089699 0.0007899904 0.00207988
 0.003317234 0.00440654 0.005403338 0.006309441 0.007195255 0.008097487 0.009033214 0.01002331 0.01102302 0.01202758
 0.01299744 0.01392286 0.01482956 0.01571725 0.01666116 0.01766371 0.01876907 0.01996843 0.02121501 0.0224969
 0.02373499 0.02493235 0.02605591 0.02711635 0.02811751 0.02907041 0.02998739 0.03088651 0.03178828 0.03270406
 0.03365086 0.03461766 0.03560053 0.03660247 0.03761527 0.03868675 0.03982646 0.0410597 0.04239888 0.04376518
 0.04515518 0.04646232 0.04768454 0.04880453 0.04983001 0.05081316 0.05176038 0.05272872 0.05371455 0.05474153
 0.05579259 0.05684641 0.05788931 0.05888628 0.05985484 0.06078967 0.06173757 0.06272922 0.06378643 0.06493851
 0.06613969 0.06738637 0.06862038 0.06982641 0.07099169 0.07211065 0.07320365 0.0742714 0.07534171 0.07641554
 0.07750706 0.07861456 0.07972997 0.08085228 0.08197152 0.08309094 0.08421626 0.0853468 0.08648762 0.08762734
 0.0887529 0.08985533 0.09091824 0.0919485 0.09294316 0.09391876 0.0948819 0.09584375 0.09681091 0.09777911
 0.09874991 0.09970878 0.1006529 0.1015843 0.102502 0.1034355 0.104386 0.1053728 0.1063919 0.1074205
 0.1084538 0.1094555 0.1104302 0.1113713 0.1122877 0.1131955 0.1140953 0.1149973 0.1158917 0.1167742
 0.1176331 0.1184561 0.1192484 0.1200024 0.1207547 0.1215117 0.1223159 0.1231804 0.1241074 0.125102
 0.1261256 0.1271762 0.1282155 0.1292423 0.1302386 0.1312049 0.1321359 0.1330324 0.133894 0.1347225
 0.1355215 0.1362945 0.1370487 0.1377907 0.1385323 0.139277 0.1400349 0.1407992 0.141568 0.1423365
 0.1430992 0.1438665 0.1446422 0.1454263 0.1462241 0.147003 0.147759 0.1484718 0.1491373 0.1497945
 0.1504459 0.1511512 0.1519081 0.1527246 0.1535885 0.1544492 0.1552971 0.1560748 0.1567867 0.1574098
 0.1579628 0.1584601 0.1589213 0.1593728 0.1598175 0.160266 0.1607137 0.1611568 0.161608 0.1620681
 0.1625578 0.1630839 0.1636429 0.1642372 0.1648401 0.1654498 0.1660411 0.1666128 0.1671523 0.1676617
 0.1681519 0.1686305 0.1691398 0.1696826 0.170296 0.1709611 0.171662 0.1723682 0.1730268 0.173629
 0.1741407 0.1745829 0.1749576 0.1752917 0.1755987 0.1758938 0.1761845 0.176477 0.1767738 0.1770773
 0.1773881 0.177707 0.1780338 0.1783699 0.1787152 0.1790739 0.1794462 0.1798372 0.1802451 0.1806654
 0.1810911 0.181499 0.1818826 0.1822133 0.1824987 0.1827326 0.1829378 0.1831342 0.1833387 0.1835731
 0.1838294 0.1841133 0.184398 0.1846773 0.1849262 0.1851362 0.185307 0.1854346 0.1855489 0.1856517
 0.1857708 0.1859066 0.186044 0.1861795 0.1862711 0.1863214 0.1863179 0.1862731 0.1862192 0.1861651
 0.1861483 0.1861623 0.1862168 0.1862955 0.1863854 0.1864749 0.1865486 0.1866126 0.1866615 0.1867196
 0.1867931 0.1869016 0.1870551 0.1872368 0.1874502 0.1876404 0.1878038 0.1878894 0.1878953 0.1878208
 0.1876707 0.1874907 0.1872831 0.1870848 0.1868894 0.1866933 0.1864982 0.1862994 0.1861172 0.1859829
 0.1859024 0.1859071 0.1859526 0.1860238 0.1860639 0.186032 0.1859363 0.1857592 0.1855747 0.1853955
 0.1852763 0.1852324 0.185241 0.185304 0.1853487 0.1853714 0.1853107 0.1851683 0.1849341 0.1846182
 0.1842627 0.1838809 0.1835366 0.1832346 0.1830201 0.182879 0.1828161 0.1827985 0.182797 0.1827804
 0.1827122 0.1825955 0.1824148 0.1822102 0.1819903 0.1817921 0.1816271 0.1815035 0.1814233 0.1813935
 0.1814136 0.1815128 0.1816921 0.1819655 0.1823273 0.1827294 0.1831577 0.1835155 0.1837951 0.1839142
 0.1838889 0.1837032 0.1834031 0.1830429 0.1826767 0.1823859 0.1821842 0.1821218 0.182141 0.1822381
 0.182319 0.1823503 0.1822768 0.182072 0.1817612 0.1813389 0.1808827 0.1803981 0.1799481 0.1795353
 0.1791707 0.1788523 0.1785632 0.1783044 0.1780718 0.1778699 0.1777129 0.177599 0.1775369 0.177508
 0.1774961 0.1774639 0.1773703 0.1771781 0.1768408 0.1763648 0.175726 0.1749994 0.174196 0.1734148
 0.1726824 0.1720444 0.171516 0.1710713 0.1707113 0.1703813 0.1700784 0.1697535 0.1694061 0.1690091
 0.16857 0.1681095 0.1676409 0.167224 0.1668547 0.1665644 0.1663154 0.1660675 0.1657819 0.1653921
 0.1649093 0.1643061 0.1636509 0.1629634 0.1623221 0.1617616 0.1613131 0.1609998 0.1607737 0.1606386
 0.1604862 0.1603083 0.1600143 0.1596001 0.1590648 0.1584153 0.1577259 0.1570028 0.156319 0.1556713
 0.1550877 0.1545607 0.1540886 0.1536631 0.153274 0.1529076 0.1525479 0.1521772 0.1517772 0.1513399
 0.1508533 0.1503284 0.1497634 0.1491831 0.1485918 0.1480131 0.1474519 0.1469177 0.1464123 0.1459291
 0.1454677 0.1450135 0.1445656 0.1441116 0.1436521 0.1431839 0.1427102 0.1422394 0.1417734 0.1413231
 0.1408833 0.1404526 0.1400194 0.1395698 0.1390975 0.1385906 0.1380565 0.1374936 0.1369169 0.1363315
 0.1357464 0.1351656 0.1345866 0.1340098 0.13343 0.1328464 0.1322633 0.1316811 0.1311133 0.1305599
 0.1300258 0.1295082 0.1289941 0.1284808 0.1279511 0.1274072 0.1268443 0.1262675 0.125683 0.1250943
 0.1245069 0.1239265 0.123355 0.1228101 0.1222975 0.1218443 0.1214641 0.1211622 0.1209519 0.120777
 0.1206378 0.1204295 0.1201419 0.1197051 0.1191153 0.1184088 0.117594 0.1167853 0.1159895 0.1153075
 0.1147297 0.1142834 0.1139405 0.1136562 0.1133942 0.1130752 0.1126837 0.11216 0.1115418 0.1108269
 0.1100903 0.1093731 0.1087152 0.1081501 0.1076458 0.1072027 0.1067781 0.1063598 0.1059677 0.1056
 0.1053175 0.1051236 0.1050325 0.1050376 0.1050622 0.1050934 0.105014 0.1048267 0.1044692 0.1039728
 0.1033741 0.1027114 0.1020695 0.1014504 0.1008987 0.1003742 0.09985797 0.09932496 0.0987438 0.09815297
 0.09755399 0.09700512 0.09652805 0.09611825 0.09578419 0.09546372 0.09515057 0.09481561 0.09445698 0.0941158
 0.0937945 0.0935386 0.09334201 0.09319261 0.09308054 0.09296206 0.09283772 0.09268574 0.09251454 0.09233046
 0.09213417 0.09193341 0.09171323 0.09146833 0.09117418 0.09081559 0.09037971 0.08985057 0.08925869 0.08859905
 0.0879515 0.08732551 0.08679815 0.08638117 0.08607635 0.08588451 0.08571947 0.08557521 0.0853472 0.08503873
 0.08461067 0.08408251 0.08350064 0.0828865 0.08231774 0.0817956 0.08136282 0.08099578 0.08068707 0.08040602
 0.0801252 0.07982805 0.07949401 0.07913337 0.07873962 0.07835008 0.07797084 0.07764072 0.07737116 0.07715303
 0.07699043 0.07681554 0.07662467 0.07636319 0.0760342 0.07566932 0.07527871 0.07494581 0.07466617 0.07447334
 0.07434472 0.07423805 0.07414713 0.07403086 0.07392405 0.07384521 0.07384176 0.073962 0.07422013 0.07464264
 0.07520822 0.07591544 0.07674246 0.0776832 0.07872683 0.07987396 0.08109599 0.08239444 0.08369212 0.08498508
 0.08615199 0.08718627 0.08796906 0.08850218 0.08873066 0.08867306 0.08836284 0.08782778 0.08715058 0.08635166
 0.08550164 0.08461016 0.08371228 0.08281998 0.08194939 0.08112168 0.08035078 0.07965633 0.07904962 0.0785374
 0.07812409 0.07780747 0.07758657 0.07746752 0.07744894 0.07756076 0.07780447 0.07822645 0.07882766 0.07963359
 0.08063697 0.08180822 0.08313237 0.0845383 0.08601549 0.08750075 0.08899544 0.0904735 0.0919401 0.09339355
 0.09483203 0.0962549 0.09765622 0.09903132 0.100381 0.101704 0.1030048 0.1042878 0.1055381 0.1067589
 0.1078995 0.1089572 0.109866 0.1106218 0.1111912 0.1115758 0.1117981 0.1118642 0.111823 0.111678
 0.1114651 0.111191 0.1108829 0.110564 0.1102819 0.1100653 0.1099731 0.1100023 0.1101816 0.1104626
 0.11083 0.1112315 0.1116383 0.112042 0.1124301 0.1128313 0.1132485 0.1137059 0.1142078 0.1147519
 0.1153385 0.1159399 0.1165531 0.1171292 0.1176641 0.118105 0.1184543 0.1186888 0.1188243 0.1188858
 0.1188944 0.1189023 0.1189105 0.1189555 0.1189863 0.1189944 0.1188673 0.1185509 0.1179226 0.1169125
 0.1154905 0.1136112 0.1114035 0.1088643 0.1062326 0.1035297 0.1009719 0.09857465 0.096425 0.09452051
 0.09282166 0.09131965 0.08993602 0.08866946 0.0874747 0.08635307 0.08528947 0.0842751 0.08328966 0.08232097
 0.08134167 0.08035856 0.07936196 0.07838096 0.07742801 0.07653031 0.07570285 0.07495489 0.07429169 0.07371579
 0.07322685 0.07283648 0.07254479 0.07237364 0.07232437 0.07241625 0.07264807 0.07300441 0.07347386 0.0739751
 0.07448898 0.07489275 0.07518312 0.07527787 0.07521148 0.07499696 0.0746949 0.07438314 0.07411017 0.07394879
 0.07390531 0.07401232 0.07423004 0.0745564 0.0749306 0.0753355 0.07573234 0.07610808 0.07646929 0.07681591
 0.07715489 0.07748859 0.07773157 0.07787274 0.07770669 0.07721996 0.0762046 0.07468405 0.07261941 0.07008876
 0.06726398 0.06423486 0.06124764 0.05833476 0.05564959 0.05314806 0.05084926 0.04868773 0.04662328 0.04463517
 0.04269847 0.04083933 0.03905991 0.03738496 0.03582251 0.03436492 0.03301405 0.03174024 0.03054182 0.02939061
 0.02828576 0.02721349 0.02617466 0.02516863 0.02419666 0.02326309 0.02236947 0.02152156 0.02072176 0.01997818
 0.01928913 0.0186598 0.01807561 0.01752958 0.01699765 0.01646241 0.01591261 0.01533377 0.014747 0.01415103
 0.01358698 0.01306326 0.01260083 0.01220614 0.01185417 0.01154424 0.01122959 0.01090916 0.01056581 0.0102036
 0.009846432 0.009495091 0.009169565 0.008858675 0.008542907 0.008211324 0.007829416 0.007406396 0.006934828 0.006441102
 0.005945526 0.005468684 0.005030511 0.004635169 0.004289907 0.003990174 0.003737418 0.003520531 0.003340272 0.00317067
 0.003009924 0.002826674 0.002618376 0.002374443 0.002095647 0.001801655 0.001494946 0.001204012 0.000928212 0.0006805495
 0.0004575682 0.0002564288 7.457348E-05 -9.4071E-05 -0.0002507025 -0.0003991589 -0.0005402542 -0.0006772246 -0.0008062681 -0.0009277409
 -0.001031925 -0.001113332 -0.001171522 -0.001200646 -0.001226042 -0.001248701 -0.001307898 -0.001409445 -0.001568635 -0.001787943
 -0.002039429 -0.002320813 -0.00258407 -0.002828708 -0.003027012 -0.003184688 -0.003310498 -0.003411639 -0.003514096 -0.003617468
 -0.003735976 -0.003858983 -0.003978708 -0.004085263 -0.004162887 -0.004219444 -0.004250135 -0.004281809 -0.004323552 -0.004399316
 -0.004520443 -0.004686966 -0.004903097 -0.005149109 -0.00542393 -0.005704618 -0.005989583 -0.006260429 -0.006516423 -0.006745655
 -0.006949041 -0.007127164 -0.007283289 -0.007431921 -0.007575335 -0.007728592 -0.007889057 -0.00805954 -0.008234792 -0.008408637
 -0.008578354 -0.008738963 -0.008890474 -0.009031506 -0.009162599 -0.009283069 -0.009395983 -0.009501365 -0.009605343 -0.009709261
 -0.009816287 -0.009927525 -0.0100386 -0.01014938 -0.01025288 -0.01034882 -0.01043306 -0.0105054 -0.01056231 -0.0106036
 -0.01062525 -0.01062987 -0.01062067 -0.01060523 -0.01059865 -0.01060893 -0.01065451 -0.01073518 -0.01085995 -0.01101756
 -0.0112054 -0.01140748 -0.01161675 -0.0118207 -0.01201391 -0.01219126 -0.01234988 -0.01249451 -0.0126245 -0.01275333
 -0.01288181 -0.01302401 -0.01318027 -0.01335307 -0.01354091 -0.01373249 -0.0139261 -0.01410755 -0.01427784 -0.01443184
 -0.01457283 -0.01470508 -0.01483033 -0.01495362 -0.0150728 -0.01518795 -0.01529598 -0.01539413 -0.01548324 -0.01556191
 -0.01563588 -0.01570603 -0.01577923 -0.01585695 -0.01594379 -0.0160407 -0.01614814 -0.01626637 -0.01639167 -0.01652375
 -0.01665602 -0.01678814 -0.01691425 -0.01703484 -0.01714834 -0.01725673 -0.0173643 -0.0174741 -0.01759446 -0.01772664
 -0.01787752 -0.01804211 -0.01822009 -0.0184007 -0.01857702 -0.01874115 -0.01888628 -0.01901515 -0.01912591 -0.0192285
 -0.0193246 -0.01942135 -0.01952021 -0.019622 -0.01972699 -0.01983288 -0.01993955 -0.02004406 -0.02014623 -0.02024288
 -0.0203344 -0.02042032 -0.02050228 -0.0205847 -0.02066914 -0.02076138 -0.02086079 -0.0209696 -0.02108489 -0.02120499
 -0.02132669 -0.02144782 -0.02156491 -0.02167639 -0.02177817 -0.02186858 -0.02194556 -0.02200744 -0.0220595 -0.02210147
 -0.02214489 -0.02219058 -0.02224797 -0.02231735 -0.02239962 -0.02249413 -0.02259543 -0.02270297 -0.02281143 -0.02292069
 -0.02302782 -0.02313264 -0.02323334 -0.02332991 -0.02342133 -0.02350859 -0.02359222 -0.02367326 -0.02375275 -0.02383071
 -0.02390734 -0.02398274 -0.02405669 -0.0241308 -0.02420552 -0.02428089 -0.02435728 -0.02443139 -0.02450301 -0.02456938
 -0.02463046 -0.02468766 -0.0247412 -0.0247937 -0.02484474 -0.02489357 -0.02493994 -0.02498223 -0.02502145 -0.02505859
 -0.0250953 -0.0251345 -0.02517664 -0.02522329 -0.02527408 -0.02532954 -0.02538813 -0.02544989 -0.02551123 -0.02557132
 -0.02562627 -0.02567457 -0.02571754 -0.02575467 -0.0257925 -0.02583156 -0.02587562 -0.02592475 -0.02597556 -0.02602784
 -0.0260776 -0.02612612 -0.0261774 -0.02623329 -0.02630237 -0.02638355 -0.02647986 -0.02658644 -0.02669793 -0.02680962
 -0.02691422 -0.02701122 -0.02709732 -0.02717581 -0.02724698 -0.02731541 -0.02738254 -0.0274518 -0.02752444 -0.02760056
 -0.02768063 -0.02776142 -0.02784271 -0.02792167 -0.02799821 -0.02807269 -0.02814528 -0.02821782 -0.02829013 -0.02836232
 -0.02843396 -0.02850362 -0.02857149 -0.02863703 -0.02870123 -0.02876545 -0.02883 -0.02889624 -0.02896246 -0.02902834
 -0.02909084 -0.02914804 -0.02919965 -0.02924429 -0.02928674 -0.02932753 -0.02937202 -0.02942133 -0.02947595 -0.02953618
 -0.029598 -0.02966123 -0.02972289 -0.0297831 -0.029842 -0.02989967 -0.02995666 -0.0300127 -0.03006711 -0.03012002
 -0.03017103 -0.03022123 -0.03027221 -0.03032431 -0.03037935 -0.03043449 -0.0304889 -0.03053823 -0.03057956 -0.03061276
 -0.0306361 -0.03065552 -0.03067165 -0.03069127 -0.03071561 -0.03074719 -0.03078644 -0.03083281 -0.03088623 -0.03094356
 -0.03100439 -0.03106312 -0.0311195 -0.031169 -0.03121228 -0.03124921 -0.0312802 -0.03130642 -0.0313271 -0.03134099
 -0.03134931 -0.03135141 -0.03135315 -0.03135822 -0.03137171 -0.03139848 -0.0314352 -0.03148321 -0.03153234 -0.03158058
 -0.03162061 -0.03165044 -0.03167186 -0.0316845 -0.03169733 -0.0317108 -0.03173338 -0.03176482 -0.03180572 -0.03185461
 -0.03190432 -0.03195378 -0.03199534 -0.03202984 -0.03205489 -0.03207291 -0.03208644 -0.03209741 -0.03210918 -0.03212156
 -0.03213581 -0.03215006 -0.0321634 -0.03217565 -0.03218595 -0.03219727 -0.03221008 -0.03222707 -0.03224893 -0.03227507
 -0.03230551 -0.03233909 -0.0323758 -0.03241716 -0.03246333 -0.03251658 -0.03257697 -0.03264556 -0.03272308 -0.03281163
 -0.03291394 -0.03303598 -0.03318259 -0.0333627 -0.03358225 -0.03385035 -0.03417185 -0.03455374 -0.03499567 -0.0354999
 -0.03606232 -0.03668094 -0.03735745 -0.03809016 -0.03889167 -0.03976423 -0.0407129 -0.04174039 -0.04281551 -0.04393611
 -0.04502263 -0.0460665 -0.04694958 -0.04766128 -0.04807949 -0.04820655 -0.04797667 -0.04741848 -0.04654644 -0.0454287
 -0.04416002 -0.04283512 -0.04159188 -0.04048291 -0.03959604 -0.03892678 -0.0384967 -0.03828349 -0.03828804 -0.03847449
 -0.03884703 -0.03930948 -0.03985862 -0.04033475 -0.04072146 -0.04093876 -0.04098285 -0.04091825 -0.04075056 -0.04056596
 -0.04036173 -0.04016826 -0.0399764 -0.03977084 -0.0395468 -0.03928172 -0.03898598 -0.03866289 -0.03833076 -0.03801352
 -0.03771425 -0.03744819 -0.0371952 -0.03694971 -0.03669269 -0.03641241 -0.03611622 -0.03580141 -0.03549039 -0.0351867
 -0.03490138 -0.03463632 -0.03438822 -0.03415699 -0.03393849 -0.03373294 -0.03354193 -0.0333656 -0.03320583 -0.03306202
 -0.03293295 -0.03281821 -0.03271623 -0.03262688 -0.03254977 -0.03248358 -0.03242736 -0.03237807 -0.03233361 -0.03229031
 -0.03224566 -0.03219788 -0.03214555 -0.03208911 -0.0320282 -0.03196454 -0.03189817 -0.03183163 -0.03176501 -0.03170249
 -0.03164431 -0.03159587 -0.03155717 -0.03153027 -0.03151429 -0.0315055 -0.03150266 -0.03149942 -0.03149553 -0.03148721
 -0.03147483 -0.031457 -0.03143503 -0.03140897 -0.03138253 -0.03135803 -0.03133977 -0.03133181 -0.03133193 -0.03134193
 -0.03135142 -0.03135834 -0.03135448 -0.03133737 -0.03130991 -0.0312717 -0.03123236 -0.03119239 -0.03115691 -0.03112569
 -0.03109702 -0.03107033 -0.03104149 -0.0310105 -0.03097485 -0.0309356 -0.03089331 -0.03085062 -0.03081167 -0.03077937
 -0.03075941 -0.03075073 -0.03075609 -0.03076794 -0.03078388 -0.03079489 -0.03079648 -0.03078646 -0.03076244 -0.03073031
 -0.0306904 -0.0306496 -0.03060873 -0.03057039 -0.03053478 -0.0305022 -0.0304727 -0.03044723 -0.03042568 -0.03040821
 -0.03039409 -0.03038082 -0.03036767 -0.03035117 -0.03033223 -0.03031003 -0.03028771 -0.03026826 -0.03025484 -0.03025182
 -0.0302577 -0.03027446 -0.0302941 -0.03031464 -0.03032787 -0.0303306 -0.03032264 -0.03030263 -0.03027849 -0.03025072
 -0.0302272 -0.03020841 -0.0301962 -0.03019041 -0.03018897 -0.03019166 -0.0301961 -0.03020238 -0.03020972 -0.03021798
 -0.03022676 -0.03023517 -0.03024183 -0.03024544 -0.03024345 -0.0302368 -0.0302246 -0.03021058 -0.03019648 -0.03018517
 -0.03017876 -0.03017554 -0.03017571 -0.03017603 -0.03017563 -0.03017524 -0.03017461 -0.03017779 -0.03018499 -0.03019757
 -0.03021525 -0.03023413 -0.03025385 -0.03026987 -0.03028286 -0.03029277 -0.03030058 -0.03030906 -0.03031757 -0.03032651
 -0.03033434 -0.03033884 -0.03034064 -0.03033858 -0.03033651 -0.03033604 -0.03034062 -0.03035238 -0.03037111 -0.03039757
 -0.03042871 -0.03046437 -0.03050042 -0.03053641 -0.03056968 -0.03060006 -0.03062923 -0.03065746 -0.03068911 -0.03072384
 -0.03076217 -0.03080256 -0.03083961 -0.03087224 -0.03089452 -0.03090767 -0.03091046 -0.03090599 -0.03089695 -0.03088707
 -0.03088021 -0.03087875 -0.03088575 -0.03089961 -0.03092142 -0.03094482 -0.03096861 -0.030987 -0.03099819 -0.03100384
 -0.03100349 -0.03100515 -0.03100928 -0.03102172 -0.03104224 -0.03106794 -0.031098 -0.03112537 -0.03115067 -0.03117212
 -0.03119173 -0.03121414 -0.03123924 -0.03126995 -0.03130279 -0.03133446 -0.03136331 -0.03138541 -0.03140517 -0.03142336
 -0.03144601 -0.03147675 -0.03151428 -0.03156032 -0.03160543 -0.03164844 -0.03168084 -0.03170109 -0.03171073 -0.03170967
 -0.03170829 -0.03170703 -0.03171492 -0.03173123 -0.03175606 -0.03178794 -0.03182102 -0.03185489 -0.0318854 -0.0319131
 -0.03193711 -0.03195795 -0.03197581 -0.03199132 -0.03200489 -0.03201745 -0.0320297 -0.03204199 -0.03205455 -0.03206782
 -0.03208181 -0.03209763 -0.03211549 -0.03213595 -0.03215918 -0.03218427 -0.03221115 -0.03223991 -0.03227061 -0.03230495
 -0.03234258 -0.03238235 -0.03242305 -0.03245905 -0.03248999 -0.03251119 -0.03252507 -0.03253296 -0.03253933 -0.03255009
 -0.03256829 -0.03259936 -0.03264154 -0.0326965 -0.0327577 -0.03282335 -0.03288694 -0.03294607 -0.03299867 -0.03304385
 -0.03308229 -0.033114 -0.03313916 -0.03315775 -0.03317162 -0.03318114 -0.03319348 -0.03320908 -0.03323534 -0.03327073
 -0.03331394 -0.03336162 -0.03340416 -0.03344018 -0.03346138 -0.03347191 -0.03347224 -0.0334704 -0.03347346 -0.03348648
 -0.03351572 -0.03355822 -0.03361556 -0.03367873 -0.03374593 -0.03380894 -0.03386573 -0.03391334 -0.03395089 -0.03398082
 -0.03400317 -0.03402346 -0.03404202 -0.03406461 -0.03409132 -0.03412565 -0.0341673 -0.03421734 -0.03427463 -0.03433774
 -0.03440363 -0.03446697 -0.03452352 -0.03456535 -0.03459152 -0.03459648 -0.03458748 -0.03456539 -0.03454289 -0.03452538
 -0.03452077 -0.03453375 -0.03456022 -0.03460157 -0.03464355 -0.03468498 -0.03471238 -0.03472465 -0.03472094 -0.03470192
 -0.03468041 -0.0346575 -0.03464798 -0.03465032 -0.03466737 -0.03469466 -0.03472147 -0.03474542 -0.03475554 -0.03475619
 -0.03474713 -0.03473659 -0.03473253 -0.03473736 -0.03475716 -0.03478318 -0.03481454 -0.0348386 -0.03485089 -0.03484762
 -0.03482619 -0.0347943 -0.03475224 -0.03470961 -0.03466707 -0.03463037 -0.03459972 -0.03457924 -0.03456869 -0.03456934
 -0.03457945 -0.03459269 -0.03460744 -0.03461504 -0.03461757 -0.03461412 -0.03460898 -0.03460859 -0.03461181 -0.03462164
 -0.0346304 -0.03463409 -0.03462778 -0.03460652 -0.03457646 -0.03453737 -0.03449986 -0.03446637 -0.03444019 -0.03442254
 -0.03440794 -0.03439614 -0.03438148 -0.03436401 -0.03434595 -0.03432821 -0.03431888 -0.034318 -0.03433067 -0.0343551
 -0.03438988 -0.03443158 -0.03447447 -0.03451285 -0.03453762 -0.03454351 -0.03452045 -0.03447355 -0.03439929 -0.03431671
 -0.0342321 -0.0341623 -0.03411539 -0.03408998 -0.03408891 -0.03409621 -0.03411071 -0.0341166 -0.03411256 -0.0340943
 -0.03406213 -0.03402415 -0.03398126 -0.03394458 -0.03391318 -0.03388966 -0.03387098 -0.03384991 -0.03382497 -0.03378917
 -0.03374459 -0.03369092 -0.0336308 -0.03356664 -0.03349969 -0.03343071 -0.03336271 -0.03329653 -0.0332367 -0.03318515
 -0.03314232 -0.03310939 -0.03308052 -0.03305535 -0.03302727 -0.03299565 -0.03296075 -0.03292296 -0.03289149 -0.03286688
 -0.03285863 -0.03286484 -0.0328836 -0.03291012 -0.03293055 -0.03294086 -0.0329255 -0.03288699 -0.03282022 -0.03273484
 -0.0326375 -0.03253656 -0.0324401 -0.03234896 -0.0322665 -0.03218712 -0.03210993 -0.03203004 -0.03194577 -0.03185837
 -0.03176733 -0.0316791 -0.03159399 -0.03152005 -0.03145765 -0.03141383 -0.03138752 -0.03137531 -0.03137248 -0.03135668
 -0.03132418 -0.03124924 -0.03114005 -0.030998 -0.03083724 -0.03067883 -0.03052715 -0.0303946 -0.0302783 -0.03018005
 -0.0300961 -0.03002653 -0.02996337 -0.02990576 -0.02984083 -0.02976592 -0.02967283 -0.02955975 -0.02942743 -0.02927569
 -0.0291084 -0.02892594 -0.02873611 -0.02853988 -0.02834889 -0.02816329 -0.02799042 -0.02782891 -0.02767885 -0.02753834
 -0.02740509 -0.02727433 -0.02714 -0.02699497 -0.02682817 -0.02664297 -0.02643436 -0.02622085 -0.02601015 -0.02581208
 -0.02563494 -0.02546333 -0.02529678 -0.02511399 -0.02491075 -0.02468893 -0.02444786 -0.0242061 -0.02396391 -0.02372141
 -0.02347524 -0.02319605 -0.02288269 -0.02250962 -0.0220882 -0.02163729 -0.02116882 -0.02072082 -0.02028387 -0.01986459
 -0.01944125 -0.01899276 -0.01851321 -0.01798682 -0.01743422 -0.01686052 -0.01628367 -0.01571644 -0.01513799 -0.0145542
 -0.01389502 -0.01315615 -0.01224616 -0.01115616 -0.009869397 -0.008388259 -0.006808519 -0.005131444 -0.003416455 -0.00164352
 0.0002485318 0.002277583 0.004539585 0.007010989 0.009710294 0.01255834 0.01546469 0.01833907 0.02105905 0.02358694
 0.02585015 0.02788469 0.02967991 0.03131147 0.03280302 0.03419326 0.0355013 0.03669493 0.03777161 0.03871024
 0.03950731 0.04019655 0.04077936 0.04128229 0.04170246 0.04202512 0.04224723 0.04234573 0.04232305 0.04217157
 0.04190172 0.04152333 0.04106454 0.04056631 0.04005497 0.03957526 0.03912517 0.03871643 0.03834193 0.03799847
 0.03769132 0.03742033 0.03719478 0.03701271 0.03690293 0.03686209 0.03697966 0.03726168 0.03779591 0.03858222
 0.03953313 0.04063639 0.04173475 0.04284145 0.04393767 0.04504372 0.04621562 0.04745196 0.04877792 0.05018182
 0.05164912 0.05319589 0.05481651 0.05657703 0.05851656 0.06069357 0.06317403 0.06586727 0.06878691 0.07171341
 0.07459933 0.07732285 0.07985333 0.08220927 0.08438703 0.08646584 0.08845181 0.09049113 0.09260003 0.09500719
 0.09769357 0.1007295 0.1040018 0.1071788 0.1102305 0.1128955 0.1152979 0.117511 0.1196268 0.1217797
 0.123967 0.1262301 0.1285361 0.1308748 0.1332396 0.1356349 0.138016 0.1403798 0.1426563 0.1448288
 0.1469215 0.1489339 0.1509212 0.1528833 0.1547522 0.1565194 0.1580667 0.1594077 0.1605413 0.1614996
 0.1623866 0.1632118 0.1640584 0.1648865 0.1656662 0.1663845 0.1670018 0.1675646 0.1680992 0.1686201
 0.169153 0.1696512 0.1701062 0.170475 0.1707426 0.1709117 0.1709772 0.1709767 0.1709117 0.170837
 0.1707548 0.1706892 0.1706368 0.1705718 0.1704917 0.1703697 0.1702105 0.1700111 0.169785 0.169556
 0.1693428 0.1691837 0.1690856 0.1690685 0.1691363 0.1692899 0.1695572 0.1699507 0.1704932 0.171205
 0.1720471 0.1730172 0.1740652 0.175179 0.1763742 0.1776502 0.1790454 0.1805611 0.1821924 0.1839364
 0.1857595 0.1876621 0.1896283 0.191661 0.1937604 0.1959288 0.1981684 0.2004877 0.2028991 0.2054125
 0.2080461 0.2107938 0.2136611 0.2166252 0.2196772 0.2227975 0.2259759 0.229211 0.2325017 0.2358461
 0.2392491 0.2426645 0.246091 0.249454 0.2527507 0.2559722 0.2591234 0.2622672 0.2653858 0.2684345
 0.2713641 0.2739745 0.2762762 0.2781791 0.2797529 0.2810756 0.2821653 0.2830801 0.2837891 0.2842851
 0.2845511 0.2845938 0.2843374 0.283794 0.2827338 0.2810944 0.2787871 0.2757325 0.2724425 0.2689555
 0.2656313 0.2624828 0.259304 0.256085 0.2526423 0.2489982 0.2451801 0.2412051 0.2371681 0.2330135
 0.2287024 0.22409 0.2188951 0.2131548 0.2066511 0.1999353 0.1933667 0.1872403 0.1819144 0.1770231
 0.1725122 0.1680999 0.1636761 0.1593061 0.1549764 0.1508434 0.1469261 0.1432124 0.1397011 0.1362632
 0.1328968 0.1295326 0.1261875 0.1229129 0.1197279 0.1167283 0.1139053 0.1112938 0.1088594 0.1065666
 0.1043827 0.1022644 0.1001775 0.09809807 0.09595851 0.0937193 0.09133518 0.0887347 0.08612484 0.08351522
 0.08122689 0.07934073 0.07777558 0.07654131 0.07537486 0.07426382 0.07308346 0.07184064 0.07057284 0.06929155
 0.06808328 0.06693915 0.06587132 0.06487391 0.06392644 0.06306122 0.06231478 0.06172631 0.06136394 0.06121103
 0.06128319 0.06153689 0.06194899 0.06250894 0.06320184 0.06405407 0.06505727 0.0662993 0.06777512 0.06969609
 0.07208026 0.07511023 0.07879276 0.08283252 0.08718617 0.09123364 0.09498186 0.098148 0.1007834 0.1029176
 0.1045759 0.1058175 0.1066767 0.1072112 0.107503 0.1076466 0.1077461 0.1079163 0.1081902 0.1086418
 0.1091637 0.1097322 0.1102709 0.1107419 0.1111979 0.1116372 0.1121456 0.1127325 0.1134313 0.1142438
 0.115125 0.1160711 0.1170206 0.1179796 0.1189465 0.1199412 0.1210301 0.1222277 0.1236091 0.1251519
 0.1268569 0.1286921 0.1306092 0.1326297 0.1347483 0.1370079 0.1394392 0.1420313 0.1447949 0.1476768
 0.1506596 0.1537429 0.1569161 0.1602585 0.1637802 0.1674938 0.1713995 0.1752618 0.1790602 0.1824669
 0.1854903 0.1880117 0.1900565 0.1916605 0.1928174 0.193535 0.1937877 0.1935311 0.1927664 0.191468
 0.1896737 0.1873999 0.1846898 0.1815711 0.1780659 0.1741845 0.1699497 0.1653492 0.1605055 0.1554141
 0.1503437 0.1453172 0.1405529 0.1360634 0.1318488 0.1279022 0.1241304 0.1205411 0.1171296 0.1139183
 0.1109928 0.1083467 0.1060208 0.1039643 0.1021207 0.1004285 0.0987979 0.09718888 0.09553694 0.09384286
 0.09208231 0.09029686 0.08849301 0.08671828 0.08498801 0.08331648 0.08171052 0.08015456 0.0786474 0.07718047
 0.07575319 0.074393 0.07310296 0.07193198 0.07087942 0.06996827 0.06919109 0.06853279 0.06798907 0.06754172
 0.06719162 0.06693476 0.06676597 0.06668282 0.0666661 0.06670534 0.0667694 0.06684356 0.06689063 0.06689684
 0.06682646 0.06666936 0.06639841 0.06600707 0.06548552 0.06483039 0.06406197 0.06318116 0.06223702 0.06123273
 0.06022056 0.05920363 0.05822465 0.05728946 0.0564408 0.05568478 0.0550602 0.05456186 0.05420353 0.05396414
 0.05382783 0.05376919 0.05376299 0.05379413 0.05384667 0.05391878 0.05400642 0.05411098 0.0542341 0.05436618
 0.05450773 0.05463709 0.05475233 0.05483576 0.05488619 0.05490423 0.05489084 0.05486043 0.05481406 0.05476609
 0.05471548 0.05466776 0.05461756 0.05455712 0.05447588 0.05435374 0.05418092 0.05393611 0.05362136 0.05322668
 0.05277213 0.05226063 0.05172777 0.05118347 0.05066917 0.05019682 0.04979388 0.04946924 0.04921736 0.04904058
 0.04890436 0.04880688 0.04871164 0.04861785 0.04850788 0.04838357 0.04824672 0.04810069 0.04795774 0.04782219
 0.04770957 0.04762511 0.04758404 0.04759056 0.04765718 0.04778036 0.04796522 0.04819468 0.04846381 0.04874813
 0.04903738 0.04931571 0.04957605 0.04981676 0.05003592 0.05023915 0.05042649 0.05060681 0.0507806 0.05096032
 0.05114646 0.05134871 0.05156619 0.05179837 0.05204353 0.05229494 0.05255152 0.05280793 0.05306232 0.05331063
 0.05354765 0.05376704 0.05396077 0.05412074 0.05424028 0.05431288 0.05433754 0.05431126 0.05423962 0.0541228
 0.0539689 0.05377892 0.05356093 0.05331554 0.05305194 0.05277068 0.05248177 0.05218557 0.05188916 0.05159259
 0.05129949 0.0510105 0.05073009 0.05045875 0.05020076 0.04995435 0.0497188 0.04949136 0.04926763 0.04904843
 0.04883182 0.04862279 0.04842355 0.0482381 0.04806923 0.04791585 0.04777868 0.04765355 0.04753959 0.04743575
 0.04734128 0.04726253 0.04719974 0.04716536 0.0471599 0.04719395 0.04726639 0.04737623 0.04751976 0.04768241
 0.04786095 0.0480382 0.04821716 0.04839333 0.04857564 0.04877398 0.04899245 0.04924072 0.04951038 0.04979998
 0.05009954 0.0504017 0.05071396 0.05103433 0.05138418 0.05176758 0.05219486 0.05266906 0.05317705 0.05371839
 0.05427022 0.05483142 0.05538322 0.05592426 0.05643662 0.05691864 0.05735233 0.05774085 0.05808069 0.05838174
 0.05866089 0.05892256 0.05918349 0.05943077 0.05966171 0.0598565 0.06000062 0.06008983 0.06011611 0.06009284
 0.06002128 0.05991638 0.05978047 0.05962617 0.05945424 0.05928278 0.05911284 0.05896493 0.05883962 0.05874727
 0.0586867 0.05865503 0.05865033 0.05866393 0.05869354 0.05872985 0.05876913 0.05880138 0.05882196 0.05882024
 0.05879651 0.05874372 0.05867573 0.05859393 0.05852671 0.05848338 0.05849333 0.05856743 0.05871762 0.05895064
 0.05925052 0.05961855 0.06001414 0.06043511 0.0608343 0.06121025 0.06153623 0.06181502 0.0620519 0.06225307
 0.06244436 0.06263368 0.06285311 0.06311134 0.06344023 0.06384019 0.06433055 0.06489014 0.06551292 0.06616253
 0.06681528 0.06744914 0.0680455 0.06861247 0.06914737 0.06966752 0.07017817 0.07067364 0.07115607 0.07159294
 0.07198226 0.07229806 0.07254099 0.07272564 0.0728572 0.07298128 0.07309958 0.07324605 0.07341303 0.07359911
 0.07379249 0.07397117 0.07412701 0.07424033 0.07430905 0.0743244 0.07428796 0.07419849 0.07405727 0.07386442
 0.07362121 0.07332581 0.07299031 0.07261358 0.07222594 0.07182947 0.07145962 0.07111897 0.07082902 0.07059015
 0.07040657 0.07027703 0.07019501 0.07015882 0.07015744 0.07019123 0.07025439 0.07035075 0.07048591 0.07065976
 0.07087878 0.07112874 0.071404 0.07167792 0.07193562 0.07214923 0.07230457 0.07238176 0.07237154 0.0722685
 0.07206882 0.07178132 0.07140636 0.07095376 0.07042424 0.06982177 0.06914711 0.06841318 0.06762386 0.06681331
 0.06598698 0.06518603 0.06441329 0.06369791 0.06303898 0.06244996 0.06192419 0.06146196 0.06104681 0.06066825
 0.06030084 0.05992919 0.05952569 0.05907695 0.05855957 0.05796448 0.05727775 0.05649471 0.05561265 0.05463003
 0.05355306 0.05238155 0.05113655 0.04982034 0.04847924 0.04711822 0.04579774 0.04451977 0.04332706 0.042214
 0.04118876 0.04024111 0.03935671 0.03852522 0.03772767 0.03695681 0.03619819 0.03545318 0.03471614 0.03399887
 0.03330423 0.03264477 0.03202607 0.03144878 0.03091574 0.03041331 0.02994082 0.02948056 0.02903097 0.02858696
 0.02814899 0.02773193 0.0273372 0.02698408 0.02667073 0.02640006 0.02616789 0.02596296 0.02578486 0.02562653
 0.02549158 0.02538297 0.02530067 0.02524828 0.02521676 0.02520378 0.02519408 0.02518128 0.02515243 0.02510152
 0.02502625 0.02492381 0.02480383 0.02466645 0.02452614 0.02438379 0.02425329 0.02413529 0.02404093 0.02397
 0.02392636 0.02390845 0.02391139 0.02393399 0.02397017 0.02402009 0.02408188 0.02415434 0.02423535 0.02432328
 0.02441475 0.02451243 0.0246166 0.02473121 0.02485924 0.02499824 0.02514805 0.02530622 0.0254703 0.02565198
 0.02585134 0.02608897 0.02636671 0.02669075 0.02706044 0.02745414 0.0278681 0.02826226 0.02863302 0.02894223
 0.02919047 0.02935802 0.02945133 0.02947182 0.02943011 0.02933969 0.02921237 0.02906276 0.02890179 0.02874012
 0.02858543 0.02844346 0.0283183 0.02821242 0.02812681 0.02806223 0.02801752 0.02799239 0.02798795 0.02800394
 0.02804995 0.02812658 0.02824726 0.02841114 0.02861788 0.0288634 0.02912881 0.02941092 0.0296893 0.02996635
 0.03023607 0.03050481 0.03077861 0.03106302 0.03136599 0.03168895 0.03203636 0.03240376 0.03279123 0.03319098
 0.03360132 0.03401391 0.034428 0.03483062 0.03522097 0.03558059 0.03590781 0.0361951 0.03644278 0.03666815
 0.03687328 0.03708468 0.03730116 0.03753207 0.03777301 0.03801481 0.03825692 0.03849227 0.03872623 0.03896356
 0.03920805 0.03946676 0.0397362 0.04001592 0.04030331 0.04059397 0.04089915 0.04121934 0.04157394 0.04196843
 0.04240697 0.04289322 0.04340417 0.04393894 0.04446515 0.04498149 0.04547099 0.0459348 0.04637643 0.04679752
 0.04720844 0.04760824 0.04799993 0.04838074 0.04874536 0.04909468 0.04942535 0.04974587 0.05006231 0.0503844
 0.05072252 0.05107486 0.05144639 0.05182062 0.05219472 0.05254999 0.05288073 0.05318366 0.05345581 0.05371471
 0.05396106 0.05421854 0.05448806 0.05477942 0.05509161 0.05541888 0.05576039 0.05610965 0.05646597 0.05682574
 0.0571846 0.05753261 0.0578646 0.05816601 0.05844292 0.05869156 0.05893251 0.05917784 0.05944462 0.0597478
 0.06007991 0.06044474 0.06081837 0.06119484 0.06156694 0.06193067 0.06230571 0.06269338 0.06310775 0.06354889
 0.06400024 0.06446027 0.06490622 0.06534119 0.06576856 0.06619266 0.06663122 0.06708011 0.06754099 0.06800435
 0.06845566 0.06889264 0.06930435 0.0697019 0.07008769 0.07047767 0.07088242 0.07130217 0.0717438 0.07218211
 0.0726136 0.07301435 0.07337794 0.07371502 0.07402496 0.0743389 0.0746581 0.07499526 0.07534965 0.0757175
 0.07610029 0.07650452 0.07693089 0.07738835 0.07786871 0.07836008 0.07885247 0.07932284 0.07977525 0.08020098
 0.08061974 0.08104073 0.08148512 0.08196697 0.08249189 0.08306792 0.08367952 0.08432567 0.0849875 0.08566102
 0.08634589 0.08704136 0.08775752 0.08849466 0.08925062 0.09002452 0.09080582 0.09159499 0.09238932 0.09318936
 0.09399589 0.09480826 0.09562492 0.09644649 0.09727461 0.09810583 0.09894079 0.09976526 0.1005713 0.1013426
 0.1020697 0.1027419 0.1033555 0.1038974 0.104364 0.1047472 0.1050426 0.1052709 0.1054323 0.10557
 0.1056862 0.1058138 0.1059528 0.1061165 0.1063031 0.1065132 0.1067422 0.106977 0.1072107 0.107422
 0.1076082 0.1077552 0.1078657 0.107937 0.1079726 0.1079733 0.1079446 0.1078878 0.1078117 0.1077182
 0.1076176 0.1075105 0.107414 0.1073296 0.1072775 0.1072604 0.1072751 0.1073212 0.1073652 0.1074063
 0.1074212 0.1074152 0.1074027 0.1073896 0.1074043 0.1074452 0.1075265 0.1076365 0.1077672 0.1079002
 0.1080085 0.1080939 0.1081332 0.1081877 0.108268 0.1084763 0.1088678 0.109421 0.1101663 0.1109119
 0.1116269 0.1122387 0.1127334 0.1131687 0.1135468 0.1138947 0.1142102 0.1144771 0.1146948 0.1148549
 0.1149576 0.1150028 0.1149825 0.1148778 0.1146839 0.1143803 0.1139801 0.1134856 0.112921 0.1123035
 0.111654 0.1109863 0.1103146 0.1096437 0.1089932 0.1083645 0.1077944 0.1072879 0.1068774 0.1065681
 0.1063472 0.1062139 0.1061153 0.1060483 0.1059613 0.1058518 0.1056798 0.1054426 0.1051039 0.1046776
 0.1041647 0.1036092 0.1030801 0.1026071 0.1022645 0.102014 0.1018588 0.1017347 0.1016061 0.1014458
 0.1012348 0.1009723 0.100652 0.1002943 0.09989651 0.09951562 0.0991557 0.09887017 0.0986618 0.09854236
 0.09851178 0.09857307 0.09872615 0.09897801 0.09931832 0.09971919 0.1001639 0.1005988 0.1010195 0.1013945
 0.1017293 0.1020193 0.1022663 0.1024701 0.1026336 0.1027553 0.1028479 0.1029125 0.102973 0.1030334
 0.1031218 0.1032454 0.1034023 0.103596 0.1037715 0.1039259 0.1040089 0.1040235 0.1039934 0.1039247
 0.103871 0.1038234 0.1037796 0.1037287 0.103637 0.1035206 0.1033865 0.103261 0.1031811 0.1031454
 0.1031696 0.1032299 0.1033194 0.1034151 0.1035088 0.1035808 0.1036244 0.1036321 0.1036003 0.1035399
 0.1034519 0.10334 0.1032044 0.1030326 0.1028256 0.1025923 0.1023398 0.1021146 0.1019222 0.1018096
 0.1017684 0.101808 0.1019051 0.1020301 0.1021567 0.102242 0.1022782 0.1022409 0.1021478 0.1020017
 0.1018184 0.101607 0.1013632 0.1010866 0.1007762 0.1004296 0.1000651 0.09968348 0.09930881 0.09894246
 0.09860788 0.09830541 0.09804894 0.09783265 0.09763166 0.09743597 0.09719148 0.09690565 0.09656083 0.09618876
 0.09583448 0.09551764 0.09528598 0.09512161 0.09503097 0.09497853 0.09494796 0.09491156 0.09485354 0.0947687
 0.09464917 0.09451764 0.09437642 0.09424502 0.09412738 0.09400584 0.09387957</values></Ydata></AB><ScSm><Ydata ylabel="Single channel"><values byteorder="INTEL" format="FLOAT32" numvalues="1814"> 0.06900996 0.06901957 0.06909339 0.06924837 0.06945406 0.0696487 0.06978317 0.06985301 0.06987704 0.06985612
 0.0697889 0.06972595 0.06975815 0.06992652 0.07016573 0.07034926 0.0703904 0.07031858 0.07026505 0.070336
 0.07047092 0.07045597 0.07012393 0.0695453 0.06898433 0.06865352 0.06857899 0.06875463 0.06927209 0.07006902
 0.07065014 0.07044408 0.06952335 0.06863309 0.06836653 0.06859608 0.06882012 0.06874055 0.06835808 0.06785458
 0.06763498 0.06822197 0.0697488 0.07153188 0.07231089 0.07104618 0.06766593 0.06329924 0.05984864 0.05896582
 0.06089477 0.06414852 0.06662443 0.06727701 0.06661732 0.06565389 0.06480297 0.06402103 0.06351224 0.06376266
 0.06487411 0.06611815 0.06631774 0.06485601 0.06240708 0.0604523 0.05992765 0.0606399 0.06206435 0.06392033
 0.06536524 0.06452763 0.06034283 0.05489106 0.05247857 0.05554637 0.06206749 0.06752691 0.06893925 0.06653674
 0.06247394 0.05903443 0.05775874 0.05903466 0.06203508 0.06539997 0.06805325 0.06926173 0.06846466 0.06575681
 0.06235793 0.06002374 0.05996972 0.06239342 0.0664357 0.07026236 0.07189395 0.07066195 0.06765325 0.06456132
 0.06256957 0.06234816 0.06421921 0.06782874 0.07212177 0.07594965 0.07853895 0.07957669 0.07927798 0.07824564
 0.07701142 0.07594975 0.07559462 0.07631158 0.07744558 0.07756753 0.07602292 0.07379758 0.07250212 0.07270437
 0.07347231 0.07351203 0.07248309 0.07080347 0.06837634 0.06454074 0.05959618 0.05523154 0.052837 0.05243388
 0.05367301 0.05638605 0.05941014 0.06051269 0.05883749 0.05647656 0.05640604 0.05930797 0.06320793 0.06587597
 0.06689267 0.06749494 0.0689842 0.07139856 0.07335121 0.0730779 0.07017903 0.06660201 0.06526852 0.06721253
 0.07058616 0.07293387 0.07378519 0.07440613 0.07557771 0.07638486 0.07517442 0.07152268 0.06729037 0.06547441
 0.06760138 0.07219899 0.0758627 0.07578441 0.07164723 0.06568368 0.0609272 0.05911627 0.06022956 0.06363905
 0.06879453 0.0746338 0.07930504 0.08120483 0.08015364 0.07729007 0.07377914 0.06974788 0.0648951 0.06025343
 0.05841264 0.06107427 0.06687925 0.07253846 0.07576983 0.07644221 0.07530746 0.0726077 0.06826943 0.0632056
 0.05974343 0.05983181 0.06270248 0.06529489 0.06545242 0.06388897 0.0626336 0.06250039 0.06277451 0.06274535
 0.06270885 0.06343403 0.06505227 0.06675091 0.06756251 0.06725354 0.06636614 0.06558347 0.06511197 0.06453747
 0.06340096 0.06209415 0.06182927 0.06331596 0.06579282 0.06781408 0.06870528 0.06881511 0.06856108 0.06769988
 0.06569345 0.06273653 0.06017744 0.05952306 0.06098215 0.0633333 0.0651947 0.06601623 0.06595208 0.06536774
 0.06459275 0.06380528 0.06308144 0.06262849 0.06273909 0.063371 0.06404722 0.06433667 0.06421 0.06382902
 0.06323943 0.06242047 0.06149688 0.06075727 0.0604514 0.06059828 0.06100684 0.06144866 0.06174851 0.0617621
 0.06142543 0.06085246 0.06025878 0.05976431 0.05936756 0.05909294 0.05902245 0.05915574 0.05934912 0.05944208
 0.05938531 0.05921827 0.05897885 0.05867718 0.05833081 0.05799124 0.05773601 0.05762403 0.05763365 0.05766588
 0.05764867 0.0576081 0.0575862 0.05753454 0.05736726 0.05709336 0.05682147 0.05664346 0.05656396 0.05653004
 0.05647872 0.05634658 0.05607575 0.05566599 0.0552344 0.05496959 0.05497888 0.05520449 0.05550748 0.05577996
 0.05595769 0.05600687 0.05595034 0.05585324 0.05574505 0.05559317 0.0553725 0.05513322 0.05498522 0.05501437
 0.05520405 0.05544382 0.05562455 0.055709 0.05571589 0.05568746 0.05568065 0.05572791 0.05578691 0.05577991
 0.05569525 0.0556077 0.05559102 0.05564132 0.05569109 0.05568489 0.05563976 0.05562774 0.0556949 0.05581414
 0.05592781 0.05601483 0.05609812 0.05619672 0.05628484 0.05630704 0.05624314 0.05614703 0.05609653 0.05611362
 0.05616444 0.05622707 0.05631799 0.05644894 0.0565915 0.05669965 0.05675669 0.05678833 0.05682631 0.05686613
 0.05687474 0.05683896 0.05678904 0.05676941 0.05679926 0.05686434 0.0569348 0.05698602 0.05700801 0.05700247
 0.05697717 0.0569423 0.05690449 0.05686542 0.05683576 0.05684287 0.05690272 0.05698362 0.05702062 0.05697672
 0.05687997 0.05679314 0.05675195 0.05673844 0.05671211 0.05665741 0.05659352 0.05654552 0.05652048 0.05651063
 0.05650429 0.05649289 0.05648346 0.05650789 0.05660121 0.05675744 0.05691791 0.05701882 0.05704762 0.05704433
 0.0570553 0.057098 0.05716508 0.05724679 0.05734646 0.05747616 0.05763231 0.05778093 0.05788622 0.0579554
 0.05803464 0.05815861 0.05832491 0.05851458 0.05870789 0.05887806 0.05900363 0.05909932 0.05921084 0.05936541
 0.05954427 0.05971394 0.0598679 0.06002497 0.06020155 0.06040268 0.06063381 0.06090291 0.06120747 0.06152634
 0.06182671 0.06208189 0.06229272 0.06249639 0.06274426 0.06306073 0.06342402 0.06378748 0.06411757 0.06441435
 0.06470036 0.06499189 0.06528738 0.06558757 0.06591354 0.06628589 0.06669308 0.06710023 0.06748806 0.06786634
 0.06825086 0.06864317 0.06903446 0.06941898 0.06980088 0.07019038 0.07059078 0.07098925 0.0713663 0.071716
 0.07205372 0.07240485 0.07278638 0.07318994 0.07357749 0.07390866 0.07418729 0.07446823 0.07479779 0.07515754
 0.07549158 0.07578322 0.0760739 0.07640386 0.07676476 0.07712315 0.07746667 0.07780971 0.07816546 0.07852605
 0.07886452 0.07915282 0.07938629 0.07959262 0.07981001 0.08006097 0.08035517 0.08070286 0.08110097 0.08151139
 0.08187828 0.08217061 0.08239561 0.08258113 0.08276258 0.08297357 0.0832241 0.08349089 0.08374143 0.08395757
 0.08413258 0.08427332 0.08441827 0.08462191 0.08490047 0.0852182 0.08554301 0.08588591 0.08626355 0.08665296
 0.08701831 0.08736601 0.08773375 0.08812433 0.08848441 0.08875915 0.08894201 0.08905813 0.0891301 0.08918484
 0.0892661 0.08939988 0.08955304 0.08965496 0.08965866 0.08956394 0.08939277 0.08917002 0.08892947 0.08871996
 0.08859476 0.08859445 0.08873868 0.08903212 0.08947103 0.09003139 0.09064908 0.09123017 0.09169534 0.09200794
 0.09215747 0.09214026 0.09197499 0.09171569 0.09141456 0.09106822 0.09061997 0.09001857 0.08926146 0.08838092
 0.08741027 0.08637784 0.08532547 0.08431842 0.08343397 0.08274151 0.0822916 0.08211694 0.08223204 0.0826177
 0.08320111 0.08386105 0.08446311 0.08489305 0.08506794 0.08494469 0.08453812 0.08392158 0.08319191 0.08243053
 0.08169276 0.08101059 0.08039269 0.07984102 0.07939084 0.07912844 0.07915753 0.07955423 0.08035839 0.08158149
 0.0831854 0.0850474 0.08697364 0.0887766 0.09035379 0.09170217 0.0928759 0.09394181 0.09495571 0.09594519
 0.0969011 0.09779643 0.09861848 0.09937476 0.10007 0.1006888 0.101201 0.1015747 0.1017916 0.101862
 0.1018288 0.1017521 0.1016878 0.1016716 0.1017029 0.1017348 0.1016895 0.1014999 0.1011448 0.1006559
 0.100105 0.09960148 0.09930792 0.09944274 0.1002226 0.1017463 0.103905 0.1064119 0.1089366 0.1112364
 0.1132049 0.1148455 0.1162215 0.1174096 0.1184714 0.1194479 0.1203669 0.1212451 0.1220874 0.1228912
 0.1236533 0.1243753 0.1250645 0.1257285 0.1263677 0.1269747 0.1275474 0.1280978 0.1286462 0.1292058
 0.1297726 0.1303272 0.1308537 0.131359 0.1318622 0.1323658 0.1328522 0.1333119 0.1337572 0.1342055
 0.1346635 0.1351275 0.1355839 0.1360105 0.1363932 0.1367443 0.1370926 0.1374552 0.1378259 0.1381891
 0.1385374 0.1388744 0.1392074 0.1395424 0.1398841 0.1402329 0.1405772 0.1408979 0.141187 0.1414594
 0.1417391 0.1420347 0.1423353 0.1426259 0.1429062 0.1431941 0.1435123 0.1438667 0.1442364 0.1445876
 0.1449022 0.1451924 0.1454853 0.1457962 0.14612 0.146446 0.1467688 0.1470861 0.1473959 0.1477012
 0.1480103 0.1483248 0.1486351 0.1489306 0.1492113 0.1494852 0.1497584 0.1500311 0.150304 0.1505848
 0.1508846 0.1512043 0.1515282 0.151834 0.1521108 0.1523647 0.1526091 0.1528552 0.1531109 0.1533833
 0.1536767 0.1539894 0.1543138 0.1546397 0.1549588 0.1552683 0.1555705 0.1558699 0.1561684 0.1564652
 0.1567621 0.157065 0.1573771 0.1576911 0.1579939 0.1582783 0.1585487 0.1588177 0.1590966 0.1593888
 0.1596884 0.1599886 0.1602892 0.1605922 0.1608939 0.1611852 0.1614621 0.1617326 0.1620106 0.1623021
 0.1625973 0.1628797 0.1631438 0.1634016 0.1636682 0.1639491 0.1642395 0.1645309 0.1648135 0.1650799
 0.1653307 0.1655757 0.1658283 0.1660977 0.1663839 0.1666783 0.16697 0.1672511 0.1675194 0.1677786
 0.1680368 0.1682994 0.1685651 0.1688317 0.1690997 0.1693686 0.1696348 0.1698985 0.1701627 0.1704282
 0.1706942 0.1709615 0.1712296 0.1714965 0.1717622 0.1720279 0.1722907 0.1725472 0.1728009 0.1730601
 0.1733296 0.1736065 0.1738846 0.1741593 0.1744307 0.1746987 0.1749594 0.1752117 0.1754627 0.1757187
 0.1759753 0.1762272 0.1764778 0.1767323 0.1769911 0.1772532 0.177518 0.1777834 0.1780497 0.1783201
 0.1785931 0.1788621 0.1791246 0.1793825 0.1796367 0.1798885 0.1801437 0.1804055 0.1806726 0.1809447
 0.1812226 0.1815039 0.1817835 0.1820554 0.1823144 0.1825657 0.1828227 0.1830893 0.1833547 0.1836122
 0.1838671 0.1841224 0.1843762 0.1846315 0.1848901 0.1851447 0.1853913 0.1856365 0.1858851 0.1861362
 0.1863906 0.1866493 0.1869075 0.1871608 0.1874084 0.1876485 0.1878853 0.1881327 0.1883957 0.1886625
 0.1889235 0.18918 0.1894319 0.189678 0.1899243 0.1901738 0.1904207 0.1906633 0.1909012 0.1911161
 0.1912589 0.1912085 0.1906591 0.189001 0.1853136 0.1785623 0.1680238 0.1537514 0.136711 0.1184287
 0.1004332 0.08387606 0.06943458 0.05740264 0.04783453 0.04064216 0.03565837 0.03273723 0.03186077 0.03325277
 0.03749972 0.04520321 0.05567314 0.06576781 0.07111197 0.06955024 0.06321022 0.05656414 0.0527065 0.05185053
 0.05266479 0.05401608 0.05554828 0.0574693 0.06013639 0.06365936 0.06788003 0.07279651 0.07877092 0.08606794
 0.09429944 0.1025835 0.1103005 0.1175846 0.1250279 0.1329751 0.1411612 0.1489738 0.1559454 0.1619899
 0.1673013 0.1721329 0.1766526 0.1809316 0.1850033 0.1888642 0.1923845 0.1952661 0.1971871 0.1980508
 0.1981022 0.1977881 0.1974919 0.1973857 0.1974842 0.1977627 0.1982036 0.1987862 0.1994832 0.2002669
 0.2011063 0.2019709 0.2028386 0.2036915 0.2045082 0.205271 0.2059738 0.2066177 0.2072076 0.2077507
 0.2082498 0.2087031 0.2091168 0.2095089 0.209892 0.2102629 0.2106122 0.2109352 0.211232 0.211505
 0.2117577 0.2119949 0.2122239 0.212454 0.2126895 0.2129239 0.213147 0.2133552 0.2135525 0.2137482
 0.2139533 0.2141723 0.2143984 0.2146213 0.2148363 0.2150417 0.2152341 0.2154167 0.2156031 0.2158052
 0.2160236 0.2162509 0.216479 0.2167017 0.216918 0.2171333 0.2173529 0.2175762 0.2177964 0.2180049
 0.2182017 0.218403 0.218629 0.2188834 0.2191525 0.2194221 0.219685 0.2199394 0.2201905 0.220446
 0.2206976 0.2209206 0.221102 0.2212633 0.2214463 0.2216804 0.2219571 0.2222377 0.2224888 0.2227107
 0.2229258 0.2231487 0.2233755 0.223593 0.2237979 0.2240131 0.224273 0.2245785 0.2248908 0.2251802
 0.2254556 0.2257336 0.2260148 0.2262964 0.2265694 0.2268038 0.226974 0.2271091 0.227292 0.2275943
 0.2280089 0.228447 0.2288154 0.2290965 0.22934 0.2295996 0.2299006 0.2302207 0.2304634 0.2305229
 0.2304475 0.2304701 0.2307941 0.2313877 0.2320448 0.2325958 0.2330117 0.2333522 0.2336704 0.2339587
 0.2341581 0.2342247 0.2342098 0.2342755 0.2345851 0.2351407 0.2357681 0.2362902 0.2366651 0.2369374
 0.2371562 0.2373618 0.2375233 0.2374729 0.237087 0.2365981 0.2365276 0.237173 0.2382704 0.2392792
 0.2399182 0.2403036 0.2406371 0.2409588 0.241212 0.2412958 0.2409489 0.2398996 0.2384086 0.2374176
 0.2377722 0.2393674 0.2413138 0.2428267 0.2437193 0.2441935 0.2444925 0.2447425 0.24486 0.2445604
 0.2436743 0.2425724 0.2420733 0.2426903 0.2440552 0.2453144 0.246003 0.2462913 0.2465199 0.246814
 0.2470014 0.2465757 0.2449781 0.242422 0.2403165 0.2402842 0.2425783 0.2457794 0.248201 0.2493407
 0.2497591 0.2498472 0.2492472 0.2475021 0.2447537 0.2416841 0.2392869 0.2387198 0.2405446 0.2437773
 0.2464411 0.2475127 0.247793 0.2485976 0.2501876 0.2517778 0.2525526 0.2522937 0.2512442 0.2496697
 0.2477302 0.245882 0.2451254 0.2463059 0.2490912 0.2520815 0.2541001 0.2550888 0.2555091 0.2549804
 0.251989 0.245702 0.2382644 0.2342289 0.236541 0.2434579 0.2504249 0.254562 0.2562505 0.2570033
 0.2574244 0.2570404 0.2545879 0.2487124 0.2401117 0.2328774 0.2317314 0.2373614 0.2456414 0.2514759
 0.2522684 0.2482001 0.2413222 0.2349537 0.2323341 0.2346563 0.2405289 0.2473552 0.2529042 0.2559272
 0.2561361 0.2540804 0.2511084 0.2490409 0.2488618 0.2492784 0.2476949 0.2434819 0.23901 0.2361691
 0.2334521 0.2287564 0.2239787 0.2237746 0.2294988 0.2369424 0.2410496 0.2410341 0.2395224 0.2377791
 0.2335904 0.2244758 0.2123409 0.2035859 0.2034696 0.2106282 0.218267 0.2207708 0.2181578 0.2141836
 0.2114633 0.2090141 0.2040055 0.1956335 0.1871038 0.1829497 0.1841989 0.1874132 0.1887199 0.1869121
 0.1821626 0.1747515 0.1671894 0.1650351 0.1722206 0.1862098 0.1999223 0.2075061 0.2064963 0.1966297
 0.1806702 0.1660657 0.1613359 0.1684801 0.1805732 0.1881393 0.1867336 0.177817 0.1646552 0.1500163
 0.1373576 0.1313 0.1348773 0.146413 0.1596226 0.166817 0.163171 0.1503906 0.1368664 0.1316586
 0.1363769 0.1441418 0.147306 0.1443806 0.1390134 0.1351994 0.1349164 0.1378551 0.1417994 0.1446648
 0.146164 0.1456392 0.1398541 0.1269248 0.111689 0.1025529 0.102741 0.1086366 0.1165274 0.1259153
 0.1351363 0.139107 0.1350566 0.1277781 0.1255426 0.1313219 0.1402422 0.1455344 0.1452243 0.1424829
 0.1407059 0.1398797 0.1382807 0.1364098 0.1371573 0.1417923 0.1477348 0.151434 0.152082 0.1513005
 0.1504084 0.1494294 0.1480227 0.1460756 0.1436331 0.1409826 0.1385757 0.1365262 0.1345185 0.1323089
 0.1297247 0.1259883 0.1199215 0.1116837 0.1038156 0.09927348 0.09836756 0.09893722 0.09953726 0.1003218
 0.1001359 0.09562995 0.08570749 0.07520739 0.07138938 0.07693547 0.08796789 0.09843521 0.1046472 0.1055672
 0.1011244 0.09264256 0.08462137 0.08329345 0.0914885 0.105909 0.1207082 0.132521 0.1407345 0.1446884
 0.1433369 0.1375825 0.1311166 0.1283236 0.1316671 0.1405759 0.1515103 0.1587404 0.1571617 0.1474803
 0.138632 0.1411676 0.1560495 0.1728906 0.1816094 0.1826856 0.1829536 0.1849855 0.1858526 0.1847384
 0.1859344 0.1929462 0.2032767 0.21084 0.2112803 0.2036865 0.1899455 0.1750422 0.165792 0.165544
 0.1706274 0.174565 0.1744874 0.1707344 0.1629119 0.1515102 0.1421238 0.142085 0.1518692 0.1639902
 0.1714854 0.1742636 0.1760554 0.1779615 0.1771438 0.1711837 0.1621276 0.155219 0.1537016 0.1559762
 0.1582898 0.1586795 0.1570636 0.1530684 0.1462386 0.1383258 0.1332978 0.1339696 0.1392094 0.1450987
 0.1485162 0.1491425 0.1484937 0.14799 0.1480018 0.1480044 0.1475677 0.1476413 0.1503641 0.1566645
 0.1645478 0.1710193 0.1754421 0.1797211 0.1852443 0.1908875 0.1943427 0.1946631 0.1932331 0.1926472
 0.1946895 0.1989279 0.2030046 0.2046062 0.2036389 0.2025149 0.2039245 0.2082393 0.2134161 0.2173051
 0.2194214 0.2205287 0.2213774 0.2220862 0.2220962 0.2206368 0.2179132 0.2158125 0.2165888 0.2206121
 0.2259654 0.2303423 0.2328396 0.2338849 0.2340762 0.2335348 0.2322138 0.2304392 0.2289108 0.2281874
 0.2283147 0.2289752 0.2298309 0.2306572 0.2313231 0.2317949 0.2321235 0.2323786 0.2326299 0.2329706
 0.2334607 0.2340275 0.2345124 0.2348539 0.2351597 0.2355495 0.2359888 0.2363376 0.2365022 0.2364427
 0.2360767 0.2353076 0.2341583 0.2327676 0.2312217 0.2295 0.2276802 0.2261553 0.2255153 0.2261145
 0.2277426 0.2297521 0.2315024 0.2326793 0.2332815 0.2334518 0.2333675 0.2331968 0.2330551 0.2329768
 0.2329366 0.2329003 0.2328538 0.2327958 0.2327251 0.2326504 0.2326027 0.2326106 0.2326594 0.2326928
 0.2326548 0.2325202 0.2322949 0.232004 0.2316715 0.2312932 0.2308301 0.2302388 0.2295063 0.2286591
 0.2277502 0.2268403 0.2259698 0.22513 0.2242671 0.2233238 0.2222674 0.2210816 0.2197675 0.2183777
 0.2170205 0.2157879 0.2146813 0.2136277 0.212556 0.2114424 0.2102993 0.2091473 0.2079983 0.2068572
 0.205734 0.2046453 0.2035974 0.2025721 0.2015347 0.2004474 0.1992764 0.1980024 0.1966343 0.1952029
 0.1937255 0.1921684 0.1904458 0.1884499 0.1860737 0.1832148 0.1797965 0.1758244 0.1714266 0.1668271
 0.1622692 0.1579497 0.1539952 0.1504754 0.1474281 0.1448724 0.1428148 0.1412654 0.1402567 0.1398358
 0.1400336 0.1408377 0.1421886 0.1439927 0.1461371 0.1484895 0.1508919 0.1531828 0.1552605 0.1571316
 0.1588838 0.1605985 0.1622865 0.1639085 0.1654386 0.1668795 0.168216 0.1693925 0.1703589 0.1711173
 0.1717098 0.1721776 0.1725413 0.1727999 0.1729424 0.1729754 0.172942 0.1729106 0.1729491 0.1731085
 0.1734182 0.1738906 0.1745343 0.1753514 0.1763148 0.177359 0.1784045 0.1793925 0.1803044 0.1811629
 0.182015 0.1829138 0.1839239 0.1851311 0.1866186 0.1884248 0.190524 0.1928309 0.1952122 0.1975126
 0.199598 0.2013876 0.20286 0.2040411 0.204979 0.205715 0.2062727 0.2066642 0.2068977 0.2069866
 0.2069579 0.2068414 0.2066487 0.2063757 0.2060182 0.2055732 0.2050382 0.2044292 0.2037869 0.2031511
 0.2025398 0.201959 0.2014192 0.2009316 0.200493 0.2000763 0.199639 0.1991487 0.1986002 0.1980055
 0.1973776 0.1967232 0.196032 0.1952688 0.1943971 0.1934084 0.192308 0.1910843 0.1897154 0.1882052
 0.1865966 0.1849531 0.1833303 0.181756 0.1802246 0.1787037 0.1771418 0.1754846 0.173714 0.1718771
 0.1700605 0.1683308 0.1667013 0.1651445 0.1636258 0.1621327 0.1606793 0.1592798 0.1579287 0.1566141
 0.1553361 0.1541027 0.1529145 0.1517681 0.1506729 0.1496616 0.1487788 0.1480436 0.1474271 0.1468795
 0.1463729 0.1459098 0.1455044 0.1451747 0.1449349 0.1447718 0.1446344 0.1444557 0.1441866 0.1438195
 0.1433929 0.1429641 0.1425675 0.1422038 0.1418623 0.1415287 0.1411665 0.1407026 0.1400355 0.1390704
 0.1377719 0.1361924 0.1344376 0.1326147 0.1308203 0.129149 0.1276802 0.1264618 0.1255061 0.1247811
 0.1242126 0.1237284 0.1233083 0.1229859 0.1228075 0.1227751 0.1228011 0.1227417 0.1225289 0.1222589
 0.1221156 0.122214 0.1225328 0.1229599 0.1233755 0.12371 0.1239409 0.1240501 0.124019 0.1238685
 0.1236542 0.1234091 0.1231241 0.1227852 0.1223946 0.1219582 0.1214736 0.1209249 0.1202933 0.1195803
 0.1188045 0.1179645 0.1170356 0.1159978 0.1148295 0.1135107 0.1121026 0.1108005 0.1098415 0.1093569
 0.1093188 0.1095828 0.1099818 0.1104164 0.1108288 0.1110794 0.1109949 0.1106619 0.1105647 0.111235
 0.1127383 0.1145936 0.1161967 0.1172361 0.1177062 0.1176871 0.1172411 0.1164301 0.1152781 0.1137474
 0.1118379 0.1096456 0.1072789 0.104828 0.1024383 0.1002855 0.09847237 0.09701703 0.09589382 0.09511063
 0.09476492 0.09456752 0.09303562 0.08826918 0.08087812 0.07529084 0.07603113 0.08262965 0.08995584 0.09366096
 0.09365421 0.09227335 0.09110719 0.09038325 0.09002927 0.09017703 0.09093262 0.09216847 0.09355281 0.09474482
 0.09559268 0.09610002 0.096214 0.09566593 0.09391502 0.09030995 0.08462647 0.07755542 0.07045313 0.06453334
 0.06034974 0.05784798 0.05660212 0.05603974 0.05572651 0.05558635 0.05583963 0.0567196 0.05825735 0.06031945
 0.06275939 0.06541315 0.06798764 0.07015422 0.07181245 0.07311523 0.0741925 0.07498449 0.07537048 0.07533643
 0.07498615 0.07446599 0.07389254 0.07330373 0.07265501 0.07187411 0.07096024 0.07005955 0.06939358 0.06906091
 0.06895782 0.06892782 0.06890978 0.06890893 0.06892037 0.06892613 0.06891613 0.06891204 0.068993 0.06924048
 0.06962653 0.07001442 0.07028435 0.07042026 0.07048728 0.07053028 0.07046319 0.07013105 0.0695721 0.06907365
 0.0687857 0.06843722 0.06769323 0.06668591 0.06592996 0.06575611 0.06602758 0.066375 0.06653094 0.06644358
 0.06624439 0.06618439 0.06647368 0.06703818</values></Ydata></ScSm><ScRf><Ydata ylabel="Single channel"><values byteorder="INTEL" format="FLOAT32" numvalues="1820"> 0.06072579 0.06090114 0.06100199 0.06102657 0.06100835 0.06100283 0.06106251 0.06120761 0.06141159 0.06161307
 0.06175415 0.06181762 0.06182022 0.06177608 0.06169789 0.06163556 0.06166714 0.06182396 0.06204264 0.0622067
 0.06223857 0.06216862 0.06211922 0.06218571 0.06230854 0.06229063 0.06198239 0.06145155 0.06093915 0.0606376
 0.06056957 0.06072576 0.06118598 0.06190003 0.06243359 0.06227431 0.06147268 0.06068007 0.06042358 0.06059764
 0.06076732 0.06067738 0.06033222 0.05989038 0.05970656 0.06024097 0.06160706 0.06319222 0.06387471 0.06273192
 0.05970142 0.05579066 0.05270227 0.05191866 0.05365895 0.05658502 0.05880714 0.05939189 0.05880849 0.05796745
 0.05723314 0.05654689 0.0560797 0.0562763 0.0572488 0.05835406 0.05852874 0.05721094 0.05501013 0.05326442
 0.05281181 0.05346774 0.05475231 0.05641096 0.0576908 0.05692317 0.05316743 0.04829589 0.04616158 0.04893708
 0.05479528 0.05968995 0.06095183 0.05879655 0.05516332 0.05210368 0.05099016 0.05214825 0.05482002 0.05779419
 0.06013174 0.0611963 0.06049158 0.0580989 0.05510024 0.05305155 0.05302725 0.05520113 0.05880893 0.06221429
 0.06365091 0.06252757 0.05982321 0.0570549 0.05527972 0.05509521 0.05678867 0.060042 0.0639075 0.06735145
 0.06967669 0.07060266 0.07032802 0.06940336 0.06831392 0.0673942 0.06710979 0.06777195 0.06878784 0.06888765
 0.06750274 0.06552361 0.06438333 0.06457633 0.06526432 0.06529514 0.0643699 0.06286209 0.06067882 0.05722453
 0.05277587 0.04886391 0.04674593 0.04643673 0.04761098 0.05010527 0.05286396 0.05387663 0.05238213 0.0502729
 0.05022461 0.05284071 0.05634211 0.05873201 0.0596455 0.06020248 0.06157339 0.06378435 0.06557259 0.06533733
 0.06272297 0.05950844 0.0583502 0.060176 0.06329365 0.06547366 0.06630224 0.06693801 0.06808615 0.06890482
 0.0678855 0.06464858 0.06089959 0.05936771 0.06142616 0.06571901 0.06914625 0.06915395 0.06545335 0.06008907
 0.05584668 0.05432226 0.05550126 0.05883116 0.06383361 0.06952794 0.07416812 0.07621948 0.0754709 0.07296473
 0.06980245 0.06612302 0.06165756 0.05741158 0.05588768 0.05873172 0.0646321 0.07040567 0.07383403 0.07477631
 0.07394582 0.07155181 0.0674987 0.06270276 0.05952732 0.05995054 0.06318069 0.06609962 0.066524 0.06519874
 0.06419934 0.06434675 0.06489554 0.06512523 0.06537864 0.06648313 0.06856458 0.07073285 0.07193753 0.07191845
 0.07125597 0.07070007 0.07048994 0.07017559 0.06925559 0.06817742 0.06828953 0.07035901 0.07350968 0.07611945
 0.07744876 0.07791176 0.07798447 0.07736397 0.07539918 0.07230657 0.06967092 0.06927115 0.0713613 0.07450789
 0.0770797 0.07842349 0.07872248 0.07840882 0.07786568 0.07729976 0.07680693 0.07664257 0.0771586 0.07829933
 0.07948259 0.08018399 0.0803706 0.08023785 0.0798304 0.07912003 0.07827972 0.077687 0.0776502 0.07817879
 0.07902977 0.07992198 0.08063297 0.08096364 0.08081294 0.08032779 0.0798168 0.07947026 0.07929167 0.07929179
 0.07955829 0.08008181 0.08066636 0.08109365 0.08129792 0.08133855 0.08127748 0.08113547 0.08093238 0.0807348
 0.08065751 0.08078472 0.08106766 0.08135505 0.08156948 0.08178478 0.08206342 0.08229923 0.08232737 0.08214577
 0.08192812 0.08183415 0.08188212 0.08199529 0.08209142 0.08209296 0.08191353 0.08153383 0.08110695 0.08090261
 0.0810904 0.08161724 0.0823018 0.08296491 0.08346204 0.08371337 0.08376217 0.08372959 0.08367571 0.08355833
 0.083342 0.08310262 0.08300684 0.08318792 0.08362477 0.08414596 0.08456686 0.08480929 0.0849019 0.08493386
 0.08501516 0.08519457 0.08538724 0.08545348 0.08537281 0.0852792 0.08530401 0.08543096 0.08552888 0.08550678
 0.08541732 0.08539969 0.08552858 0.08574599 0.08594731 0.08610108 0.08626096 0.08647291 0.08668726 0.08678036
 0.08668499 0.08648404 0.08632965 0.08628085 0.08628412 0.08630797 0.08640705 0.08661747 0.08685908 0.08700475
 0.08702432 0.08700944 0.08705206 0.08713315 0.08715171 0.08704446 0.08685282 0.08667951 0.08660425 0.0866384
 0.08673134 0.08680639 0.08680615 0.0867253 0.08660503 0.08649203 0.08640656 0.08635786 0.08638138 0.0865255
 0.08677655 0.08701332 0.08707716 0.08691099 0.08662285 0.08639489 0.08632098 0.08633497 0.08629543 0.08612674
 0.08587001 0.08561684 0.0854227 0.0852849 0.08517537 0.08507933 0.08501715 0.08503827 0.08517036 0.08535253
 0.08544442 0.08534278 0.08508567 0.08481272 0.08463314 0.08455883 0.08454119 0.08453107 0.08451657 0.0845335
 0.0846191 0.08473775 0.08479133 0.08472912 0.08460987 0.08453843 0.08458106 0.08474317 0.08496696 0.08513884
 0.08516431 0.0850639 0.08495575 0.08493046 0.08498077 0.08505543 0.08513239 0.0852177 0.08531094 0.08540633
 0.08551714 0.08567301 0.08588883 0.08614287 0.0863852 0.08656857 0.0866857 0.08678703 0.08695064 0.08721718
 0.08755157 0.08787347 0.08812517 0.08831027 0.08847225 0.08864206 0.08881697 0.08899465 0.08920679 0.08949023
 0.08983175 0.0901739 0.0904779 0.09075435 0.09103096 0.09131697 0.09160918 0.09191845 0.09227692 0.09270637
 0.09316942 0.09356818 0.09382227 0.09395117 0.0940637 0.09427079 0.0946099 0.0950202 0.09537117 0.09555803
 0.09561005 0.0956758 0.09586507 0.09613732 0.09638774 0.09660771 0.09689515 0.09731003 0.09777809 0.09816171
 0.09840009 0.0985558 0.09873003 0.09894895 0.099145 0.09924969 0.09928498 0.09933834 0.0994603 0.09963216
 0.09984192 0.1001326 0.1005344 0.1009881 0.101387 0.1016748 0.1018667 0.1020009 0.1021046 0.1021897
 0.1022503 0.1022817 0.1023134 0.1023911 0.1025106 0.1026095 0.1026489 0.1026667 0.1027296 0.1028677
 0.1030788 0.1033569 0.1036789 0.1039883 0.1042455 0.1044918 0.1048089 0.1051951 0.1055315 0.1057088
 0.1057483 0.1057505 0.1057664 0.1057858 0.1058298 0.1059683 0.1062341 0.1065788 0.1069343 0.1072785
 0.1076237 0.107971 0.1082898 0.1085289 0.1086472 0.1086496 0.1086006 0.1085952 0.1087077 0.1089543
 0.1092873 0.1096254 0.1099012 0.1100839 0.1101623 0.1101393 0.1100647 0.1100433 0.1101567 0.1103683
 0.1105368 0.1105326 0.1103215 0.109937 0.1094144 0.1087799 0.1080847 0.1074154 0.1068585 0.1064612
 0.1062353 0.1061983 0.1063909 0.1068327 0.1074652 0.1081664 0.1088245 0.1093633 0.1096976 0.1097234
 0.1093951 0.1087868 0.1080448 0.1072963 0.1066111 0.1060056 0.1054473 0.1048945 0.104379 0.1040468
 0.1040887 0.1046284 0.1056629 0.1070662 0.1086238 0.1101007 0.1113363 0.1123082 0.1131018 0.1138128
 0.1144858 0.1151361 0.1157895 0.1164612 0.1171131 0.1176812 0.1181497 0.1185638 0.1189679 0.1193622
 0.1197179 0.1200112 0.1202434 0.1204445 0.1206437 0.1208221 0.1209165 0.1208914 0.1207855 0.1206658
 0.1205532 0.1204073 0.1201668 0.1197989 0.1193409 0.1189229 0.1187397 0.1189633 0.1196483 0.1207028
 0.1219586 0.1232725 0.1245576 0.1257323 0.1266924 0.1273715 0.1278073 0.1281119 0.1283856 0.1286713
 0.1289708 0.1292732 0.1295696 0.1298571 0.1301388 0.1304251 0.1307341 0.1310752 0.1314264 0.131741
 0.1319944 0.1322194 0.1324836 0.1328274 0.1332224 0.1336002 0.1339269 0.1342346 0.1345601 0.1348781
 0.1351298 0.1353064 0.1354646 0.1356641 0.1359268 0.1362468 0.1365971 0.1369255 0.1371824 0.1373681
 0.1375334 0.1377272 0.1379578 0.1382057 0.1384547 0.1387024 0.1389526 0.1392159 0.1395108 0.1398401
 0.1401635 0.1404155 0.1405688 0.1406693 0.1407949 0.1409846 0.1412147 0.1414381 0.1416397 0.1418538
 0.142126 0.1424574 0.1427899 0.1430537 0.1432253 0.1433385 0.1434483 0.1435921 0.1437791 0.1439966
 0.1442208 0.1444311 0.1446239 0.144813 0.1450152 0.1452347 0.1454622 0.1456832 0.1458899 0.1460859
 0.1462817 0.1464858 0.1467046 0.14695 0.1472364 0.147557 0.1478708 0.1481271 0.148305 0.1484251
 0.1485264 0.148641 0.1487862 0.1489639 0.149162 0.149362 0.1495538 0.1497418 0.1499357 0.1501382
 0.1503449 0.1505533 0.1507666 0.1509896 0.1512242 0.1514685 0.1517157 0.1519522 0.1521643 0.1523497
 0.1525209 0.1526972 0.1528908 0.1530972 0.1532982 0.1534785 0.1536444 0.1538175 0.1540107 0.1542148
 0.1544133 0.1546037 0.1547975 0.1550029 0.1552145 0.1554202 0.1556147 0.1558025 0.1559898 0.1561796
 0.1563722 0.1565665 0.15676 0.1569528 0.1571489 0.1573514 0.1575582 0.1577657 0.1579726 0.1581777
 0.1583779 0.1585702 0.1587553 0.158938 0.1591245 0.1593173 0.1595148 0.1597145 0.1599149 0.1601152
 0.1603164 0.1605217 0.1607327 0.1609468 0.1611645 0.161388 0.1616146 0.1618372 0.162053 0.1622628
 0.1624663 0.1626658 0.1628706 0.1630876 0.1633126 0.1635382 0.1637626 0.1639856 0.1642009 0.1643966
 0.1645669 0.1647225 0.1648844 0.1650641 0.1652535 0.1654402 0.1656215 0.1658016 0.1659848 0.166174
 0.1663683 0.1665635 0.16676 0.1669625 0.16717 0.1673739 0.1675702 0.1677635 0.1679598 0.1681622
 0.1683695 0.1685767 0.1687815 0.1689886 0.1692028 0.1694219 0.1696405 0.1698539 0.1700575 0.1702528
 0.1704508 0.1706596 0.1708776 0.1711005 0.1713248 0.1715433 0.1717496 0.1719472 0.1721422 0.1723361
 0.1725314 0.1727344 0.1729482 0.1731735 0.1734088 0.173643 0.17386 0.1740587 0.1742532 0.174454
 0.1746634 0.1748819 0.1751025 0.1753139 0.1755182 0.1757279 0.1759458 0.1761649 0.1763842 0.1766047
 0.1768239 0.1770407 0.1772508 0.1774326 0.1775412 0.1774654 0.1769193 0.1753344 0.1718559 0.1655227
 0.1556587 0.1423091 0.126372 0.1092749 0.09245497 0.07699592 0.06352794 0.05231417 0.04339623 0.03669047
 0.03204402 0.02932402 0.0285148 0.02982124 0.03378347 0.04095977 0.05071205 0.06011974 0.06510797 0.06366357
 0.05776198 0.05156875 0.04797372 0.0471829 0.04795545 0.04922916 0.05066894 0.05247224 0.05497682 0.05828251
 0.06223197 0.06681663 0.07238047 0.07918543 0.08687919 0.09463742 0.1018762 0.108716 0.115704 0.1231561
 0.1308234 0.1381369 0.1446617 0.1503162 0.1552812 0.1597968 0.1640259 0.168039 0.1718674 0.1755057
 0.1788292 0.1815539 0.1833721 0.18419 0.1842415 0.1839526 0.1836859 0.1836036 0.1837168 0.1839937
 0.1844082 0.1849425 0.1855875 0.1863317 0.1871435 0.1879807 0.188815 0.1896319 0.1904181 0.1911608
 0.1918515 0.1924814 0.1930433 0.1935423 0.1939951 0.1944189 0.1948262 0.1952256 0.1956176 0.1959942
 0.1963456 0.196666 0.1969559 0.1972221 0.1974736 0.1977144 0.1979425 0.1981565 0.1983606 0.1985631
 0.1987708 0.1989824 0.1991898 0.1993887 0.1995858 0.1997885 0.1999943 0.200195 0.200388 0.2005752
 0.2007585 0.2009405 0.201126 0.2013195 0.2015232 0.2017356 0.2019482 0.2021493 0.202336 0.2025196
 0.2027121 0.2029128 0.2031105 0.2032973 0.203478 0.2036676 0.2038772 0.204102 0.2043281 0.2045474
 0.2047603 0.2049695 0.2051772 0.205384 0.2055823 0.2057592 0.2059132 0.2060647 0.2062439 0.2064661
 0.2067153 0.2069563 0.2071696 0.2073665 0.2075661 0.2077689 0.207962 0.2081379 0.2083048 0.2084865
 0.2087059 0.2089605 0.2092229 0.2094726 0.2097103 0.2099384 0.2101577 0.2103816 0.210617 0.2108343
 0.2109926 0.2111039 0.2112457 0.2114953 0.2118536 0.2122397 0.2125663 0.2128151 0.2130296 0.2132586
 0.2135245 0.2138044 0.2140077 0.2140374 0.2139381 0.2139239 0.2141865 0.2147067 0.2153007 0.2158053
 0.2161773 0.2164587 0.2166989 0.2169037 0.2170331 0.2170523 0.2170084 0.217051 0.2173274 0.2178269
 0.2183756 0.2188144 0.2191244 0.219362 0.2195655 0.2197487 0.219865 0.219761 0.2193398 0.2188339
 0.2187326 0.2193069 0.2203025 0.2212092 0.2217603 0.222062 0.2223061 0.2225445 0.2227449 0.2228235
 0.2225251 0.2215692 0.2201767 0.2192225 0.2195123 0.2209732 0.2227862 0.2242042 0.2250282 0.2254418
 0.2256931 0.2259193 0.2260378 0.2257615 0.2249215 0.2238757 0.2234067 0.2239984 0.2252991 0.2265032
 0.2271697 0.2274477 0.227651 0.2279084 0.2280772 0.2276886 0.226212 0.2238423 0.2218981 0.2218917
 0.2240482 0.227037 0.2292923 0.2303581 0.2307621 0.2308609 0.2303087 0.2286746 0.2260959 0.2232203
 0.2209914 0.2205006 0.2222625 0.2253292 0.2278338 0.2288256 0.2290728 0.2298217 0.2313229 0.2328357
 0.2335856 0.2333671 0.2324208 0.2310064 0.22927 0.2276257 0.2269944 0.2281525 0.2307833 0.2335877
 0.2354857 0.2364351 0.236863 0.2363985 0.2336218 0.2277689 0.220861 0.2171484 0.2193666 0.2258808
 0.2324423 0.2363679 0.2380183 0.2388073 0.2392942 0.2390259 0.2368105 0.231375 0.2233801 0.2166781
 0.2157055 0.2210968 0.228967 0.2345359 0.235372 0.2316459 0.2252869 0.2194182 0.2170826 0.2194
 0.2250712 0.2316585 0.2370512 0.2400599 0.2404092 0.2386193 0.2359745 0.2342138 0.2342642 0.2348718
 0.2335628 0.2297646 0.2257501 0.2233033 0.220972 0.2167667 0.2125307 0.2127224 0.218612 0.2261452
 0.2304957 0.2309547 0.2300538 0.2289627 0.2255009 0.2172831 0.206238 0.1987016 0.1998804 0.208444
 0.217705 0.2221654 0.2218921 0.2205658 0.2205796 0.2205893 0.2173923 0.2100925 0.2022469 0.1988893
 0.2011925 0.20543 0.2074055 0.2058094 0.2007923 0.1926296 0.1841047 0.1813877 0.1888602 0.2037787
 0.2184012 0.2263523 0.2249919 0.2140837 0.1966956 0.1810388 0.1764811 0.185174 0.1994396 0.2088193
 0.2083818 0.1996456 0.1861117 0.1708383 0.1578409 0.1525961 0.1587932 0.1745671 0.1924523 0.2030889
 0.2004338 0.1864878 0.1717198 0.1675493 0.1759483 0.1880454 0.1940237 0.1920106 0.1867544 0.1835335
 0.185103 0.191113 0.1984809 0.2043144 0.20823 0.2091151 0.2020399 0.1841829 0.1626845 0.1499325
 0.1507066 0.1597733 0.1717814 0.1860506 0.2000578 0.2061645 0.2002169 0.1893782 0.1860004 0.1945142
 0.2076535 0.2153457 0.2146797 0.2104222 0.2076813 0.2064829 0.204303 0.2019355 0.2037139 0.2115179
 0.2214859 0.2283325 0.2308543 0.2314387 0.232011 0.2325744 0.2325923 0.2318777 0.230512 0.2289752
 0.2279901 0.2277059 0.2275615 0.227128 0.2260792 0.2229213 0.2153163 0.2033626 0.1916714 0.1857008
 0.1859733 0.1884666 0.1906179 0.1928187 0.1928058 0.184081 0.1644771 0.1431969 0.134109 0.1423427
 0.1604734 0.1770057 0.1851831 0.1835753 0.1726614 0.1550507 0.1382119 0.1321034 0.141039 0.1595536
 0.1782539 0.1919021 0.199949 0.2020295 0.1970256 0.1862972 0.1749247 0.1687821 0.1709821 0.1805349
 0.1926584 0.1999765 0.1961467 0.1822031 0.1693101 0.1704836 0.1869118 0.2059233 0.2152226 0.2153147
 0.2144159 0.2156855 0.2157182 0.2135734 0.2143271 0.2221519 0.2341993 0.2434125 0.2447211 0.2370369
 0.2225774 0.2073495 0.1995789 0.2030793 0.2128462 0.2204398 0.2221134 0.218305 0.2086706 0.194169
 0.1823114 0.1826461 0.1957076 0.2117701 0.2218987 0.2260932 0.2292354 0.2326798 0.2325978 0.2257645
 0.2149324 0.2071339 0.2067354 0.211636 0.2168617 0.2198095 0.220288 0.2175675 0.2108369 0.2025821
 0.1985985 0.2029629 0.2137956 0.2249805 0.2316018 0.2330161 0.2314449 0.2290853 0.226617 0.2233709
 0.2188127 0.2144566 0.2135573 0.2176381 0.2240769 0.2288115 0.2309881 0.2332296 0.2375035 0.2424078
 0.2448776 0.2435248 0.2399504 0.2373511 0.2379638 0.2412974 0.2444986 0.2447855 0.2420935 0.2393827
 0.2399083 0.2441078 0.2495351 0.2536477 0.2558827 0.2571172 0.2581642 0.2590645 0.2590567 0.2571455
 0.2535087 0.2503303 0.2502596 0.2537873 0.2587805 0.2626921 0.2646202 0.2651673 0.2650422 0.2643153
 0.262832 0.2608922 0.2592682 0.2585915 0.2588939 0.2597706 0.2607999 0.2617269 0.2624327 0.2629098
 0.2632243 0.2634271 0.2635354 0.2635938 0.2636555 0.2636876 0.2636079 0.2634581 0.2634327 0.2636605
 0.2640306 0.2643077 0.2643483 0.2641137 0.2635444 0.2625758 0.2612773 0.259835 0.2583436 0.2567326
 0.25502 0.2535999 0.2531266 0.2540112 0.2560401 0.2585139 0.2607325 0.2623398 0.2633167 0.2638075
 0.2639958 0.2640449 0.2640517 0.2640277 0.2639362 0.2637494 0.2634705 0.2631179 0.2627116 0.2622838
 0.2618855 0.2615578 0.2612948 0.2610418 0.2607318 0.2603248 0.2598262 0.2592771 0.2587166 0.2581396
 0.2574941 0.2567291 0.2558436 0.2548925 0.2539549 0.2530927 0.2523158 0.2515771 0.2508129 0.2499891
 0.2490914 0.2480855 0.2469456 0.2457418 0.2446389 0.2437634 0.2430932 0.2425001 0.2418634 0.2411172
 0.2402409 0.239259 0.2382289 0.2371896 0.2361274 0.2350072 0.2338162 0.2325581 0.2312261 0.2298056
 0.2282943 0.2267088 0.2250774 0.2234283 0.2217616 0.2200164 0.2180689 0.215771 0.2129939 0.2096505
 0.2057148 0.2012524 0.1964295 0.1914694 0.1865802 0.181915 0.1775854 0.1736886 0.1703159 0.1675459
 0.1654382 0.1640265 0.1633154 0.1632929 0.1639512 0.1652829 0.1672449 0.1697243 0.172546 0.1755176
 0.1784705 0.1812783 0.1838689 0.1862423 0.1884575 0.190568 0.1925643 0.1943949 0.1960284 0.1974691
 0.1987188 0.1997628 0.2006027 0.2012804 0.2018546 0.2023632 0.2028124 0.2031932 0.2035036 0.2037553
 0.2039651 0.2041464 0.2043105 0.2044695 0.2046413 0.2048519 0.2051267 0.2054758 0.2058915 0.206358
 0.2068579 0.2073784 0.2079228 0.2085075 0.2091415 0.2098163 0.2105345 0.2113358 0.2122785 0.2133922
 0.2146518 0.2159947 0.2173532 0.2186654 0.2198646 0.2208787 0.2216526 0.222169 0.2224457 0.2225223
 0.2224494 0.2222699 0.2219988 0.2216278 0.2211545 0.2206022 0.2200101 0.2194068 0.2187909 0.2181369
 0.2174297 0.2166927 0.2159708 0.2152858 0.2146207 0.2139511 0.2132802 0.2126355 0.2120397 0.2114892
 0.2109584 0.2104188 0.2098553 0.2092691 0.2086686 0.2080551 0.2074109 0.2067026 0.2059 0.204991
 0.203977 0.2028641 0.2016613 0.2003801 0.199027 0.1976 0.1960949 0.1945125 0.192859 0.1911378
 0.1893368 0.1874331 0.1854294 0.1833865 0.181399 0.1795358 0.1778124 0.1762123 0.1747151 0.1733031
 0.1719609 0.1706732 0.1694278 0.1682259 0.1670847 0.1660197 0.165026 0.1640877 0.163201 0.162383
 0.1616582 0.1610392 0.1605185 0.160076 0.1596926 0.1593585 0.1590813 0.1588909 0.1588143 0.1588349
 0.1588926 0.1589288 0.1589167 0.1588548 0.1587566 0.1586436 0.1585318 0.1584265 0.158329 0.1582264
 0.1580707 0.1577787 0.1572532 0.156408 0.1552038 0.1536757 0.1519151 0.1500368 0.1481712 0.1464542
 0.1449877 0.1438201 0.142958 0.142359 0.1419234 0.1415511 0.1412239 0.1410134 0.1410043 0.1411966
 0.1414619 0.1416241 0.141624 0.1415871 0.1417083 0.142098 0.1427383 0.1435196 0.1443007 0.1449774
 0.1455094 0.1458883 0.1461172 0.1462251 0.1462474 0.1461921 0.1460582 0.1458641 0.1456279 0.1453543
 0.1450478 0.1446963 0.1442554 0.1436941 0.1430297 0.1422899 0.1414809 0.1405908 0.1395757 0.1383868
 0.1370942 0.1359456 0.1352313 0.1351063 0.1355391 0.1363564 0.137352 0.1384038 0.139434 0.1402418
 0.1405768 0.1405254 0.1406831 0.1417182 0.1437397 0.1461844 0.1483214 0.1497697 0.1505198 0.1506515
 0.150211 0.1492561 0.1478149 0.1458449 0.1433564 0.1404871 0.1373914 0.1342059 0.1311371 0.1284043
 0.1261044 0.1242398 0.1227952 0.1218103 0.1214211 0.1212394 0.1193272 0.1132365 0.1038123 0.09682661
 0.09809735 0.10694 0.1166794 0.1216922 0.1218549 0.1201782 0.1187204 0.1177765 0.1172317 0.117238
 0.117943 0.1192114 0.1206431 0.1218204 0.1225756 0.1229577 0.1229361 0.1221581 0.1198816 0.1152235
 0.1078647 0.09867664 0.08942559 0.08173035 0.07633093 0.07312062 0.07150142 0.07072029 0.07022326 0.06992555
 0.07013561 0.07117541 0.07309285 0.07572674 0.07890137 0.08239485 0.08579975 0.0886727 0.09087719 0.09260273
 0.09401387 0.09504467 0.09556274 0.09557366 0.09520762 0.09460898 0.09388996 0.09311767 0.09227359 0.09126178
 0.09005841 0.08886403 0.08799643 0.08758992 0.08749463 0.08749031 0.08748129 0.08746673 0.08744667 0.08740081
 0.08730954 0.08720932 0.08723545 0.08752429 0.08804198 0.08858225 0.08894815 0.08909608 0.08911794 0.08908509
 0.08888839 0.08833313 0.08748222 0.08671574 0.08623791 0.08571541 0.08470833 0.08334625 0.08226905 0.08193059
 0.08219638 0.08260167 0.08278362 0.0826508 0.08235888 0.08223381 0.08254936 0.08320372 0.08370662 0.0836501
</values></Ydata></ScRf><Data_Parameters_AB><parameter name="DPF">1</parameter><parameter name="NPT">3497</parameter><parameter name="FXV">3996</parameter><parameter name="LXV">500</parameter><parameter name="CSF">1</parameter><parameter name="MXY">0.284593790769577</parameter><parameter name="MNY">-0.0557385422289371</parameter><parameter name="DAT">01/06/2022</parameter><parameter name="TIM">11:30:05.615 (GMT+2)</parameter><parameter name="DXU">WN</parameter></Data_Parameters_AB><AB__Qtest><MainReport name="Quality Test Report"><Header><Line><Legend>Test result ok/not ok [1/0]: </Legend><Value>0</Value></Line><Line><Legend>Method file: </Legend><Value>C:\Users\Public\Documents\Bruker\OPUS_8.2.28\QT\IRBT_v3_default.QT</Value></Line></Header><Matrix><Line><Legend></Legend><Legend>min</Legend><Legend>max</Legend><Legend>measured</Legend></Line><Line><Value>Absorption (X-Range 1):</Value><Value>0.400000</Value><Value>2.000000</Value><Value>0.233019</Value></Line><Line><Value>Noise (X-Range 4):</Value><Value></Value><Value>0.000300</Value><Value>0.000062</Value></Line><Line><Value>Signal/Noise (X-Range 2):</Value><Value>200.000000</Value><Value></Value><Value>50.135311</Value></Line><Line><Value>Signal/Noise (X-Range 3):</Value><Value>40.000000</Value><Value></Value><Value>30.681513</Value></Line><Line><Value>Water vapour (X-Range 5):</Value><Value></Value><Value>0.000300</Value><Value>0.000095</Value></Line><Line><Value>Signal/Water (X-Range 2):</Value><Value>100.000000</Value><Value></Value><Value>33.026936</Value></Line><Line><Value>Signal/Water (X-Range 3):</Value><Value>20.000000</Value><Value></Value><Value>20.211631</Value></Line><Line><Value>Fringes (X-Range 6):</Value><Value></Value><Value>0.000100</Value><Value>0.000064</Value></Line></Matrix></MainReport></AB__Qtest><Data_Parameters_ScSm><parameter name="DPF">1</parameter><parameter name="NPT">1814</parameter><parameter name="FXV">3996.33169228125</parameter><parameter name="LXV">499.541461535156</parameter><parameter name="CSF">1</parameter><parameter name="MXY">0.257424414157867</parameter><parameter name="MNY">0.0318607687950134</parameter><parameter name="DAT">01/06/2022</parameter><parameter name="TIM">11:30:05.615 (GMT+2)</parameter><parameter name="DXU">WN</parameter></Data_Parameters_ScSm><Data_Parameters_ScRf><parameter name="DPF">1</parameter><parameter name="NPT">1820</parameter><parameter name="FXV">4004.04661832813</parameter><parameter name="LXV">495.683998511719</parameter><parameter name="CSF">1</parameter><parameter name="MXY">0.26516729593277</parameter><parameter name="MNY">0.0285148024559021</parameter><parameter name="DAT">01/06/2022</parameter><parameter name="TIM">11:29:39.762 (GMT+2)</parameter><parameter name="DXU">WN</parameter></Data_Parameters_ScRf><Optic_Parameters_Rf><parameter name="APR">0</parameter><parameter name="APT">Open</parameter><parameter name="BMS">KBr</parameter><parameter name="DTC">RT-DLaTGS_IR-Biotyper [Microplate reader]</parameter><parameter name="HPF">0</parameter><parameter name="LPF">10.0</parameter><parameter name="LPV">4000</parameter><parameter name="PGR">0</parameter><parameter name="RCH">Module port</parameter><parameter name="RDX">0</parameter><parameter name="SRC">MIR</parameter><parameter name="VEL">10.0</parameter><parameter name="SON">Off</parameter></Optic_Parameters_Rf><Acquisition_Parameters_Rf><parameter name="ADT">1</parameter><parameter name="AQM">DD</parameter><parameter name="CFE">0</parameter><parameter name="COR">0</parameter><parameter name="DEL">0</parameter><parameter name="DLY">0</parameter><parameter name="HFW">8000</parameter><parameter name="LFW">0</parameter><parameter name="NSR">32</parameter><parameter name="PLF">AB</parameter><parameter name="RES">6</parameter><parameter name="RGN">-1</parameter><parameter name="STR">0</parameter><parameter name="TCL">MakeCompatibleScalar (0, {WSV=1.000000, ARV=0});</parameter><parameter name="TDL">37</parameter><parameter name="RPO">0</parameter></Acquisition_Parameters_Rf><FT_-_Parameters_Rf><parameter name="APF">B3</parameter><parameter name="HFQ">500</parameter><parameter name="LFQ">4000</parameter><parameter name="NLI">0</parameter><parameter name="PHR">24</parameter><parameter name="PHZ">ML</parameter><parameter name="SPZ">NO</parameter><parameter name="ZFF">1</parameter></FT_-_Parameters_Rf><Optic_Parameters_><parameter name="APR">0</parameter><parameter name="APT">Open</parameter><parameter name="BMS">KBr</parameter><parameter name="CHN">Module port</parameter><parameter name="DTC">RT-DLaTGS_IR-Biotyper [Microplate reader]</parameter><parameter name="HPF">0</parameter><parameter name="LPF">10.0</parameter><parameter name="LPV">4000</parameter><parameter name="PGN">0</parameter><parameter name="RDX">0</parameter><parameter name="SRC">MIR</parameter><parameter name="VEL">10.0</parameter><parameter name="SON">Off</parameter></Optic_Parameters_><FT_-_Parameters_><parameter name="APF">B3</parameter><parameter name="HFQ">500</parameter><parameter name="LFQ">4000</parameter><parameter name="NLI">0</parameter><parameter name="PHR">24</parameter><parameter name="PHZ">ML</parameter><parameter name="SPZ">NO</parameter><parameter name="ZFF">1</parameter></FT_-_Parameters_><Acquisition_Parameters_><parameter name="ADT">1</parameter><parameter name="AQM">DD</parameter><parameter name="CFE">0</parameter><parameter name="COR">0</parameter><parameter name="DEL">0</parameter><parameter name="DLY">0</parameter><parameter name="HFW">8000</parameter><parameter name="LFW">0</parameter><parameter name="NSS">32</parameter><parameter name="PLF">AB</parameter><parameter name="RES">6</parameter><parameter name="SOT">0</parameter><parameter name="TCL">MakeCompatibleScalar (0, {WSV=1.000000, ARV=0});</parameter><parameter name="TDL">37</parameter><parameter name="SPO">0</parameter><parameter name="SGN">-1</parameter></Acquisition_Parameters_><Instrument_Parameters_Rf><parameter name="HFL">15800.168544</parameter><parameter name="LFL">0</parameter><parameter name="LWN">15800.168544</parameter><parameter name="ABP">32197</parameter><parameter name="SSP">1</parameter><parameter name="ARG">2</parameter><parameter name="ASG">2</parameter><parameter name="ASS">32</parameter><parameter name="GFW">16</parameter><parameter name="GBW">16</parameter><parameter name="BFW">0</parameter><parameter name="BBW">0</parameter><parameter name="PKA">7305</parameter><parameter name="PKL">4990</parameter><parameter name="PRA">7478</parameter><parameter name="PRL">5001</parameter><parameter name="P2A">1</parameter><parameter name="P2L">1</parameter><parameter name="P2R">1</parameter><parameter name="P2K">1</parameter><parameter name="DAQ">0</parameter><parameter name="AG2">1</parameter><parameter name="SSM">1</parameter><parameter name="RSN">25903</parameter><parameter name="CRR">0</parameter><parameter name="SRT">1654082979.762</parameter><parameter name="DUR">19.6379852294922</parameter><parameter name="TSC">29</parameter><parameter name="MVD">0.541794180870056</parameter><parameter name="AN1">0.225788313929283</parameter><parameter name="AN2">0</parameter><parameter name="VSN">2.485 Apr  4 2017</parameter><parameter name="SRN">0085</parameter><parameter name="CAM">0</parameter><parameter name="INS">IR-Biotyper</parameter><parameter name="FOC">69</parameter><parameter name="RDY">1</parameter><parameter name="ARS">32</parameter></Instrument_Parameters_Rf><Sample_Parameters_><parameter name="BLD"></parameter><parameter name="CNM">Admin</parameter><parameter name="CPY"></parameter><parameter name="DPM"></parameter><parameter name="EXP">IRBT_v3_32Scans.XPM</parameter><parameter name="LCT"></parameter><parameter name="SFM">Microplate, HTS-XT</parameter><parameter name="SNM">220601-1028(v.3)_RTF49M (D_6)_B5_41f27b8d-b3dd-4d35-8f46-b0ea2d87536a.0</parameter><parameter name="XPP">C:\Users\Public\Documents\Bruker\OPUS_8.2.28\XPM</parameter><parameter name="IST">OK</parameter><parameter name="CPG">1252</parameter><parameter name="UID">43e841fa-42c4-49ec-82d4-a47a3835d7ef</parameter></Sample_Parameters_><Instrument_Parameters_><parameter name="HFL">15800.168544</parameter><parameter name="LFL">0</parameter><parameter name="LWN">15800.168544</parameter><parameter name="ABP">32197</parameter><parameter name="SSP">1</parameter><parameter name="ASG">2</parameter><parameter name="ARG">2</parameter><parameter name="ASS">32</parameter><parameter name="GFW">16</parameter><parameter name="GBW">16</parameter><parameter name="BFW">0</parameter><parameter name="BBW">0</parameter><parameter name="PKA">6769</parameter><parameter name="PKL">4988</parameter><parameter name="PRA">7079</parameter><parameter name="PRL">4993</parameter><parameter name="P2A">1</parameter><parameter name="P2L">1</parameter><parameter name="P2R">1</parameter><parameter name="P2K">1</parameter><parameter name="DAQ">0</parameter><parameter name="AG2">1</parameter><parameter name="SSM">1</parameter><parameter name="RSN">13577</parameter><parameter name="CRR">0</parameter><parameter name="SRT">1654083005.615</parameter><parameter name="DUR">19.6389923095703</parameter><parameter name="TSC">29</parameter><parameter name="MVD">0.604023575782776</parameter><parameter name="AN1">0.225809063116962</parameter><parameter name="AN2">0</parameter><parameter name="VSN">2.485 Apr  4 2017</parameter><parameter name="SRN">0085</parameter><parameter name="CAM">0</parameter><parameter name="INS">IR-Biotyper</parameter><parameter name="FOC">69</parameter><parameter name="RDY">1</parameter></Instrument_Parameters_><History/></OPUSDataFile>
