<?xml version="1.0" encoding="UTF-8" ?>
<OPUSDataFile><AB><Ydata ylabel="Absorbance Units"><values byteorder="INTEL" format="FLOAT32" numvalues="3497"> -0.1156908 -0.1157033 -0.1157164 -0.1157315 -0.1157295 -0.1157095 -0.1156677 -0.1156056 -0.11554 -0.1154734
 -0.1154288 -0.1154048 -0.115411 -0.1154416 -0.1154884 -0.115546 -0.1156012 -0.1156525 -0.1156928 -0.1157231
 -0.1157417 -0.1157495 -0.1157466 -0.1157343 -0.1157122 -0.1156847 -0.115652 -0.1156205 -0.1155909 -0.115569
 -0.115556 -0.1155519 -0.1155569 -0.1155615 -0.1155651 -0.1155551 -0.1155328 -0.1154977 -0.1154537 -0.1154151
 -0.1153838 -0.1153738 -0.1153816 -0.1154086 -0.1154487 -0.1154955 -0.1155447 -0.115591 -0.1156314 -0.1156641
 -0.1156836 -0.1156884 -0.1156711 -0.115629 -0.1155607 -0.1154638 -0.1153528 -0.1152276 -0.1151172 -0.1150232
 -0.1149719 -0.1149628 -0.1149965 -0.1150682 -0.1151494 -0.1152367 -0.115302 -0.1153499 -0.1153774 -0.1153906
 -0.1154002 -0.1154055 -0.1154114 -0.115412 -0.115404 -0.1153838 -0.1153473 -0.1152967 -0.1152305 -0.1151571
 -0.1150772 -0.1150025 -0.1149346 -0.114885 -0.114855 -0.1148537 -0.1148819 -0.1149477 -0.115051 -0.1151935
 -0.115371 -0.1155606 -0.1157513 -0.1158882 -0.1159694 -0.115954 -0.1158663 -0.1157249 -0.1155593 -0.1154143
 -0.1152979 -0.1152366 -0.1152111 -0.1152221 -0.1152373 -0.1152425 -0.1152277 -0.1151833 -0.1151333 -0.11508
 -0.1150463 -0.1150365 -0.1150372 -0.1150479 -0.1150361 -0.1150022 -0.1149432 -0.1148649 -0.1148029 -0.1147604
 -0.1147716 -0.1148279 -0.1149301 -0.1150589 -0.115182 -0.1152887 -0.1153489 -0.1153751 -0.1153671 -0.1153381
 -0.1152984 -0.1152446 -0.1151756 -0.1150974 -0.1150058 -0.1149369 -0.1148939 -0.11492 -0.1150223 -0.1152008
 -0.1154569 -0.1156801 -0.1158632 -0.1158637 -0.1156996 -0.1154151 -0.1150364 -0.1146901 -0.1143761 -0.1141572
 -0.1140226 -0.1139852 -0.1140251 -0.1141292 -0.1142668 -0.1144098 -0.1145347 -0.1146167 -0.1146605 -0.114659
 -0.1146356 -0.1145954 -0.1145527 -0.1145115 -0.1144718 -0.1144338 -0.1143965 -0.1143598 -0.1143307 -0.11431
 -0.1143086 -0.1143256 -0.1143626 -0.1144145 -0.1144638 -0.1145042 -0.1145098 -0.1144818 -0.1144078 -0.1142991
 -0.1141616 -0.1140112 -0.1138609 -0.1137279 -0.1136241 -0.1135643 -0.1135589 -0.1136075 -0.1137171 -0.1138577
 -0.1140288 -0.1141822 -0.1143129 -0.1143881 -0.1144052 -0.1143621 -0.11426 -0.1141175 -0.1139368 -0.1137402
 -0.11353 -0.1133256 -0.1131307 -0.112964 -0.112828 -0.1127377 -0.1126867 -0.112677 -0.112691 -0.1127154
 -0.1127344 -0.1127323 -0.1127129 -0.1126719 -0.1126256 -0.1125787 -0.1125365 -0.1125017 -0.1124665 -0.1124299
 -0.1123921 -0.1123529 -0.1123256 -0.1123109 -0.1123183 -0.1123456 -0.1123824 -0.1124248 -0.1124495 -0.1124582
 -0.1124414 -0.1124081 -0.11237 -0.1123344 -0.1123169 -0.1123166 -0.1123381 -0.1123776 -0.1124319 -0.1125051
 -0.1125982 -0.1127154 -0.1128624 -0.1130191 -0.1131865 -0.1133225 -0.1134224 -0.1134619 -0.1134389 -0.1133482
 -0.1131901 -0.1129683 -0.1126885 -0.1123912 -0.112086 -0.1118348 -0.1116398 -0.1115421 -0.1115274 -0.1115976
 -0.1117142 -0.1118306 -0.1119191 -0.111929 -0.1118854 -0.1117849 -0.111667 -0.1115495 -0.1114458 -0.1113658
 -0.1112986 -0.1112446 -0.1111874 -0.1111248 -0.1110525 -0.1109701 -0.1108858 -0.1108004 -0.1107274 -0.1106678
 -0.1106359 -0.1106294 -0.11065 -0.1106861 -0.1107077 -0.1107069 -0.1106481 -0.110548 -0.1104113 -0.1102587
 -0.1101137 -0.1099757 -0.1098539 -0.1097324 -0.1096056 -0.1094675 -0.109312 -0.1091552 -0.1089983 -0.1088622
 -0.1087501 -0.1086678 -0.108616 -0.108579 -0.1085551 -0.1085136 -0.1084545 -0.108361 -0.1082386 -0.108101
 -0.1079535 -0.107817 -0.1076933 -0.1075948 -0.1075211 -0.1074792 -0.1074603 -0.1074639 -0.1074679 -0.1074602
 -0.1074215 -0.1073378 -0.1072142 -0.1070482 -0.1068531 -0.1066321 -0.1063871 -0.1061191 -0.1058248 -0.1055038
 -0.1051592 -0.1047921 -0.1044232 -0.1040561 -0.1037297 -0.1034452 -0.1032327 -0.1030813 -0.1029781 -0.1029081
 -0.102832 -0.102755 -0.1026648 -0.1025791 -0.1025191 -0.1024658 -0.1024241 -0.102337 -0.1021726 -0.1019326
 -0.1016013 -0.1012417 -0.1008643 -0.1005077 -0.1001796 -0.09987772 -0.0996024 -0.09934005 -0.09909087 -0.09886084
 -0.09865224 -0.09848807 -0.09836446 -0.0982843 -0.09822759 -0.09814271 -0.09801134 -0.09776158 -0.09742321 -0.0969976
 -0.09653776 -0.09609698 -0.09569295 -0.0953579 -0.09507232 -0.09484033 -0.09462236 -0.09440672 -0.09417246 -0.0939097
 -0.09363771 -0.09335741 -0.09308873 -0.09283394 -0.09257704 -0.09231672 -0.09202234 -0.09169605 -0.09133887 -0.09095759
 -0.09058279 -0.09021697 -0.08988393 -0.08957951 -0.08930831 -0.08906193 -0.08883303 -0.08861006 -0.08837933 -0.08813599
 -0.08787006 -0.08759184 -0.08730292 -0.08701406 -0.08673199 -0.08644608 -0.0861572 -0.08584276 -0.08549836 -0.08512785
 -0.08473027 -0.08434234 -0.08396563 -0.08362924 -0.08333094 -0.08306786 -0.08283415 -0.082603 -0.08237106 -0.08211229
 -0.08183394 -0.08153501 -0.0812301 -0.08093974 -0.08066918 -0.08043662 -0.08022246 -0.08002501 -0.07980838 -0.07955287
 -0.07925137 -0.07889047 -0.07850925 -0.07811196 -0.07773667 -0.07739079 -0.07707351 -0.07678606 -0.07650016 -0.07621473
 -0.07591123 -0.07559134 -0.07526152 -0.07492254 -0.07458243 -0.07423771 -0.07388078 -0.0735128 -0.0731286 -0.07274058
 -0.07236314 -0.07200573 -0.07168666 -0.07139565 -0.07113454 -0.07088245 -0.070629 -0.07036745 -0.07009036 -0.06981322
 -0.06953701 -0.0692805 -0.06904782 -0.06883366 -0.06863879 -0.06843158 -0.06821056 -0.06794771 -0.06764542 -0.06730956
 -0.0669466 -0.06658965 -0.06624085 -0.06592619 -0.06563793 -0.06537461 -0.06512508 -0.06487167 -0.06461297 -0.06433791
 -0.06405934 -0.06378184 -0.06351746 -0.06327612 -0.06305013 -0.06284234 -0.06262891 -0.06240536 -0.06215622 -0.06187756
 -0.06157529 -0.06124901 -0.06091927 -0.06058721 -0.06027435 -0.05998063 -0.05971586 -0.05947725 -0.05925808 -0.05905453
 -0.05885188 -0.05864855 -0.05843402 -0.05820955 -0.05797179 -0.0577246 -0.05746929 -0.05721268 -0.05695956 -0.05671448
 -0.05648182 -0.05625854 -0.05604475 -0.05583638 -0.05563185 -0.05543389 -0.05524321 -0.05505718 -0.05487631 -0.05468059
 -0.054469 -0.05422101 -0.05393881 -0.05363076 -0.05330345 -0.05299215 -0.05270039 -0.05245953 -0.05226285 -0.05211462
 -0.05200004 -0.05190053 -0.05180486 -0.05169279 -0.05156803 -0.05142433 -0.05127695 -0.05113161 -0.05099797 -0.05088204
 -0.0507794 -0.05069136 -0.05060544 -0.05052067 -0.05042364 -0.05031328 -0.05017978 -0.05002286 -0.04984246 -0.04963959
 -0.04942355 -0.04919494 -0.04896158 -0.04872304 -0.04848093 -0.04823731 -0.04799573 -0.04776158 -0.04754426 -0.04734622
 -0.0471748 -0.04702526 -0.0468978 -0.04678394 -0.04667971 -0.04657999 -0.04648175 -0.04638564 -0.04629089 -0.04620125
 -0.0461172 -0.04604084 -0.04597264 -0.04590841 -0.0458477 -0.04577771 -0.04569745 -0.04559157 -0.04546111 -0.04530088
 -0.04511687 -0.04492302 -0.04472748 -0.04455487 -0.04440615 -0.044297 -0.044214 -0.04415287 -0.04409197 -0.04401395
 -0.04391026 -0.04376716 -0.04360493 -0.04342371 -0.04325744 -0.04311499 -0.04300791 -0.0429416 -0.04289342 -0.04286223
 -0.04282402 -0.04277825 -0.04273342 -0.04269185 -0.04268096 -0.04269867 -0.04275171 -0.04283126 -0.04291423 -0.0429932
 -0.04303979 -0.04305651 -0.04303248 -0.04297949 -0.0429044 -0.04281941 -0.04273666 -0.0426571 -0.04258727 -0.04251294
 -0.04243137 -0.04232913 -0.04219968 -0.04205522 -0.04189365 -0.04175334 -0.04163701 -0.04157687 -0.04157384 -0.0416225
 -0.04171941 -0.04182876 -0.0419487 -0.04205004 -0.04213654 -0.04220542 -0.04225894 -0.04230265 -0.04233166 -0.04234064
 -0.04232713 -0.04228259 -0.04221948 -0.04214138 -0.04206683 -0.04200742 -0.041967 -0.04195236 -0.04194809 -0.04195292
 -0.04194903 -0.04193291 -0.04190121 -0.04185253 -0.04180262 -0.04175245 -0.04172726 -0.04172734 -0.04176732 -0.04184291
 -0.04194224 -0.04205725 -0.04215594 -0.04223472 -0.04226725 -0.04226253 -0.04221906 -0.04215577 -0.04209128 -0.04203922
 -0.04201851 -0.04202244 -0.04205631 -0.0420969 -0.04213763 -0.04216247 -0.0421648 -0.04214875 -0.04211374 -0.04206812
 -0.04201323 -0.04194038 -0.04184907 -0.04172422 -0.04156762 -0.04138979 -0.04119765 -0.04103265 -0.04089899 -0.04083544
 -0.04083342 -0.04089738 -0.04100777 -0.04113885 -0.04127266 -0.04137981 -0.04145535 -0.04148332 -0.0414766 -0.04143312
 -0.04138165 -0.04132881 -0.04130611 -0.04132292 -0.04139088 -0.04151555 -0.04167758 -0.04187673 -0.0420801 -0.04228612
 -0.04247443 -0.04264524 -0.04279413 -0.04292104 -0.04302324 -0.04309991 -0.04314517 -0.04316225 -0.04315176 -0.04312586
 -0.04310004 -0.04309205 -0.04312656 -0.04321278 -0.04336938 -0.04358331 -0.04385746 -0.04416175 -0.0444879 -0.04481007
 -0.04512034 -0.04540844 -0.0456718 -0.04590645 -0.04611181 -0.04628485 -0.04642555 -0.04654279 -0.04663823 -0.04673384
 -0.04682982 -0.04694014 -0.04706066 -0.04718457 -0.04730951 -0.04742442 -0.04753559 -0.04764673 -0.04776675 -0.04790878
 -0.04807093 -0.0482597 -0.04845863 -0.0486632 -0.04885346 -0.04902063 -0.04915736 -0.04925724 -0.04933696 -0.0493955
 -0.0494692 -0.04956102 -0.04970015 -0.04988786 -0.05011659 -0.05038287 -0.05064528 -0.05090104 -0.05111118 -0.05128091
 -0.05140465 -0.05149382 -0.05157079 -0.05164405 -0.05173801 -0.05185136 -0.05199379 -0.05215535 -0.05233258 -0.05251475
 -0.05269456 -0.05286968 -0.05303674 -0.05320082 -0.05336294 -0.05352474 -0.0536873 -0.05384505 -0.0539975 -0.05414161
 -0.0542773 -0.05441212 -0.05454673 -0.05469168 -0.05484619 -0.05501196 -0.05518648 -0.05536221 -0.05553738 -0.05570372
 -0.05586217 -0.05600957 -0.05615025 -0.05628678 -0.05642535 -0.05657183 -0.05672843 -0.05689982 -0.05707838 -0.05726383
 -0.05744348 -0.05761363 -0.05776994 -0.05791004 -0.05804262 -0.05816799 -0.05829782 -0.05843271 -0.05857781 -0.05873306
 -0.05889917 -0.0590761 -0.05926466 -0.05946375 -0.05967134 -0.05988366 -0.06009163 -0.06029116 -0.06047055 -0.06063137
 -0.06076911 -0.06089182 -0.06100426 -0.06111203 -0.0612216 -0.06132642 -0.06142678 -0.06151102 -0.06157437 -0.061621
 -0.06164809 -0.06168352 -0.06172896 -0.06181609 -0.0619466 -0.06212658 -0.06235342 -0.0625982 -0.06285575 -0.06308075
 -0.06327295 -0.06340345 -0.06348421 -0.06352441 -0.06354494 -0.06358401 -0.0636525 -0.06378353 -0.06395949 -0.06418351
 -0.06441857 -0.06464469 -0.06484289 -0.06499617 -0.06512418 -0.0652269 -0.06533235 -0.0654479 -0.06556712 -0.06569199
 -0.06578488 -0.06584386 -0.06584677 -0.06579628 -0.06571838 -0.06562033 -0.06555855 -0.06553476 -0.0655891 -0.06570958
 -0.06589169 -0.06611551 -0.06634592 -0.06657303 -0.06676827 -0.06694167 -0.06709078 -0.06722971 -0.06736846 -0.06750417
 -0.06763981 -0.06776261 -0.06786826 -0.06795782 -0.06802954 -0.06809719 -0.06816242 -0.06822763 -0.06829301 -0.06834355
 -0.06837887 -0.06838918 -0.06837714 -0.06835287 -0.06832013 -0.06829832 -0.06828745 -0.06829833 -0.06832632 -0.06836887
 -0.06842132 -0.0684754 -0.06853464 -0.06859582 -0.06867376 -0.06877483 -0.0689123 -0.0690964 -0.06931633 -0.06957658
 -0.06983665 -0.07009248 -0.07030073 -0.07045528 -0.07054873 -0.07058027 -0.07059003 -0.07058137 -0.07061058 -0.07067663
 -0.07080533 -0.07098614 -0.07119717 -0.07142497 -0.07162513 -0.07179451 -0.07190377 -0.07196733 -0.07198621 -0.07198664
 -0.07198881 -0.07201309 -0.07208013 -0.07218337 -0.07233118 -0.07248648 -0.07264335 -0.07276421 -0.07283856 -0.072871
 -0.07285804 -0.07284943 -0.07284782 -0.07289668 -0.07299471 -0.07313307 -0.07330561 -0.07346827 -0.07362142 -0.07374036
 -0.07383567 -0.07392126 -0.07400418 -0.07410589 -0.07421941 -0.07434659 -0.07447521 -0.074595 -0.07470142 -0.07478851
 -0.07485813 -0.07491084 -0.07494359 -0.07495671 -0.07494198 -0.07489733 -0.07482235 -0.0747152 -0.07459761 -0.07447058
 -0.07437455 -0.074311 -0.07431109 -0.074371 -0.07448515 -0.07464413 -0.07481068 -0.07497793 -0.07510936 -0.07520615
 -0.0752532 -0.07525591 -0.07521435 -0.07513454 -0.07501974 -0.07487951 -0.0747178 -0.07454896 -0.07437821 -0.07421914
 -0.07407638 -0.07395648 -0.0738624 -0.0737884 -0.07373563 -0.07368073 -0.07362255 -0.07352431 -0.07338485 -0.07317889
 -0.07291053 -0.07259104 -0.07222931 -0.07186504 -0.0715026 -0.07117523 -0.07087644 -0.07061158 -0.07036967 -0.07013862
 -0.06991412 -0.06968687 -0.06946171 -0.06923774 -0.06902376 -0.0688225 -0.06864184 -0.0684841 -0.06835519 -0.06825637
 -0.06819155 -0.06816123 -0.06816817 -0.0682126 -0.06829389 -0.06841128 -0.06855357 -0.06871832 -0.06888417 -0.06904969
 -0.06919759 -0.06932922 -0.06943996 -0.06953 -0.06959854 -0.06964298 -0.06965827 -0.06964753 -0.06960839 -0.06955468
 -0.06949306 -0.06943508 -0.06938923 -0.06935059 -0.06932095 -0.06928638 -0.06924409 -0.06918917 -0.06911989 -0.06904523
 -0.0689655 -0.06889687 -0.06884044 -0.06881531 -0.06882254 -0.06887963 -0.06898457 -0.06914163 -0.06934252 -0.06957075
 -0.06981438 -0.07004462 -0.07025605 -0.07042638 -0.07056823 -0.07067848 -0.07078961 -0.07091583 -0.07109256 -0.07133888
 -0.07166672 -0.07208782 -0.07257859 -0.07314049 -0.07372655 -0.07433298 -0.07491374 -0.07546569 -0.07596178 -0.07640187
 -0.07678204 -0.07710429 -0.07737944 -0.07760964 -0.07780814 -0.0779774 -0.0781294 -0.07826772 -0.07840456 -0.07854067
 -0.07868412 -0.07882711 -0.07896753 -0.0790929 -0.07919428 -0.07926799 -0.07930831 -0.07932451 -0.07931732 -0.07929794
 -0.07926888 -0.07923397 -0.07919436 -0.07914622 -0.07908948 -0.07901569 -0.07892482 -0.07881419 -0.07868709 -0.07856293
 -0.0784488 -0.07838427 -0.07837168 -0.07844143 -0.07858172 -0.07878965 -0.07904293 -0.07931387 -0.07958385 -0.07982638
 -0.0800361 -0.08020011 -0.08032781 -0.08041786 -0.08048844 -0.08054379 -0.08059877 -0.08065776 -0.08072128 -0.08079043
 -0.08085647 -0.08091871 -0.08098023 -0.08104248 -0.08113287 -0.0812538 -0.08143841 -0.08168221 -0.08198912 -0.08234394
 -0.08271028 -0.08307326 -0.08338552 -0.08365061 -0.08384828 -0.08400334 -0.08412846 -0.08424947 -0.08438782 -0.08454899
 -0.08474386 -0.0849559 -0.08518448 -0.08540642 -0.08561734 -0.08580244 -0.08595887 -0.08608598 -0.08618335 -0.08626159
 -0.08632135 -0.08637492 -0.08642254 -0.08647172 -0.08652201 -0.08657606 -0.08663227 -0.08668857 -0.08674178 -0.08678498
 -0.08681656 -0.08682965 -0.08682998 -0.08681785 -0.08680584 -0.08680167 -0.08681327 -0.08684866 -0.0868988 -0.08696545
 -0.08702587 -0.08707622 -0.08709991 -0.08709314 -0.08706312 -0.08700966 -0.0869574 -0.0869073 -0.08687659 -0.08686361
 -0.08686403 -0.08687556 -0.08688524 -0.0868948 -0.08690166 -0.08690984 -0.08692675 -0.08695199 -0.08698946 -0.08703361
 -0.08708091 -0.0871269 -0.08716755 -0.0872016 -0.08722787 -0.08724494 -0.08725178 -0.08724957 -0.08723698 -0.08722498
 -0.08721425 -0.08721824 -0.0872382 -0.0872724 -0.08732005 -0.08736323 -0.08740115 -0.08741884 -0.08741835 -0.08740004
 -0.087367 -0.08732798 -0.08728421 -0.08724204 -0.08720157 -0.08716541 -0.08713334 -0.08710659 -0.087083 -0.08706195
 -0.0870406 -0.08701696 -0.08699207 -0.08696471 -0.08694194 -0.08692458 -0.08691999 -0.08692969 -0.08695228 -0.08698808
 -0.08702437 -0.08706041 -0.08708135 -0.08708759 -0.08707444 -0.08704433 -0.08700479 -0.0869584 -0.08691657 -0.08687944
 -0.08685331 -0.08683536 -0.08682477 -0.08681815 -0.08681148 -0.08680482 -0.08679589 -0.08678961 -0.08678763 -0.08679327
 -0.08680886 -0.08683071 -0.08685894 -0.08688704 -0.08691397 -0.08693862 -0.08696076 -0.08698338 -0.0870065 -0.08702963
 -0.08705202 -0.08706737 -0.08707526 -0.08706975 -0.08705238 -0.08702379 -0.08698697 -0.08694784 -0.08690868 -0.08687519
 -0.08684764 -0.08682816 -0.08681656 -0.08681338 -0.08681792 -0.08683092 -0.08684787 -0.08686849 -0.08688476 -0.08689465
 -0.08689591 -0.08688728 -0.08687648 -0.08686396 -0.08685693 -0.08685532 -0.08685382 -0.08685112 -0.08683364 -0.08680177
 -0.08674868 -0.08667831 -0.08659735 -0.08651121 -0.08643374 -0.08636723 -0.0863217 -0.08629365 -0.08628421 -0.08628694
 -0.08629785 -0.0863132 -0.08633006 -0.08634816 -0.08636728 -0.08638568 -0.08640324 -0.08641703 -0.08642637 -0.08643271
 -0.08643592 -0.08644244 -0.08645254 -0.0864708 -0.08649649 -0.0865261 -0.08655781 -0.08658163 -0.08659668 -0.08659435
 -0.08657706 -0.08654441 -0.08650159 -0.08645552 -0.08640967 -0.08637082 -0.08633687 -0.08630892 -0.08628288 -0.08625665
 -0.08622967 -0.08620076 -0.08617319 -0.08614755 -0.08612557 -0.08610779 -0.08609223 -0.08607884 -0.08606441 -0.08604883
 -0.08603115 -0.0860116 -0.08599184 -0.08597194 -0.08595353 -0.0859357 -0.08591675 -0.08589546 -0.08586792 -0.08583527
 -0.08579639 -0.08575572 -0.08571693 -0.0856837 -0.08566064 -0.08564558 -0.08563983 -0.08563624 -0.08563292 -0.08562469
 -0.08560953 -0.0855889 -0.08556236 -0.08553553 -0.08550877 -0.08548659 -0.08546911 -0.08545703 -0.0854499 -0.08544469
 -0.08544061 -0.0854325 -0.08541976 -0.08539759 -0.08536666 -0.08532537 -0.08527652 -0.08522273 -0.08516794 -0.08511695
 -0.08507194 -0.08503661 -0.08500852 -0.08498844 -0.08497024 -0.08495239 -0.08492978 -0.0849006 -0.0848652 -0.08482295
 -0.08477873 -0.08473279 -0.08469078 -0.08465293 -0.08462269 -0.08460006 -0.08458678 -0.08458241 -0.08458651 -0.08459741
 -0.08461057 -0.08462328 -0.0846277 -0.08462293 -0.08460335 -0.08457232 -0.08453038 -0.08448291 -0.0844342 -0.08438561
 -0.08433948 -0.08429311 -0.08424587 -0.08419666 -0.08414444 -0.08409346 -0.08404386 -0.08400171 -0.08396763 -0.08394299
 -0.08392771 -0.08391687 -0.08390982 -0.083899 -0.08388421 -0.08386047 -0.08382832 -0.08378662 -0.08373616 -0.08367754
 -0.08361239 -0.08354235 -0.08347127 -0.08340299 -0.0833419 -0.08329281 -0.08325569 -0.08323305 -0.08321859 -0.08321142
 -0.08320399 -0.08319435 -0.08317917 -0.08315744 -0.08313059 -0.08309864 -0.08306407 -0.083027 -0.08298765 -0.08294596
 -0.0829009 -0.08285313 -0.08280487 -0.08275756 -0.08271722 -0.08268365 -0.08266022 -0.08264376 -0.08263109 -0.08261967
 -0.08260488 -0.08258847 -0.08257016 -0.08255213 -0.08253653 -0.08252001 -0.08250253 -0.08247821 -0.08244511 -0.08240352
 -0.08235236 -0.08230072 -0.08224912 -0.08220711 -0.08217502 -0.08215351 -0.08214171 -0.0821315 -0.08212214 -0.08210535
 -0.08208206 -0.08205055 -0.0820126 -0.08197108 -0.08192728 -0.08188422 -0.08184284 -0.08180514 -0.08177172 -0.08174439
 -0.0817204 -0.08169974 -0.08167692 -0.08164971 -0.0816166 -0.08157583 -0.08153365 -0.08149046 -0.08145311 -0.08142246
 -0.08139738 -0.08137769 -0.08135586 -0.08133179 -0.08130134 -0.08126549 -0.08122715 -0.08118717 -0.08115007 -0.08111521
 -0.08108352 -0.08105362 -0.08102367 -0.08099318 -0.0809609 -0.08092691 -0.08089128 -0.08085283 -0.08081128 -0.08076461
 -0.08071175 -0.08065297 -0.08058745 -0.08051974 -0.08045001 -0.08038472 -0.0803245 -0.080272 -0.08022726 -0.0801871
 -0.08015125 -0.08011516 -0.08007923 -0.08004291 -0.08000697 -0.07997395 -0.07994339 -0.07991601 -0.07989003 -0.07986325
 -0.07983397 -0.07979951 -0.07975919 -0.07971111 -0.07965717 -0.07959688 -0.07953554 -0.07947433 -0.07941924 -0.07937236
 -0.07933403 -0.07930525 -0.07927934 -0.07925596 -0.07922754 -0.07919373 -0.07915236 -0.07910385 -0.07905188 -0.07899696
 -0.07894404 -0.07889252 -0.07884312 -0.0787949 -0.07874532 -0.07869587 -0.07864697 -0.0786022 -0.07856658 -0.078539
 -0.07852221 -0.07850771 -0.07849243 -0.0784685 -0.07843127 -0.07838286 -0.07832198 -0.07825739 -0.07819017 -0.07812668
 -0.07806768 -0.07801519 -0.07796935 -0.07793133 -0.07790107 -0.07787868 -0.07786356 -0.07785274 -0.07784572 -0.07783857
 -0.07783289 -0.07782915 -0.07783185 -0.07784808 -0.07788094 -0.07793806 -0.07801528 -0.07811369 -0.07822312 -0.07833737
 -0.07845517 -0.07857114 -0.07870324 -0.07885286 -0.07904461 -0.07928376 -0.0795741 -0.07991817 -0.08028731 -0.08067979
 -0.08104347 -0.08137509 -0.08162122 -0.08178145 -0.08182355 -0.08175338 -0.08157007 -0.08128625 -0.08092439 -0.08050644
 -0.0800731 -0.07964648 -0.07926768 -0.07894084 -0.0786828 -0.07848753 -0.07835507 -0.07828379 -0.07827386 -0.07832173
 -0.07843195 -0.07857069 -0.07873866 -0.07886568 -0.07894459 -0.07894171 -0.07885558 -0.07872933 -0.07856662 -0.0784245
 -0.07830076 -0.07821462 -0.07815699 -0.07810771 -0.07805988 -0.07798498 -0.07788889 -0.0777671 -0.07763001 -0.07749081
 -0.07734527 -0.07719682 -0.07703213 -0.07684201 -0.07663012 -0.07639159 -0.07615065 -0.07591144 -0.07569511 -0.07550661
 -0.07534852 -0.07522223 -0.07511645 -0.07503059 -0.07495045 -0.07487576 -0.07479902 -0.07472083 -0.07464086 -0.07455911
 -0.07447539 -0.07438918 -0.07429843 -0.0742047 -0.07410924 -0.07401436 -0.07392408 -0.07383654 -0.0737524 -0.07366707
 -0.07357729 -0.07348402 -0.07338571 -0.07328935 -0.07319646 -0.07311123 -0.07303503 -0.07296576 -0.07290345 -0.07284483
 -0.07278971 -0.07273687 -0.07268636 -0.07263806 -0.07259212 -0.07254939 -0.07250977 -0.07247401 -0.07244054 -0.07240652
 -0.07236964 -0.0723244 -0.07227124 -0.07220734 -0.07213752 -0.07206395 -0.07199232 -0.07192644 -0.07186859 -0.07182114
 -0.07178153 -0.07175013 -0.07172143 -0.0716948 -0.07166508 -0.07163175 -0.07159139 -0.07154381 -0.07148712 -0.07142149
 -0.07134753 -0.07126629 -0.0711835 -0.07110098 -0.07102849 -0.07096608 -0.07092012 -0.07088635 -0.07086176 -0.07083995
 -0.07081198 -0.07077578 -0.07072525 -0.07066597 -0.07059861 -0.07053062 -0.07046556 -0.07040492 -0.07035023 -0.07029859
 -0.07024949 -0.07020291 -0.07015871 -0.0701189 -0.0700836 -0.07004961 -0.07001641 -0.0699758 -0.06992792 -0.06986891
 -0.06980059 -0.06972735 -0.06965085 -0.06957779 -0.06950735 -0.06944154 -0.0693782 -0.06931529 -0.06925234 -0.06918767
 -0.0691236 -0.06906072 -0.06900164 -0.06894768 -0.06889936 -0.06885723 -0.06882025 -0.06878837 -0.06876042 -0.06873639
 -0.06871364 -0.06869201 -0.06866693 -0.06863821 -0.06860246 -0.06856006 -0.06851164 -0.06845794 -0.068402 -0.06834417
 -0.06828684 -0.06822989 -0.06817432 -0.06811942 -0.06806479 -0.06800993 -0.06795378 -0.06789792 -0.06784227 -0.0677906
 -0.06774453 -0.06770536 -0.06767456 -0.06764767 -0.06762455 -0.06759848 -0.06756858 -0.06753264 -0.06749048 -0.06744515
 -0.06739686 -0.0673492 -0.067302 -0.067256 -0.06721088 -0.06716582 -0.067121 -0.06707644 -0.06703246 -0.06698991
 -0.06694825 -0.06690761 -0.0668661 -0.06682231 -0.06677484 -0.06672207 -0.06666505 -0.0666032 -0.0665403 -0.06647693
 -0.06641735 -0.06636246 -0.06631415 -0.06627294 -0.06623664 -0.06620515 -0.06617305 -0.06614013 -0.0661022 -0.06605972
 -0.06601348 -0.06596436 -0.06591642 -0.06586941 -0.0658251 -0.06578204 -0.06573824 -0.06569364 -0.06564678 -0.0655999
 -0.06555469 -0.06551155 -0.065472 -0.06543279 -0.06539269 -0.06535077 -0.06530546 -0.06526293 -0.06522393 -0.06519376
 -0.06517377 -0.06515741 -0.06514444 -0.06512069 -0.06508598 -0.06503475 -0.06496883 -0.06489718 -0.06482164 -0.06475456
 -0.06469511 -0.064648 -0.06461036 -0.06457943 -0.06455293 -0.06452698 -0.06450058 -0.06447154 -0.0644399 -0.06440482
 -0.06436776 -0.06432895 -0.0642903 -0.06425282 -0.06421524 -0.06417796 -0.06413592 -0.0640886 -0.06403279 -0.06396819
 -0.06389894 -0.06382556 -0.06375671 -0.0636926 -0.06363917 -0.06359506 -0.06355871 -0.06352769 -0.06349514 -0.06345958
 -0.06341452 -0.06336184 -0.06330034 -0.06323484 -0.06316876 -0.06310607 -0.0630506 -0.06300193 -0.0629615 -0.0629252
 -0.0628925 -0.06285898 -0.06282365 -0.06278507 -0.06274272 -0.06269959 -0.06265582 -0.06261542 -0.06257837 -0.06254461
 -0.06251366 -0.06248203 -0.06244961 -0.06241409 -0.06237574 -0.06233423 -0.06228941 -0.06224057 -0.06218833 -0.06213247
 -0.0620755 -0.06201943 -0.0619661 -0.06191781 -0.06187274 -0.06183096 -0.06178949 -0.06174717 -0.06170407 -0.06165979
 -0.06161658 -0.06157478 -0.06153451 -0.06149588 -0.06145512 -0.06141189 -0.06136019 -0.0613 -0.06122785 -0.06114508
 -0.06105429 -0.06095829 -0.06086533 -0.06077794 -0.06070495 -0.06064583 -0.0606049 -0.06057646 -0.06055839 -0.06054201
 -0.06052129 -0.06049236 -0.06045081 -0.06040192 -0.0603458 -0.06028965 -0.06023546 -0.0601828 -0.06013223 -0.06007775
 -0.06001896 -0.05995494 -0.05988599 -0.05981773 -0.05975043 -0.05968907 -0.05963305 -0.0595824 -0.05953668 -0.05949464
 -0.05945634 -0.05942166 -0.05938974 -0.05936019 -0.05933012 -0.05929695 -0.05925864 -0.05921204 -0.05916089 -0.05910515
 -0.05905159 -0.05900278 -0.05895928 -0.05892282 -0.05888379 -0.05884154 -0.0587857 -0.05871541 -0.05863112 -0.05853349
 -0.05843471 -0.058336 -0.05825216 -0.05818251 -0.05813327 -0.05810064 -0.05807827 -0.0580618 -0.05803979 -0.05801162
 -0.05797109 -0.05792149 -0.05786323 -0.05780045 -0.05773547 -0.05767192 -0.05761198 -0.05755693 -0.05750825 -0.05746255
 -0.0574198 -0.05737471 -0.05732639 -0.05727467 -0.05721943 -0.05716389 -0.057108 -0.05705087 -0.05699187 -0.05692575
 -0.05685262 -0.05676958 -0.0566784 -0.05658166 -0.05648246 -0.05638711 -0.0562989 -0.0562251 -0.0561657 -0.05612509
 -0.0560959 -0.05607633 -0.05605561 -0.05602836 -0.05599013 -0.05593739 -0.05587519 -0.05580345 -0.05572975 -0.055655
 -0.05558389 -0.05551688 -0.05545343 -0.05539335 -0.05533209 -0.05526962 -0.05520304 -0.05513328 -0.0550629 -0.05499245
 -0.05492527 -0.05486019 -0.05479666 -0.05473343 -0.05466807 -0.05460151 -0.05453331 -0.05446593 -0.05440091 -0.05433936
 -0.05428287 -0.05422861 -0.05417675 -0.05412156 -0.05406187 -0.05399456 -0.05391856 -0.05383868 -0.05375509 -0.05367571
 -0.05360069 -0.05353206 -0.05346936 -0.05340969 -0.0533529 -0.053297 -0.0532418 -0.05318615 -0.05312913 -0.05306816
 -0.05300353 -0.0529339 -0.05286189 -0.05278942 -0.05271843 -0.05265149 -0.05258643 -0.05252336 -0.05245853 -0.05239046
 -0.05231884 -0.05224294 -0.05216624 -0.05208905 -0.05201433 -0.05194237 -0.05187265 -0.05180516 -0.05173926 -0.05167542
 -0.05161707 -0.05156444 -0.05152146 -0.05148549 -0.05145237 -0.05141689 -0.05136631 -0.05129996 -0.05120892 -0.05110261
 -0.05098554 -0.05086845 -0.0507608 -0.05066353 -0.05058097 -0.05050466 -0.05043309 -0.05035899 -0.05027976 -0.05019776
 -0.05011261 -0.05003098 -0.04995345 -0.04987988 -0.0498101 -0.04973963 -0.04966878 -0.04959812 -0.04952836 -0.04946374
 -0.04940279 -0.04934408 -0.04928479 -0.04921815 -0.04914419 -0.04905949 -0.04896666 -0.04886651 -0.04876246 -0.04865628
 -0.04855241 -0.04845328 -0.04836118 -0.04827823 -0.04820035 -0.04812753 -0.0480533 -0.04797669 -0.04789535 -0.04780903
 -0.04771725 -0.04761994 -0.04751511 -0.047403 -0.047284 -0.04715944 -0.04703527 -0.04691286 -0.04679941 -0.04669486
 -0.04660302 -0.04652167 -0.04645018 -0.04638423 -0.04631997 -0.04625328 -0.04617999 -0.04609951 -0.04601033 -0.04591383
 -0.04581018 -0.04570026 -0.04558383 -0.04546426 -0.04534142 -0.04522328 -0.04511042 -0.04500821 -0.04491661 -0.04483109
 -0.04475053 -0.0446634 -0.04456921 -0.04445864 -0.04433421 -0.04419776 -0.04405324 -0.04390996 -0.04376839 -0.04363388
 -0.04350324 -0.04337529 -0.04324755 -0.04311718 -0.04298595 -0.0428533 -0.04272372 -0.04259881 -0.0424799 -0.04236858
 -0.0422584 -0.04214968 -0.04202748 -0.0418906 -0.04173113 -0.04154939 -0.04136116 -0.04116793 -0.04099035 -0.04082661
 -0.04067958 -0.04054596 -0.0404172 -0.0402923 -0.04016514 -0.04003618 -0.0399042 -0.03976791 -0.03962567 -0.03947658
 -0.03931886 -0.03915472 -0.03898498 -0.03881041 -0.03863222 -0.03844655 -0.0382527 -0.03804833 -0.03783267 -0.0376084
 -0.03737565 -0.03713687 -0.03689216 -0.03664232 -0.03638747 -0.03612952 -0.03586778 -0.03560084 -0.03532628 -0.03503565
 -0.03472842 -0.03439663 -0.03404828 -0.03368982 -0.03333165 -0.0329883 -0.03265896 -0.03234913 -0.03204985 -0.03175877
 -0.03146754 -0.03117324 -0.03087053 -0.03055911 -0.03022826 -0.02987792 -0.02948593 -0.02905003 -0.02856603 -0.02803503
 -0.02750345 -0.02697307 -0.0264821 -0.02602392 -0.02558645 -0.02516408 -0.02473265 -0.02429349 -0.02383839 -0.02336909
 -0.02288822 -0.02238653 -0.02186062 -0.02128807 -0.02065171 -0.01994076 -0.01913537 -0.01827575 -0.01736321 -0.01646541
 -0.01559935 -0.01479142 -0.0140498 -0.01336132 -0.0127262 -0.01212047 -0.01154242 -0.0109543 -0.01035206 -0.009678159
 -0.008937446 -0.008112548 -0.007231857 -0.006378515 -0.005560492 -0.004844135 -0.004198723 -0.003607456 -0.003045646 -0.002478992
 -0.001905563 -0.001311878 -0.0007083521 -9.610224E-05 0.0005142459 0.001120599 0.001708624 0.002274665 0.00281105 0.003314399
 0.003799715 0.004267911 0.004732198 0.005192582 0.005631162 0.006046264 0.006413083 0.006734447 0.007011304 0.007247518
 0.007457113 0.007638008 0.007792049 0.007917671 0.008009783 0.008078139 0.008130163 0.008174901 0.008222532 0.008271796
 0.008325907 0.008376962 0.008423444 0.008457819 0.008478487 0.008479368 0.00845977 0.008412394 0.008336247 0.008232681
 0.008102205 0.007968427 0.007832632 0.007717588 0.007621132 0.007544082 0.007484233 0.00743407 0.007395431 0.007367995
 0.007355503 0.007364069 0.007393933 0.007446321 0.007524701 0.007627619 0.007772497 0.00796703 0.008224265 0.008555526
 0.008940481 0.009378533 0.009840602 0.01032048 0.01081938 0.01133639 0.01188556 0.01246736 0.01308131 0.01372648
 0.01439287 0.01508047 0.01578415 0.01650429 0.01723912 0.01798944 0.01875521 0.01953948 0.02034712 0.02117913
 0.02203979 0.02292448 0.02383134 0.02475645 0.02569689 0.02665286 0.02762442 0.02860966 0.02960948 0.03061474
 0.03162551 0.03262404 0.03360905 0.03456383 0.0354878 0.03638613 0.03726035 0.03813227 0.03899638 0.03983934
 0.04064669 0.0413601 0.0419816 0.04248375 0.04288303 0.04319546 0.04342519 0.04358251 0.0436678 0.04368229
 0.04363304 0.04353107 0.04335207 0.04310537 0.04269806 0.04210976 0.04127837 0.04017122 0.03895116 0.03762796
 0.03635591 0.03514076 0.03393012 0.03271945 0.03144038 0.0301003 0.02870391 0.02725987 0.02580698 0.02432936
 0.02282461 0.02124178 0.0194896 0.01757134 0.0154025 0.01317084 0.01098963 0.008982047 0.007281069 0.00577022
 0.004440024 0.003177959 0.001945298 0.000744532 -0.0004327948 -0.001538598 -0.002567647 -0.003517311 -0.004387807 -0.005222443
 -0.006023251 -0.006828337 -0.00763448 -0.008446206 -0.009255524 -0.01003888 -0.0107905 -0.01148409 -0.01212344 -0.01270078
 -0.0132274 -0.01371061 -0.01416463 -0.01459872 -0.01503336 -0.01547976 -0.01595618 -0.0164813 -0.01701682 -0.01756567
 -0.01804351 -0.0184321 -0.01873032 -0.01893347 -0.01910125 -0.01923654 -0.01938247 -0.01953843 -0.01971219 -0.01989966
 -0.0200824 -0.02025871 -0.0204137 -0.02054732 -0.02065436 -0.02072981 -0.02076377 -0.02075244 -0.02068487 -0.0205696
 -0.02040784 -0.02021259 -0.01999111 -0.0197502 -0.01949447 -0.0192238 -0.01894099 -0.0186334 -0.01830241 -0.01791327
 -0.01746315 -0.01692117 -0.01628613 -0.01559908 -0.01486611 -0.01417459 -0.01352281 -0.01294636 -0.01243765 -0.01198807
 -0.01159626 -0.01125628 -0.01096609 -0.0107254 -0.01051714 -0.01032914 -0.01012847 -0.00988459 -0.009584271 -0.009200846
 -0.008779031 -0.008327611 -0.007887108 -0.007474262 -0.007078726 -0.006702903 -0.006320501 -0.005929049 -0.00551455 -0.005076253
 -0.004620274 -0.00414746 -0.003670762 -0.003189005 -0.002703238 -0.002209421 -0.001693479 -0.001154355 -0.0005799301 2.191586E-05
 0.0006434091 0.001279711 0.001918866 0.002570339 0.00323822 0.003928008 0.004648271 0.005383375 0.006131637 0.006871379
 0.007595195 0.008300938 0.008985837 0.009663488 0.01033556 0.01100299 0.01166578 0.01229242 0.01288025 0.0133873
 0.01381299 0.01413401 0.01434884 0.01444235 0.0144078 0.01422215 0.01388093 0.01336231 0.0126783 0.01182737
 0.01084124 0.009740412 0.00855767 0.007317732 0.006029975 0.004704896 0.003334498 0.001913702 0.0004631186 -0.001021145
 -0.002469735 -0.003876835 -0.005186697 -0.006396084 -0.007512337 -0.008537828 -0.009506512 -0.01041758 -0.01128412 -0.0121014
 -0.01285855 -0.01355449 -0.01417928 -0.01473886 -0.01523711 -0.01568291 -0.01608672 -0.01645733 -0.01680351 -0.01713452
 -0.01745673 -0.0177782 -0.01810385 -0.018435 -0.01877386 -0.01911422 -0.01945579 -0.01979092 -0.02011899 -0.02043297
 -0.02073243 -0.02100508 -0.02125001 -0.02145161 -0.0216106 -0.02172211 -0.02178966 -0.02182296 -0.02182519 -0.02180891
 -0.02177474 -0.02172982 -0.02167193 -0.02160143 -0.02151563 -0.02141061 -0.02129114 -0.02115572 -0.02101989 -0.02088767
 -0.02077582 -0.02068986 -0.02063615 -0.02061724 -0.02062965 -0.02067367 -0.02074063 -0.02083008 -0.02093203 -0.02104627
 -0.02116779 -0.02129674 -0.02143258 -0.02157357 -0.02171443 -0.02185061 -0.02196865 -0.02206527 -0.02212809 -0.02215864
 -0.02215291 -0.02211633 -0.02205064 -0.02196438 -0.02186141 -0.02175189 -0.02164045 -0.02153302 -0.02143242 -0.02133846
 -0.02125143 -0.02117109 -0.02109732 -0.02103178 -0.02097455 -0.02092262 -0.02087564 -0.02082741 -0.02077862 -0.02072993
 -0.02068357 -0.02064842 -0.02062526 -0.02062122 -0.02063411 -0.02066389 -0.02070745 -0.02076089 -0.02082289 -0.02089075
 -0.02096546 -0.02104726 -0.02113577 -0.0212322 -0.02133031 -0.02142975 -0.02152034 -0.02160029 -0.02166341 -0.02170849
 -0.02173749 -0.02175044 -0.02175415 -0.02174908 -0.02174295 -0.02173598 -0.02173406 -0.02173603 -0.02174156 -0.02174742
 -0.02174601 -0.02173398 -0.02170161 -0.02164899 -0.02157109 -0.02147311 -0.02135655 -0.02122921 -0.02109553 -0.02096144
 -0.02083025 -0.02070451 -0.02058506 -0.02047515 -0.02037526 -0.02028902 -0.0202172 -0.02015769 -0.02011048 -0.02006662
 -0.02002577 -0.01998122 -0.01993373 -0.01988462 -0.01983504 -0.01979028 -0.01975021 -0.01971718 -0.01969039 -0.01966932
 -0.01965388 -0.01964331 -0.01963912 -0.01964219 -0.01965394 -0.01967577 -0.01970709 -0.01974848 -0.0197971 -0.01985279
 -0.01991118 -0.01997201 -0.02002868 -0.02008069 -0.02012026 -0.02014683 -0.02015705 -0.02015137 -0.02013613 -0.02011289
 -0.02009482 -0.02008323 -0.02009051 -0.02011584 -0.02016458 -0.02023258 -0.0203163 -0.02040923 -0.02050256 -0.02059066
 -0.02066559 -0.02072592 -0.02076772 -0.02079484 -0.02080678 -0.02081169 -0.02081086 -0.02081397 -0.02082301 -0.02084295
 -0.02087497 -0.02091608 -0.02096624 -0.02101724 -0.02106849 -0.02110941 -0.02113947 -0.02114913 -0.02113973 -0.02111041
 -0.02106472 -0.02101155 -0.02095244 -0.0208954 -0.02083694 -0.02077603 -0.02070926 -0.02063228 -0.02054676 -0.02045212
 -0.02035151 -0.02024677 -0.02013697 -0.02002261 -0.01990037 -0.01976949 -0.01962933 -0.01947927 -0.01932484 -0.01916626
 -0.01901479 -0.01887088 -0.01874342 -0.01863137 -0.0185326 -0.01844472 -0.01835709 -0.0182686 -0.01817056 -0.01806411
 -0.01794717 -0.01782161 -0.01768909 -0.01755049 -0.0174076 -0.01725904 -0.01710423 -0.01694296 -0.01677323 -0.01660298
 -0.01643286 -0.01627487 -0.01613215 -0.01600571 -0.01589697 -0.01579322 -0.01569375 -0.01558733 -0.01547378 -0.01535039
 -0.01521733 -0.01507406 -0.01492091 -0.01475834 -0.01458761 -0.01441275 -0.01423358 -0.01405245 -0.01386669 -0.01367305
 -0.01347212 -0.01326187 -0.01304802 -0.01283378 -0.01262186 -0.01241544 -0.01220977 -0.01200423 -0.01179446 -0.01157844
 -0.01136145 -0.01114302 -0.01093734 -0.01074533 -0.01057763 -0.01043383 -0.01030586 -0.01019107 -0.01006601 -0.009930466
 -0.00976949 -0.009588365 -0.00939335 -0.009189351 -0.008989314 -0.008792456 -0.008603757 -0.00841897 -0.008236715 -0.00805144
 -0.007859313 -0.00765732 -0.007441518 -0.00721861 -0.006988372 -0.006763493 -0.006546942 -0.006342166 -0.006150508 -0.005965612
 -0.005787113 -0.005611701 -0.005439367 -0.005270814 -0.005105684 -0.004941572 -0.004778001 -0.004611445 -0.004442322 -0.004269671
 -0.00409478 -0.00391843 -0.003744725 -0.003577821 -0.003424841 -0.003293786 -0.003187987 -0.003112437 -0.003065334 -0.003046693
 -0.00305632 -0.003094987 -0.003158672 -0.00324913 -0.00334654 -0.003449716 -0.003533806 -0.003596833 -0.003631518 -0.003638121
 -0.003624641 -0.003591327 -0.00354329 -0.003480388 -0.003403675 -0.003315167 -0.003220137 -0.003122127 -0.003030076 -0.002946314
 -0.00287807 -0.002824307 -0.002787736 -0.002762954 -0.00274671 -0.002737605 -0.002731338 -0.002740479 -0.002766802 -0.002825122
 -0.002920723 -0.00304735 -0.003206575 -0.003372963 -0.00354497 -0.003701113 -0.003840846 -0.003956968 -0.004050515 -0.004125176
 -0.004183121 -0.004235312 -0.004283324 -0.004337936 -0.004397391 -0.004463585 -0.004533952 -0.004604788 -0.00467769 -0.004752136
 -0.00483197 -0.004918908 -0.005017414 -0.005128563 -0.005260236 -0.005414477 -0.005598674 -0.005815415 -0.006063105 -0.006342595
 -0.00664399 -0.006966863 -0.007297426 -0.0076348 -0.007962043 -0.008278873 -0.00857425 -0.008850497 -0.009111697 -0.009360209
 -0.009605822 -0.009846708 -0.01008358 -0.01031522 -0.01053895 -0.01075813 -0.01097587 -0.0111915 -0.01140783 -0.0116152
 -0.0118101 -0.01198581 -0.01213819 -0.01227163 -0.01238593 -0.01248758 -0.01257732 -0.01265927 -0.01273362 -0.01280756
 -0.0128815 -0.01296349 -0.01305281 -0.01314844 -0.0132475 -0.01333733 -0.01341478 -0.01346347 -0.0134844 -0.01346927
 -0.01342712 -0.01336485 -0.01329484 -0.01323186 -0.01318052 -0.01315 -0.01313382 -0.01313233 -0.01313551 -0.0131407
 -0.01314005 -0.01313121 -0.01311225 -0.01308187 -0.0130482 -0.01301165 -0.0129817 -0.0129583 -0.01293601 -0.01291357
 -0.01287656 -0.01282684 -0.01276395 -0.01269278 -0.01262821 -0.0125707 -0.01253002 -0.01249968 -0.01247569 -0.01245042
 -0.01241499 -0.01236588 -0.01229722 -0.01221179 -0.01210787 -0.01199484 -0.01187407 -0.01175772 -0.01164826 -0.01155449
 -0.01147823 -0.01142066 -0.01138236 -0.01135356 -0.01133351 -0.0113057 -0.01127031 -0.0112202 -0.01115867 -0.0110968
 -0.0110374 -0.01099575 -0.01096912 -0.01096033 -0.01096333 -0.01097102 -0.01097902 -0.01098064 -0.01097387 -0.01095509
 -0.01092524 -0.0108829 -0.01083349 -0.01077812 -0.01072197 -0.01066707 -0.01061097 -0.0105542 -0.01048834 -0.01041281
 -0.01032139 -0.01021403 -0.01009324 -0.009960172 -0.009826039 -0.009691642 -0.009567661 -0.00945178 -0.009343072 -0.009238353
 -0.009129456 -0.009018256 -0.00890299 -0.008788744 -0.008681931 -0.008579054 -0.008482561 -0.008378681 -0.008260938 -0.008123329
 -0.007958874 -0.007784481 -0.00760017 -0.007434449 -0.007291627 -0.00718473 -0.007115888 -0.007071699 -0.007051168 -0.007029507
 -0.007006185 -0.006965432 -0.006909373 -0.006838694 -0.006757272 -0.006677205 -0.006600146 -0.006537436 -0.006482963 -0.006434555
 -0.00638194 -0.006311941 -0.006225853 -0.006116465 -0.006001754 -0.005887868 -0.005789157 -0.005713895 -0.00565697 -0.005619701
 -0.005589802 -0.005565635 -0.00554131 -0.005516471 -0.005482783 -0.005439538 -0.005368757 -0.005270249 -0.005132589 -0.004960319
 -0.004767106 -0.004561111 -0.004375068 -0.004211011 -0.004092837 -0.00400803 -0.003951124 -0.003904688 -0.003846019 -0.003775887
 -0.003683539 -0.003589198 -0.003501662 -0.003427554 -0.003376656 -0.003321524 -0.00325971 -0.003158915 -0.003012142 -0.002821631
 -0.00258558 -0.002341183 -0.002090437 -0.001873901 -0.001691373 -0.00155889 -0.001471674 -0.001416076 -0.001386456 -0.001357622
 -0.001329418 -0.001287913 -0.001239293 -0.00118614 -0.001134984 -0.001094658 -0.001064585 -0.001049908 -0.001038607 -0.001028518
 -0.001001795 -0.0009515185 -0.0008703011 -0.0007533926 -0.0006107872 -0.0004422741 -0.0002647965 -7.942908E-05 9.673697E-05 0.0002628018
 0.0004028937 0.0005176605 0.0006055484 0.000670318 0.0007308624 0.0007876076 0.0008543262 0.0009232874 0.0009837468 0.00103245
 0.00105573 0.0010658 0.001068969 0.001078469 0.001108957 0.001155217 0.001220849 0.001289753 0.001356357 0.001414917
 0.001461538 0.00150512 0.001546125 0.001594306 0.00165081 0.001714998 0.001786847 0.001863309 0.001945339 0.002041965
 0.002153496 0.002289274 0.002442654 0.002598644 0.002749238 0.0028664 0.002956432 0.003013467 0.003054054 0.003095095
 0.003141193 0.003203188 0.003272727 0.003347715 0.00342424 0.003500184 0.003575621 0.003650791 0.003722208 0.003788785
 0.003853973 0.00391769 0.003989462 0.004069489 0.00415156 0.004234021 0.004296027 0.004339077 0.00435783 0.00435937
 0.00436323 0.004374961 0.004418224 0.00448865 0.004593185 0.004716861 0.004847505 0.004971994 0.005074132 0.005158399
 0.00522134 0.00527518 0.005325402 0.005369751 0.005408613 0.005438403 0.005455885 0.005484575 0.005525702 0.005607565
 0.00573115 0.005889826 0.006081118 0.00627637 0.006474785 0.006657962 0.006826266 0.006971805 0.00709387 0.007185759
 0.007250511 0.007288217 0.007306228 0.007311713 0.00731134 0.007311392 0.007317751 0.007334942 0.007365613 0.0074132
 0.007470601 0.007536921 0.007605727 0.007674975 0.007750414 0.007832531 0.007923081 0.008022021 0.008118536 0.008213275
 0.008309018 0.008408206 0.008527976 0.008664512 0.008815708 0.008973793 0.009119109 0.009250998 0.009360772 0.00944769
 0.009509081 0.009540868 0.009532611 0.00950529 0.009455165 0.009444724 0.009497246 0.009641895 0.009903758 0.01020483
 0.01053754 0.01083867 0.01109994 0.01132203 0.01150468 0.01165028 0.01175891 0.01183074 0.01186781 0.01188235
 0.01187436 0.01185026 0.01180901 0.01174867 0.01167538 0.01159846 0.01152064 0.01145216 0.01138148 0.01130286
 0.01120893 0.0110924 0.01095814 0.01080704 0.01063959 0.01045459 0.01025971 0.0100518 0.009872625 0.009724672
 0.009656128 0.009669208 0.009763836 0.009935077 0.01012909 0.0103376 0.01048785 0.01057623 0.01054656 0.01041335
 0.01017314 0.009861782 0.009534235 0.009212756 0.008947855 0.008729612 0.0085624 0.008447448 0.008384667 0.008382378
 0.008453546 0.008555311 0.008684243 0.0087815 0.00883284 0.008844006 0.00881236 0.008780241 0.008749616 0.008731091
 0.00872428 0.008726167 0.008738879 0.008774755 0.008833149 0.008919371 0.009029317 0.009156533 0.00929721 0.009445608
 0.009590941 0.00972111 0.009823306 0.009880667 0.009898345 0.009872009 0.009818278 0.009741829 0.009654841 0.009558338
 0.009475087 0.009407642 0.009381733 0.009402148 0.009449704 0.009523399 0.009571257 0.009593851 0.009581925 0.009542153
 0.00951119 0.009486962 0.009483418 0.009490599 0.009489764 0.009480522 0.009452453 0.00941224 0.009363022 0.009311335
 0.009260643 0.009223605 0.009209241 0.009219529 0.009264182 0.00930929 0.009350717 0.009349414 0.009294692 0.009195574
 0.009049046 0.008910651 0.0087833 0.008723005 0.008728934 0.008810005 0.008955718 0.009110426 0.009265251 0.009352494
 0.009387202 0.009366994 0.009317984 0.009287719 0.009274179 0.009298481 0.009336932 0.009375069 0.009405006 0.009418323
 0.009414406 0.009394123 0.009344281 0.009258338 0.009147021 0.009005951 0.008888172 0.008798597 0.008772498 0.008811975
 0.008884691 0.008986242 0.009050421 0.009076089 0.009018674 0.008889105 0.008695421 0.008463146 0.008257083 0.008091685
 0.008030741 0.008044535 0.008128352 0.00824094 0.00833936 0.00842957 0.008498262 0.008577193 0.008681852 0.008803958
 0.008950748 0.009074615 0.009169176 0.009199161 0.009158853 0.009054167 0.008885177</values></Ydata></AB><ScSm><Ydata ylabel="Single channel"><values byteorder="INTEL" format="FLOAT32" numvalues="1814"> 0.07968993 0.07968169 0.07975617 0.07993592 0.0801824 0.08042088 0.08058982 0.08067656 0.08069989 0.0806675
 0.08058636 0.08051566 0.08055498 0.08074751 0.08101775 0.08122259 0.0812669 0.08118825 0.08113556 0.08122266
 0.08137281 0.0813428 0.08095291 0.08029528 0.07967284 0.07931949 0.07925466 0.07946221 0.08003867 0.08091512
 0.08154804 0.08131219 0.08029175 0.07930623 0.07900169 0.07923406 0.07945878 0.0793576 0.07893145 0.0783769
 0.0781462 0.07882493 0.08055235 0.08254671 0.08339028 0.08192769 0.07809348 0.07316615 0.06928978 0.0683222
 0.07052726 0.07421176 0.07699642 0.07771168 0.07695197 0.07586378 0.07491246 0.07404122 0.07347652 0.07376404
 0.07501446 0.07640348 0.0766073 0.07494018 0.07217208 0.06997497 0.06939746 0.07021607 0.07183929 0.07394458
 0.07555819 0.07454665 0.06972648 0.06350769 0.06080295 0.06435181 0.07179663 0.07799008 0.07957086 0.07683754
 0.07224334 0.06836975 0.06695472 0.06842484 0.07182588 0.07561431 0.07858849 0.07993558 0.07902519 0.07596453
 0.07213458 0.06951745 0.0694798 0.07223995 0.076821 0.08113921 0.08295428 0.0815268 0.07810728 0.07461698
 0.0723874 0.07216953 0.07431995 0.07842332 0.08327368 0.0875764 0.09047596 0.09163591 0.09130552 0.09016319
 0.08880241 0.08763635 0.0872564 0.08806382 0.08931673 0.08941934 0.08766209 0.08517048 0.08374426 0.08399627
 0.08486578 0.08490632 0.08374871 0.08185916 0.07910449 0.07472658 0.06908613 0.06412464 0.0614212 0.06099008
 0.06243793 0.06557674 0.06906778 0.0703558 0.06847634 0.06582218 0.0657645 0.06905626 0.07345872 0.07646765
 0.07762569 0.07833163 0.08004647 0.08279981 0.08500935 0.08467518 0.081366 0.0773243 0.07587435 0.07815683
 0.08203553 0.0847251 0.08572534 0.08649123 0.08789323 0.08886679 0.08752641 0.08340919 0.07866384 0.07671569
 0.07928129 0.08464797 0.08891952 0.08889726 0.0842297 0.07748235 0.0721382 0.07019022 0.07161887 0.07572588
 0.08189584 0.08888747 0.09452533 0.09693003 0.09588939 0.09272894 0.08879724 0.08422323 0.0786583 0.07336955
 0.07146575 0.07495107 0.08216071 0.08915702 0.09323715 0.09426495 0.09313263 0.09009622 0.08503997 0.07909064
 0.07513227 0.07555885 0.07938406 0.08281392 0.08322212 0.08153938 0.08027849 0.08040771 0.08100642 0.08120115
 0.08140493 0.08261225 0.08497794 0.08744316 0.08876074 0.08863111 0.08775309 0.08701076 0.08666916 0.08618282
 0.0849621 0.08354757 0.08353998 0.08584648 0.08943538 0.09239949 0.09386648 0.09430878 0.0942717 0.09341063
 0.09099577 0.08730088 0.08415878 0.08360243 0.08590228 0.08940338 0.09224251 0.09367812 0.09391347 0.09343444
 0.09268089 0.09189416 0.0911846 0.09084713 0.09129345 0.09246726 0.09370221 0.09439321 0.09450014 0.09425057
 0.09369972 0.09280698 0.09175027 0.09094949 0.09076588 0.09122774 0.09206527 0.09295401 0.09363832 0.09389955
 0.09363382 0.09300591 0.09234712 0.09185447 0.09152997 0.09139574 0.09156021 0.09202014 0.0925621 0.0929433
 0.09308403 0.09304067 0.09287497 0.09261003 0.09227616 0.0919563 0.09177928 0.09183622 0.09207411 0.09232314
 0.09248346 0.09262118 0.09280877 0.09295268 0.0928939 0.09263265 0.09234467 0.09219168 0.0921942 0.09227401
 0.09233706 0.0922873 0.09202745 0.09154455 0.0910135 0.09072708 0.09086083 0.09134698 0.09198774 0.09260231
 0.093053 0.09326291 0.09327485 0.09320946 0.09312318 0.09296831 0.09271054 0.09243394 0.09230986 0.0924646
 0.09286369 0.09333064 0.09369349 0.09389317 0.09396265 0.09397741 0.09403398 0.09418108 0.09434207 0.09438429
 0.09428842 0.09418385 0.09419766 0.09431602 0.0944123 0.09439275 0.09430274 0.09428013 0.09440488 0.09462278
 0.09482759 0.09498185 0.09513076 0.09531427 0.09548624 0.09553649 0.09541295 0.09520519 0.09506093 0.09503151
 0.09506021 0.09511291 0.09523521 0.09545395 0.09569082 0.09582771 0.09583838 0.09581263 0.09584264 0.09591324
 0.09592871 0.09583238 0.09566796 0.0955275 0.09547029 0.09549503 0.0955593 0.09560931 0.09560552 0.09553919
 0.09543137 0.0953135 0.09520691 0.09512733 0.09510967 0.09520173 0.09540093 0.09560449 0.09566489 0.09552078
 0.09526357 0.09505524 0.09497778 0.09497032 0.09491175 0.09474743 0.09452473 0.09432414 0.09418464 0.09409438
 0.09402404 0.09395728 0.09391002 0.09393254 0.09406777 0.09428079 0.09444842 0.09445731 0.09431399 0.09413306
 0.09402493 0.09401768 0.09407118 0.09413181 0.09418173 0.09425454 0.09438512 0.09453683 0.09462129 0.09460725
 0.09456521 0.09459029 0.0947251 0.09495831 0.09523479 0.0954573 0.09554513 0.09551926 0.09548858 0.0955363
 0.09565502 0.09579775 0.09594763 0.09611517 0.09629995 0.09649022 0.09669475 0.09694752 0.09727016 0.09763703
 0.09798218 0.09824424 0.09841743 0.09856924 0.09879798 0.0991544 0.09959936 0.1000401 0.1004078 0.1007036
 0.1009763 0.1012613 0.1015521 0.1018392 0.1021543 0.1025418 0.1029965 0.1034635 0.103901 0.1043114
 0.1047124 0.1051088 0.1055014 0.1059051 0.1063491 0.1068523 0.1073853 0.1078692 0.1082379 0.1085049
 0.108755 0.1090753 0.1094983 0.109981 0.1104193 0.1107212 0.1109043 0.1110948 0.1113928 0.1117665
 0.1121187 0.1124317 0.1127863 0.1132399 0.113741 0.1141848 0.114524 0.1148019 0.1150891 0.1154044
 0.1156997 0.1159198 0.1160713 0.1162175 0.1164063 0.1166377 0.1169138 0.1172748 0.1177412 0.1182489
 0.1186918 0.1190188 0.1192545 0.1194445 0.1196188 0.1197919 0.1199612 0.1201148 0.1202582 0.120411
 0.1205651 0.1206847 0.1207694 0.1208773 0.1210601 0.1213116 0.1216062 0.1219491 0.122347 0.1227608
 0.1231423 0.1235085 0.1239223 0.124385 0.124798 0.1250658 0.1251998 0.1252813 0.1253608 0.1254481
 0.1255783 0.1258152 0.1261774 0.1266085 0.1270371 0.1274368 0.1278169 0.1281808 0.1285086 0.1287691
 0.1289402 0.1290273 0.1290714 0.1291372 0.1292845 0.1295311 0.129838 0.1301357 0.1303721 0.130527
 0.1305855 0.1305324 0.1303974 0.1302726 0.130238 0.1302678 0.1302403 0.1300448 0.129653 0.1290907
 0.1283817 0.1275473 0.1266463 0.1257841 0.1250699 0.12457 0.1243097 0.1243142 0.1246215 0.1252333
 0.126061 0.1269484 0.1277501 0.1283679 0.1287153 0.1287044 0.128304 0.1275899 0.1267094 0.1258031
 0.1249632 0.1242236 0.1235617 0.1229442 0.1224156 0.1221339 0.1222969 0.1230311 0.124337 0.1260951
 0.1280932 0.1300814 0.1318626 0.1333636 0.1346258 0.1357276 0.1367245 0.1376542 0.1385577 0.1394548
 0.1403115 0.1410693 0.1417121 0.1422759 0.142798 0.1432785 0.1436911 0.1440103 0.1442362 0.144406
 0.1445654 0.1447184 0.1448278 0.1448757 0.1448937 0.1449135 0.1449127 0.1448252 0.1445933 0.1442069
 0.1437239 0.1432848 0.1431023 0.1433946 0.1442786 0.1456948 0.1474384 0.1492733 0.1510207 0.1525614
 0.1538114 0.1547435 0.1554148 0.1559328 0.1563874 0.1568219 0.1572491 0.1576691 0.1580767 0.158468
 0.158847 0.159226 0.1596202 0.1600352 0.1604524 0.1608365 0.1611709 0.1614842 0.1618316 0.1622439
 0.1626968 0.163133 0.163525 0.1639019 0.1642976 0.164689 0.1650188 0.1652755 0.1655146 0.165801
 0.1661605 0.1665792 0.1670147 0.1674083 0.1677196 0.1679604 0.1681801 0.1684197 0.1686873 0.1689719
 0.1692636 0.1695573 0.1698512 0.1701516 0.1704757 0.1708303 0.1711847 0.1714827 0.1716987 0.1718695
 0.1720599 0.1723008 0.1725699 0.1728265 0.1730593 0.173302 0.1736009 0.1739631 0.1743396 0.1746625
 0.1748996 0.1750735 0.1752366 0.1754321 0.1756729 0.1759443 0.1762192 0.1764745 0.1767045 0.176924
 0.1771542 0.1774044 0.1776671 0.1779295 0.1781853 0.1784358 0.1786841 0.17893 0.1791739 0.1794279
 0.1797128 0.180033 0.180357 0.1806388 0.1808575 0.1810299 0.1811886 0.1813595 0.1815549 0.1817763
 0.1820175 0.1822692 0.1825222 0.18277 0.1830098 0.1832433 0.1834755 0.1837115 0.1839533 0.1841983
 0.1844443 0.1846942 0.184951 0.1852096 0.1854582 0.1856885 0.1859032 0.1861129 0.1863293 0.1865543
 0.1867764 0.1869832 0.1871778 0.1873758 0.1875873 0.1878086 0.1880324 0.1882562 0.1884811 0.1887077
 0.1889349 0.1891602 0.1893812 0.1895958 0.1898027 0.190004 0.190207 0.1904169 0.1906313 0.1908465
 0.1910647 0.1912885 0.1915146 0.1917389 0.1919638 0.1921944 0.192431 0.1926656 0.1928864 0.1930882
 0.19328 0.1934766 0.1936843 0.1938968 0.1941059 0.1943093 0.1945135 0.1947286 0.194959 0.1951979
 0.1954355 0.1956673 0.1958927 0.1961128 0.1963333 0.1965604 0.1967932 0.1970266 0.1972589 0.1974912
 0.197724 0.1979584 0.1981932 0.198422 0.1986381 0.1988409 0.1990342 0.1992233 0.1994125 0.1996011
 0.1997842 0.1999629 0.2001466 0.2003414 0.2005442 0.2007506 0.2009591 0.2011694 0.2013834 0.2016016
 0.2018159 0.2020177 0.2022121 0.2024141 0.202631 0.2028594 0.2030924 0.2033223 0.2035448 0.2037627
 0.20398 0.204196 0.2044115 0.2046315 0.2048566 0.2050829 0.205308 0.2055293 0.2057418 0.2059485
 0.2061583 0.2063717 0.206582 0.206789 0.2069967 0.2072053 0.2074176 0.2076377 0.2078619 0.2080828
 0.2083013 0.2085181 0.2087278 0.2089313 0.2091399 0.2093586 0.2095839 0.2098124 0.2100394 0.2102585
 0.2104721 0.2106864 0.2108994 0.2111114 0.2113332 0.211565 0.2117902 0.2119998 0.2121953 0.2123626
 0.212452 0.2123318 0.2116676 0.2097941 0.2057027 0.1982497 0.186619 0.1708437 0.1519692 0.1316763
 0.1116676 0.09323692 0.07714717 0.06372857 0.05304645 0.04501054 0.03943934 0.03617138 0.03518988 0.03674983
 0.0415073 0.05012742 0.06182642 0.07308443 0.0790191 0.07724427 0.07015361 0.06273568 0.05842576 0.05745248
 0.05833875 0.05983298 0.06154155 0.06369212 0.06667779 0.07061686 0.07532743 0.08079851 0.08742521 0.09550108
 0.1046019 0.1137589 0.1222914 0.1303444 0.1385601 0.1473071 0.1562913 0.1648431 0.1724512 0.17902
 0.1847631 0.1899638 0.1948163 0.1994136 0.2038034 0.2079795 0.2117862 0.2148878 0.2169319 0.2178179
 0.2178196 0.2174294 0.217066 0.2169133 0.2169828 0.2172455 0.2176842 0.2182818 0.2190145 0.2198506
 0.220749 0.2216697 0.2225869 0.2234822 0.2243379 0.2251433 0.2258939 0.2265808 0.227195 0.2277406
 0.2282315 0.2286791 0.2290907 0.2294753 0.2298438 0.2302053 0.2305613 0.2308983 0.2311957 0.2314471
 0.2316661 0.2318707 0.2320707 0.2322696 0.23247 0.2326727 0.2328772 0.2330832 0.2332906 0.2334984
 0.2337029 0.2338958 0.234071 0.2342352 0.2344024 0.2345762 0.2347479 0.2349135 0.2350831 0.2352688
 0.2354704 0.2356759 0.2358712 0.236051 0.2362217 0.236393 0.2365683 0.2367465 0.236927 0.2371081
 0.2372878 0.2374707 0.2376651 0.2378714 0.2380826 0.2382961 0.2385134 0.2387315 0.238945 0.2391503
 0.2393403 0.2395024 0.2396334 0.2397527 0.2398947 0.2400834 0.2403088 0.2405328 0.2407282 0.2409051
 0.2410894 0.2412863 0.2414766 0.2416399 0.2417788 0.2419267 0.2421238 0.2423714 0.2426292 0.2428663
 0.2430904 0.2433178 0.2435506 0.2437871 0.2440164 0.2442018 0.2443112 0.244375 0.2444883 0.2447357
 0.2451103 0.2455109 0.2458341 0.2460628 0.2462541 0.2464662 0.2467222 0.2469936 0.2471761 0.2471597
 0.2469981 0.2469405 0.2472051 0.2477603 0.2483863 0.2489011 0.2492742 0.2495671 0.2498289 0.2500467
 0.2501627 0.2501386 0.2500333 0.2500191 0.2502666 0.2507692 0.2513337 0.2517786 0.2520805 0.2523002
 0.2524768 0.252624 0.2526948 0.252525 0.2520063 0.2513877 0.2512063 0.2517696 0.2528112 0.2537763
 0.2543683 0.254696 0.2549632 0.2552168 0.2554087 0.2554381 0.2550284 0.2538911 0.2522948 0.2512141
 0.2515177 0.2530895 0.2550089 0.2564724 0.2572977 0.2577017 0.2579368 0.2581274 0.258181 0.2578034
 0.2568264 0.2556414 0.2550949 0.2557066 0.257084 0.2583427 0.2590054 0.2592434 0.2594028 0.2596189
 0.2597311 0.2592324 0.2575558 0.2549196 0.2527561 0.2527055 0.2550096 0.2582156 0.2606131 0.261706
 0.262075 0.2621099 0.2614318 0.2595743 0.2566892 0.2534731 0.2509431 0.2502996 0.252131 0.25542
 0.2581218 0.2591805 0.259421 0.2601954 0.2617722 0.2633471 0.2640885 0.263783 0.2626874 0.2610703
 0.2590882 0.2572073 0.2564487 0.25766 0.2604815 0.2634801 0.2654712 0.2664155 0.2667912 0.2662023
 0.263101 0.2566535 0.2490662 0.2449735 0.2473464 0.2543866 0.2614569 0.2656395 0.2673344 0.2680845
 0.2685037 0.2681074 0.2655959 0.2595701 0.2507465 0.2433421 0.2422137 0.2480482 0.2565826 0.2625843
 0.2634081 0.2592618 0.2522608 0.2458026 0.2431836 0.2456034 0.251639 0.2586498 0.264366 0.2675166
 0.2678116 0.2658117 0.2628912 0.26091 0.2608638 0.2614071 0.2598746 0.255648 0.2511865 0.2484232
 0.2457832 0.2411036 0.2363733 0.2364203 0.2426313 0.250635 0.2552155 0.2555971 0.2545031 0.2531911
 0.2493047 0.2402728 0.2281862 0.2198858 0.2209824 0.2300385 0.2398579 0.2445291 0.2441193 0.2425655
 0.2424178 0.2422351 0.2386163 0.2306428 0.222132 0.2184316 0.2207346 0.2250183 0.2268106 0.2247575
 0.2190573 0.2100218 0.2006323 0.1974636 0.205138 0.2206721 0.2358171 0.2438519 0.2420477 0.2301997
 0.2115545 0.1947434 0.1895816 0.1982886 0.2127933 0.2221595 0.2212698 0.2117358 0.1972029 0.1808444
 0.1668289 0.1608026 0.1665111 0.1819889 0.1996066 0.2098737 0.2066889 0.1920798 0.176602 0.1717474
 0.179502 0.1909807 0.1963762 0.1938474 0.1881478 0.1844915 0.1855343 0.1909 0.1975927 0.2028109
 0.2061857 0.2066545 0.1994627 0.1818972 0.1609058 0.1485186 0.1493462 0.1582281 0.1698735 0.183593
 0.1970192 0.2028624 0.1971408 0.1867476 0.1835823 0.1919128 0.2047137 0.2122431 0.211674 0.2075937
 0.2049211 0.2036746 0.2014138 0.1988912 0.2002758 0.2073888 0.2165238 0.2225889 0.2244179 0.2243142
 0.2241496 0.2239476 0.2232053 0.2217422 0.2196234 0.2172928 0.2154344 0.2142027 0.2130874 0.2116982
 0.2097512 0.2059312 0.1981866 0.1866518 0.1754813 0.1695776 0.1694221 0.171402 0.1731804 0.1750756
 0.1750597 0.1673311 0.1499882 0.1313375 0.123852 0.132128 0.1494695 0.165501 0.1740554 0.1736808
 0.1646119 0.149157 0.1343748 0.129825 0.1397181 0.1588555 0.1782104 0.1927106 0.2017404 0.2048004
 0.2006873 0.1907271 0.180011 0.1744772 0.177316 0.1875633 0.2003865 0.2082933 0.2048063 0.1909382
 0.1780746 0.1795591 0.1966515 0.2163745 0.2261053 0.2263685 0.2256321 0.2271602 0.2274271 0.2253956
 0.2262059 0.2341127 0.2462207 0.2553485 0.2563475 0.2481272 0.2329482 0.216903 0.2083394 0.2111658
 0.2203851 0.2275107 0.2287708 0.2246107 0.2146784 0.1998951 0.1877379 0.1877419 0.20044 0.2161129
 0.2258336 0.2295884 0.2322302 0.2351278 0.2345344 0.2272973 0.2161308 0.207936 0.206977 0.2111594
 0.2155839 0.2177199 0.2174479 0.2141364 0.2070299 0.1985043 0.1940988 0.1977151 0.2075903 0.2179568
 0.2242162 0.2258324 0.2249479 0.2236148 0.2223955 0.2205636 0.2175454 0.2147622 0.2153288 0.2206848
 0.2282389 0.2340017 0.2371443 0.240269 0.2453254 0.2509064 0.2539433 0.2530555 0.2498797 0.2476672
 0.2486945 0.2524647 0.2560761 0.2566983 0.254261 0.2517611 0.2524912 0.2568908 0.2624823 0.266687
 0.26893 0.2701024 0.2710436 0.2718221 0.2717031 0.2697147 0.266058 0.2629402 0.2630216 0.2667718
 0.2720097 0.27614 0.2782302 0.2788695 0.2787652 0.2779936 0.2764098 0.2743292 0.2725455 0.2717108
 0.2718732 0.2726428 0.2736059 0.2744969 0.275174 0.2756172 0.2759021 0.2761006 0.276247 0.2763903
 0.2765738 0.2767485 0.276814 0.2767904 0.276852 0.277125 0.2775157 0.2778095 0.2778704 0.2776523
 0.2770774 0.2760559 0.2746335 0.2729873 0.271228 0.2693255 0.2673461 0.2657201 0.2651192 0.2659549
 0.2679932 0.2704977 0.2727401 0.2743635 0.2753597 0.2758687 0.2760586 0.2760943 0.2760946 0.2760859
 0.276025 0.2758726 0.2756324 0.2753258 0.2749643 0.2745668 0.2741829 0.2738663 0.2736244 0.2734065
 0.2731417 0.2727828 0.2723261 0.2718051 0.2712592 0.2706911 0.2700539 0.2692906 0.2683909 0.2674077
 0.2664217 0.2654923 0.2646315 0.2638054 0.2629612 0.262058 0.2610658 0.2599421 0.2586609 0.2572882
 0.2559816 0.2548697 0.2539511 0.2531285 0.2523005 0.2513963 0.2503747 0.2492365 0.2480235 0.2467783
 0.2455088 0.2441941 0.2428095 0.2413448 0.2398046 0.238195 0.2365134 0.2347567 0.2329378 0.2310795
 0.2291808 0.2271806 0.2249583 0.2223723 0.2192994 0.2156529 0.2114055 0.2066281 0.2014968 0.1962409
 0.1910748 0.1861613 0.1816118 0.1775076 0.1739271 0.170952 0.1686491 0.1670553 0.1661832 0.1660288
 0.1665763 0.1677959 0.1696286 0.1719691 0.1746714 0.1775664 0.1804712 0.1832115 0.1856832 0.1879
 0.1899579 0.1919381 0.1938456 0.1956337 0.1972687 0.1987491 0.2000675 0.201192 0.2021021 0.2028216
 0.2033959 0.2038584 0.2042302 0.2045325 0.2047841 0.2049975 0.2051827 0.20535 0.2055181 0.2057196
 0.2059846 0.2063175 0.2067044 0.2071382 0.2076221 0.2081545 0.2087245 0.2093186 0.2099331 0.2105801
 0.2112797 0.2120465 0.2129002 0.2138835 0.2150495 0.2164269 0.2179998 0.2197061 0.2214465 0.2231138
 0.2246234 0.2259137 0.2269376 0.2276778 0.2281598 0.2284276 0.228516 0.2284524 0.2282653 0.2279785
 0.2276058 0.227158 0.2266484 0.2260906 0.2254886 0.2248317 0.2241128 0.2233558 0.2226041 0.2218791
 0.2211712 0.2204693 0.2197782 0.2191058 0.2184537 0.2178163 0.2171817 0.216538 0.2158857 0.215236
 0.2145951 0.2139479 0.2132514 0.2124503 0.2115158 0.2104653 0.2093329 0.2081313 0.2068545 0.2054976
 0.2040615 0.202552 0.2009821 0.1993634 0.1976936 0.1959544 0.1941144 0.1921421 0.1900427 0.1878867
 0.1857809 0.1838046 0.1819752 0.1802628 0.1786284 0.177061 0.1755782 0.1741883 0.1728683 0.1715946
 0.1703711 0.1692094 0.1681021 0.1670398 0.1660372 0.1651268 0.1643318 0.1636497 0.1630582 0.1625347
 0.162072 0.161674 0.1613504 0.1611204 0.1610014 0.1609778 0.1609924 0.1609785 0.1608988 0.160759
 0.1605935 0.1604341 0.1602841 0.1601306 0.1599706 0.1597999 0.159573 0.1591947 0.1585599 0.1576005
 0.1563069 0.1547168 0.1528954 0.1509384 0.1489846 0.1471849 0.1456443 0.144407 0.1434768 0.1428118
 0.1423159 0.1418907 0.1415112 0.1412356 0.1411443 0.1412526 0.1414568 0.1415883 0.1415679 0.1414981
 0.1415725 0.1419114 0.142494 0.1432063 0.1439207 0.1445499 0.1450509 0.1454012 0.1456011 0.145687
 0.1456981 0.1456353 0.1454838 0.1452502 0.1449442 0.1445603 0.1441066 0.1436126 0.143089 0.1425108
 0.1418429 0.1410685 0.140203 0.1392716 0.1382526 0.1370908 0.135828 0.134679 0.1339229 0.1337318
 0.1340944 0.1348428 0.1357654 0.1367421 0.1377131 0.1384968 0.1388335 0.1387751 0.1388954 0.1398723
 0.1418293 0.1441989 0.1462381 0.1475643 0.1481845 0.1482083 0.1477051 0.1467303 0.145294 0.1433445
 0.1408943 0.13808 0.1350464 0.1319139 0.1288767 0.1261581 0.1238673 0.122006 0.1205489 0.1195364
 0.1191102 0.1189017 0.1170388 0.1111381 0.1019717 0.09509435 0.09617178 0.1046057 0.11395 0.1187321
 0.118819 0.1171366 0.1156844 0.1147494 0.114227 0.1142682 0.1150127 0.116326 0.1178142 0.1190601
 0.1198873 0.1203239 0.1203099 0.1194836 0.117146 0.1124967 0.1052822 0.09636791 0.08744086 0.08003002
 0.07483485 0.07174816 0.07017509 0.06938218 0.06886977 0.06859416 0.06884311 0.06989363 0.07178305 0.07436356
 0.07745837 0.08083601 0.08409812 0.08683193 0.08893259 0.09060213 0.09199915 0.09305067 0.09361377 0.09365948
 0.09327778 0.09261658 0.09183221 0.09102216 0.09016849 0.0891735 0.08801214 0.08686824 0.08603704 0.08564168
 0.08553235 0.08550056 0.08547049 0.08544557 0.08541048 0.08534433 0.0852545 0.08519509 0.08528246 0.08561433
 0.08613079 0.08663495 0.08697252 0.08713467 0.08720224 0.08721392 0.08705568 0.08655043 0.0857585 0.08503149
 0.08455972 0.08403845 0.08307362 0.08179956 0.08080115 0.08047488 0.0806873 0.08101638 0.08113194 0.08095638
 0.08065608 0.08055887 0.08092949 0.08166185</values></Ydata></ScSm><ScRf><Ydata ylabel="Single channel"><values byteorder="INTEL" format="FLOAT32" numvalues="1820"> 0.06078596 0.06094307 0.06103984 0.06106974 0.06105439 0.0610447 0.06109858 0.06124183 0.06144659 0.06164695
 0.06178412 0.06184426 0.06184743 0.06180803 0.06173615 0.06167813 0.06170994 0.06186385 0.0620797 0.06224441
 0.06228182 0.0622206 0.06217963 0.06225204 0.06237853 0.06236464 0.06206535 0.06155171 0.06106152 0.06077887
 0.06072164 0.0608811 0.06133572 0.06203416 0.06255278 0.06239676 0.06161708 0.06084362 0.06058731 0.0607513
 0.06091861 0.06083911 0.0605115 0.06008986 0.05992401 0.06046269 0.06180912 0.06335744 0.06401251 0.06288157
 0.059912 0.05608951 0.05307378 0.05231036 0.05401346 0.05687459 0.05904312 0.05960377 0.05901787 0.0581835
 0.05746517 0.05680909 0.0563785 0.05659767 0.05756544 0.05865016 0.05881826 0.05752715 0.05537294 0.05366005
 0.05320702 0.05383875 0.05509431 0.05672682 0.05798639 0.0572175 0.05349244 0.04867012 0.0465624 0.04931015
 0.05510058 0.05993898 0.06119848 0.05909434 0.05553098 0.05252182 0.05141918 0.05254985 0.05517157 0.05809209
 0.06038722 0.06143202 0.06073775 0.05838161 0.05542644 0.05340554 0.0533805 0.05552431 0.05908324 0.06244405
 0.06386582 0.06276397 0.06010091 0.05737348 0.05562897 0.05545755 0.05713431 0.06033518 0.06412541 0.0674977
 0.06977788 0.07069366 0.07043791 0.06954974 0.0685026 0.06761575 0.0673362 0.06796998 0.06894819 0.06903877
 0.06768636 0.06575564 0.06464312 0.06483398 0.06551312 0.06555513 0.06466389 0.06319667 0.0610534 0.05764886
 0.05326249 0.04940254 0.04730052 0.04697367 0.04812147 0.0506007 0.05336533 0.05441094 0.05296761 0.05089244
 0.05082454 0.05337176 0.05680123 0.05915751 0.06007411 0.0606355 0.06198055 0.06413558 0.06587145 0.06562999
 0.06306839 0.05992742 0.05880201 0.06059329 0.06364146 0.06576945 0.06658189 0.06721562 0.06835217 0.0691559
 0.06814575 0.0649558 0.06126815 0.05976634 0.06179687 0.0660222 0.06939323 0.06940172 0.0657665 0.06049705
 0.05632925 0.05483145 0.05599026 0.05926012 0.06416555 0.06974275 0.07428589 0.07629867 0.07557704 0.0731407
 0.07006498 0.06647851 0.06211038 0.0579489 0.05645995 0.0592627 0.06505989 0.07071626 0.07405946 0.07496797
 0.0741494 0.07179856 0.06780884 0.06308323 0.05995709 0.06037859 0.06356073 0.06643219 0.06685355 0.06556834
 0.06461786 0.06479748 0.06536037 0.06559236 0.06583414 0.06690623 0.06893672 0.07105231 0.07222351 0.07220018
 0.07155654 0.0710257 0.07083192 0.07052482 0.0696135 0.06854419 0.06864345 0.07066154 0.07373771 0.07628417
 0.07757838 0.07802458 0.07808815 0.07747898 0.07556999 0.07257362 0.07002521 0.06964571 0.07167733 0.07472815
 0.07721879 0.07852215 0.07882021 0.07852882 0.07801207 0.07746804 0.07699436 0.07684124 0.07734479 0.07844585
 0.07958454 0.08026266 0.08045226 0.08033659 0.07994922 0.07925783 0.0784335 0.07785161 0.07781719 0.0783347
 0.07915816 0.08001283 0.08069357 0.08101824 0.0808868 0.08042888 0.07993382 0.07958838 0.07940604 0.0794035
 0.07966264 0.08016766 0.08072721 0.08113468 0.08133094 0.08137272 0.08131546 0.08117574 0.08097295 0.08077465
 0.08069532 0.0808183 0.08109631 0.08138223 0.08160099 0.08182324 0.08210595 0.08234112 0.08236612 0.08218108
 0.08196092 0.08186797 0.081923 0.08204544 0.08214264 0.08213072 0.08193137 0.08154224 0.08112542 0.08094178
 0.0811424 0.08166248 0.08232412 0.08296143 0.08344191 0.08369004 0.08374614 0.08372568 0.08368447 0.08358003
 0.08337903 0.08315566 0.08306719 0.08323634 0.08364257 0.08412939 0.08452944 0.08476906 0.08486751 0.08490366
 0.08498798 0.08517721 0.08538949 0.08547898 0.08541742 0.08533584 0.08536518 0.08548725 0.0855695 0.08552445
 0.08541273 0.08538154 0.08550967 0.08573752 0.08595423 0.08612142 0.08628991 0.08650672 0.08672246 0.08681027
 0.08670013 0.08647754 0.08630218 0.0862411 0.08624478 0.08627927 0.08639142 0.08661042 0.08685498 0.08699976
 0.08701433 0.08699022 0.08702452 0.08710659 0.08713858 0.08705137 0.08687559 0.08670586 0.0866215 0.08664031
 0.08671969 0.08678783 0.08678858 0.08671463 0.08660296 0.08649638 0.08641329 0.08636288 0.08638245 0.08652447
 0.08677724 0.08701612 0.08707917 0.08691218 0.08662692 0.086402 0.08632624 0.08633693 0.08630036 0.08614044
 0.08588947 0.08563313 0.08542958 0.08528267 0.08516965 0.08507801 0.08502547 0.08505344 0.08518213 0.08535273
 0.0854362 0.08533664 0.08508468 0.08480652 0.08461161 0.0845287 0.08452314 0.08454005 0.08454841 0.08456948
 0.08463988 0.08473357 0.08476567 0.08469602 0.08458586 0.08453339 0.08459419 0.08476583 0.08498837 0.08514977
 0.08515789 0.08503738 0.08491446 0.0848895 0.08495717 0.08505569 0.0851492 0.08524038 0.08533625 0.08543722
 0.08555507 0.08571698 0.0859406 0.08620665 0.08645879 0.08663774 0.08673145 0.08679888 0.08693267 0.08718379
 0.08751921 0.0878529 0.08811684 0.08830829 0.08847538 0.08865925 0.08885856 0.08905949 0.08928118 0.08955836
 0.08988547 0.09021428 0.09051108 0.09078689 0.09106745 0.09135938 0.09165569 0.09196229 0.09230871 0.09272059
 0.09317024 0.09356841 0.09383364 0.09397355 0.09408507 0.09427926 0.09460463 0.09500991 0.0953652 0.09556087
 0.09562159 0.09569386 0.09588799 0.09616479 0.09641843 0.09663697 0.09691763 0.09732594 0.09779558 0.09819016
 0.0984377 0.09858523 0.09873141 0.09892084 0.09911029 0.09923816 0.09930979 0.0993896 0.09951908 0.09968793
 0.09989589 0.1001886 0.1005905 0.1010376 0.1014222 0.1016918 0.1018713 0.102008 0.1021259 0.102222
 0.1022785 0.1022924 0.1023031 0.1023651 0.1024787 0.1025804 0.1026236 0.1026386 0.1026928 0.1028239
 0.1030355 0.1033219 0.1036539 0.1039677 0.104222 0.1044637 0.1047816 0.1051758 0.1055225 0.1057051
 0.1057414 0.1057381 0.1057571 0.1057913 0.1058501 0.1059894 0.1062406 0.1065653 0.1069039 0.107237
 0.1075802 0.1079367 0.1082705 0.1085198 0.1086395 0.108642 0.1085991 0.108602 0.1087154 0.1089522
 0.1092714 0.1096018 0.1098823 0.1100801 0.1101743 0.110157 0.1100745 0.1100375 0.1101346 0.1103313
 0.1104853 0.1104708 0.110261 0.1098938 0.1094002 0.1087956 0.1081206 0.1074566 0.1068908 0.1064764
 0.106233 0.1061834 0.1063705 0.1068147 0.1074558 0.1081654 0.1088221 0.1093473 0.1096655 0.1096856
 0.1093656 0.1087721 0.1080429 0.1073028 0.1066228 0.1060175 0.1054504 0.1048791 0.104341 0.1039909
 0.1040283 0.1045804 0.1056388 0.1070636 0.1086295 0.1101027 0.1113326 0.1123011 0.113089 0.1137905
 0.1144578 0.1151131 0.1157772 0.1164527 0.1170971 0.1176546 0.1181204 0.1185423 0.1189596 0.1193648
 0.1197243 0.120012 0.1202313 0.1204209 0.1206196 0.1208081 0.1209131 0.1208909 0.1207798 0.120651
 0.1205281 0.1203747 0.1201367 0.1197858 0.1193528 0.1189523 0.1187676 0.1189753 0.1196447 0.1206947
 0.1219547 0.1232733 0.1245588 0.1257316 0.1266927 0.1273774 0.1278167 0.1281142 0.1283705 0.1286394
 0.1289332 0.1292417 0.1295475 0.1298391 0.1301176 0.1303967 0.1306984 0.1310345 0.1313832 0.1316967
 0.1319473 0.1321664 0.1324244 0.1327665 0.1331665 0.1335519 0.1338821 0.1341855 0.1345039 0.1348196
 0.1350765 0.135262 0.1354295 0.1356408 0.1359208 0.1362603 0.1366236 0.1369503 0.1371928 0.1373626
 0.1375197 0.1377138 0.1379502 0.1382088 0.1384727 0.138734 0.13899 0.1392489 0.139529 0.1398353
 0.1401345 0.1403718 0.1405275 0.1406461 0.1407972 0.1410109 0.1412587 0.141493 0.1416969 0.141901
 0.1421499 0.1424515 0.1427595 0.1430131 0.1431897 0.1433152 0.1434343 0.1435797 0.1437628 0.1439793
 0.1442134 0.1444441 0.1446576 0.1448568 0.1450555 0.1452606 0.1454665 0.145669 0.1458731 0.1460833
 0.146294 0.146497 0.1466993 0.1469266 0.1472028 0.1475202 0.1478323 0.1480871 0.1482689 0.1484019
 0.1485206 0.1486483 0.1487974 0.1489727 0.1491676 0.1493669 0.149558 0.1497407 0.1499259 0.1501255
 0.1503417 0.1505658 0.1507885 0.1510076 0.1512271 0.151451 0.1516784 0.1519025 0.1521157 0.1523152
 0.1525043 0.1526898 0.1528796 0.1530781 0.1532813 0.1534782 0.1536628 0.153839 0.1540161 0.1542011
 0.1543958 0.1545974 0.1547999 0.1549982 0.1551903 0.1553786 0.1555682 0.1557641 0.1559658 0.156169
 0.1563694 0.1565645 0.1567545 0.1569449 0.1571454 0.1573587 0.1575762 0.157787 0.1579884 0.1581824
 0.1583708 0.158555 0.1587375 0.1589218 0.1591111 0.1593075 0.1595112 0.1597202 0.1599291 0.1601309
 0.160323 0.160512 0.1607078 0.1609151 0.1611326 0.1613578 0.1615886 0.161821 0.1620498 0.1622692
 0.1624759 0.1626741 0.1628738 0.1630817 0.1632969 0.1635173 0.1637414 0.1639648 0.1641778 0.1643714
 0.1645452 0.1647102 0.164878 0.1650473 0.1652105 0.1653725 0.1655499 0.165748 0.1659525 0.1661471
 0.1663298 0.1665114 0.1667047 0.1669119 0.1671212 0.1673196 0.1675072 0.1676939 0.1678896 0.1681003
 0.1683237 0.1685456 0.1687528 0.1689492 0.1691477 0.1693529 0.1695613 0.1697705 0.1699804 0.170191
 0.1704029 0.1706143 0.1708236 0.1710365 0.1712606 0.17149 0.1717101 0.1719169 0.1721176 0.1723187
 0.1725227 0.1727298 0.1729366 0.173142 0.1733525 0.1735719 0.1737931 0.1740084 0.1742171 0.1744219
 0.1746287 0.1748456 0.1750716 0.1752962 0.1755147 0.1757314 0.1759477 0.1761611 0.1763711 0.1765769
 0.1767792 0.1769857 0.1771969 0.1773886 0.1775093 0.1774449 0.1769142 0.1753612 0.1719475 0.165722
 0.1559994 0.1427964 0.1269828 0.1099761 0.09321699 0.07778974 0.06432009 0.0530746 0.04411139 0.03736533
 0.03269281 0.02996112 0.02915386 0.03048042 0.034487 0.04172884 0.05154873 0.06099813 0.06598408 0.06450053
 0.05855029 0.0523231 0.04871339 0.0479186 0.0486908 0.04996559 0.05140727 0.05321529 0.05573171 0.05905835
 0.06303772 0.06766275 0.07327634 0.08012994 0.0878569 0.09562619 0.1028565 0.1096727 0.1166249 0.1240302
 0.1316423 0.1388981 0.1453685 0.1509695 0.1558743 0.160322 0.1644838 0.1684383 0.1722158 0.1758035
 0.179071 0.1817382 0.1835083 0.1842956 0.18433 0.1840279 0.1837495 0.1836608 0.1837742 0.1840563
 0.1844796 0.1850233 0.1856701 0.1864018 0.187192 0.1880127 0.1888449 0.1896715 0.1904671 0.1912062
 0.1918762 0.1924793 0.1930284 0.1935385 0.1940139 0.1944494 0.1948463 0.1952157 0.1955671 0.195906
 0.1962388 0.1965667 0.1968777 0.1971577 0.1974067 0.1976376 0.1978633 0.1980896 0.1983147 0.1985338
 0.1987445 0.1989482 0.1991467 0.1993439 0.1995441 0.1997455 0.1999416 0.2001327 0.2003263 0.200524
 0.2007195 0.2009111 0.2011046 0.2013028 0.2015024 0.2016999 0.2018946 0.2020859 0.2022748 0.2024639
 0.2026548 0.2028479 0.2030424 0.2032355 0.2034266 0.2036244 0.2038402 0.2040733 0.204311 0.2045431
 0.204767 0.2049837 0.2051975 0.2054119 0.2056191 0.2058015 0.2059539 0.2060969 0.2062619 0.2064649
 0.2066949 0.2069249 0.2071338 0.2073204 0.2074979 0.2076815 0.2078772 0.2080761 0.208264 0.2084482
 0.208656 0.2088957 0.2091421 0.2093746 0.209601 0.2098332 0.2100691 0.2103089 0.2105519 0.2107717
 0.2109336 0.2110488 0.2111899 0.2114344 0.2117906 0.2121834 0.2125227 0.2127815 0.2129971 0.2132178
 0.2134707 0.2137397 0.2139376 0.2139643 0.2138598 0.2138401 0.2141 0.2146167 0.2152007 0.2156954
 0.2160729 0.2163796 0.2166519 0.2168809 0.2170225 0.217044 0.2169928 0.2170184 0.2172755 0.2177693
 0.2183374 0.2188155 0.2191647 0.2194189 0.219606 0.2197509 0.2198357 0.2197305 0.2193334 0.2188474
 0.2187396 0.2192875 0.2202612 0.2211677 0.2217399 0.222072 0.222344 0.2225979 0.2227947 0.2228553
 0.2225456 0.2216071 0.2202604 0.2193537 0.2196623 0.2211041 0.2228751 0.224251 0.2250446 0.2254354
 0.2256598 0.2258521 0.2259444 0.2256744 0.2248836 0.2239041 0.2234732 0.2240524 0.225308 0.2264663
 0.2271037 0.2273722 0.2275847 0.2278642 0.2280622 0.2277165 0.2263105 0.2240294 0.2221478 0.2221335
 0.2242134 0.2271042 0.229288 0.2303181 0.2307051 0.2308 0.2302735 0.2287087 0.2262328 0.2234611
 0.2212955 0.2207946 0.2224731 0.2254312 0.2278693 0.2288661 0.2291556 0.2299237 0.2313941 0.232852
 0.2335672 0.2333545 0.2324437 0.2310775 0.2293954 0.2278027 0.2271978 0.2283355 0.2309065 0.2336432
 0.235489 0.2364021 0.2368066 0.2363508 0.2336528 0.2279654 0.2212605 0.2176826 0.2198881 0.2262646
 0.2326605 0.2364673 0.2380527 0.2388049 0.2392677 0.2389967 0.2368321 0.2315316 0.2237304 0.2171835
 0.2162333 0.2215118 0.2292238 0.2346917 0.2355382 0.2319303 0.2257495 0.2200419 0.2177723 0.2200239
 0.2255283 0.2319262 0.2371813 0.2401386 0.240518 0.2388127 0.2362606 0.234548 0.2345857 0.2351698
 0.2339003 0.2302153 0.2263198 0.2239411 0.2216525 0.217512 0.2133332 0.2134901 0.2192367 0.2266117
 0.2308889 0.2313654 0.2305089 0.2294546 0.2260565 0.2179749 0.2071128 0.1997019 0.200857 0.2092654
 0.2183588 0.2227472 0.2224987 0.2212085 0.2212057 0.2211817 0.2180325 0.2109071 0.2032873 0.2000748
 0.2023785 0.2065192 0.2083901 0.206737 0.2017277 0.1936417 0.1852327 0.1825843 0.1899828 0.2046753
 0.2190195 0.2267752 0.2253942 0.2146624 0.1975888 0.1822415 0.1778234 0.1864257 0.2004759 0.2096975
 0.2092634 0.2006596 0.1872955 0.1721767 0.1593031 0.1541102 0.1602242 0.1757824 0.1934313 0.2039578
 0.2013853 0.1876564 0.1730952 0.1689835 0.1772637 0.1891635 0.1950048 0.1929812 0.1878048 0.1846558
 0.1861959 0.1920578 0.1992355 0.204924 0.2087582 0.2096187 0.2026197 0.1849788 0.16377 0.151254
 0.1521502 0.1612335 0.1731372 0.1871643 0.20089 0.2068631 0.2010077 0.1903456 0.1870145 0.1953853
 0.2083259 0.2159265 0.215307 0.2111396 0.2084399 0.2072315 0.2050402 0.2026658 0.204389 0.2120625
 0.2218778 0.2286204 0.2310944 0.2316462 0.2321798 0.2327095 0.2327073 0.2319812 0.2306039 0.2290421
 0.2280071 0.2276575 0.2274549 0.2269779 0.2258987 0.2227532 0.2152589 0.203523 0.1920785 0.1862876
 0.1866541 0.1892033 0.1913931 0.1935933 0.1935658 0.1849146 0.1655338 0.1445399 0.135635 0.1438653
 0.1618662 0.1782603 0.18637 0.1847906 0.1740017 0.1565814 0.1399134 0.1338601 0.1427157 0.1610872
 0.1796605 0.1932229 0.2012334 0.2033583 0.1984982 0.1879704 0.176775 0.1707264 0.1729192 0.1823773
 0.1943714 0.2016207 0.1978635 0.1840919 0.1712888 0.1723112 0.188398 0.2071009 0.2162775 0.216379
 0.2154991 0.2167882 0.2169082 0.2148874 0.2156514 0.2232793 0.2350103 0.2439694 0.2452066 0.2376483
 0.2234495 0.2084829 0.2008102 0.204185 0.2137197 0.2211442 0.2227737 0.2190227 0.2095442 0.195282
 0.1836229 0.18395 0.1967819 0.2125553 0.2224904 0.2265864 0.2296391 0.2329901 0.232899 0.2262068
 0.2156032 0.2079742 0.207595 0.2123975 0.2175007 0.2203642 0.2208185 0.218152 0.2115549 0.2034489
 0.1995156 0.2037621 0.2143536 0.2252952 0.2317681 0.2331441 0.231601 0.2292917 0.2268943 0.2237732
 0.2194039 0.2152306 0.2143917 0.2183688 0.2246323 0.2292461 0.2313765 0.233565 0.2377258 0.2425048
 0.2449299 0.2436543 0.2402338 0.2377664 0.2384059 0.2416563 0.2447434 0.244983 0.2423367 0.239693
 0.2402122 0.2443134 0.2496182 0.2536478 0.2558405 0.2570449 0.2580679 0.2589648 0.2589961 0.2571906
 0.2537204 0.2506978 0.2506778 0.2541249 0.2589676 0.2627372 0.2645648 0.2650499 0.2648985 0.2641901
 0.262772 0.2609158 0.2593461 0.2586657 0.2589193 0.2597364 0.2607208 0.2616257 0.2623276 0.2628042
 0.2631066 0.2632879 0.2633834 0.2634524 0.2635445 0.2636124 0.2635617 0.2634258 0.2633945 0.2636025
 0.2639576 0.264241 0.2643064 0.2640976 0.2635444 0.2625825 0.2612805 0.2598159 0.2582806 0.2566213
 0.2548819 0.2534635 0.2529999 0.2538776 0.2558787 0.2583181 0.2605139 0.2621217 0.2631218 0.263642
 0.2638444 0.2638872 0.2638795 0.2638416 0.2637326 0.2635216 0.2632225 0.2628712 0.2624958 0.2621207
 0.2617783 0.26149 0.2612354 0.2609563 0.2606004 0.2601529 0.2596381 0.2590994 0.2585674 0.2580251
 0.2574049 0.2566405 0.2557276 0.2547346 0.2537609 0.2528818 0.2521076 0.2513842 0.2506441 0.249854
 0.2489972 0.2480321 0.2469261 0.2457425 0.2446382 0.2437376 0.2430281 0.2423951 0.2417248 0.2409557
 0.240071 0.2390896 0.238055 0.2370025 0.2359356 0.234836 0.2336804 0.2324428 0.2311032 0.229664
 0.2281453 0.2265651 0.2249413 0.2232966 0.2216275 0.2198666 0.2178937 0.2155777 0.2127989 0.2094589
 0.2055217 0.2010618 0.1962565 0.1913204 0.1864412 0.1817649 0.1774165 0.1735108 0.1701434 0.1673822
 0.1652727 0.1638466 0.1631241 0.1631144 0.1638106 0.1651773 0.1671404 0.169591 0.1723928 0.1753844
 0.1783848 0.1812253 0.1838077 0.186146 0.1883309 0.1904293 0.1924243 0.1942552 0.1958875 0.1973188
 0.1985487 0.1995773 0.2004256 0.201131 0.2017277 0.2022401 0.2026855 0.2030729 0.2034014 0.2036683
 0.2038806 0.2040591 0.2042272 0.2043961 0.2045684 0.2047563 0.2049871 0.2052902 0.2056814 0.2061521
 0.2066711 0.207206 0.2077509 0.2083247 0.2089455 0.2096188 0.2103527 0.2111725 0.2121148 0.2132078
 0.2144516 0.2158092 0.2172128 0.2185762 0.2198087 0.2208333 0.221604 0.2221085 0.2223645 0.2224151
 0.2223147 0.2221067 0.2218138 0.2214469 0.2210108 0.2205025 0.2199215 0.2192854 0.218624 0.217958
 0.2172914 0.2166216 0.215948 0.2152687 0.2145822 0.213898 0.2132376 0.2126134 0.2120136 0.211418
 0.2108243 0.2102437 0.2096741 0.2090985 0.2085077 0.2079014 0.2072628 0.2065531 0.2057418 0.2048283
 0.2038221 0.202719 0.2015108 0.2002092 0.1988412 0.1974216 0.1959431 0.1943921 0.1927654 0.1910627
 0.1892705 0.1873666 0.185356 0.1832981 0.1812883 0.1794065 0.1776816 0.1760927 0.1745973 0.1731679
 0.1718076 0.1705279 0.1693187 0.1681568 0.1670358 0.16597 0.1649748 0.1640532 0.163198 0.1624023
 0.1616707 0.1610175 0.1604533 0.1599761 0.159576 0.1592391 0.1589611 0.1587701 0.1587073 0.1587627
 0.1588538 0.15889 0.1588374 0.158717 0.1585724 0.158447 0.1583668 0.1583311 0.1583143 0.1582652
 0.1581091 0.1577699 0.1571853 0.1562989 0.1550733 0.1535321 0.1517726 0.1499307 0.1481418 0.1465112
 0.1450963 0.1439252 0.1430217 0.142377 0.1419116 0.1415205 0.1411642 0.1408976 0.1408165 0.1409611
 0.1412407 0.1414773 0.1415714 0.1416047 0.141753 0.1421366 0.1427571 0.1435141 0.1442642 0.1449051
 0.1454111 0.145786 0.1460295 0.1461574 0.1461989 0.1461637 0.1460485 0.1458602 0.1456062 0.1452912
 0.1449307 0.1445312 0.1440683 0.1435166 0.1428714 0.1421325 0.1413077 0.1404163 0.1394348 0.1383042
 0.1370698 0.135958 0.1352428 0.1350773 0.1354476 0.1362095 0.1371781 0.1382358 0.1392967 0.1401485
 0.1405266 0.1404979 0.1406429 0.1416455 0.1436571 0.1461362 0.1483246 0.1498001 0.1505441 0.1506547
 0.1501933 0.1492197 0.1477607 0.1457797 0.1433017 0.1404704 0.1374249 0.1342793 0.1312358 0.1285229
 0.1262426 0.1244007 0.1229874 0.1220386 0.1216774 0.121517 0.1196382 0.1135983 0.1042125 0.09721759
 0.09843458 0.1072202 0.1169322 0.1219389 0.1220889 0.1203836 0.1188899 0.1179102 0.1173377 0.1173396
 0.1180678 0.119371 0.1208324 0.122026 0.1227724 0.1231101 0.1230209 0.1221822 0.1198757 0.1152201
 0.1078785 0.09869963 0.08944339 0.08174479 0.07635605 0.07315928 0.07154183 0.07075785 0.07027234 0.07000557
 0.07025141 0.07131436 0.07323965 0.07587656 0.07905313 0.08253795 0.08592048 0.08877145 0.09096627 0.09269084
 0.09410522 0.09514758 0.09568423 0.09570557 0.09532373 0.0946756 0.09388359 0.09304197 0.09215917 0.09114367
 0.08995416 0.08877123 0.08790206 0.08748059 0.0873666 0.08735096 0.08733198 0.08728341 0.08719389 0.08708049
 0.0869894 0.08697931 0.08712689 0.08748533 0.08799808 0.08850493 0.08886229 0.08904174 0.08911365 0.08911417
 0.0889169 0.08834872 0.08750879 0.08677998 0.08633338 0.08581159 0.08478385 0.08340243 0.08231872 0.08197965
 0.08223221 0.08260249 0.08274692 0.08260788 0.08235225 0.08228303 0.0826453 0.08333077 0.08385594 0.08380727
</values></Ydata></ScRf><Data_Parameters_AB><parameter name="DPF">1</parameter><parameter name="NPT">3497</parameter><parameter name="FXV">3996</parameter><parameter name="LXV">500</parameter><parameter name="CSF">1</parameter><parameter name="MXY">0.0436822921037674</parameter><parameter name="MNY">-0.115969382226467</parameter><parameter name="DAT">31/05/2022</parameter><parameter name="TIM">14:06:30.940 (GMT+2)</parameter><parameter name="DXU">WN</parameter></Data_Parameters_AB><AB__Qtest><MainReport name="Quality Test Report"><Header><Line><Legend>Test result ok/not ok [1/0]: </Legend><Value>0</Value></Line><Line><Legend>Method file: </Legend><Value>C:\Users\Public\Documents\Bruker\OPUS_8.2.28\QT\IRBT_v3_default.QT</Value></Line></Header><Matrix><Line><Legend></Legend><Legend>min</Legend><Legend>max</Legend><Legend>measured</Legend></Line><Line><Value>Absorption (X-Range 1):</Value><Value>0.400000</Value><Value>2.000000</Value><Value>0.082891</Value></Line><Line><Value>Noise (X-Range 4):</Value><Value></Value><Value>0.000300</Value><Value>0.000058</Value></Line><Line><Value>Signal/Noise (X-Range 2):</Value><Value>200.000000</Value><Value></Value><Value>16.637543</Value></Line><Line><Value>Signal/Noise (X-Range 3):</Value><Value>40.000000</Value><Value></Value><Value>9.286674</Value></Line><Line><Value>Water vapour (X-Range 5):</Value><Value></Value><Value>0.000300</Value><Value>0.000036</Value></Line><Line><Value>Signal/Water (X-Range 2):</Value><Value>100.000000</Value><Value></Value><Value>26.888555</Value></Line><Line><Value>Signal/Water (X-Range 3):</Value><Value>20.000000</Value><Value></Value><Value>15.008541</Value></Line><Line><Value>Fringes (X-Range 6):</Value><Value></Value><Value>0.000100</Value><Value>0.000056</Value></Line></Matrix></MainReport></AB__Qtest><Data_Parameters_ScSm><parameter name="DPF">1</parameter><parameter name="NPT">1814</parameter><parameter name="FXV">3996.33169228125</parameter><parameter name="LXV">499.541461535156</parameter><parameter name="CSF">1</parameter><parameter name="MXY">0.278869450092316</parameter><parameter name="MNY">0.0351898819208145</parameter><parameter name="DAT">31/05/2022</parameter><parameter name="TIM">14:06:30.940 (GMT+2)</parameter><parameter name="DXU">WN</parameter></Data_Parameters_ScSm><Data_Parameters_ScRf><parameter name="DPF">1</parameter><parameter name="NPT">1820</parameter><parameter name="FXV">4004.04661832813</parameter><parameter name="LXV">495.683998511719</parameter><parameter name="CSF">1</parameter><parameter name="MXY">0.265049934387207</parameter><parameter name="MNY">0.0291538648307323</parameter><parameter name="DAT">31/05/2022</parameter><parameter name="TIM">14:06:04.315 (GMT+2)</parameter><parameter name="DXU">WN</parameter></Data_Parameters_ScRf><Optic_Parameters_Rf><parameter name="APR">0</parameter><parameter name="APT">Open</parameter><parameter name="BMS">KBr</parameter><parameter name="DTC">RT-DLaTGS_IR-Biotyper [Microplate reader]</parameter><parameter name="HPF">0</parameter><parameter name="LPF">10.0</parameter><parameter name="LPV">4000</parameter><parameter name="PGR">0</parameter><parameter name="RCH">Module port</parameter><parameter name="RDX">0</parameter><parameter name="SRC">MIR</parameter><parameter name="VEL">10.0</parameter><parameter name="SON">Off</parameter></Optic_Parameters_Rf><Acquisition_Parameters_Rf><parameter name="ADT">1</parameter><parameter name="AQM">DD</parameter><parameter name="CFE">0</parameter><parameter name="COR">0</parameter><parameter name="DEL">0</parameter><parameter name="DLY">0</parameter><parameter name="HFW">8000</parameter><parameter name="LFW">0</parameter><parameter name="NSR">32</parameter><parameter name="PLF">AB</parameter><parameter name="RES">6</parameter><parameter name="RGN">-1</parameter><parameter name="STR">0</parameter><parameter name="TCL">MakeCompatibleScalar (0, {WSV=1.000000, ARV=0});</parameter><parameter name="TDL">37</parameter><parameter name="RPO">0</parameter></Acquisition_Parameters_Rf><FT_-_Parameters_Rf><parameter name="APF">B3</parameter><parameter name="HFQ">500</parameter><parameter name="LFQ">4000</parameter><parameter name="NLI">0</parameter><parameter name="PHR">24</parameter><parameter name="PHZ">ML</parameter><parameter name="SPZ">NO</parameter><parameter name="ZFF">1</parameter></FT_-_Parameters_Rf><Optic_Parameters_><parameter name="APR">0</parameter><parameter name="APT">Open</parameter><parameter name="BMS">KBr</parameter><parameter name="CHN">Module port</parameter><parameter name="DTC">RT-DLaTGS_IR-Biotyper [Microplate reader]</parameter><parameter name="HPF">0</parameter><parameter name="LPF">10.0</parameter><parameter name="LPV">4000</parameter><parameter name="PGN">0</parameter><parameter name="RDX">0</parameter><parameter name="SRC">MIR</parameter><parameter name="VEL">10.0</parameter><parameter name="SON">Off</parameter></Optic_Parameters_><FT_-_Parameters_><parameter name="APF">B3</parameter><parameter name="HFQ">500</parameter><parameter name="LFQ">4000</parameter><parameter name="NLI">0</parameter><parameter name="PHR">24</parameter><parameter name="PHZ">ML</parameter><parameter name="SPZ">NO</parameter><parameter name="ZFF">1</parameter></FT_-_Parameters_><Acquisition_Parameters_><parameter name="ADT">1</parameter><parameter name="AQM">DD</parameter><parameter name="CFE">0</parameter><parameter name="COR">0</parameter><parameter name="DEL">0</parameter><parameter name="DLY">0</parameter><parameter name="HFW">8000</parameter><parameter name="LFW">0</parameter><parameter name="NSS">32</parameter><parameter name="PLF">AB</parameter><parameter name="RES">6</parameter><parameter name="SOT">0</parameter><parameter name="TCL">MakeCompatibleScalar (0, {WSV=1.000000, ARV=0});</parameter><parameter name="TDL">37</parameter><parameter name="SPO">0</parameter><parameter name="SGN">-1</parameter></Acquisition_Parameters_><Instrument_Parameters_Rf><parameter name="HFL">15800.168544</parameter><parameter name="LFL">0</parameter><parameter name="LWN">15800.168544</parameter><parameter name="ABP">32197</parameter><parameter name="SSP">1</parameter><parameter name="ARG">2</parameter><parameter name="ASG">2</parameter><parameter name="ASS">32</parameter><parameter name="GFW">16</parameter><parameter name="GBW">16</parameter><parameter name="BFW">0</parameter><parameter name="BBW">0</parameter><parameter name="PKA">7260</parameter><parameter name="PKL">4996</parameter><parameter name="PRA">7448</parameter><parameter name="PRL">5001</parameter><parameter name="P2A">1</parameter><parameter name="P2L">1</parameter><parameter name="P2R">1</parameter><parameter name="P2K">1</parameter><parameter name="DAQ">0</parameter><parameter name="AG2">1</parameter><parameter name="SSM">1</parameter><parameter name="RSN">25751</parameter><parameter name="CRR">0</parameter><parameter name="SRT">1654005964.316</parameter><parameter name="DUR">19.6389923095703</parameter><parameter name="TSC">29.1</parameter><parameter name="MVD">0.411034733057022</parameter><parameter name="AN1">0.225814781715311</parameter><parameter name="AN2">0</parameter><parameter name="VSN">2.485 Apr  4 2017</parameter><parameter name="SRN">0085</parameter><parameter name="CAM">0</parameter><parameter name="INS">IR-Biotyper</parameter><parameter name="FOC">69</parameter><parameter name="RDY">1</parameter><parameter name="ARS">32</parameter></Instrument_Parameters_Rf><Sample_Parameters_><parameter name="BLD"></parameter><parameter name="CNM">Admin</parameter><parameter name="CPY"></parameter><parameter name="DPM"></parameter><parameter name="EXP">IRBT_v3_32Scans.XPM</parameter><parameter name="LCT"></parameter><parameter name="SFM">Microplate, HTS-XT</parameter><parameter name="SNM">220531-1301_RTF49M (D_3)_G7_505c8554-98b4-46bc-ac28-4803ceae9145.0</parameter><parameter name="XPP">C:\Users\Public\Documents\Bruker\OPUS_8.2.28\XPM</parameter><parameter name="IST">OK</parameter><parameter name="CPG">1252</parameter><parameter name="UID">2f8dae0b-0c48-4b3a-bf20-278f42de1fc2</parameter></Sample_Parameters_><Instrument_Parameters_><parameter name="HFL">15800.168544</parameter><parameter name="LFL">0</parameter><parameter name="LWN">15800.168544</parameter><parameter name="ABP">32197</parameter><parameter name="SSP">1</parameter><parameter name="ASG">2</parameter><parameter name="ARG">2</parameter><parameter name="ASS">32</parameter><parameter name="GFW">16</parameter><parameter name="GBW">16</parameter><parameter name="BFW">0</parameter><parameter name="BBW">0</parameter><parameter name="PKA">8168</parameter><parameter name="PKL">4988</parameter><parameter name="PRA">8483</parameter><parameter name="PRL">4993</parameter><parameter name="P2A">1</parameter><parameter name="P2L">1</parameter><parameter name="P2R">1</parameter><parameter name="P2K">1</parameter><parameter name="DAQ">0</parameter><parameter name="AG2">1</parameter><parameter name="SSM">1</parameter><parameter name="RSN">13501</parameter><parameter name="CRR">0</parameter><parameter name="SRT">1654005990.94</parameter><parameter name="DUR">19.6379852294922</parameter><parameter name="TSC">29.1</parameter><parameter name="MVD">0.307194113731384</parameter><parameter name="AN1">0.225824497382717</parameter><parameter name="AN2">0</parameter><parameter name="VSN">2.485 Apr  4 2017</parameter><parameter name="SRN">0085</parameter><parameter name="CAM">0</parameter><parameter name="INS">IR-Biotyper</parameter><parameter name="FOC">69</parameter><parameter name="RDY">1</parameter></Instrument_Parameters_><History/></OPUSDataFile>
