<?xml version="1.0" encoding="UTF-8" ?>
<OPUSDataFile><AB><Ydata ylabel="Absorbance Units"><values byteorder="INTEL" format="FLOAT32" numvalues="3497"> -0.09081892 -0.09082235 -0.0908187 -0.09080749 -0.09079666 -0.09078658 -0.09077656 -0.09076624 -0.09074958 -0.09072798
 -0.09070569 -0.09068585 -0.09068293 -0.0906959 -0.09073164 -0.09078243 -0.09083953 -0.09089506 -0.09093537 -0.09096071
 -0.09096456 -0.09095711 -0.09094057 -0.09092858 -0.09092701 -0.09094217 -0.09097827 -0.09102847 -0.09109326 -0.09115878
 -0.09122375 -0.09127893 -0.09132377 -0.09135799 -0.0913819 -0.09139946 -0.09141077 -0.0914185 -0.09142224 -0.09142191
 -0.09141707 -0.09140647 -0.09139039 -0.09136822 -0.09134182 -0.09131245 -0.09128346 -0.09125718 -0.09123799 -0.091229
 -0.09123214 -0.09125016 -0.09127739 -0.09131437 -0.09134814 -0.09137633 -0.09139305 -0.09139656 -0.09139804 -0.09139802
 -0.09141528 -0.09144995 -0.0915089 -0.09158935 -0.09167827 -0.09177249 -0.09185297 -0.09192028 -0.09196542 -0.0919925
 -0.09200399 -0.09200404 -0.09199911 -0.09198933 -0.09197821 -0.09196034 -0.0919339 -0.09189411 -0.09183661 -0.0917687
 -0.09168893 -0.0916176 -0.0915569 -0.09152786 -0.09153309 -0.09158188 -0.09167493 -0.0918045 -0.09196873 -0.09214182
 -0.09231929 -0.09246048 -0.09256288 -0.0925912 -0.09255589 -0.0924601 -0.09232491 -0.09218743 -0.09206004 -0.09197429
 -0.09192587 -0.09192523 -0.09195311 -0.0920044 -0.09205461 -0.0920918 -0.09210852 -0.09209727 -0.09207603 -0.09204567
 -0.09202867 -0.09202841 -0.09204514 -0.09207915 -0.09210839 -0.09213237 -0.09213813 -0.09212954 -0.0921241 -0.09212652
 -0.09216653 -0.09223931 -0.09235298 -0.0924889 -0.09261974 -0.09273081 -0.09278814 -0.09280388 -0.09277388 -0.09272037
 -0.09265611 -0.09258971 -0.09252577 -0.09247378 -0.09243323 -0.0924308 -0.09247027 -0.09257618 -0.09275474 -0.09298018
 -0.09325217 -0.09344324 -0.09354864 -0.09346209 -0.09320678 -0.09288144 -0.09250655 -0.09221618 -0.09200141 -0.09190851
 -0.0919182 -0.09202499 -0.09219543 -0.09239376 -0.09257885 -0.09270027 -0.0927522 -0.09270512 -0.09261223 -0.09248461
 -0.09237521 -0.09230569 -0.09227419 -0.09228618 -0.09231338 -0.09235279 -0.09239248 -0.09243142 -0.09247666 -0.09252831
 -0.0925903 -0.09266058 -0.09272813 -0.09279024 -0.09282999 -0.09284812 -0.09283706 -0.0928009 -0.09274239 -0.09266736
 -0.09258228 -0.09249578 -0.09241556 -0.09235194 -0.09231261 -0.09230418 -0.09233247 -0.0923938 -0.09249135 -0.09260472
 -0.09273338 -0.09284393 -0.09293314 -0.09297407 -0.09296471 -0.09290336 -0.09279142 -0.09265131 -0.09248532 -0.09231915
 -0.09215394 -0.09200686 -0.09187985 -0.09178652 -0.09172758 -0.09171312 -0.09173549 -0.09179345 -0.09186824 -0.09194554
 -0.09200684 -0.09203454 -0.09203027 -0.09198608 -0.09192692 -0.0918562 -0.09180187 -0.09177057 -0.09177013 -0.0918032
 -0.09185826 -0.09193484 -0.09201741 -0.09210502 -0.09218161 -0.09224596 -0.09228043 -0.09228688 -0.09226012 -0.09220911
 -0.09215316 -0.0921015 -0.09208168 -0.09209111 -0.09214115 -0.09221603 -0.09230583 -0.09239984 -0.0924845 -0.09257206
 -0.09266289 -0.09277435 -0.09291579 -0.09307346 -0.09325101 -0.09340123 -0.09351959 -0.0935702 -0.09355022 -0.09345309
 -0.09328008 -0.09305105 -0.09277262 -0.09249941 -0.09223758 -0.09204275 -0.09191187 -0.09186894 -0.09189929 -0.09199412
 -0.09212432 -0.09224983 -0.09235276 -0.09239646 -0.09240042 -0.09236382 -0.09231316 -0.09226129 -0.09221493 -0.09218062
 -0.09214703 -0.09211341 -0.09206766 -0.09200701 -0.09194022 -0.09186734 -0.09181346 -0.09177961 -0.0917853 -0.09182877
 -0.09191013 -0.09202155 -0.09213508 -0.09223723 -0.09227388 -0.09224838 -0.09213338 -0.09196023 -0.09175825 -0.09154878
 -0.0913653 -0.09120114 -0.09106427 -0.09093533 -0.09080653 -0.09067117 -0.09052236 -0.09037699 -0.09023628 -0.09011951
 -0.09003028 -0.08996637 -0.08992836 -0.08989001 -0.08984986 -0.08977895 -0.08967943 -0.08955214 -0.08940244 -0.08925349
 -0.08910643 -0.08897543 -0.08886044 -0.088768 -0.08869699 -0.08865236 -0.08862142 -0.08859949 -0.0885614 -0.088489
 -0.08837276 -0.08819979 -0.08798849 -0.08774205 -0.08747241 -0.08718334 -0.08687314 -0.08654138 -0.08619335 -0.0858292
 -0.08545919 -0.08508409 -0.08471669 -0.08435941 -0.08403607 -0.08374928 -0.08352567 -0.0833595 -0.08325269 -0.08318987
 -0.08314434 -0.08310334 -0.08304078 -0.0829474 -0.0828084 -0.08261272 -0.08234468 -0.08201709 -0.08162516 -0.08120871
 -0.08078016 -0.08035529 -0.07994125 -0.07952812 -0.07911511 -0.07869793 -0.07827577 -0.07786379 -0.07746328 -0.07710104
 -0.07677681 -0.07650515 -0.07627702 -0.0760674 -0.07585683 -0.07557453 -0.07522018 -0.07474533 -0.07419783 -0.07362102
 -0.07305034 -0.07254288 -0.0720823 -0.07167858 -0.07129817 -0.07092786 -0.07054994 -0.07015292 -0.06974889 -0.06933741
 -0.06893707 -0.06855191 -0.06817343 -0.067802 -0.06740306 -0.06697543 -0.0664976 -0.06597349 -0.06542341 -0.06485213
 -0.06429239 -0.06374194 -0.06321116 -0.06269648 -0.06219514 -0.06170699 -0.06123176 -0.06076668 -0.06031014 -0.05985693
 -0.05940278 -0.05894677 -0.05848932 -0.05802308 -0.05754934 -0.05704492 -0.05650402 -0.05592049 -0.05528856 -0.05465467
 -0.05402109 -0.05344291 -0.05292103 -0.05246018 -0.05205609 -0.05167773 -0.0513216 -0.05095575 -0.050581 -0.05018146
 -0.04976396 -0.04933314 -0.04889726 -0.04847206 -0.04805395 -0.04765147 -0.04723928 -0.04680704 -0.04632481 -0.0457706
 -0.04515486 -0.04446852 -0.04376415 -0.04304919 -0.0423697 -0.04173383 -0.04115235 -0.04062749 -0.0401361 -0.03967657
 -0.03921445 -0.03874909 -0.03825977 -0.03774805 -0.03720947 -0.03664623 -0.03606052 -0.03545775 -0.03484684 -0.03423825
 -0.03365003 -0.0330876 -0.03256584 -0.03207472 -0.03161487 -0.03116751 -0.03072446 -0.03027396 -0.02980883 -0.02933384
 -0.02884754 -0.028364 -0.0278856 -0.0274141 -0.02695039 -0.0264766 -0.025992 -0.02548254 -0.02495046 -0.02440789
 -0.02385826 -0.02332516 -0.02280614 -0.02230764 -0.02182284 -0.0213402 -0.02085819 -0.02036736 -0.0198759 -0.01938703
 -0.01891112 -0.01845845 -0.0180256 -0.01761772 -0.01721292 -0.01680653 -0.01637813 -0.01592065 -0.01543722 -0.01492609
 -0.01440501 -0.01387517 -0.0133488 -0.01282641 -0.01231448 -0.01181364 -0.01133269 -0.0108712 -0.01043313 -0.01001487
 -0.009608075 -0.009209468 -0.008807393 -0.008403822 -0.007995079 -0.007588327 -0.007189463 -0.006802493 -0.006435339 -0.006076734
 -0.005726876 -0.005362683 -0.004975122 -0.004559006 -0.004107367 -0.003649451 -0.00318748 -0.002751322 -0.002344559 -0.001955746
 -0.001583657 -0.001191922 -0.0007815106 -0.0003432189 0.0001154041 0.000563287 0.0009964054 0.001382816 0.001732417 0.002047437
 0.002344022 0.002648849 0.002962593 0.003301096 0.003642875 0.003978338 0.004291179 0.004565925 0.004817868 0.005045299
 0.005278667 0.005525369 0.005796311 0.00609549 0.006410778 0.006741805 0.007072604 0.007402518 0.007721987 0.008031896
 0.008334533 0.008633627 0.008948169 0.009280439 0.009650595 0.01005042 0.01047637 0.01091159 0.01133054 0.01172304
 0.01206689 0.01236845 0.01262289 0.0128467 0.01304579 0.01323377 0.01341676 0.01359881 0.01378194 0.01396586
 0.01415032 0.01433897 0.01453189 0.01473663 0.01495352 0.01518791 0.01543964 0.0157101 0.0159979 0.01629875
 0.01660821 0.01691136 0.01720327 0.01746459 0.01769864 0.01789854 0.01807859 0.01824957 0.01842465 0.01861855
 0.01882916 0.01906278 0.01930021 0.01953839 0.01975457 0.01994172 0.02009665 0.02021562 0.02032254 0.02041882
 0.02052783 0.02064999 0.02077394 0.02089712 0.02098835 0.0210503 0.02107698 0.02107865 0.02108379 0.02109953
 0.02115713 0.02125126 0.02139054 0.0215594 0.02174665 0.02193676 0.02211312 0.02227643 0.02241778 0.02256173
 0.02271326 0.02289631 0.02312167 0.02337334 0.02365502 0.02390917 0.0241318 0.02427309 0.0243315 0.02431154
 0.02421821 0.02410188 0.02396571 0.02385354 0.02376014 0.02369132 0.02364292 0.02360557 0.02358645 0.02359293
 0.02362862 0.02370678 0.02380638 0.02392039 0.02402023 0.02408467 0.0241204 0.02411827 0.02412191 0.02413956
 0.02420097 0.02431559 0.02446067 0.02463699 0.0247861 0.02490512 0.02494619 0.02491105 0.02479546 0.02460884
 0.02439352 0.02416148 0.02397355 0.02383248 0.0237782 0.02379535 0.02388332 0.02401356 0.02415769 0.02429313
 0.02439173 0.02445563 0.0244747 0.02447195 0.02445227 0.02443542 0.02442724 0.02443429 0.02445705 0.0245082
 0.02458782 0.02472593 0.02492386 0.02519946 0.02554806 0.02593281 0.02634062 0.02668426 0.02695732 0.02708521
 0.02708903 0.02696798 0.0267687 0.02655873 0.02637443 0.02628776 0.02628518 0.02639091 0.02654421 0.0267261
 0.02687468 0.02696263 0.02696693 0.02687286 0.02670267 0.02645452 0.02617526 0.02586835 0.02557351 0.02529264
 0.02504024 0.02481581 0.02461881 0.02444938 0.02430845 0.02419634 0.0241161 0.02406452 0.02403867 0.02402929
 0.02402527 0.02400834 0.02395839 0.02385406 0.02367102 0.02340756 0.02304924 0.02262901 0.02215045 0.02165962
 0.0211676 0.02070267 0.02027089 0.01988306 0.01954084 0.01924742 0.01900275 0.0187893 0.01860439 0.01841073
 0.0182098 0.01798666 0.01775142 0.01753167 0.01732972 0.01717167 0.01703589 0.01690371 0.01674872 0.01652865
 0.01625142 0.01589859 0.01552041 0.01513251 0.01478994 0.01451887 0.01433272 0.01424685 0.01421664 0.01424264
 0.01424602 0.01422023 0.01410424 0.01389521 0.01359378 0.01320527 0.01278807 0.01234857 0.01195357 0.01160007
 0.01131616 0.01108917 0.01090561 0.01075338 0.01060702 0.01046299 0.01030719 0.01014245 0.009966793 0.009782788
 0.009591566 0.009393714 0.009189605 0.008979792 0.008764778 0.008543225 0.008315875 0.008074146 0.007817663 0.007534257
 0.007223331 0.00688086 0.006507945 0.006115065 0.005705003 0.005298038 0.004896516 0.004519794 0.004166591 0.003845487
 0.003549225 0.003271743 0.003003046 0.002729647 0.002446628 0.002144441 0.001827413 0.001494229 0.001153548 0.0008081773
 0.0004636747 0.0001222529 -0.0002157352 -0.0005498116 -0.0008816187 -0.001211442 -0.001537746 -0.001860422 -0.002172501 -0.002473681
 -0.002757367 -0.003025047 -0.003280733 -0.003527891 -0.00378105 -0.004041026 -0.004318897 -0.004608543 -0.004906019 -0.005203649
 -0.005490097 -0.005765215 -0.006024944 -0.006272079 -0.006510158 -0.006729123 -0.006927792 -0.007090508 -0.007208605 -0.00729928
 -0.007358019 -0.007449669 -0.007578991 -0.007807436 -0.008138243 -0.008563333 -0.009076347 -0.009597843 -0.01012018 -0.01055594
 -0.01091028 -0.01114818 -0.01129309 -0.01137623 -0.01142966 -0.01151999 -0.01166097 -0.01190319 -0.01221687 -0.01260429
 -0.01300791 -0.01339551 -0.01373992 -0.01401603 -0.01425263 -0.01445079 -0.01464479 -0.01484465 -0.01503449 -0.01521565
 -0.01534166 -0.01541009 -0.01540943 -0.01534408 -0.01526518 -0.01518112 -0.01516865 -0.01522699 -0.01539974 -0.0156686
 -0.01601677 -0.01641807 -0.01682057 -0.01721491 -0.01756521 -0.0178884 -0.01818631 -0.01847412 -0.01876688 -0.01904814
 -0.01931765 -0.01954951 -0.01973211 -0.01987914 -0.01998706 -0.02010323 -0.02023287 -0.02039489 -0.02059057 -0.02078318
 -0.02097033 -0.02110853 -0.02120207 -0.02125286 -0.02126999 -0.02128847 -0.02130963 -0.02135616 -0.02141977 -0.021496
 -0.0215804 -0.02166147 -0.02175196 -0.02185321 -0.02199236 -0.02218469 -0.02244653 -0.02279436 -0.02320321 -0.02367764
 -0.02415231 -0.02461912 -0.02501852 -0.02534147 -0.02558535 -0.02574946 -0.02588956 -0.02600929 -0.02617278 -0.02637755
 -0.02664449 -0.02696214 -0.02730166 -0.02765174 -0.02796889 -0.02825383 -0.02848533 -0.02867639 -0.02883225 -0.0289686
 -0.02909931 -0.02923474 -0.02938505 -0.02955149 -0.02973963 -0.02993524 -0.03013777 -0.03032438 -0.03048911 -0.03063327
 -0.03075357 -0.03089473 -0.03105912 -0.0312906 -0.0315872 -0.03193133 -0.03231463 -0.03267315 -0.03300899 -0.03329082
 -0.03353702 -0.03377853 -0.03402449 -0.03431198 -0.03462059 -0.03494418 -0.03525464 -0.03552257 -0.03574711 -0.03591543
 -0.03604944 -0.03615593 -0.03624529 -0.03632392 -0.0363818 -0.03641767 -0.03642629 -0.03640518 -0.03637638 -0.03634087
 -0.03633986 -0.03637493 -0.03647787 -0.03664554 -0.03687692 -0.03716309 -0.03747232 -0.03779471 -0.03809056 -0.03835446
 -0.03855917 -0.03870469 -0.03877915 -0.03878889 -0.03873202 -0.03862484 -0.03847251 -0.03829904 -0.03811319 -0.03793639
 -0.03777643 -0.03764148 -0.03753605 -0.03744837 -0.03737961 -0.03729493 -0.03719253 -0.03702518 -0.03679163 -0.03646367
 -0.03604679 -0.03555914 -0.03501188 -0.03445691 -0.03389989 -0.0333838 -0.03290114 -0.03246045 -0.03204766 -0.03164883
 -0.03125558 -0.03085541 -0.03044824 -0.03003053 -0.02960457 -0.02916954 -0.02873127 -0.02828844 -0.02785973 -0.02744561
 -0.02707822 -0.02676058 -0.0265202 -0.0263591 -0.02627811 -0.02627538 -0.02632212 -0.026415 -0.02651794 -0.02663082
 -0.02673454 -0.02682982 -0.02691201 -0.02697391 -0.02700356 -0.02698836 -0.02690549 -0.02675655 -0.02652898 -0.02624838
 -0.02592318 -0.0255825 -0.02524176 -0.0249083 -0.0245888 -0.0242736 -0.02396157 -0.02364798 -0.02333137 -0.02301972
 -0.02271324 -0.02243111 -0.02217532 -0.02197874 -0.02184477 -0.02181358 -0.02188415 -0.0220779 -0.02238312 -0.02278403
 -0.0232632 -0.02378244 -0.024333 -0.02488555 -0.02544907 -0.02601771 -0.02661325 -0.02724538 -0.02793393 -0.02869113
 -0.02951846 -0.03042328 -0.0313784 -0.03238423 -0.03339074 -0.03439373 -0.03534499 -0.03624111 -0.0370611 -0.03780539
 -0.03848133 -0.03909054 -0.03964714 -0.04015161 -0.04061163 -0.0410304 -0.04141779 -0.04178168 -0.04214095 -0.04249924
 -0.04287217 -0.04324901 -0.04362896 -0.04399251 -0.04432748 -0.04462367 -0.04487156 -0.04507886 -0.04524424 -0.04538403
 -0.04550128 -0.04560468 -0.04569671 -0.04576746 -0.04581671 -0.04582098 -0.04578003 -0.0456849 -0.04554176 -0.04538588
 -0.04522902 -0.04513836 -0.04511692 -0.04521256 -0.04540783 -0.04569826 -0.04605475 -0.04643976 -0.0468327 -0.04720196
 -0.04754283 -0.04784318 -0.04810707 -0.048333 -0.0485272 -0.04869014 -0.04883113 -0.04895063 -0.0490636 -0.04917059
 -0.04929449 -0.04943642 -0.04963169 -0.04988265 -0.05023292 -0.05068294 -0.05126162 -0.05195921 -0.05275869 -0.05363647
 -0.05452481 -0.05540086 -0.05618688 -0.05688747 -0.05746819 -0.0579678 -0.05840486 -0.058821 -0.05925075 -0.05970124
 -0.06018893 -0.06068749 -0.06119432 -0.06168028 -0.06213883 -0.06255773 -0.06293394 -0.06327187 -0.06357136 -0.06384768
 -0.0641018 -0.0643513 -0.06459627 -0.0648466 -0.06510042 -0.06535631 -0.06561077 -0.06585474 -0.06608386 -0.06628524
 -0.06645858 -0.06659485 -0.06670559 -0.06679409 -0.06688201 -0.06698354 -0.06711166 -0.06727947 -0.06747355 -0.06769659
 -0.06791566 -0.06812531 -0.06830116 -0.06843787 -0.06854349 -0.06861765 -0.06869303 -0.06877072 -0.06887064 -0.06898966
 -0.06911338 -0.06923871 -0.06934179 -0.06942923 -0.06950465 -0.0695798 -0.06968104 -0.06980771 -0.06997426 -0.07016316
 -0.07036512 -0.07056209 -0.07073881 -0.07089107 -0.07101191 -0.07110848 -0.07118028 -0.07123965 -0.07128762 -0.07134073
 -0.07140086 -0.07148094 -0.07158223 -0.07170361 -0.07184443 -0.07198978 -0.07213863 -0.07227591 -0.07240224 -0.07251183
 -0.07260639 -0.07268745 -0.07275667 -0.07281764 -0.07287206 -0.07292351 -0.07297318 -0.07302434 -0.07307404 -0.07312272
 -0.07316288 -0.0731907 -0.07320423 -0.07319907 -0.07319109 -0.07318062 -0.07319382 -0.07323445 -0.07331344 -0.07343244
 -0.07357442 -0.07373805 -0.0738953 -0.0740461 -0.07417645 -0.07428922 -0.07438936 -0.07447889 -0.07456689 -0.07465126
 -0.07473309 -0.07480759 -0.07486856 -0.07491386 -0.07493734 -0.07494523 -0.07493698 -0.07492756 -0.07492206 -0.07493551
 -0.07497446 -0.07504144 -0.07513981 -0.07525668 -0.07539157 -0.07552761 -0.07566348 -0.07579166 -0.07591208 -0.07602607
 -0.07613368 -0.07623605 -0.07633269 -0.07642133 -0.07650263 -0.0765769 -0.07664595 -0.07671372 -0.07678061 -0.07684903
 -0.07691796 -0.07698656 -0.07705643 -0.07712751 -0.0772041 -0.0772888 -0.07738128 -0.07748329 -0.07758726 -0.0776924
 -0.07779056 -0.07788026 -0.0779605 -0.078031 -0.07809568 -0.0781546 -0.07820822 -0.07825584 -0.07829132 -0.07831471
 -0.07832135 -0.07831519 -0.07830377 -0.07829375 -0.07830267 -0.07833154 -0.07839184 -0.0784738 -0.07857366 -0.07867916
 -0.07877985 -0.0788739 -0.07895643 -0.07903498 -0.07911123 -0.07918935 -0.07927125 -0.07935348 -0.07943591 -0.07951497
 -0.07959031 -0.07966333 -0.07973421 -0.07980647 -0.07988008 -0.07995627 -0.08003447 -0.08011286 -0.08019088 -0.08026572
 -0.08033787 -0.08040665 -0.08047335 -0.08053983 -0.08060584 -0.08067223 -0.08073708 -0.08079921 -0.08085781 -0.08091163
 -0.08096278 -0.08101152 -0.08106011 -0.08110903 -0.08115957 -0.08121175 -0.08126813 -0.08132882 -0.08139814 -0.08147617
 -0.08156329 -0.08165865 -0.08175573 -0.08185324 -0.08194155 -0.08202103 -0.08208689 -0.08214206 -0.0821895 -0.08223291
 -0.08227904 -0.08232876 -0.08238608 -0.08244818 -0.08251489 -0.08258185 -0.08264691 -0.08270797 -0.0827637 -0.08281466
 -0.08286073 -0.08290258 -0.08294028 -0.08297391 -0.08300341 -0.08303072 -0.08305602 -0.08308432 -0.08311582 -0.08315485
 -0.08320052 -0.08325129 -0.0833056 -0.0833578 -0.08340761 -0.08345126 -0.08349068 -0.0835267 -0.08356167 -0.08359814
 -0.08363747 -0.08368149 -0.08372991 -0.08378319 -0.08384025 -0.0839009 -0.08396411 -0.08402974 -0.08409659 -0.08416481
 -0.08423043 -0.08429329 -0.08434677 -0.08439065 -0.08442245 -0.084443 -0.08445869 -0.08447065 -0.08448818 -0.08451043
 -0.08454005 -0.08457483 -0.08461107 -0.0846486 -0.08468509 -0.08472234 -0.08476169 -0.08480336 -0.08484855 -0.08489469
 -0.0849408 -0.08498521 -0.0850267 -0.08506695 -0.08510602 -0.08514597 -0.08518732 -0.0852292 -0.08527165 -0.0853125
 -0.08535169 -0.08538877 -0.08542383 -0.08545776 -0.08549032 -0.08552087 -0.08554894 -0.08557232 -0.08559183 -0.08560744
 -0.08562151 -0.08563749 -0.08565667 -0.08568241 -0.08571239 -0.08574662 -0.08578093 -0.08581305 -0.08584183 -0.08586591
 -0.08588783 -0.08590784 -0.08592832 -0.08594988 -0.08597144 -0.08599305 -0.08601165 -0.08602709 -0.08603727 -0.0860424
 -0.08604327 -0.08604086 -0.08604005 -0.08604209 -0.08605394 -0.08607489 -0.08610775 -0.08614898 -0.08619463 -0.08624207
 -0.08628606 -0.08632915 -0.08637088 -0.08641609 -0.08646777 -0.08652587 -0.08659206 -0.08666033 -0.08673002 -0.08679457
 -0.08685291 -0.08690177 -0.08694065 -0.08697067 -0.086992 -0.08701115 -0.08702879 -0.08705438 -0.08708751 -0.08713186
 -0.08718501 -0.08724141 -0.08729926 -0.08735131 -0.08739897 -0.08744118 -0.08747973 -0.08751715 -0.08755124 -0.08758159
 -0.08760516 -0.0876191 -0.08762682 -0.08762784 -0.0876302 -0.08763588 -0.08764815 -0.08766823 -0.08769244 -0.08772058
 -0.08774997 -0.08778054 -0.08781377 -0.08784954 -0.0878873 -0.08792621 -0.08796135 -0.08799267 -0.08801693 -0.08803576
 -0.08805108 -0.08806438 -0.08807908 -0.08809485 -0.08811276 -0.08813178 -0.08815143 -0.08817124 -0.0881908 -0.08821023
 -0.0882293 -0.08824906 -0.0882696 -0.08829223 -0.08831723 -0.08834466 -0.08837466 -0.08840478 -0.0884349 -0.08846169
 -0.08848523 -0.088505 -0.0885217 -0.08853865 -0.08855642 -0.08857901 -0.08860536 -0.08863562 -0.08866733 -0.0886968
 -0.08872247 -0.08874082 -0.08875304 -0.08875831 -0.08876001 -0.08875944 -0.08875947 -0.08876178 -0.08876576 -0.08877216
 -0.08877639 -0.0887778 -0.08877388 -0.08876394 -0.08875442 -0.08874568 -0.08874775 -0.08876031 -0.0887841 -0.08881734
 -0.08885057 -0.08888363 -0.08891039 -0.08893354 -0.08895648 -0.0889804 -0.08901001 -0.08904123 -0.08907207 -0.08909744
 -0.08911223 -0.08911617 -0.08910672 -0.08908913 -0.08906394 -0.08903852 -0.08901436 -0.08899768 -0.08898974 -0.08899299
 -0.089008 -0.08903176 -0.08906411 -0.0890981 -0.08913337 -0.08916306 -0.08918765 -0.08920532 -0.08921847 -0.08923288
 -0.08925297 -0.08929054 -0.08935031 -0.0894447 -0.0895758 -0.08975115 -0.08996876 -0.09022978 -0.090531 -0.09087031
 -0.09124853 -0.0916651 -0.09212305 -0.09262392 -0.09316444 -0.09374608 -0.0943513 -0.09497968 -0.09560236 -0.09621758
 -0.09678345 -0.09729591 -0.09769643 -0.09798127 -0.09809668 -0.09804795 -0.09782108 -0.09743011 -0.09689157 -0.09623576
 -0.09550494 -0.09475295 -0.09405173 -0.09343939 -0.09297038 -0.09264671 -0.09248561 -0.0924707 -0.09260513 -0.09285162
 -0.09321175 -0.09360263 -0.09401702 -0.0943547 -0.09460323 -0.09474546 -0.09478052 -0.09475838 -0.09468001 -0.09457002
 -0.09442779 -0.09425955 -0.09407089 -0.09388475 -0.09370473 -0.09355451 -0.09342355 -0.09330832 -0.09319165 -0.09305187
 -0.09288312 -0.0926704 -0.09242602 -0.09214895 -0.09186365 -0.09157717 -0.09131168 -0.09107465 -0.09087282 -0.09070998
 -0.09057352 -0.09046341 -0.09035612 -0.0902504 -0.09013087 -0.08999848 -0.08985949 -0.0897164 -0.08958706 -0.08947097
 -0.089377 -0.08930071 -0.08923639 -0.08918042 -0.08912377 -0.08906717 -0.08900733 -0.08894781 -0.08889015 -0.08883742
 -0.08879188 -0.08875424 -0.08872595 -0.08870371 -0.08868802 -0.08867038 -0.08864982 -0.08861808 -0.08857384 -0.08851915
 -0.0884541 -0.0883928 -0.08833592 -0.08829663 -0.08827338 -0.08826491 -0.08826763 -0.08826786 -0.08826454 -0.08824721
 -0.08821987 -0.08818386 -0.08814414 -0.08810751 -0.08807452 -0.08804832 -0.0880263 -0.08800777 -0.08799115 -0.08797565
 -0.08796071 -0.0879464 -0.08793052 -0.08791284 -0.08789099 -0.08786459 -0.08783436 -0.08780033 -0.08776668 -0.0877337
 -0.08770632 -0.0876844 -0.08767 -0.08766185 -0.08765688 -0.08765323 -0.0876447 -0.08763107 -0.08760854 -0.08757942
 -0.08754484 -0.08750685 -0.08746789 -0.08742761 -0.08738625 -0.08734395 -0.0873 -0.08725821 -0.08721924 -0.0871869
 -0.08716251 -0.08714351 -0.08713016 -0.08711425 -0.08709535 -0.08706784 -0.08703203 -0.08699056 -0.08694471 -0.08690348
 -0.08686755 -0.08684461 -0.08683313 -0.08683409 -0.08684406 -0.08685814 -0.08687346 -0.08688439 -0.08689114 -0.08689176
 -0.08688831 -0.08688168 -0.08687241 -0.08686146 -0.08684638 -0.08682679 -0.08680064 -0.08676711 -0.08672858 -0.0866849
 -0.08664208 -0.08660045 -0.08656525 -0.08653636 -0.0865136 -0.08649597 -0.08647726 -0.0864568 -0.08642796 -0.08639253
 -0.08635057 -0.08630612 -0.08626605 -0.08623263 -0.08621227 -0.08620215 -0.08620307 -0.08620902 -0.08621711 -0.08622272
 -0.08622307 -0.08621767 -0.0862053 -0.08618984 -0.0861714 -0.08615565 -0.08614329 -0.0861366 -0.08613579 -0.08613635
 -0.08613782 -0.08613256 -0.0861207 -0.08609881 -0.08606815 -0.08603127 -0.08598955 -0.08594756 -0.08590615 -0.08586853
 -0.08583562 -0.08580954 -0.08579122 -0.08578259 -0.08578224 -0.08579096 -0.08580346 -0.08581855 -0.08582973 -0.08583479
 -0.08583165 -0.08581898 -0.0858015 -0.08577932 -0.08575974 -0.08574319 -0.0857328 -0.08572827 -0.08572563 -0.08572421
 -0.08571748 -0.08570585 -0.08568674 -0.08566215 -0.08563568 -0.08560897 -0.08558688 -0.08556876 -0.08555617 -0.08554689
 -0.08553965 -0.08553267 -0.0855248 -0.0855144 -0.08550074 -0.08548226 -0.08545787 -0.08542981 -0.08539755 -0.08536902
 -0.08534488 -0.08533262 -0.08533277 -0.08534352 -0.08536421 -0.08538442 -0.08540342 -0.08541099 -0.08540783 -0.08539055
 -0.08536136 -0.08532356 -0.08527996 -0.08523647 -0.0851956 -0.08516271 -0.08513879 -0.08512675 -0.08512548 -0.08513565
 -0.08515419 -0.0851807 -0.08521042 -0.08524261 -0.08527108 -0.0852949 -0.08530846 -0.08531084 -0.08530151 -0.08528032
 -0.0852532 -0.08522057 -0.0851901 -0.08516161 -0.08513796 -0.085118 -0.08509885 -0.0850797 -0.08505654 -0.08503062
 -0.0850016 -0.08497284 -0.08494812 -0.08493014 -0.08492325 -0.08492574 -0.0849392 -0.08495667 -0.08497636 -0.08499083
 -0.08499739 -0.08499368 -0.08497833 -0.0849546 -0.08492248 -0.08488731 -0.08484942 -0.08481386 -0.08478083 -0.08475417
 -0.08473386 -0.08472204 -0.08471813 -0.08472139 -0.08473044 -0.08474169 -0.08475345 -0.08476102 -0.08476384 -0.08475903
 -0.08474779 -0.08472957 -0.08470766 -0.08468338 -0.08466052 -0.08464105 -0.08462644 -0.08461819 -0.08461264 -0.08460987
 -0.08460327 -0.08459193 -0.08457354 -0.08454781 -0.08452045 -0.08449192 -0.08447068 -0.08445665 -0.08445368 -0.08446058
 -0.08447516 -0.08449554 -0.08451624 -0.08453502 -0.08454517 -0.08454603 -0.08453301 -0.08450968 -0.08447635 -0.08444012
 -0.0844051 -0.08437628 -0.08435747 -0.08434717 -0.0843465 -0.08434922 -0.08435468 -0.08435662 -0.08435415 -0.08434507
 -0.08432914 -0.08430886 -0.08428441 -0.0842596 -0.08423429 -0.08420935 -0.0841843 -0.08415749 -0.08412905 -0.08409817
 -0.08406599 -0.08403403 -0.08400358 -0.08397689 -0.08395451 -0.08393782 -0.08392638 -0.08392084 -0.08391893 -0.08392062
 -0.08392111 -0.08391948 -0.08391035 -0.08389226 -0.08386447 -0.08382631 -0.08378303 -0.08373488 -0.08368789 -0.08364215
 -0.08359899 -0.08355808 -0.0835178 -0.08347835 -0.08343965 -0.0834023 -0.08336804 -0.08333687 -0.08330962 -0.08328591
 -0.08326555 -0.08324827 -0.08323418 -0.08322168 -0.08321074 -0.08319675 -0.08317827 -0.0831501 -0.08310964 -0.08305837
 -0.08299507 -0.0829294 -0.08286209 -0.08280282 -0.08275239 -0.08271206 -0.08268154 -0.08265449 -0.08263045 -0.08260272
 -0.0825718 -0.08253595 -0.08249651 -0.08245605 -0.08241592 -0.0823799 -0.08234828 -0.08232351 -0.08230373 -0.08228886
 -0.08227491 -0.08225968 -0.08223956 -0.08221214 -0.08217718 -0.08213378 -0.08208416 -0.08202862 -0.08196862 -0.08190433
 -0.08183696 -0.0817665 -0.08169738 -0.08162999 -0.0815722 -0.08152408 -0.08149062 -0.08147011 -0.08145861 -0.08145343
 -0.08144503 -0.08143246 -0.08140899 -0.08137623 -0.08133342 -0.08128262 -0.08122505 -0.08116324 -0.08109813 -0.08103472
 -0.08097492 -0.08092362 -0.0808834 -0.08085272 -0.08083275 -0.08081423 -0.08079658 -0.08076855 -0.08072922 -0.08067482
 -0.08060566 -0.08052946 -0.08044738 -0.08037236 -0.08030394 -0.08024794 -0.08020113 -0.08015759 -0.08011498 -0.08006486
 -0.08000998 -0.07995 -0.07988913 -0.07983243 -0.0797781 -0.07972781 -0.07967447 -0.07961468 -0.07954694 -0.07946851
 -0.07938796 -0.07930613 -0.07923196 -0.07916721 -0.07911087 -0.07906318 -0.07901539 -0.07896724 -0.07891414 -0.07885711
 -0.07880209 -0.07875022 -0.07871065 -0.07868128 -0.07866279 -0.07864866 -0.07862709 -0.07859275 -0.07853132 -0.07844785
 -0.07833964 -0.07821964 -0.07809497 -0.07797519 -0.07786691 -0.07777146 -0.07769121 -0.07762188 -0.07756341 -0.07750972
 -0.07746019 -0.07740975 -0.07735794 -0.07730374 -0.07724733 -0.07719354 -0.07714249 -0.0770986 -0.07705979 -0.07701984
 -0.07697573 -0.07691411 -0.07683746 -0.0767426 -0.07663724 -0.07653069 -0.07642736 -0.07633543 -0.07625367 -0.07618445
 -0.07612282 -0.0760681 -0.07601274 -0.07595471 -0.07588744 -0.07580893 -0.07571825 -0.0756147 -0.07550205 -0.07538046
 -0.07525378 -0.0751223 -0.07499123 -0.07486121 -0.07473993 -0.07462735 -0.07452803 -0.07444011 -0.07436136 -0.07428849
 -0.07421467 -0.0741364 -0.07404578 -0.07394211 -0.07381997 -0.07368634 -0.07354218 -0.0734001 -0.07326613 -0.07314723
 -0.07304826 -0.07296422 -0.07289635 -0.07283021 -0.07276455 -0.07268453 -0.07258873 -0.0724745 -0.07234205 -0.07220066
 -0.07205036 -0.07189599 -0.07173571 -0.07156283 -0.07137782 -0.07117726 -0.07096571 -0.07075167 -0.07053551 -0.0703227
 -0.07010827 -0.06988798 -0.06966275 -0.06942894 -0.06919871 -0.06897587 -0.0687722 -0.06859337 -0.06843956 -0.06831357
 -0.06820209 -0.06810556 -0.06799552 -0.06787001 -0.06770421 -0.067498 -0.06726404 -0.06700524 -0.06675337 -0.06650724
 -0.06627849 -0.0660628 -0.06585312 -0.06564714 -0.06543659 -0.06522185 -0.06499962 -0.06477224 -0.06454052 -0.06430735
 -0.06407673 -0.06384377 -0.06361092 -0.06335873 -0.06308158 -0.06276651 -0.06240608 -0.06201972 -0.06160831 -0.06119546
 -0.06078381 -0.0603674 -0.05994586 -0.05950727 -0.0590531 -0.05859241 -0.05812618 -0.05766676 -0.05720774 -0.0567374
 -0.05624786 -0.05571327 -0.05514133 -0.05452855 -0.05389336 -0.05325509 -0.05261754 -0.05199038 -0.051368 -0.05074779
 -0.0501346 -0.04952786 -0.04893985 -0.04837613 -0.04782567 -0.04729269 -0.04671738 -0.04609582 -0.04537038 -0.04454087
 -0.04365627 -0.04272315 -0.04182727 -0.04096009 -0.04012559 -0.03931176 -0.03848286 -0.0376374 -0.03675623 -0.0358397
 -0.03488593 -0.03387938 -0.03281256 -0.0316473 -0.03035741 -0.02891205 -0.02727464 -0.02549535 -0.02356504 -0.02161284
 -0.01966413 -0.01780635 -0.01605878 -0.01442707 -0.01291514 -0.0114785 -0.01011338 -0.008723127 -0.007297675 -0.005691985
 -0.003919841 -0.001946766 0.0001577535 0.002183594 0.004118062 0.005810162 0.007339094 0.008758657 0.01012432 0.01152061
 0.0129445 0.01442119 0.01592978 0.01746413 0.01901804 0.02059387 0.0221611 0.02371651 0.02521912 0.02665854
 0.02805374 0.02940506 0.03074188 0.03206377 0.03331578 0.03449276 0.03551685 0.03639895 0.03714758 0.03778539
 0.03839073 0.03896729 0.03957101 0.04016824 0.04072797 0.0412398 0.04167093 0.04205489 0.04240982 0.04274487
 0.04307713 0.04337498 0.04363302 0.04382083 0.04392953 0.04394984 0.04387792 0.04372224 0.0434815 0.04319826
 0.04287498 0.04256812 0.04227597 0.04200379 0.04174544 0.04147119 0.04118154 0.04085986 0.04051612 0.04016137
 0.03980898 0.03948553 0.03919214 0.03894149 0.03872529 0.03853773 0.03838544 0.0382662 0.03820173 0.03820077
 0.03826739 0.03840662 0.03860106 0.03884814 0.03914239 0.03948254 0.03987913 0.04033257 0.04084783 0.04142396
 0.04205324 0.04273422 0.0434559 0.04421733 0.0450096 0.04583314 0.0466837 0.04756438 0.04847774 0.0494268
 0.05041635 0.05144566 0.05251667 0.05362465 0.05476912 0.05594143 0.0571398 0.05835309 0.05957965 0.06080619
 0.06203203 0.06323567 0.06441539 0.06555168 0.06664407 0.06770951 0.06875167 0.06982112 0.07091101 0.07202028
 0.07312348 0.07413212 0.07504287 0.07579836 0.07642441 0.0769399 0.07735299 0.07768382 0.07791987 0.07805832
 0.07808881 0.07801408 0.07779407 0.07743111 0.07682228 0.07593554 0.07475406 0.0732438 0.07166344 0.07003446
 0.06850632 0.06708405 0.06564524 0.06418417 0.06259707 0.06089335 0.05907089 0.0571377 0.05512945 0.05302271
 0.0507971 0.04839573 0.04569314 0.0427412 0.03947246 0.03618131 0.03308494 0.03029827 0.02799658 0.02595862
 0.0241442 0.02238518 0.02062041 0.01885242 0.01706889 0.01533287 0.01365097 0.0120287 0.01046601 0.008918507
 0.007385841 0.005846464 0.004308232 0.002801728 0.001334733 -4.714601E-05 -0.001350658 -0.002565412 -0.003708037 -0.004799484
 -0.00585166 -0.006882568 -0.007905798 -0.008928965 -0.009986766 -0.0110984 -0.0122876 -0.0135928 -0.01489951 -0.0162017
 -0.01732528 -0.01822552 -0.01895343 -0.01950405 -0.02002859 -0.02053417 -0.02108977 -0.02169038 -0.02230177 -0.02291571
 -0.02346515 -0.0239582 -0.02438661 -0.02476245 -0.02511528 -0.02543531 -0.02572541 -0.02596004 -0.02610907 -0.02616678
 -0.02611428 -0.0259704 -0.02573952 -0.02543826 -0.02507479 -0.02465239 -0.02417707 -0.02362742 -0.02300644 -0.02225019
 -0.02135318 -0.02026215 -0.01897521 -0.01758979 -0.01611849 -0.01474685 -0.01346927 -0.01235078 -0.01137303 -0.01050465
 -0.009742066 -0.009063751 -0.008468393 -0.007954312 -0.007493692 -0.007065191 -0.006618667 -0.00610261 -0.005511688 -0.004811199
 -0.004081586 -0.003346576 -0.002651799 -0.002021451 -0.001422376 -0.0008538316 -0.0002782221 0.0003092188 0.0009127839 0.001532754
 0.002145779 0.00275112 0.003330698 0.003889065 0.004439358 0.004992652 0.00559342 0.006249622 0.00700724 0.007853039
 0.008789291 0.009793838 0.01083773 0.01192319 0.01304118 0.01420265 0.01541695 0.0166688 0.01795929 0.01925495
 0.02054602 0.02182175 0.02307603 0.02433214 0.02559233 0.02686777 0.02815891 0.02940414 0.0305971 0.03163912
 0.03253083 0.03322607 0.03372986 0.0340392 0.0341486 0.03404561 0.03371973 0.03314428 0.03232556 0.03125197
 0.02995766 0.02845882 0.02680147 0.02501394 0.02312366 0.02114748 0.01909244 0.01695645 0.01477808 0.01255424
 0.01038564 0.008281024 0.006319914 0.004506942 0.002826743 0.001275416 -0.0002040196 -0.001609865 -0.002962344 -0.004252786
 -0.005458458 -0.00657947 -0.007600626 -0.008536079 -0.009400735 -0.01020959 -0.01098541 -0.01173621 -0.01247522 -0.01320588
 -0.01393365 -0.01465818 -0.0153816 -0.01609767 -0.01680546 -0.01749901 -0.01817641 -0.01884115 -0.01949335 -0.02013771
 -0.02077451 -0.0213907 -0.02198429 -0.02252499 -0.02301252 -0.02342818 -0.02377671 -0.02406501 -0.02429751 -0.0244888
 -0.02463887 -0.02475449 -0.02483325 -0.02487436 -0.02487748 -0.02483907 -0.02476943 -0.0246683 -0.02456199 -0.02445731
 -0.02438468 -0.02435382 -0.02437755 -0.02446129 -0.02459472 -0.02477817 -0.02499072 -0.02523118 -0.02548502 -0.02575204
 -0.02602752 -0.0263108 -0.02659666 -0.02688164 -0.02715099 -0.02740079 -0.02761306 -0.02778919 -0.02792162 -0.02801815
 -0.0280845 -0.02812782 -0.02815677 -0.0281715 -0.02817531 -0.02816335 -0.02813401 -0.02808584 -0.02801654 -0.02793492
 -0.0278408 -0.02775098 -0.02766698 -0.02760256 -0.02755863 -0.02753762 -0.027539 -0.02755556 -0.02758646 -0.02762278
 -0.02766463 -0.02770684 -0.02775186 -0.02780204 -0.02786197 -0.02794083 -0.02804025 -0.02816776 -0.02831687 -0.02848681
 -0.02866549 -0.02884621 -0.0290206 -0.0291833 -0.02933346 -0.02946934 -0.02959476 -0.02970978 -0.02981985 -0.02992541
 -0.03003197 -0.03013988 -0.03025177 -0.03036735 -0.03048297 -0.03059721 -0.03069976 -0.03078873 -0.03085141 -0.03088713
 -0.03088725 -0.03085376 -0.03078544 -0.03068639 -0.0305601 -0.03041224 -0.03024766 -0.03007278 -0.02989223 -0.02971032
 -0.02952997 -0.02935204 -0.02917723 -0.02900568 -0.02883733 -0.02867375 -0.02851526 -0.02836104 -0.02821112 -0.0280581
 -0.02790122 -0.02772763 -0.02753651 -0.02731455 -0.02706439 -0.02678475 -0.02648757 -0.02619763 -0.02593456 -0.02574427
 -0.02563546 -0.02564386 -0.02574784 -0.0259493 -0.02620241 -0.02648405 -0.02675553 -0.02699409 -0.02719097 -0.02733712
 -0.02744657 -0.02752021 -0.02757131 -0.02760204 -0.02761219 -0.02760194 -0.02756241 -0.02749296 -0.02738348 -0.02723253
 -0.02702579 -0.02676207 -0.02642493 -0.02602348 -0.0255635 -0.02507547 -0.02460851 -0.0242016 -0.02392634 -0.02378848
 -0.02383148 -0.02399968 -0.02428386 -0.02459983 -0.02491004 -0.02517267 -0.02536107 -0.0255045 -0.02559999 -0.02570581
 -0.02582905 -0.02599502 -0.0262063 -0.02643366 -0.02667391 -0.02686989 -0.02702101 -0.02709098 -0.0270907 -0.02703913
 -0.02695488 -0.026897 -0.02687117 -0.0269212 -0.02702581 -0.02718002 -0.0273533 -0.02751498 -0.02765661 -0.02776066
 -0.02784284 -0.02790651 -0.02796045 -0.02801164 -0.02804296 -0.02805433 -0.02801805 -0.02793063 -0.02777922 -0.02756254
 -0.02729049 -0.02696434 -0.02660671 -0.02621892 -0.02582123 -0.025413 -0.02500331 -0.02458924 -0.02416789 -0.02373691
 -0.02328927 -0.02282808 -0.02235211 -0.02187141 -0.02139305 -0.02092762 -0.02048382 -0.02006532 -0.01967623 -0.01931445
 -0.01898044 -0.01867058 -0.01838483 -0.01811682 -0.01786598 -0.01762603 -0.0173964 -0.01718023 -0.01697803 -0.016801
 -0.01664816 -0.0165205 -0.01641211 -0.01630124 -0.0161803 -0.01601731 -0.01581138 -0.01554344 -0.01522329 -0.01485379
 -0.01444886 -0.01402237 -0.01358027 -0.01313137 -0.01267193 -0.01220152 -0.01172003 -0.01122483 -0.01072955 -0.01023493
 -0.009760589 -0.009308965 -0.008891302 -0.008508757 -0.008155475 -0.007830298 -0.007511016 -0.007196043 -0.006862004 -0.006511341
 -0.006140301 -0.00575472 -0.005369207 -0.004984955 -0.004611997 -0.00424632 -0.003885724 -0.003530073 -0.003178083 -0.002831471
 -0.002493252 -0.002155887 -0.001818064 -0.001469327 -0.001104572 -0.000727854 -0.0003380434 5.229519E-05 0.000441026 0.0008289242
 0.00121555 0.001618482 0.002038558 0.002492139 0.002977881 0.003494851 0.004038922 0.004592945 0.005153458 0.005702219
 0.006238786 0.006755201 0.007248988 0.007717066 0.008148063 0.008534328 0.008856937 0.009103775 0.009257956 0.009308306
 0.009251557 0.009079836 0.008818348 0.008465066 0.008077307 0.007659288 0.007275217 0.006929832 0.006659871 0.006465879
 0.00635178 0.006316056 0.006349622 0.006451858 0.006615286 0.006840712 0.007126009 0.007473359 0.007886413 0.008365151
 0.008913957 0.009523382 0.01019125 0.01089479 0.01162563 0.0123464 0.01304713 0.01367227 0.01421024 0.01459429
 0.01481077 0.01481259 0.01458886 0.01415269 0.01350224 0.01272347 0.01182249 0.01091919 0.01001695 0.009200159
 0.008460952 0.007812488 0.007242946 0.006725125 0.006256164 0.005817486 0.005411924 0.005038115 0.004691966 0.004371311
 0.00406668 0.00377147 0.003480255 0.003189282 0.002895849 0.002599144 0.00229441 0.001980439 0.001655399 0.001318472
 0.0009742572 0.0006230637 0.0002676737 -9.233492E-05 -0.000466514 -0.0008575132 -0.001289729 -0.001766345 -0.002315621 -0.002935536
 -0.003638017 -0.004412434 -0.005246052 -0.00612554 -0.007028301 -0.007945734 -0.008862475 -0.00977418 -0.01067433 -0.01156006
 -0.01242901 -0.01327881 -0.01410924 -0.01491437 -0.01569378 -0.01643803 -0.01714548 -0.01781468 -0.01844514 -0.01904607
 -0.01961769 -0.02016317 -0.02068107 -0.02116084 -0.02160191 -0.02199501 -0.02234305 -0.02264893 -0.02291684 -0.02315546
 -0.02336926 -0.02356685 -0.02375353 -0.02393799 -0.02412036 -0.02430539 -0.02448388 -0.02465354 -0.02480487 -0.02493351
 -0.02503952 -0.02512144 -0.02518574 -0.02523284 -0.02526968 -0.02529675 -0.02532034 -0.02534062 -0.02535982 -0.02537726
 -0.02538851 -0.02539266 -0.02538291 -0.02535976 -0.02532049 -0.02526753 -0.02520357 -0.02513246 -0.02506039 -0.02499018
 -0.02492802 -0.02487057 -0.02481915 -0.02476459 -0.02470307 -0.02462871 -0.02453771 -0.02443371 -0.02431637 -0.02419241
 -0.0240629 -0.02392953 -0.02379256 -0.02365011 -0.02350232 -0.02335321 -0.02320417 -0.02306881 -0.02294814 -0.02285522
 -0.02278722 -0.02274374 -0.02271923 -0.02270203 -0.02269007 -0.02267466 -0.02265886 -0.02264336 -0.02262842 -0.0226167
 -0.02259989 -0.02257594 -0.02253473 -0.02247172 -0.0223862 -0.0222759 -0.02215094 -0.02201218 -0.02186918 -0.02172303
 -0.02157184 -0.02141528 -0.02124313 -0.0210554 -0.02084719 -0.02062031 -0.02037993 -0.02012893 -0.01987728 -0.0196294
 -0.01939757 -0.01918769 -0.01901415 -0.0188768 -0.01878434 -0.01872277 -0.01868877 -0.01865971 -0.01862555 -0.01856798
 -0.01847861 -0.0183514 -0.01818201 -0.01797977 -0.01774363 -0.01749849 -0.01724582 -0.01701242 -0.01679921 -0.01661528
 -0.0164589 -0.01631913 -0.01619356 -0.01606557 -0.01593375 -0.01578551 -0.01562058 -0.01543127 -0.01522106 -0.01498927
 -0.0147461 -0.01449994 -0.0142621 -0.01404408 -0.01384675 -0.01367609 -0.01351913 -0.01337446 -0.01322538 -0.01306814
 -0.01289281 -0.01269723 -0.01247954 -0.01223917 -0.01198071 -0.0117046 -0.01142241 -0.01113522 -0.01085805 -0.01059099
 -0.01034321 -0.01011245 -0.009897088 -0.009694223 -0.009496839 -0.009304156 -0.009111231 -0.008920911 -0.008733643 -0.008553782
 -0.008385506 -0.008227649 -0.008083216 -0.007940245 -0.00779699 -0.007637767 -0.007458083 -0.007253867 -0.007022642 -0.006776536
 -0.006515991 -0.006257988 -0.006003141 -0.005756989 -0.005518386 -0.00527808 -0.005036179 -0.004785966 -0.004533479 -0.004293258
 -0.004071293 -0.003891301 -0.003744205 -0.003632057 -0.003531106 -0.003418187 -0.003277959 -0.003088643 -0.002859173 -0.002585338
 -0.002289163 -0.001975763 -0.001665345 -0.001362688 -0.001082177 -0.0008270239 -0.0005993951 -0.0004003647 -0.000215814 -4.501704E-05
 0.0001274513 0.0003006895 0.000472507 0.0006403818 0.0007893431 0.0009208618 0.001029157 0.001122714 0.001215282 0.001316383
 0.001447729 0.001608335 0.00180851 0.00203402 0.002279307 0.0025294 0.002774799 0.003011117 0.003234498 0.003446475
 0.003646503 0.003837703 0.004019743 0.004201437 0.004383376 0.004574488 0.004774986 0.004980899 0.005190845 0.005389894
 0.005576765 0.005736987 0.005870949 0.005970368 0.006040719 0.006086619 0.006120263 0.006161933 0.006218364 0.006307765
 0.006419579 0.006552993 0.006694749 0.006835466 0.006978435 0.007122232 0.007274 0.00743687 0.007604131 0.007775631
 0.007942291 0.008103118 0.00825732 0.008404767 0.008541909 0.008668402 0.008778022 0.008872727 0.008958678 0.009039226
 0.009128632 0.009227747 0.009344815 0.009480438 0.009638546 0.009820476 0.01003059 0.01026446 0.01052241 0.01079344
 0.01107344 0.0113506 0.01162049 0.01187448 0.01210867 0.01232579 0.01252378 0.01272368 0.01292683 0.013154
 0.01340592 0.01367904 0.0139712 0.01425898 0.01454029 0.01479166 0.01501389 0.01519538 0.0153423 0.0154608
 0.01555984 0.01565783 0.01575342 0.01585615 0.01594965 0.01602434 0.01607083 0.01607692 0.01605912 0.01601708
 0.01598027 0.01595471 0.0159629 0.01600956 0.01610208 0.0162426 0.01641437 0.01661636 0.01681461 0.01700887
 0.01718351 0.01734225 0.01749775 0.01765067 0.01781039 0.017974 0.018138 0.01830437 0.01847478 0.01865073
 0.01883504 0.01902646 0.01921898 0.01943251 0.01966934 0.01996902 0.02035661 0.0208041 0.02132114 0.02180758
 0.0222439 0.0226178 0.02292374 0.02321391 0.02349047 0.02376801 0.02404337 0.02428566 0.02449218 0.02463113
 0.02470615 0.02471141 0.02465395 0.02454513 0.02439321 0.02421606 0.02401748 0.02380959 0.02358867 0.02335443
 0.02310766 0.02284604 0.0225809 0.02231404 0.02206065 0.02182262 0.02162106 0.0214586 0.02135645 0.02131807
 0.02133404 0.0214037 0.02148499 0.02157694 0.02165352 0.02171916 0.02178712 0.02185697 0.0219404 0.02202019
 0.02206628 0.02205783 0.02194217 0.02172877 0.02139508 0.02099516 0.02055471 0.02013855 0.01979188 0.01953011
 0.01937791 0.01928955 0.01926011 0.01924454 0.01923198 0.0192252 0.019223 0.01924006 0.01927691 0.01931896
 0.01936484 0.01939329 0.01940531 0.01939531 0.01936589 0.01932007 0.01926569 0.01921922 0.01919319 0.0192165
 0.01929059 0.01943176 0.0196256 0.01986787 0.02014205 0.02044087 0.02074534 0.02105156 0.02132811 0.02156752
 0.02174567 0.02185492 0.02190593 0.02189721 0.02186703 0.02181746 0.02179371 0.02179719 0.02186138 0.02198075
 0.02214554 0.02234155 0.02251266 0.02265478 0.0227246 0.02274084 0.02271419 0.02266121 0.02261016 0.02255189
 0.0224901 0.02240897 0.02229764 0.02215954 0.02198986 0.02181013 0.02162266 0.02145501 0.02131337 0.02120331
 0.02112875 0.02104573 0.02095199 0.02079358 0.02057353 0.02031057 0.02001907 0.019794 0.0196405 0.01963635
 0.01975596 0.01998767 0.02028399 0.02056384 0.02079547 0.02090111 0.0209041 0.0207846 0.02061341 0.02042314
 0.02026139 0.02016246 0.02010323 0.02008819 0.02006998 0.02003944 0.01998431 0.01990135 0.01980458 0.01969462
 0.01957897 0.01945668 0.01931809 0.01916002 0.01895763 0.01871098 0.01840065 0.01804311 0.01766253 0.01728505
 0.01697004 0.01671552 0.01655137 0.01643985 0.01636203 0.01628605 0.01618502 0.01606083 0.01590453 0.01574002
 0.0155703 0.01542032 0.01529532 0.01520398 0.01514876 0.01511531 0.01510294</values></Ydata></AB><ScSm><Ydata ylabel="Single channel"><values byteorder="INTEL" format="FLOAT32" numvalues="1814"> 0.07517499 0.07517384 0.07524344 0.07541622 0.07566046 0.07589632 0.07605584 0.07613061 0.07614935 0.07612193
 0.0760472 0.0759767 0.07601237 0.07620668 0.07648814 0.07670704 0.07675862 0.07667915 0.07662456 0.07671515
 0.07687471 0.0768569 0.0764785 0.07582767 0.0752037 0.07484072 0.07476307 0.07495905 0.07552609 0.07639764
 0.07703786 0.07682573 0.0758367 0.07487519 0.07458097 0.07481553 0.07504208 0.07494709 0.07453303 0.07399098
 0.07375804 0.07440642 0.0760822 0.07803521 0.07888745 0.0775058 0.07381158 0.0690342 0.06525272 0.06428034
 0.06639144 0.06995847 0.07267366 0.07338859 0.07266599 0.07161635 0.07069692 0.06985421 0.06930525 0.06958173
 0.07079861 0.07215874 0.07237096 0.07076196 0.068077 0.06594095 0.06537322 0.06615697 0.06771955 0.06975684
 0.07134391 0.07042772 0.06584495 0.05988126 0.05725674 0.06063978 0.06779973 0.07378531 0.07533138 0.07270253
 0.06826359 0.06451279 0.06313191 0.0645407 0.0678293 0.07150821 0.07440494 0.07572462 0.07485729 0.07190512
 0.06819943 0.06566057 0.06562176 0.06830077 0.07275026 0.07695083 0.07873224 0.07737066 0.07406501 0.07067144
 0.06848604 0.06824711 0.07031114 0.07428676 0.0790107 0.08322068 0.08606997 0.08721717 0.08690041 0.08578499
 0.0844564 0.08332174 0.08295959 0.08376456 0.08501478 0.08514583 0.08345053 0.08101814 0.07960941 0.07983556
 0.08067504 0.08072186 0.07960989 0.07778686 0.07512692 0.07089666 0.06543881 0.06063092 0.05801047 0.05759615
 0.05899728 0.06202207 0.06537892 0.06660289 0.06476299 0.06218245 0.06214 0.06536781 0.06967644 0.07261424
 0.0737341 0.07440905 0.07607464 0.078769 0.08095515 0.08067818 0.0774973 0.07357727 0.0721587 0.07437617
 0.07816616 0.08080691 0.08179015 0.08252676 0.08387879 0.08482568 0.08353136 0.07953084 0.0749051 0.07299509
 0.07548772 0.0807211 0.0848906 0.08486822 0.08030815 0.07371333 0.06848201 0.06655949 0.06792668 0.07190157
 0.07788833 0.08468632 0.09017802 0.092522 0.0914987 0.08839713 0.08454105 0.08006638 0.07462819 0.06943975
 0.06751791 0.07083365 0.07779712 0.0845819 0.08853526 0.08950321 0.08835727 0.0853694 0.08044111 0.07465024
 0.07076462 0.07110088 0.07473283 0.07800801 0.0783673 0.07668083 0.07537764 0.07542171 0.07594499 0.07609797
 0.07625849 0.07737339 0.07959406 0.0819058 0.08310802 0.08291171 0.08199216 0.08120412 0.08080612 0.0802762
 0.0790434 0.07761563 0.07752524 0.07965407 0.08302597 0.08581097 0.08716185 0.08752605 0.0874299 0.08654749
 0.08417758 0.08057369 0.07748222 0.07684891 0.07894053 0.08218174 0.08479472 0.08607456 0.08621889 0.08568791
 0.08489141 0.08405394 0.08328519 0.08287567 0.08322433 0.0842784 0.08539788 0.08599699 0.08602881 0.08570864
 0.08509558 0.08415884 0.08307056 0.08222911 0.08197794 0.0823455 0.08307435 0.08385094 0.08442792 0.08459985
 0.08427501 0.0836129 0.08292355 0.08238844 0.08200873 0.08180673 0.08188507 0.08224134 0.08267723 0.08296572
 0.08303051 0.08292477 0.08271085 0.08241462 0.08206148 0.08171779 0.08149187 0.08146748 0.08160799 0.0817702
 0.08186276 0.08193643 0.08205067 0.08212121 0.08200517 0.08170117 0.08136871 0.08116144 0.08110711 0.08113576
 0.08115255 0.0810598 0.08076689 0.0802673 0.07972647 0.07941376 0.0794858 0.07987207 0.08038597 0.08086845
 0.08120943 0.08134854 0.0813196 0.08122223 0.08110664 0.0809353 0.08067518 0.08038969 0.08022455 0.08029966
 0.08059788 0.08096847 0.08125548 0.08139995 0.08142513 0.08139402 0.08139294 0.08147052 0.08156571 0.08156592
 0.08145432 0.08134043 0.08133147 0.08141594 0.08148539 0.08145495 0.08135779 0.08131183 0.08138967 0.08154733
 0.08169405 0.08179687 0.08189091 0.08200634 0.0821071 0.08211131 0.08198506 0.0818034 0.08168226 0.08165774
 0.0816803 0.08172012 0.08181171 0.08197784 0.08216308 0.08227985 0.08230208 0.08228532 0.08229165 0.08231432
 0.08229396 0.08219957 0.08206932 0.08197019 0.08193882 0.08196524 0.08201375 0.08204709 0.0820398 0.08198409
 0.08189176 0.08178557 0.08168203 0.08158909 0.08152831 0.08153985 0.08163652 0.08175702 0.08179571 0.08169505
 0.0815018 0.08132292 0.08122517 0.08118154 0.08111656 0.0809935 0.08084375 0.08072023 0.08064567 0.08060633
 0.08057366 0.08052789 0.08048155 0.08048572 0.08058873 0.08077096 0.08093667 0.08099464 0.08094354 0.08086292
 0.08082972 0.08086203 0.08093199 0.0810072 0.08108205 0.08118059 0.08131929 0.08146454 0.08155684 0.08158574
 0.08160679 0.0816773 0.08181176 0.08199981 0.08221611 0.08240446 0.08250862 0.08254026 0.08257648 0.08267348
 0.08281584 0.08296169 0.08310006 0.08324435 0.08339895 0.08356108 0.08374558 0.08398494 0.08429904 0.08467007
 0.08504517 0.08536716 0.08561822 0.08584295 0.08611895 0.08649141 0.08693353 0.08737177 0.0877492 0.08806656
 0.08836472 0.08867241 0.08898434 0.08929678 0.08963984 0.09004606 0.09049946 0.09094855 0.09136593 0.09176657
 0.0921707 0.09257825 0.09298393 0.0933969 0.09383664 0.09431218 0.09480341 0.09526451 0.09565786 0.09598874
 0.09630316 0.0966547 0.09707043 0.0975282 0.09795722 0.09828857 0.09853007 0.09877047 0.09908347 0.09944579
 0.09978294 0.1000805 0.100405 0.1008108 0.1012656 0.1016902 0.1020496 0.1023786 0.1027271 0.1030979
 0.1034416 0.1037078 0.1038972 0.1040614 0.1042529 0.1044915 0.1047852 0.1051555 0.1056073 0.1060899
 0.1065233 0.1068618 0.107111 0.1073005 0.1074679 0.1076525 0.1078721 0.108112 0.108352 0.1085823
 0.1087852 0.1089395 0.1090654 0.1092269 0.1094668 0.1097683 0.1101027 0.1104747 0.1108896 0.1113119
 0.1117021 0.1120812 0.1125077 0.1129836 0.1134284 0.1137634 0.1139884 0.1141537 0.1142977 0.1144485
 0.114656 0.1149686 0.1153792 0.115829 0.1162656 0.1166755 0.117065 0.1174319 0.1177602 0.118032
 0.1182402 0.1183942 0.1185212 0.1186638 0.1188658 0.1191412 0.1194536 0.1197389 0.1199528 0.1200821
 0.1201164 0.1200441 0.1198922 0.1197397 0.1196517 0.1196018 0.1194841 0.1192028 0.1187326 0.118099
 0.1173308 0.1164512 0.1155068 0.1145853 0.1137925 0.1132106 0.112882 0.1128308 0.1130769 0.113606
 0.114331 0.1151085 0.1158003 0.1163033 0.1165287 0.116398 0.1158933 0.1150966 0.114155 0.1132062
 0.112336 0.1115747 0.1109115 0.1103387 0.1099136 0.1097771 0.1100925 0.1109583 0.1123635 0.1141898
 0.1162376 0.1182777 0.1201281 0.1217142 0.1230651 0.1242509 0.1253276 0.1263332 0.1273051 0.1282653
 0.1291918 0.1300347 0.1307699 0.1314169 0.1320046 0.1325384 0.1330008 0.133368 0.1336308 0.1338115
 0.1339513 0.1340731 0.1341722 0.1342505 0.1343338 0.1344371 0.1345261 0.1345274 0.134373 0.134043
 0.1335979 0.1331964 0.1330741 0.1334649 0.1344895 0.1360826 0.1380247 0.1400581 0.1419847 0.1436804
 0.1450747 0.1461564 0.1469839 0.147653 0.1482434 0.1487991 0.1493418 0.1498799 0.1504086 0.1509182
 0.1514072 0.1518856 0.1523674 0.1528587 0.1533462 0.153805 0.1542248 0.1546276 0.1550542 0.1555272
 0.1560312 0.1565277 0.1569937 0.1574382 0.1578772 0.1583006 0.1586831 0.1590231 0.159353 0.159711
 0.1601177 0.160573 0.1610494 0.1614959 0.161872 0.1621843 0.1624752 0.1627796 0.1631029 0.163437
 0.1637775 0.1641221 0.1644664 0.1648114 0.1651678 0.1655415 0.1659136 0.1662487 0.1665315 0.1667881
 0.1670618 0.1673705 0.1676939 0.1679998 0.1682811 0.1685679 0.1688997 0.1692819 0.169672 0.1700159
 0.1702956 0.1705383 0.1707849 0.1710578 0.1713575 0.1716748 0.1719996 0.1723223 0.1726355 0.1729382
 0.1732382 0.1735474 0.1738724 0.1742074 0.1745361 0.1748449 0.175134 0.175414 0.1756982 0.1760011
 0.1763367 0.1767044 0.177077 0.1774148 0.1776971 0.1779352 0.1781573 0.1783887 0.1786434 0.1789224
 0.1792164 0.1795142 0.1798124 0.1801144 0.1804219 0.1807309 0.181037 0.1813395 0.1816387 0.1819347
 0.1822318 0.1825394 0.1828627 0.1831931 0.1835146 0.183818 0.1841066 0.1843888 0.1846719 0.1849571
 0.1852391 0.1855131 0.1857826 0.186058 0.1863446 0.1866376 0.1869276 0.1872075 0.1874743 0.1877313
 0.1879879 0.1882531 0.1885291 0.1888123 0.1890978 0.1893829 0.1896656 0.1899427 0.1902114 0.1904751
 0.1907433 0.1910222 0.1913088 0.1915969 0.1918835 0.1921685 0.1924492 0.1927207 0.1929805 0.1932344
 0.193493 0.1937613 0.1940361 0.194313 0.1945919 0.1948717 0.1951494 0.1954256 0.1957031 0.1959811
 0.1962576 0.1965341 0.1968132 0.1970948 0.1973785 0.1976646 0.1979517 0.1982392 0.198527 0.1988131
 0.1990951 0.1993743 0.199652 0.1999259 0.2001958 0.2004654 0.2007318 0.200985 0.2012215 0.2014512
 0.2016875 0.2019382 0.2022029 0.2024738 0.2027427 0.2030109 0.2032852 0.2035672 0.2038545 0.204145
 0.2044343 0.2047171 0.204993 0.2052647 0.2055335 0.2058016 0.2060718 0.2063422 0.2066123 0.2068902
 0.2071812 0.2074765 0.2077651 0.208045 0.2083183 0.2085875 0.2088591 0.2091379 0.2094211 0.2097039
 0.2099839 0.2102576 0.210526 0.2107981 0.2110786 0.2113609 0.2116411 0.2119208 0.2121948 0.2124553
 0.2127064 0.2129578 0.2132151 0.2134824 0.2137595 0.2140342 0.2142999 0.214571 0.21486 0.2151549
 0.2154395 0.2157135 0.2159856 0.2162635 0.2165494 0.2168309 0.2170916 0.2173339 0.2175695 0.2177874
 0.2179356 0.217872 0.2172368 0.2153234 0.211078 0.2033259 0.191249 0.1749121 0.1554199 0.1345182
 0.1139586 0.09505893 0.07858691 0.06486656 0.0539508 0.04573663 0.04003519 0.0366849 0.03567299 0.03726101
 0.04211673 0.0509184 0.06287147 0.07439181 0.08049425 0.07872446 0.07150629 0.06393464 0.05953952 0.05857071
 0.0595108 0.06105959 0.06280755 0.06500218 0.06806241 0.072108 0.07694033 0.08254845 0.08935687 0.09768477
 0.1070945 0.1165728 0.125405 0.1337399 0.1422521 0.151339 0.1607078 0.1696604 0.1776477 0.1845521
 0.1905934 0.196079 0.2012235 0.2061199 0.2107992 0.2152374 0.2192704 0.2225604 0.2247524 0.225738
 0.2257845 0.2253926 0.2250104 0.2248566 0.224959 0.2252803 0.2257866 0.2264508 0.2272475 0.2281464
 0.229109 0.2301 0.2310983 0.2320857 0.2330371 0.2339285 0.2347453 0.2354798 0.2361326 0.2367176
 0.2372539 0.2377563 0.2382333 0.2386868 0.2391109 0.239503 0.2398729 0.2402314 0.2405764 0.2408981
 0.2411933 0.2414669 0.2417263 0.2419778 0.2422225 0.2424582 0.2426854 0.24291 0.2431365 0.2433666
 0.2436022 0.2438425 0.2440805 0.2443094 0.2445297 0.2447448 0.2449566 0.245168 0.2453842 0.2456071
 0.2458343 0.2460632 0.2462917 0.2465163 0.246734 0.2469446 0.2471518 0.2473623 0.2475813 0.2478064
 0.2480347 0.2482729 0.2485284 0.2487922 0.2490476 0.2492925 0.2495368 0.2497849 0.250035 0.2502833
 0.250517 0.2507156 0.2508757 0.2510258 0.2512087 0.2514465 0.2517234 0.2519993 0.2522463 0.2524704
 0.2526944 0.2529292 0.2531651 0.2533821 0.2535712 0.2537543 0.2539723 0.2542392 0.2545303 0.254823
 0.2551194 0.2554207 0.255718 0.2560118 0.2562997 0.2565477 0.256718 0.2568342 0.2569885 0.25727
 0.2576811 0.2581286 0.2585105 0.2588071 0.2590695 0.2593469 0.2596549 0.2599652 0.260176 0.2601787
 0.260036 0.2600165 0.2603512 0.2609999 0.2617219 0.2623206 0.2627606 0.2631028 0.2634013 0.2636514
 0.2637979 0.2637975 0.2637101 0.2637267 0.2640408 0.2646495 0.2653387 0.2659027 0.2663041 0.2665954
 0.2668124 0.2669808 0.2670721 0.2669219 0.2664056 0.2657781 0.2656179 0.2662665 0.2674404 0.2685342
 0.2692181 0.2696052 0.2699147 0.2702005 0.270418 0.2704684 0.2700542 0.2688501 0.2671317 0.2659574
 0.266291 0.2680275 0.2701678 0.2718188 0.2727601 0.2732211 0.2734891 0.2737168 0.2738101 0.2734382
 0.2724 0.2711115 0.2705032 0.2711638 0.2726816 0.2740862 0.2748384 0.2751194 0.2753177 0.2755911
 0.2757592 0.2752517 0.2734351 0.270551 0.268185 0.2681499 0.2707089 0.2742549 0.2769017 0.2781067
 0.2785172 0.2785749 0.2778701 0.2758818 0.2727658 0.2692877 0.2665643 0.2658933 0.2678993 0.2714751
 0.2744128 0.2755793 0.2758721 0.276749 0.2784894 0.2802181 0.2810401 0.2807249 0.2795434 0.2777825
 0.2756149 0.273551 0.2727055 0.274011 0.2770902 0.2803885 0.2826075 0.2836881 0.2841369 0.2835138
 0.2801278 0.2730694 0.2647536 0.2602562 0.2628378 0.2705351 0.2782702 0.2828467 0.2847066 0.2855453
 0.2860319 0.2856209 0.2828861 0.2763162 0.2667128 0.2586673 0.2574463 0.2637838 0.2730501 0.279567
 0.2804592 0.2759412 0.268307 0.2612605 0.2584024 0.2610423 0.2676257 0.2752752 0.2815194 0.2849648
 0.2852772 0.283058 0.2798134 0.2775883 0.277482 0.2780347 0.2763419 0.2717246 0.2668542 0.2638321
 0.2609501 0.2558616 0.2507206 0.2507523 0.2574489 0.2660642 0.2709399 0.2712357 0.2699241 0.2684081
 0.2641653 0.2544053 0.2413529 0.2323674 0.2335013 0.2432156 0.2537475 0.2587045 0.2581504 0.2563506
 0.2560827 0.255801 0.2518187 0.2431053 0.2337427 0.2295099 0.2317589 0.2362067 0.2380241 0.2357219
 0.229519 0.2197576 0.2095853 0.205974 0.2138565 0.2300937 0.2459254 0.2541956 0.2520148 0.2392075
 0.2192336 0.2011863 0.1953874 0.2041804 0.2190839 0.2285789 0.2272672 0.2168748 0.2012949 0.1838681
 0.1688673 0.1620423 0.1671826 0.1822253 0.1993564 0.2089642 0.2049718 0.1895056 0.1731693 0.1674375
 0.1743062 0.1849622 0.1896463 0.1864846 0.1801634 0.1758344 0.1760936 0.1805585 0.186317 0.1906387
 0.1931628 0.1929736 0.185689 0.1687672 0.1486793 0.1366723 0.1370703 0.1450665 0.1557357 0.1684366
 0.1809309 0.1863829 0.181076 0.1714625 0.1686534 0.1766146 0.188762 0.1959793 0.1956249 0.1920059
 0.1897404 0.1888385 0.1869946 0.1849159 0.1865359 0.1935614 0.2024627 0.2084013 0.2102716 0.2102655
 0.2101611 0.2099785 0.2092447 0.2078038 0.2057324 0.2034532 0.2016075 0.2003379 0.1991656 0.1977252
 0.1957485 0.1919954 0.1845319 0.1734749 0.1627237 0.1569 0.1564874 0.1581119 0.1595819 0.1612071
 0.1611179 0.1538994 0.1377556 0.1204192 0.1135253 0.1213737 0.1377358 0.1529414 0.1612228 0.1611852
 0.1529972 0.1388023 0.1252778 0.1214985 0.1314615 0.1502186 0.1691951 0.183585 0.192779 0.196218
 0.1926732 0.1834083 0.1733722 0.1683712 0.1715805 0.1821381 0.1953319 0.2037083 0.2007446 0.1874183
 0.1751509 0.1773302 0.1951648 0.2155493 0.2257933 0.2264841 0.226166 0.2280584 0.2285441 0.2266459
 0.2277134 0.236107 0.2487701 0.2582342 0.2591692 0.2504705 0.2345023 0.2175566 0.2082226 0.2105412
 0.2194467 0.2262875 0.227204 0.2226647 0.2123609 0.1972286 0.1847659 0.1845432 0.1970917 0.2126384
 0.2222108 0.2258075 0.2283206 0.2311306 0.2304663 0.2231395 0.2118325 0.2034227 0.202171 0.2060008
 0.2100281 0.211718 0.210955 0.2071585 0.199638 0.1907561 0.1859481 0.1890401 0.1983304 0.2082045
 0.2141751 0.2157173 0.2149341 0.2138439 0.2129913 0.2116304 0.2091608 0.2069745 0.20816 0.2141288
 0.2222606 0.2285553 0.2322015 0.2358203 0.2413508 0.247356 0.250749 0.2501604 0.2472731 0.2454094
 0.2468954 0.2512038 0.2553302 0.2563557 0.2542173 0.252006 0.2531026 0.2579423 0.2639617 0.2685053
 0.2709883 0.2723296 0.2733864 0.2742286 0.2741106 0.2720473 0.2682676 0.2650864 0.2652903 0.2693717
 0.2750381 0.2795531 0.2819211 0.282748 0.2827734 0.2820829 0.2805308 0.2784433 0.2766393 0.2757958
 0.275976 0.2767973 0.2778504 0.2788681 0.2796977 0.2802993 0.2807259 0.2810394 0.2812852 0.2815292
 0.2818124 0.2820615 0.2821633 0.2821599 0.2822661 0.2826291 0.2831443 0.2835724 0.2837553 0.2836252
 0.2830825 0.2820284 0.280521 0.2787609 0.2768801 0.2748631 0.2727851 0.2710811 0.2704231 0.2712168
 0.273214 0.2756534 0.2777702 0.279172 0.2798595 0.2800689 0.2801184 0.2802579 0.2805457 0.2808551
 0.2810196 0.280968 0.2807357 0.2803881 0.2799585 0.2794541 0.2788811 0.2782359 0.2774892 0.2766377
 0.2757811 0.2750953 0.274682 0.2744566 0.2742173 0.2738176 0.2732556 0.2726126 0.2719417 0.2712204
 0.2703952 0.269465 0.2685198 0.2676758 0.2669635 0.2662933 0.2655286 0.2645813 0.2634586 0.2622569
 0.2611029 0.2600596 0.2590807 0.2580659 0.2569427 0.2556847 0.2542913 0.2527822 0.2511962 0.2495711
 0.2479274 0.2462718 0.2446026 0.2429093 0.2411767 0.2393963 0.237574 0.2357301 0.2338877 0.2320489
 0.2301662 0.2281307 0.2257985 0.2230372 0.2197523 0.2158822 0.2114101 0.2064085 0.2010604 0.1956109
 0.1902862 0.1852425 0.1805713 0.1763423 0.1726393 0.1695504 0.1671336 0.1654123 0.1644004 0.1641072
 0.1645224 0.165607 0.1672901 0.1694574 0.1719492 0.1745822 0.1771747 0.1795756 0.1817074 0.1835964
 0.1853425 0.187039 0.1887152 0.1903545 0.1919485 0.1935074 0.1950095 0.1963735 0.1975083 0.1983759
 0.1989929 0.1993936 0.1996098 0.1996671 0.1995777 0.1993461 0.1989877 0.1985475 0.1981139 0.1978258
 0.1978422 0.1982688 0.1990912 0.2001742 0.2013393 0.202464 0.2035158 0.2045054 0.2054382 0.2063218
 0.2071875 0.2080785 0.209036 0.2101073 0.2113429 0.212769 0.2143714 0.2161074 0.2179236 0.2197652
 0.2215773 0.2233023 0.2248846 0.2262849 0.2274858 0.2284864 0.2293012 0.2299544 0.2304596 0.2308129
 0.2310141 0.2310771 0.2310106 0.2308116 0.2304822 0.2300378 0.229506 0.2289298 0.2283571 0.2278056
 0.2272538 0.2266752 0.2260693 0.2254554 0.2248535 0.2242691 0.2236873 0.2230864 0.222461 0.2218234
 0.2211802 0.2205159 0.2197937 0.2189681 0.2180096 0.2169222 0.2157288 0.2144399 0.2130492 0.2115556
 0.2099774 0.2083448 0.2066803 0.2049837 0.2032388 0.2014274 0.199528 0.1975115 0.1953725 0.1931661
 0.1909916 0.1889322 0.1870157 0.1852218 0.1835122 0.1818602 0.1802625 0.1787258 0.1772585 0.1758782
 0.1746044 0.17343 0.1723143 0.1712185 0.1701407 0.1691171 0.1681962 0.1674047 0.1667295 0.1661376
 0.1656064 0.1651264 0.1646966 0.164341 0.1641024 0.1639901 0.1639433 0.1638697 0.1637115 0.1634682
 0.1631763 0.1628786 0.1626031 0.1623579 0.1621337 0.1618963 0.1615825 0.1611138 0.1604136 0.1594161
 0.1580853 0.1564391 0.1545472 0.1525155 0.1504795 0.1485853 0.1469415 0.1455934 0.1445423 0.1437575
 0.1431679 0.1426819 0.1422483 0.1418955 0.1417004 0.1416955 0.141793 0.1418331 0.1417418 0.1416194
 0.1416515 0.1419585 0.1425295 0.1432455 0.1439452 0.1445088 0.1448985 0.1451245 0.1452058 0.1451758
 0.1450748 0.1449184 0.1446988 0.1444155 0.1440793 0.1436992 0.1432815 0.142818 0.1422798 0.1416454
 0.140921 0.1401167 0.1392305 0.1382559 0.137169 0.1359408 0.1346327 0.1334576 0.1326806 0.1324603
 0.1327794 0.1334763 0.1343493 0.1352715 0.1361606 0.136825 0.1370215 0.1368237 0.1368098 0.1376529
 0.1394812 0.1417396 0.1436886 0.1449382 0.1454928 0.1454689 0.1449362 0.1439375 0.1424764 0.1405149
 0.1380792 0.1353014 0.1323126 0.1292236 0.1262179 0.123508 0.121207 0.1193313 0.1178601 0.1168222
 0.1163463 0.1160681 0.1141535 0.1082785 0.09922392 0.09244686 0.09348284 0.101713 0.1108003 0.1153843
 0.1153546 0.1136108 0.1121424 0.1112396 0.1107833 0.1108973 0.1117032 0.1130635 0.1145882 0.1158607
 0.1167008 0.1171368 0.1171271 0.1163439 0.1141118 0.1096185 0.1025708 0.09380882 0.0850341 0.07780094
 0.07280268 0.0698975 0.06846485 0.06776813 0.06730843 0.06703645 0.06724139 0.06821962 0.07003606 0.07255983
 0.07561409 0.07896055 0.08219495 0.08489295 0.08692977 0.08849604 0.08976195 0.09068004 0.09113212 0.0911123
 0.09072609 0.09010878 0.08937368 0.08857979 0.08770934 0.08669601 0.0855405 0.08442501 0.08362866 0.08326855
 0.08320267 0.08322515 0.08324661 0.0832575 0.08325195 0.0832344 0.08321841 0.08322253 0.08331144 0.08357126
 0.08399174 0.08444034 0.08477971 0.08496659 0.08504553 0.08505221 0.0848908 0.0843979 0.08363773 0.0829628
 0.08255865 0.08210433 0.08118957 0.07995364 0.07900467 0.07874993 0.07903968 0.07943319 0.07960467 0.07949076
 0.07925195 0.07918997 0.07955276 0.08024725</values></Ydata></ScSm><ScRf><Ydata ylabel="Single channel"><values byteorder="INTEL" format="FLOAT32" numvalues="1820"> 0.06072069 0.06087848 0.06097189 0.06100047 0.06098977 0.06098815 0.06104741 0.06119034 0.06139148 0.06158844
 0.06172326 0.06178161 0.06178439 0.06174666 0.06167699 0.06162008 0.06165306 0.06180975 0.06202742 0.06218739
 0.06221179 0.06213501 0.06208383 0.06215378 0.06228178 0.06226833 0.06196563 0.06144501 0.06094733 0.06065945
 0.06059779 0.06075114 0.06120106 0.06190013 0.06241751 0.06224482 0.06143419 0.06063479 0.06037189 0.06054273
 0.06071701 0.06063882 0.06030579 0.05987091 0.05969069 0.06023148 0.06160896 0.06320564 0.06389324 0.0627487
 0.05971593 0.05580804 0.0527256 0.0519438 0.05367853 0.05659573 0.05880986 0.05938532 0.05878736 0.05793018
 0.05718958 0.0565145 0.05607013 0.05628617 0.05726471 0.05836611 0.05853711 0.0572195 0.05501714 0.0532625
 0.05279537 0.05343791 0.05471584 0.05637693 0.05766742 0.05691398 0.0531686 0.0482991 0.04616193 0.04893786
 0.05480262 0.05970276 0.06096095 0.05879598 0.05515882 0.0521068 0.05100577 0.05217192 0.05484515 0.05781679
 0.06014879 0.06120479 0.0604899 0.05808679 0.05507803 0.05302202 0.05299712 0.05517741 0.05879444 0.06220943
 0.06365753 0.06254618 0.05984743 0.05707418 0.05528912 0.05509867 0.05679169 0.06004546 0.06391032 0.06735517
 0.06968319 0.07060979 0.07033242 0.06940787 0.06832801 0.06742433 0.06715077 0.06781012 0.06881198 0.06889542
 0.06749821 0.06551211 0.06436957 0.06456492 0.06525913 0.06529783 0.0643803 0.06288037 0.06070701 0.05726396
 0.05282179 0.04890415 0.04676807 0.04643856 0.0476032 0.050103 0.05287579 0.05390095 0.05241079 0.05029653
 0.05023659 0.05283996 0.05633327 0.05872151 0.05963631 0.06019195 0.06155571 0.06375529 0.06553417 0.06529883
 0.06269558 0.059497 0.05835108 0.06018418 0.06330905 0.06549877 0.0663352 0.06697153 0.06811322 0.06892354
 0.06789821 0.06465849 0.06090965 0.05938178 0.06144875 0.06575172 0.06918496 0.06919125 0.06548436 0.0601145
 0.05587027 0.05434623 0.05552443 0.05884994 0.06384417 0.06952825 0.07415965 0.07620762 0.0754626 0.07296341
 0.06980479 0.06612261 0.06165288 0.05740834 0.05589148 0.05874009 0.06463705 0.07040358 0.07382977 0.07477614
 0.07394916 0.07155256 0.06749342 0.06269398 0.05951809 0.05993877 0.06316158 0.06607225 0.06649309 0.06517005
 0.06417586 0.06432991 0.06488729 0.06512699 0.06538884 0.06649719 0.06857751 0.07074258 0.07194692 0.07193446
 0.07128525 0.07074289 0.07053852 0.07021939 0.06928925 0.06820349 0.06831393 0.07038461 0.07353492 0.07614144
 0.07746483 0.07791755 0.07797434 0.07733625 0.07535951 0.07226347 0.06963026 0.06923707 0.07133911 0.0745011
 0.07708494 0.07843192 0.07872617 0.07840393 0.07785057 0.07727338 0.0767699 0.07659952 0.07711841 0.07827143
 0.07947157 0.08018764 0.08038397 0.08025742 0.07985254 0.07913731 0.07828274 0.07767179 0.07762274 0.07815184
 0.07901512 0.07992476 0.08065052 0.08098835 0.08083701 0.08034717 0.07983094 0.07947862 0.07929178 0.07928208
 0.07954197 0.08006603 0.08065671 0.08109058 0.08129874 0.08134066 0.08127791 0.08112848 0.0809115 0.08069971
 0.08061781 0.08075507 0.08105838 0.08136671 0.08159555 0.08181758 0.08209652 0.08232612 0.08234186 0.08214734
 0.08192557 0.08184049 0.08190447 0.08203092 0.08213186 0.08212984 0.08194204 0.08155413 0.0811229 0.08091649
 0.08109832 0.08161149 0.08227906 0.08293176 0.08343142 0.08369476 0.08375509 0.08372758 0.08367642 0.08356768
 0.08336771 0.08314447 0.08305378 0.0832239 0.0836385 0.08413753 0.08454649 0.08478887 0.08488629 0.0849189
 0.08499339 0.08516302 0.08535025 0.08541913 0.0853478 0.08526631 0.08530241 0.08543652 0.08553471 0.08550625
 0.08540924 0.08539134 0.08553217 0.08576983 0.08598953 0.08615234 0.08631289 0.08652242 0.08673353 0.08681974
 0.08670992 0.08648695 0.08630942 0.08624621 0.086249 0.086281 0.08638623 0.08659573 0.08683326 0.086978
 0.08700199 0.08699506 0.08704643 0.08713491 0.08715691 0.08704609 0.08684223 0.08665083 0.08655824 0.08658227
 0.08667651 0.08676596 0.08679092 0.08673669 0.08663209 0.08651802 0.08641917 0.086354 0.08636583 0.08650736
 0.08676252 0.08700098 0.08705844 0.08688583 0.08660445 0.08639637 0.08634053 0.08635923 0.08631496 0.08614306
 0.0858896 0.08564401 0.0854591 0.0853314 0.08523096 0.08513761 0.08506574 0.08506425 0.0851691 0.08533315
 0.08542639 0.085344 0.08510865 0.08484118 0.08464643 0.08455271 0.0845325 0.084539 0.08454162 0.08455753
 0.08462425 0.08472119 0.08476293 0.08469985 0.08458507 0.08451849 0.08456446 0.08472935 0.08495841 0.08513825
 0.08516742 0.08505882 0.08493384 0.08489726 0.08495118 0.08503882 0.08512586 0.08521307 0.08530345 0.08539587
 0.08550631 0.0856683 0.08590086 0.08617952 0.08644181 0.08662705 0.08672553 0.08679822 0.08693819 0.08719581
 0.0875356 0.08786838 0.0881272 0.0883142 0.08847757 0.08865143 0.08883147 0.08901308 0.08922751 0.08951198
 0.08985464 0.09020036 0.09051043 0.0907922 0.09107153 0.09136012 0.09165683 0.09196939 0.09232511 0.09274597
 0.09320018 0.0935939 0.09384348 0.09396097 0.09405378 0.09424192 0.09457442 0.09499314 0.09536094 0.09556564
 0.09563264 0.09570754 0.09589742 0.09616294 0.09640458 0.09661821 0.09690246 0.09731732 0.09778938 0.0981797
 0.0984216 0.0985717 0.09873249 0.09894072 0.09914134 0.09926923 0.09933646 0.09941555 0.09954841 0.09971684
 0.09991287 0.1001848 0.1005704 0.1010181 0.1014212 0.1017175 0.1019181 0.1020597 0.1021658 0.1022428
 0.102286 0.1022997 0.1023213 0.1023944 0.1025067 0.1025932 0.1026201 0.1026331 0.1027008 0.1028482
 0.1030662 0.1033474 0.1036746 0.1039973 0.1042739 0.104536 0.1048582 0.1052421 0.1055762 0.105752
 0.1057862 0.1057804 0.1057929 0.1058174 0.1058682 0.1060071 0.1062678 0.1066082 0.1069616 0.1073035
 0.1076465 0.1079929 0.1083085 0.1085408 0.1086559 0.1086659 0.1086294 0.1086274 0.1087297 0.1089613
 0.1092852 0.109624 0.1099088 0.1101025 0.1101849 0.1101552 0.1100697 0.1100433 0.1101592 0.1103732
 0.1105367 0.1105187 0.1102905 0.1098949 0.1093757 0.1087587 0.1080857 0.1074323 0.1068806 0.1064797
 0.1062465 0.1062039 0.1063963 0.1068423 0.1074777 0.1081756 0.1088237 0.1093528 0.1096869 0.1097249
 0.1094133 0.1088152 0.1080749 0.1073267 0.1066452 0.1060413 0.1054759 0.1049075 0.1043764 0.104038
 0.1040882 0.104647 0.1056996 0.1071066 0.1086515 0.1101105 0.1113371 0.112311 0.1131086 0.1138188
 0.1144897 0.1151442 0.1158083 0.116489 0.1171437 0.1177118 0.1181813 0.118597 0.1190026 0.1193986
 0.1197535 0.1200367 0.1202491 0.1204325 0.1206295 0.1208207 0.1209307 0.1209148 0.1208129 0.1206966
 0.1205852 0.1204329 0.1201789 0.1197994 0.1193379 0.1189203 0.1187327 0.1189472 0.1196264 0.1206827
 0.1219418 0.1232562 0.1245438 0.1257303 0.1267099 0.127407 0.1278497 0.1281466 0.1284015 0.1286694
 0.1289658 0.1292823 0.1295963 0.1298894 0.1301631 0.1304387 0.1307451 0.1310951 0.1314619 0.1317901
 0.1320468 0.1322623 0.1325082 0.1328329 0.1332165 0.1335928 0.1339219 0.1342275 0.1345469 0.1348625
 0.1351185 0.1353008 0.1354611 0.1356643 0.1359412 0.1362856 0.1366594 0.1369996 0.1372568 0.1374374
 0.1375943 0.1377737 0.1379869 0.1382246 0.1384775 0.1387377 0.1389976 0.1392611 0.1395477 0.1398664
 0.1401835 0.1404383 0.1406042 0.1407216 0.1408587 0.141046 0.1412604 0.1414643 0.1416524 0.1418605
 0.1421294 0.1424565 0.1427843 0.1430446 0.1432161 0.1433356 0.1434571 0.1436093 0.1437916 0.1439954
 0.1442146 0.1444397 0.1446589 0.1448684 0.1450751 0.1452868 0.1455027 0.1457169 0.1459249 0.1461256
 0.1463211 0.1465165 0.1467229 0.1469592 0.1472411 0.1475548 0.1478522 0.1480869 0.148255 0.1483888
 0.1485204 0.1486625 0.1488208 0.1489991 0.1491939 0.1493944 0.1495937 0.1497932 0.149997 0.1502052
 0.1504145 0.1506215 0.150826 0.151031 0.151242 0.1514645 0.1516994 0.1519378 0.1521628 0.1523619
 0.1525376 0.1527059 0.152885 0.1530811 0.153284 0.153478 0.1536602 0.1538424 0.1540358 0.1542405
 0.1544491 0.1546547 0.1548547 0.155049 0.1552391 0.1554275 0.1556187 0.1558174 0.1560246 0.1562353
 0.1564423 0.156639 0.1568226 0.1569974 0.1571726 0.1573552 0.1575483 0.1577547 0.157975 0.1582002
 0.1584164 0.1586166 0.1588043 0.1589872 0.1591713 0.1593599 0.1595535 0.159752 0.1599533 0.1601539
 0.1603521 0.1605512 0.1607539 0.1609589 0.1611655 0.1613777 0.1615963 0.1618149 0.1620278 0.1622379
 0.1624513 0.1626701 0.1628916 0.1631108 0.1633269 0.1635449 0.1637685 0.1639941 0.1642143 0.1644222
 0.1646129 0.1647864 0.1649484 0.1651051 0.1652593 0.1654159 0.1655826 0.1657625 0.1659541 0.166157
 0.1663675 0.1665745 0.1667721 0.1669673 0.1671673 0.1673687 0.1675675 0.167769 0.1679798 0.1681976
 0.168413 0.1686189 0.1688188 0.1690228 0.1692339 0.1694463 0.1696578 0.1698709 0.1700833 0.1702916
 0.1704994 0.1707121 0.1709284 0.1711445 0.171357 0.1715612 0.1717575 0.1719569 0.1721675 0.1723844
 0.1725993 0.1728081 0.1730075 0.1731988 0.1733916 0.1735936 0.1738036 0.1740194 0.1742409 0.1744643
 0.1746879 0.1749146 0.1751411 0.1753574 0.1755638 0.1757681 0.1759714 0.1761739 0.1763846 0.1766057
 0.1768276 0.1770445 0.1772539 0.1774364 0.1775453 0.177469 0.1769246 0.1753466 0.1718782 0.165552
 0.1556832 0.142312 0.1263429 0.1092169 0.09237963 0.07691254 0.0634416 0.05223014 0.04332069 0.03662593
 0.03198773 0.02927205 0.02846608 0.0297783 0.03375048 0.04093879 0.05069748 0.06009626 0.06505827 0.06358194
 0.05765998 0.05146427 0.04787541 0.04708723 0.0478579 0.04913309 0.05058064 0.05239018 0.05489028 0.0581828
 0.06212427 0.06671935 0.07231193 0.07914957 0.08686233 0.0946175 0.1018374 0.1086581 0.1156409 0.123105
 0.1307948 0.1381312 0.144672 0.1503326 0.1552949 0.1598041 0.164028 0.1680393 0.1718669 0.1755032
 0.1788271 0.1815608 0.1833943 0.1842197 0.184258 0.1839404 0.1836478 0.1835534 0.1836655 0.1839478
 0.1843758 0.1849308 0.1855936 0.1863431 0.1871513 0.1879887 0.1888314 0.1896573 0.190443 0.191175
 0.1918526 0.1924753 0.1930401 0.1935523 0.1940267 0.1944748 0.1948974 0.1952891 0.1956488 0.1959868
 0.1963199 0.196652 0.1969664 0.1972428 0.1974786 0.1976896 0.1978941 0.198101 0.198308 0.1985117
 0.1987164 0.1989303 0.1991536 0.1993782 0.1995973 0.199811 0.2000242 0.2002416 0.2004609 0.2006696
 0.2008569 0.2010275 0.2011983 0.2013822 0.20158 0.2017834 0.2019812 0.2021668 0.202345 0.2025278
 0.2027235 0.2029324 0.2031495 0.2033658 0.2035732 0.2037734 0.203974 0.204178 0.2043848 0.2045975
 0.2048171 0.2050354 0.2052457 0.2054515 0.2056531 0.2058371 0.2059928 0.2061342 0.2062944 0.2064962
 0.2067317 0.2069722 0.207198 0.2074106 0.2076152 0.2078083 0.2079848 0.2081463 0.2083028 0.208477
 0.2086945 0.2089529 0.2092185 0.209466 0.2096974 0.2099196 0.2101351 0.2103562 0.2105914 0.2108141
 0.2109833 0.2111055 0.211252 0.2115015 0.211863 0.2122582 0.2125924 0.2128389 0.2130407 0.2132518
 0.2135012 0.2137718 0.2139752 0.2140126 0.2139263 0.2139301 0.2142109 0.2147376 0.2153206 0.2158085
 0.2161783 0.2164789 0.2167474 0.2169705 0.2170987 0.2171022 0.2170419 0.2170795 0.2173645 0.2178797
 0.2184425 0.2188888 0.2192004 0.2194355 0.2196321 0.2198045 0.2199116 0.219804 0.219379 0.2188581
 0.2187294 0.2192787 0.2202686 0.2211942 0.2217823 0.2221288 0.2224151 0.2226814 0.2228848 0.2229406
 0.2226034 0.2216097 0.2201969 0.219248 0.2195601 0.2210382 0.2228483 0.2242513 0.2250675 0.2254856
 0.225739 0.2259523 0.2260481 0.2257544 0.2249094 0.223867 0.2234071 0.2240152 0.2253346 0.2265456
 0.2271996 0.2274572 0.2276519 0.2279168 0.2280966 0.2277105 0.22623 0.2238581 0.2219173 0.2219175
 0.2240798 0.2270716 0.2293286 0.2303978 0.2308059 0.2309038 0.2303435 0.2287026 0.2261308 0.2232762
 0.2210642 0.2205661 0.2222937 0.2253179 0.2277947 0.2287839 0.2290473 0.2298164 0.2313307 0.2328495
 0.2336043 0.2333936 0.2324558 0.2310458 0.2293046 0.2276437 0.2269919 0.2281416 0.2307858 0.2336157
 0.2355316 0.2364836 0.236909 0.2364482 0.2336782 0.2278226 0.2209001 0.2171757 0.2194011 0.2259405
 0.2325274 0.236461 0.2380982 0.2388614 0.2393218 0.2390331 0.236803 0.2313557 0.2233548 0.2166592
 0.2157051 0.2211145 0.2289887 0.234545 0.2353628 0.2316279 0.2252803 0.2194425 0.2171421 0.2194785
 0.2251441 0.2317123 0.2370882 0.2400868 0.24043 0.2386407 0.2360074 0.2342632 0.2343226 0.234924
 0.2335928 0.22976 0.2257107 0.2232506 0.2209399 0.2167747 0.2125697 0.2127686 0.2186524 0.2261857
 0.2305492 0.2310291 0.2301493 0.2290769 0.2256288 0.217413 0.2063513 0.1987839 0.1999339 0.2084855
 0.2177515 0.2222215 0.2219499 0.2206111 0.2206009 0.2205859 0.2173752 0.2100769 0.202244 0.1989025
 0.2012168 0.2054544 0.2074243 0.2058304 0.200828 0.1926797 0.1841561 0.1814315 0.1888985 0.2038176
 0.2184471 0.2264136 0.2250718 0.2141682 0.1967601 0.181071 0.1764928 0.1851896 0.1994775 0.2088825
 0.2084608 0.1997274 0.1861893 0.1709121 0.1579128 0.1526666 0.158865 0.1746459 0.1925413 0.2031841
 0.20053 0.1865864 0.1718278 0.1676693 0.1760734 0.1881627 0.1941215 0.1920832 0.1868038 0.1835667
 0.1851251 0.1911242 0.1984815 0.2043101 0.2082273 0.2091129 0.2020315 0.1841665 0.1626692 0.1499314
 0.1507252 0.1598076 0.1718254 0.1861031 0.2001197 0.2062338 0.2002903 0.1894578 0.1860943 0.1946256
 0.2077691 0.2154386 0.2147278 0.2104249 0.2076586 0.2064566 0.2042832 0.201922 0.203706 0.2115176
 0.2214923 0.2283377 0.2308505 0.2314281 0.2320039 0.2325771 0.2326034 0.231895 0.2305364 0.2290056
 0.2280252 0.227753 0.2276318 0.2272187 0.22617 0.2229945 0.2153718 0.2034129 0.1917287 0.1857726
 0.1860585 0.1885545 0.1906958 0.1928826 0.1928568 0.1841146 0.1644857 0.1431846 0.1340952 0.1423483
 0.1605076 0.1770665 0.1852621 0.1836578 0.1727274 0.1550855 0.1382197 0.132108 0.1410665 0.1596155
 0.1783423 0.1919979 0.2000327 0.2020895 0.1970597 0.1863083 0.1749163 0.1687626 0.1709689 0.1805485
 0.1927097 0.2000594 0.1962428 0.1822921 0.1693791 0.1705327 0.1869491 0.2059543 0.2152473 0.2153379
 0.2144555 0.2157653 0.2158484 0.2137398 0.2144988 0.2223015 0.234318 0.2435076 0.2448013 0.2371024
 0.2226229 0.2073755 0.1995995 0.2031184 0.2129222 0.2205476 0.2222242 0.218391 0.2087328 0.1942346
 0.1824034 0.1827585 0.1958129 0.2118467 0.2219477 0.226131 0.2292744 0.2327195 0.2326316 0.2257921
 0.2149618 0.2071749 0.2067935 0.2117092 0.2169399 0.2198802 0.2203472 0.2176223 0.2108954 0.202645
 0.1986642 0.2030333 0.2138738 0.2250668 0.2316938 0.2331093 0.2315294 0.2291485 0.2266532 0.2233892
 0.2188329 0.214496 0.2136212 0.2177212 0.2241742 0.2289231 0.2311141 0.2333614 0.2376225 0.2424915
 0.2449103 0.2435088 0.2399134 0.2373381 0.2380117 0.2414086 0.2446386 0.244911 0.2421845 0.239448
 0.2399632 0.2441572 0.2495785 0.2536884 0.2559267 0.2571678 0.2582251 0.2591386 0.2591358 0.2572064
 0.2535319 0.2503223 0.2502504 0.2538013 0.2588165 0.2627334 0.2646593 0.2652128 0.2651048 0.2643933
 0.2629119 0.2609576 0.2593068 0.258598 0.2588724 0.2597361 0.2607746 0.2617311 0.2624771 0.2629946
 0.263343 0.2635709 0.2636954 0.263762 0.2638236 0.2638476 0.2637565 0.2635965 0.2635612 0.2637756
 0.2641293 0.2643939 0.2644312 0.2642032 0.2636473 0.2626908 0.2613865 0.2599049 0.2583453 0.2566695
 0.2549323 0.2535357 0.2531085 0.25403 0.2560726 0.2585407 0.260746 0.2623461 0.2633325 0.2638482
 0.2640633 0.2641281 0.2641359 0.2641013 0.2639908 0.2637796 0.2634779 0.2631175 0.2627283 0.2623352
 0.261968 0.2616554 0.2613974 0.2611488 0.2608413 0.2604313 0.2599269 0.2593734 0.258808 0.2582242
 0.2575773 0.2568232 0.2559559 0.2550144 0.254065 0.2531735 0.2523673 0.2516147 0.2508538 0.2500411
 0.2491534 0.2481585 0.2470386 0.2458619 0.2447784 0.2439024 0.2432171 0.2426087 0.2419625 0.2412116
 0.2403374 0.2393654 0.2383452 0.2373072 0.2362399 0.2351156 0.2339175 0.2326376 0.2312694 0.2298178
 0.2283005 0.2267316 0.2251155 0.2234586 0.2217633 0.2199891 0.218029 0.2157342 0.2129666 0.2096371
 0.2057266 0.2013009 0.196512 0.1915661 0.1866688 0.1819874 0.1776489 0.1737564 0.1703959 0.1676332
 0.1655144 0.1640705 0.1633202 0.1632738 0.1639352 0.1652853 0.1672538 0.1697134 0.1725072 0.1754768
 0.1784639 0.1813145 0.1839221 0.1862807 0.188473 0.190578 0.1925921 0.1944481 0.1960919 0.1975171
 0.1987381 0.1997669 0.20062 0.201325 0.2019097 0.2023955 0.202803 0.2031555 0.2034724 0.2037609
 0.2040136 0.2042204 0.2043869 0.2045414 0.2047194 0.2049411 0.2052078 0.2055215 0.2058996 0.2063589
 0.2068868 0.2074448 0.2080036 0.2085652 0.2091491 0.2097747 0.2104671 0.2112651 0.2122095 0.2133219
 0.2145937 0.2159846 0.2174212 0.2188011 0.2200163 0.2209915 0.221708 0.222188 0.2224617 0.2225542
 0.2224935 0.2223123 0.2220374 0.221684 0.2212563 0.2207538 0.2201812 0.2195545 0.2188911 0.218197
 0.2174763 0.2167458 0.2160274 0.2153312 0.2146534 0.2139898 0.2133425 0.2127189 0.2121246 0.2115538
 0.2109889 0.2104174 0.209846 0.2092896 0.208746 0.2081849 0.2075584 0.2068271 0.2059818 0.20504
 0.2040189 0.2029166 0.2017236 0.2004402 0.1990753 0.1976348 0.1961206 0.1945374 0.1928934 0.1911876
 0.1893975 0.1874949 0.1854887 0.1834498 0.181475 0.1796284 0.177922 0.1763389 0.174856 0.1734537
 0.1721191 0.1708405 0.1696025 0.1683972 0.1672355 0.1661343 0.1650963 0.1641187 0.1632119 0.1623988
 0.1616925 0.1610835 0.1605482 0.1600703 0.1596518 0.159302 0.1590301 0.1588545 0.1587949 0.1588343
 0.1589064 0.1589386 0.1588989 0.1588025 0.1586882 0.1585914 0.1585236 0.1584731 0.1584195 0.1583331
 0.1581628 0.1578382 0.1572807 0.1564167 0.1552103 0.153695 0.1519608 0.1501174 0.1482832 0.1465819
 0.145115 0.1439384 0.1430587 0.1424256 0.1419422 0.1415267 0.1411751 0.1409533 0.140935 0.1411254
 0.1414091 0.1416073 0.1416422 0.1416289 0.1417699 0.1421828 0.1428407 0.1436211 0.1443853 0.1450453
 0.1455737 0.145961 0.1462 0.1463129 0.1463403 0.1463014 0.1461987 0.1460419 0.1458364 0.145573
 0.14524 0.1448214 0.1443002 0.1436883 0.143017 0.1422873 0.1414762 0.140577 0.139573 0.1384277
 0.1371934 0.1360848 0.1353687 0.1352026 0.1355781 0.136348 0.1373181 0.1383658 0.1394123 0.1402565
 0.140632 0.1405946 0.1407247 0.1417181 0.1437325 0.1462225 0.1484225 0.1498998 0.1506262 0.1507069
 0.150226 0.1492549 0.1478046 0.1458108 0.1432823 0.1403753 0.1372639 0.1340908 0.1310531 0.1283512
 0.1260679 0.1242064 0.122759 0.1217658 0.1213589 0.121162 0.1192628 0.1132258 0.1038767 0.09695476
 0.09826119 0.1071149 0.1168464 0.1218314 0.1219473 0.1202156 0.1187091 0.1177334 0.1171799 0.117202
 0.1179414 0.1192509 0.1207181 0.1219166 0.1226756 0.1230504 0.1230201 0.1222313 0.1199331 0.1152454
 0.1078693 0.0986898 0.08946319 0.08179154 0.0764123 0.07322274 0.07162084 0.070849 0.07035911 0.07007107
 0.07028542 0.07131882 0.07323177 0.07587542 0.07906057 0.08254077 0.08590904 0.08874923 0.090946 0.09268981
 0.09414122 0.09522952 0.09580015 0.09582305 0.09541491 0.09474807 0.09397732 0.09318796 0.09234838 0.09134203
 0.09013894 0.08894697 0.08808662 0.08768017 0.08756395 0.0875209 0.0874729 0.08743105 0.08739382 0.08733597
 0.08723688 0.08713332 0.08716252 0.08746653 0.08801299 0.08858284 0.08896069 0.08910064 0.08911218 0.0890841
 0.08890767 0.0883776 0.08754957 0.08680113 0.08633108 0.08579601 0.08475059 0.08333346 0.08220614 0.08183888
 0.08208986 0.08247051 0.08260852 0.08243255 0.0821251 0.08201734 0.08237284 0.08308734 0.08367221 0.08369965
</values></Ydata></ScRf><Data_Parameters_AB><parameter name="DPF">1</parameter><parameter name="NPT">3497</parameter><parameter name="FXV">3996</parameter><parameter name="LXV">500</parameter><parameter name="CSF">1</parameter><parameter name="MXY">0.0780888050794601</parameter><parameter name="MNY">-0.0980966836214066</parameter><parameter name="DAT">01/06/2022</parameter><parameter name="TIM">11:38:09.721 (GMT+2)</parameter><parameter name="DXU">WN</parameter></Data_Parameters_AB><AB__Qtest><MainReport name="Quality Test Report"><Header><Line><Legend>Test result ok/not ok [1/0]: </Legend><Value>0</Value></Line><Line><Legend>Method file: </Legend><Value>C:\Users\Public\Documents\Bruker\OPUS_8.2.28\QT\IRBT_v3_default.QT</Value></Line></Header><Matrix><Line><Legend></Legend><Legend>min</Legend><Legend>max</Legend><Legend>measured</Legend></Line><Line><Value>Absorption (X-Range 1):</Value><Value>0.400000</Value><Value>2.000000</Value><Value>0.131995</Value></Line><Line><Value>Noise (X-Range 4):</Value><Value></Value><Value>0.000300</Value><Value>0.000046</Value></Line><Line><Value>Signal/Noise (X-Range 2):</Value><Value>200.000000</Value><Value></Value><Value>48.180283</Value></Line><Line><Value>Signal/Noise (X-Range 3):</Value><Value>40.000000</Value><Value></Value><Value>34.429499</Value></Line><Line><Value>Water vapour (X-Range 5):</Value><Value></Value><Value>0.000300</Value><Value>0.000042</Value></Line><Line><Value>Signal/Water (X-Range 2):</Value><Value>100.000000</Value><Value></Value><Value>52.678152</Value></Line><Line><Value>Signal/Water (X-Range 3):</Value><Value>20.000000</Value><Value></Value><Value>37.643664</Value></Line><Line><Value>Fringes (X-Range 6):</Value><Value></Value><Value>0.000100</Value><Value>0.000057</Value></Line></Matrix></MainReport></AB__Qtest><Data_Parameters_ScSm><parameter name="DPF">1</parameter><parameter name="NPT">1814</parameter><parameter name="FXV">3996.33169228125</parameter><parameter name="LXV">499.541461535156</parameter><parameter name="CSF">1</parameter><parameter name="MXY">0.286031872034073</parameter><parameter name="MNY">0.0356729924678802</parameter><parameter name="DAT">01/06/2022</parameter><parameter name="TIM">11:38:09.721 (GMT+2)</parameter><parameter name="DXU">WN</parameter></Data_Parameters_ScSm><Data_Parameters_ScRf><parameter name="DPF">1</parameter><parameter name="NPT">1820</parameter><parameter name="FXV">4004.04661832813</parameter><parameter name="LXV">495.683998511719</parameter><parameter name="CSF">1</parameter><parameter name="MXY">0.265212833881378</parameter><parameter name="MNY">0.0284660831093788</parameter><parameter name="DAT">01/06/2022</parameter><parameter name="TIM">11:37:43.868 (GMT+2)</parameter><parameter name="DXU">WN</parameter></Data_Parameters_ScRf><Optic_Parameters_Rf><parameter name="APR">0</parameter><parameter name="APT">Open</parameter><parameter name="BMS">KBr</parameter><parameter name="DTC">RT-DLaTGS_IR-Biotyper [Microplate reader]</parameter><parameter name="HPF">0</parameter><parameter name="LPF">10.0</parameter><parameter name="LPV">4000</parameter><parameter name="PGR">0</parameter><parameter name="RCH">Module port</parameter><parameter name="RDX">0</parameter><parameter name="SRC">MIR</parameter><parameter name="VEL">10.0</parameter><parameter name="SON">Off</parameter></Optic_Parameters_Rf><Acquisition_Parameters_Rf><parameter name="ADT">1</parameter><parameter name="AQM">DD</parameter><parameter name="CFE">0</parameter><parameter name="COR">0</parameter><parameter name="DEL">0</parameter><parameter name="DLY">0</parameter><parameter name="HFW">8000</parameter><parameter name="LFW">0</parameter><parameter name="NSR">32</parameter><parameter name="PLF">AB</parameter><parameter name="RES">6</parameter><parameter name="RGN">-1</parameter><parameter name="STR">0</parameter><parameter name="TCL">MakeCompatibleScalar (0, {WSV=1.000000, ARV=0});</parameter><parameter name="TDL">37</parameter><parameter name="RPO">0</parameter></Acquisition_Parameters_Rf><FT_-_Parameters_Rf><parameter name="APF">B3</parameter><parameter name="HFQ">500</parameter><parameter name="LFQ">4000</parameter><parameter name="NLI">0</parameter><parameter name="PHR">24</parameter><parameter name="PHZ">ML</parameter><parameter name="SPZ">NO</parameter><parameter name="ZFF">1</parameter></FT_-_Parameters_Rf><Optic_Parameters_><parameter name="APR">0</parameter><parameter name="APT">Open</parameter><parameter name="BMS">KBr</parameter><parameter name="CHN">Module port</parameter><parameter name="DTC">RT-DLaTGS_IR-Biotyper [Microplate reader]</parameter><parameter name="HPF">0</parameter><parameter name="LPF">10.0</parameter><parameter name="LPV">4000</parameter><parameter name="PGN">0</parameter><parameter name="RDX">0</parameter><parameter name="SRC">MIR</parameter><parameter name="VEL">10.0</parameter><parameter name="SON">Off</parameter></Optic_Parameters_><FT_-_Parameters_><parameter name="APF">B3</parameter><parameter name="HFQ">500</parameter><parameter name="LFQ">4000</parameter><parameter name="NLI">0</parameter><parameter name="PHR">24</parameter><parameter name="PHZ">ML</parameter><parameter name="SPZ">NO</parameter><parameter name="ZFF">1</parameter></FT_-_Parameters_><Acquisition_Parameters_><parameter name="ADT">1</parameter><parameter name="AQM">DD</parameter><parameter name="CFE">0</parameter><parameter name="COR">0</parameter><parameter name="DEL">0</parameter><parameter name="DLY">0</parameter><parameter name="HFW">8000</parameter><parameter name="LFW">0</parameter><parameter name="NSS">32</parameter><parameter name="PLF">AB</parameter><parameter name="RES">6</parameter><parameter name="SOT">0</parameter><parameter name="TCL">MakeCompatibleScalar (0, {WSV=1.000000, ARV=0});</parameter><parameter name="TDL">37</parameter><parameter name="SPO">0</parameter><parameter name="SGN">-1</parameter></Acquisition_Parameters_><Instrument_Parameters_Rf><parameter name="HFL">15800.168544</parameter><parameter name="LFL">0</parameter><parameter name="LWN">15800.168544</parameter><parameter name="ABP">32197</parameter><parameter name="SSP">1</parameter><parameter name="ARG">2</parameter><parameter name="ASG">2</parameter><parameter name="ASS">32</parameter><parameter name="GFW">16</parameter><parameter name="GBW">16</parameter><parameter name="BFW">0</parameter><parameter name="BBW">0</parameter><parameter name="PKA">7311</parameter><parameter name="PKL">4990</parameter><parameter name="PRA">7480</parameter><parameter name="PRL">5001</parameter><parameter name="P2A">1</parameter><parameter name="P2L">1</parameter><parameter name="P2R">1</parameter><parameter name="P2K">1</parameter><parameter name="DAQ">0</parameter><parameter name="AG2">1</parameter><parameter name="SSM">1</parameter><parameter name="RSN">25921</parameter><parameter name="CRR">0</parameter><parameter name="SRT">1654083463.869</parameter><parameter name="DUR">19.6389923095703</parameter><parameter name="TSC">29</parameter><parameter name="MVD">0.57511967420578</parameter><parameter name="AN1">0.225825071919843</parameter><parameter name="AN2">0</parameter><parameter name="VSN">2.485 Apr  4 2017</parameter><parameter name="SRN">0085</parameter><parameter name="CAM">0</parameter><parameter name="INS">IR-Biotyper</parameter><parameter name="FOC">69</parameter><parameter name="RDY">1</parameter><parameter name="ARS">32</parameter></Instrument_Parameters_Rf><Sample_Parameters_><parameter name="BLD"></parameter><parameter name="CNM">Admin</parameter><parameter name="CPY"></parameter><parameter name="DPM"></parameter><parameter name="EXP">IRBT_v3_32Scans.XPM</parameter><parameter name="LCT"></parameter><parameter name="SFM">Microplate, HTS-XT</parameter><parameter name="SNM">220601-1028(v.3)_RTF49M (D_7)_C6_7ff12984-c2eb-431e-b3d8-abec0b14b7a7.0</parameter><parameter name="XPP">C:\Users\Public\Documents\Bruker\OPUS_8.2.28\XPM</parameter><parameter name="IST">OK</parameter><parameter name="CPG">1252</parameter><parameter name="UID">d38d60f8-4c9f-4d5f-b723-1c37703d58f1</parameter></Sample_Parameters_><Instrument_Parameters_><parameter name="HFL">15800.168544</parameter><parameter name="LFL">0</parameter><parameter name="LWN">15800.168544</parameter><parameter name="ABP">32197</parameter><parameter name="SSP">1</parameter><parameter name="ASG">2</parameter><parameter name="ARG">2</parameter><parameter name="ASS">32</parameter><parameter name="GFW">16</parameter><parameter name="GBW">16</parameter><parameter name="BFW">0</parameter><parameter name="BBW">0</parameter><parameter name="PKA">8105</parameter><parameter name="PKL">4988</parameter><parameter name="PRA">8366</parameter><parameter name="PRL">4993</parameter><parameter name="P2A">1</parameter><parameter name="P2L">1</parameter><parameter name="P2R">1</parameter><parameter name="P2K">1</parameter><parameter name="DAQ">0</parameter><parameter name="AG2">1</parameter><parameter name="SSM">1</parameter><parameter name="RSN">13586</parameter><parameter name="CRR">0</parameter><parameter name="SRT">1654083489.722</parameter><parameter name="DUR">19.6399993896484</parameter><parameter name="TSC">29</parameter><parameter name="MVD">0.225355610251427</parameter><parameter name="AN1">0.225808597952569</parameter><parameter name="AN2">0</parameter><parameter name="VSN">2.485 Apr  4 2017</parameter><parameter name="SRN">0085</parameter><parameter name="CAM">0</parameter><parameter name="INS">IR-Biotyper</parameter><parameter name="FOC">69</parameter><parameter name="RDY">1</parameter></Instrument_Parameters_><History/></OPUSDataFile>
