<?xml version="1.0" encoding="UTF-8" ?>
<OPUSDataFile><AB><Ydata ylabel="Absorbance Units"><values byteorder="INTEL" format="FLOAT32" numvalues="3497"> -0.07234948 -0.07236519 -0.07236361 -0.07234454 -0.07231062 -0.07226198 -0.07220519 -0.07214066 -0.0720742 -0.07200721
 -0.07195043 -0.07190577 -0.0718869 -0.07189176 -0.07192414 -0.07197698 -0.07204088 -0.07210982 -0.07217281 -0.07222892
 -0.07227425 -0.07230861 -0.07233138 -0.07234103 -0.07233605 -0.07231912 -0.07228912 -0.07225697 -0.07222363 -0.07220156
 -0.07219233 -0.07219958 -0.07222357 -0.07225484 -0.07229251 -0.07232203 -0.07234382 -0.07235228 -0.07235009 -0.07234395
 -0.07233541 -0.07233238 -0.07233291 -0.0723374 -0.07234356 -0.07234842 -0.07235223 -0.07235441 -0.072355 -0.07235478
 -0.07235028 -0.07234079 -0.07232199 -0.0722919 -0.07225226 -0.0722019 -0.0721518 -0.07210249 -0.07206827 -0.07204997
 -0.07205305 -0.07207672 -0.07211116 -0.0721549 -0.07219319 -0.07222749 -0.07225493 -0.07227848 -0.07230511 -0.07233358
 -0.07236597 -0.07239783 -0.0724242 -0.07244389 -0.07245356 -0.0724558 -0.07245152 -0.07244132 -0.07242576 -0.07240417
 -0.07237519 -0.07234551 -0.07231487 -0.07229735 -0.07229435 -0.07231548 -0.07236139 -0.07242779 -0.07251351 -0.0726018
 -0.07269078 -0.07276035 -0.0728102 -0.07282704 -0.0728151 -0.07277564 -0.07271817 -0.07265839 -0.07260464 -0.0725751
 -0.07256631 -0.07258628 -0.07261357 -0.07264058 -0.07264398 -0.07260852 -0.07254232 -0.07243923 -0.07233954 -0.07224891
 -0.07219674 -0.0721885 -0.07221433 -0.07227405 -0.07233743 -0.0724038 -0.07245781 -0.07250137 -0.07253908 -0.07257179
 -0.07260589 -0.07263906 -0.07266913 -0.07269318 -0.07270439 -0.07270361 -0.07268821 -0.07266258 -0.07262988 -0.07259169
 -0.07254972 -0.07250447 -0.07245412 -0.07240927 -0.07236975 -0.07235748 -0.07237569 -0.07244307 -0.07256375 -0.07272647
 -0.07293135 -0.07309831 -0.07322304 -0.07321828 -0.07309727 -0.07290151 -0.07264792 -0.07242557 -0.07223201 -0.07210658
 -0.072038 -0.07202703 -0.07205748 -0.07211202 -0.07217495 -0.07222643 -0.07226261 -0.07227441 -0.07226862 -0.07224631
 -0.07221129 -0.07216483 -0.07210819 -0.07204042 -0.07197236 -0.07190433 -0.07185396 -0.07182237 -0.07181597 -0.07183395
 -0.07186452 -0.07190587 -0.07193994 -0.07196739 -0.0719808 -0.07198273 -0.0719768 -0.07196261 -0.07194113 -0.07191134
 -0.07186984 -0.07182381 -0.07177561 -0.07173887 -0.07172161 -0.07173377 -0.07178316 -0.07186521 -0.07198363 -0.07211451
 -0.07225659 -0.07237566 -0.07246819 -0.07250886 -0.07249577 -0.07242574 -0.07230003 -0.07213864 -0.07194446 -0.07174609
 -0.07154548 -0.07136481 -0.07120544 -0.07108199 -0.07099459 -0.07095196 -0.070948 -0.07098224 -0.07103871 -0.07110584
 -0.07116631 -0.0712048 -0.0712203 -0.07120616 -0.07117711 -0.07113586 -0.07109328 -0.07105249 -0.07101308 -0.07097501
 -0.07094048 -0.07090946 -0.07089387 -0.07089404 -0.0709179 -0.07096302 -0.07101765 -0.07107785 -0.07112013 -0.07114644
 -0.07114784 -0.07113297 -0.07111327 -0.07109443 -0.07108971 -0.07109621 -0.07111608 -0.0711451 -0.07117896 -0.071224
 -0.07128095 -0.0713589 -0.07146383 -0.07158336 -0.07171997 -0.07183523 -0.07192553 -0.07196034 -0.07193729 -0.07184828
 -0.07169422 -0.07148873 -0.07123759 -0.07098636 -0.07074142 -0.07055452 -0.07042315 -0.07037137 -0.07038329 -0.07044704
 -0.07053481 -0.07060481 -0.07064699 -0.07063098 -0.07058138 -0.07050353 -0.07042073 -0.07034621 -0.07028221 -0.07023337
 -0.07018982 -0.0701507 -0.07010683 -0.07005669 -0.06999928 -0.06993424 -0.06987081 -0.0698099 -0.06976866 -0.06974769
 -0.06976222 -0.06980702 -0.06987336 -0.06994702 -0.0699835 -0.06997973 -0.06990127 -0.06977406 -0.06961682 -0.06945111
 -0.06930785 -0.06917913 -0.06907191 -0.06896462 -0.06884751 -0.06871638 -0.06856447 -0.06841197 -0.06826159 -0.06812833
 -0.06801589 -0.06791331 -0.06782048 -0.06770979 -0.06758054 -0.06741904 -0.06722916 -0.06703265 -0.0668328 -0.06665642
 -0.06649975 -0.06636568 -0.06625143 -0.06615292 -0.06606953 -0.06600159 -0.06594061 -0.06588293 -0.0658104 -0.06571054
 -0.06557404 -0.06539203 -0.06517019 -0.06490906 -0.06461039 -0.06427402 -0.06390437 -0.06350038 -0.06308357 -0.06265515
 -0.06223672 -0.061829 -0.06144283 -0.06107873 -0.06074625 -0.06044514 -0.06018183 -0.05995097 -0.05974297 -0.05954987
 -0.05935229 -0.05914629 -0.05892084 -0.05866936 -0.05838459 -0.05805527 -0.05766683 -0.05723406 -0.05675336 -0.05626534
 -0.0557836 -0.05532047 -0.05488366 -0.0544534 -0.05402848 -0.05359008 -0.05313636 -0.0526727 -0.0522005 -0.05175062
 -0.05132374 -0.05094407 -0.05060206 -0.05027479 -0.04994355 -0.04953868 -0.0490656 -0.04848865 -0.04785537 -0.04721713
 -0.04659768 -0.0460467 -0.04553794 -0.04507151 -0.04461478 -0.04415134 -0.04367173 -0.04316727 -0.04265039 -0.04212217
 -0.0415927 -0.04106454 -0.04053002 -0.03998912 -0.03942252 -0.03882986 -0.03820561 -0.03755303 -0.03689528 -0.0362349
 -0.03559705 -0.03497731 -0.03437645 -0.0337892 -0.03320467 -0.03262323 -0.03204058 -0.03145902 -0.03087934 -0.03030286
 -0.02973117 -0.02916319 -0.02860207 -0.02803314 -0.02745575 -0.02684328 -0.02618781 -0.02548966 -0.02474364 -0.02400158
 -0.02326661 -0.02258402 -0.02195388 -0.02136265 -0.02080578 -0.02024027 -0.01966601 -0.01905737 -0.01842249 -0.01776924
 -0.01710892 -0.01646861 -0.01584985 -0.01527086 -0.01471452 -0.01417553 -0.01362655 -0.01304678 -0.0124264 -0.01174973
 -0.01104215 -0.01030508 -0.009573989 -0.008856685 -0.008171223 -0.007522002 -0.006905428 -0.006322218 -0.005747616 -0.005180144
 -0.00458975 -0.003977044 -0.003332416 -0.00265996 -0.001972613 -0.00127338 -0.0005775458 0.0001146077 0.0007957112 0.001465784
 0.002121499 0.002764321 0.003393648 0.004013467 0.004626228 0.005234341 0.005840054 0.006441864 0.00703986 0.007631979
 0.008217222 0.008798116 0.009374067 0.009955524 0.01054312 0.01114763 0.01176906 0.01240263 0.01304627 0.01367997
 0.01430369 0.01490518 0.01548938 0.0160639 0.01663349 0.01721179 0.01779905 0.01840249 0.01901731 0.0196432
 0.0202706 0.02089369 0.02150458 0.02209578 0.02267404 0.02323743 0.02380497 0.0243807 0.02497412 0.02558853
 0.02621229 0.02684516 0.02746705 0.02807719 0.02866388 0.02922831 0.02977475 0.03030592 0.03083703 0.03136842
 0.03191022 0.03245819 0.03300863 0.03355813 0.03409921 0.03463395 0.03516149 0.03568488 0.03620582 0.0367266
 0.03724786 0.03777434 0.03830855 0.038849 0.03939788 0.0399393 0.04047133 0.04098358 0.04147429 0.04195938
 0.04243987 0.04294035 0.0434596 0.0439985 0.04455217 0.04509811 0.04563366 0.04613778 0.04661438 0.04705935
 0.04748227 0.0478945 0.04830376 0.04872353 0.04915108 0.04958989 0.05003139 0.05047086 0.05090925 0.05134451
 0.05178557 0.05223465 0.05269355 0.05316379 0.05363575 0.05410906 0.05457054 0.05501961 0.05544606 0.05585109
 0.0562391 0.05661463 0.05700189 0.05740307 0.05784035 0.05830593 0.05879611 0.05929948 0.05979712 0.06028578
 0.06075511 0.0612065 0.06163917 0.06205044 0.06243858 0.06280321 0.06314175 0.06346477 0.06377274 0.06408181
 0.06439406 0.06472118 0.06506451 0.06542566 0.06580444 0.06618994 0.06658109 0.06696292 0.06733634 0.06769745
 0.06804878 0.06839693 0.06874124 0.06908412 0.06942232 0.06975088 0.07007123 0.07038152 0.07068827 0.07099648
 0.07130667 0.07162347 0.07193322 0.07223405 0.07250825 0.07274988 0.07295965 0.07313447 0.07330095 0.07346075
 0.07363971 0.0738384 0.07404838 0.07426661 0.07445937 0.07462729 0.07475258 0.07484438 0.07492 0.07499018
 0.0750874 0.075212 0.07538254 0.07558349 0.07580879 0.07603702 0.07624865 0.07644106 0.07660173 0.07675915
 0.07691823 0.07710917 0.07734447 0.07760966 0.07790902 0.07818376 0.07842966 0.07859925 0.07869117 0.07871561
 0.07867716 0.07862518 0.07856052 0.0785146 0.07848128 0.07845489 0.07843675 0.07842233 0.07842659 0.07847251
 0.07856204 0.07871569 0.07889891 0.07909834 0.0792724 0.0793913 0.07945783 0.07945912 0.07944134 0.07941165
 0.07940838 0.07944072 0.07950418 0.07960071 0.07969182 0.07977544 0.07980736 0.07978769 0.0796975 0.07954418
 0.07935159 0.07913279 0.0789411 0.07878421 0.07870831 0.07870334 0.07878114 0.07890999 0.0790664 0.07921261
 0.07931189 0.07935339 0.07931388 0.07922862 0.07909906 0.07897913 0.07888145 0.07883731 0.07885401 0.07893602
 0.07908446 0.07929854 0.07957806 0.07991399 0.08030215 0.08070021 0.08109819 0.0814219 0.08166651 0.08177066
 0.08175202 0.08160862 0.08138429 0.08113899 0.08091615 0.08078995 0.08075998 0.08086305 0.08103773 0.08127347
 0.08148298 0.08163493 0.08167472 0.0815779 0.08135921 0.08101102 0.08060949 0.08015892 0.07974384 0.07936817
 0.07906771 0.07883944 0.07866427 0.07853873 0.07843327 0.07835151 0.07828975 0.0782529 0.07825471 0.07828531
 0.07834418 0.07839797 0.07841676 0.07836101 0.07818804 0.07789348 0.07745162 0.07691838 0.07629863 0.07567545
 0.07506886 0.07452901 0.07406916 0.0736862 0.07338251 0.0731246 0.07291061 0.07269543 0.07247721 0.07221714
 0.07192017 0.07158826 0.07123516 0.07090974 0.07061473 0.0703891 0.07020576 0.07004482 0.06987045 0.06963052
 0.06932468 0.06892443 0.06847927 0.06799886 0.06755146 0.0671635 0.06687268 0.06670087 0.06661434 0.0666194
 0.06661347 0.06658947 0.06644809 0.06618474 0.06579047 0.06527312 0.06471658 0.06412946 0.06360457 0.06313656
 0.06275954 0.06245724 0.06221174 0.06200678 0.06180983 0.06161106 0.06138634 0.06113707 0.06085451 0.06055074
 0.06022905 0.05990085 0.05957118 0.05924455 0.05892222 0.05860996 0.05830842 0.05802514 0.0577615 0.05751186
 0.0572758 0.05702981 0.05677282 0.05648378 0.05616535 0.05581979 0.0554534 0.05508858 0.05472901 0.05439612
 0.05408476 0.05379844 0.05352527 0.05325362 0.05297532 0.0526785 0.05236663 0.05203689 0.05169961 0.05135807
 0.05101839 0.05068362 0.05035063 0.05001988 0.04968379 0.04934156 0.0489897 0.04862804 0.04826194 0.04789206
 0.0475281 0.04716998 0.04682294 0.04648517 0.04615354 0.04582596 0.0454959 0.04516303 0.04482372 0.04447917
 0.04412891 0.04377539 0.04341787 0.04306648 0.04272146 0.04240868 0.04213595 0.04192758 0.0417971 0.04172183
 0.041708 0.04166969 0.04160089 0.04141597 0.04111039 0.04068436 0.0401456 0.03958762 0.03902024 0.0385514
 0.0381745 0.03793181 0.03779406 0.03772075 0.03767405 0.03757271 0.03740397 0.03711083 0.03673142 0.03626794
 0.03578378 0.03531705 0.03489133 0.03453142 0.03420607 0.03391106 0.03362555 0.03333978 0.03309163 0.03288218
 0.03276791 0.03275185 0.032836 0.03301408 0.03321003 0.03341182 0.03350855 0.0334991 0.03331131 0.03297244
 0.03250123 0.03194449 0.0313886 0.03085576 0.03041533 0.03003663 0.02972216 0.0294286 0.02912525 0.02881698
 0.02849299 0.0281909 0.02792271 0.02768785 0.02749281 0.02729126 0.02707837 0.02683432 0.0265578 0.02629084
 0.0260361 0.02584202 0.0257038 0.02561897 0.025578 0.02554413 0.02551592 0.02547024 0.02541359 0.02534817
 0.02527484 0.02520059 0.02510908 0.02499553 0.02482817 0.02458887 0.02425676 0.02381133 0.02328296 0.0226643
 0.02204487 0.02143472 0.02092328 0.02052358 0.02024549 0.02009036 0.01997655 0.01989831 0.01975609 0.01955321
 0.01925443 0.01887687 0.01846181 0.01802563 0.017631 0.01727674 0.01699274 0.01676114 0.01657476 0.01641294
 0.01625722 0.01609429 0.01591025 0.01570622 0.01547554 0.01524002 0.01500201 0.01478924 0.01460992 0.01445573
 0.01432981 0.01417667 0.01399328 0.01373808 0.01341409 0.01305472 0.01266848 0.01232975 0.01203244 0.01179984
 0.01160799 0.01140801 0.01118892 0.01090125 0.0105695 0.01019861 0.009824391 0.009481008 0.009177976 0.008933384
 0.008733168 0.008574645 0.008451679 0.008360441 0.008308551 0.008298227 0.00832462 0.008389601 0.008459727 0.00853331
 0.008561731 0.008543303 0.00844301 0.008264566 0.008009959 0.007690298 0.007345142 0.006987623 0.006669345 0.006397186
 0.006206951 0.006096368 0.006078671 0.006142878 0.006287558 0.006493161 0.006751156 0.007038628 0.007345453 0.007656172
 0.007963926 0.008266606 0.008561148 0.008860484 0.009163741 0.009505234 0.00988671 0.01035972 0.01092601 0.01162264
 0.01244455 0.01338145 0.01442124 0.01551414 0.01665032 0.01777959 0.01890137 0.01999044 0.02105491 0.02209248
 0.02311734 0.02413735 0.02517233 0.02623276 0.02734102 0.02850786 0.02974702 0.03106738 0.03245741 0.03392085
 0.03541458 0.03693682 0.03842799 0.03988466 0.04124773 0.04251337 0.04361822 0.04455594 0.04525152 0.04570451
 0.04586098 0.04575063 0.04540204 0.04488725 0.04433222 0.04381688 0.04349317 0.04338393 0.04357474 0.04400639
 0.04467643 0.04550231 0.04644511 0.04747973 0.04858372 0.04979803 0.05112376 0.05261372 0.054274 0.0561332
 0.05819342 0.06046635 0.06295358 0.0656766 0.06864487 0.07192287 0.0755355 0.07960853 0.08416916 0.08936495
 0.09516947 0.10166 0.1086469 0.1160446 0.1233563 0.130283 0.1360058 0.1400311 0.1416405 0.1403268
 0.136207 0.1290367 0.1199992 0.1091674 0.09811142 0.08700359 0.07692447 0.06795752 0.06037555 0.05416234
 0.04904127 0.04497141 0.04155187 0.03876285 0.03632019 0.034217 0.03229786 0.03055288 0.02889584 0.02732067
 0.02578358 0.02429359 0.02284168 0.02144566 0.0201136 0.01885756 0.01768474 0.0165988 0.01560155 0.01469635
 0.01388283 0.01317149 0.01256243 0.01207516 0.01171087 0.0114883 0.01140639 0.01145176 0.01161404 0.01181947
 0.01205074 0.01219674 0.01225466 0.01214968 0.01191532 0.0115647 0.01116171 0.01078372 0.01049574 0.01037644
 0.01047077 0.01082423 0.01146401 0.01240268 0.0136863 0.01530847 0.01740927 0.01999184 0.02331124 0.02740281
 0.03239179 0.03830115 0.0446094 0.0512399 0.05678092 0.06111934 0.06268379 0.06161002 0.05747065 0.05075487
 0.04247503 0.03312785 0.02410923 0.01556873 0.008306436 0.002129287 -0.002834638 -0.006889012 -0.01017867 -0.01292059
 -0.01523954 -0.01723558 -0.01895742 -0.02045624 -0.02174523 -0.02287034 -0.02383653 -0.02469001 -0.02543383 -0.02611106
 -0.02672365 -0.02730532 -0.02785638 -0.02839568 -0.02892153 -0.02943844 -0.02994214 -0.03042462 -0.03088032 -0.03129391
 -0.03166632 -0.0319885 -0.032275 -0.03253247 -0.03278203 -0.03303923 -0.0333133 -0.03361545 -0.03393216 -0.03426475
 -0.03458583 -0.03489036 -0.03516086 -0.03539285 -0.03559817 -0.03577682 -0.03596038 -0.03614971 -0.03636046 -0.03658951
 -0.03682042 -0.03705086 -0.03725923 -0.03745252 -0.03763701 -0.03782358 -0.03803834 -0.03827918 -0.03855897 -0.03885793
 -0.03916528 -0.03945808 -0.03971831 -0.03993628 -0.04010088 -0.04022127 -0.04029432 -0.04034709 -0.04038186 -0.04043384
 -0.04050781 -0.04062286 -0.04078128 -0.04096835 -0.04118264 -0.04139367 -0.04160153 -0.04179237 -0.04196925 -0.0421388
 -0.04230142 -0.04246249 -0.04261861 -0.04276497 -0.0429013 -0.0430241 -0.04313748 -0.04324483 -0.04334631 -0.04344435
 -0.04353329 -0.04361029 -0.04367552 -0.04372593 -0.04377559 -0.04382565 -0.04389372 -0.04398283 -0.04409571 -0.04423322
 -0.04437903 -0.04453217 -0.04467321 -0.04480264 -0.0449148 -0.04501231 -0.04510325 -0.04518941 -0.0452806 -0.04537536
 -0.04547637 -0.04557946 -0.0456802 -0.04577569 -0.04586002 -0.04593743 -0.04600643 -0.04607977 -0.04616241 -0.0462637
 -0.04638955 -0.04653347 -0.04669676 -0.04686223 -0.04702781 -0.0471835 -0.04732817 -0.04746471 -0.0475934 -0.04772106
 -0.04784776 -0.047977 -0.04810848 -0.04824273 -0.04837944 -0.04851817 -0.04865821 -0.04879812 -0.04893708 -0.04907364
 -0.04920665 -0.0493346 -0.04945668 -0.04957108 -0.04968065 -0.04978491 -0.04989163 -0.05000281 -0.05012493 -0.0502607
 -0.05040623 -0.05056227 -0.05071516 -0.05086404 -0.05099669 -0.0511128 -0.05121038 -0.05129009 -0.05135673 -0.05141052
 -0.05145472 -0.0514898 -0.05151746 -0.05154121 -0.05156779 -0.0516021 -0.05165467 -0.05172487 -0.05181779 -0.05192503
 -0.05204315 -0.0521642 -0.05228298 -0.05239883 -0.05251003 -0.05261989 -0.05272889 -0.0528389 -0.05295026 -0.05306374
 -0.05317947 -0.053297 -0.05341618 -0.05353283 -0.05364649 -0.05375118 -0.05384738 -0.05393348 -0.05401159 -0.05408671
 -0.05416096 -0.05424116 -0.05432765 -0.05442441 -0.05452896 -0.05464127 -0.05475632 -0.05487135 -0.0549813 -0.05508273
 -0.05517498 -0.05525615 -0.05533178 -0.05540212 -0.05547507 -0.05555173 -0.05563634 -0.05572941 -0.05583011 -0.05593833
 -0.05605106 -0.05616813 -0.05628699 -0.0564075 -0.05652754 -0.05664734 -0.05676631 -0.05688513 -0.0570052 -0.05712625
 -0.05724911 -0.0573717 -0.05749236 -0.05760965 -0.05772155 -0.05782951 -0.05793349 -0.05803563 -0.05813693 -0.05823691
 -0.05833564 -0.05843233 -0.05852663 -0.05862048 -0.05871397 -0.05881002 -0.05890873 -0.05901057 -0.05911531 -0.05922122
 -0.05932809 -0.05943409 -0.05953901 -0.05964133 -0.05974075 -0.05983595 -0.0599268 -0.06001228 -0.06009336 -0.06017014
 -0.06024498 -0.06031933 -0.06039524 -0.06047431 -0.0605564 -0.06064203 -0.06072961 -0.06081879 -0.06090911 -0.06100046
 -0.06109275 -0.06118607 -0.06127788 -0.06136801 -0.0614523 -0.06153081 -0.06160216 -0.06166721 -0.06172923 -0.06178902
 -0.0618509 -0.06191459 -0.06198185 -0.06205141 -0.06212198 -0.06219333 -0.06226432 -0.0623365 -0.06241062 -0.06248767
 -0.06256901 -0.06265223 -0.06273746 -0.06281973 -0.06289797 -0.06296915 -0.06303234 -0.06308931 -0.06313988 -0.06319071
 -0.06324219 -0.06330214 -0.0633704 -0.06344924 -0.06353707 -0.06362754 -0.06371915 -0.06380329 -0.06388109 -0.06395044
 -0.06401377 -0.06407419 -0.06413192 -0.06418874 -0.06424291 -0.06429323 -0.06434029 -0.06438344 -0.06442592 -0.06446856
 -0.06451381 -0.0645623 -0.06461541 -0.06467321 -0.06473845 -0.06481139 -0.06489351 -0.06498474 -0.06508043 -0.06517971
 -0.0652725 -0.06535848 -0.06543021 -0.0654897 -0.06553856 -0.06558044 -0.06562366 -0.06567071 -0.06572931 -0.06579857
 -0.06588093 -0.06597321 -0.0660741 -0.06618062 -0.06629129 -0.06640322 -0.06651575 -0.06662431 -0.0667282 -0.06682201
 -0.06690455 -0.06697556 -0.06703452 -0.06709033 -0.06714349 -0.06720496 -0.06727446 -0.06735374 -0.06744115 -0.06752906
 -0.06761687 -0.06769808 -0.06777453 -0.06784707 -0.06791714 -0.06798777 -0.06805786 -0.06812752 -0.06819521 -0.06825918
 -0.06832086 -0.0683798 -0.06844002 -0.0685026 -0.06857081 -0.06864607 -0.06872706 -0.06881442 -0.06890088 -0.06898604
 -0.06906123 -0.06912614 -0.06917907 -0.06922093 -0.0692599 -0.06929721 -0.0693439 -0.06939927 -0.0694678 -0.06954616
 -0.06962997 -0.06971555 -0.06979517 -0.06986804 -0.06992968 -0.06998329 -0.07002915 -0.07007223 -0.07011503 -0.0701607
 -0.07021113 -0.07026634 -0.07032706 -0.07039041 -0.07045623 -0.07052097 -0.07058425 -0.07064548 -0.07070472 -0.07076641
 -0.07083076 -0.0709022 -0.07097968 -0.07106068 -0.07114297 -0.07121786 -0.07128456 -0.07133639 -0.07137582 -0.07140277
 -0.07142222 -0.07143879 -0.07145736 -0.07148296 -0.07151782 -0.0715653 -0.07162189 -0.07168827 -0.07175589 -0.07182305
 -0.07188323 -0.07193452 -0.07198004 -0.07201956 -0.07206216 -0.07210819 -0.07216141 -0.07222116 -0.07228187 -0.07234304
 -0.07239879 -0.0724502 -0.07249759 -0.07254224 -0.07258765 -0.07263298 -0.0726788 -0.07272327 -0.0727644 -0.07280158
 -0.07283326 -0.07286117 -0.07288522 -0.07290903 -0.07293359 -0.07296254 -0.07299731 -0.07303741 -0.07308361 -0.07312923
 -0.07317381 -0.07321095 -0.07324044 -0.07326515 -0.07328618 -0.07331637 -0.07335651 -0.07341827 -0.07349977 -0.0736015
 -0.0737202 -0.07384817 -0.07398548 -0.07412697 -0.07427917 -0.07444572 -0.07463606 -0.07485874 -0.07511778 -0.07541858
 -0.07575748 -0.07613436 -0.07654567 -0.07698943 -0.07747062 -0.07798985 -0.07855074 -0.07915477 -0.07978593 -0.08044314
 -0.08108698 -0.08171422 -0.0822785 -0.08277456 -0.08315366 -0.08340529 -0.08346708 -0.08333647 -0.08295979 -0.08238494
 -0.08164506 -0.08082989 -0.08005153 -0.07935686 -0.07882274 -0.07843948 -0.07822344 -0.07814974 -0.07821649 -0.07839025
 -0.07867099 -0.07898941 -0.07933966 -0.07963417 -0.07986201 -0.08000918 -0.080075 -0.08011265 -0.08012263 -0.08012754
 -0.08012231 -0.08008867 -0.0800259 -0.07991991 -0.07977818 -0.07960976 -0.07942345 -0.07923799 -0.07905529 -0.07888602
 -0.07872452 -0.07857021 -0.07841679 -0.07825936 -0.0781001 -0.07793738 -0.07778016 -0.07763019 -0.0774943 -0.07737431
 -0.07726965 -0.07718075 -0.07710156 -0.07703176 -0.07696344 -0.07689636 -0.07682516 -0.07675048 -0.07667278 -0.07659345
 -0.07651726 -0.07644524 -0.07638212 -0.07632813 -0.07628635 -0.07625476 -0.07623326 -0.07621699 -0.07620259 -0.0761855
 -0.07616132 -0.07613225 -0.07609697 -0.07606336 -0.07603332 -0.07601111 -0.07599828 -0.07599144 -0.07599047 -0.07599165
 -0.0759948 -0.07600244 -0.07601481 -0.07603608 -0.07606564 -0.07610225 -0.07614452 -0.07618675 -0.07622845 -0.07626529
 -0.07629825 -0.07632697 -0.07635258 -0.07637628 -0.07639857 -0.0764204 -0.07644139 -0.07646166 -0.07648063 -0.07649811
 -0.07651368 -0.07652701 -0.0765389 -0.07654923 -0.07656041 -0.07657264 -0.07658801 -0.07660663 -0.07662767 -0.07665089
 -0.07667314 -0.07669407 -0.07670996 -0.07672067 -0.07672357 -0.07671925 -0.07670733 -0.07668973 -0.07666891 -0.0766475
 -0.07662962 -0.07661608 -0.07660955 -0.0766075 -0.07660971 -0.07661238 -0.07661366 -0.07661309 -0.07660944 -0.07660744
 -0.07660742 -0.07661506 -0.07663122 -0.07665557 -0.07668814 -0.0767205 -0.07675213 -0.07677365 -0.07678578 -0.07678735
 -0.07678074 -0.07677378 -0.07676826 -0.07677318 -0.07678676 -0.0768111 -0.07684118 -0.07687222 -0.07690039 -0.07692012
 -0.07693303 -0.07693775 -0.07693923 -0.07693933 -0.07693988 -0.07694218 -0.07694382 -0.07694443 -0.0769435 -0.07694066
 -0.07693985 -0.07694127 -0.07694817 -0.07696049 -0.07697786 -0.0770001 -0.07702605 -0.07705569 -0.07708878 -0.07712433
 -0.07716025 -0.07719445 -0.07722214 -0.07724293 -0.07725364 -0.07725742 -0.07725538 -0.0772513 -0.07724794 -0.07724611
 -0.07724684 -0.07724943 -0.07725357 -0.07726031 -0.07726963 -0.07728357 -0.07730252 -0.07732523 -0.07735167 -0.07737721
 -0.07740165 -0.07742108 -0.07743582 -0.0774455 -0.07745073 -0.07745348 -0.07745424 -0.07745497 -0.07745628 -0.07745986
 -0.07746658 -0.07747825 -0.07749473 -0.07751708 -0.07754281 -0.07757114 -0.07759909 -0.07762475 -0.07764914 -0.07767157
 -0.07769679 -0.07772568 -0.07776023 -0.07780118 -0.077843 -0.07788544 -0.07791951 -0.07794503 -0.07795749 -0.07795772
 -0.0779483 -0.0779307 -0.07791159 -0.07789199 -0.07787805 -0.07786911 -0.0778672 -0.07787026 -0.07787648 -0.07788489
 -0.07789338 -0.07790407 -0.07791726 -0.07793574 -0.07796124 -0.07799279 -0.07803113 -0.07807147 -0.07811327 -0.07815176
 -0.07818627 -0.07821516 -0.07823829 -0.07825668 -0.07827049 -0.07828182 -0.07829089 -0.07830011 -0.07830948 -0.07832063
 -0.07833286 -0.0783455 -0.07835714 -0.0783646 -0.07836828 -0.0783663 -0.0783626 -0.07835953 -0.07836077 -0.07837016
 -0.07838543 -0.07840736 -0.0784301 -0.07845163 -0.07847152 -0.07848871 -0.07850898 -0.07853298 -0.07856303 -0.07859937
 -0.07863653 -0.07867413 -0.07870489 -0.07872926 -0.07874632 -0.0787574 -0.07876733 -0.07877668 -0.07878974 -0.07880528
 -0.07882326 -0.07884207 -0.07885942 -0.07887528 -0.07888851 -0.07890074 -0.07891253 -0.07892524 -0.07893957 -0.07895596
 -0.07897466 -0.07899573 -0.07901941 -0.07904407 -0.0790697 -0.07909323 -0.07911446 -0.07913163 -0.0791449 -0.07915675
 -0.07916759 -0.07918161 -0.07919866 -0.07922066 -0.07924651 -0.07927455 -0.07930333 -0.07932941 -0.07935237 -0.0793699
 -0.07938351 -0.07939359 -0.07940175 -0.07940923 -0.0794163 -0.0794232 -0.07943049 -0.07943782 -0.07944849 -0.07946297
 -0.07948405 -0.07951248 -0.07954475 -0.07958075 -0.0796122 -0.07963885 -0.07965594 -0.07966433 -0.07966732 -0.07966646
 -0.07966971 -0.07967742 -0.07969519 -0.07972087 -0.07975369 -0.07979016 -0.07982548 -0.07985787 -0.07988357 -0.07990414
 -0.07991917 -0.07993136 -0.07994182 -0.07995196 -0.07996251 -0.0799733 -0.07998443 -0.07999533 -0.08000596 -0.08001607
 -0.08002562 -0.08003545 -0.0800456 -0.08005735 -0.08007052 -0.08008487 -0.08009982 -0.08011286 -0.08012384 -0.08013079
 -0.08013479 -0.08013661 -0.08013797 -0.08014142 -0.08014776 -0.08015885 -0.08017389 -0.08019331 -0.08021481 -0.08023787
 -0.08025952 -0.08027897 -0.08029387 -0.0803035 -0.08030798 -0.08030708 -0.08030353 -0.08029748 -0.08029094 -0.08028392
 -0.08027627 -0.080268 -0.08025888 -0.08024928 -0.08024074 -0.08023316 -0.08022746 -0.08022241 -0.08021595 -0.08020791
 -0.0801963 -0.08018412 -0.08017288 -0.08016624 -0.08016788 -0.08017588 -0.08019164 -0.08020717 -0.08022056 -0.08022584
 -0.08022079 -0.08020818 -0.08018771 -0.08016684 -0.08014608 -0.08012867 -0.08011452 -0.08010124 -0.08008874 -0.08007481
 -0.0800603 -0.0800475 -0.08003739 -0.08003414 -0.0800372 -0.08004805 -0.08006418 -0.08008342 -0.08010261 -0.08011825
 -0.08012836 -0.08013049 -0.08012476 -0.08011024 -0.08008926 -0.08006194 -0.0800319 -0.07999969 -0.07996837 -0.07993835
 -0.07991131 -0.0798874 -0.07986734 -0.07985116 -0.07983883 -0.07983025 -0.07982463 -0.07982174 -0.07982004 -0.07981987
 -0.07982132 -0.07982463 -0.07983126 -0.07983858 -0.07984503 -0.07984472 -0.07983115 -0.07980292 -0.07975458 -0.07969645
 -0.0796301 -0.07956972 -0.07952051 -0.07948682 -0.07947162 -0.07946695 -0.07947268 -0.07947719 -0.07947963 -0.07947387
 -0.07945991 -0.07943901 -0.0794117 -0.07938265 -0.07935206 -0.07932328 -0.07929596 -0.07927063 -0.07924717 -0.07922564
 -0.07920574 -0.07918762 -0.07916968 -0.07915096 -0.07912915 -0.07910218 -0.07907007 -0.07903191 -0.07898986 -0.07894413
 -0.07889736 -0.07884987 -0.0788046 -0.07876179 -0.07872483 -0.07869403 -0.07867081 -0.07865512 -0.07864544 -0.07864156
 -0.07864122 -0.0786442 -0.07864876 -0.0786539 -0.07865664 -0.07865471 -0.07864237 -0.07861833 -0.0785774 -0.0785227
 -0.07845394 -0.07837828 -0.07829981 -0.07822448 -0.07815647 -0.07809607 -0.07804498 -0.07799829 -0.07795531 -0.07791214
 -0.07786776 -0.07782456 -0.07778247 -0.07774881 -0.07772382 -0.07771228 -0.07771297 -0.07771965 -0.07772889 -0.07772194
 -0.07769739 -0.07763892 -0.07755355 -0.07744554 -0.07732537 -0.0772095 -0.07710227 -0.0770139 -0.07694387 -0.07689548
 -0.07686452 -0.07685203 -0.07684598 -0.07684467 -0.07683118 -0.07680133 -0.07674829 -0.07666945 -0.07657529 -0.07646619
 -0.07635667 -0.0762472 -0.07614354 -0.07604536 -0.07595238 -0.07586456 -0.07578145 -0.07570357 -0.07563242 -0.07556774
 -0.07551078 -0.0754582 -0.07540653 -0.07535174 -0.07528711 -0.07521612 -0.07513712 -0.07506064 -0.07499201 -0.0749337
 -0.07488999 -0.07484845 -0.07480815 -0.07475375 -0.07468244 -0.07459262 -0.0744836 -0.07436762 -0.07424517 -0.07412501
 -0.07400578 -0.0738803 -0.07374666 -0.07359058 -0.07341535 -0.07322155 -0.07301667 -0.07281702 -0.07262406 -0.07244815
 -0.07228371 -0.07212898 -0.07197951 -0.07183079 -0.07168429 -0.07153933 -0.07139888 -0.0712643 -0.07113484 -0.07101193
 -0.0708859 -0.07075712 -0.07060322 -0.07042244 -0.07020111 -0.06993972 -0.06966206 -0.06937079 -0.06910071 -0.06884934
 -0.06862448 -0.06842028 -0.06822357 -0.06803082 -0.06782819 -0.06761625 -0.06738907 -0.0671513 -0.06690441 -0.06665505
 -0.06640977 -0.06616628 -0.06592903 -0.06567878 -0.06541104 -0.0651092 -0.06476592 -0.06439347 -0.06399173 -0.06358019
 -0.0631609 -0.06273153 -0.06229195 -0.06183654 -0.06136629 -0.06088947 -0.06040477 -0.05991346 -0.05940719 -0.05886089
 -0.05827036 -0.05760815 -0.05689275 -0.05613531 -0.05536098 -0.05460298 -0.05386082 -0.05314632 -0.05244583 -0.05175384
 -0.05106863 -0.05038758 -0.04971657 -0.04906042 -0.04839844 -0.04773357 -0.04699779 -0.04618563 -0.0452546 -0.04420584
 -0.04312465 -0.04201728 -0.04098253 -0.0400073 -0.03908022 -0.03818668 -0.03727454 -0.03634414 -0.03537326 -0.03436236
 -0.03331231 -0.03219599 -0.03099892 -0.02966357 -0.02814503 -0.02641363 -0.02442007 -0.02225504 -0.01991827 -0.01757478
 -0.01526307 -0.01306404 -0.01099927 -0.009051444 -0.007222973 -0.005452122 -0.003734053 -0.001951495 -9.281386E-05 0.002014114
 0.004349795 0.00694133 0.009700921 0.01235456 0.01488718 0.01710508 0.01911167 0.02097734 0.02277811 0.02462837
 0.02652523 0.02850452 0.03053541 0.03260917 0.03471374 0.03685107 0.03897753 0.04108846 0.04312454 0.04507113
 0.04695148 0.04876564 0.05055641 0.05232351 0.05399906 0.05557715 0.05696231 0.05817436 0.05925223 0.06023623
 0.06128289 0.06238788 0.06364557 0.06496242 0.06622785 0.06741387 0.06842402 0.06934547 0.07022253 0.07107815
 0.0719542 0.07277406 0.07351914 0.07414266 0.07462101 0.07499576 0.07526501 0.07550817 0.07573218 0.07598096
 0.07625529 0.07651268 0.07674927 0.07690781 0.07699425 0.07700754 0.0769581 0.07687536 0.07677073 0.07668126
 0.07661544 0.07660366 0.0766423 0.07673669 0.07688792 0.07709064 0.07737283 0.07774706 0.07823089 0.0788436
 0.07953927 0.08031309 0.08111585 0.08193375 0.0827956 0.08370078 0.0847134 0.08583617 0.08709549 0.08848929
 0.09000558 0.09164365 0.09339437 0.09525856 0.09723505 0.0993225 0.1015154 0.1038182 0.1062307 0.1087684
 0.1114439 0.1142788 0.1172881 0.1204993 0.1239227 0.1276017 0.1315449 0.1358172 0.1404354 0.1454385
 0.1508476 0.1565675 0.1626022 0.1686892 0.1748128 0.1806205 0.1860812 0.1907582 0.1946116 0.1971704
 0.1984852 0.1984215 0.1971589 0.1950035 0.1921282 0.188902 0.1854761 0.1821287 0.1789733 0.176201
 0.173762 0.1717115 0.1698564 0.1681553 0.1664122 0.164556 0.1625908 0.1604829 0.1584966 0.1566569
 0.155058 0.1537033 0.1524842 0.1514032 0.1504446 0.149628 0.1490508 0.1487224 0.1487447 0.1490666
 0.1497013 0.1504062 0.1509381 0.150777 0.1492265 0.1461469 0.1410285 0.1345633 0.1269646 0.1187632
 0.1101845 0.1015115 0.09279699 0.08448273 0.07663537 0.06958275 0.06337537 0.05791583 0.05319827 0.04891585
 0.04506033 0.04143894 0.0380649 0.03491202 0.0319876 0.02930863 0.02685731 0.02460803 0.0225298 0.02056614
 0.01869188 0.01686258 0.01505626 0.01325186 0.0114092 0.009501037 0.007509237 0.005388078 0.003293305 0.001236562
 -0.0005619886 -0.002045522 -0.003277187 -0.00425064 -0.00515446 -0.005997531 -0.006862736 -0.007745076 -0.008614236 -0.009462862
 -0.01023498 -0.01093218 -0.01153777 -0.01204057 -0.01241864 -0.01263382 -0.01261709 -0.01234388 -0.01175012 -0.01086431
 -0.009681668 -0.008250067 -0.006590414 -0.004742763 -0.002722651 -0.0005657268 0.001713771 0.004115931 0.006636363 0.009309174
 0.01214486 0.01504589 0.0180056 0.02069056 0.02309021 0.02496703 0.02635022 0.02728622 0.02779399 0.0279608
 0.02778689 0.02729727 0.02653183 0.02554125 0.02442 0.02326943 0.02221569 0.02138495 0.02084896 0.02071461
 0.02085732 0.02126949 0.0217842 0.02234512 0.0229417 0.02355822 0.0242609 0.02505568 0.02597078 0.02700758
 0.0281257 0.02932264 0.03055218 0.03182166 0.03314631 0.03454005 0.03606773 0.03771625 0.03950559 0.04137305
 0.04322417 0.04502467 0.0466762 0.04824536 0.04974122 0.051257 0.05285315 0.05455022 0.05638136 0.05828715
 0.06026324 0.06224002 0.0642065 0.06611857 0.06797346 0.06971013 0.07132494 0.07270917 0.07385817 0.07468186
 0.07518513 0.07535117 0.07518467 0.07469536 0.07387827 0.0727245 0.07123417 0.06939471 0.06723314 0.06476454
 0.06204184 0.05910584 0.05600551 0.05277919 0.04944408 0.04601385 0.04249413 0.03887734 0.03522891 0.03154692
 0.02797107 0.02451473 0.02127071 0.01824455 0.01540867 0.0127593 0.01023638 0.007845348 0.005587015 0.003472172
 0.001545466 -0.0002010516 -0.001756169 -0.003150464 -0.004424685 -0.005611945 -0.006764396 -0.007902735 -0.009061519 -0.01024167
 -0.01145742 -0.01268563 -0.01392465 -0.01513953 -0.01632043 -0.01745051 -0.01852299 -0.01955251 -0.02053954 -0.02150242
 -0.02244225 -0.02334171 -0.02419752 -0.02496012 -0.02562914 -0.02617455 -0.02660464 -0.0269327 -0.02716719 -0.02733472
 -0.02743923 -0.02749762 -0.02751424 -0.02749891 -0.02745837 -0.02739955 -0.027331 -0.02725706 -0.02719033 -0.02713461
 -0.02710549 -0.02710684 -0.02715182 -0.02724296 -0.02738889 -0.02759087 -0.02785188 -0.02817217 -0.02854745 -0.02897702
 -0.02945147 -0.02996868 -0.03051319 -0.03107911 -0.03163886 -0.03218386 -0.03267953 -0.03312197 -0.03348777 -0.03378129
 -0.03399744 -0.03414481 -0.03422691 -0.03425572 -0.03423609 -0.03418538 -0.03410982 -0.03402577 -0.033939 -0.03385577
 -0.03377853 -0.03370509 -0.03363561 -0.03356619 -0.03349664 -0.033424 -0.03334855 -0.03327236 -0.03319731 -0.03313544
 -0.03308965 -0.03307683 -0.03309876 -0.03316803 -0.03328542 -0.03345781 -0.03368524 -0.03397167 -0.03431263 -0.03470843
 -0.03514665 -0.03562284 -0.03612007 -0.03663199 -0.03714389 -0.03765108 -0.03814453 -0.03862232 -0.03907799 -0.03951111
 -0.03991207 -0.0402803 -0.04060596 -0.04088934 -0.04113228 -0.04133724 -0.04152082 -0.04168441 -0.04184381 -0.04199475
 -0.04213648 -0.04226025 -0.04235113 -0.04240269 -0.04239932 -0.04234492 -0.04223371 -0.04208335 -0.04189892 -0.04170526
 -0.04151265 -0.04133794 -0.04118903 -0.04106518 -0.0409685 -0.04088752 -0.04082121 -0.04076181 -0.04070875 -0.04066395
 -0.04062766 -0.0406046 -0.04059426 -0.04059594 -0.04060856 -0.0406269 -0.04065216 -0.04068375 -0.04072547 -0.04078412
 -0.04086075 -0.04096125 -0.04107943 -0.04121318 -0.04135403 -0.04149552 -0.04163666 -0.04177421 -0.04191516 -0.04206086
 -0.04221605 -0.04238272 -0.04255585 -0.04273526 -0.04291459 -0.04309334 -0.04327695 -0.04346624 -0.04367591 -0.04390559
 -0.04416139 -0.04443946 -0.04472907 -0.04502558 -0.04531206 -0.04558592 -0.04583501 -0.04605877 -0.04625066 -0.04641463
 -0.04654893 -0.04666667 -0.04677239 -0.04688425 -0.04701051 -0.04716161 -0.04734352 -0.04755194 -0.04778836 -0.04803821
 -0.04830056 -0.04855915 -0.04881293 -0.04905033 -0.04927099 -0.04946882 -0.04964359 -0.04979061 -0.04990987 -0.04999784
 -0.05005677 -0.05008933 -0.05010073 -0.05010072 -0.05009439 -0.05009238 -0.05009546 -0.05010972 -0.05012807 -0.05015103
 -0.0501619 -0.05015625 -0.05011386 -0.0500282 -0.04988849 -0.0496904 -0.04943928 -0.04913429 -0.04879233 -0.04841428
 -0.04802074 -0.04761269 -0.04720766 -0.04680547 -0.04641412 -0.04603179 -0.04565583 -0.04528419 -0.04490997 -0.04453279
 -0.04414841 -0.04375839 -0.04336245 -0.04296362 -0.04256378 -0.04216695 -0.04177516 -0.04139379 -0.04102411 -0.04067501
 -0.0403483 -0.04005415 -0.03979551 -0.03957257 -0.03938687 -0.0392227 -0.03907932 -0.03893559 -0.03879075 -0.03863129
 -0.03845722 -0.03826224 -0.03804598 -0.03780336 -0.03753414 -0.03723464 -0.03690583 -0.03654737 -0.03616121 -0.03574893
 -0.03531407 -0.03485909 -0.03439001 -0.03391056 -0.03342631 -0.03294092 -0.03245497 -0.03197058 -0.03148054 -0.03098511
 -0.03047035 -0.02993532 -0.02936335 -0.02875335 -0.02809107 -0.02737644 -0.02660636 -0.02578532 -0.02493905 -0.02408041
 -0.02327352 -0.02253115 -0.02192495 -0.02144679 -0.02112293 -0.02091949 -0.02080739 -0.02075112 -0.0207085 -0.02066383
 -0.02059496 -0.02050176 -0.02037924 -0.02023041 -0.020055 -0.01985697 -0.01963717 -0.01939734 -0.01913846 -0.01885358
 -0.01854251 -0.01819189 -0.01780111 -0.01735892 -0.01686604 -0.01632075 -0.01572705 -0.01509831 -0.01444235 -0.01378491
 -0.01313565 -0.01252231 -0.01195479 -0.01145506 -0.01103337 -0.01070596 -0.01047833 -0.01036061 -0.01034567 -0.01043631
 -0.0106115 -0.01086897 -0.01117829 -0.01153588 -0.01190564 -0.012284 -0.0126367 -0.0129612 -0.01323525 -0.01345836
 -0.01362436 -0.01373439 -0.01379365 -0.01380391 -0.01377521 -0.01370868 -0.01361219 -0.01348664 -0.01333553 -0.01316414
 -0.01297791 -0.01278902 -0.01260856 -0.01244972 -0.01232312 -0.01223787 -0.01219939 -0.01221552 -0.0122897 -0.01242547
 -0.01262563 -0.01288071 -0.01319089 -0.01353791 -0.01392057 -0.0143248 -0.01474995 -0.01518597 -0.01563186 -0.01607499
 -0.01651491 -0.01694204 -0.01735837 -0.01776432 -0.01816229 -0.01855695 -0.0189497 -0.01934287 -0.01974129 -0.02014759
 -0.0205732 -0.02102399 -0.02151429 -0.02205125 -0.0226445 -0.02329924 -0.02401491 -0.02479313 -0.02562572 -0.02651209
 -0.02744423 -0.02842164 -0.02943683 -0.03048905 -0.03156331 -0.03265775 -0.0337511 -0.03484193 -0.03591324 -0.03696372
 -0.03798206 -0.03896514 -0.03990167 -0.04079013 -0.04162235 -0.04240309 -0.04313295 -0.0438191 -0.04446651 -0.04507868
 -0.04565814 -0.04620684 -0.04672503 -0.04721759 -0.04768476 -0.04813428 -0.0485666 -0.04899208 -0.0494114 -0.04983426
 -0.05026072 -0.05068973 -0.05111926 -0.05153318 -0.05192855 -0.05228367 -0.05259763 -0.05285544 -0.05306077 -0.05321143
 -0.05331697 -0.0533882 -0.05343503 -0.05347211 -0.05349917 -0.05352204 -0.05353177 -0.05352435 -0.05349919 -0.05345292
 -0.05339871 -0.05333827 -0.05328342 -0.05323637 -0.05319794 -0.05316838 -0.05314591 -0.05313055 -0.05312441 -0.05312743
 -0.05314083 -0.05316339 -0.05319116 -0.05322149 -0.05324554 -0.05325988 -0.05325384 -0.05322526 -0.05316617 -0.05307793
 -0.05295824 -0.05281147 -0.05263874 -0.05244682 -0.05223761 -0.05202094 -0.05179893 -0.05158359 -0.05137716 -0.05119017
 -0.05102427 -0.05088514 -0.05077355 -0.0506871 -0.05062536 -0.0505771 -0.05054159 -0.05050714 -0.05047485 -0.05044322
 -0.05041447 -0.05039492 -0.05038404 -0.05038478 -0.05039311 -0.05040511 -0.05041663 -0.05042265 -0.05042 -0.05040578
 -0.05037627 -0.05032952 -0.0502619 -0.05017159 -0.05005826 -0.04992116 -0.04976327 -0.04958497 -0.04938734 -0.04917056
 -0.0489326 -0.0486735 -0.04839528 -0.04809896 -0.04779459 -0.04748263 -0.04717147 -0.04685869 -0.04654083 -0.0462175
 -0.04588329 -0.04554671 -0.04521576 -0.04490165 -0.04462035 -0.04437082 -0.04416055 -0.04397398 -0.04380672 -0.04364398
 -0.04347926 -0.04330948 -0.04313224 -0.04295181 -0.04276818 -0.04258742 -0.04240984 -0.04224332 -0.04208821 -0.04195124
 -0.0418316 -0.04172607 -0.04163202 -0.04153511 -0.04143417 -0.04131697 -0.04118686 -0.04104481 -0.04089383 -0.04074056
 -0.04058078 -0.04041393 -0.0402325 -0.04003061 -0.03980596 -0.03955589 -0.03928067 -0.03898027 -0.03865291 -0.0382968
 -0.03791943 -0.03751964 -0.03712206 -0.03672832 -0.03636092 -0.03602042 -0.03570459 -0.03541181 -0.0351252 -0.0348457
 -0.03456835 -0.03429655 -0.03403974 -0.03379608 -0.03356889 -0.03334869 -0.03312341 -0.03288623 -0.03262321 -0.03234076
 -0.03203713 -0.03172552 -0.03141253 -0.0311032 -0.03080158 -0.03050384 -0.03020962 -0.02991689 -0.02962505 -0.02933585
 -0.02904953 -0.02876377 -0.0284784 -0.02818876 -0.02789506 -0.02759736 -0.02729622 -0.02699479 -0.02669241 -0.02638886
 -0.02608296 -0.02577151 -0.02545571 -0.02513467 -0.0248132 -0.0244948 -0.02418599 -0.02389251 -0.02361742 -0.0233645
 -0.023131 -0.02291751 -0.02271814 -0.0225325 -0.02235176 -0.02217538 -0.02199074 -0.02179675 -0.02158516 -0.02135577
 -0.02111323 -0.02085811 -0.02059831 -0.02033281 -0.02006051 -0.01978035 -0.01948786 -0.01918432 -0.01887054 -0.01854732
 -0.01821588 -0.01787738 -0.01753061 -0.01718543 -0.01684582 -0.01652732 -0.01623974 -0.01598657 -0.01577448 -0.01558626
 -0.01542134 -0.01525376 -0.0150796 -0.0148839 -0.01466428 -0.01442949 -0.0141802 -0.01393989 -0.01370869 -0.0134977
 -0.01330396 -0.01311748 -0.01293749 -0.01275495 -0.01257427 -0.01240139 -0.01223756 -0.01208914 -0.01195027 -0.01181781
 -0.01168532 -0.01154793 -0.01139989 -0.0112385 -0.01105568 -0.0108479 -0.01061198 -0.01034518 -0.01005558 -0.009743315
 -0.009420305 -0.009087303 -0.008757172 -0.008430583 -0.008119939 -0.007823646 -0.007533299 -0.007241771 -0.006908515 -0.006527876
 -0.006057041 -0.00550346 -0.00485768 -0.004140523 -0.003375235 -0.002587306 -0.001811213 -0.001062667 -0.0003650218 0.0002823671
 0.0008783197 0.001410065 0.001883763 0.002238939 0.002465332 0.002505578 0.002340468 0.002022216 0.001547898 0.001073166
 0.0006057725 0.0002736374 7.418382E-05 2.902751E-05 0.000125703 0.0003131413 0.0005809048 0.0008692631 0.001174986 0.001461899
 0.001732477 0.001975323 0.002193295 0.002386446 0.002553498 0.002693771 0.002805555 0.002886654 0.002940825 0.002967353
 0.002976275 0.002968086 0.002959414 0.002951817 0.002964244 0.002998522 0.003065097 0.003164588 0.003305108 0.003488221
 0.003735418 0.004045635 0.004429383 0.004874767 0.005348954 0.005841343 0.00630832 0.006757439 0.007181763 0.007589321
 0.007989242 0.008376849 0.008744832 0.009112461 0.009475339 0.009897272 0.01040755 0.01100928 0.011728 0.01243299
 0.01310661 0.01367281 0.01411968 0.01447293 0.01473352 0.01493019 0.01506311 0.01514307 0.01516917 0.01514381
 0.01506356 0.01491749 0.01470506 0.01441502 0.01406051 0.01365426 0.01321401 0.01276377 0.01231301 0.0118731
 0.01145781 0.01107279 0.01074212 0.01047611 0.01028552 0.01017809 0.01013718 0.01016353 0.01022585 0.01032232
 0.01041663 0.01050677 0.01055847 0.01057103 0.01052602 0.0104236 0.01025635 0.01002187 0.009705845 0.009311398
 0.00883096 0.008287616 0.007710116 0.007126529 0.006581231 0.006079628 0.00563996 0.005258714 0.004938573 0.004675628
 0.004474712 0.004305871 0.0041647 0.0040187 0.00385825 0.003699839 0.003543004 0.003422722 0.003340574 0.00328998
 0.003269625 0.003259117 0.003262367 0.003291534 0.003350532 0.003461303 0.003619745 0.003828391 0.004079575 0.004363825
 0.004671715 0.004990776 0.005311149 0.005620959 0.005917262 0.006196104 0.006455193 0.006695536 0.006903661 0.00707669
 0.007204477 0.007283594 0.007321378 0.007318088 0.007280999 0.007210513 0.00711045 0.006982845 0.006852873 0.00672403
 0.00663207 0.006572881 0.006552515 0.006562391 0.00658365 0.00661623 0.006651587 0.006692361 0.006740514 0.006791315
 0.006842009 0.006888396 0.006927838 0.006957145 0.0069765 0.006975164 0.006949535 0.006898215 0.006817644 0.006732013
 0.006642533 0.006578221 0.006540674 0.006544979 0.006590975 0.006683315 0.006817651 0.006975082 0.007144728 0.007277475
 0.007368962 0.007380045 0.007323956 0.007202965 0.007034434 0.006837961 0.006626906 0.006414877 0.006218346 0.006050621
 0.005916229 0.005824809 0.005752327 0.00569452 0.005633543 0.005562363 0.005501898 0.005453385 0.005437131 0.005454265
 0.005473241 0.005490541 0.00544951 0.005352651 0.005180971 0.004949495 0.004697743 0.004445008 0.004260764 0.004143019
 0.004130827 0.004183221 0.004272917 0.004354939 0.004376847 0.004342643 0.004230699 0.004091369 0.003936128 0.003812114
 0.003736259 0.003717953 0.003766056 0.003842011 0.003945396 0.004006325 0.004020815</values></Ydata></AB><ScSm><Ydata ylabel="Single channel"><values byteorder="INTEL" format="FLOAT32" numvalues="1814"> 0.0718994 0.07191557 0.07198966 0.07214436 0.07235286 0.07255429 0.07269955 0.0727846 0.0728296 0.0728365
 0.07280094 0.07276458 0.0728074 0.07296611 0.07318304 0.07334971 0.07339701 0.07335697 0.07334296 0.07343705
 0.07357325 0.0735592 0.07325406 0.07273027 0.07222918 0.07194293 0.07189432 0.07207386 0.07255936 0.07329401
 0.07383387 0.07366452 0.07285006 0.07206127 0.07183243 0.07204895 0.07225935 0.0721906 0.07183497 0.07135887
 0.07115004 0.07170445 0.07314073 0.07480975 0.07553129 0.07433434 0.07114653 0.0670221 0.06376062 0.06294189
 0.06480754 0.0679359 0.07030945 0.07092369 0.070269 0.06932093 0.06850009 0.06778525 0.06736437 0.06766681
 0.06876305 0.06996539 0.07016981 0.06878322 0.06643115 0.06453484 0.06402144 0.06472664 0.06613633 0.0679519
 0.06932759 0.06842605 0.06422317 0.05880477 0.05643876 0.05951349 0.06598891 0.07140772 0.07286574 0.07060819
 0.06671239 0.06337336 0.06210537 0.06332062 0.06622294 0.06948125 0.07205635 0.07325007 0.07251474 0.06992663
 0.06665616 0.06439506 0.06431288 0.06660745 0.07046813 0.0741374 0.07570741 0.07453713 0.0716794 0.06875864
 0.06689964 0.06674232 0.06859399 0.07209352 0.07620216 0.07982644 0.08227031 0.08327293 0.08304222 0.08213153
 0.08102418 0.08006066 0.07974166 0.0804139 0.08146032 0.08154181 0.08006532 0.07798143 0.07680441 0.07704806
 0.07781921 0.07790087 0.07697751 0.07541813 0.07306667 0.06925869 0.06433332 0.05999718 0.05761492 0.05718883
 0.05839776 0.06112063 0.06421272 0.06542195 0.06384943 0.0615283 0.06138668 0.06412493 0.06786495 0.0704731
 0.07153763 0.07221819 0.07373732 0.07611971 0.07803082 0.07777606 0.07498102 0.07153842 0.0702712 0.07216397
 0.07542199 0.07768543 0.07851905 0.07914966 0.080328 0.08117361 0.0800868 0.07663841 0.07261336 0.07092343
 0.07307132 0.07764325 0.08132927 0.08137389 0.0774328 0.07166599 0.06705488 0.06533742 0.06652183 0.07000025
 0.07522115 0.08112292 0.08587294 0.08788583 0.08697541 0.08426233 0.08090646 0.07703736 0.07235056 0.06787874
 0.06622084 0.06907696 0.07506363 0.08086631 0.084203 0.08496479 0.08391629 0.08127466 0.07692471 0.07179534
 0.06832005 0.06855149 0.07169963 0.07457775 0.07494701 0.07355646 0.07249945 0.07257648 0.07300021 0.07303202
 0.07303008 0.07385154 0.07565168 0.07756454 0.07855558 0.07836652 0.07755832 0.076845 0.07644497 0.07592997
 0.07483481 0.07359473 0.0734915 0.07524802 0.07802884 0.08029723 0.08135265 0.08157988 0.0814298 0.08064574
 0.07865462 0.07566112 0.07309411 0.07254392 0.07421718 0.07681084 0.0788721 0.07984336 0.07990322 0.07942899
 0.07874719 0.07803711 0.07738884 0.07703035 0.07726461 0.07803619 0.07884226 0.07923782 0.07919589 0.07887936
 0.07832685 0.07751869 0.07660232 0.07589659 0.07566132 0.07589848 0.07639606 0.07692116 0.07729963 0.07737374
 0.07706054 0.07647816 0.07587367 0.07539805 0.07505734 0.07486498 0.07488948 0.07511855 0.07539387 0.07554078
 0.07550867 0.0753521 0.07512552 0.07484065 0.07450708 0.07417797 0.07394485 0.07387244 0.07392459 0.07398733
 0.07399952 0.0740145 0.0740784 0.0741062 0.07396865 0.07366953 0.07335185 0.07314155 0.07304798 0.07300513
 0.07294343 0.07280178 0.07252024 0.07209218 0.07163746 0.07135992 0.07138325 0.07165779 0.07204026 0.07240013
 0.07263744 0.07269595 0.07260974 0.07247332 0.07233279 0.07215324 0.07190438 0.07163805 0.07147036 0.07149489
 0.07169937 0.07196724 0.07217279 0.0722623 0.0722502 0.07219209 0.07216872 0.07222459 0.07230102 0.07229166
 0.07217943 0.07206298 0.07203475 0.07207803 0.07209914 0.07203773 0.07193214 0.07187662 0.07192088 0.07202768
 0.07212991 0.07220386 0.0722755 0.07236816 0.07245356 0.07246192 0.07235745 0.07219604 0.07207592 0.07203682
 0.07204682 0.07208059 0.07215685 0.07228608 0.07242338 0.07250267 0.07250768 0.07248776 0.07249613 0.07252529
 0.07252125 0.07245618 0.0723627 0.07229581 0.07228255 0.07231147 0.07235119 0.07237206 0.07236005 0.07231894
 0.07226026 0.0721916 0.07211322 0.07202929 0.07196575 0.07196419 0.07203693 0.0721305 0.07215676 0.07207199
 0.07191709 0.07177462 0.07169067 0.0716428 0.0715806 0.0714865 0.07138705 0.07131249 0.07126484 0.0712283
 0.07119221 0.07115661 0.07113259 0.07114694 0.07122736 0.07136397 0.07149643 0.07156175 0.07155335 0.07151987
 0.07151163 0.07154338 0.07160178 0.07167171 0.07175538 0.07187052 0.07202012 0.07216647 0.07226054 0.07230256
 0.07234737 0.07244441 0.07259808 0.07278594 0.0729803 0.07314684 0.07325977 0.07333468 0.07342119 0.07354947
 0.07370222 0.07384897 0.07398855 0.07414228 0.07432047 0.07451671 0.07473093 0.07497745 0.0752634 0.07556961
 0.0758592 0.07610467 0.07631089 0.07651716 0.07677206 0.07709624 0.0774657 0.07783115 0.07815636 0.07844277
 0.07871942 0.07900804 0.07930548 0.07960738 0.07993392 0.08030955 0.08072409 0.08113785 0.0815257 0.08189657
 0.08227018 0.08265271 0.08303934 0.08342829 0.08382542 0.08423591 0.08465139 0.08504879 0.08540818 0.08573242
 0.08604672 0.08638111 0.08675209 0.08714734 0.08752313 0.08783496 0.0880883 0.08834576 0.08866176 0.08901902
 0.08935529 0.08964781 0.08993943 0.09027551 0.09064663 0.09100981 0.09134543 0.09167122 0.09200886 0.09235243
 0.09266953 0.09292927 0.09313314 0.09331849 0.09352805 0.09378126 0.09408148 0.09443356 0.0948306 0.09523185
 0.09558253 0.09585914 0.09607971 0.09627611 0.09647573 0.0967 0.09695426 0.09721982 0.09747015 0.09768861
 0.09786577 0.09800369 0.09813607 0.09831609 0.09856442 0.09885298 0.09915598 0.09948666 0.09985992 0.1002485
 0.1006131 0.1009613 0.1013364 0.1017452 0.1021315 0.1024356 0.1026539 0.1028218 0.1029692 0.1031213
 0.103321 0.1036082 0.1039764 0.1043774 0.1047661 0.1051276 0.1054647 0.1057786 0.1060614 0.1062991
 0.1064822 0.1066167 0.106727 0.1068477 0.1070089 0.1072175 0.1074447 0.1076417 0.1077709 0.1078139
 0.1077535 0.1075752 0.1072984 0.1069854 0.1066882 0.1063876 0.1060039 0.1054707 0.1047804 0.1039577
 0.1030131 0.1019443 0.1007736 0.09956756 0.09841602 0.09739826 0.09657402 0.09600724 0.09578406 0.09597622
 0.09656258 0.09738675 0.09820266 0.09877045 0.09893213 0.09863907 0.09793901 0.09693277 0.09572076 0.09437224
 0.09292449 0.09138321 0.08971048 0.08783308 0.08569744 0.08333728 0.08090858 0.0787148 0.07725109 0.07716845
 0.07900548 0.08277239 0.08777266 0.09292812 0.09736902 0.1007809 0.1033076 0.1052561 0.1068927 0.1083779
 0.1097648 0.1110411 0.1121946 0.113243 0.1142065 0.1150774 0.1158237 0.1164096 0.1168165 0.1170606
 0.1171923 0.1172708 0.1173433 0.117437 0.1175447 0.117602 0.1174948 0.1171013 0.1163272 0.1150977
 0.1133153 0.1108784 0.1079043 0.1050765 0.103659 0.1048285 0.1087587 0.1143851 0.1201422 0.1249263
 0.1284409 0.1309054 0.1326562 0.1339613 0.1349977 0.1358732 0.1366534 0.1373764 0.138057 0.1386979
 0.139303 0.1398817 0.1404446 0.1409983 0.1415359 0.1420397 0.1425045 0.1429544 0.1434265 0.143938
 0.1444719 0.1449938 0.1454855 0.1459614 0.1464429 0.146921 0.1473642 0.1477606 0.148134 0.1485166
 0.1489254 0.1493606 0.1498061 0.1502326 0.1506165 0.1509596 0.1512848 0.1516145 0.1519564 0.1523068
 0.15266 0.1530126 0.1533624 0.1537101 0.1540646 0.1544334 0.1548035 0.1551431 0.1554362 0.1557033
 0.1559805 0.1562821 0.1565925 0.1568908 0.1571786 0.1574835 0.1578345 0.1582309 0.1586366 0.1590059
 0.1593168 0.1595829 0.159839 0.1601156 0.1604219 0.1607487 0.16108 0.1614032 0.1617154 0.1620238
 0.1623389 0.1626647 0.1629969 0.163329 0.1636585 0.1639857 0.1643089 0.1646239 0.1649324 0.1652476
 0.1655839 0.1659369 0.1662819 0.1665937 0.1668676 0.1671185 0.1673671 0.1676262 0.1678979 0.1681791
 0.1684692 0.168768 0.1690709 0.1693701 0.1696628 0.1699546 0.1702536 0.1705645 0.1708866 0.1712129
 0.1715342 0.1718488 0.172165 0.1724895 0.1728159 0.17313 0.1734263 0.1737155 0.1740147 0.1743306
 0.1746531 0.1749677 0.1752715 0.1755744 0.1758843 0.1761971 0.1765029 0.1767983 0.1770897 0.177386
 0.1776895 0.1779939 0.1782907 0.1785789 0.1788652 0.1791559 0.179451 0.1797477 0.1800448 0.1803441
 0.1806462 0.1809484 0.1812485 0.1815473 0.1818451 0.1821385 0.1824239 0.1827018 0.1829754 0.1832481
 0.1835244 0.1838076 0.1840968 0.1843883 0.1846789 0.1849668 0.185252 0.1855383 0.1858313 0.1861321
 0.1864385 0.1867488 0.1870605 0.1873682 0.1876671 0.187958 0.1882459 0.1885356 0.1888296 0.1891294
 0.189438 0.1897564 0.1900771 0.1903867 0.1906783 0.1909559 0.1912272 0.1914993 0.1917775 0.1920612
 0.1923455 0.1926295 0.1929162 0.1932022 0.193481 0.1937566 0.1940397 0.1943335 0.194632 0.1949304
 0.1952273 0.1955239 0.1958222 0.1961215 0.1964191 0.1967178 0.1970239 0.1973344 0.1976392 0.1979341
 0.1982249 0.1985207 0.1988293 0.1991501 0.1994708 0.1997807 0.2000814 0.2003771 0.2006668 0.2009537
 0.2012461 0.2015435 0.2018385 0.2021312 0.202427 0.2027272 0.2030301 0.2033309 0.2036217 0.203902
 0.2041851 0.2044792 0.2047775 0.2050738 0.205369 0.2056615 0.2059518 0.2062491 0.2065564 0.2068631
 0.2071631 0.2074594 0.207751 0.2080369 0.2083233 0.2086114 0.2088947 0.2091765 0.2094603 0.2097214
 0.2098978 0.2098567 0.2092778 0.207518 0.2035884 0.1963514 0.1849784 0.1694761 0.1508661 0.1308163
 0.1110234 0.09277554 0.07683317 0.06353081 0.0529406 0.04497745 0.03946494 0.03624704 0.03530713 0.03689368
 0.04165855 0.0502738 0.06197044 0.07324031 0.07920138 0.07745568 0.07038105 0.06295912 0.05863478 0.05765544
 0.05855575 0.06008039 0.06182365 0.0640041 0.06701231 0.07096753 0.07569136 0.08118036 0.08783849 0.09596397
 0.1051321 0.1143702 0.1229903 0.1311262 0.1394116 0.1482151 0.1572504 0.1658551 0.1735188 0.1801427
 0.1859389 0.1911933 0.1961023 0.2007542 0.2051897 0.2094022 0.2132456 0.2163969 0.2185108 0.219482
 0.2195691 0.2192509 0.2189453 0.2188473 0.2189783 0.2193094 0.2198156 0.2204739 0.2212611 0.2221531
 0.2231168 0.2241156 0.2251212 0.2261075 0.2270453 0.227913 0.2287051 0.2294258 0.2300846 0.230695
 0.2312658 0.2317971 0.2322913 0.2327583 0.2332075 0.2336405 0.2340532 0.2344375 0.2347866 0.2351062
 0.2354118 0.2357121 0.2360024 0.2362778 0.2365428 0.2368052 0.2370669 0.2373232 0.2375695 0.2378093
 0.2380528 0.2383073 0.2385725 0.2388424 0.239107 0.2393549 0.2395849 0.2398116 0.2400491 0.2402959
 0.2405442 0.2407946 0.2410502 0.2413041 0.2415445 0.2417693 0.2419916 0.2422305 0.2424932 0.2427665
 0.2430328 0.2432927 0.2435593 0.2438345 0.2441106 0.2443875 0.2446702 0.2449555 0.2452357 0.2455077
 0.2457648 0.2459923 0.2461848 0.2463631 0.2465644 0.246813 0.2471002 0.2473922 0.2476643 0.247921
 0.2481794 0.2484432 0.2487012 0.2489395 0.2491581 0.2493828 0.2496502 0.2499654 0.2502953 0.2506137
 0.2509228 0.2512271 0.2515221 0.2518148 0.2521136 0.2523959 0.252626 0.2528128 0.2530274 0.2533469
 0.253778 0.25424 0.2546379 0.2549489 0.2552217 0.2555128 0.2558495 0.2562085 0.2564905 0.2565875
 0.2565451 0.2565923 0.2569315 0.2575382 0.2582184 0.2588066 0.259263 0.2596306 0.2599547 0.2602354
 0.2604298 0.2605076 0.2605254 0.2606402 0.2609977 0.2615798 0.2622071 0.2627209 0.263105 0.2634115
 0.263671 0.2639008 0.2640691 0.2640293 0.263673 0.2632169 0.2631515 0.2637654 0.2648183 0.2657983
 0.2664307 0.2668185 0.267154 0.2674826 0.2677605 0.2678953 0.2676264 0.2666722 0.2652704 0.2643313
 0.2646834 0.2662376 0.2681368 0.2696137 0.2704777 0.2709275 0.2712131 0.2714666 0.271607 0.2713553
 0.2705469 0.269538 0.2691129 0.2697594 0.2711164 0.2723596 0.273042 0.2733283 0.2735522 0.2738503
 0.2740731 0.2737304 0.2722628 0.2698581 0.2678735 0.2678792 0.2701177 0.2732155 0.2755508 0.2766545
 0.2770795 0.2772011 0.2766688 0.2750375 0.2724211 0.2694362 0.2670336 0.2663978 0.2681598 0.271388
 0.2741129 0.2752787 0.275634 0.2764557 0.2780099 0.2795528 0.2803133 0.2800938 0.2791309 0.2776676
 0.2758399 0.2740887 0.2734019 0.2746103 0.2773793 0.2803314 0.282324 0.2833182 0.2837731 0.2832971
 0.2803807 0.2742128 0.2669417 0.263068 0.2654579 0.272341 0.279218 0.2832884 0.2849662 0.2857485
 0.2862266 0.2859346 0.2835926 0.277776 0.2691251 0.2617855 0.260621 0.2663959 0.274911 0.2809433
 0.2818506 0.2778617 0.2710806 0.2648281 0.2623105 0.2646963 0.2706059 0.2774757 0.2830943 0.2862129
 0.2865496 0.2846673 0.2819024 0.2800347 0.2800142 0.2805477 0.2790661 0.2749809 0.2706829 0.2680151
 0.2653773 0.2606459 0.255844 0.2557903 0.261862 0.2697269 0.2742338 0.2746316 0.2736039 0.2723395
 0.2684386 0.2593399 0.247169 0.2387758 0.2397497 0.2486472 0.258303 0.2628484 0.2623679 0.2607737
 0.2605625 0.2602723 0.2565627 0.2486056 0.240226 0.2366581 0.2389446 0.242986 0.2443447 0.2417599
 0.235506 0.2259442 0.2161116 0.2126058 0.2199595 0.2350395 0.2495626 0.2569511 0.2546703 0.2426067
 0.2239372 0.2070831 0.2016195 0.2096785 0.2233544 0.2320036 0.2306733 0.2208855 0.2060753 0.1893003
 0.1747107 0.1678415 0.172222 0.1858527 0.2014622 0.21014 0.2061792 0.1914617 0.1758156 0.169924
 0.1756429 0.1848 0.1884311 0.1849443 0.1787361 0.1744277 0.1741846 0.1775871 0.1821086 0.1853943
 0.1871303 0.1864792 0.1795014 0.163887 0.1454448 0.1343758 0.1346471 0.1417869 0.151042 0.1617195
 0.1721237 0.1765564 0.1717476 0.1631045 0.1601992 0.1666031 0.1767864 0.1829047 0.182576 0.1793779
 0.177208 0.176071 0.1740184 0.1716855 0.1724748 0.1778994 0.1849738 0.1895209 0.1904963 0.1896971
 0.1886394 0.187387 0.1855904 0.1831516 0.1801253 0.1767951 0.1735959 0.1705724 0.1672895 0.1634012
 0.1586939 0.1524308 0.1436532 0.1330444 0.1238751 0.119607 0.1204221 0.1235278 0.1268749 0.1301979
 0.1317047 0.1271882 0.1154131 0.1025019 0.09754896 0.1039243 0.1167641 0.1284605 0.1344269 0.1335589
 0.126106 0.1139675 0.1026377 0.09957637 0.1084257 0.1257958 0.1449826 0.1615191 0.1738355 0.1806066
 0.1805176 0.1747213 0.1676458 0.164563 0.1684852 0.1787708 0.1912916 0.1994991 0.1976126 0.186381
 0.1758733 0.1781449 0.1945159 0.2133371 0.2230613 0.2240244 0.2239431 0.2259177 0.2267551 0.2253154
 0.2260026 0.2325127 0.2422026 0.2486785 0.2474936 0.2379112 0.2221402 0.2056885 0.1960372 0.1968145
 0.2038201 0.2096978 0.2111309 0.2084022 0.2009207 0.1890671 0.1790811 0.1793309 0.1904903 0.2041565
 0.2124518 0.2152794 0.2168878 0.2185556 0.2171111 0.2098618 0.199174 0.191063 0.1892955 0.1920875
 0.1951145 0.1960599 0.1947947 0.1909021 0.1839042 0.1758956 0.1715223 0.1740167 0.1819413 0.1906026
 0.1962821 0.1985611 0.199161 0.199683 0.2004992 0.2009404 0.2004757 0.2002428 0.202829 0.2094393
 0.2178462 0.2245963 0.2289482 0.2331515 0.2389073 0.2449906 0.2487299 0.2489543 0.2471583 0.2462479
 0.2482358 0.2526372 0.2568136 0.258212 0.2567793 0.2552198 0.2564948 0.2609916 0.266465 0.2705782
 0.272821 0.2740341 0.2750195 0.2758685 0.2759318 0.2743393 0.2712747 0.2687373 0.2691506 0.2729681
 0.2782294 0.282559 0.2850488 0.286158 0.2864721 0.2860377 0.2847393 0.2829093 0.2813182 0.2805815
 0.280733 0.2813981 0.282195 0.2828994 0.2834181 0.2837752 0.2840713 0.2843895 0.2847705 0.2852598
 0.2858788 0.2865448 0.2871301 0.2876363 0.2882183 0.2889739 0.2897805 0.2904067 0.2907259 0.2907251
 0.2903593 0.2895368 0.2882577 0.2866409 0.2847771 0.2826806 0.2805031 0.2787451 0.2780975 0.2789541
 0.2810626 0.2836779 0.286054 0.2878044 0.2889063 0.2895195 0.2898422 0.2900411 0.2902058 0.2903387
 0.2904003 0.2903681 0.2902547 0.2900848 0.2898848 0.2896998 0.2895933 0.2896 0.2896819 0.2897461
 0.289704 0.2895141 0.2891918 0.2887963 0.2883932 0.2880028 0.2875808 0.2870559 0.2863909 0.2856113
 0.2847837 0.2839671 0.2831746 0.2823722 0.2815182 0.2805976 0.2796003 0.2784759 0.2771661 0.2757062
 0.274244 0.2729135 0.271717 0.2705578 0.269346 0.2680379 0.2666165 0.2650875 0.2634835 0.2618442
 0.2601904 0.2585214 0.2568277 0.2551041 0.2533535 0.2515767 0.2497555 0.2478605 0.2458799 0.2438277
 0.2417024 0.2394375 0.2369013 0.2339488 0.2304663 0.2263823 0.2216782 0.2164204 0.2107719 0.204949
 0.1991545 0.193544 0.1882491 0.1834257 0.1792674 0.1759461 0.1735316 0.1719814 0.1712081 0.1711466
 0.1717648 0.1730324 0.1748823 0.1771941 0.179807 0.182539 0.185198 0.1876145 0.1897122 0.1915535
 0.1932884 0.1950395 0.1968311 0.198619 0.2003627 0.2020419 0.2036151 0.2050058 0.2061567 0.2070722
 0.2077919 0.2083416 0.2087299 0.2089735 0.2091088 0.2091848 0.2092528 0.20936 0.2095498 0.2098596
 0.210304 0.2108664 0.2115205 0.2122565 0.2130769 0.2139752 0.2149272 0.2159022 0.2168855 0.2178931
 0.2189615 0.2201288 0.2214402 0.2229603 0.2247491 0.2268248 0.2291597 0.2316931 0.2343306 0.2369451
 0.2393991 0.2415753 0.243399 0.2448526 0.2459653 0.2467813 0.2473406 0.2476843 0.2478588 0.2479079
 0.2478679 0.2477606 0.2475823 0.2473081 0.2469114 0.2463809 0.245732 0.2450123 0.2442761 0.2435435
 0.2427984 0.2420307 0.2412585 0.2405089 0.2397961 0.2391216 0.2384818 0.2378701 0.2372746 0.2366716
 0.2360237 0.2352861 0.2344159 0.2333867 0.2322089 0.2309238 0.2295692 0.2281569 0.2266876 0.2251639
 0.2235836 0.2219393 0.22023 0.218461 0.2166325 0.2147306 0.2127226 0.2105684 0.2082657 0.2058833
 0.2035271 0.2012724 0.199137 0.1971051 0.1951587 0.1932948 0.1915209 0.1898342 0.1882187 0.1866733
 0.1852221 0.1838818 0.1826338 0.181446 0.1803092 0.1792484 0.1783037 0.1775004 0.1768293 0.1762539
 0.1757352 0.1752519 0.1748148 0.1744664 0.1742451 0.1741312 0.1740402 0.1738737 0.1735773 0.1731669
 0.1727192 0.1723166 0.1719854 0.171697 0.1714203 0.1711355 0.1707922 0.1702881 0.1695072 0.1683732
 0.1668747 0.1650539 0.1629834 0.160765 0.1585425 0.1564762 0.1546829 0.1532116 0.1520609 0.1511824
 0.1504838 0.1498812 0.149362 0.1489831 0.1488103 0.1488443 0.148977 0.1490434 0.1489673 0.1488446
 0.1488554 0.1491106 0.1495922 0.150191 0.1507754 0.1512539 0.1515947 0.1517967 0.1518701 0.15184
 0.1517272 0.1515246 0.1512252 0.1508553 0.1504475 0.1500061 0.1495183 0.1489728 0.1483612 0.1476841
 0.1469422 0.1461122 0.1451642 0.1440934 0.1428915 0.1415334 0.1400768 0.1387425 0.1378178 0.1374737
 0.1376712 0.1381942 0.1387977 0.1393782 0.1399374 0.1403533 0.1403932 0.1401332 0.1402071 0.1413483
 0.143639 0.146363 0.1486303 0.1500194 0.1505941 0.15053 0.1499273 0.1488555 0.1473417 0.1453431
 0.142859 0.140006 0.1369247 0.1337486 0.1306792 0.1279246 0.1255664 0.123588 0.1219694 0.1207713
 0.1201518 0.1197434 0.1176726 0.111567 0.1022082 0.09513752 0.0960042 0.1042338 0.1134354 0.1181599
 0.1182396 0.116562 0.1151363 0.1142848 0.1139067 0.1141143 0.1150063 0.1164359 0.1180138 0.1193192
 0.1201656 0.1205864 0.1205507 0.1197286 0.1174326 0.1128488 0.1057008 0.09683824 0.08794755 0.08056751
 0.07540996 0.07237716 0.07087529 0.07016064 0.06972001 0.06950419 0.06980464 0.0709056 0.07285143 0.07549335
 0.07863729 0.08203059 0.08527592 0.08798275 0.09005746 0.09168746 0.09301458 0.0939726 0.09444724 0.0944436
 0.09407367 0.09347693 0.09276583 0.09198695 0.09110683 0.09005539 0.0888402 0.08764856 0.08676475 0.08632185
 0.08619867 0.08619771 0.08622131 0.08624446 0.08624464 0.08621186 0.08615912 0.08612674 0.08621091 0.08651035
 0.08699252 0.08748509 0.08783057 0.08799885 0.08805503 0.08804025 0.08786392 0.0873796 0.08665332 0.08600892
 0.08561464 0.08517525 0.08429979 0.0830828 0.08206663 0.08166568 0.08181705 0.08215581 0.08235471 0.08229373
 0.08207544 0.08196833 0.08222042 0.08278006</values></Ydata></ScSm><ScRf><Ydata ylabel="Single channel"><values byteorder="INTEL" format="FLOAT32" numvalues="1820"> 0.06058338 0.06073835 0.06083337 0.06086807 0.0608674 0.06087746 0.06094548 0.0610893 0.061283 0.06147158
 0.06160738 0.06168001 0.06170572 0.06169324 0.06164677 0.06160482 0.0616361 0.0617727 0.06196451 0.06211406
 0.06215624 0.06211616 0.06209455 0.06216802 0.06228318 0.06227338 0.06201526 0.06157033 0.06114495 0.06090222
 0.06086155 0.06101685 0.06143657 0.06207217 0.06254226 0.06240366 0.061708 0.06102872 0.06082548 0.06100209
 0.06117267 0.06110573 0.06079846 0.06039377 0.06021873 0.0606926 0.06191617 0.06333677 0.06394769 0.0629217
 0.06020138 0.05668958 0.05391815 0.05322666 0.05481673 0.05747725 0.05949048 0.060004 0.05944522 0.0586546
 0.05798577 0.05740164 0.057047 0.05728915 0.05820071 0.05920645 0.05937043 0.05818862 0.0561923 0.05458721
 0.05415791 0.05476299 0.05596639 0.05751511 0.05868789 0.0579178 0.05433101 0.04970486 0.04768018 0.05030033
 0.0558317 0.06047011 0.06172908 0.05981309 0.05649803 0.05365951 0.05258458 0.05361969 0.05608943 0.05886658
 0.06106577 0.06208581 0.06145852 0.05925498 0.05647654 0.05455948 0.05449258 0.05644336 0.05972657 0.06284866
 0.06418147 0.0631729 0.06071863 0.0582095 0.05661429 0.05648466 0.05808253 0.06109642 0.06463528 0.06775895
 0.06986436 0.07072213 0.0705118 0.06971855 0.06876934 0.06795701 0.06769852 0.06828149 0.06918152 0.06925965
 0.06800553 0.06622345 0.06520724 0.06540529 0.06606258 0.06613758 0.06535336 0.06402265 0.06201602 0.05876745
 0.05456217 0.05085529 0.04881828 0.04846264 0.04951962 0.05188388 0.05456743 0.05563098 0.05429626 0.05230423
 0.05217079 0.05450546 0.05770483 0.05994149 0.06085994 0.06145003 0.06275681 0.06480269 0.06644699 0.06623659
 0.0638455 0.06089524 0.05981401 0.0614544 0.06427522 0.06624441 0.06698717 0.06756157 0.06861338 0.06938079
 0.06848621 0.06556565 0.06215799 0.06076107 0.06265607 0.06662418 0.06982461 0.06989072 0.06652472 0.06158778
 0.05765419 0.05622592 0.05731375 0.0604021 0.06502324 0.0702573 0.07450549 0.07637589 0.0756878 0.07340501
 0.07054369 0.06723058 0.06320738 0.0593809 0.05803482 0.06066757 0.06606515 0.07131054 0.07439431 0.07521853
 0.07444473 0.07223828 0.0684787 0.06400709 0.06103083 0.06140396 0.06440363 0.0671473 0.06761861 0.0665023
 0.06569436 0.06591846 0.06645946 0.06664933 0.06682301 0.06776904 0.06962408 0.07158274 0.07268819 0.07270114
 0.07213762 0.07165795 0.07146571 0.07116228 0.07031897 0.06935741 0.06948802 0.07137895 0.07422557 0.07657544
 0.07778016 0.07821517 0.0782996 0.07776207 0.07603328 0.07331613 0.07101613 0.07069652 0.07256323 0.07533635
 0.07758046 0.07874075 0.07900023 0.07874483 0.07830027 0.07783423 0.07742563 0.07729816 0.077757 0.07875176
 0.0797814 0.0803972 0.08056781 0.08045447 0.08009617 0.07947759 0.0787546 0.07825127 0.0782254 0.0786761
 0.07939313 0.08014633 0.08075899 0.08106173 0.08095564 0.08055367 0.08011787 0.07982081 0.0796771 0.0796954
 0.07993736 0.08038417 0.08087075 0.08121993 0.08138248 0.08141232 0.08136156 0.08124246 0.08106767 0.08089726
 0.08083507 0.08095209 0.08119976 0.08144674 0.08163546 0.08183978 0.08211049 0.08233749 0.082362 0.0821863
 0.08198117 0.08189995 0.08195513 0.08206697 0.08215693 0.08216175 0.08201478 0.08170137 0.08134775 0.08117954
 0.08134312 0.0818007 0.0824042 0.0829993 0.08345388 0.08369228 0.08375068 0.08373475 0.08369689 0.08360397
 0.08343235 0.08325048 0.08319463 0.08336703 0.08374465 0.08418977 0.08455992 0.08479275 0.08490068 0.0849487
 0.08503778 0.08522245 0.08542384 0.08550234 0.08543665 0.085361 0.08540219 0.08553465 0.08562465 0.08559005
 0.08549216 0.08546945 0.08559325 0.08580689 0.0860066 0.08615605 0.08630607 0.08650869 0.08672248 0.08682343
 0.08673507 0.08653135 0.08636446 0.0863037 0.08630772 0.08634701 0.08646502 0.08668461 0.08692242 0.08705694
 0.08706234 0.08702997 0.08705375 0.08712387 0.08714885 0.08706418 0.08689763 0.08673654 0.08665653 0.08667888
 0.08676746 0.08685133 0.08686636 0.08679621 0.08667781 0.0865628 0.08647852 0.08643592 0.08646558 0.08660881
 0.08684721 0.08706056 0.08709973 0.08692263 0.08664557 0.08644284 0.08639244 0.08642124 0.08639224 0.08623308
 0.08598077 0.08572455 0.08552635 0.08539262 0.08529776 0.0852219 0.08517636 0.08520101 0.08531888 0.08547655
 0.08555077 0.08544983 0.08520603 0.08494341 0.08476389 0.08468631 0.08467185 0.08467083 0.08466031 0.0846661
 0.08472814 0.08482528 0.08487272 0.08481987 0.08471473 0.08465216 0.08469599 0.08485565 0.08507951 0.08525702
 0.08528914 0.08518836 0.08507176 0.08503934 0.08509293 0.08517902 0.08526516 0.08535266 0.08544715 0.08554968
 0.08567053 0.08583113 0.0860443 0.08629324 0.08653166 0.08671204 0.086826 0.0869215 0.08707154 0.08731531
 0.0876252 0.08793128 0.08817995 0.08837262 0.08855017 0.08874287 0.08894564 0.08914825 0.08937065 0.08964387
 0.08996321 0.09028788 0.09058701 0.09086508 0.09114097 0.09142177 0.09170473 0.09199789 0.09233144 0.09273361
 0.09318028 0.09358152 0.09385017 0.09399007 0.09410201 0.09430216 0.09463568 0.09504284 0.09539397 0.09559114
 0.09566577 0.09575282 0.09594552 0.0962064 0.09645107 0.09668246 0.0969896 0.09742149 0.09790476 0.0983013
 0.09853509 0.09865619 0.09878075 0.09896932 0.09917465 0.09931804 0.09939598 0.09947821 0.09961304 0.09978642
 0.09998597 0.1002489 0.1006048 0.1010068 0.1013649 0.1016345 0.1018367 0.1020075 0.1021573 0.1022712
 0.1023276 0.1023291 0.1023251 0.1023768 0.1024856 0.1025874 0.1026359 0.1026608 0.1027247 0.102857
 0.103056 0.10332 0.1036346 0.1039497 0.1042207 0.1044741 0.1047799 0.1051396 0.1054499 0.1056162
 0.1056648 0.1056945 0.1057498 0.105806 0.1058636 0.1059818 0.1062045 0.1065057 0.1068318 0.1071611
 0.1075019 0.107851 0.1081707 0.1084037 0.1085099 0.1085008 0.1084435 0.1084272 0.1085211 0.108744
 0.1090572 0.1093874 0.1096683 0.1098615 0.1099448 0.1099145 0.1098218 0.1097763 0.1098626 0.1100478
 0.1101987 0.1101931 0.1099957 0.1096328 0.1091329 0.1085188 0.1078401 0.1071829 0.1066341 0.1062422
 0.1060217 0.1059923 0.1061944 0.1066443 0.1072797 0.1079769 0.1086237 0.1091464 0.1094687 0.109497
 0.1091886 0.1086107 0.1079002 0.1071766 0.1065043 0.1058964 0.1053254 0.104761 0.1042448 0.103923
 0.1039791 0.1045244 0.1055452 0.1069136 0.108428 0.1098717 0.1110952 0.1120723 0.1128759 0.113591
 0.1142606 0.1149051 0.1155547 0.1162236 0.1168727 0.1174399 0.1179099 0.1183244 0.1187249 0.1191127
 0.1194617 0.1197484 0.119975 0.120176 0.1203854 0.1205828 0.1206997 0.1206943 0.1206001 0.1204799
 0.120356 0.120198 0.1199582 0.1196115 0.1191902 0.1188101 0.1186511 0.1188794 0.1195546 0.1205955
 0.1218402 0.1231441 0.1244164 0.1255752 0.1265215 0.1271935 0.1276266 0.127927 0.1281927 0.1284736
 0.1287816 0.1291062 0.1294253 0.129721 0.129994 0.1302649 0.1305632 0.1309014 0.1312526 0.1315658
 0.131817 0.1320404 0.1323015 0.1326372 0.1330207 0.1333879 0.1337065 0.1340075 0.1343315 0.1346587
 0.1349269 0.1351157 0.135276 0.1354782 0.1357598 0.1361142 0.1364956 0.1368355 0.1370897 0.1372746
 0.1374442 0.1376337 0.1378432 0.1380644 0.1382983 0.1385452 0.1387973 0.1390536 0.1393288 0.1396307
 0.1399314 0.1401814 0.1403619 0.1405094 0.1406782 0.1408871 0.1411119 0.1413219 0.1415168 0.1417296
 0.1419943 0.1423062 0.1426149 0.1428646 0.1430408 0.1431758 0.1433134 0.1434785 0.1436718 0.1438807
 0.1440901 0.1442898 0.1444794 0.1446683 0.144869 0.1450873 0.1453156 0.1455379 0.1457427 0.1459343
 0.1461267 0.1463311 0.1465518 0.1467951 0.1470692 0.1473663 0.1476522 0.1478885 0.1480661 0.1482103
 0.1483531 0.1485095 0.1486779 0.1488532 0.1490333 0.1492191 0.1494117 0.1496112 0.1498162 0.1500242
 0.1502321 0.150439 0.150647 0.1508588 0.1510759 0.1512991 0.1515294 0.1517624 0.1519867 0.1521903
 0.152372 0.1525447 0.1527262 0.1529227 0.1531235 0.1533157 0.1535006 0.1536906 0.1538912 0.1540957
 0.1542957 0.1544892 0.1546792 0.1548701 0.1550633 0.1552554 0.1554418 0.1556237 0.1558091 0.1560047
 0.1562091 0.1564153 0.1566181 0.1568186 0.1570189 0.1572178 0.1574136 0.1576104 0.1578136 0.1580216
 0.1582267 0.1584232 0.158612 0.1587984 0.1589873 0.1591794 0.159372 0.1595646 0.1597616 0.1599661
 0.160176 0.1603861 0.1605911 0.1607899 0.1609896 0.1612003 0.1614224 0.1616456 0.1618635 0.1620791
 0.1622963 0.1625148 0.1627324 0.1629481 0.1631607 0.1633695 0.1635746 0.1637781 0.1639834 0.1641898
 0.1643898 0.1645767 0.164752 0.1649202 0.1650829 0.165245 0.1654162 0.1656017 0.1657964 0.1659921
 0.1661838 0.1663723 0.1665631 0.1667607 0.1669621 0.1671635 0.1673674 0.1675762 0.1677862 0.1679936
 0.168198 0.1683984 0.168596 0.1687989 0.1690139 0.1692371 0.1694599 0.1696767 0.1698859 0.1700924
 0.1703047 0.1705225 0.1707358 0.1709407 0.1711431 0.1713462 0.171549 0.171752 0.171954 0.1721508
 0.1723455 0.172548 0.1727609 0.1729812 0.173208 0.173435 0.1736491 0.1738491 0.1740488 0.1742573
 0.1744716 0.1746874 0.1749022 0.1751148 0.1753279 0.1755431 0.1757545 0.175961 0.1761725 0.1763926
 0.1766132 0.1768312 0.1770431 0.177228 0.1773428 0.1772844 0.1767774 0.1752601 0.1718826 0.1656892
 0.1559995 0.1428324 0.1270477 0.1100473 0.09326676 0.07780389 0.06430519 0.0530481 0.04408709 0.03734764
 0.03267978 0.02994829 0.0291358 0.03045499 0.03446488 0.04173747 0.0516174 0.06113254 0.06615748 0.06467237
 0.0586916 0.05242449 0.0487758 0.04794525 0.04869063 0.04995949 0.05142206 0.05326658 0.05581462 0.05915726
 0.06314134 0.06776652 0.07337596 0.08022089 0.08794225 0.09572003 0.1029752 0.1098218 0.1167963 0.1242126
 0.1318307 0.1390896 0.1455536 0.1511341 0.15601 0.1604297 0.1645676 0.1684974 0.1722417 0.1757874
 0.1790149 0.1816574 0.1834219 0.1842141 0.1842539 0.1839528 0.1836683 0.1835642 0.1836554 0.1839154
 0.1843237 0.1848618 0.1855112 0.1862502 0.1870475 0.1878695 0.1886935 0.1895027 0.1902788 0.1910079
 0.1916849 0.1923071 0.1928729 0.1933885 0.193865 0.1943097 0.1947265 0.1951167 0.1954788 0.1958147
 0.196134 0.1964442 0.1967406 0.1970133 0.1972603 0.1974876 0.1977047 0.1979206 0.1981394 0.1983589
 0.1985763 0.1987907 0.1989989 0.1991981 0.1993915 0.1995857 0.1997823 0.1999775 0.2001681 0.2003544
 0.2005405 0.2007329 0.2009342 0.2011397 0.2013433 0.2015437 0.2017406 0.2019301 0.2021097 0.202284
 0.2024643 0.202663 0.2028818 0.2031056 0.2033156 0.2035116 0.2037091 0.2039163 0.2041261 0.2043305
 0.2045303 0.2047316 0.2049425 0.2051677 0.2053967 0.2056044 0.2057751 0.2059232 0.2060847 0.2062839
 0.2065101 0.2067291 0.2069211 0.2070981 0.2072827 0.2074816 0.2076837 0.2078739 0.2080477 0.2082244
 0.2084365 0.2086948 0.2089729 0.2092399 0.2094873 0.2097209 0.2099474 0.2101748 0.2104011 0.2106036
 0.2107612 0.2108935 0.2110607 0.2113182 0.211664 0.2120319 0.212348 0.2125953 0.2128113 0.2130399
 0.2133024 0.2135793 0.2137905 0.2138515 0.213803 0.2138316 0.2140985 0.2145805 0.21512 0.2155868
 0.2159521 0.2162494 0.2165123 0.2167393 0.2168933 0.2169429 0.2169305 0.2169927 0.2172649 0.2177399
 0.2182616 0.2186828 0.2189802 0.2192012 0.2193841 0.2195525 0.2196788 0.2196356 0.2193289 0.2189387
 0.2188741 0.2193752 0.2202408 0.2210431 0.2215546 0.2218659 0.2221399 0.2224116 0.2226378 0.2227372
 0.2224937 0.2216783 0.2204951 0.2197058 0.2199993 0.2212968 0.2228823 0.2241181 0.2248457 0.2252274
 0.2254701 0.2256882 0.225817 0.225617 0.2249409 0.2240867 0.2237222 0.2242656 0.2254134 0.2264673
 0.2270494 0.2273005 0.2275011 0.2277597 0.2279441 0.2276449 0.226405 0.2243921 0.2227427 0.2227637
 0.2246528 0.2272612 0.2292338 0.2301763 0.2305467 0.2306572 0.2302179 0.228861 0.2266812 0.2241904
 0.2221882 0.221679 0.2231967 0.225948 0.2282625 0.2292478 0.2295393 0.2302223 0.2315304 0.2328423
 0.2335068 0.2333526 0.2325753 0.2313772 0.2298725 0.2284336 0.2278904 0.2289376 0.2312931 0.2338033
 0.2355089 0.2363703 0.2367669 0.2363748 0.2339392 0.228788 0.2227219 0.2195086 0.2215503 0.2273675
 0.2331889 0.2366573 0.2381121 0.2388117 0.239258 0.2390572 0.2371253 0.2322633 0.2250225 0.2189058
 0.218006 0.2229508 0.2301913 0.235326 0.2361298 0.2327992 0.227123 0.2219183 0.2198859 0.2219912
 0.2270568 0.2329231 0.2377333 0.2404368 0.2407911 0.239267 0.2369991 0.2354994 0.2355639 0.2360812
 0.2348801 0.2314869 0.2279431 0.2258043 0.2237021 0.2198309 0.2159085 0.2160265 0.2213518 0.2281982
 0.2321862 0.2326803 0.2319618 0.231037 0.2278627 0.220261 0.2100489 0.203082 0.2041426 0.2119878
 0.2204686 0.2245575 0.2243406 0.2231837 0.2232338 0.223231 0.2202886 0.2136859 0.2067374 0.2039814
 0.2063191 0.2102001 0.2117888 0.2099843 0.204992 0.1971095 0.1890153 0.1865236 0.1936337 0.2076
 0.2211228 0.2283679 0.2270239 0.2169041 0.2008179 0.1863828 0.1822995 0.1905095 0.2038258 0.2125707
 0.2122221 0.2041175 0.1913513 0.1767614 0.1643029 0.1592842 0.1651418 0.1800291 0.1969372 0.2071021
 0.2047735 0.1917416 0.1778773 0.1739948 0.1819123 0.1931792 0.1985808 0.1965328 0.19163 0.188749
 0.1902793 0.1958079 0.2025317 0.2078573 0.2114482 0.2121946 0.2053876 0.1883681 0.1679813 0.1560922
 0.1572597 0.1663113 0.1778515 0.1911498 0.2040917 0.209778 0.2043135 0.1942308 0.1909981 0.1988383
 0.2110841 0.2183578 0.2178718 0.2139843 0.2114103 0.210167 0.2079333 0.20552 0.2070453 0.2142945
 0.223635 0.2300692 0.2324108 0.2328582 0.2332284 0.2335775 0.2334568 0.2327137 0.2314035 0.2299168
 0.2288764 0.2284224 0.2280739 0.2274647 0.2263078 0.2232438 0.2161313 0.2050625 0.1943088 0.1889547
 0.1894965 0.1921515 0.194451 0.1966753 0.1966345 0.1882217 0.1694961 0.1492856 0.1407732 0.1487701
 0.1661341 0.1818889 0.1896347 0.1880908 0.1777755 0.1611485 0.1452341 0.1394862 0.148105 0.1659871
 0.1841472 0.1974615 0.2053605 0.2075832 0.2031241 0.1932096 0.1825922 0.1768799 0.1790791 0.1882119
 0.1996898 0.2065836 0.2029831 0.1898073 0.1774382 0.1781471 0.1932635 0.2110294 0.2198093 0.2198992
 0.218994 0.2202266 0.2205205 0.2188519 0.2196737 0.2267406 0.2375424 0.2457672 0.2468392 0.2397222
 0.2263717 0.2122512 0.2049205 0.2079328 0.2167376 0.2235934 0.2250517 0.2214901 0.2125305 0.1990108
 0.1879061 0.1881339 0.2002266 0.2151318 0.2245038 0.2283069 0.2310665 0.234072 0.2338345 0.2274177
 0.2173873 0.2102443 0.2099935 0.2146202 0.2194625 0.2221291 0.2225158 0.2199866 0.2137693 0.206136
 0.2024427 0.2064446 0.2163737 0.226582 0.2325884 0.233865 0.2324756 0.2304146 0.2282888 0.2254987
 0.2215526 0.217768 0.2170302 0.220715 0.2265046 0.2307691 0.2327351 0.2347615 0.2386427 0.2431451
 0.2455176 0.2444932 0.2414739 0.2392848 0.2399013 0.2428904 0.2457376 0.2459945 0.2436137 0.2412186
 0.2416925 0.2454322 0.2502871 0.2540067 0.2560728 0.2572435 0.2582408 0.2591199 0.2592342 0.2577248
 0.254733 0.2521192 0.2521492 0.2552443 0.2595764 0.2629617 0.264634 0.26512 0.2650285 0.2644131
 0.2631437 0.2614878 0.2601065 0.2595239 0.2597526 0.2604489 0.2612677 0.2620069 0.2625736 0.2629606
 0.2632204 0.2633979 0.2635122 0.2635974 0.2636841 0.2637314 0.2636707 0.2635456 0.2635237 0.2637112
 0.264017 0.2642508 0.2642924 0.2640936 0.2635817 0.2626833 0.2614433 0.2600103 0.2584668 0.2567778
 0.2550113 0.2535745 0.2530926 0.2539475 0.255927 0.2583501 0.2605281 0.2621107 0.263087 0.2636007
 0.2638138 0.2638664 0.2638557 0.2638108 0.2637042 0.2635017 0.2632033 0.2628405 0.2624498 0.2620602
 0.2616993 0.2613887 0.2611215 0.260857 0.2605476 0.2601714 0.2597353 0.2592556 0.2587399 0.2581746
 0.257525 0.2567585 0.2558775 0.2549309 0.253992 0.2531234 0.2523417 0.2516056 0.2508489 0.2500281
 0.2491216 0.2480994 0.2469514 0.245758 0.244678 0.2438218 0.2431571 0.2425554 0.2419001 0.2411365
 0.2402555 0.2392772 0.2382391 0.2371752 0.2360948 0.2349848 0.2338223 0.232582 0.2312459 0.2298138
 0.228299 0.2267145 0.2250757 0.2234077 0.2217184 0.2199518 0.2179844 0.2156734 0.2128987 0.2095734
 0.2056616 0.2012177 0.1964014 0.1914344 0.186529 0.1818482 0.1775117 0.1736186 0.170254 0.167487
 0.1653741 0.1639566 0.1632507 0.1632484 0.1639331 0.1652752 0.1672076 0.1696153 0.1723565 0.1752786
 0.1782166 0.18101 0.183561 0.1858796 0.1880524 0.1901439 0.192132 0.1939455 0.1955477 0.1969525
 0.1981724 0.199197 0.2000309 0.2007187 0.2013112 0.2018254 0.2022518 0.2025919 0.20287 0.2031132
 0.2033337 0.2035381 0.2037421 0.2039629 0.2042059 0.2044691 0.2047568 0.2050841 0.205472 0.2059356
 0.2064671 0.207035 0.2076147 0.208213 0.2088489 0.2095284 0.2102582 0.2110733 0.2120247 0.2131393
 0.2144011 0.2157646 0.2171674 0.2185301 0.2197611 0.2207814 0.2215529 0.2220805 0.2223875 0.222498
 0.2224384 0.2222412 0.221939 0.2215565 0.2211071 0.2205936 0.2200166 0.2193856 0.2187189 0.2180332
 0.2173397 0.2166473 0.2159652 0.2153004 0.2146541 0.2140205 0.2133931 0.2127736 0.2121708 0.2115884
 0.2110204 0.21046 0.2099059 0.2093563 0.2088013 0.2082177 0.2075693 0.2068234 0.2059728 0.2050329
 0.2040132 0.2029045 0.2016974 0.200399 0.1990263 0.1975914 0.1960951 0.1945318 0.1928989 0.1911953
 0.1894056 0.1875043 0.1854979 0.1834541 0.1814678 0.1796011 0.1778675 0.1762543 0.1747413 0.1733108
 0.1719587 0.1706879 0.1694879 0.168337 0.1672264 0.1661645 0.1651587 0.1642056 0.1633056 0.1624765
 0.1617465 0.1611284 0.1606061 0.1601527 0.1597527 0.1594026 0.1591091 0.1589026 0.1588233 0.1588682
 0.1589673 0.159032 0.1590143 0.1589181 0.1587816 0.1586521 0.1585562 0.1584881 0.1584245 0.1583355
 0.1581743 0.1578696 0.1573357 0.1564962 0.1553182 0.1538289 0.1520977 0.1502218 0.1483337 0.1465866
 0.1450956 0.1439072 0.1430181 0.1423848 0.1419247 0.1415583 0.1412648 0.1410857 0.1410765 0.1412406
 0.1414829 0.1416584 0.1417093 0.1417362 0.1419059 0.1423163 0.1429525 0.1437161 0.1444803 0.1451548
 0.1457057 0.1461147 0.1463648 0.1464702 0.1464703 0.1463906 0.1462435 0.1460449 0.1457996 0.1454992
 0.1451433 0.1447302 0.1442432 0.1436761 0.1430384 0.1423199 0.1415025 0.140593 0.1395878 0.1384529
 0.1372295 0.1361187 0.1353911 0.13523 0.135648 0.136483 0.1374997 0.138553 0.1395814 0.140418
 0.1408165 0.1408306 0.1410222 0.1420582 0.1440707 0.1465113 0.1486431 0.1500783 0.1508173 0.1509536
 0.1505341 0.1496101 0.1482075 0.1462807 0.1438268 0.1409684 0.1378617 0.1346621 0.1315937 0.1288773
 0.1266035 0.1247752 0.1233759 0.1224279 0.1220465 0.1218561 0.1199585 0.1139202 0.104542 0.09754088
 0.09873912 0.1075141 0.1172365 0.122264 0.1224227 0.1207045 0.1191922 0.1182096 0.1176458 0.1176377
 0.11832 0.1195624 0.1209857 0.1221907 0.1230052 0.123451 0.1234643 0.1226685 0.1203232 0.1155783
 0.1081518 0.09892066 0.08963162 0.08189842 0.07647729 0.07326622 0.07165011 0.07086672 0.07037657 0.07010928
 0.07036532 0.07144865 0.07340123 0.07606377 0.07925023 0.08272298 0.08608565 0.08893568 0.09116234 0.09293784
 0.09439699 0.09546714 0.09601893 0.09604694 0.09566893 0.09503293 0.0942589 0.09341525 0.09249429 0.09142702
 0.09020466 0.08900988 0.08813173 0.08770091 0.08758971 0.08759391 0.08760591 0.08759879 0.08756632 0.08751935
 0.08748251 0.08749853 0.08764783 0.08799227 0.08847027 0.0889127 0.08918295 0.0892722 0.08926726 0.0892178
 0.0890156 0.08849822 0.08774538 0.08709742 0.08670221 0.08622274 0.08525479 0.08393069 0.08285204 0.08245641
 0.08264127 0.0829829 0.08313913 0.08302417 0.08278069 0.08269027 0.08297846 0.08354872 0.08397731 0.08391352
</values></Ydata></ScRf><Data_Parameters_AB><parameter name="DPF">1</parameter><parameter name="NPT">3497</parameter><parameter name="FXV">3996</parameter><parameter name="LXV">500</parameter><parameter name="CSF">1</parameter><parameter name="MXY">0.19848521053791</parameter><parameter name="MNY">-0.0834670811891556</parameter><parameter name="DAT">20/05/2022</parameter><parameter name="TIM">11:04:24.436 (GMT+2)</parameter><parameter name="DXU">WN</parameter></Data_Parameters_AB><AB__Qtest><MainReport name="Quality Test Report"><Header><Line><Legend>Test result ok/not ok [1/0]: </Legend><Value>0</Value></Line><Line><Legend>Method file: </Legend><Value>C:\Users\Public\Documents\Bruker\OPUS_8.2.28\QT\IRBT_v3_default.QT</Value></Line></Header><Matrix><Line><Legend></Legend><Legend>min</Legend><Legend>max</Legend><Legend>measured</Legend></Line><Line><Value>Absorption (X-Range 1):</Value><Value>0.400000</Value><Value>2.000000</Value><Value>0.181823</Value></Line><Line><Value>Noise (X-Range 4):</Value><Value></Value><Value>0.000300</Value><Value>0.000027</Value></Line><Line><Value>Signal/Noise (X-Range 2):</Value><Value>200.000000</Value><Value></Value><Value>93.551464</Value></Line><Line><Value>Signal/Noise (X-Range 3):</Value><Value>40.000000</Value><Value></Value><Value>68.953968</Value></Line><Line><Value>Water vapour (X-Range 5):</Value><Value></Value><Value>0.000300</Value><Value>0.000071</Value></Line><Line><Value>Signal/Water (X-Range 2):</Value><Value>100.000000</Value><Value></Value><Value>35.453048</Value></Line><Line><Value>Signal/Water (X-Range 3):</Value><Value>20.000000</Value><Value></Value><Value>26.131375</Value></Line><Line><Value>Fringes (X-Range 6):</Value><Value></Value><Value>0.000100</Value><Value>0.000068</Value></Line></Matrix></MainReport></AB__Qtest><Data_Parameters_ScSm><parameter name="DPF">1</parameter><parameter name="NPT">1814</parameter><parameter name="FXV">3996.33169228125</parameter><parameter name="LXV">499.541461535156</parameter><parameter name="CSF">1</parameter><parameter name="MXY">0.290725857019424</parameter><parameter name="MNY">0.0353071317076683</parameter><parameter name="DAT">20/05/2022</parameter><parameter name="TIM">11:04:24.436 (GMT+2)</parameter><parameter name="DXU">WN</parameter></Data_Parameters_ScSm><Data_Parameters_ScRf><parameter name="DPF">1</parameter><parameter name="NPT">1820</parameter><parameter name="FXV">4004.04661832813</parameter><parameter name="LXV">495.683998511719</parameter><parameter name="CSF">1</parameter><parameter name="MXY">0.265120029449463</parameter><parameter name="MNY">0.0291358008980751</parameter><parameter name="DAT">20/05/2022</parameter><parameter name="TIM">11:03:58.953 (GMT+2)</parameter><parameter name="DXU">WN</parameter></Data_Parameters_ScRf><Optic_Parameters_Rf><parameter name="APR">0</parameter><parameter name="APT">Open</parameter><parameter name="BMS">KBr</parameter><parameter name="DTC">RT-DLaTGS_IR-Biotyper [Microplate reader]</parameter><parameter name="HPF">0</parameter><parameter name="LPF">10.0</parameter><parameter name="LPV">4000</parameter><parameter name="PGR">0</parameter><parameter name="RCH">Module port</parameter><parameter name="RDX">0</parameter><parameter name="SRC">MIR</parameter><parameter name="VEL">10.0</parameter><parameter name="SON">Off</parameter></Optic_Parameters_Rf><Acquisition_Parameters_Rf><parameter name="ADT">1</parameter><parameter name="AQM">DD</parameter><parameter name="CFE">0</parameter><parameter name="COR">0</parameter><parameter name="DEL">0</parameter><parameter name="DLY">0</parameter><parameter name="HFW">8000</parameter><parameter name="LFW">0</parameter><parameter name="NSR">32</parameter><parameter name="PLF">AB</parameter><parameter name="RES">6</parameter><parameter name="RGN">-1</parameter><parameter name="STR">0</parameter><parameter name="TCL">MakeCompatibleScalar (0, {WSV=1.000000, ARV=0});</parameter><parameter name="TDL">37</parameter><parameter name="RPO">0</parameter></Acquisition_Parameters_Rf><FT_-_Parameters_Rf><parameter name="APF">B3</parameter><parameter name="HFQ">500</parameter><parameter name="LFQ">4000</parameter><parameter name="NLI">0</parameter><parameter name="PHR">24</parameter><parameter name="PHZ">ML</parameter><parameter name="SPZ">NO</parameter><parameter name="ZFF">1</parameter></FT_-_Parameters_Rf><Optic_Parameters_><parameter name="APR">0</parameter><parameter name="APT">Open</parameter><parameter name="BMS">KBr</parameter><parameter name="CHN">Module port</parameter><parameter name="DTC">RT-DLaTGS_IR-Biotyper [Microplate reader]</parameter><parameter name="HPF">0</parameter><parameter name="LPF">10.0</parameter><parameter name="LPV">4000</parameter><parameter name="PGN">0</parameter><parameter name="RDX">0</parameter><parameter name="SRC">MIR</parameter><parameter name="VEL">10.0</parameter><parameter name="SON">Off</parameter></Optic_Parameters_><FT_-_Parameters_><parameter name="APF">B3</parameter><parameter name="HFQ">500</parameter><parameter name="LFQ">4000</parameter><parameter name="NLI">0</parameter><parameter name="PHR">24</parameter><parameter name="PHZ">ML</parameter><parameter name="SPZ">NO</parameter><parameter name="ZFF">1</parameter></FT_-_Parameters_><Acquisition_Parameters_><parameter name="ADT">1</parameter><parameter name="AQM">DD</parameter><parameter name="CFE">0</parameter><parameter name="COR">0</parameter><parameter name="DEL">0</parameter><parameter name="DLY">0</parameter><parameter name="HFW">8000</parameter><parameter name="LFW">0</parameter><parameter name="NSS">32</parameter><parameter name="PLF">AB</parameter><parameter name="RES">6</parameter><parameter name="SOT">0</parameter><parameter name="TCL">MakeCompatibleScalar (0, {WSV=1.000000, ARV=0});</parameter><parameter name="TDL">37</parameter><parameter name="SPO">0</parameter><parameter name="SGN">-1</parameter></Acquisition_Parameters_><Instrument_Parameters_Rf><parameter name="HFL">15800.168544</parameter><parameter name="LFL">0</parameter><parameter name="LWN">15800.168544</parameter><parameter name="ABP">32197</parameter><parameter name="SSP">1</parameter><parameter name="ARG">2</parameter><parameter name="ASG">2</parameter><parameter name="ASS">32</parameter><parameter name="GFW">16</parameter><parameter name="GBW">16</parameter><parameter name="BFW">0</parameter><parameter name="BBW">0</parameter><parameter name="PKA">7377</parameter><parameter name="PKL">4990</parameter><parameter name="PRA">7528</parameter><parameter name="PRL">5001</parameter><parameter name="P2A">1</parameter><parameter name="P2L">1</parameter><parameter name="P2R">1</parameter><parameter name="P2K">1</parameter><parameter name="DAQ">0</parameter><parameter name="AG2">1</parameter><parameter name="SSM">1</parameter><parameter name="RSN">24515</parameter><parameter name="CRR">0</parameter><parameter name="SRT">1653044638.953</parameter><parameter name="DUR">19.6379852294922</parameter><parameter name="TSC">28.9</parameter><parameter name="MVD">0.224004045128822</parameter><parameter name="AN1">0.225798352491213</parameter><parameter name="AN2">0</parameter><parameter name="VSN">2.485 Apr  4 2017</parameter><parameter name="SRN">0085</parameter><parameter name="CAM">0</parameter><parameter name="INS">IR-Biotyper</parameter><parameter name="FOC">69</parameter><parameter name="RDY">1</parameter><parameter name="ARS">32</parameter></Instrument_Parameters_Rf><Sample_Parameters_><parameter name="BLD"></parameter><parameter name="CNM">Admin</parameter><parameter name="CPY"></parameter><parameter name="DPM"></parameter><parameter name="EXP">IRBT_v3_32Scans.XPM</parameter><parameter name="LCT"></parameter><parameter name="SFM">Microplate, HTS-XT</parameter><parameter name="SNM">220520-0930(v.3)_RTF49M (D_17)_F4_98b217da-3bb9-4e0b-a3ef-e50be7bf8a9a.0</parameter><parameter name="XPP">C:\Users\Public\Documents\Bruker\OPUS_8.2.28\XPM</parameter><parameter name="IST">OK</parameter><parameter name="CPG">1252</parameter><parameter name="UID">b5500174-7f67-4c4a-aff1-3ef6150d4a82</parameter></Sample_Parameters_><Instrument_Parameters_><parameter name="HFL">15800.168544</parameter><parameter name="LFL">0</parameter><parameter name="LWN">15800.168544</parameter><parameter name="ABP">32197</parameter><parameter name="SSP">1</parameter><parameter name="ASG">2</parameter><parameter name="ARG">2</parameter><parameter name="ASS">32</parameter><parameter name="GFW">16</parameter><parameter name="GBW">16</parameter><parameter name="BFW">0</parameter><parameter name="BBW">0</parameter><parameter name="PKA">7914</parameter><parameter name="PKL">4988</parameter><parameter name="PRA">8125</parameter><parameter name="PRL">4993</parameter><parameter name="P2A">1</parameter><parameter name="P2L">1</parameter><parameter name="P2R">1</parameter><parameter name="P2K">1</parameter><parameter name="DAQ">0</parameter><parameter name="AG2">1</parameter><parameter name="SSM">1</parameter><parameter name="RSN">12882</parameter><parameter name="CRR">0</parameter><parameter name="SRT">1653044664.436</parameter><parameter name="DUR">19.6379852294922</parameter><parameter name="TSC">28.9</parameter><parameter name="MVD">0.257721960544586</parameter><parameter name="AN1">0.225775630237033</parameter><parameter name="AN2">0</parameter><parameter name="VSN">2.485 Apr  4 2017</parameter><parameter name="SRN">0085</parameter><parameter name="CAM">0</parameter><parameter name="INS">IR-Biotyper</parameter><parameter name="FOC">69</parameter><parameter name="RDY">1</parameter></Instrument_Parameters_><History/></OPUSDataFile>
