<?xml version="1.0" encoding="UTF-8" ?>
<OPUSDataFile><AB><Ydata ylabel="Absorbance Units"><values byteorder="INTEL" format="FLOAT32" numvalues="3497"> -0.03997124 -0.03997923 -0.03996974 -0.03994269 -0.03989886 -0.03983831 -0.03976414 -0.03967684 -0.03958224 -0.03948227
 -0.03939064 -0.03930964 -0.03925568 -0.03922706 -0.03922962 -0.03925681 -0.03930155 -0.03935653 -0.03941074 -0.03946026
 -0.03949756 -0.03952489 -0.03953989 -0.03955155 -0.03956232 -0.03958004 -0.03960846 -0.03964397 -0.03968735 -0.03972797
 -0.03976453 -0.0397948 -0.03981858 -0.03984374 -0.03987026 -0.03990064 -0.03993329 -0.03995938 -0.03997889 -0.03998563
 -0.03998389 -0.03998061 -0.03997964 -0.03999221 -0.04001484 -0.04004959 -0.04008766 -0.04012214 -0.0401494 -0.04016406
 -0.04017129 -0.04017219 -0.04016947 -0.04016507 -0.04015385 -0.04013465 -0.04010823 -0.0400737 -0.04004554 -0.04002451
 -0.04002209 -0.04003751 -0.04006294 -0.04009654 -0.04012161 -0.04014048 -0.04015181 -0.04016086 -0.04018078 -0.04021183
 -0.04026227 -0.04032521 -0.04039742 -0.04046864 -0.04053054 -0.04057389 -0.04059055 -0.04057942 -0.04053528 -0.04047273
 -0.04039204 -0.0403179 -0.04025391 -0.04021959 -0.04021747 -0.04025603 -0.04033592 -0.04045478 -0.04061123 -0.04078817
 -0.04098067 -0.04115115 -0.04129383 -0.04136389 -0.04136764 -0.04129267 -0.04116019 -0.04099938 -0.04082713 -0.04067673
 -0.04054887 -0.04045818 -0.04038976 -0.04034096 -0.04029327 -0.040236 -0.04017201 -0.04009581 -0.04003662 -0.03999818
 -0.04000443 -0.04006019 -0.04015198 -0.04027945 -0.04040096 -0.04051537 -0.04059711 -0.04065011 -0.04068567 -0.04070872
 -0.04074505 -0.04079292 -0.04086345 -0.04094686 -0.04103146 -0.04111016 -0.04116734 -0.04120822 -0.04123245 -0.04124358
 -0.04124559 -0.04123236 -0.04119921 -0.04115573 -0.04109769 -0.0410658 -0.04106515 -0.04113472 -0.04128284 -0.04148633
 -0.04174524 -0.04191798 -0.04199953 -0.04187522 -0.04157149 -0.04120534 -0.04079773 -0.04049581 -0.04028567 -0.04020785
 -0.04023847 -0.04036081 -0.04054142 -0.04073922 -0.04091727 -0.04102713 -0.04106543 -0.04100485 -0.04089865 -0.04075823
 -0.04063718 -0.04055823 -0.04051517 -0.04051347 -0.04051659 -0.04052017 -0.04051326 -0.0404947 -0.04048647 -0.04048967
 -0.04052578 -0.04059255 -0.04068765 -0.04080471 -0.04092007 -0.04102602 -0.04109096 -0.04111236 -0.04106711 -0.0409686
 -0.04081808 -0.04064494 -0.04047187 -0.04032517 -0.04022828 -0.04018577 -0.04020968 -0.04027619 -0.04038554 -0.04049553
 -0.0405987 -0.04066886 -0.04070062 -0.04070396 -0.04067909 -0.04064387 -0.04059791 -0.0405353 -0.04045464 -0.04034128
 -0.04019955 -0.04003623 -0.03986097 -0.03970184 -0.03956455 -0.03947453 -0.03942551 -0.0394229 -0.03945055 -0.03949785
 -0.03954963 -0.03959364 -0.03962412 -0.03963524 -0.03962893 -0.03960333 -0.03956788 -0.03952221 -0.03948605 -0.03946104
 -0.03946645 -0.03950375 -0.03957507 -0.03967914 -0.03979509 -0.03991965 -0.04001959 -0.04009537 -0.04012858 -0.04012736
 -0.04010267 -0.04006285 -0.04002927 -0.04000146 -0.03998868 -0.03998424 -0.03998322 -0.03998806 -0.03999447 -0.04002151
 -0.0400761 -0.04017052 -0.04031533 -0.04048474 -0.04068049 -0.04084698 -0.04097811 -0.04103927 -0.04102767 -0.04093691
 -0.04076803 -0.04053568 -0.04024728 -0.03996015 -0.0396823 -0.03947897 -0.03934608 -0.03931096 -0.03935442 -0.03946105
 -0.03959848 -0.039718 -0.03980653 -0.03982792 -0.03980834 -0.0397523 -0.03968555 -0.03962298 -0.03956482 -0.03951648
 -0.03946049 -0.03939409 -0.03930695 -0.03919572 -0.03907788 -0.03895404 -0.03885445 -0.03877992 -0.03874596 -0.03875032
 -0.03878698 -0.03884933 -0.03890934 -0.03895851 -0.03895544 -0.03890789 -0.03880561 -0.03867221 -0.03853713 -0.03840529
 -0.03829655 -0.03819139 -0.03808398 -0.03795748 -0.03779856 -0.03761992 -0.03741873 -0.03722737 -0.03705233 -0.03690875
 -0.03680138 -0.03671103 -0.03663734 -0.03653498 -0.03640236 -0.03620707 -0.0359556 -0.03567842 -0.03538503 -0.03513367
 -0.0349212 -0.034769 -0.03466982 -0.0346207 -0.03461486 -0.03464786 -0.03469909 -0.03475577 -0.0347815 -0.03474991
 -0.03464244 -0.03444017 -0.03415877 -0.03379836 -0.03337603 -0.03289317 -0.03237274 -0.03181551 -0.03126078 -0.03071131
 -0.03019047 -0.02969862 -0.02923771 -0.02880847 -0.02841791 -0.02806684 -0.02776588 -0.02750818 -0.02728252 -0.02707838
 -0.02686889 -0.0266542 -0.02642437 -0.02618002 -0.02592461 -0.02563833 -0.02530946 -0.02492664 -0.02447338 -0.02398423
 -0.02346477 -0.022947 -0.02244058 -0.02194409 -0.02145904 -0.02097407 -0.02048825 -0.02000294 -0.01951912 -0.0190582
 -0.01862149 -0.01823309 -0.0178854 -0.01756603 -0.0172527 -0.01687448 -0.01642535 -0.01584436 -0.01518054 -0.01447122
 -0.01376141 -0.01311395 -0.01252212 -0.01200347 -0.01152988 -0.011095 -0.01067151 -0.01025043 -0.009815006 -0.009359843
 -0.008882483 -0.008382034 -0.007858614 -0.007312335 -0.006736899 -0.006132323 -0.005498901 -0.004838977 -0.004171009 -0.003497014
 -0.002835842 -0.002186734 -0.001556383 -0.0009452566 -0.0003582613 0.0002067885 0.0007472275 0.001275811 0.00180342 0.002338336
 0.002893644 0.003455083 0.004019285 0.004575661 0.005114576 0.00566146 0.006218637 0.006814457 0.007456692 0.008117955
 0.008797821 0.009439359 0.0100413 0.01058899 0.01108714 0.01156608 0.01203045 0.01251815 0.01302623 0.01356913
 0.01413438 0.01470492 0.01527145 0.0158094 0.01633032 0.01683036 0.0173399 0.01787825 0.01846136 0.01910911
 0.01979209 0.02050965 0.02121642 0.02190175 0.02254801 0.02314963 0.02372147 0.02426358 0.02480752 0.02535448
 0.02592454 0.02651548 0.02711798 0.02772961 0.02833265 0.02893117 0.02952755 0.03012644 0.03074135 0.03136571
 0.03199849 0.03262686 0.03323667 0.03382554 0.03438527 0.03492593 0.03545021 0.03596512 0.03647514 0.03697437
 0.0374625 0.03793259 0.03838164 0.03882688 0.03926847 0.03974606 0.04026095 0.04083282 0.04145696 0.04210381
 0.04276671 0.04339756 0.04399954 0.04455461 0.04507439 0.04557312 0.04605936 0.0465526 0.04705101 0.04756214
 0.04807454 0.0485839 0.04907837 0.04954925 0.04999963 0.05042545 0.05084744 0.05126823 0.05170861 0.05217235
 0.05266379 0.05318408 0.05371979 0.05426988 0.05481077 0.05534143 0.05584202 0.0563146 0.05675674 0.05717387
 0.05758 0.05797997 0.05839044 0.05881196 0.0592537 0.05970998 0.0601799 0.06065462 0.06112732 0.06159521
 0.06205418 0.06250891 0.06296162 0.06340816 0.06385018 0.06426953 0.06466323 0.06502641 0.06535736 0.06568285
 0.06600445 0.06635699 0.06673954 0.06716064 0.06761429 0.0680788 0.06854701 0.068986 0.06939433 0.06975017
 0.07006415 0.0703394 0.07059264 0.07084291 0.07109503 0.07135987 0.07163016 0.07190297 0.07218108 0.07246248
 0.07276177 0.07308307 0.07342727 0.07379674 0.07417271 0.074554 0.0749249 0.075285 0.07563384 0.07597242
 0.07630899 0.07664484 0.07699054 0.07734615 0.07771898 0.0781043 0.07849757 0.07889056 0.07926962 0.07962994
 0.07996125 0.08026429 0.08053637 0.08077992 0.08099506 0.08118511 0.08134989 0.08149759 0.08162826 0.08175791
 0.08188788 0.08203672 0.08220613 0.08240564 0.08263545 0.08289074 0.08317096 0.08346906 0.08378518 0.08411845
 0.08446509 0.08481625 0.08516169 0.08547511 0.08575277 0.08597199 0.08615151 0.08629703 0.08643906 0.08660334
 0.08679707 0.08703776 0.08729292 0.08755858 0.08779541 0.08798993 0.0881464 0.08825975 0.08837708 0.08850214
 0.08866197 0.08885652 0.08904737 0.08923054 0.08934863 0.08940826 0.08940797 0.08936438 0.08932974 0.08930983
 0.08934646 0.08942559 0.08954637 0.08969048 0.08983734 0.08998122 0.09010902 0.09023062 0.0903447 0.09047133
 0.09061708 0.09079389 0.09100955 0.09124427 0.09149972 0.09172752 0.0919239 0.09205335 0.09211485 0.09211826
 0.09206714 0.09200083 0.09192024 0.09185129 0.09179017 0.09173626 0.09169134 0.09165565 0.09164022 0.09166351
 0.09172647 0.0918447 0.0919909 0.09215514 0.09230164 0.09240595 0.09246677 0.09247151 0.09246002 0.09243745
 0.09244239 0.09248368 0.09255884 0.09267002 0.09277842 0.09288203 0.09294043 0.09295435 0.09291314 0.09282363
 0.09271222 0.09258856 0.09249759 0.09244207 0.09245386 0.09252002 0.09264034 0.09278779 0.09293672 0.09306224
 0.09313554 0.09315643 0.09311105 0.09303097 0.09291976 0.09282009 0.09274193 0.09271215 0.09273686 0.09282103
 0.092966 0.09316577 0.0934199 0.09371544 0.09404949 0.09439106 0.09473256 0.0950194 0.09524542 0.09535668
 0.09536505 0.0952596 0.09507979 0.09487461 0.0946873 0.09458838 0.09457678 0.09468801 0.09485954 0.09507774
 0.09526375 0.09538579 0.09540837 0.0953117 0.09512056 0.09483165 0.09450506 0.09414475 0.09380954 0.09350227
 0.09325241 0.09305853 0.09291642 0.09282371 0.09276532 0.09274263 0.09275266 0.09279681 0.09288096 0.09299476
 0.09313183 0.09326446 0.09336525 0.09340304 0.09334406 0.0931816 0.09289552 0.0925205 0.09205702 0.09156529
 0.09105679 0.09058391 0.09015653 0.08979875 0.08951472 0.08929602 0.0891419 0.08901285 0.08890598 0.08877391
 0.08861998 0.08843387 0.08822746 0.08803719 0.08786447 0.08773801 0.08763383 0.08752983 0.0874005 0.08720202
 0.0869474 0.08662244 0.0862775 0.08593203 0.08562963 0.08539433 0.08522634 0.08513616 0.08507999 0.08505628
 0.08500221 0.08491194 0.08474527 0.08450038 0.08419 0.08381823 0.08343516 0.08304366 0.08268609 0.08235977
 0.08207818 0.08183736 0.08163568 0.08146883 0.08133187 0.08121514 0.08110891 0.08099907 0.08087235 0.08072011
 0.08053243 0.08031447 0.08006316 0.07979698 0.07951836 0.07924831 0.07899115 0.07875271 0.07853487 0.07832295
 0.0781162 0.07789668 0.07766455 0.07741591 0.07715254 0.07688215 0.07660597 0.0763318 0.07606035 0.07579643
 0.07554153 0.07530051 0.07507294 0.07486182 0.074661 0.07446808 0.07427423 0.07407384 0.07386369 0.07364032
 0.0734082 0.07316792 0.07292242 0.07267298 0.0724146 0.07214699 0.07186525 0.07156916 0.07126435 0.07095174
 0.07064447 0.07034283 0.07005597 0.06978219 0.06952117 0.06927006 0.06902242 0.06877615 0.06852437 0.06826828
 0.06800465 0.06774128 0.06748027 0.067237 0.06701853 0.06684042 0.06671246 0.06663082 0.06660249 0.06658637
 0.06658113 0.06652299 0.06640546 0.06619143 0.0658789 0.06549235 0.06503683 0.06458043 0.06412788 0.06374314
 0.06342215 0.06318992 0.06302861 0.06291506 0.06282166 0.06269322 0.06251578 0.0622435 0.06190284 0.06149055
 0.06106122 0.06064446 0.06026889 0.05995841 0.05969121 0.05946754 0.05925906 0.05905751 0.05887692 0.0587162
 0.05861546 0.05857679 0.05860772 0.05870377 0.05881214 0.05892389 0.05895798 0.05891481 0.05874634 0.05847267
 0.05811198 0.05769379 0.05727625 0.05687024 0.05651644 0.0561962 0.05590821 0.05563442 0.05535846 0.05509438
 0.05484138 0.05462338 0.05445132 0.05431043 0.05420391 0.05408451 0.0539469 0.05377356 0.05356329 0.05335426
 0.05314905 0.05299387 0.05288482 0.05282413 0.05280234 0.0527863 0.05277204 0.05273181 0.05267116 0.05258624
 0.05248486 0.05237694 0.05226003 0.05214032 0.05199777 0.05182599 0.05160011 0.05130518 0.05094625 0.05051377
 0.05006149 0.04959298 0.04917758 0.04882414 0.04855434 0.04836995 0.04821937 0.04809776 0.04792534 0.04770373
 0.04739731 0.04702181 0.04661239 0.04618749 0.0458118 0.04548611 0.04524605 0.04507044 0.04495163 0.04486232
 0.04477819 0.04468302 0.04455905 0.04440932 0.04422729 0.04403559 0.04383721 0.0436578 0.04350505 0.04337129
 0.04325936 0.04311906 0.04294764 0.04270661 0.0423987 0.04205396 0.04168056 0.04134845 0.04105303 0.04082042
 0.04062871 0.04043653 0.04023093 0.03996402 0.03965374 0.03929749 0.0389281 0.0385727 0.03824747 0.03797184
 0.03773903 0.03755104 0.03739862 0.03727865 0.03719157 0.03713734 0.03711547 0.03712745 0.03715244 0.03718951
 0.03719424 0.03716443 0.03705747 0.03687656 0.03661608 0.03628838 0.03593362 0.03556634 0.03524312 0.03496841
 0.03477832 0.03466213 0.03462397 0.0346447 0.03471074 0.034807 0.0349205 0.03504747 0.03518349 0.03532929
 0.03548557 0.03564625 0.03581088 0.03597075 0.03612379 0.0362789 0.03643623 0.03663182 0.03686766 0.0371819
 0.03757178 0.0380419 0.03858198 0.03915699 0.0397571 0.04033889 0.04090239 0.04142608 0.04191925 0.04238404
 0.0428302 0.04326634 0.04369884 0.04413269 0.04457409 0.04502621 0.04549392 0.04598099 0.0464795 0.04699166
 0.04748831 0.04796785 0.04839319 0.04876192 0.049056 0.04927648 0.04943746 0.04954223 0.04961937 0.04966977
 0.04971129 0.04974438 0.04977602 0.04981399 0.04987291 0.04996381 0.05010916 0.05030436 0.0505592 0.05084681
 0.05115617 0.05146199 0.05174829 0.05201726 0.05226361 0.05250882 0.05275596 0.05301969 0.05330284 0.05360253
 0.05391897 0.0542351 0.05454913 0.05483072 0.055077 0.05525205 0.0553581 0.05538005 0.05533156 0.05523692
 0.05511367 0.05500744 0.05491675 0.05486882 0.05482362 0.0547689 0.05463292 0.05437581 0.0539344 0.05326743
 0.05237335 0.05123033 0.04992154 0.04844854 0.04694431 0.04542154 0.04399186 0.04266346 0.04147717 0.04043191
 0.03950881 0.03870448 0.03798739 0.03735697 0.03679636 0.03630262 0.03586278 0.03546688 0.03509226 0.03473004
 0.0343578 0.03397918 0.03358736 0.03319558 0.03280958 0.03243932 0.03209065 0.03176633 0.03146774 0.03119763
 0.03095579 0.03075006 0.03058048 0.03046219 0.03039604 0.03040053 0.03047536 0.03061939 0.03082553 0.03104697
 0.03127166 0.03142441 0.03150367 0.03146142 0.03131629 0.03107613 0.03076699 0.03042475 0.03006491 0.02971297
 0.02937454 0.02905842 0.02877027 0.0285129 0.0282949 0.02811799 0.02799319 0.02792206 0.02791749 0.02798262
 0.02811043 0.02830194 0.02848877 0.02866369 0.02869295 0.0285697 0.02817199 0.02751675 0.02659421 0.02545193
 0.02420453 0.02289834 0.02167652 0.02054162 0.01956457 0.01870135 0.01794029 0.0172351 0.01654962 0.01587566
 0.01519656 0.01453578 0.01389598 0.01329975 0.01275281 0.0122603 0.01182441 0.01143533 0.01109283 0.01077714
 0.01048702 0.01019977 0.009914941 0.009617412 0.009309491 0.008991018 0.00866749 0.008352447 0.008052004 0.007784822
 0.007550465 0.007359738 0.007198649 0.007061971 0.00692763 0.006779845 0.006608658 0.006401579 0.006175576 0.005929431
 0.005696464 0.005483237 0.005308256 0.005176745 0.005071555 0.004992415 0.004901746 0.004798505 0.004664095 0.004502105
 0.004330689 0.004153218 0.003996442 0.003854117 0.003724921 0.003597399 0.003446867 0.003273919 0.00306457 0.002836582
 0.002599729 0.002371748 0.002168499 0.001991526 0.001847033 0.00172505 0.001624697 0.001534386 0.001452694 0.001366149
 0.001273326 0.001161511 0.001029462 0.0008791981 0.0007115921 0.0005462352 0.000384133 0.0002432788 0.0001209236 1.57596E-05
 -7.692862E-05 -0.0001718251 -0.0002689082 -0.0003772598 -0.0004889987 -0.000598749 -0.0006965362 -0.0007701046 -0.000818168 -0.0008332353
 -0.0008282384 -0.0008044616 -0.0007821551 -0.0007669447 -0.0007740448 -0.0008078521 -0.0008725053 -0.0009697743 -0.001092799 -0.00124153
 -0.001400024 -0.00156729 -0.001724176 -0.001870494 -0.001995142 -0.002100322 -0.002189026 -0.002264387 -0.002337087 -0.002407572
 -0.002482888 -0.002558967 -0.002633797 -0.002702506 -0.002758565 -0.002803602 -0.002834099 -0.002862 -0.00289046 -0.002932817
 -0.002994653 -0.003078399 -0.003186982 -0.003309594 -0.003445921 -0.003580783 -0.003713095 -0.003832152 -0.003937765 -0.004028659
 -0.004106158 -0.004179672 -0.004251166 -0.004334982 -0.004430349 -0.004544113 -0.004670724 -0.004803737 -0.004936181 -0.005055201
 -0.00515951 -0.005241064 -0.005308406 -0.005362786 -0.005417794 -0.005479999 -0.005556446 -0.00565233 -0.005761285 -0.005883974
 -0.0060073 -0.006129575 -0.006243664 -0.006348743 -0.00644678 -0.006537887 -0.006625148 -0.006708107 -0.006784386 -0.006853312
 -0.006909961 -0.006955503 -0.006989456 -0.007016177 -0.007043201 -0.007075463 -0.007123363 -0.007187639 -0.007273873 -0.007377234
 -0.007496803 -0.007626574 -0.007763606 -0.007904622 -0.008048397 -0.008191807 -0.008334599 -0.008471154 -0.008600764 -0.008719295
 -0.008826213 -0.008924207 -0.009013562 -0.009101458 -0.009188062 -0.00927816 -0.009371017 -0.009466042 -0.00956215 -0.009655979
 -0.009746815 -0.009831569 -0.009910314 -0.009981481 -0.01004657 -0.01010592 -0.01016241 -0.01021786 -0.01027456 -0.01033408
 -0.01039701 -0.01046371 -0.01053482 -0.01061016 -0.01069271 -0.0107828 -0.01088306 -0.01099386 -0.01111216 -0.0112376
 -0.01136129 -0.01148277 -0.01159376 -0.01169493 -0.01178453 -0.01186448 -0.01193937 -0.01201054 -0.01208326 -0.01215675
 -0.01223251 -0.01230848 -0.0123829 -0.01245531 -0.01252438 -0.01259202 -0.01265868 -0.01272623 -0.01279564 -0.0128663
 -0.01293838 -0.01301029 -0.01308171 -0.013153 -0.01322408 -0.01329689 -0.01337146 -0.01344788 -0.01352583 -0.01360267
 -0.01367814 -0.01374937 -0.01381684 -0.01388013 -0.01394043 -0.01399976 -0.01405924 -0.01412134 -0.0141864 -0.01425594
 -0.01432888 -0.0144053 -0.01448311 -0.01456158 -0.01463853 -0.01471327 -0.01478386 -0.01484984 -0.01490969 -0.01496291
 -0.01501063 -0.0150527 -0.01509484 -0.01513734 -0.01518582 -0.01523992 -0.015299 -0.01536212 -0.01542414 -0.01548543
 -0.01554413 -0.01560173 -0.01566109 -0.01572143 -0.01578388 -0.01584438 -0.01589921 -0.01594597 -0.01598048 -0.01600708
 -0.0160253 -0.01604478 -0.01606843 -0.01610287 -0.01615106 -0.01620955 -0.01627912 -0.01634796 -0.01641523 -0.01647153
 -0.01651661 -0.01655216 -0.01657918 -0.0166077 -0.0166381 -0.01667805 -0.0167258 -0.0167805 -0.01683919 -0.01689524
 -0.0169471 -0.01698895 -0.01702287 -0.01704799 -0.01706911 -0.01708939 -0.01711166 -0.01713898 -0.01716855 -0.01720051
 -0.01723026 -0.01725621 -0.01727942 -0.01729932 -0.01732243 -0.01734926 -0.01738391 -0.01742645 -0.0174743 -0.0175272
 -0.01758131 -0.01763716 -0.0176953 -0.0177565 -0.01782386 -0.01789667 -0.01797559 -0.01805826 -0.01814188 -0.01822372
 -0.01829999 -0.01836924 -0.01842862 -0.01848016 -0.01852311 -0.01856335 -0.01860245 -0.01864522 -0.01869366 -0.01874587
 -0.01880225 -0.01885694 -0.01890934 -0.01895835 -0.01900402 -0.01905211 -0.01910286 -0.01916123 -0.01922618 -0.01929544
 -0.01936727 -0.01943468 -0.01949782 -0.01955268 -0.01960249 -0.01965007 -0.0196986 -0.01975341 -0.01981273 -0.01987825
 -0.01994331 -0.02000501 -0.02005933 -0.02010328 -0.02014021 -0.02016975 -0.02019868 -0.02022796 -0.02026135 -0.02029933
 -0.02034237 -0.02039051 -0.0204438 -0.02050226 -0.0205664 -0.02063572 -0.02070852 -0.02078317 -0.02085374 -0.02091895
 -0.02097226 -0.02101598 -0.02104941 -0.02107865 -0.02110993 -0.02114669 -0.0211949 -0.02124992 -0.02131197 -0.02137296
 -0.0214298 -0.02147945 -0.02151988 -0.02155523 -0.0215856 -0.02161644 -0.02164836 -0.02168183 -0.0217168 -0.02174908
 -0.02177864 -0.02180314 -0.02182363 -0.0218444 -0.02186621 -0.02189454 -0.02192736 -0.02196317 -0.02199946 -0.02203049
 -0.02205873 -0.02208341 -0.02211077 -0.0221458 -0.02218994 -0.02224703 -0.02230961 -0.02237672 -0.0224391 -0.02249396
 -0.02253899 -0.02257288 -0.02260076 -0.02262289 -0.02264483 -0.02266682 -0.022689 -0.02271106 -0.02272946 -0.02274444
 -0.02275517 -0.0227628 -0.02277068 -0.02277955 -0.02279287 -0.02281014 -0.02283253 -0.02285813 -0.02288586 -0.02291268
 -0.0229361 -0.02295407 -0.02296395 -0.0229689 -0.02296825 -0.02297039 -0.02297697 -0.02299469 -0.02302537 -0.02306741
 -0.02312122 -0.02317777 -0.02323659 -0.02328786 -0.02333173 -0.02336548 -0.02339092 -0.02341574 -0.02344223 -0.02348213
 -0.02353592 -0.02361075 -0.02370528 -0.02382004 -0.02395507 -0.02410874 -0.02428713 -0.02449186 -0.02473537 -0.02502365
 -0.02536725 -0.02577364 -0.026236 -0.02675695 -0.02731221 -0.02789867 -0.02849847 -0.02910914 -0.02973292 -0.0303696
 -0.03100442 -0.03163189 -0.03218658 -0.03266116 -0.03297965 -0.03314449 -0.0331228 -0.03292301 -0.0325397 -0.03200059
 -0.03133151 -0.03059484 -0.02986459 -0.0291895 -0.02863232 -0.02820237 -0.02792093 -0.02778195 -0.02779006 -0.02792811
 -0.02820192 -0.02854678 -0.02896247 -0.02932742 -0.02963005 -0.02979651 -0.02982327 -0.02974796 -0.02957619 -0.02938417
 -0.02917413 -0.02899886 -0.02885293 -0.02874829 -0.02867383 -0.02861027 -0.02855037 -0.02847354 -0.02837943 -0.0282605
 -0.02811665 -0.02794449 -0.02774811 -0.02752565 -0.02729261 -0.02705292 -0.02682223 -0.0266054 -0.02640846 -0.02623316
 -0.02608058 -0.02595117 -0.02584236 -0.02575397 -0.02567353 -0.0256002 -0.02551938 -0.02543209 -0.02533605 -0.02523372
 -0.02513282 -0.02503373 -0.02494132 -0.02485447 -0.02477316 -0.02469738 -0.02462688 -0.02456243 -0.02450454 -0.02445367
 -0.02441026 -0.02437422 -0.02434613 -0.02432347 -0.0243063 -0.02428941 -0.0242718 -0.02425157 -0.02422808 -0.02420635
 -0.02418662 -0.02417381 -0.02416778 -0.02416805 -0.02417432 -0.02418447 -0.02419873 -0.0242174 -0.02423943 -0.0242634
 -0.02428627 -0.0243024 -0.02431032 -0.02430492 -0.02428998 -0.02426571 -0.02423895 -0.02421342 -0.02419317 -0.02418136
 -0.02417552 -0.02417631 -0.02417713 -0.02417703 -0.02417132 -0.02415919 -0.02414192 -0.02411954 -0.02409722 -0.02407522
 -0.02405837 -0.02404649 -0.02404118 -0.02404168 -0.02404629 -0.02405412 -0.02406217 -0.02407017 -0.02407615 -0.02408068
 -0.02408353 -0.02408569 -0.02408794 -0.02409054 -0.02409421 -0.02409754 -0.02410051 -0.02410048 -0.0240968 -0.02408788
 -0.0240732 -0.02405345 -0.02402859 -0.02400016 -0.02396823 -0.0239353 -0.02390168 -0.02387232 -0.02384742 -0.0238314
 -0.02382299 -0.02382052 -0.02382172 -0.02381988 -0.02381493 -0.0238028 -0.02378693 -0.02376948 -0.02375381 -0.02374387
 -0.02373946 -0.02374211 -0.0237488 -0.02375885 -0.02376957 -0.02377991 -0.02378994 -0.02379938 -0.02380992 -0.02382178
 -0.02383527 -0.02385042 -0.02386527 -0.02387968 -0.0238917 -0.02390147 -0.02390912 -0.02391466 -0.02391818 -0.02391945
 -0.02391775 -0.02391331 -0.02390607 -0.02389661 -0.02388557 -0.02387341 -0.02386026 -0.02384784 -0.02383627 -0.0238299
 -0.02383028 -0.02384075 -0.02386338 -0.0238947 -0.02393529 -0.02397569 -0.02401514 -0.0240454 -0.02406595 -0.0240755
 -0.0240745 -0.02406877 -0.02405919 -0.02405426 -0.02405388 -0.02406305 -0.02407951 -0.02410097 -0.02412385 -0.02414072
 -0.02415065 -0.02414818 -0.0241381 -0.02412137 -0.02410571 -0.02409619 -0.02409558 -0.02410749 -0.02412617 -0.02415157
 -0.02417473 -0.0241939 -0.02420525 -0.02420781 -0.02420512 -0.02419731 -0.02419034 -0.02418438 -0.0241829 -0.02418581
 -0.02419422 -0.02420817 -0.02422872 -0.02425532 -0.02428782 -0.02432389 -0.02435982 -0.02439323 -0.02441902 -0.02443866
 -0.02445082 -0.02446003 -0.02446886 -0.02447896 -0.02449231 -0.02450591 -0.02451907 -0.02453095 -0.02454073 -0.02455265
 -0.02456711 -0.02458671 -0.02461169 -0.02463707 -0.0246624 -0.02467981 -0.02468971 -0.02469045 -0.0246839 -0.02467639
 -0.02466907 -0.02466867 -0.02467382 -0.02468566 -0.02470139 -0.02471805 -0.02473392 -0.02474632 -0.02475558 -0.02476076
 -0.024764 -0.02476522 -0.02476909 -0.02477658 -0.02479236 -0.02481809 -0.02485117 -0.02489218 -0.02492976 -0.02496328
 -0.02498298 -0.02498911 -0.02498411 -0.02496953 -0.02495706 -0.02494715 -0.02494843 -0.02495879 -0.02497761 -0.0250021
 -0.0250268 -0.02505117 -0.0250719 -0.02509086 -0.02510854 -0.02512641 -0.02514596 -0.02516605 -0.02518671 -0.02520614
 -0.02522335 -0.02523996 -0.02525566 -0.02527517 -0.02529901 -0.02532997 -0.02536832 -0.02541039 -0.02545575 -0.0254967
 -0.02553339 -0.0255624 -0.02558521 -0.02560576 -0.02562498 -0.02564778 -0.02567272 -0.0256997 -0.02572669 -0.02575083
 -0.02577197 -0.02578888 -0.02580241 -0.02581267 -0.02582063 -0.02582614 -0.02583237 -0.0258397 -0.02585282 -0.0258731
 -0.02589988 -0.0259338 -0.02596634 -0.02599702 -0.02601855 -0.02603115 -0.02603826 -0.02604104 -0.02604969 -0.02606372
 -0.02608753 -0.02611794 -0.02614881 -0.02617802 -0.02619774 -0.02621077 -0.02621703 -0.02622075 -0.02622668 -0.02623358
 -0.0262428 -0.02624982 -0.02625193 -0.02625127 -0.02624653 -0.02624758 -0.02625617 -0.02627801 -0.02631463 -0.02636045
 -0.02641532 -0.02646893 -0.02652094 -0.02656532 -0.02660228 -0.02663028 -0.02664965 -0.02666046 -0.02666363 -0.02666088
 -0.02665449 -0.02664913 -0.02664679 -0.02665259 -0.02666494 -0.0266852 -0.02670836 -0.02673173 -0.02675237 -0.02676765
 -0.02677985 -0.02678906 -0.02679769 -0.02680667 -0.02681374 -0.02681881 -0.02681918 -0.02681459 -0.02680755 -0.02679828
 -0.02679143 -0.02678683 -0.02678574 -0.0267875 -0.02679002 -0.02679309 -0.02679488 -0.02679603 -0.02679676 -0.02679795
 -0.02680089 -0.02680574 -0.02681335 -0.02682279 -0.02683405 -0.02684541 -0.02685658 -0.0268646 -0.02686892 -0.02686584
 -0.02685419 -0.02683431 -0.02680546 -0.02677565 -0.02674526 -0.02672447 -0.02671348 -0.02671563 -0.02673005 -0.02675201
 -0.02678048 -0.02680883 -0.02683643 -0.02685827 -0.0268742 -0.02688119 -0.02688071 -0.0268728 -0.02686068 -0.02684729
 -0.02683439 -0.02682447 -0.02681606 -0.02680902 -0.02680232 -0.02679499 -0.02678992 -0.02678755 -0.02678973 -0.02679729
 -0.02680467 -0.02681166 -0.0268095 -0.02679819 -0.02677857 -0.02675232 -0.02673269 -0.02672055 -0.02672789 -0.02675136
 -0.02678893 -0.02683507 -0.0268784 -0.02691599 -0.02693877 -0.02694793 -0.02694082 -0.0269213 -0.02689021 -0.02685339
 -0.0268133 -0.02677433 -0.02673853 -0.02670639 -0.0266784 -0.02665382 -0.02663248 -0.0266155 -0.02660303 -0.02659376
 -0.0265874 -0.02657718 -0.02656296 -0.02653999 -0.02650982 -0.02647629 -0.02644143 -0.02641317 -0.02639147 -0.0263804
 -0.02637795 -0.02638333 -0.02639415 -0.02640837 -0.02642325 -0.02643695 -0.02644636 -0.02644967 -0.02644542 -0.02643221
 -0.02641279 -0.02638711 -0.02636011 -0.02633249 -0.0263063 -0.02628181 -0.02625662 -0.02623068 -0.02620299 -0.0261743
 -0.02615002 -0.02613085 -0.02612352 -0.02612633 -0.02613913 -0.02615742 -0.02617277 -0.02618148 -0.02617388 -0.02615231
 -0.02611419 -0.02606678 -0.02601378 -0.02596071 -0.02591166 -0.02586588 -0.02582441 -0.02578331 -0.02574161 -0.02569905
 -0.02565506 -0.02561462 -0.02557804 -0.02554959 -0.02552936 -0.02551744 -0.02551334 -0.02551386 -0.02551732 -0.02551488
 -0.02550498 -0.02547692 -0.02543444 -0.0253779 -0.02531572 -0.02525975 -0.02521441 -0.02518931 -0.02518145 -0.025193
 -0.02521585 -0.02524812 -0.02527939 -0.02530673 -0.02532113 -0.02532006 -0.02530037 -0.025261 -0.02520467 -0.02513141
 -0.02504616 -0.02494924 -0.02484722 -0.02474065 -0.02463726 -0.02453707 -0.02444438 -0.02435874 -0.02428091 -0.02421083
 -0.02414936 -0.02409485 -0.02404667 -0.02399967 -0.02394865 -0.02389065 -0.02382039 -0.02374369 -0.023661 -0.02358075
 -0.02350639 -0.02343901 -0.02338012 -0.0233245 -0.02327176 -0.02321707 -0.02315999 -0.02309966 -0.02303593 -0.02296663
 -0.02289061 -0.02279709 -0.02268537 -0.02254393 -0.02237853 -0.02219846 -0.02201219 -0.02184346 -0.02168971 -0.02156032
 -0.02144209 -0.02132544 -0.02120187 -0.02105977 -0.02090706 -0.02074254 -0.02058169 -0.02042966 -0.02029331 -0.02017656
 -0.02007146 -0.01997923 -0.01987493 -0.01975695 -0.01960157 -0.01940866 -0.01919002 -0.01894858 -0.01871618 -0.01849154
 -0.01828645 -0.01809581 -0.01791061 -0.01772754 -0.01753501 -0.01733397 -0.0171198 -0.01689745 -0.01666919 -0.01644152
 -0.01622118 -0.01600565 -0.01579958 -0.01558266 -0.01535058 -0.01508369 -0.01477394 -0.01443212 -0.01405751 -0.01367188
 -0.01327736 -0.01287354 -0.01246033 -0.01203224 -0.0115905 -0.01114517 -0.01069576 -0.0102483 -0.009794868 -0.009315217
 -0.008802612 -0.008228214 -0.007604685 -0.006933955 -0.00623889 -0.005545353 -0.004858498 -0.004190743 -0.003536743 -0.002895218
 -0.002268478 -0.001656582 -0.001064144 -0.0004959532 6.868991E-05 0.0006269086 0.001245123 0.001928199 0.00272992 0.003649913
 0.004621393 0.005637275 0.006599114 0.007517536 0.00839176 0.009236194 0.01009585 0.01097216 0.01188936 0.01284389
 0.01383497 0.01487636 0.01597022 0.01716264 0.01848158 0.01997114 0.02167754 0.02354603 0.02558966 0.02765675
 0.02971651 0.0316746 0.03350879 0.03522388 0.03681653 0.03833896 0.03979517 0.04128184 0.04280923 0.04452397
 0.0464132 0.04851847 0.05076759 0.05294714 0.0550388 0.05687743 0.05854135 0.06007674 0.06154105 0.06301785
 0.06450682 0.06603415 0.06758268 0.06914812 0.07072712 0.072324 0.07390617 0.07547098 0.0769709 0.07839461
 0.07975766 0.08105969 0.08233545 0.08358497 0.08476494 0.08587062 0.0868321 0.08766054 0.08836841 0.08898163
 0.08959066 0.0902021 0.09088924 0.09160499 0.09230868 0.09297165 0.0935351 0.09403499 0.09448231 0.09489489
 0.09529316 0.09564803 0.09595551 0.09618632 0.09633133 0.09638614 0.09634705 0.09623102 0.0960376 0.09581252
 0.09555811 0.09531819 0.09509033 0.09486707 0.0946443 0.09439501 0.0941237 0.09382726 0.09351876 0.09322352
 0.09295233 0.0927353 0.09256668 0.09245101 0.09238292 0.09235294 0.09238256 0.09247784 0.09266249 0.09295344
 0.09332562 0.0937802 0.09427138 0.09478989 0.09533398 0.09590147 0.0965213 0.09719469 0.09793773 0.09874926
 0.09962364 0.1005588 0.1015421 0.1025716 0.1036341 0.1047299 0.1058513 0.107004 0.1081931 0.109424
 0.1107061 0.1120357 0.1134142 0.1148343 0.1162918 0.1177855 0.1193139 0.1208781 0.1224804 0.1241073
 0.1257607 0.1273994 0.1290208 0.1305809 0.1320783 0.1335187 0.1349062 0.1362928 0.1376709 0.1390376
 0.1403656 0.1415574 0.1426128 0.1434749 0.1441775 0.1447521 0.1452124 0.1455895 0.1458719 0.1460596
 0.1461454 0.1461309 0.1459911 0.1457297 0.1452703 0.1445901 0.1436722 0.142491 0.1412334 0.1399154
 0.1386357 0.1373974 0.1360996 0.1347393 0.133248 0.1316367 0.1299298 0.1281353 0.1263038 0.1244102
 0.1224419 0.1203303 0.1179484 0.1153011 0.1122757 0.1091185 0.1059798 0.1030142 0.1003926 0.09795891
 0.09569497 0.09346994 0.09123304 0.08901735 0.08681659 0.08470958 0.082706 0.08079857 0.07898647 0.07719835
 0.07543309 0.07365079 0.07186165 0.07009778 0.06837211 0.06674884 0.06522225 0.06381682 0.06250764 0.06126809
 0.06007668 0.05890228 0.05772809 0.05654056 0.05530297 0.05399498 0.05258673 0.05103495 0.04946188 0.04787052
 0.04646661 0.04530049 0.04433113 0.04356596 0.04283877 0.0421418 0.04139672 0.04060891 0.03981456 0.03902156
 0.03829635 0.03762907 0.03702038 0.03646026 0.03591816 0.03541131 0.03494862 0.03455873 0.0342825 0.03411686
 0.03407826 0.03413817 0.0342855 0.03450247 0.0347783 0.03511412 0.03550452 0.03597451 0.03652198 0.03721053
 0.03804577 0.03907864 0.04031093 0.04164506 0.04306867 0.04439903 0.04564232 0.04673799 0.0477049 0.04857967
 0.04936324 0.0500752 0.0507108 0.05125942 0.0517504 0.0521971 0.05266815 0.05322659 0.05389054 0.05471408
 0.05558372 0.0564709 0.05729169 0.0580075 0.05865508 0.05923143 0.0598007 0.06036934 0.06096738 0.06159648
 0.0622439 0.06290833 0.06356797 0.06422652 0.06489102 0.06557142 0.06630678 0.0671009 0.06798841 0.06895097
 0.06997538 0.071044 0.07212435 0.07323191 0.07436701 0.07554818 0.07679337 0.07808179 0.07941518 0.08075103
 0.08207612 0.083382 0.08466101 0.08595101 0.08725519 0.08859932 0.08998464 0.09135107 0.09269149 0.09389751
 0.09496956 0.09585516 0.09656055 0.09708339 0.09741949 0.09755914 0.09749389 0.09720109 0.09668964 0.09595414
 0.09502472 0.093921 0.09266985 0.09129379 0.08979392 0.08817688 0.08643148 0.08454919 0.08256082 0.08046099
 0.07834865 0.07623172 0.07419609 0.07224675 0.07038262 0.06860086 0.06686147 0.06516711 0.06351215 0.06190506
 0.06037617 0.05892369 0.05756235 0.05627713 0.05505068 0.05386994 0.05271248 0.0515748 0.05044614 0.04932993
 0.04822373 0.0471371 0.04607163 0.0450406 0.04404859 0.04309833 0.04219293 0.04131585 0.04046591 0.03962738
 0.03879929 0.03799865 0.03722839 0.03653351 0.03591359 0.03539187 0.03495933 0.03459596 0.03429443 0.03402589
 0.03379187 0.03358148 0.03340026 0.03325095 0.03313625 0.0330613 0.0330201 0.03301409 0.03302557 0.03305054
 0.03306704 0.03306854 0.03304362 0.03298824 0.0329071 0.03279976 0.03267831 0.0325434 0.03240205 0.03225417
 0.03209913 0.03193761 0.03177201 0.03160607 0.0314538 0.03131992 0.03122397 0.03116498 0.03115251 0.03117703
 0.03123298 0.03130754 0.03138958 0.03146836 0.0315353 0.03158416 0.03161034 0.03161321 0.03159126 0.03154813
 0.03148395 0.03140344 0.03130677 0.03120117 0.03108704 0.03097603 0.03086854 0.0307732 0.03068881 0.03061278
 0.03054298 0.03047013 0.0303934 0.03030658 0.03020882 0.03009728 0.02996785 0.02981585 0.02963469 0.02941758
 0.02916045 0.02885767 0.02851371 0.02812653 0.02771115 0.02726897 0.02682165 0.02637206 0.02594117 0.0255313
 0.02515721 0.0248199 0.02452417 0.02426938 0.02404722 0.02385567 0.02367771 0.02351261 0.02334759 0.02318555
 0.02302667 0.02287501 0.02273772 0.02261681 0.02251724 0.02244042 0.02238843 0.02236411 0.02237015 0.02240612
 0.02247468 0.02256505 0.02267646 0.02279245 0.02290978 0.02302043 0.02312267 0.02322019 0.02331314 0.02340392
 0.02349207 0.02357041 0.02363839 0.02368822 0.0237214 0.02373924 0.02374405 0.02374271 0.02373524 0.02372537
 0.02371084 0.02369045 0.02366231 0.02362396 0.0235761 0.02351803 0.02345214 0.02337953 0.02330037 0.02321541
 0.02312166 0.02301845 0.02290557 0.02278247 0.0226557 0.02252561 0.0223981 0.02227294 0.02214683 0.02201891
 0.02188129 0.02173441 0.02157559 0.02140619 0.02122859 0.02104299 0.02085083 0.02065189 0.02044574 0.02023445
 0.02001868 0.01980301 0.01959035 0.01938323 0.01918427 0.0189902 0.01880086 0.01861215 0.01842252 0.01823552
 0.01805093 0.01787759 0.01771607 0.01756839 0.01743416 0.01730673 0.01718592 0.01706701 0.01695093 0.0168389
 0.01673177 0.01663184 0.01654048 0.01646027 0.01639458 0.01634847 0.01632432 0.0163264 0.0163536 0.01640588
 0.01648385 0.01658607 0.01672028 0.01688723 0.0170981 0.0173553 0.01766381 0.01802528 0.01843172 0.01888293
 0.01935923 0.01985957 0.02036449 0.02087429 0.02138145 0.02188746 0.02239439 0.02290299 0.02341602 0.0239342
 0.02445963 0.02499387 0.02554041 0.02609794 0.02666853 0.02724396 0.02782218 0.02838927 0.02894058 0.02946131
 0.02994637 0.03038821 0.03078344 0.03113807 0.03145171 0.03173793 0.03199757 0.0322394 0.03246382 0.0326767
 0.03287953 0.0330853 0.03329588 0.0335265 0.03377625 0.03405032 0.03434747 0.03466632 0.03501008 0.03538168
 0.03578526 0.03622712 0.03670379 0.03721759 0.03775534 0.0383141 0.03887668 0.03943813 0.03998607 0.04051686
 0.04102847 0.04151985 0.04199569 0.04245621 0.0429057 0.04334448 0.04377822 0.04420752 0.04464042 0.04507597
 0.04551541 0.04595579 0.04638903 0.04681526 0.04722989 0.04763715 0.04804107 0.04844349 0.0488481 0.04925311
 0.04965788 0.05006298 0.0504677 0.05087603 0.05128794 0.05171155 0.05214728 0.05260821 0.05309585 0.05361952
 0.05418013 0.05477427 0.05540159 0.05605498 0.05673445 0.05743853 0.05816524 0.05890825 0.05966014 0.06039996
 0.06111716 0.0617841 0.06239119 0.06291511 0.06335154 0.06368617 0.06392729 0.06407267 0.06414198 0.06414171
 0.06408987 0.06399194 0.06386212 0.06370167 0.06353392 0.0633605 0.06321155 0.06308934 0.06300829 0.06296822
 0.06296227 0.06298953 0.0630395 0.06311327 0.06320992 0.06333096 0.06348121 0.06365868 0.06386423 0.06408937
 0.064325 0.06456037 0.06478128 0.06498647 0.0651689 0.06533834 0.06549846 0.06565182 0.06580368 0.06593483
 0.06604482 0.06610294 0.06610542 0.06603248 0.06588201 0.06565972 0.06536685 0.0650309 0.06465386 0.0642645
 0.06386151 0.0634554 0.06304219 0.06261636 0.06217497 0.06170988 0.06121993 0.06069975 0.0601509 0.05957189
 0.05896775 0.05834235 0.05769495 0.0570296 0.0563301 0.05559351 0.05480288 0.05395227 0.05304685 0.05208502
 0.05108917 0.05006071 0.04901652 0.04795706 0.04688689 0.04580604 0.04471591 0.04361831 0.04252044 0.04142708
 0.04035477 0.03930794 0.03830474 0.03734138 0.03642255 0.03553687 0.03467467 0.03383083 0.03299717 0.03217997
 0.0313802 0.03060254 0.02985035 0.02911715 0.02840335 0.02769623 0.02699456 0.02628676 0.0255717 0.02484803
 0.02411647 0.02339532 0.0226871 0.02202104 0.02139686 0.02083037 0.02031659 0.01985011 0.01942554 0.0190298
 0.01866053 0.01830892 0.01797558 0.01765735 0.01735785 0.01707882 0.01682185 0.01659006 0.01637569 0.01617863
 0.01598494 0.0157917 0.01559068 0.0153797 0.01516274 0.01493957 0.01472455 0.01451848 0.01433706 0.01417981
 0.01405049 0.0139465 0.01385757 0.0137831 0.01371525 0.01365675 0.0136107 0.01357557 0.01355258 0.01353408
 0.0135119 0.01348551 0.01344838 0.01341542 0.01339035 0.01338972 0.0134211 0.01348482 0.01358439 0.01370285
 0.01383927 0.0139731 0.01410258 0.01421865 0.0143212 0.01441444 0.0144981 0.01457294 0.0146357 0.01467193
 0.01467882 0.01463852 0.01455566 0.01442807 0.01426841 0.01409095 0.01391107 0.01374796 0.01361189 0.01351742
 0.01346033 0.01344512 0.01345414 0.01348247 0.01351971 0.01356027 0.01361699 0.01369015 0.01379796 0.01394251
 0.01411684 0.01431991 0.01452201 0.01472257 0.01490242 0.01506591 0.01522267 0.01537738 0.01555066 0.01573961
 0.01594969 0.0161728 0.0163987 0.01662529 0.01684516 0.01706402 0.01728423 0.01750779 0.01773791 0.01796813
 0.01819736 0.01841936 0.01863239 0.01883475 0.0190262 0.01920422 0.01936868 0.01951562 0.01964495 0.01975666
 0.01985123 0.01993285 0.02000221 0.02006426 0.02012015 0.02017534 0.02023174 0.02029547 0.02036848 0.02045641
 0.02055906 0.02068 0.02081274 0.02095624 0.02109759 0.02123033 0.02134737 0.02144204 0.02152696 0.02160092
 0.02169202 0.02180345 0.02195808 0.02215862 0.02240409 0.02269379 0.02300115 0.02332376 0.02362813 0.02391522
 0.02417019 0.02439898 0.02461186 0.02481315 0.02501874 0.02522424 0.02543222 0.02563175 0.0258128 0.02596849
 0.02608801 0.0261796 0.02624056 0.02629414 0.02634605 0.0264175 0.02651563 0.02664134 0.02679684 0.0269684
 0.02715506 0.02734859 0.02754869 0.02775489 0.02796651 0.02817728 0.02838591 0.02858111 0.02876568 0.02894035
 0.02911266 0.02929914 0.02950318 0.02973982 0.03000022 0.03028319 0.03057387 0.03086083 0.03113776 0.0313974
 0.0316439 0.03187754 0.03210022 0.03231241 0.0325145 0.03270532 0.03289732 0.03309103 0.03330468 0.03353888
 0.03379508 0.03407185 0.03435492 0.03464472 0.03493488 0.03522915 0.03553674 0.03585821 0.03620275 0.03656001
 0.03692317 0.03727136 0.03758118 0.03783883 0.03802079 0.0381461 0.03821132 0.03826052 0.03830847 0.03837866
 0.03848277 0.03860528 0.0387461 0.03888606 0.03902303 0.03915723 0.03928855 0.03941577 0.03953753 0.03963881
 0.03971992 0.03977239 0.03980204 0.03982143 0.03983838 0.03987592 0.03993685 0.04003796 0.04017054 0.0403347
 0.04051352 0.04069432 0.04086912 0.04102866 0.04117943 0.04132241 0.04145999 0.04159402 0.04171809 0.04183087
 0.04193398 0.04202729 0.04211626 0.04220097 0.04227418 0.0423362 0.04238494 0.04242518 0.04248096 0.04255496
 0.04267146 0.04282278 0.04300428 0.04320839 0.04341933 0.0436404 0.04386892 0.04410998 0.04436916 0.04464018
 0.04492398 0.04520483 0.04547742 0.04573225 0.04596281 0.04618583 0.0464007 0.04664106 0.0469106 0.04721593
 0.04755695 0.04790174 0.048249 0.04857231 0.04887505 0.04916196 0.04943504 0.04970459 0.04996725 0.05022025
 0.05046132 0.05068613 0.05089266 0.0510791 0.05123843 0.05136448 0.05145499 0.05150467 0.05152389 0.05151407
 0.05148752 0.05144645 0.05140307 0.05135809 0.05133165 0.05132565 0.05135249 0.05141262 0.05149815 0.05160906
 0.05174199 0.05189866 0.0520891 0.05230961 0.05255459 0.05281691 0.05307589 0.05333327 0.05358279 0.0538278
 0.05407061 0.0543104 0.05454039 0.05478388 0.05504177 0.0553676 0.05579061 0.05629434 0.05689692 0.0574732
 0.05800376 0.05843355 0.05875297 0.05899015 0.05914622 0.05924417 0.05928545 0.05929131 0.05926576 0.05924293
 0.05922307 0.05922663 0.059248 0.05928502 0.05933195 0.05938227 0.05942305 0.05944176 0.05941826 0.05933055
 0.05917862 0.05895018 0.05867576 0.05836003 0.05804035 0.05772465 0.05744494 0.05720691 0.05703176 0.05692353
 0.05686714 0.05686154 0.05685401 0.05684208 0.05678014 0.05667027 0.05649928 0.05627223 0.05599471 0.0556796
 0.05535216 0.05503738 0.0547879 0.05461078 0.05454566 0.0545522 0.05461849 0.05469278 0.05474216 0.05474912
 0.05469443 0.05460184 0.05446624 0.05435239 0.05426859 0.05426899 0.05436403 0.05450539 0.05469053 0.05481942
 0.05489559 0.05492734 0.05493108 0.05501135 0.05516159 0.05542272 0.05576076 0.05611724 0.05647042 0.05675559
 0.05697907 0.0571177 0.05720067 0.057236 0.05726907 0.05732771 0.05743095 0.05760343 0.05779524 0.05800505
 0.0581563 0.0582333 0.05821761 0.05810217 0.05794396 0.05774593 0.05759113 0.0574816 0.05747042 0.05754832
 0.05769531 0.05789235 0.05805982 0.05819502 0.05824348 0.05823427 0.05818858 0.0581342 0.05811762 0.05813004
 0.05818443 0.05825152 0.0583192 0.05836747 0.05838566 0.05836751 0.05830772 0.05821592 0.05809147 0.05795406
 0.05780562 0.05765604 0.05750595 0.05736244 0.05722688 0.05712006 0.05704124 0.05700005 0.05698839 0.05698323
 0.05697764 0.05694382 0.0568803 0.05677337 0.05662176 0.05641364 0.05616569 0.05587723 0.05559482 0.05534403
 0.05515075 0.05504057 0.05497505 0.05495401 0.05491898 0.05485965 0.05474788 0.0545797 0.05434394 0.05403981
 0.0536678 0.05323073 0.05276394 0.05227277 0.05180755 0.05136906 0.0509868 0.05065831 0.050395 0.05018749
 0.05003177 0.04990287 0.04977143 0.04961938 0.04941566 0.04917847 0.04890442 0.04862973 0.04836751 0.04813875
 0.04795194 0.04781257 0.04772542 0.04767105 0.04765087 0.04760326 0.04752478</values></Ydata></AB><ScSm><Ydata ylabel="Single channel"><values byteorder="INTEL" format="FLOAT32" numvalues="1814"> 0.0668551 0.06684541 0.06690004 0.06704438 0.0672493 0.06744869 0.06758745 0.0676565 0.06767485 0.06764881
 0.06758119 0.06751963 0.06754954 0.06771203 0.06794576 0.06812583 0.06816518 0.06809583 0.06805246 0.06813885
 0.06828722 0.06828041 0.06795563 0.06738794 0.06683933 0.06651694 0.0664451 0.0666169 0.06711975 0.06789282
 0.06845891 0.06826757 0.06738721 0.06653211 0.06626961 0.06647655 0.0666769 0.06659395 0.06623238 0.06576194
 0.06556573 0.0661453 0.06762828 0.06935151 0.07009512 0.06885536 0.06556475 0.06131824 0.0579651 0.05711543
 0.05900667 0.06218305 0.06458914 0.06520931 0.06455289 0.06361133 0.06278928 0.06203634 0.06154492 0.06178905
 0.06287263 0.06408745 0.06428401 0.06286069 0.06047811 0.05858164 0.0580799 0.05878079 0.06017233 0.06198039
 0.06338333 0.06256275 0.05849044 0.05319448 0.05085846 0.05384673 0.06018405 0.0654857 0.06685795 0.06452955
 0.06058982 0.05725275 0.05601618 0.05726031 0.06018032 0.06345024 0.06602371 0.06719324 0.06641961 0.06379706
 0.06051067 0.05826641 0.05824342 0.0606262 0.06456917 0.06828516 0.06985688 0.06864462 0.06570809 0.06269079
 0.06074508 0.0605315 0.06236845 0.0659034 0.07009487 0.07381845 0.07632843 0.07733211 0.07704597 0.07605801
 0.0748838 0.07388245 0.07356498 0.07427891 0.07538428 0.07549659 0.07399005 0.07183076 0.07058289 0.07079125
 0.07154514 0.07158639 0.07058454 0.06894442 0.0665687 0.06281503 0.0579838 0.05373065 0.05141244 0.05104467
 0.05228248 0.05495841 0.05793191 0.05902201 0.05740228 0.05512526 0.05509107 0.05794808 0.06175895 0.0643535
 0.06533618 0.06592432 0.06739111 0.06977063 0.07169989 0.07144551 0.06861714 0.0651338 0.06386893 0.06583156
 0.06919524 0.07154414 0.0724203 0.0730705 0.07426092 0.07509001 0.07393134 0.07037156 0.0662512 0.0645265
 0.06669391 0.07129221 0.07496598 0.07495233 0.07093799 0.06511979 0.06048864 0.05876384 0.05993742 0.06341217
 0.06865983 0.07461824 0.07942148 0.08145086 0.0805168 0.07775481 0.07432876 0.0703603 0.06555068 0.060966
 0.05924975 0.06212707 0.06820248 0.07412027 0.07755362 0.07836822 0.07733176 0.0746875 0.07035112 0.06526239
 0.06183515 0.06209027 0.06522062 0.06804287 0.06832834 0.06683637 0.06567948 0.06568933 0.06610581 0.06619385
 0.06629079 0.06722446 0.06912415 0.07110371 0.07211915 0.07192129 0.07109589 0.07038136 0.07000313 0.06951702
 0.06843425 0.0671891 0.0670971 0.06891645 0.07180433 0.07417855 0.07530477 0.07557297 0.07544892 0.07466042
 0.07259855 0.06946931 0.06677331 0.0661965 0.06797978 0.07076595 0.07301369 0.07410605 0.07421057 0.07372966
 0.07302706 0.0723023 0.07164422 0.07128978 0.07157297 0.07245004 0.07338022 0.07386916 0.07388008 0.07359636
 0.07306571 0.07225804 0.07131615 0.07057813 0.07033911 0.07062763 0.07122783 0.0718755 0.07236069 0.07250388
 0.07222001 0.07164437 0.07104784 0.07058977 0.070268 0.07009661 0.07016212 0.07046293 0.07082823 0.07106367
 0.07110741 0.07100847 0.07081912 0.07055699 0.07024083 0.06992978 0.06972376 0.06970052 0.06982692 0.06997281
 0.07005648 0.07012386 0.07022525 0.07028256 0.07017396 0.06991029 0.0696373 0.06947903 0.06944257 0.06945868
 0.06944926 0.06934055 0.06906551 0.06862502 0.06815932 0.06789248 0.06795523 0.06829038 0.06874132 0.06916726
 0.06946383 0.06957556 0.06954054 0.06945686 0.069369 0.06923389 0.06901349 0.06876406 0.06861927 0.06868619
 0.06894499 0.06925789 0.06948972 0.06959938 0.06961785 0.06959951 0.06960852 0.06967872 0.06975906 0.06975751
 0.06965882 0.0695525 0.06953115 0.06959317 0.06965231 0.06963252 0.06955323 0.06951276 0.06957838 0.06971619
 0.0698455 0.06993416 0.07001337 0.07011356 0.0702064 0.07021974 0.07011934 0.06996556 0.06985828 0.0698318
 0.0698457 0.06987388 0.06994581 0.07008199 0.07023454 0.07032681 0.07033737 0.070318 0.07032436 0.07034767
 0.07033147 0.07024723 0.0701298 0.07003851 0.0700043 0.07001778 0.07004924 0.07007013 0.07006443 0.07002991
 0.06997206 0.06989655 0.06980718 0.06971565 0.06965507 0.06966802 0.06975991 0.06986719 0.06989536 0.06980161
 0.06963393 0.0694833 0.06939895 0.06935302 0.06928553 0.06917354 0.06904733 0.06894705 0.06888206 0.06883477
 0.06878585 0.06872843 0.06867491 0.06866007 0.06871847 0.06883787 0.06894689 0.06897467 0.06892052 0.06884745
 0.06881286 0.06882514 0.06885989 0.06889626 0.06893827 0.06901044 0.06912319 0.06924123 0.06931037 0.06932265
 0.06932881 0.06938298 0.06950207 0.0696757 0.06987415 0.07004295 0.07013331 0.07015584 0.0701762 0.07024519
 0.07035486 0.07047021 0.07057865 0.07069261 0.07082316 0.07097322 0.07115154 0.07137412 0.071646 0.07194634
 0.0722319 0.07245979 0.07262231 0.07276714 0.07296893 0.07326672 0.07362873 0.07398144 0.07427153 0.07450278
 0.07471861 0.07495163 0.07519831 0.0754492 0.0757256 0.07605899 0.07644058 0.07682204 0.07716915 0.07749104
 0.07781386 0.07814761 0.07848607 0.07882668 0.07918094 0.07956232 0.07996192 0.08034264 0.080669 0.08094327
 0.08120608 0.08150436 0.08185814 0.08224228 0.08259376 0.0828595 0.08305638 0.08326589 0.08354707 0.0838699
 0.0841625 0.08441071 0.08467381 0.08500114 0.08536936 0.08571744 0.08601874 0.08629919 0.0865953 0.08690851
 0.08719949 0.0874245 0.08758102 0.08771362 0.08787167 0.08807489 0.08832897 0.0886494 0.08903825 0.0894507
 0.08981772 0.09010191 0.09031241 0.09047692 0.09062428 0.09078191 0.09096308 0.09115946 0.09135715 0.09154645
 0.09171166 0.0918411 0.09196027 0.09212292 0.09235191 0.09261831 0.09289539 0.09319773 0.09354077 0.09389526
 0.09422146 0.09453249 0.09487958 0.0952712 0.09564416 0.09593053 0.09612365 0.09626032 0.09637159 0.09648641
 0.09665851 0.0969391 0.09731998 0.09773582 0.09812777 0.09848355 0.09881692 0.09913167 0.09941386 0.09964742
 0.09982895 0.09997049 0.1000936 0.1002249 0.1003936 0.1006154 0.1008714 0.1011137 0.1012987 0.1014079
 0.1014317 0.1013635 0.101228 0.1010908 0.1010047 0.1009456 0.1008253 0.1005682 0.1001576 0.09961262
 0.09895007 0.09818552 0.09736046 0.09655012 0.09583834 0.09528719 0.09493235 0.09480291 0.09492832 0.09530666
 0.09586686 0.09648225 0.09702879 0.09741902 0.09758606 0.09747384 0.09707071 0.09643748 0.09568042 0.09489882
 0.09415887 0.09348977 0.09288691 0.09234087 0.09189038 0.09164289 0.09173028 0.09224574 0.093216 0.09460031
 0.09628673 0.09809807 0.09984018 0.1013791 0.1026847 0.1038024 0.1047904 0.1056914 0.1065395 0.1073565
 0.1081334 0.1088423 0.1094756 0.1100552 0.1106003 0.1111026 0.1115363 0.1118785 0.1121218 0.1122812
 0.1123855 0.1124562 0.1125005 0.1125298 0.1125686 0.11263 0.1126888 0.1126864 0.1125635 0.1122933
 0.1119055 0.1115009 0.1112537 0.1113818 0.1120667 0.1133479 0.1150786 0.1169943 0.1188408 0.1204539
 0.1217655 0.1227822 0.1235658 0.1242013 0.124758 0.1252749 0.1257709 0.1262545 0.1267257 0.1271809
 0.1276203 0.128051 0.1284832 0.1289214 0.1293544 0.1297607 0.1301315 0.1304874 0.1308649 0.1312839
 0.13173 0.1321685 0.1325794 0.1329733 0.1333679 0.1337563 0.1341126 0.1344284 0.1347272 0.1350431
 0.135399 0.1357966 0.1362101 0.1365925 0.1369114 0.1371782 0.1374318 0.1377004 0.1379873 0.1382868
 0.1385949 0.138903 0.1391987 0.1394823 0.1397752 0.1400972 0.1404343 0.1407444 0.141001 0.1412234
 0.1414534 0.1417118 0.1419841 0.1422458 0.1424934 0.14275 0.1430429 0.1433743 0.1437145 0.1440251
 0.1442885 0.1445173 0.1447376 0.1449687 0.1452179 0.1454864 0.1457721 0.1460643 0.1463488 0.1466201
 0.1468841 0.1471471 0.1474105 0.1476739 0.147939 0.1482087 0.1484849 0.1487647 0.1490431 0.1493235
 0.1496213 0.1499423 0.1502653 0.1505572 0.1508061 0.1510277 0.1512456 0.1514743 0.1517183 0.1519751
 0.1522396 0.1525097 0.1527862 0.153066 0.1533406 0.1536032 0.1538556 0.1541081 0.1543716 0.1546486
 0.1549333 0.155221 0.1555125 0.1558065 0.156096 0.156373 0.156636 0.1568906 0.1571444 0.1574015
 0.1576569 0.1579027 0.1581398 0.1583793 0.1586299 0.1588891 0.1591479 0.1594009 0.1596503 0.1599025
 0.1601594 0.1604162 0.1606676 0.1609143 0.1611602 0.1614076 0.1616572 0.1619077 0.1621556 0.1623988
 0.1626393 0.1628806 0.1631246 0.1633746 0.1636334 0.1638961 0.1641515 0.1643935 0.1646254 0.1648537
 0.1650827 0.1653135 0.1655478 0.1657897 0.1660413 0.1662965 0.166544 0.1667792 0.1670094 0.167247
 0.1675003 0.1677668 0.1680317 0.1682814 0.1685182 0.1687567 0.1690056 0.1692616 0.1695178 0.1697708
 0.1700236 0.1702823 0.1705481 0.1708143 0.1710724 0.17132 0.171559 0.171791 0.1720164 0.1722337
 0.172444 0.1726568 0.172884 0.173126 0.1733732 0.1736202 0.1738678 0.1741157 0.1743649 0.1746186
 0.1748769 0.1751366 0.1753965 0.1756556 0.1759084 0.1761517 0.1763904 0.1766306 0.1768759 0.1771305
 0.1773948 0.1776628 0.1779303 0.1781972 0.1784599 0.1787149 0.1789683 0.1792283 0.179492 0.1797513
 0.1800044 0.1802537 0.1805025 0.1807527 0.1810002 0.1812402 0.1814785 0.1817256 0.1819802 0.1822348
 0.1824896 0.1827461 0.1830001 0.183252 0.1835068 0.1837615 0.1840101 0.1842563 0.1845045 0.1847503
 0.1849934 0.185239 0.1854846 0.1857253 0.1859653 0.1862077 0.1864463 0.1866792 0.1869102 0.1871272
 0.1872821 0.1872472 0.1867119 0.1850774 0.181452 0.1748338 0.1645145 0.1505349 0.1338304 0.1158965
 0.09824046 0.08199777 0.06783 0.05602002 0.04662083 0.03954953 0.03464621 0.03177484 0.03092754 0.03232628
 0.03653575 0.04413076 0.05442561 0.06433764 0.0695793 0.06804457 0.06182859 0.05531951 0.05154721 0.0507157
 0.05151853 0.05284638 0.05435296 0.05624672 0.05888155 0.06236117 0.06651883 0.07134646 0.0772109 0.08439195
 0.09251413 0.1006974 0.1083186 0.1155082 0.1228526 0.1306902 0.1387579 0.1464517 0.1533081 0.1592396
 0.1644415 0.1691735 0.1736112 0.1778297 0.1818588 0.1856839 0.1891644 0.1920061 0.1939016 0.1947631
 0.1948308 0.1945401 0.1942647 0.1941726 0.194277 0.1945529 0.1949843 0.1955543 0.1962408 0.1970193
 0.1978589 0.1987283 0.1996052 0.2004715 0.201303 0.2020781 0.2027884 0.2034365 0.2040288 0.2045727
 0.2050736 0.2055357 0.2059652 0.2063686 0.2067467 0.2071002 0.2074362 0.2077613 0.2080717 0.2083578
 0.2086164 0.2088525 0.2090754 0.2092946 0.2095146 0.2097336 0.2099493 0.210165 0.2103865 0.210615
 0.2108467 0.2110751 0.2112968 0.2115142 0.2117317 0.2119472 0.2121527 0.2123466 0.2125393 0.2127442
 0.2129664 0.2132006 0.2134356 0.2136605 0.2138718 0.2140759 0.2142852 0.2145068 0.2147334 0.2149461
 0.2151391 0.215335 0.2155619 0.2158184 0.2160774 0.2163202 0.2165479 0.216767 0.2169837 0.2172057
 0.2174328 0.2176496 0.2178421 0.2180182 0.2182066 0.2184324 0.2186912 0.2189495 0.2191797 0.2193884
 0.2196018 0.2198299 0.220056 0.220258 0.2204368 0.2206282 0.2208738 0.2211718 0.2214773 0.2217568
 0.2220156 0.2222677 0.2225185 0.2227777 0.2230472 0.2232937 0.223477 0.2236139 0.2237872 0.2240765
 0.2244788 0.2249028 0.2252522 0.2255105 0.2257334 0.2259797 0.2262764 0.2265989 0.2268456 0.2269045
 0.2268205 0.2268289 0.2271396 0.2277267 0.2283861 0.2289454 0.2293671 0.2296984 0.2299864 0.2302315
 0.2303905 0.2304286 0.2303963 0.2304535 0.2307612 0.2313155 0.2319348 0.2324429 0.2328065 0.2330752
 0.2332894 0.2334741 0.2335946 0.2334964 0.2330745 0.2325647 0.2324781 0.2331033 0.2341783 0.2351663
 0.2357825 0.2361378 0.2364371 0.2367326 0.2369766 0.2370663 0.2367324 0.2356958 0.2342116 0.2332136
 0.233543 0.2351039 0.2370225 0.2385179 0.2393909 0.2398348 0.2401016 0.2403317 0.2404431 0.2401404
 0.2392488 0.2381448 0.2376525 0.2382801 0.2396523 0.2409167 0.2416132 0.2419095 0.2421415 0.2424373
 0.2426332 0.2422277 0.2406638 0.2381538 0.2360948 0.2360869 0.2383707 0.241538 0.243924 0.2450348
 0.2454267 0.2454933 0.244893 0.2431818 0.2404935 0.2374888 0.2351425 0.2345993 0.236413 0.2396075
 0.2422333 0.2432898 0.2435737 0.2443819 0.2459681 0.2475511 0.2483204 0.2480632 0.2470305 0.2454956
 0.2436227 0.2418652 0.2412042 0.2424516 0.2452541 0.2482229 0.2502114 0.2511823 0.2516011 0.2510881
 0.2481425 0.2419451 0.2346252 0.2306824 0.2330151 0.2398877 0.2467969 0.2509063 0.2526062 0.253398
 0.253873 0.2535502 0.2511689 0.2453862 0.2369046 0.2297933 0.2287326 0.2343889 0.2426634 0.2485151
 0.2493803 0.2454366 0.2387146 0.2325077 0.2300247 0.2324351 0.2383516 0.2452054 0.2507944 0.2538858
 0.2541927 0.2522559 0.2494153 0.2474878 0.2474491 0.2479957 0.2465345 0.242456 0.2381438 0.2354802
 0.2329475 0.228448 0.223897 0.2239625 0.2299917 0.2377567 0.2421952 0.2425358 0.2414177 0.2400919
 0.2363125 0.227597 0.215944 0.2079361 0.2089813 0.2176988 0.2271485 0.2316171 0.2311587 0.2295772
 0.2293492 0.2290964 0.2255366 0.2177639 0.2094345 0.205706 0.2077675 0.2117743 0.2134078 0.2113445
 0.205785 0.1970339 0.1879079 0.1846485 0.1916715 0.2061684 0.2203044 0.2276813 0.2257099 0.2142199
 0.1962971 0.1800804 0.1748191 0.1826242 0.1959154 0.2043836 0.203189 0.1938697 0.1799121 0.1643071
 0.1508649 0.1447089 0.1492205 0.1625678 0.1777838 0.1862912 0.1826681 0.168812 0.1541711 0.1489614
 0.1549605 0.1643352 0.1684181 0.1655548 0.159915 0.1560669 0.1562992 0.160265 0.1653877 0.1692546
 0.1715436 0.1714278 0.1649992 0.149984 0.1321177 0.1213957 0.1216816 0.1287225 0.1381365 0.1493396
 0.1603531 0.1651345 0.1603948 0.1518409 0.1493096 0.1563252 0.1670742 0.1734826 0.1731822 0.1699499
 0.1678593 0.1669333 0.1651473 0.1631239 0.1643323 0.1702929 0.177915 0.1829394 0.1843801 0.1841594
 0.1838496 0.1834809 0.1826404 0.1811799 0.1791525 0.1769269 0.1750758 0.1737297 0.172458 0.1709242
 0.1688968 0.1653326 0.1586055 0.1488492 0.1394259 0.1342974 0.1338676 0.1352279 0.1364708 0.1378354
 0.1377204 0.1315088 0.1176656 0.1027804 0.09677817 0.1033382 0.1171639 0.1300141 0.1369641 0.1368245
 0.1297543 0.1175905 0.1060077 0.1027226 0.1111675 0.1271893 0.1435237 0.1560534 0.1641915 0.1673983
 0.1645996 0.1568773 0.1484709 0.1443516 0.147241 0.1564107 0.1678381 0.1751404 0.1727133 0.1613889
 0.150995 0.1530661 0.1686422 0.1864115 0.1954144 0.1961579 0.1960321 0.197827 0.1984082 0.1969153
 0.1979778 0.205391 0.2165226 0.2248858 0.2258203 0.218334 0.2044769 0.1897472 0.1816488 0.1837077
 0.191498 0.1974633 0.1982321 0.1942247 0.1851935 0.1719569 0.1610289 0.1607412 0.1715878 0.1850941
 0.1934462 0.1966049 0.1987903 0.2011903 0.2005332 0.1940641 0.1841332 0.1767327 0.1755734 0.1788506
 0.1823119 0.1837461 0.1830544 0.1797393 0.1731951 0.1654488 0.1611953 0.1637526 0.1716578 0.1800505
 0.185038 0.1861618 0.1852421 0.1840246 0.182989 0.1815238 0.1791527 0.1770947 0.1780052 0.1830995
 0.1901384 0.1956875 0.1990317 0.2024021 0.2074589 0.2129649 0.2162524 0.2161216 0.2140061 0.2127582
 0.2143704 0.2183756 0.2221785 0.2232643 0.2215872 0.2198327 0.2209411 0.2252951 0.230666 0.2347398
 0.2370063 0.2382729 0.2392956 0.2401288 0.2400956 0.2383103 0.2349713 0.2321172 0.2321957 0.2356411
 0.2404565 0.2442622 0.2461965 0.2467904 0.2466902 0.2459735 0.2445231 0.2426464 0.2410861 0.2404466
 0.2407671 0.2416749 0.242769 0.243784 0.2445761 0.2451243 0.2455016 0.245782 0.2460126 0.2462615
 0.2465902 0.2469648 0.2472962 0.2476018 0.2480316 0.2486717 0.2493925 0.2499641 0.250262 0.250268
 0.2499343 0.2491886 0.248078 0.2467692 0.2453548 0.2437793 0.2420742 0.2406272 0.240071 0.2408057
 0.242634 0.2448943 0.2469279 0.2484078 0.249323 0.2498063 0.2500194 0.250107 0.2501577 0.2501835
 0.2501535 0.2500493 0.2498832 0.2496741 0.2494304 0.2491733 0.2489542 0.24882 0.2487612 0.2487151
 0.2486179 0.2484425 0.2481976 0.2479096 0.2476028 0.2472754 0.2468879 0.2463839 0.2457379 0.2449882
 0.2442201 0.2435091 0.2428688 0.2422475 0.2415744 0.2408058 0.239919 0.2388797 0.2376642 0.236329
 0.235009 0.2338056 0.232702 0.2316092 0.2304565 0.229214 0.2278706 0.2264332 0.2249258 0.2233691
 0.2217716 0.2201467 0.2185161 0.2168928 0.2152735 0.2136492 0.2120129 0.2103589 0.2086823 0.2069742
 0.2052054 0.2033088 0.2011793 0.1986963 0.1957484 0.1922576 0.1882118 0.1836957 0.1788833 0.1739824
 0.1691792 0.1646148 0.1603898 0.1565802 0.1532561 0.1504841 0.1483125 0.1467631 0.1458428 0.1455536
 0.1458877 0.1468117 0.1482507 0.1500869 0.1521773 0.1543715 0.1565164 0.1584759 0.1601867 0.1616993
 0.1631419 0.1646207 0.1661478 0.1676597 0.1690921 0.1704186 0.171621 0.1726592 0.1734984 0.1741478
 0.1746479 0.1750306 0.1753095 0.1754954 0.1756047 0.1756579 0.1756774 0.175683 0.1756916 0.1757248
 0.175817 0.1760119 0.1763482 0.1768397 0.1774666 0.1781875 0.178964 0.1797778 0.1806365 0.1815623
 0.1825666 0.1836462 0.1848189 0.1861484 0.1877022 0.1894939 0.1914825 0.1936088 0.1958055 0.1979846
 0.2000403 0.2018753 0.2034316 0.2047064 0.2057378 0.2065717 0.2072433 0.2077783 0.2081964 0.2085138
 0.20875 0.2089205 0.2090189 0.2090199 0.2089044 0.2086714 0.2083398 0.207947 0.2075352 0.2071224
 0.2067004 0.2062635 0.2058265 0.2054088 0.2050115 0.2046127 0.2041856 0.2037236 0.2032431 0.2027572
 0.2022572 0.2017217 0.2011229 0.2004255 0.1996039 0.1986631 0.1976225 0.1964855 0.1952472 0.1939189
 0.1925261 0.19109 0.1896245 0.1881402 0.1866386 0.1850992 0.1834743 0.1817117 0.1798056 0.1778241
 0.1758674 0.1739981 0.1722261 0.1705431 0.168944 0.167422 0.1659646 0.1645624 0.1632151 0.1619291
 0.1607068 0.159543 0.1584311 0.1573725 0.1563745 0.1554509 0.1546248 0.1539182 0.1533314 0.1528426
 0.1524261 0.1520643 0.1517543 0.1515154 0.1513731 0.1513234 0.1513193 0.1512953 0.1511991 0.1510091
 0.1507412 0.1504393 0.1501495 0.1499035 0.1497081 0.1495267 0.1492773 0.1488668 0.1482277 0.1473192
 0.1461182 0.1446294 0.1429031 0.141043 0.1391941 0.1374952 0.1360286 0.1348194 0.1338625 0.133123
 0.1325294 0.1320154 0.131572 0.1312455 0.1310894 0.1311057 0.1312066 0.1312522 0.1311733 0.1310489
 0.1310369 0.131244 0.1316646 0.1322008 0.1327258 0.1331587 0.1334885 0.1337253 0.133863 0.1339019
 0.1338641 0.1337661 0.1336037 0.1333737 0.1330871 0.1327621 0.132406 0.1319941 0.1314832 0.1308628
 0.1301659 0.129419 0.1286176 0.1277445 0.1267669 0.1256491 0.1244449 0.1233588 0.1226507 0.1224742
 0.1228007 0.1234574 0.12425 0.125081 0.1258971 0.12652 0.1267077 0.1265217 0.1265031 0.1272746
 0.1289456 0.1310029 0.1327771 0.1339154 0.1344063 0.1343362 0.1337729 0.1327847 0.1314004 0.1295863
 0.1273535 0.1248133 0.122083 0.1192641 0.1165259 0.1140641 0.1119819 0.1102897 0.108957 0.1079934
 0.1075135 0.1072028 0.105401 0.09997275 0.09161267 0.08531873 0.08618779 0.09368321 0.1020158 0.1062714
 0.106324 0.1047922 0.1034721 0.1026289 0.1021695 0.1022211 0.1029048 0.1041083 0.1054897 0.1066719
 0.1074765 0.1079101 0.1079248 0.1072253 0.1052066 0.1011358 0.09474005 0.08676028 0.07871422 0.07200529
 0.06729102 0.06449388 0.0630907 0.06241755 0.06199569 0.06175087 0.0619358 0.06282847 0.06449416 0.06680223
 0.06956919 0.07256481 0.0754316 0.07781719 0.07964857 0.08111712 0.08235419 0.08327152 0.08373901 0.08376439
 0.08345902 0.0829373 0.08228801 0.08157022 0.08078024 0.07985227 0.07877128 0.0777036 0.07692376 0.07655993
 0.07649006 0.07651721 0.07654218 0.07654551 0.07652511 0.07648993 0.07644852 0.07641973 0.07648593 0.07675382
 0.07721545 0.07772329 0.07812652 0.07837794 0.07851461 0.07855619 0.07840639 0.07793278 0.07722959 0.07664084
 0.07632625 0.075967 0.07517138 0.07406399 0.07320544 0.07297864 0.07325979 0.07364948 0.073838 0.07375307
 0.07354204 0.0734961 0.07385553 0.07453336</values></Ydata></ScSm><ScRf><Ydata ylabel="Single channel"><values byteorder="INTEL" format="FLOAT32" numvalues="1820"> 0.06073851 0.0608957 0.06098255 0.06100028 0.06097753 0.06096715 0.06102455 0.06117246 0.06138269 0.06159144
 0.06174073 0.06181366 0.06182542 0.06178773 0.0617117 0.06164641 0.06166989 0.06181468 0.06201989 0.06217264
 0.06219865 0.06212848 0.06208156 0.06215166 0.06228128 0.06227481 0.06197907 0.06145632 0.06094609 0.06064363
 0.06057489 0.06073152 0.0611916 0.06190188 0.06242696 0.06225783 0.06145138 0.06066326 0.06041852 0.06060448
 0.06077981 0.06068866 0.06033986 0.05989685 0.05971631 0.06025722 0.06162942 0.06321602 0.0638933 0.06274115
 0.05970265 0.0557896 0.05270464 0.05192692 0.05367297 0.05660439 0.05883103 0.05941731 0.05883187 0.05798894
 0.05725754 0.05657846 0.05611619 0.05630859 0.05726766 0.05835914 0.05853103 0.05722365 0.05503547 0.0532904
 0.05282249 0.05345552 0.05472183 0.05637501 0.05766381 0.05691405 0.05317444 0.04830914 0.04617238 0.04894359
 0.05479851 0.05968773 0.06094061 0.05877744 0.05514255 0.05208712 0.05097945 0.05214254 0.05481892 0.05779856
 0.06014244 0.06121191 0.06050577 0.05810066 0.0550806 0.05301245 0.05298296 0.05516918 0.05879971 0.06222847
 0.06368263 0.06256767 0.05986269 0.05708953 0.05531016 0.05512115 0.05680548 0.0600463 0.06390364 0.06734942
 0.06968418 0.07062127 0.07035586 0.06943841 0.06835455 0.06743868 0.06715698 0.06782147 0.06883691 0.06892788
 0.06752269 0.0655172 0.06435629 0.06454379 0.06524109 0.06528747 0.06437618 0.06287989 0.06070934 0.05726914
 0.05282959 0.04891403 0.04677854 0.04644672 0.0476072 0.05010498 0.05288046 0.05391165 0.05242839 0.0503207
 0.05026619 0.05287224 0.05636431 0.05874819 0.05965879 0.06021463 0.06158437 0.0637925 0.06557795 0.06534568
 0.06274344 0.05954492 0.05839702 0.06022381 0.06333858 0.06551978 0.06635588 0.06700054 0.06815172 0.06896428
 0.06793281 0.06468518 0.06093429 0.05941162 0.06148532 0.06578928 0.06921551 0.06921016 0.06549086 0.06010778
 0.05584792 0.05430989 0.0554865 0.05883016 0.06385502 0.06956466 0.0742048 0.07624717 0.07549281 0.07299055
 0.0698401 0.06617372 0.06171529 0.05746744 0.0559363 0.05877352 0.06466939 0.0704383 0.07386041 0.07479729
 0.07396588 0.07157564 0.06752689 0.06273092 0.05954923 0.05996262 0.0631849 0.06610164 0.06652702 0.06519942
 0.06419206 0.06433275 0.06488533 0.06512999 0.06540024 0.06651451 0.06859836 0.07076744 0.07197517 0.0719609
 0.07130392 0.07075384 0.0705481 0.07023319 0.06930592 0.06821604 0.06831679 0.07037851 0.07352384 0.07612617
 0.07744344 0.07789322 0.07795818 0.0773384 0.0753794 0.07229187 0.0696579 0.06925824 0.07134944 0.07449742
 0.0770689 0.07841215 0.07871465 0.07840894 0.07787198 0.07730475 0.07680493 0.0766359 0.07715617 0.07831019
 0.07951044 0.0802258 0.08041858 0.08028239 0.07986329 0.07913792 0.07828552 0.07768726 0.07765017 0.07817963
 0.07903033 0.07992309 0.08064 0.08098347 0.08084704 0.08036827 0.07985002 0.07948539 0.07928738 0.07927641
 0.07954314 0.08007227 0.08065825 0.08107895 0.08127394 0.08131136 0.08125661 0.08112583 0.08093137 0.08073691
 0.0806604 0.08079005 0.08107693 0.08136719 0.08158278 0.08179925 0.08207996 0.08231699 0.08234242 0.08215347
 0.08192833 0.08183326 0.08188736 0.08200631 0.08209957 0.08208959 0.08189777 0.08151237 0.08108887 0.0808937
 0.08108968 0.08161762 0.08229578 0.08295042 0.0834428 0.0836952 0.08375004 0.08372626 0.08368017 0.08356611
 0.08334973 0.08311194 0.08302103 0.08320422 0.08363377 0.08414129 0.08455303 0.08479621 0.08489314 0.08492476
 0.08500206 0.08518031 0.08537578 0.08544517 0.08536926 0.08528818 0.08533321 0.08547679 0.08557591 0.08554001
 0.08543369 0.0854078 0.08553926 0.08576417 0.0859711 0.08612557 0.08628215 0.08648911 0.0866987 0.08678779
 0.08668867 0.08648273 0.08632105 0.08626428 0.08626319 0.08628906 0.08639504 0.08661397 0.0868632 0.08701213
 0.0870261 0.08699649 0.08702174 0.0870914 0.0871091 0.08701137 0.08683543 0.08667687 0.08660924 0.08664341
 0.08673463 0.08681391 0.08682704 0.08676259 0.08665005 0.08653088 0.08643271 0.08637561 0.08639658 0.08653791
 0.08678167 0.0870069 0.08705744 0.08688217 0.08659777 0.08638823 0.08633542 0.0863573 0.0863094 0.08612666
 0.08586007 0.08560203 0.08540633 0.08527218 0.08517296 0.08509 0.08503644 0.08505681 0.08518034 0.08535548
 0.08545239 0.08536723 0.08512305 0.08484515 0.08464598 0.08455514 0.08453711 0.08453876 0.0845335 0.08454691
 0.08461836 0.08472054 0.08476098 0.08469117 0.08457337 0.08451538 0.08457875 0.08475736 0.08498585 0.08515335
 0.08517179 0.08506294 0.08494182 0.08489986 0.08493686 0.08500817 0.08509153 0.08518822 0.08529361 0.08539925
 0.08551711 0.08567976 0.08590911 0.0861852 0.08644678 0.08663037 0.08672433 0.08679146 0.08692704 0.08718176
 0.08752169 0.08786054 0.0881294 0.08832383 0.08849099 0.08867195 0.08886464 0.08905468 0.08926392 0.08953343
 0.08986215 0.09019966 0.09050496 0.09078291 0.09105826 0.09134179 0.09163406 0.09194823 0.09231403 0.09274673
 0.0932048 0.09359524 0.09384722 0.09398197 0.09410009 0.09430583 0.09463821 0.09503967 0.09537999 0.0955569
 0.09560546 0.09567556 0.09587118 0.09614672 0.09639761 0.09661664 0.09690124 0.09731212 0.09777868 0.09816475
 0.09840388 0.09855084 0.09870844 0.09891725 0.09912433 0.09926031 0.09933093 0.09940769 0.09953699 0.09970427
 0.0999013 0.1001747 0.1005625 0.1010138 0.1014212 0.101718 0.1019129 0.1020476 0.1021552 0.1022461
 0.1023081 0.1023321 0.1023472 0.1024022 0.1024991 0.1025828 0.1026166 0.1026346 0.1026988 0.1028381
 0.1030528 0.1033407 0.1036803 0.1040118 0.1042879 0.1045426 0.1048561 0.1052327 0.1055615 0.105737
 0.1057792 0.1057878 0.1058139 0.1058453 0.1058968 0.1060328 0.1062874 0.1066182 0.1069611 0.1072951
 0.1076344 0.1079819 0.1083035 0.1085422 0.1086574 0.1086615 0.1086207 0.1086225 0.108734 0.1089702
 0.109286 0.109606 0.1098743 0.1100693 0.110175 0.1101766 0.1101092 0.1100762 0.110168 0.1103595
 0.1105179 0.1105153 0.1103117 0.1099335 0.1094132 0.1087785 0.1080835 0.1074169 0.1068653 0.106473
 0.1062488 0.1062111 0.1064061 0.1068574 0.1075027 0.10821 0.1088603 0.1093809 0.1096996 0.1097234
 0.1094062 0.1088119 0.1080781 0.1073306 0.1066421 0.1060301 0.1054622 0.1048979 0.1043732 0.1040399
 0.1040942 0.1046579 0.1057168 0.1071322 0.1086874 0.110156 0.1113853 0.1123509 0.1131328 0.113829
 0.1144931 0.1151448 0.1158046 0.1164796 0.1171313 0.1177029 0.1181817 0.118607 0.119014 0.1193996
 0.1197404 0.1200206 0.1202483 0.1204566 0.1206718 0.1208651 0.120965 0.1209376 0.1208284 0.1207056
 0.120583 0.1204168 0.1201545 0.1197787 0.1193334 0.1189382 0.1187692 0.1189889 0.1196589 0.1207027
 0.1219604 0.1232858 0.1245819 0.1257592 0.1267141 0.1273862 0.1278166 0.1281158 0.128383 0.1286673
 0.1289787 0.1293052 0.1296227 0.1299117 0.1301745 0.1304369 0.1307332 0.131077 0.1314383 0.1317596
 0.1320116 0.1322309 0.1324925 0.1328393 0.1332402 0.1336214 0.1339435 0.1342373 0.1345484 0.1348633
 0.1351242 0.1353105 0.1354708 0.1356719 0.1359461 0.1362856 0.1366497 0.1369749 0.1372143 0.1373815
 0.1375374 0.1377291 0.1379568 0.138197 0.138437 0.1386808 0.1389376 0.139216 0.1395225 0.1398495
 0.1401616 0.1404094 0.1405739 0.1406931 0.1408308 0.1410196 0.1412408 0.1414564 0.1416549 0.1418647
 0.1421236 0.1424341 0.1427512 0.143017 0.1432086 0.14335 0.1434855 0.143647 0.1438426 0.1440619
 0.1442854 0.1444962 0.1446923 0.1448889 0.1451014 0.145326 0.1455429 0.1457391 0.1459218 0.1461095
 0.1463135 0.1465295 0.1467495 0.1469799 0.1472413 0.1475381 0.1478362 0.1480862 0.148269 0.1484055
 0.1485284 0.1486583 0.1488043 0.1489715 0.1491598 0.1493643 0.1495771 0.1497895 0.1499945 0.1501902
 0.1503828 0.1505842 0.1508028 0.1510359 0.1512732 0.1515085 0.1517411 0.1519664 0.152174 0.1523602
 0.1525346 0.1527128 0.1529038 0.1531046 0.1533032 0.1534904 0.1536707 0.1538566 0.1540543 0.1542583
 0.1544601 0.1546566 0.1548495 0.1550428 0.1552384 0.1554352 0.1556316 0.1558281 0.1560251 0.1562204
 0.1564125 0.1566013 0.1567869 0.1569707 0.157158 0.1573543 0.1575599 0.157771 0.1579835 0.1581935
 0.1583968 0.1585896 0.1587709 0.1589477 0.1591323 0.1593326 0.1595451 0.1597593 0.1599664 0.1601637
 0.1603554 0.1605493 0.1607502 0.1609569 0.161168 0.1613833 0.1615998 0.1618129 0.162024 0.1622381
 0.1624571 0.1626808 0.1629084 0.1631364 0.1633593 0.1635773 0.1637948 0.16401 0.1642136 0.1643994
 0.1645694 0.1647314 0.164894 0.165061 0.1652316 0.165406 0.1655876 0.1657784 0.1659767 0.1661788
 0.166378 0.1665683 0.1667541 0.166949 0.1671576 0.1673701 0.1675761 0.167775 0.1679722 0.168173
 0.1683785 0.1685851 0.1687905 0.1689974 0.1692061 0.1694103 0.1696098 0.1698138 0.1700284 0.1702479
 0.1704638 0.1706728 0.1708771 0.1710823 0.171293 0.1715066 0.1717189 0.1719307 0.1721435 0.1723553
 0.1725652 0.172776 0.1729904 0.1732097 0.173432 0.1736459 0.173842 0.1740306 0.1742317 0.1744475
 0.1746657 0.1748823 0.175101 0.1753222 0.1755462 0.1757725 0.1759932 0.1762027 0.1764089 0.1766223
 0.176842 0.1770625 0.1772744 0.1774551 0.1775604 0.1774822 0.17694 0.1753697 0.171914 0.1656071
 0.155772 0.1424556 0.1265547 0.1094885 0.09268217 0.07721396 0.06372373 0.05249187 0.04356625 0.03685444
 0.0321965 0.02946521 0.02865426 0.02996961 0.03394461 0.04113011 0.05088411 0.06028624 0.06526533 0.06381385
 0.05791166 0.05172376 0.04813572 0.04735204 0.04813454 0.04941952 0.05086267 0.05265445 0.05513604 0.05841672
 0.06234764 0.06692668 0.07250051 0.07932676 0.08704348 0.09481528 0.1020496 0.108867 0.1158281 0.1232649
 0.1309327 0.1382536 0.1447833 0.1504373 0.1553982 0.1599091 0.1641335 0.1681416 0.1719646 0.1755957
 0.1789052 0.1816081 0.1834063 0.1842169 0.1842701 0.183978 0.1836986 0.1836021 0.183709 0.1839907
 0.1844181 0.1849656 0.1856146 0.186352 0.1871564 0.1879967 0.1888443 0.1896743 0.1904618 0.1911894
 0.1918546 0.1924634 0.1930216 0.1935341 0.1940049 0.1944403 0.1948509 0.1952457 0.1956251 0.195987
 0.1963336 0.1966633 0.196966 0.197237 0.1974852 0.1977212 0.1979468 0.1981611 0.1983658 0.1985643
 0.1987594 0.198955 0.199154 0.1993572 0.1995639 0.1997712 0.1999757 0.2001798 0.2003887 0.2006002
 0.2008051 0.201 0.2011911 0.2013821 0.2015708 0.201757 0.2019455 0.20214 0.2023394 0.2025399
 0.2027388 0.2029357 0.2031298 0.2033194 0.2035077 0.2037078 0.2039282 0.2041585 0.2043814 0.204595
 0.204808 0.2050214 0.2052314 0.2054392 0.2056422 0.2058246 0.2059749 0.2061098 0.2062671 0.2064705
 0.2067066 0.2069385 0.2071442 0.2073318 0.2075197 0.2077129 0.207904 0.2080849 0.208258 0.2084455
 0.2086745 0.2089429 0.2092164 0.2094702 0.2097104 0.2099465 0.2101745 0.2103946 0.2106123 0.2108151
 0.2109813 0.2111219 0.2112949 0.2115607 0.2119193 0.2122965 0.2126075 0.2128347 0.2130263 0.2132396
 0.2135032 0.2137917 0.2140009 0.2140206 0.2138994 0.2138723 0.2141421 0.2146767 0.2152752 0.2157765
 0.2161522 0.2164496 0.2167119 0.2169372 0.2170785 0.2170939 0.217032 0.2170574 0.2173341 0.217852
 0.2184224 0.2188733 0.2191868 0.2194244 0.2196213 0.219789 0.2198941 0.2198004 0.219406 0.2189154
 0.2187981 0.2193347 0.2202961 0.2211884 0.2217472 0.2220761 0.2223626 0.2226441 0.2228645 0.2229275
 0.2225913 0.2216025 0.2201981 0.2192515 0.2195569 0.2210284 0.2228407 0.2242513 0.225071 0.2254855
 0.225735 0.2259504 0.2260512 0.2257581 0.2249086 0.2238608 0.2233956 0.2239984 0.2253162 0.2265338
 0.2271999 0.227466 0.2276571 0.2279074 0.2280734 0.2276896 0.2262298 0.2238836 0.2219571 0.2219566
 0.2241103 0.2270896 0.2293259 0.2303646 0.2307439 0.2308312 0.2302798 0.2286513 0.2260804 0.2232162
 0.2209954 0.2204973 0.2222348 0.2252774 0.2277814 0.2288028 0.2290909 0.2298641 0.2313637 0.2328673
 0.2336206 0.233414 0.2324669 0.2310286 0.2292576 0.227589 0.2269548 0.2281276 0.2307794 0.2335995
 0.2354993 0.2364391 0.2368607 0.2364072 0.2336541 0.2278185 0.22091 0.2171866 0.2193973 0.2259108
 0.2324723 0.2363936 0.2380391 0.2388296 0.2393231 0.2390568 0.2368332 0.2313861 0.2233863 0.2166888
 0.2157248 0.2211183 0.2289758 0.2345154 0.2353152 0.2315615 0.2251958 0.2193448 0.2170416 0.2193868
 0.2250666 0.2316465 0.2370321 0.240047 0.2404147 0.2386436 0.236006 0.2342384 0.2342775 0.2348802
 0.2335715 0.2297674 0.2257345 0.2232667 0.2209281 0.2167343 0.2125196 0.2127318 0.2186371 0.226179
 0.2305275 0.2309743 0.2300588 0.2289612 0.225505 0.2172995 0.2062619 0.1987212 0.1998885 0.2084446
 0.21771 0.2221849 0.2219265 0.2206017 0.2205968 0.220577 0.2173603 0.2100653 0.2022472 0.1989244
 0.2012515 0.2054926 0.2074581 0.2058536 0.200838 0.1926844 0.1841705 0.1814623 0.1889374 0.2038519
 0.2184708 0.2264256 0.2250711 0.2141548 0.1967366 0.181041 0.1764605 0.18516 0.1994538 0.2088655
 0.20845 0.1997215 0.1861822 0.1708955 0.1578829 0.1526269 0.1588194 0.174595 0.192487 0.2031347
 0.2004921 0.1865548 0.1717888 0.1676164 0.1760129 0.1881017 0.1940596 0.1920199 0.186748 0.183529
 0.1851058 0.1911132 0.1984681 0.204289 0.2081989 0.2090828 0.2020057 0.1841461 0.1626522 0.1499208
 0.1507301 0.1598299 0.1718492 0.1861031 0.2000823 0.2061655 0.2002074 0.189372 0.1860108 0.1945525
 0.2077225 0.2154353 0.214772 0.210501 0.2077356 0.2065042 0.2042893 0.2018984 0.2036749 0.2114926
 0.2214706 0.2283059 0.2307943 0.2313429 0.2319031 0.2324864 0.2325394 0.2318514 0.2304941 0.2289534
 0.2279663 0.2276947 0.2275767 0.2271668 0.2261203 0.2229393 0.2152975 0.203312 0.1916105 0.1856579
 0.1859667 0.188494 0.190659 0.1928497 0.192814 0.1840707 0.1644634 0.1431959 0.1341333 0.1423991
 0.1605553 0.1770898 0.1852434 0.1836043 0.172673 0.1550624 0.1382283 0.1321171 0.1410421 0.159545
 0.178238 0.1918873 0.199947 0.2020501 0.1970687 0.1863509 0.1749723 0.1688148 0.1710087 0.1805764
 0.1927289 0.2000686 0.1962406 0.1822843 0.1693733 0.1705252 0.1869253 0.2059021 0.2151665 0.2152378
 0.2143485 0.2156587 0.2157403 0.2136229 0.2143724 0.2221795 0.2342232 0.2434547 0.2447838 0.2370984
 0.2226151 0.2073619 0.1995846 0.2031003 0.2128922 0.2204987 0.2221565 0.2183084 0.2086347 0.194116
 0.182266 0.1826187 0.1956928 0.2117575 0.2218853 0.2260846 0.2292351 0.2326845 0.2326047 0.2257809
 0.2149681 0.2071867 0.2067893 0.2116747 0.2168799 0.2198124 0.2202847 0.2175678 0.2108449 0.2025893
 0.19859 0.2029348 0.2137611 0.2249554 0.2315887 0.2330054 0.2314265 0.2290583 0.226593 0.2233665
 0.2188369 0.2145041 0.2136135 0.217687 0.2241068 0.2288181 0.2309763 0.2332079 0.2374742 0.2423595
 0.2447923 0.2434007 0.2398187 0.2372593 0.2379392 0.2413287 0.2445486 0.2448167 0.2420888 0.2393552
 0.239891 0.2441266 0.2495909 0.2537208 0.2559501 0.2571667 0.2582009 0.2590999 0.2590891 0.257157
 0.2534879 0.2502903 0.2502264 0.2537733 0.2587751 0.2626782 0.2645955 0.2651488 0.2650514 0.2643583
 0.2628939 0.2609462 0.2592908 0.2585729 0.2588418 0.2597066 0.2607525 0.2617187 0.2624685 0.2629731
 0.2632892 0.2634799 0.2635846 0.2636565 0.263734 0.2637626 0.2636541 0.2634626 0.2633992 0.2636041
 0.2639734 0.2642746 0.2643574 0.2641658 0.2636228 0.2626563 0.2613371 0.2598565 0.258321 0.2566813
 0.2549703 0.2535715 0.2531153 0.2540051 0.2560396 0.2585251 0.2607515 0.2623571 0.2633339 0.2638382
 0.2640485 0.2641127 0.2641164 0.2640722 0.2639532 0.2637413 0.2634437 0.2630799 0.2626724 0.2622552
 0.2618753 0.2615654 0.2613105 0.26105 0.2607208 0.2602955 0.2597898 0.2592458 0.2586977 0.2581385
 0.2575178 0.2567837 0.2559273 0.2549925 0.2540552 0.2531844 0.2523971 0.251646 0.2508668 0.2500297
 0.2491233 0.2481122 0.2469725 0.2457785 0.244694 0.2438349 0.2431676 0.2425594 0.2418977 0.2411351
 0.2402636 0.2392962 0.2382639 0.2371957 0.2360992 0.2349676 0.233789 0.2325421 0.2312055 0.2297803
 0.2282849 0.2267319 0.2251302 0.2234965 0.2218276 0.2200598 0.2180775 0.2157572 0.2129883 0.2096761
 0.2057742 0.2013347 0.19652 0.1915528 0.1866464 0.1819662 0.1776352 0.1737514 0.1703953 0.1676321
 0.1655143 0.1640787 0.1633432 0.1633127 0.1639829 0.165326 0.1672737 0.1697159 0.1725088 0.1754822
 0.1784552 0.1812693 0.1838363 0.1861702 0.188359 0.190471 0.1924881 0.1943406 0.1959876 0.1974337
 0.1986861 0.1997394 0.2006041 0.2013166 0.2019145 0.202419 0.2028448 0.2032117 0.2035345 0.2038095
 0.2040259 0.2041934 0.2043467 0.2045178 0.2047148 0.2049355 0.2051894 0.2055007 0.2058915 0.2063615
 0.2068823 0.2074208 0.207968 0.2085376 0.2091421 0.2097874 0.2104939 0.2113028 0.2122551 0.2133673
 0.2146261 0.2159923 0.2173985 0.218751 0.2199513 0.2209314 0.2216684 0.2221664 0.2224409 0.2225234
 0.2224621 0.2222967 0.222039 0.2216836 0.2212308 0.2206964 0.2201085 0.2194939 0.218859 0.2181895
 0.2174755 0.2167362 0.2160096 0.215321 0.2146661 0.2140251 0.2133866 0.212754 0.2121344 0.2115298
 0.2109387 0.2103591 0.2097898 0.209231 0.2086785 0.2081071 0.2074672 0.2067152 0.2058522 0.2049178
 0.2039362 0.2028834 0.201719 0.2004388 0.199074 0.1976451 0.1961411 0.1945462 0.1928675 0.1911245
 0.1893197 0.1874343 0.1854617 0.1834424 0.1814595 0.1795935 0.1778786 0.176295 0.1747962 0.17335
 0.1719602 0.1706468 0.1694137 0.1682478 0.1671406 0.1660935 0.1651046 0.1641668 0.1632786 0.162451
 0.161705 0.161059 0.160514 0.1600535 0.1596583 0.159319 0.1590433 0.1588604 0.1588004 0.158849
 0.1589347 0.158975 0.15893 0.1588139 0.1586745 0.1585566 0.1584742 0.1584177 0.1583769 0.1583293
 0.1582097 0.1579174 0.1573578 0.1564688 0.1552339 0.1536917 0.1519269 0.1500532 0.1482084 0.1465292
 0.1451018 0.1439448 0.1430421 0.1423615 0.1418509 0.1414575 0.1411621 0.140989 0.140981 0.1411433
 0.141384 0.141554 0.1415928 0.1416055 0.1417644 0.1421704 0.1428121 0.1435958 0.1443919 0.1450919
 0.1456359 0.1459976 0.1461873 0.1462653 0.1462934 0.1462763 0.1461874 0.1460207 0.145785 0.1454832
 0.1451161 0.1446765 0.1441497 0.1435449 0.1428893 0.1421821 0.1414001 0.1405285 0.1395348 0.138373
 0.1371039 0.135958 0.1352154 0.135047 0.1354498 0.136259 0.1372529 0.1383038 0.1393512 0.1402049
 0.1405892 0.1405497 0.140673 0.1416701 0.1437037 0.1462141 0.1484208 0.149897 0.1506315 0.1507302
 0.150262 0.1492943 0.1478519 0.145883 0.1433947 0.140526 0.1374273 0.13423 0.1311466 0.1284093
 0.1261258 0.1243046 0.1229187 0.1219705 0.1215677 0.1213494 0.1194378 0.1134052 0.1040517 0.09709416
 0.09834009 0.1071357 0.1168297 0.1217905 0.1218775 0.1201124 0.1185892 0.1176311 0.117127 0.1172098
 0.1179932 0.1193128 0.1207652 0.1219479 0.1227009 0.1230713 0.1230291 0.1222237 0.1199135 0.1152206
 0.1078317 0.09861653 0.08934413 0.08165312 0.07629712 0.07314838 0.07156795 0.07078429 0.07026635 0.06996772
 0.07020571 0.07127133 0.0731874 0.07581215 0.07900022 0.08251679 0.08591174 0.08872757 0.09086052 0.09254973
 0.09399202 0.09511317 0.09572912 0.09578496 0.09538905 0.09471524 0.09392919 0.09313559 0.09230785 0.09130546
 0.09007417 0.08883306 0.08794054 0.0875479 0.08749159 0.08752572 0.08752877 0.0874843 0.08740394 0.0873061
 0.08720704 0.0871423 0.0872102 0.08751317 0.08801886 0.08854585 0.08891515 0.0890879 0.08915187 0.08915977
 0.08897875 0.08841389 0.08754838 0.08676407 0.08624412 0.08565438 0.08459097 0.08321765 0.08216982 0.08186431
 0.08212828 0.0824853 0.08259591 0.08240864 0.08210842 0.08202617 0.08241655 0.08314402 0.08369304 0.08365712
</values></Ydata></ScRf><Data_Parameters_AB><parameter name="DPF">1</parameter><parameter name="NPT">3497</parameter><parameter name="FXV">3996</parameter><parameter name="LXV">500</parameter><parameter name="CSF">1</parameter><parameter name="MXY">0.146145403385162</parameter><parameter name="MNY">-0.041999526321888</parameter><parameter name="DAT">01/06/2022</parameter><parameter name="TIM">11:18:34.428 (GMT+2)</parameter><parameter name="DXU">WN</parameter></Data_Parameters_AB><AB__Qtest><MainReport name="Quality Test Report"><Header><Line><Legend>Test result ok/not ok [1/0]: </Legend><Value>0</Value></Line><Line><Legend>Method file: </Legend><Value>C:\Users\Public\Documents\Bruker\OPUS_8.2.28\QT\IRBT_v3_default.QT</Value></Line></Header><Matrix><Line><Legend></Legend><Legend>min</Legend><Legend>max</Legend><Legend>measured</Legend></Line><Line><Value>Absorption (X-Range 1):</Value><Value>0.400000</Value><Value>2.000000</Value><Value>0.132799</Value></Line><Line><Value>Noise (X-Range 4):</Value><Value></Value><Value>0.000300</Value><Value>0.000050</Value></Line><Line><Value>Signal/Noise (X-Range 2):</Value><Value>200.000000</Value><Value></Value><Value>45.768485</Value></Line><Line><Value>Signal/Noise (X-Range 3):</Value><Value>40.000000</Value><Value></Value><Value>35.973766</Value></Line><Line><Value>Water vapour (X-Range 5):</Value><Value></Value><Value>0.000300</Value><Value>0.000054</Value></Line><Line><Value>Signal/Water (X-Range 2):</Value><Value>100.000000</Value><Value></Value><Value>42.373702</Value></Line><Line><Value>Signal/Water (X-Range 3):</Value><Value>20.000000</Value><Value></Value><Value>33.305486</Value></Line><Line><Value>Fringes (X-Range 6):</Value><Value></Value><Value>0.000100</Value><Value>0.000071</Value></Line></Matrix></MainReport></AB__Qtest><Data_Parameters_ScSm><parameter name="DPF">1</parameter><parameter name="NPT">1814</parameter><parameter name="FXV">3996.33169228125</parameter><parameter name="LXV">499.541461535156</parameter><parameter name="CSF">1</parameter><parameter name="MXY">0.254192680120468</parameter><parameter name="MNY">0.0309275351464748</parameter><parameter name="DAT">01/06/2022</parameter><parameter name="TIM">11:18:34.428 (GMT+2)</parameter><parameter name="DXU">WN</parameter></Data_Parameters_ScSm><Data_Parameters_ScRf><parameter name="DPF">1</parameter><parameter name="NPT">1820</parameter><parameter name="FXV">4004.04661832813</parameter><parameter name="LXV">495.683998511719</parameter><parameter name="CSF">1</parameter><parameter name="MXY">0.265148818492889</parameter><parameter name="MNY">0.028654258698225</parameter><parameter name="DAT">01/06/2022</parameter><parameter name="TIM">11:18:09.085 (GMT+2)</parameter><parameter name="DXU">WN</parameter></Data_Parameters_ScRf><Optic_Parameters_Rf><parameter name="APR">0</parameter><parameter name="APT">Open</parameter><parameter name="BMS">KBr</parameter><parameter name="DTC">RT-DLaTGS_IR-Biotyper [Microplate reader]</parameter><parameter name="HPF">0</parameter><parameter name="LPF">10.0</parameter><parameter name="LPV">4000</parameter><parameter name="PGR">0</parameter><parameter name="RCH">Module port</parameter><parameter name="RDX">0</parameter><parameter name="SRC">MIR</parameter><parameter name="VEL">10.0</parameter><parameter name="SON">Off</parameter></Optic_Parameters_Rf><Acquisition_Parameters_Rf><parameter name="ADT">1</parameter><parameter name="AQM">DD</parameter><parameter name="CFE">0</parameter><parameter name="COR">0</parameter><parameter name="DEL">0</parameter><parameter name="DLY">0</parameter><parameter name="HFW">8000</parameter><parameter name="LFW">0</parameter><parameter name="NSR">32</parameter><parameter name="PLF">AB</parameter><parameter name="RES">6</parameter><parameter name="RGN">-1</parameter><parameter name="STR">0</parameter><parameter name="TCL">MakeCompatibleScalar (0, {WSV=1.000000, ARV=0});</parameter><parameter name="TDL">37</parameter><parameter name="RPO">0</parameter></Acquisition_Parameters_Rf><FT_-_Parameters_Rf><parameter name="APF">B3</parameter><parameter name="HFQ">500</parameter><parameter name="LFQ">4000</parameter><parameter name="NLI">0</parameter><parameter name="PHR">24</parameter><parameter name="PHZ">ML</parameter><parameter name="SPZ">NO</parameter><parameter name="ZFF">1</parameter></FT_-_Parameters_Rf><Optic_Parameters_><parameter name="APR">0</parameter><parameter name="APT">Open</parameter><parameter name="BMS">KBr</parameter><parameter name="CHN">Module port</parameter><parameter name="DTC">RT-DLaTGS_IR-Biotyper [Microplate reader]</parameter><parameter name="HPF">0</parameter><parameter name="LPF">10.0</parameter><parameter name="LPV">4000</parameter><parameter name="PGN">0</parameter><parameter name="RDX">0</parameter><parameter name="SRC">MIR</parameter><parameter name="VEL">10.0</parameter><parameter name="SON">Off</parameter></Optic_Parameters_><FT_-_Parameters_><parameter name="APF">B3</parameter><parameter name="HFQ">500</parameter><parameter name="LFQ">4000</parameter><parameter name="NLI">0</parameter><parameter name="PHR">24</parameter><parameter name="PHZ">ML</parameter><parameter name="SPZ">NO</parameter><parameter name="ZFF">1</parameter></FT_-_Parameters_><Acquisition_Parameters_><parameter name="ADT">1</parameter><parameter name="AQM">DD</parameter><parameter name="CFE">0</parameter><parameter name="COR">0</parameter><parameter name="DEL">0</parameter><parameter name="DLY">0</parameter><parameter name="HFW">8000</parameter><parameter name="LFW">0</parameter><parameter name="NSS">32</parameter><parameter name="PLF">AB</parameter><parameter name="RES">6</parameter><parameter name="SOT">0</parameter><parameter name="TCL">MakeCompatibleScalar (0, {WSV=1.000000, ARV=0});</parameter><parameter name="TDL">37</parameter><parameter name="SPO">0</parameter><parameter name="SGN">-1</parameter></Acquisition_Parameters_><Instrument_Parameters_Rf><parameter name="HFL">15800.168544</parameter><parameter name="LFL">0</parameter><parameter name="LWN">15800.168544</parameter><parameter name="ABP">32197</parameter><parameter name="SSP">1</parameter><parameter name="ARG">2</parameter><parameter name="ASG">2</parameter><parameter name="ASS">32</parameter><parameter name="GFW">16</parameter><parameter name="GBW">16</parameter><parameter name="BFW">0</parameter><parameter name="BBW">0</parameter><parameter name="PKA">7306</parameter><parameter name="PKL">4996</parameter><parameter name="PRA">7477</parameter><parameter name="PRL">5001</parameter><parameter name="P2A">1</parameter><parameter name="P2L">1</parameter><parameter name="P2R">1</parameter><parameter name="P2K">1</parameter><parameter name="DAQ">0</parameter><parameter name="AG2">1</parameter><parameter name="SSM">1</parameter><parameter name="RSN">25877</parameter><parameter name="CRR">0</parameter><parameter name="SRT">1654082289.086</parameter><parameter name="DUR">19.6389923095703</parameter><parameter name="TSC">29</parameter><parameter name="MVD">0.346166700124741</parameter><parameter name="AN1">0.225839688662173</parameter><parameter name="AN2">0</parameter><parameter name="VSN">2.485 Apr  4 2017</parameter><parameter name="SRN">0085</parameter><parameter name="CAM">0</parameter><parameter name="INS">IR-Biotyper</parameter><parameter name="FOC">69</parameter><parameter name="RDY">1</parameter><parameter name="ARS">32</parameter></Instrument_Parameters_Rf><Sample_Parameters_><parameter name="BLD"></parameter><parameter name="CNM">Admin</parameter><parameter name="CPY"></parameter><parameter name="DPM"></parameter><parameter name="EXP">IRBT_v3_32Scans.XPM</parameter><parameter name="LCT"></parameter><parameter name="SFM">Microplate, HTS-XT</parameter><parameter name="SNM">220601-1028(v.3)_RTF49M (D_8)_E3_fdca5baa-94ff-4b35-978a-2cb26ba473f3.0</parameter><parameter name="XPP">C:\Users\Public\Documents\Bruker\OPUS_8.2.28\XPM</parameter><parameter name="IST">OK</parameter><parameter name="CPG">1252</parameter><parameter name="UID">c2104432-7117-4b4e-9769-0d8d860d5fed</parameter></Sample_Parameters_><Instrument_Parameters_><parameter name="HFL">15800.168544</parameter><parameter name="LFL">0</parameter><parameter name="LWN">15800.168544</parameter><parameter name="ABP">32197</parameter><parameter name="SSP">1</parameter><parameter name="ASG">2</parameter><parameter name="ARG">2</parameter><parameter name="ASS">32</parameter><parameter name="GFW">16</parameter><parameter name="GBW">16</parameter><parameter name="BFW">0</parameter><parameter name="BBW">0</parameter><parameter name="PKA">7066</parameter><parameter name="PKL">4988</parameter><parameter name="PRA">7322</parameter><parameter name="PRL">4993</parameter><parameter name="P2A">1</parameter><parameter name="P2L">1</parameter><parameter name="P2R">1</parameter><parameter name="P2K">1</parameter><parameter name="DAQ">0</parameter><parameter name="AG2">1</parameter><parameter name="SSM">1</parameter><parameter name="RSN">13564</parameter><parameter name="CRR">0</parameter><parameter name="SRT">1654082314.429</parameter><parameter name="DUR">19.6389923095703</parameter><parameter name="TSC">29</parameter><parameter name="MVD">0.205447301268578</parameter><parameter name="AN1">0.225806793442651</parameter><parameter name="AN2">0</parameter><parameter name="VSN">2.485 Apr  4 2017</parameter><parameter name="SRN">0085</parameter><parameter name="CAM">0</parameter><parameter name="INS">IR-Biotyper</parameter><parameter name="FOC">69</parameter><parameter name="RDY">1</parameter></Instrument_Parameters_><History/></OPUSDataFile>
