<?xml version="1.0" encoding="UTF-8" ?>
<OPUSDataFile><AB><Ydata ylabel="Absorbance Units"><values byteorder="INTEL" format="FLOAT32" numvalues="3497"> -0.09060144 -0.09059223 -0.0905933 -0.0906054 -0.0906177 -0.09062966 -0.09063322 -0.0906289 -0.09062109 -0.09061079
 -0.09060677 -0.09060761 -0.09061348 -0.09062131 -0.09062319 -0.09061929 -0.09060496 -0.09058516 -0.09056388 -0.09054437
 -0.090532 -0.0905229 -0.0905171 -0.09050844 -0.09049339 -0.09047408 -0.09044881 -0.09042928 -0.09041662 -0.09042352
 -0.0904518 -0.0905028 -0.09057667 -0.09065654 -0.09074083 -0.09080347 -0.09084531 -0.09085564 -0.09084128 -0.09081983
 -0.09079877 -0.09080699 -0.09084134 -0.0909136 -0.09100699 -0.09110852 -0.09120079 -0.09126374 -0.09129585 -0.09128819
 -0.09125413 -0.09119599 -0.09112675 -0.09105 -0.09097345 -0.09089815 -0.09083366 -0.0907807 -0.0907509 -0.09074499
 -0.09076354 -0.09080535 -0.090854 -0.09090803 -0.09094911 -0.0909795 -0.09099738 -0.09100603 -0.09101366 -0.09101912
 -0.09102426 -0.09102723 -0.09102499 -0.0910214 -0.09101808 -0.09101971 -0.09103149 -0.09104756 -0.0910688 -0.09108128
 -0.09108047 -0.09106368 -0.09102757 -0.09098974 -0.09095068 -0.09093656 -0.09094891 -0.0910045 -0.09110244 -0.09123608
 -0.09139969 -0.09155654 -0.09169943 -0.09177901 -0.09180038 -0.09174591 -0.09163662 -0.09149881 -0.09135059 -0.09122487
 -0.09112556 -0.09106945 -0.09104468 -0.09105252 -0.09106966 -0.09108685 -0.09109202 -0.09107645 -0.09105754 -0.09103563
 -0.09103569 -0.09106184 -0.09110838 -0.09117536 -0.09122863 -0.09126773 -0.0912772 -0.09126206 -0.09124611 -0.0912337
 -0.0912561 -0.09130788 -0.09139451 -0.0915015 -0.09160662 -0.09170032 -0.09175973 -0.09179033 -0.09178861 -0.09176252
 -0.09171554 -0.09165303 -0.09157394 -0.09149846 -0.0914277 -0.09139731 -0.09141325 -0.09150143 -0.09166803 -0.09189306
 -0.09217647 -0.0924036 -0.09256877 -0.09255505 -0.09238136 -0.0921118 -0.09176806 -0.0914695 -0.09121279 -0.09104943
 -0.09096743 -0.09097342 -0.09104598 -0.09116795 -0.09130663 -0.09142961 -0.09151737 -0.09154297 -0.09152701 -0.09146688
 -0.09140174 -0.09134316 -0.09130641 -0.09129792 -0.09130726 -0.09133423 -0.0913666 -0.09140356 -0.09144443 -0.09148965
 -0.09154674 -0.09161514 -0.09169681 -0.09178695 -0.09187005 -0.0919385 -0.09196357 -0.091946 -0.09186903 -0.09175001
 -0.09159996 -0.09144238 -0.0913006 -0.09118803 -0.09112061 -0.09109588 -0.09111909 -0.09117401 -0.09125958 -0.09135174
 -0.09144692 -0.09152452 -0.09158197 -0.09160687 -0.09159826 -0.09155234 -0.09146985 -0.09136166 -0.09122992 -0.09109443
 -0.090956 -0.09082798 -0.09071061 -0.0906102 -0.09052902 -0.09047424 -0.09044624 -0.09045149 -0.0904796 -0.09052716
 -0.09057587 -0.09061305 -0.09063208 -0.09062414 -0.09060242 -0.09056798 -0.09053607 -0.0905105 -0.09049318 -0.09048491
 -0.09048297 -0.09048714 -0.0905006 -0.0905234 -0.09055786 -0.09060267 -0.09064999 -0.09069847 -0.09073716 -0.09076892
 -0.09079494 -0.0908197 -0.09085318 -0.0908939 -0.09094542 -0.0910013 -0.09105529 -0.09110954 -0.09116016 -0.09122269
 -0.09130339 -0.0914093 -0.09154907 -0.09169523 -0.09184734 -0.09196087 -0.09202974 -0.0920398 -0.09198958 -0.09188478
 -0.09172594 -0.09151871 -0.09126821 -0.09101047 -0.09075442 -0.09055644 -0.09041788 -0.09037549 -0.09041457 -0.09053417
 -0.09069781 -0.09086009 -0.09099519 -0.0910561 -0.09106362 -0.09101395 -0.09093916 -0.09085336 -0.09076891 -0.09069385
 -0.09062217 -0.090555 -0.09047847 -0.09039052 -0.09028862 -0.09017204 -0.09006266 -0.08996227 -0.08990523 -0.08989147
 -0.08994135 -0.09004512 -0.09018023 -0.09032568 -0.09041024 -0.09043208 -0.09034316 -0.09018264 -0.08998013 -0.08976827
 -0.08959153 -0.08944698 -0.08934925 -0.08927451 -0.08921617 -0.08915713 -0.08908837 -0.08901703 -0.0889419 -0.08887903
 -0.08883116 -0.08879752 -0.08877873 -0.08874948 -0.08870841 -0.0886276 -0.08851027 -0.08836532 -0.08819946 -0.08804692
 -0.08790694 -0.08779464 -0.08770697 -0.08764379 -0.08760682 -0.08759881 -0.08761936 -0.08767354 -0.08774561 -0.08783265
 -0.08790421 -0.08794793 -0.08794075 -0.08787224 -0.08773857 -0.08753516 -0.08727803 -0.08696684 -0.08663319 -0.08627901
 -0.08593183 -0.08559278 -0.08527991 -0.0849944 -0.08475406 -0.08455891 -0.08442123 -0.08433449 -0.08428849 -0.08427477
 -0.08427086 -0.08427775 -0.08428947 -0.08430345 -0.0843256 -0.08432033 -0.08427022 -0.08414086 -0.08389958 -0.08358975
 -0.08321115 -0.08283322 -0.08247193 -0.08215067 -0.08187603 -0.08163449 -0.08142576 -0.08122999 -0.08104701 -0.08087539
 -0.08071697 -0.08058745 -0.08048365 -0.08040623 -0.08033859 -0.08023595 -0.08008565 -0.07983079 -0.07950106 -0.07910646
 -0.07869028 -0.07830067 -0.07794583 -0.07764968 -0.07739088 -0.07716876 -0.07695316 -0.07673357 -0.07649949 -0.07624446
 -0.07598525 -0.07572334 -0.07547012 -0.07522714 -0.07497783 -0.07472107 -0.07443243 -0.07411358 -0.07376521 -0.07339245
 -0.07301768 -0.0726438 -0.07229056 -0.07195737 -0.07165375 -0.07137394 -0.07111663 -0.07086997 -0.07062166 -0.07036748
 -0.0700976 -0.06982495 -0.0695539 -0.06929012 -0.06904162 -0.06878189 -0.06850845 -0.06819094 -0.06782185 -0.06742118
 -0.06698873 -0.0665806 -0.06619857 -0.06587008 -0.06559175 -0.06535023 -0.06513985 -0.0649294 -0.06471559 -0.06447111
 -0.06420086 -0.0638985 -0.06357735 -0.0632525 -0.06293346 -0.06263843 -0.06235814 -0.06209653 -0.06182776 -0.06153961
 -0.06122284 -0.06086729 -0.06049623 -0.06011168 -0.05973784 -0.05937924 -0.05903633 -0.05870987 -0.05838446 -0.05805957
 -0.05772663 -0.05738658 -0.05704412 -0.05669906 -0.05635387 -0.05600572 -0.05564629 -0.05527695 -0.05489333 -0.05450607
 -0.05412717 -0.05376597 -0.0534384 -0.05313931 -0.05287254 -0.052623 -0.0523847 -0.05214834 -0.05190825 -0.05166869
 -0.05142934 -0.05119681 -0.05097317 -0.05074945 -0.05052565 -0.05027847 -0.05000716 -0.04970099 -0.04936286 -0.04901194
 -0.04865149 -0.04830868 -0.04797941 -0.0476673 -0.04736397 -0.04705275 -0.04673337 -0.04639485 -0.04605022 -0.04570612
 -0.04537848 -0.04508205 -0.04481723 -0.04459296 -0.0443848 -0.04419006 -0.04397571 -0.04373358 -0.04345012 -0.04312054
 -0.04275997 -0.04236856 -0.0419746 -0.04157947 -0.04120719 -0.04085793 -0.04054414 -0.04026408 -0.04001789 -0.03980116
 -0.03960222 -0.03941556 -0.03922423 -0.03902682 -0.03881229 -0.03858734 -0.03835381 -0.03811953 -0.03789248 -0.03766903
 -0.03745118 -0.03722756 -0.03699295 -0.03675034 -0.03649721 -0.03625299 -0.03602104 -0.03580413 -0.03560399 -0.03538644
 -0.03514966 -0.03485559 -0.03450712 -0.03411013 -0.03367474 -0.0332513 -0.03284594 -0.03250672 -0.03222435 -0.03200697
 -0.0318337 -0.03167871 -0.0315278 -0.03135436 -0.03116426 -0.03095151 -0.03073124 -0.03051016 -0.03029366 -0.03008565
 -0.02988337 -0.02968644 -0.02949511 -0.02930944 -0.02912944 -0.02895538 -0.0287804 -0.02860413 -0.02842019 -0.02822838
 -0.02802558 -0.02781011 -0.02757237 -0.02731082 -0.02701269 -0.02668502 -0.02633231 -0.02597074 -0.02562498 -0.02530587
 -0.0250359 -0.02480954 -0.02463197 -0.0244884 -0.02437326 -0.02427646 -0.02419361 -0.02412031 -0.02405584 -0.02399262
 -0.02393044 -0.02385576 -0.0237676 -0.02365412 -0.02351488 -0.02334604 -0.02314821 -0.02292461 -0.02267692 -0.02241345
 -0.02213809 -0.02186581 -0.02160174 -0.02136469 -0.02115407 -0.02098068 -0.02083141 -0.0206999 -0.02056716 -0.02041601
 -0.02024347 -0.02003801 -0.01982531 -0.0196093 -0.01941904 -0.0192654 -0.01914008 -0.01904649 -0.0189433 -0.01882688
 -0.01868004 -0.01850314 -0.01833643 -0.01818311 -0.01809346 -0.01806081 -0.01808244 -0.01814293 -0.0181923 -0.01822399
 -0.01819581 -0.01812033 -0.01799467 -0.01784066 -0.01767991 -0.01752462 -0.01739427 -0.01727724 -0.01717771 -0.01706462
 -0.0169284 -0.01674964 -0.01651685 -0.01625602 -0.01596502 -0.01570551 -0.0154823 -0.01533969 -0.01527894 -0.01528884
 -0.01536496 -0.01545971 -0.01557126 -0.01566486 -0.01574399 -0.01580335 -0.01584213 -0.01585835 -0.01584461 -0.01578582
 -0.01568691 -0.01553996 -0.01537426 -0.01520581 -0.01506216 -0.01496671 -0.0149088 -0.01489584 -0.01488589 -0.01487082
 -0.01482263 -0.0147332 -0.01461638 -0.01447124 -0.01433959 -0.01422354 -0.01416102 -0.01415136 -0.01420491 -0.0143147
 -0.01445415 -0.01461163 -0.01473633 -0.01482278 -0.01482975 -0.01477095 -0.01464236 -0.01447657 -0.01430343 -0.01415185
 -0.01405616 -0.0140137 -0.01403833 -0.01409557 -0.01417895 -0.01425351 -0.01430927 -0.01433326 -0.01432228 -0.01427224
 -0.01418298 -0.01404225 -0.01384958 -0.01360047 -0.01329858 -0.01297686 -0.0126444 -0.01236578 -0.0121451 -0.01203491
 -0.01202095 -0.01210531 -0.01225533 -0.01242583 -0.0125868 -0.0126848 -0.01272305 -0.01267724 -0.01259317 -0.01248149
 -0.01239885 -0.01236912 -0.01241371 -0.01254806 -0.01273933 -0.01298865 -0.01323486 -0.01347269 -0.01366206 -0.01380137
 -0.01389927 -0.01395878 -0.01401605 -0.0140705 -0.01414026 -0.01421729 -0.01428483 -0.0143369 -0.01434725 -0.01432745
 -0.01427665 -0.01422611 -0.01420588 -0.01424501 -0.01437943 -0.01460378 -0.01493404 -0.0153221 -0.01576026 -0.01618922
 -0.01659346 -0.01694141 -0.01722427 -0.01744531 -0.01760295 -0.01772116 -0.01780135 -0.01788174 -0.01796448 -0.0180883
 -0.01824974 -0.01845418 -0.01868993 -0.01892014 -0.01913984 -0.01931402 -0.01945903 -0.019582 -0.01970522 -0.01986002
 -0.0200442 -0.02027322 -0.0205153 -0.02076105 -0.02097693 -0.02114619 -0.02126452 -0.02132254 -0.02135469 -0.02136166
 -0.02139674 -0.02146499 -0.02159789 -0.02179682 -0.02204742 -0.02234649 -0.02265365 -0.0229674 -0.02325864 -0.02352936
 -0.02377111 -0.02398581 -0.02417297 -0.02433533 -0.02447491 -0.02459924 -0.02471589 -0.02483388 -0.02496295 -0.02510553
 -0.0252672 -0.02544058 -0.02562605 -0.02580941 -0.0259878 -0.02614934 -0.02629079 -0.02641433 -0.02651905 -0.02662201
 -0.02672407 -0.02684213 -0.02697599 -0.02712897 -0.02729937 -0.02747986 -0.02766891 -0.0278578 -0.02804552 -0.02822569
 -0.02839761 -0.02855684 -0.02870488 -0.02884044 -0.028969 -0.02909307 -0.02922053 -0.0293561 -0.02950439 -0.02966909
 -0.02984723 -0.03003942 -0.03023868 -0.03044401 -0.03065089 -0.03085874 -0.03106618 -0.03127308 -0.03147721 -0.03167833
 -0.03187276 -0.03206074 -0.03224138 -0.03241568 -0.03258644 -0.03275469 -0.03292415 -0.03309529 -0.03327094 -0.03344985
 -0.03363305 -0.03381522 -0.03399486 -0.03416086 -0.03430869 -0.03442489 -0.03450239 -0.03453916 -0.03452906 -0.03449813
 -0.03444575 -0.03442281 -0.03443351 -0.03452103 -0.03468769 -0.03493236 -0.03525089 -0.03559393 -0.03595452 -0.03626652
 -0.03652972 -0.03670338 -0.03680253 -0.03683627 -0.03683152 -0.03683549 -0.03686484 -0.03696315 -0.03711377 -0.03732455
 -0.03755531 -0.03778546 -0.03799405 -0.0381636 -0.03831113 -0.03843718 -0.03856046 -0.03868755 -0.03880028 -0.03889886
 -0.03894654 -0.03894139 -0.03887891 -0.03876278 -0.03863761 -0.03850942 -0.03843771 -0.03842086 -0.03848848 -0.03862727
 -0.03882325 -0.03905972 -0.03930183 -0.03954496 -0.03976727 -0.03997996 -0.04018581 -0.04039137 -0.04060635 -0.04081278
 -0.04100844 -0.04116896 -0.04128388 -0.04136164 -0.04139836 -0.04143464 -0.04147447 -0.04154057 -0.04163437 -0.04173136
 -0.04182922 -0.04188909 -0.04191377 -0.04189804 -0.04185099 -0.04180285 -0.04175827 -0.04174602 -0.04175894 -0.04179947
 -0.04185616 -0.04191427 -0.04197444 -0.04202767 -0.04209289 -0.04217655 -0.04229766 -0.04246924 -0.04268124 -0.04293945
 -0.04319964 -0.04345713 -0.04366724 -0.04382327 -0.04392375 -0.04396819 -0.04400409 -0.04403444 -0.04411281 -0.04423581
 -0.04441332 -0.04463358 -0.04485938 -0.04508285 -0.04526295 -0.04540747 -0.04550805 -0.04558213 -0.04564733 -0.04571359
 -0.04579715 -0.04589306 -0.04600468 -0.04611934 -0.04623325 -0.04633657 -0.0464249 -0.04649957 -0.04655831 -0.04661795
 -0.04667929 -0.0467644 -0.04687462 -0.04701257 -0.04717636 -0.04733966 -0.0475003 -0.04762919 -0.04773143 -0.04780861
 -0.04787033 -0.04794329 -0.04802675 -0.04813615 -0.0482548 -0.04837045 -0.04846636 -0.04852302 -0.0485383 -0.04850547
 -0.0484277 -0.04830707 -0.04813588 -0.04791319 -0.04762912 -0.04727921 -0.04687745 -0.0464221 -0.04596112 -0.045497
 -0.04509403 -0.04475475 -0.04452904 -0.04441425 -0.04442206 -0.04454301 -0.04475053 -0.04503307 -0.04534987 -0.04569322
 -0.04603282 -0.04636384 -0.04667036 -0.04694688 -0.04718411 -0.04737903 -0.0475259 -0.04763015 -0.04769086 -0.04772037
 -0.04772098 -0.04770496 -0.04767516 -0.04763609 -0.04758968 -0.04752281 -0.04743501 -0.04729281 -0.04709463 -0.04680904
 -0.0464396 -0.04599027 -0.04547127 -0.0449232 -0.04435257 -0.04379885 -0.04325558 -0.04273121 -0.04221324 -0.04168874
 -0.04115276 -0.04059592 -0.04002037 -0.03942616 -0.03881068 -0.03817375 -0.03750944 -0.03681322 -0.03609713 -0.03535831
 -0.03463823 -0.0339394 -0.03331158 -0.03275802 -0.03230175 -0.03194171 -0.03166375 -0.03146463 -0.03131634 -0.03121821
 -0.03115428 -0.03112277 -0.03111565 -0.03112075 -0.03111725 -0.03108582 -0.03099345 -0.03083375 -0.03058537 -0.03026564
 -0.02987673 -0.02944049 -0.02896867 -0.02846264 -0.02792717 -0.02734755 -0.02672105 -0.02604288 -0.02531045 -0.02454395
 -0.02374411 -0.02295174 -0.02216956 -0.02144567 -0.02078159 -0.02021331 -0.01973619 -0.01935461 -0.01905689 -0.01881616
 -0.01862324 -0.01844483 -0.01829144 -0.01815223 -0.01807043 -0.01806704 -0.01821191 -0.01854673 -0.01913025 -0.02000371
 -0.02115998 -0.02262093 -0.02428536 -0.0261509 -0.02805565 -0.0299847 -0.03179505 -0.03347641 -0.0349698 -0.03627675
 -0.0374223 -0.03841253 -0.0393003 -0.04008726 -0.04080664 -0.04145874 -0.0420582 -0.04261151 -0.04313546 -0.04363818
 -0.04413848 -0.04463366 -0.04513046 -0.04561557 -0.04608384 -0.04652271 -0.04692589 -0.04728686 -0.0476028 -0.0478702
 -0.04808804 -0.04825496 -0.04837097 -0.04843267 -0.04844 -0.04838143 -0.04825689 -0.04806177 -0.04780138 -0.0475071
 -0.04719043 -0.04691522 -0.04668546 -0.04655018 -0.04649181 -0.04650783 -0.04656412 -0.04662007 -0.04664394 -0.0465939
 -0.04645665 -0.04620861 -0.04586294 -0.04541374 -0.04489939 -0.04432542 -0.0437389 -0.0431484 -0.04258752 -0.04206006
 -0.04159273 -0.04118653 -0.04090389 -0.04075116 -0.04084592 -0.0411936 -0.04190037 -0.04294593 -0.04432102 -0.04596971
 -0.04774877 -0.04959887 -0.05134237 -0.0529637 -0.05436167 -0.0555745 -0.05659572 -0.05748056 -0.05826117 -0.05897027
 -0.05963042 -0.06024873 -0.06083118 -0.06137874 -0.06189189 -0.06237449 -0.06282714 -0.06325129 -0.06364719 -0.06401111
 -0.06434298 -0.06464048 -0.06490447 -0.06513954 -0.06534735 -0.06553734 -0.06571024 -0.06587303 -0.06602511 -0.06616805
 -0.06630263 -0.06642927 -0.06655223 -0.06667475 -0.06680182 -0.06693842 -0.06708353 -0.06723981 -0.0673974 -0.06755536
 -0.06769943 -0.06782673 -0.06792855 -0.0680026 -0.06805511 -0.06808602 -0.06811369 -0.06813893 -0.06817671 -0.06822594
 -0.06828556 -0.06835373 -0.06842083 -0.06848888 -0.06855754 -0.06863163 -0.06872142 -0.06882606 -0.06895155 -0.06908713
 -0.06922644 -0.06935749 -0.06947016 -0.06956144 -0.06962647 -0.06967054 -0.06969313 -0.06970442 -0.06970489 -0.06971071
 -0.06972339 -0.06975897 -0.06981892 -0.06990436 -0.07001459 -0.07013281 -0.07025766 -0.07037026 -0.0704716 -0.07055532
 -0.07062406 -0.07068188 -0.07073017 -0.07077394 -0.07081221 -0.07084596 -0.07087322 -0.07089259 -0.07090263 -0.07090165
 -0.07089043 -0.07086805 -0.07083891 -0.07080269 -0.07076976 -0.07074109 -0.07073074 -0.07074089 -0.07077657 -0.07083876
 -0.07091249 -0.0709966 -0.07106654 -0.07112271 -0.07115594 -0.07117022 -0.07117789 -0.07118168 -0.07119706 -0.0712207
 -0.07125474 -0.07129213 -0.07132411 -0.07134677 -0.07135176 -0.07134347 -0.07131994 -0.07129394 -0.07126943 -0.07125957
 -0.07126992 -0.07130307 -0.07136189 -0.07143602 -0.07152501 -0.07161569 -0.07170699 -0.07179365 -0.07187561 -0.07195403
 -0.07202869 -0.07209872 -0.07216303 -0.07221597 -0.07225768 -0.07228477 -0.07230022 -0.07230794 -0.07231089 -0.07231531
 -0.07232063 -0.07232855 -0.07233769 -0.07234655 -0.07235812 -0.07237298 -0.07239515 -0.07242695 -0.07246552 -0.07251149
 -0.07255641 -0.07259917 -0.07263568 -0.07266542 -0.07269146 -0.0727139 -0.07273486 -0.07275368 -0.07276586 -0.072771
 -0.07276393 -0.07274699 -0.07272308 -0.07269689 -0.07267899 -0.07267226 -0.07268598 -0.07271799 -0.0727703 -0.07283783
 -0.07291823 -0.07300668 -0.07310123 -0.07319622 -0.07329054 -0.07337601 -0.07345106 -0.07350908 -0.07354853 -0.07357118
 -0.07357679 -0.07357459 -0.07356507 -0.07355737 -0.07355158 -0.07355236 -0.07355947 -0.07357454 -0.07359706 -0.07362723
 -0.07366287 -0.0737006 -0.0737369 -0.07376494 -0.07378455 -0.07379138 -0.07379188 -0.0737884 -0.07378784 -0.07379515
 -0.0738086 -0.07382933 -0.07385138 -0.07387289 -0.07389534 -0.07391813 -0.07394915 -0.07398911 -0.07403987 -0.07410122
 -0.0741648 -0.07422984 -0.07428622 -0.07433414 -0.07436902 -0.07439212 -0.07440419 -0.07440767 -0.07440722 -0.07440603
 -0.07441066 -0.07442226 -0.07444521 -0.07447641 -0.07451586 -0.0745582 -0.074601 -0.07464097 -0.07467635 -0.0747069
 -0.0747321 -0.07475349 -0.0747711 -0.07478721 -0.07480202 -0.07481701 -0.07483219 -0.07484658 -0.07485987 -0.07486881
 -0.07487366 -0.07487326 -0.07486957 -0.07486752 -0.07486918 -0.07488183 -0.07490437 -0.07493951 -0.07498223 -0.07502903
 -0.07507496 -0.07511525 -0.07514877 -0.07517329 -0.07519124 -0.07520267 -0.07521085 -0.07521651 -0.0752214 -0.07522597
 -0.07522956 -0.07523215 -0.07523273 -0.07523131 -0.07522906 -0.07522619 -0.07522535 -0.07522625 -0.07522888 -0.07523248
 -0.0752345 -0.07523502 -0.07523251 -0.0752287 -0.07522526 -0.07522414 -0.07522823 -0.07523724 -0.07525263 -0.07527101
 -0.07529167 -0.07531014 -0.07532456 -0.07533365 -0.07533626 -0.07533568 -0.07533191 -0.07533054 -0.07533199 -0.07534075
 -0.07535695 -0.0753812 -0.07541278 -0.07544573 -0.07547847 -0.07549997 -0.07551007 -0.07550123 -0.07547706 -0.07544033
 -0.075397 -0.07535691 -0.07532339 -0.07530423 -0.07529745 -0.0753051 -0.07532077 -0.07534265 -0.07536337 -0.07538015
 -0.07538883 -0.07538757 -0.07537731 -0.07535758 -0.07533284 -0.07530333 -0.07527368 -0.07524411 -0.07521851 -0.07519699
 -0.07518245 -0.07517451 -0.07517304 -0.07517712 -0.07518372 -0.07519261 -0.07520113 -0.07521124 -0.07522418 -0.0752429
 -0.07527127 -0.07530973 -0.07536101 -0.07542036 -0.07548738 -0.07555369 -0.07561706 -0.0756693 -0.07570814 -0.07572964
 -0.07573248 -0.07571945 -0.07569034 -0.0756548 -0.07561338 -0.07557692 -0.0755455 -0.07552442 -0.07551274 -0.07550854
 -0.07551119 -0.07551758 -0.075528 -0.07554177 -0.0755589 -0.07557967 -0.07560245 -0.07562614 -0.07564829 -0.07566684
 -0.07568042 -0.07568746 -0.07568891 -0.07568422 -0.075677 -0.07566762 -0.0756607 -0.07565705 -0.07565842 -0.07566522
 -0.07567382 -0.07568399 -0.07568944 -0.07569009 -0.07568268 -0.07566778 -0.07564656 -0.07561959 -0.07558902 -0.07555558
 -0.07552113 -0.07548779 -0.07545894 -0.07543731 -0.07542758 -0.07542908 -0.07544423 -0.07546666 -0.07549489 -0.07552031
 -0.07553968 -0.07554814 -0.07554328 -0.07552766 -0.07550062 -0.07547105 -0.07543953 -0.07541478 -0.07539716 -0.07538694
 -0.07538345 -0.07537933 -0.07537458 -0.07536457 -0.07535128 -0.07533877 -0.07532848 -0.07532663 -0.07533094 -0.07534147
 -0.0753537 -0.07536253 -0.07536627 -0.07536095 -0.07535043 -0.07533494 -0.07532045 -0.07530962 -0.07530341 -0.07530356
 -0.07530332 -0.07530215 -0.07529312 -0.07527521 -0.07525097 -0.0752206 -0.07519435 -0.07517255 -0.07516261 -0.07516348
 -0.07517398 -0.07519213 -0.07521118 -0.07522946 -0.07523998 -0.0752423 -0.07523223 -0.07521148 -0.0751796 -0.07514036
 -0.07509609 -0.07505023 -0.07500549 -0.07496214 -0.07492105 -0.07488059 -0.07483998 -0.07480119 -0.07476369 -0.07473549
 -0.07471725 -0.07471421 -0.07472649 -0.07474633 -0.07477268 -0.0747902 -0.0747999 -0.0747975 -0.07478782 -0.07478408
 -0.07479056 -0.07482424 -0.07488401 -0.07497651 -0.07509659 -0.07524086 -0.07540651 -0.07558914 -0.07579207 -0.07601496
 -0.07626432 -0.07654262 -0.07685263 -0.07719572 -0.07757118 -0.07797892 -0.07842024 -0.07889546 -0.07940418 -0.07994607
 -0.08049347 -0.08104131 -0.08152474 -0.08193849 -0.08221852 -0.08236771 -0.08236247 -0.08220686 -0.08189352 -0.08143786
 -0.08084641 -0.08017153 -0.07946666 -0.07878418 -0.07818256 -0.0776782 -0.0772962 -0.07703021 -0.07688563 -0.0768434
 -0.07690509 -0.07702708 -0.07720662 -0.0773825 -0.07754809 -0.07767813 -0.07777134 -0.07784464 -0.07789858 -0.07794449
 -0.07798062 -0.07800312 -0.07800997 -0.07799252 -0.07794985 -0.0778745 -0.07776952 -0.0776354 -0.07747794 -0.07730487
 -0.07711607 -0.07691514 -0.0766966 -0.07645628 -0.07619894 -0.07592152 -0.07564619 -0.07537626 -0.07513558 -0.07492968
 -0.07476103 -0.07463174 -0.07451808 -0.07441884 -0.07430486 -0.07417669 -0.07403117 -0.07387274 -0.07372551 -0.07359131
 -0.07349128 -0.07341935 -0.07337335 -0.07334422 -0.07331597 -0.0732849 -0.0732394 -0.07318348 -0.07311564 -0.07304309
 -0.07296917 -0.07289883 -0.07283539 -0.07277746 -0.07272601 -0.07267493 -0.07262321 -0.07256805 -0.07250865 -0.072451
 -0.07239541 -0.07235181 -0.07232017 -0.07230353 -0.07230029 -0.07230331 -0.07231055 -0.07231087 -0.07230425 -0.0722843
 -0.07225385 -0.0722141 -0.07216875 -0.07212245 -0.07207727 -0.07203668 -0.07199997 -0.07196797 -0.07193827 -0.07191002
 -0.07188218 -0.07185389 -0.07182728 -0.07180259 -0.07178156 -0.07176475 -0.07174728 -0.07172889 -0.07170088 -0.07166342
 -0.0716157 -0.07155959 -0.07150559 -0.07145496 -0.07141868 -0.07139433 -0.07138264 -0.07137875 -0.07137523 -0.07136843
 -0.07135071 -0.07132253 -0.07128058 -0.07123036 -0.07117316 -0.07111604 -0.07106234 -0.07101404 -0.07097305 -0.07093503
 -0.07089973 -0.07086243 -0.07082248 -0.07077958 -0.0707337 -0.07068781 -0.07064211 -0.0706002 -0.07056195 -0.07052905
 -0.07050046 -0.07047347 -0.07044695 -0.07041612 -0.07038238 -0.0703451 -0.07030795 -0.07027525 -0.07024833 -0.07023069
 -0.07021896 -0.07021242 -0.07020748 -0.07020229 -0.07019653 -0.0701899 -0.07018215 -0.07017353 -0.07016113 -0.0701447
 -0.07012158 -0.07009161 -0.07005502 -0.07001197 -0.06996407 -0.06991153 -0.06985611 -0.06979849 -0.06974188 -0.06968736
 -0.06963956 -0.06959782 -0.06956375 -0.06953444 -0.06950708 -0.06947982 -0.06944952 -0.06941785 -0.06938463 -0.0693524
 -0.06932219 -0.06929491 -0.06927102 -0.06925063 -0.06923389 -0.06922027 -0.06920998 -0.06919935 -0.06918818 -0.06917274
 -0.06915317 -0.06913098 -0.06910668 -0.06908478 -0.06906436 -0.06904456 -0.0690238 -0.06899688 -0.06896515 -0.06892766
 -0.06888859 -0.06885286 -0.06882219 -0.06880081 -0.06878481 -0.06877397 -0.068762 -0.06874639 -0.06872348 -0.06869145
 -0.06865112 -0.06860186 -0.06854874 -0.06849198 -0.06843868 -0.06838927 -0.06834836 -0.06831586 -0.068291 -0.06827315
 -0.0682578 -0.06824473 -0.06823053 -0.06821588 -0.06820084 -0.06818582 -0.06817184 -0.06815817 -0.06814432 -0.06812978
 -0.06811371 -0.06809671 -0.06807935 -0.06806045 -0.06804053 -0.06801481 -0.06798184 -0.06793974 -0.06788684 -0.06783114
 -0.06777287 -0.06772408 -0.06768554 -0.06765962 -0.06764571 -0.06763446 -0.06762524 -0.06760897 -0.06758688 -0.06755865
 -0.06752591 -0.06749269 -0.06745943 -0.06742864 -0.06740046 -0.06737588 -0.06735528 -0.0673398 -0.06732794 -0.06731997
 -0.06731164 -0.06730152 -0.06728618 -0.06726421 -0.06723509 -0.0671984 -0.06715506 -0.06710495 -0.06705043 -0.06699158
 -0.0669335 -0.06687648 -0.06682575 -0.06678107 -0.06674342 -0.0667119 -0.06668354 -0.06665783 -0.06663207 -0.06660605
 -0.06657839 -0.06654865 -0.06651549 -0.0664795 -0.06644017 -0.06639993 -0.06635988 -0.06632231 -0.06628874 -0.06625883
 -0.06623305 -0.06620925 -0.0661871 -0.06616523 -0.06614341 -0.06612159 -0.06609973 -0.06607773 -0.06605555 -0.06603285
 -0.06600973 -0.06598686 -0.06596418 -0.06594209 -0.06591978 -0.06589531 -0.06586791 -0.06583455 -0.06579698 -0.06575542
 -0.06571361 -0.06567516 -0.06564128 -0.06561486 -0.06559163 -0.06557087 -0.0655479 -0.06552065 -0.06548993 -0.06545507
 -0.0654211 -0.06538866 -0.06535949 -0.06533381 -0.06530748 -0.06528026 -0.06524723 -0.06520887 -0.0651658 -0.0651194
 -0.06507549 -0.06503469 -0.06500213 -0.06497627 -0.06495731 -0.06494217 -0.06492734 -0.06490993 -0.06488577 -0.06485501
 -0.06481545 -0.06477205 -0.06472551 -0.06468313 -0.06464741 -0.06462103 -0.06460568 -0.06459641 -0.06459319 -0.06458829
 -0.06458123 -0.06456757 -0.06454732 -0.06452021 -0.06448662 -0.06444902 -0.06440785 -0.06436643 -0.06432451 -0.06428346
 -0.06424183 -0.06419745 -0.06414971 -0.06409614 -0.06403933 -0.06397979 -0.06392248 -0.0638703 -0.06382702 -0.0637956
 -0.06377464 -0.0637655 -0.06376003 -0.06375758 -0.063748 -0.06372975 -0.06370015 -0.06365877 -0.06361173 -0.06355935
 -0.06350774 -0.06345665 -0.06340708 -0.06335869 -0.0633105 -0.06326278 -0.06321579 -0.06316974 -0.06312515 -0.06308195
 -0.06304023 -0.063 -0.06296131 -0.06292421 -0.06288867 -0.06285501 -0.06282316 -0.0627941 -0.06276826 -0.06274549
 -0.06272639 -0.06270675 -0.06268644 -0.06265875 -0.0626232 -0.06257664 -0.0625193 -0.06245534 -0.06238548 -0.06231728
 -0.06225042 -0.06218791 -0.06212837 -0.06206904 -0.06201037 -0.06195087 -0.06189401 -0.06184392 -0.0618021 -0.06177309
 -0.06175126 -0.0617358 -0.06171727 -0.06169102 -0.06165333 -0.06160108 -0.06153937 -0.06146819 -0.06139502 -0.06132073
 -0.06125013 -0.06118364 -0.06112301 -0.06106826 -0.06101932 -0.06097605 -0.06093732 -0.06090281 -0.06087063 -0.06084045
 -0.06081035 -0.06078055 -0.06075085 -0.06072081 -0.06069076 -0.06065727 -0.06061768 -0.0605685 -0.06050522 -0.06043203
 -0.06034825 -0.06026361 -0.0601811 -0.06010543 -0.06003878 -0.05997751 -0.05992159 -0.05986609 -0.05981061 -0.05975468
 -0.05969839 -0.05964384 -0.05959113 -0.05954202 -0.05949605 -0.05945245 -0.05941023 -0.05936611 -0.05931975 -0.05926856
 -0.05921371 -0.05915564 -0.05909543 -0.05903461 -0.05897253 -0.05890904 -0.05884409 -0.05877698 -0.05871049 -0.05864517
 -0.05858371 -0.05852709 -0.05847417 -0.05842519 -0.05837603 -0.05832641 -0.05827266 -0.05821472 -0.05815278 -0.05808739
 -0.05802294 -0.05795973 -0.05790181 -0.05784816 -0.05779832 -0.0577505 -0.0577008 -0.05764886 -0.05759211 -0.05753242
 -0.05747068 -0.05740826 -0.05734694 -0.05728506 -0.05722316 -0.05715621 -0.05708299 -0.05699925 -0.05690317 -0.05679784
 -0.05668256 -0.05656954 -0.05645948 -0.05636582 -0.05628897 -0.05623424 -0.0562004 -0.05618077 -0.0561725 -0.05615968
 -0.05614052 -0.05610029 -0.05604247 -0.05596591 -0.05587672 -0.05578317 -0.05568763 -0.05559529 -0.0555064 -0.05542203
 -0.05534372 -0.05527261 -0.05520878 -0.05515351 -0.05510127 -0.05505196 -0.05499622 -0.05493298 -0.05485501 -0.05476153
 -0.05465325 -0.05453049 -0.0544017 -0.05426753 -0.05413723 -0.05401015 -0.05388825 -0.05377042 -0.05365378 -0.05353945
 -0.05342825 -0.05332143 -0.05322248 -0.05312775 -0.05303604 -0.05294109 -0.0528374 -0.05272509 -0.05260149 -0.05247362
 -0.05234262 -0.05221577 -0.05209489 -0.0519831 -0.05188154 -0.0517864 -0.05169776 -0.05160557 -0.05150934 -0.05139966
 -0.05127654 -0.05113544 -0.05097728 -0.05080294 -0.05061479 -0.05041998 -0.05022036 -0.05002422 -0.04982888 -0.04963506
 -0.04943737 -0.04922996 -0.04901237 -0.04878053 -0.0485425 -0.04830061 -0.04806208 -0.04783109 -0.047604 -0.04738231
 -0.04715203 -0.04691218 -0.04664623 -0.04635256 -0.04602813 -0.04567322 -0.04530114 -0.04491113 -0.04450469 -0.04407613
 -0.04360088 -0.04307251 -0.04245814 -0.04175839 -0.04095536 -0.04006164 -0.03908338 -0.03804208 -0.03695881 -0.03585284
 -0.03474374 -0.0336384 -0.03254349 -0.03146415 -0.03039596 -0.02937771 -0.02841073 -0.02756175 -0.02684113 -0.0262765
 -0.02587223 -0.02560428 -0.02547117 -0.02543945 -0.02550763 -0.0256491 -0.02586319 -0.02613245 -0.02645742 -0.02683503
 -0.02725572 -0.02770779 -0.02815964 -0.02856141 -0.02889406 -0.02911309 -0.02923867 -0.02926864 -0.02923131 -0.02913883
 -0.0290105 -0.02885386 -0.02868371 -0.02850569 -0.02831979 -0.02813022 -0.02790011 -0.02762768 -0.02726432 -0.02680945
 -0.02628628 -0.02570067 -0.02511936 -0.02453872 -0.02397637 -0.02342449 -0.02286731 -0.02230353 -0.02172375 -0.02112751
 -0.02051431 -0.01987228 -0.01919492 -0.01845674 -0.01763896 -0.01672423 -0.01568975 -0.01456958 -0.01336 -0.01213787
 -0.01091922 -0.009751326 -0.008645041 -0.007601387 -0.006622287 -0.005684129 -0.004784864 -0.003871783 -0.002938919 -0.0019022
 -0.0007694796 0.0004807022 0.001806427 0.003081758 0.00429767 0.005360454 0.006317361 0.007198486 0.008038731 0.008888973
 0.009750867 0.01064064 0.01155266 0.01248627 0.01344409 0.01443182 0.01542653 0.01642781 0.01739525 0.01832067
 0.01920453 0.02004555 0.0208647 0.02166203 0.02241594 0.0231232 0.02374103 0.0242737 0.02471771 0.02508388
 0.02540436 0.0256845 0.02595381 0.02620498 0.02643895 0.02665097 0.02683372 0.0269935 0.02713351 0.02725516
 0.02736176 0.02744591 0.0275061 0.02753581 0.02753295 0.02749619 0.02742432 0.02732346 0.0271932 0.02705529
 0.02691092 0.02678486 0.02667592 0.02658229 0.02650056 0.02641175 0.02631621 0.02620275 0.02607919 0.02595451
 0.02584052 0.0257601 0.02571502 0.02571706 0.02575941 0.02583845 0.02595677 0.02611376 0.0263159 0.02656847
 0.02685952 0.02718872 0.02753768 0.02790258 0.02828312 0.02867861 0.02909756 0.02954035 0.03001076 0.03050895
 0.03103807 0.031598 0.03219122 0.03281468 0.03346062 0.03412499 0.03479427 0.0354693 0.0361446 0.03682467
 0.03751237 0.03821058 0.03892234 0.03964873 0.04039131 0.04114907 0.04192224 0.0427085 0.04350735 0.04431778
 0.04514021 0.04596891 0.04680407 0.04762928 0.04844362 0.04922936 0.04998461 0.05068697 0.05132956 0.05186453
 0.0522876 0.05255366 0.05267738 0.05266594 0.05254 0.05233347 0.05205967 0.05174308 0.05139514 0.05103384
 0.05065566 0.05027361 0.04984146 0.04935708 0.04873425 0.04794456 0.046982 0.04582287 0.04465342 0.0434897
 0.04242788 0.04147119 0.04053574 0.03961861 0.03865989 0.03766653 0.03664611 0.03560226 0.03455897 0.0334963
 0.0323968 0.03120554 0.02982523 0.02823844 0.02634162 0.02429265 0.02216885 0.02010635 0.01822851 0.01646126
 0.01480494 0.01318804 0.01158137 0.01002096 0.008505705 0.007092454 0.005788711 0.004583783 0.003476919 0.002418471
 0.001407653 0.0004188971 -0.0005442162 -0.001475264 -0.002372195 -0.003223891 -0.004033068 -0.004799339 -0.005528215 -0.006227095
 -0.006902225 -0.007560959 -0.008213322 -0.008863754 -0.009536259 -0.01024335 -0.01100378 -0.01184376 -0.01269093 -0.01354377
 -0.01427941 -0.01486796 -0.01533244 -0.01566821 -0.01597485 -0.01625706 -0.01656421 -0.0168933 -0.01722623 -0.01755786
 -0.01784841 -0.01810224 -0.01831395 -0.01848812 -0.01863733 -0.01875113 -0.01882123 -0.01883162 -0.01875826 -0.01860304
 -0.01835655 -0.01803478 -0.01764321 -0.0171946 -0.01669536 -0.01614939 -0.01556263 -0.01491379 -0.01420633 -0.01337275
 -0.01240749 -0.01125161 -0.009902892 -0.008450537 -0.006907211 -0.005455233 -0.004091791 -0.002894999 -0.001850456 -0.0009486701
 -0.0001842465 0.0004552003 0.0009808071 0.001407346 0.001765166 0.002088962 0.002410844 0.002773643 0.003166565 0.003605562
 0.004034243 0.004431153 0.004780543 0.005068448 0.005329469 0.005566212 0.005811807 0.006070276 0.006350822 0.006653991
 0.006966821 0.007288439 0.007603772 0.007914171 0.008218705 0.00852093 0.008832495 0.00915577 0.009503378 0.009872063
 0.01026237 0.01067043 0.01108999 0.01152561 0.01197847 0.01245364 0.01295686 0.01348009 0.01402365 0.0145718
 0.01511986 0.01566343 0.01620031 0.0167376 0.01727687 0.01780821 0.01833103 0.01879662 0.01920209 0.01949609
 0.01968139 0.01974719 0.01969902 0.01955092 0.01930449 0.01897063 0.01854788 0.01803758 0.01744099 0.01675764
 0.01599591 0.01516125 0.01426233 0.01330763 0.01229197 0.0112165 0.01006977 0.00884363 0.007561943 0.006220751
 0.004893723 0.003587315 0.002356488 0.001204463 0.000120039 -0.0008986361 -0.001881117 -0.002823737 -0.003720492 -0.00456446
 -0.005324123 -0.006004564 -0.00659707 -0.007121442 -0.007603941 -0.008064609 -0.008537495 -0.009028963 -0.009558658 -0.01011331
 -0.01069534 -0.01127599 -0.01184698 -0.0123813 -0.01286913 -0.0133046 -0.01368295 -0.01402332 -0.01432641 -0.01461783
 -0.01489906 -0.01517478 -0.01544334 -0.01568303 -0.0158928 -0.01605359 -0.01616958 -0.0162452 -0.01628552 -0.01630514
 -0.01630558 -0.01629598 -0.01627564 -0.01624689 -0.01620964 -0.01616313 -0.01611188 -0.01605575 -0.01600702 -0.01596919
 -0.01595503 -0.01596936 -0.01601413 -0.01609158 -0.01619167 -0.01631414 -0.01644447 -0.01658184 -0.01671419 -0.01684131
 -0.01695805 -0.0170645 -0.01715926 -0.01724093 -0.0173044 -0.0173468 -0.01735772 -0.01733792 -0.01728159 -0.0171972
 -0.01709038 -0.0169736 -0.01685817 -0.01675311 -0.01666687 -0.01660158 -0.01656105 -0.01653996 -0.01653902 -0.01654626
 -0.01656056 -0.01656795 -0.01656682 -0.01654915 -0.01651434 -0.0164669 -0.01640798 -0.01635487 -0.01630905 -0.01628955
 -0.0162945 -0.01632856 -0.01638598 -0.01645515 -0.01653186 -0.01660279 -0.01666929 -0.01672737 -0.01678068 -0.01683156
 -0.01688056 -0.01692944 -0.016975 -0.01701697 -0.01705034 -0.0170737 -0.0170843 -0.01708086 -0.01706667 -0.01704157
 -0.01701351 -0.01698294 -0.0169556 -0.0169314 -0.01691026 -0.01689158 -0.016872 -0.01685076 -0.01682357 -0.01678954
 -0.01674427 -0.01668766 -0.01661685 -0.0165341 -0.0164404 -0.01633924 -0.01623387 -0.01612614 -0.01601839 -0.01590966
 -0.01580004 -0.01568865 -0.01557473 -0.01546088 -0.0153471 -0.01523807 -0.01513432 -0.01503827 -0.01495012 -0.01486888
 -0.01479445 -0.01472501 -0.01466036 -0.0145984 -0.01453884 -0.01447936 -0.01442021 -0.01436049 -0.01430158 -0.01424519
 -0.01419306 -0.01414779 -0.01411074 -0.01408369 -0.01406787 -0.01406437 -0.01407407 -0.01409758 -0.01413505 -0.01418665
 -0.01425218 -0.01433165 -0.01442483 -0.0145318 -0.01465101 -0.01478238 -0.01492313 -0.01507309 -0.01522913 -0.01539077
 -0.01555383 -0.01571711 -0.01587437 -0.0160236 -0.01615644 -0.01627228 -0.01636488 -0.01643837 -0.01649386 -0.01653924
 -0.01658201 -0.01662554 -0.01667576 -0.01672612 -0.01677604 -0.0168171 -0.01684617 -0.01686242 -0.01686504 -0.01685628
 -0.01683664 -0.01680318 -0.01675578 -0.01669085 -0.01660862 -0.01651254 -0.01640346 -0.01628919 -0.01616971 -0.01604947
 -0.01592707 -0.01580137 -0.01567068 -0.01553133 -0.01538276 -0.01522248 -0.01505162 -0.01487092 -0.01467925 -0.01447747
 -0.01425965 -0.01402384 -0.01376517 -0.0134808 -0.01317435 -0.01284541 -0.0125019 -0.01214466 -0.01177841 -0.01140348
 -0.01102224 -0.01063494 -0.01024605 -0.009856109 -0.009471104 -0.009091486 -0.008722112 -0.008363295 -0.008018 -0.00768701
 -0.007372093 -0.007076392 -0.006803535 -0.006558571 -0.00634816 -0.006171429 -0.006032372 -0.005919241 -0.005829217 -0.005749537
 -0.005675341 -0.005603846 -0.00553349 -0.005466504 -0.005403309 -0.005341663 -0.005281531 -0.005216863 -0.005147221 -0.005064949
 -0.004969376 -0.004851663 -0.004712179 -0.004546402 -0.004357816 -0.004152317 -0.003934959 -0.003717346 -0.003502883 -0.003301189
 -0.00311123 -0.002937444 -0.002771006 -0.002610045 -0.002440085 -0.002254565 -0.002045522 -0.001808025 -0.001546572 -0.001260605
 -0.0009588145 -0.0006418782 -0.0003180112 1.235846E-05 0.0003365797 0.0006540483 0.0009530667 0.001234608 0.001499644 0.00175035
 0.001996208 0.002238122 0.002482975 0.002731334 0.002987253 0.003251111 0.003525794 0.003808838 0.004099086 0.004394503
 0.004693246 0.004995408 0.005302325 0.00560692 0.005908999 0.006195088 0.006461598 0.006707431 0.006930866 0.007146947
 0.007356552 0.007571244 0.007791061 0.008015023 0.008242702 0.008470814 0.008699141 0.008926057 0.009149563 0.009364623
 0.009566864 0.009746966 0.009899337 0.01001278 0.01008515 0.0101081 0.01009041 0.01003247 0.009951001 0.00985338
 0.009748829 0.00964238 0.009532636 0.009419567 0.009304698 0.00918761 0.009076396 0.008971554 0.00887944 0.008800319
 0.008738278 0.008693754 0.008672694 0.008674283 0.008699381 0.00874463 0.008801838 0.00886739 0.008931135 0.008990309
 0.009037592 0.009070863 0.009085369 0.009081652 0.009058445 0.0090178 0.008961199 0.008886134 0.008792059 0.008677308
 0.008539925 0.008390111 0.008228389 0.008067903 0.007909872 0.007752608 0.0075956 0.007426625 0.007245561 0.007046021
 0.006828688 0.006593424 0.006340064 0.006068074 0.005777019 0.005465748 0.005134203 0.004782183 0.004408718 0.004012699
 0.003594036 0.003151815 0.002688148 0.002203063 0.001700827 0.001181634 0.0006536531 0.0001177499 -0.0004154989 -0.0009443662
 -0.001465951 -0.00197969 -0.002493219 -0.003006799 -0.00352536 -0.00404788 -0.004568699 -0.00508636 -0.005591651 -0.006083897
 -0.006556606 -0.007009643 -0.007439174 -0.007846958 -0.008233282 -0.008601123 -0.008953515 -0.00929171 -0.00961675 -0.009931256
 -0.01023525 -0.01053618 -0.01083674 -0.01113925 -0.01144631 -0.01174646 -0.01203891 -0.01231142 -0.01256274 -0.01279492
 -0.0130083 -0.01321184 -0.01340528 -0.01359078 -0.01376689 -0.01392854 -0.01407424 -0.01419685 -0.01429652 -0.01436887
 -0.01441824 -0.01444742 -0.01446352 -0.01447431 -0.01448352 -0.01449639 -0.01451193 -0.01453079 -0.01455213 -0.01457563
 -0.01460152 -0.01462974 -0.01466078 -0.01469459 -0.01473313 -0.01477669 -0.01482271 -0.01487068 -0.01490761 -0.01493315
 -0.01493748 -0.01492336 -0.01489811 -0.01486418 -0.01483367 -0.01480413 -0.01477591 -0.01474778 -0.01471631 -0.01468677
 -0.01466377 -0.0146485 -0.0146464 -0.01464529 -0.01464221 -0.01462323 -0.01458141 -0.0145194 -0.01443428 -0.01434545
 -0.01425464 -0.01417996 -0.01412343 -0.01408181 -0.01405429 -0.01401761 -0.01397117 -0.01389796 -0.0138021 -0.01369285
 -0.01357526 -0.01347036 -0.01337646 -0.01330137 -0.01323867 -0.01318221 -0.01312887 -0.01307288 -0.01301507 -0.0129547
 -0.0128918 -0.01282642 -0.0127577 -0.0126845 -0.01261063 -0.01253573 -0.01246911 -0.0124122 -0.0123692 -0.01234119
 -0.01231346 -0.01228489 -0.01222926 -0.01214688 -0.01202761 -0.01187606 -0.01170839 -0.01152805 -0.01135501 -0.01118651
 -0.01102649 -0.01087158 -0.01071709 -0.01056558 -0.01041679 -0.01027665 -0.01014893 -0.01003779 -0.009946608 -0.009875027
 -0.009825177 -0.009788402 -0.009765015 -0.009737304 -0.009703358 -0.009647479 -0.009567901 -0.00946519 -0.009339801 -0.009208148
 -0.009071102 -0.008944092 -0.008825333 -0.008714869 -0.008610006 -0.008501563 -0.008391033 -0.008276129 -0.008161468 -0.008053496
 -0.007952743 -0.007863351 -0.007780517 -0.007702351 -0.007624842 -0.007545931 -0.007462457 -0.007373803 -0.00727422 -0.007161853
 -0.007036397 -0.006896265 -0.006755123 -0.006613714 -0.006487449 -0.006376674 -0.006279506 -0.006194253 -0.006104082 -0.00600887
 -0.005897631 -0.00577479 -0.00564725 -0.005520495 -0.005410664 -0.00531622 -0.005244852 -0.005184651 -0.005128019 -0.005061648
 -0.004972083 -0.00485966 -0.00471774 -0.004563441 -0.004399449 -0.004245288 -0.004106773 -0.00398783 -0.003891165 -0.003803218
 -0.003723349 -0.003635963 -0.003540554 -0.003434923 -0.003320032 -0.003204393 -0.003088027 -0.002976352 -0.002866739 -0.002754525
 -0.002636216 -0.002501343 -0.002350764 -0.002178303 -0.001994495 -0.001805537 -0.001625981 -0.001469786 -0.001337877 -0.001237686
 -0.001152515 -0.001078698 -0.001003114 -0.0009212175 -0.0008333296 -0.0007393226 -0.0006369401 -0.0005262298 -0.0003991811 -0.0002557066
 -0.0001018056 6.097942E-05 0.0002141417 0.000358738 0.000489343 0.0006101678 0.0007325175 0.0008567678 0.0009905642 0.001128957
 0.001268176 0.001403626 0.001528188 0.001642904 0.001744429 0.001841327 0.001935888 0.002038228 0.002153813 0.002280351
 0.002420431 0.002557115 0.002688567 0.002800892 0.002892204 0.00296594 0.00302259 0.003082612 0.003147773 0.003244583
 0.003371506 0.003538292 0.003735277 0.003938292 0.004137641 0.004297216 0.004423278 0.004505661 0.004563913 0.004614368
 0.004670789 0.004748682 0.004851459 0.004984884 0.005147669 0.005342977 0.005557343 0.005790979 0.006017437 0.006232829
 0.006421048 0.006579356 0.006719581 0.006842625 0.006979612 0.007132061 0.007328619 0.007566278 0.007847378 0.008162976
 0.008485064 0.008809681 0.00911158 0.009399449 0.009676323 0.009947652 0.01022361 0.0104961 0.01076131 0.01101676
 0.01125888 0.01149296 0.0117244 0.0119359 0.01212713 0.01226777 0.01235008 0.01238503 0.01237098 0.01235701
 0.01234533 0.01236298 0.01240815 0.0124712 0.01255006 0.01262939 0.01270918 0.01278147 0.01284716 0.01290324
 0.01295357 0.01300273 0.01305329 0.01311157 0.01317247 0.0132346 0.01329261 0.01334268 0.01338516 0.01342018
 0.0134447 0.01345841 0.01345681 0.01343822 0.0134089 0.013369 0.01332763 0.01328527 0.01324736 0.0132154
 0.01320758 0.01322524 0.01328908 0.013391 0.01351681 0.01365558 0.01377226 0.01387209 0.01394654 0.01400682
 0.01406483 0.01411846 0.01416806 0.01421675 0.0142602 0.01432495 0.01442247 0.01455544 0.0147344 0.01490739
 0.01506624 0.01519117 0.01527781 0.01535185 0.01541445 0.01548728 0.01556956 0.01566225 0.01575991 0.01583625
 0.01588253 0.01585255 0.0157498 0.01555098 0.01528465 0.01498146 0.0146723 0.01440669 0.01418575 0.01402994
 0.01391852 0.01384713 0.01379577 0.01375742 0.01371625 0.0136668 0.01360383 0.01352441 0.01343939 0.0133494
 0.01326371 0.01318278 0.01310785 0.0130399 0.01299059 0.01296098 0.01296629 0.01300014 0.013051 0.01310866
 0.01314226 0.01315188 0.0131236 0.01306224 0.01296853 0.01284466 0.01268601 0.01251678 0.01234443 0.01220076
 0.01210647 0.01204219 0.01201206 0.01196618 0.01189358 0.01179447 0.01166498 0.01155935 0.01148032 0.01147385
 0.01153881 0.01167918 0.01188652 0.01211843 0.01236444 0.01256223 0.01271761 0.01280778 0.01285567 0.01288921
 0.01292016 0.01297452 0.01304852 0.01314506 0.01326692 0.01341704 0.01359422 0.0138045 0.01401863 0.01423199
 0.01441609 0.01456381 0.01467711 0.01475555 0.01480235 0.01481761 0.0147921 0.01472749 0.01464018 0.01453535
 0.01445367 0.01439311 0.01436973 0.01437516 0.01439707 0.01443192 0.01446971 0.01450657 0.01453609 0.01455114
 0.01454347 0.01451201 0.01445553 0.01436879 0.01425113 0.01409156 0.01388196 0.01364633 0.01338176 0.01315416
 0.01296972 0.01287067 0.01285943 0.01292158 0.0130543 0.01322055 0.01341574 0.01359697 0.01375778 0.01384975
 0.01387708 0.01382059 0.01369966 0.01353775 0.01334727 0.01315254 0.01295434 0.01275749 0.0125717 0.012402
 0.01225947 0.01215322 0.01207074 0.01201321 0.01195512 0.01189283 0.01180779 0.01169781 0.0115518 0.01136908
 0.01116298 0.01093686 0.01073895 0.01057075 0.01046971 0.0104261 0.01042683 0.01045915 0.01048539 0.0105019
 0.01048531 0.01043895 0.01035547 0.01024623 0.01011452 0.009979861 0.009855111 0.00974636 0.009661917 0.009587551
 0.009520233 0.009454735 0.009388609 0.009330012 0.00928022 0.009233424 0.009189355</values></Ydata></AB><ScSm><Ydata ylabel="Single channel"><values byteorder="INTEL" format="FLOAT32" numvalues="1814"> 0.07527567 0.07528233 0.07535734 0.07552851 0.07576373 0.07599077 0.07614774 0.0762218 0.07623437 0.076198
 0.07612176 0.07605876 0.0760977 0.07627726 0.07652935 0.07672416 0.07677478 0.07671542 0.07668142 0.07677382
 0.07691865 0.07689185 0.07652999 0.07591896 0.07533826 0.07500479 0.074938 0.07512626 0.07566643 0.07650045
 0.07711645 0.07691454 0.07596149 0.07502865 0.07473449 0.07495069 0.07516285 0.07506753 0.07466589 0.07414499
 0.07393076 0.07457517 0.07621217 0.07810619 0.07891533 0.07753992 0.07391053 0.06923431 0.06554599 0.06461629
 0.06670456 0.070206 0.07285817 0.07354785 0.07283969 0.07182087 0.07092796 0.0701032 0.06956263 0.06982871
 0.07101179 0.07233369 0.07253692 0.0709631 0.06833659 0.06624786 0.06570143 0.06648701 0.06803606 0.07003992
 0.07158332 0.07064801 0.06609992 0.06020821 0.05763385 0.060995 0.06806925 0.07396758 0.07548578 0.07289794
 0.06853002 0.06483337 0.06346485 0.06484306 0.06807311 0.07168962 0.07454304 0.07585159 0.07500862 0.07211122
 0.06847243 0.06598175 0.06594365 0.06856757 0.07292578 0.077039 0.07877645 0.07742924 0.07418075 0.07085808
 0.0687321 0.06852147 0.07056868 0.0744822 0.07911611 0.08323421 0.08601348 0.08712676 0.08681145 0.08571932
 0.08442169 0.0833157 0.08296708 0.0837591 0.08498036 0.08509994 0.08343361 0.08105597 0.07969159 0.07993232
 0.0807685 0.08081749 0.07972296 0.07792854 0.07530919 0.07114136 0.06576465 0.06102879 0.05844324 0.05802557
 0.05940279 0.06239946 0.06574084 0.06698148 0.06518769 0.06264151 0.06257632 0.06572585 0.06994949 0.07284077
 0.07395408 0.07462879 0.07626743 0.07890325 0.08102887 0.08073486 0.07760054 0.07375292 0.07236158 0.07452732
 0.07822636 0.08080366 0.0817748 0.08252326 0.08388218 0.08483881 0.08358881 0.07967984 0.07515924 0.07330664
 0.07577312 0.08092341 0.08502404 0.08500801 0.08053833 0.07407538 0.06896067 0.06710779 0.06849663 0.07245183
 0.07838129 0.08510134 0.09053141 0.09286284 0.09187992 0.08885235 0.08508609 0.0807154 0.07539971 0.07033786
 0.0685057 0.07183832 0.07875595 0.08548506 0.08942254 0.09042691 0.08935146 0.08644386 0.08159266 0.07587671
 0.07206751 0.07247602 0.0761665 0.07948998 0.07990362 0.07828727 0.07706174 0.07717489 0.07775053 0.07794349
 0.07814193 0.0793004 0.08157343 0.08394855 0.08522627 0.08511229 0.08427148 0.08355273 0.08321712 0.08274616
 0.08156915 0.08019723 0.08017237 0.08238254 0.08584383 0.08871051 0.09012868 0.09055427 0.09052265 0.08970175
 0.08737704 0.08380589 0.0807621 0.08021715 0.08243446 0.08580883 0.08853258 0.08989194 0.09009624 0.08962417
 0.08889667 0.08813705 0.08744845 0.08711937 0.08755156 0.08869188 0.08989558 0.09057485 0.09068535 0.09044176
 0.08989678 0.08901601 0.0879777 0.08719076 0.087004 0.08744358 0.08824728 0.08909872 0.08974867 0.08998801
 0.08972305 0.0891185 0.08849119 0.08801965 0.08769558 0.08754255 0.08767648 0.08810119 0.08860894 0.08896336
 0.08909066 0.08904923 0.08889881 0.0886581 0.0883491 0.08804263 0.08785908 0.08789261 0.08810096 0.08832097
 0.08844923 0.08854547 0.08868495 0.08878785 0.08870697 0.0884403 0.08815055 0.08798867 0.08797258 0.08802584
 0.08805864 0.08798428 0.08771604 0.08724147 0.08672172 0.08643273 0.08654252 0.08698483 0.08756697 0.08811843
 0.08851787 0.08869977 0.08870252 0.08863395 0.08854462 0.08838876 0.08813031 0.08784388 0.08769184 0.08780055
 0.08814526 0.08856244 0.0888872 0.08905799 0.08910049 0.08908416 0.08910342 0.0892103 0.08933652 0.08935493
 0.08924056 0.08911088 0.08908949 0.08917281 0.08924693 0.08921936 0.08912375 0.08908446 0.08917814 0.08935827
 0.08952653 0.08964329 0.08974457 0.08986813 0.08998172 0.08999657 0.08986916 0.08967529 0.08953983 0.08950229
 0.08950816 0.08952675 0.08960314 0.08976972 0.0899643 0.09008143 0.0900875 0.09004985 0.09004612 0.09006976
 0.09004841 0.08994305 0.08979705 0.08968557 0.0896451 0.08966032 0.08969445 0.0897153 0.08970259 0.08964907
 0.0895621 0.08945823 0.08935106 0.08925296 0.08919544 0.08922608 0.08935447 0.08950356 0.0895495 0.08943047
 0.089209 0.08901382 0.08891902 0.08888647 0.08882537 0.08869222 0.08851905 0.08835974 0.08823725 0.08814423
 0.08806679 0.08799715 0.08794536 0.08795008 0.088052 0.08823059 0.08838613 0.08841945 0.08832797 0.08819957
 0.0881201 0.08811171 0.08814827 0.08819872 0.08825837 0.0883534 0.08850062 0.08865698 0.08874463 0.0887414
 0.08871204 0.08873891 0.08885823 0.08906232 0.08930884 0.08951834 0.08962095 0.08963143 0.08964117 0.08971983
 0.08985505 0.08999807 0.09013127 0.0902698 0.09042474 0.09059492 0.09078826 0.09102587 0.09131894 0.09164746
 0.09196264 0.09221448 0.09239371 0.0925553 0.09278545 0.09312878 0.09354734 0.09395465 0.09428895 0.09455675
 0.09481018 0.09508526 0.09537341 0.09566127 0.09597537 0.09635484 0.09679011 0.0972259 0.09762506 0.0979993
 0.09837645 0.09876491 0.09915724 0.09955324 0.09997081 0.1004288 0.1009107 0.1013562 0.1017097 0.1019795
 0.1022347 0.1025494 0.102951 0.1034009 0.1038087 0.1040979 0.1042869 0.1044841 0.1047737 0.1051256
 0.1054531 0.1057381 0.1060517 0.1064505 0.1068963 0.1072991 0.1076161 0.1078873 0.1081795 0.108509
 0.108823 0.1090572 0.1092086 0.1093385 0.1095063 0.1097274 0.1100053 0.1103641 0.1108098 0.1112854
 0.1117041 0.1120212 0.1122472 0.1124138 0.1125559 0.1127059 0.1128725 0.113038 0.1131918 0.1133427
 0.1134861 0.1135991 0.1136889 0.113808 0.1139961 0.1142423 0.1145284 0.1148669 0.1152611 0.1156608
 0.116013 0.1163439 0.116732 0.117187 0.1176057 0.1178803 0.1180119 0.1180799 0.1181412 0.1182145
 0.1183353 0.1185528 0.1188669 0.1192137 0.119525 0.1197759 0.119975 0.1201347 0.120259 0.1203464
 0.1204016 0.1204494 0.1205357 0.1207135 0.1210197 0.1214457 0.1219247 0.1223639 0.1227012 0.1229201
 0.1230146 0.122977 0.1228405 0.1226939 0.1226099 0.1225603 0.1224303 0.1221148 0.1215836 0.1208616
 0.1199815 0.1189732 0.1178875 0.116809 0.1158391 0.1150636 0.114538 0.1143024 0.1143938 0.1148163
 0.1154924 0.1162671 0.1169732 0.1174784 0.1176777 0.1174885 0.1168932 0.1159713 0.1148619 0.1136983
 0.1125756 0.1115455 0.1106127 0.109766 0.1090471 0.1085855 0.1085498 0.1090675 0.1101854 0.111864
 0.1139713 0.1162892 0.1185711 0.1206317 0.1224007 0.1239031 0.1252026 0.1263682 0.1274633 0.1285216
 0.1295262 0.1304373 0.1312455 0.1319799 0.1326628 0.1332803 0.1337973 0.1341844 0.134437 0.134582
 0.1346604 0.1346918 0.1346713 0.1346032 0.1345116 0.134397 0.1342035 0.1338482 0.1332829 0.1325306
 0.1316929 0.1309448 0.1305227 0.1306857 0.131629 0.1333719 0.1357079 0.1382855 0.1407607 0.142902
 0.1446059 0.145881 0.1468221 0.1475599 0.1482 0.1487998 0.1493802 0.1499413 0.1504733 0.1509703
 0.151439 0.151895 0.1523564 0.1528322 0.1533079 0.1537491 0.154136 0.1544939 0.1548786 0.1553259
 0.1558167 0.156297 0.1567361 0.157154 0.15758 0.1579992 0.1583662 0.1586682 0.1589457 0.1592534
 0.1596218 0.1600484 0.1604964 0.1609056 0.1612356 0.1615012 0.1617545 0.1620343 0.162344 0.1626712
 0.1630071 0.1633434 0.1636683 0.1639795 0.1642952 0.1646329 0.1649752 0.1652777 0.1655176 0.1657214
 0.1659373 0.1661893 0.1664641 0.1667349 0.1669923 0.1672601 0.1675731 0.1679353 0.1683028 0.1686197
 0.1688663 0.1690699 0.1692743 0.1695077 0.1697741 0.1700613 0.1703508 0.1706269 0.1708878 0.1711455
 0.1714113 0.1716855 0.1719625 0.1722391 0.1725112 0.1727731 0.1730261 0.1732813 0.1735501 0.1738396
 0.1741549 0.1744912 0.1748226 0.1751142 0.1753517 0.1755519 0.1757441 0.1759492 0.1761748 0.1764198
 0.1766783 0.1769424 0.1772047 0.1774616 0.1777167 0.1779789 0.1782521 0.1785299 0.1788022 0.1790655
 0.1793274 0.1795995 0.1798872 0.1801826 0.1804706 0.1807422 0.1809988 0.1812477 0.1814949 0.1817427
 0.1819876 0.1822256 0.1824604 0.1827027 0.1829585 0.1832222 0.1834839 0.183739 0.1839884 0.1842329
 0.1844712 0.1847026 0.184931 0.1851656 0.1854149 0.1856777 0.1859424 0.1861948 0.1864303 0.1866574
 0.1868878 0.1871242 0.1873623 0.1876033 0.1878537 0.188113 0.1883696 0.1886125 0.1888424 0.1890698
 0.1893051 0.1895499 0.1897975 0.1900413 0.1902815 0.1905215 0.1907639 0.1910101 0.1912596 0.1915089
 0.191756 0.1920035 0.1922547 0.1925091 0.1927651 0.1930213 0.1932773 0.1935324 0.1937851 0.1940324
 0.1942745 0.1945191 0.1947725 0.195031 0.1952848 0.1955272 0.1957551 0.1959712 0.1961873 0.1964147
 0.1966532 0.196893 0.1971244 0.1973414 0.1975448 0.1977454 0.1979562 0.1981831 0.198427 0.1986866
 0.1989549 0.1992205 0.1994774 0.1997249 0.1999629 0.2001946 0.2004275 0.2006654 0.2009076 0.2011538
 0.2014031 0.20165 0.2018911 0.2021287 0.2023655 0.2026067 0.2028613 0.2031307 0.203402 0.2036603
 0.2039006 0.2041248 0.2043426 0.2045685 0.2048073 0.2050497 0.2052917 0.2055396 0.2057936 0.2060465
 0.2062956 0.206541 0.2067806 0.2070169 0.2072546 0.2074895 0.2077176 0.2079474 0.2081857 0.2084277
 0.2086742 0.2089334 0.2092006 0.2094602 0.2097048 0.2099346 0.2101508 0.2103616 0.2105736 0.2107711
 0.2109047 0.2108391 0.210228 0.2083939 0.2043334 0.1969258 0.1853764 0.1697173 0.1509772 0.1308236
 0.1109533 0.09265423 0.07668023 0.06335548 0.05274418 0.04475863 0.03922363 0.03598598 0.03503171 0.03660787
 0.04135454 0.04992314 0.06153383 0.07269721 0.07857309 0.07679592 0.06974278 0.06236999 0.05809624 0.05715416
 0.05807318 0.05959888 0.0613303 0.06349019 0.066469 0.07038366 0.07505625 0.0804869 0.08708146 0.09513494
 0.1042177 0.1133568 0.1218717 0.1299062 0.1381007 0.1468261 0.1557969 0.1643516 0.1719775 0.17857
 0.1843365 0.1895641 0.1944539 0.1990951 0.2035223 0.2077206 0.2115402 0.2146609 0.2167416 0.2176756
 0.2177167 0.217343 0.2169794 0.2168294 0.216917 0.2172104 0.217681 0.2183034 0.2190549 0.219915
 0.220852 0.2218211 0.2227814 0.2237058 0.2245804 0.2254003 0.226163 0.2268618 0.227493 0.2280634
 0.2285841 0.2290614 0.2295004 0.2299071 0.230286 0.2306432 0.2309892 0.2313294 0.2316558 0.2319544
 0.2322187 0.2324546 0.2326782 0.2329049 0.2331372 0.2333659 0.233586 0.2338031 0.2340226 0.2342444
 0.2344658 0.234683 0.2348887 0.235081 0.2352686 0.2354593 0.2356523 0.2358449 0.2360389 0.2362356
 0.2364332 0.236632 0.2368332 0.2370339 0.237232 0.237433 0.2376448 0.2378654 0.2380818 0.2382818
 0.2384692 0.2386649 0.2388842 0.2391178 0.239344 0.2395562 0.2397656 0.2399815 0.2402036 0.2404268
 0.2406396 0.2408247 0.2409762 0.2411144 0.2412776 0.2414937 0.2417536 0.2420156 0.2422424 0.2424337
 0.2426164 0.2428103 0.2430105 0.2431964 0.2433601 0.2435292 0.2437469 0.2440194 0.2443086 0.2445827
 0.2448424 0.2450915 0.2453254 0.2455511 0.2457753 0.2459722 0.2461069 0.2461985 0.2463334 0.2465963
 0.246987 0.2474078 0.2477513 0.2479956 0.2481991 0.2484245 0.2486974 0.2489903 0.2491986 0.2492083
 0.2490685 0.2490291 0.2493137 0.2498938 0.2505475 0.2510898 0.2514878 0.2518004 0.2520759 0.2523015
 0.2524215 0.2524025 0.252311 0.2523229 0.2526038 0.2531412 0.2537417 0.2542266 0.2545694 0.2548236
 0.2550231 0.2551815 0.2552574 0.2550974 0.2546041 0.2540293 0.2539005 0.2545097 0.2555808 0.2565613
 0.2571668 0.2575154 0.257808 0.2580808 0.2582809 0.2583137 0.2579088 0.2567745 0.2551741 0.2540865
 0.2543955 0.2559987 0.2579756 0.2595049 0.2603788 0.260801 0.2610347 0.2612262 0.2612947 0.2609366
 0.2599682 0.2587786 0.2582317 0.2588672 0.2602899 0.2615908 0.2622743 0.26252 0.2626931 0.2629342
 0.2630715 0.2625844 0.2608984 0.2582378 0.256057 0.2560204 0.2583731 0.2616404 0.2640872 0.2652106
 0.2655998 0.265655 0.2649983 0.2631546 0.2602676 0.2570359 0.2544915 0.253853 0.2557161 0.2590531
 0.2617989 0.262886 0.2631434 0.2639343 0.2655344 0.2671381 0.2679055 0.2676114 0.266507 0.2648659
 0.2628531 0.2609417 0.2601641 0.2613848 0.2642526 0.2673238 0.2693919 0.2704017 0.2708254 0.2702539
 0.2671097 0.2605413 0.2527991 0.2486164 0.2510343 0.2582241 0.2654545 0.2697437 0.2714914 0.272262
 0.2726786 0.2722563 0.2696902 0.2635686 0.2546135 0.2470948 0.2459429 0.2518669 0.2605475 0.2666645
 0.2675162 0.2633053 0.2561885 0.2496322 0.2469899 0.2494691 0.2556117 0.2627363 0.2685424 0.2717347
 0.2720113 0.2699488 0.2669567 0.2649248 0.2648531 0.2653697 0.263777 0.2594602 0.2549182 0.252101
 0.2493971 0.2446139 0.2397836 0.2398086 0.2460802 0.2541409 0.2586906 0.2589523 0.2577126 0.2562701
 0.2522412 0.2430052 0.2306581 0.222111 0.2230336 0.2319558 0.2415668 0.2458484 0.2448339 0.2424867
 0.2414038 0.2402175 0.2356341 0.2268168 0.2175805 0.2132359 0.2150168 0.2190215 0.2208625 0.2191653
 0.2140548 0.2057705 0.1971976 0.1947733 0.203008 0.2189074 0.234294 0.2425196 0.2408911 0.2292142
 0.2107285 0.1940332 0.188906 0.1975605 0.2119581 0.2212026 0.2202 0.2105691 0.1959577 0.1795381
 0.1654594 0.1593167 0.1647902 0.1798885 0.1970373 0.2068743 0.203426 0.1887341 0.173198 0.1681032
 0.1753926 0.1863511 0.1913655 0.1886315 0.182804 0.1789691 0.1796903 0.184586 0.190757 0.1954952
 0.1984491 0.1986328 0.1915217 0.1745182 0.1542605 0.1422608 0.142937 0.1513538 0.1624513 0.1755714
 0.1884434 0.1940793 0.1886536 0.1787486 0.175745 0.1837338 0.1960076 0.2032547 0.2027683 0.1989284
 0.1964289 0.1952776 0.1931435 0.1907709 0.1921766 0.1991067 0.2079897 0.2139275 0.215798 0.2158101
 0.2157539 0.2156509 0.2150338 0.2137534 0.2118833 0.2098363 0.2082443 0.2072392 0.20633 0.2051442
 0.2033981 0.199802 0.1923677 0.1812592 0.1705655 0.1650869 0.1652852 0.1676096 0.1697501 0.1719759
 0.1722413 0.164815 0.1478342 0.1294944 0.1220927 0.1301644 0.1471131 0.1627093 0.1708785 0.1702211
 0.1610283 0.145623 0.1309464 0.1263565 0.1359865 0.15479 0.1739531 0.1884574 0.1976031 0.2008394
 0.1969824 0.1873427 0.1769158 0.1715401 0.1743834 0.1845434 0.1972964 0.205261 0.2020221 0.1885536
 0.1760903 0.1778119 0.1949515 0.2146669 0.2244729 0.2248914 0.2242961 0.2259034 0.2262171 0.2242306
 0.2250656 0.232934 0.244918 0.2538458 0.2545964 0.2461074 0.2306407 0.2142266 0.2051063 0.2071594
 0.2155305 0.2219481 0.2227584 0.2184196 0.208577 0.194085 0.1821935 0.1821881 0.1946015 0.2099684
 0.219574 0.2233815 0.2261087 0.2290883 0.2286661 0.2217651 0.2110369 0.2032229 0.2024892 0.2067883
 0.2113265 0.2136145 0.2135126 0.2103865 0.2035022 0.1952203 0.1910211 0.1947742 0.2047558 0.2152586
 0.2216823 0.223412 0.2225097 0.2210184 0.2195604 0.2174811 0.2142461 0.2112726 0.211652 0.2168217
 0.2242265 0.2299121 0.2330305 0.2361194 0.2410893 0.2465668 0.2495652 0.2487659 0.2458 0.2438482
 0.2450979 0.2489998 0.2526616 0.2533038 0.2508978 0.2484383 0.2491874 0.2535711 0.2591345 0.2633302
 0.2655957 0.2668187 0.2678365 0.2687182 0.2687247 0.2668715 0.2633379 0.2603052 0.260415 0.2641352
 0.2693 0.2733352 0.2753257 0.2758673 0.2756713 0.2748283 0.2732192 0.2711761 0.2694834 0.2687648
 0.2690381 0.2698893 0.2708932 0.2717931 0.2724754 0.2729475 0.273288 0.273549 0.2737414 0.2739019
 0.2740708 0.2741994 0.274194 0.2740886 0.2740714 0.2742726 0.274594 0.2748159 0.2748029 0.2745152
 0.2738835 0.2728256 0.2713924 0.2697656 0.2680568 0.2662266 0.2643191 0.2627394 0.2621452 0.2629518
 0.2649413 0.2673937 0.2695853 0.2711526 0.272085 0.2725336 0.2726821 0.2726944 0.2726724 0.2726344
 0.2725483 0.2723902 0.2721688 0.2719084 0.2716341 0.2713782 0.271181 0.2710591 0.2709748 0.2708508
 0.2706215 0.2702714 0.2698323 0.26935 0.268847 0.2683021 0.2676604 0.2668671 0.2659059 0.2648221
 0.2637084 0.2626542 0.2616862 0.2607554 0.2597893 0.2587475 0.2576076 0.2563211 0.2548501 0.2532647
 0.2517421 0.2504222 0.2492956 0.2482495 0.2471786 0.246028 0.244784 0.2434677 0.2421237 0.24079
 0.2394786 0.238178 0.2368606 0.2354929 0.2340545 0.2325412 0.2309515 0.229282 0.2275377 0.2257343
 0.2238706 0.2218966 0.2197101 0.217189 0.214219 0.2107041 0.206589 0.2019116 0.1968301 0.1915809
 0.1864011 0.1814768 0.1769357 0.1728669 0.1693428 0.1664226 0.1641447 0.1625307 0.1615984 0.1613617
 0.1618193 0.1629476 0.1646878 0.1669299 0.1695186 0.1722805 0.1750431 0.1776524 0.1800187 0.1821573
 0.1841649 0.1861297 0.1880574 0.1898833 0.1915453 0.1930285 0.1943385 0.1954656 0.1963993 0.197156
 0.1977685 0.19826 0.198647 0.1989521 0.1992023 0.1994227 0.1996336 0.1998481 0.2000759 0.2003321
 0.2006316 0.2009756 0.201362 0.2018067 0.2023396 0.202977 0.2037077 0.2045054 0.2053529 0.2062557
 0.2072331 0.2083015 0.2094773 0.210786 0.2122514 0.2138749 0.2156358 0.2174995 0.2194085 0.2212738
 0.2229891 0.2244617 0.2256409 0.2265277 0.227159 0.2275802 0.2278323 0.2279489 0.2279454 0.2278214
 0.227584 0.2272589 0.2268713 0.2264289 0.2259228 0.2253371 0.2246674 0.2239424 0.223216 0.2225257
 0.221871 0.221234 0.2206056 0.2199892 0.2193907 0.2188054 0.2182155 0.217609 0.2169947 0.216386
 0.2157789 0.2151518 0.2144742 0.2137094 0.2128271 0.2118214 0.2107065 0.2094969 0.2081993 0.2068158
 0.2053452 0.2037905 0.2021633 0.2004742 0.1987226 0.1969024 0.1950029 0.193006 0.1909081 0.1887568
 0.1866471 0.1846685 0.1828539 0.1811702 0.1795547 0.1779736 0.1764466 0.1750063 0.1736503 0.1723522
 0.171103 0.1699184 0.1688154 0.1677979 0.16686 0.1659945 0.1652017 0.1644892 0.1638595 0.1633049
 0.162815 0.1623865 0.1620318 0.1617803 0.1616547 0.1616323 0.1616421 0.1616073 0.1614874 0.1612896
 0.1610572 0.1608401 0.1606597 0.1605033 0.1603501 0.1601796 0.1599499 0.1595822 0.1589742 0.1580364
 0.1567337 0.1551067 0.1532507 0.1512874 0.1493554 0.1475899 0.1460804 0.1448543 0.1438989 0.143171
 0.1425958 0.1421037 0.1416866 0.1414022 0.1413171 0.1414321 0.1416388 0.1417732 0.1417551 0.1416734
 0.1417118 0.142001 0.1425402 0.1432184 0.1438909 0.1444591 0.1448937 0.1451943 0.1453627 0.145418
 0.1453921 0.1453006 0.1451433 0.1449216 0.1446321 0.1442632 0.1438151 0.1432987 0.1427165 0.1420667
 0.1413487 0.14055 0.1396576 0.1386733 0.137582 0.1363509 0.1350333 0.133835 0.1330113 0.1327139
 0.132936 0.1335367 0.1343251 0.1351775 0.1360231 0.1366836 0.136912 0.1367701 0.1368397 0.137804
 0.1397759 0.1421651 0.144217 0.1455575 0.1462031 0.1462566 0.1457729 0.1448039 0.1433732 0.1414466
 0.139041 0.1362845 0.133314 0.1302499 0.1272855 0.1246389 0.1224183 0.1206269 0.1192312 0.1182533
 0.1178243 0.1175876 0.1157054 0.1098327 0.1007466 0.09395492 0.09506594 0.1034777 0.1127939 0.1175786
 0.1176876 0.1160257 0.1146025 0.1137294 0.1133007 0.1134346 0.1142335 0.1155467 0.1169877 0.1181604
 0.1189138 0.1192998 0.1192771 0.1184938 0.1162454 0.1117069 0.1045915 0.09574515 0.08685872 0.07947245
 0.07428939 0.07120366 0.06962735 0.06883249 0.06831902 0.06804504 0.06830308 0.06936514 0.07125215 0.07380401
 0.07684726 0.08016571 0.08337861 0.08608149 0.08815865 0.08978719 0.09110832 0.09205781 0.09252645 0.0925242
 0.09216014 0.09156857 0.09087031 0.09012815 0.0893033 0.08829241 0.08708087 0.08587696 0.08500255 0.08459771
 0.08451836 0.08455271 0.08460982 0.08466849 0.08469321 0.08465935 0.08458039 0.08451279 0.08457411 0.0848777
 0.08539163 0.08593261 0.08632866 0.08653985 0.08663015 0.08663975 0.08646422 0.08594359 0.08516452 0.08449811
 0.0841229 0.08369067 0.08276498 0.08147728 0.08045082 0.0801196 0.08034849 0.08068836 0.08080241 0.0806383
 0.08038011 0.08033422 0.08072682 0.08143951</values></Ydata></ScSm><ScRf><Ydata ylabel="Single channel"><values byteorder="INTEL" format="FLOAT32" numvalues="1820"> 0.0607822 0.06094176 0.06104548 0.06109298 0.06110096 0.06110851 0.06116649 0.06130251 0.0614943 0.0616811
 0.06180856 0.06186675 0.06187745 0.06185274 0.06179649 0.06174835 0.06178184 0.06193205 0.06214316 0.06230378
 0.06233662 0.06226882 0.06221892 0.06228171 0.06240137 0.06238525 0.06208476 0.06156595 0.06106859 0.06078476
 0.06073516 0.06090417 0.06136279 0.06205919 0.06257278 0.06241063 0.0616269 0.06085617 0.06060882 0.06078104
 0.06095139 0.06087302 0.06054813 0.06012607 0.05994884 0.06046645 0.06179492 0.06334038 0.06400617 0.06288643
 0.05991799 0.05608828 0.05306662 0.05230522 0.05401709 0.05688896 0.05906766 0.05963811 0.05906101 0.05823144
 0.05751137 0.05684682 0.05640176 0.056602 0.0575512 0.05862501 0.05879265 0.0575059 0.05535298 0.05363755
 0.05318449 0.05382335 0.05509017 0.05673217 0.0579977 0.05723264 0.0535084 0.04868178 0.04656811 0.04931583
 0.05511387 0.05996042 0.0612212 0.05911068 0.05553646 0.05251545 0.05140445 0.05253483 0.05516469 0.05809714
 0.0604026 0.06145288 0.06075757 0.05839332 0.05542527 0.05339221 0.05336204 0.05551035 0.05907916 0.06244728
 0.0638704 0.06276923 0.06011299 0.05739737 0.0556621 0.05549385 0.05717179 0.06037627 0.06417155 0.06754775
 0.06983047 0.07074665 0.07048526 0.06958358 0.06852091 0.06762671 0.06735361 0.06800383 0.06899782 0.06909346
 0.06773382 0.06579112 0.06467002 0.06485567 0.06552677 0.06555554 0.06465223 0.06318184 0.06104324 0.05764234
 0.05325287 0.0493868 0.04728146 0.046954 0.04810138 0.050582 0.05335034 0.05439418 0.05293491 0.05083437
 0.05074779 0.05329312 0.05673264 0.05909991 0.06002308 0.06058946 0.06194438 0.06411734 0.06587279 0.06563888
 0.06306511 0.05990097 0.05875981 0.06055378 0.06361811 0.06576163 0.06657839 0.06720536 0.06833299 0.06913437
 0.06812994 0.0649505 0.06127752 0.05979677 0.06185248 0.06609842 0.06947744 0.06947909 0.06582396 0.06052503
 0.05632564 0.05480551 0.05596057 0.05924726 0.06418413 0.06979522 0.07435973 0.07637197 0.07563182 0.0731724
 0.07007856 0.06647804 0.0620964 0.05792496 0.0564361 0.05925018 0.06506382 0.07073365 0.07408141 0.07498384
 0.07415259 0.07179017 0.06779418 0.06306507 0.059935 0.06035497 0.06354301 0.06642604 0.06685543 0.06556731
 0.06460503 0.06477306 0.06533158 0.06556518 0.06580794 0.06687709 0.06890607 0.07102998 0.07221994 0.07221612
 0.07158259 0.07105114 0.07085095 0.07053414 0.06960887 0.06852419 0.06861551 0.07063983 0.07373184 0.07629074
 0.07758568 0.07802624 0.07808976 0.0774895 0.07558934 0.07259285 0.07003849 0.06965777 0.07169715 0.07475831
 0.07725364 0.07855438 0.07884702 0.07855204 0.07803369 0.07748644 0.07700616 0.07684797 0.07735617 0.07847327
 0.07963023 0.08031675 0.08050042 0.08036903 0.07996453 0.07926123 0.07843128 0.07784459 0.07780099 0.07830962
 0.07913699 0.0800128 0.08071898 0.08105543 0.08091889 0.08045216 0.07995728 0.07961972 0.07944329 0.07944114
 0.0797011 0.08021188 0.08077677 0.08118088 0.08136603 0.08139867 0.08134066 0.08120479 0.08100291 0.08080077
 0.080717 0.08083759 0.08111214 0.08138902 0.08159461 0.08180745 0.08209093 0.08233506 0.0823699 0.08219178
 0.08197793 0.08189321 0.08195672 0.08208632 0.08219229 0.08219437 0.08201119 0.08163095 0.0812085 0.08100675
 0.08118678 0.08169458 0.08235757 0.08300818 0.08350745 0.08377191 0.08383562 0.08381154 0.08375712 0.08363383
 0.0834134 0.08317587 0.08308318 0.08325802 0.083675 0.08417249 0.08458109 0.08482678 0.08492765 0.08496173
 0.0850403 0.08522072 0.08542027 0.08549449 0.08542256 0.08534384 0.08538786 0.0855244 0.08561175 0.08556686
 0.08546141 0.08544548 0.08558911 0.08582243 0.08603182 0.08618402 0.08633806 0.08654751 0.08676498 0.08686162
 0.08676358 0.08655179 0.08638053 0.08631286 0.08630122 0.08631997 0.08642456 0.08664538 0.08689445 0.08703981
 0.0870511 0.08702374 0.08705536 0.0871318 0.08715396 0.08705729 0.08687821 0.08671245 0.08663587 0.08666356
 0.08675419 0.08683751 0.08685392 0.08678868 0.08667391 0.08655475 0.08645733 0.0863982 0.08641602 0.08655809
 0.08680785 0.08704219 0.08710375 0.08693966 0.08666036 0.08644392 0.08637542 0.08638255 0.08632675 0.0861427
 0.08588201 0.08564002 0.08546756 0.08535199 0.08525564 0.08516002 0.08508864 0.08509642 0.08521449 0.08538458
 0.08547024 0.08537012 0.08511795 0.08484684 0.08466674 0.08459887 0.08460121 0.08461688 0.08461557 0.08462152
 0.08467899 0.0847699 0.08480754 0.08474094 0.08462472 0.08456199 0.08461721 0.08479063 0.08501925 0.08518989
 0.08521348 0.08511381 0.08500598 0.08497681 0.08502068 0.08509111 0.08516751 0.0852541 0.08534941 0.08544721
 0.08555952 0.08571709 0.08593982 0.08620805 0.08646429 0.08664989 0.08675393 0.0868337 0.08697703 0.08723106
 0.0875636 0.08789331 0.08815692 0.08835237 0.08852301 0.08870374 0.08889157 0.08907773 0.08928828 0.08956136
 0.08989049 0.0902247 0.0905271 0.09080534 0.09108296 0.09136841 0.09166049 0.09197066 0.09232919 0.0927572
 0.0932202 0.09362292 0.09388047 0.09400159 0.09408981 0.09426561 0.09458377 0.09499301 0.09536017 0.0955732
 0.09565341 0.09573965 0.09593512 0.09620332 0.09645019 0.09667186 0.09696078 0.09737126 0.09783205 0.09821254
 0.09845136 0.09860243 0.09876286 0.0989681 0.09916388 0.09928384 0.09933996 0.09941054 0.09954519 0.09972647
 0.0999392 0.1002237 0.1006153 0.1010643 0.1014648 0.101751 0.1019337 0.1020581 0.1021608 0.1022529
 0.1023211 0.1023549 0.1023819 0.1024491 0.102555 0.10264 0.1026676 0.1026799 0.1027479 0.102898
 0.1031166 0.1033914 0.1037053 0.1040129 0.1042785 0.1045361 0.1048566 0.1052346 0.1055588 0.1057308
 0.1057744 0.1057846 0.105808 0.1058361 0.1058902 0.1060347 0.1062972 0.1066305 0.1069731 0.1073103
 0.1076585 0.108017 0.1083466 0.1085878 0.1087001 0.1086974 0.1086499 0.1086491 0.1087629 0.1090045
 0.1093279 0.1096576 0.1099344 0.1101316 0.1102312 0.110222 0.1101454 0.1101108 0.11021 0.1104112
 0.1105701 0.1105532 0.110327 0.1099304 0.109404 0.108775 0.1080915 0.1074358 0.1068906 0.1064995
 0.106272 0.1062269 0.1064124 0.1068576 0.1075064 0.1082273 0.1088938 0.1094254 0.1097472 0.1097684
 0.1094461 0.1088465 0.1081095 0.1073629 0.1066777 0.1060665 0.1054923 0.1049155 0.1043776 0.1040327
 0.1040743 0.1046223 0.1056664 0.1070735 0.1086284 0.110102 0.1113412 0.1123239 0.1131293 0.1138478
 0.1145237 0.1151747 0.1158268 0.1164935 0.1171377 0.1177012 0.1181721 0.1185922 0.1189993 0.1193916
 0.119743 0.1200303 0.1202536 0.1204479 0.1206509 0.1208441 0.1209547 0.1209391 0.1208352 0.1207105
 0.1205838 0.1204164 0.1201569 0.1197835 0.1193346 0.11893 0.118754 0.1189782 0.1196639 0.1207237
 0.1219857 0.1233003 0.1245786 0.1257442 0.1267022 0.1273921 0.1278455 0.1281604 0.1284259 0.128688
 0.1289636 0.1292565 0.1295604 0.1298649 0.1301652 0.1304669 0.130783 0.1311188 0.1314543 0.1317508
 0.1319907 0.1322067 0.1324639 0.1328034 0.1332031 0.1335974 0.1339443 0.1342621 0.1345855 0.1349002
 0.1351544 0.1353334 0.1354883 0.1356875 0.1359659 0.1363168 0.1366966 0.137035 0.1372791 0.1374401
 0.1375811 0.1377561 0.1379748 0.1382212 0.1384816 0.1387486 0.1390152 0.1392825 0.1395658 0.1398742
 0.1401802 0.1404292 0.1405954 0.1407185 0.1408662 0.1410683 0.1412983 0.1415149 0.1417106 0.1419207
 0.142187 0.1425097 0.142834 0.1430929 0.1432636 0.1433806 0.1434964 0.1436417 0.1438196 0.1440214
 0.144238 0.1444593 0.1446771 0.1448921 0.1451117 0.1453374 0.1455608 0.1457734 0.1459744 0.146169
 0.1463636 0.1465646 0.1467798 0.1470207 0.1472966 0.1475976 0.1478853 0.1481166 0.1482784 0.1483926
 0.1484928 0.1486056 0.1487488 0.1489305 0.1491442 0.1493724 0.1495974 0.1498102 0.1500119 0.1502107
 0.1504166 0.1506352 0.1508624 0.1510862 0.1513009 0.1515165 0.1517445 0.1519772 0.1521928 0.1523813
 0.1525545 0.152731 0.1529216 0.153126 0.153333 0.1535279 0.1537074 0.1538838 0.1540706 0.1542693
 0.1544727 0.1546753 0.1548749 0.1550703 0.1552619 0.1554529 0.1556469 0.155844 0.1560408 0.1562347
 0.1564251 0.1566112 0.1567937 0.1569772 0.157167 0.1573627 0.1575613 0.1577648 0.1579771 0.1581948
 0.1584082 0.1586118 0.1588075 0.1590004 0.1591937 0.1593878 0.159582 0.1597777 0.159978 0.1601818
 0.160384 0.1605796 0.1607678 0.1609546 0.1611533 0.1613751 0.1616154 0.1618557 0.1620805 0.1622882
 0.162488 0.162692 0.1629065 0.1631287 0.1633531 0.1635798 0.1638086 0.1640326 0.1642443 0.1644422
 0.1646269 0.164797 0.1649545 0.1651057 0.1652573 0.1654146 0.1655831 0.1657643 0.1659558 0.1661536
 0.1663538 0.1665544 0.1667587 0.1669701 0.1671838 0.1673907 0.1675894 0.167785 0.1679811 0.1681795
 0.1683816 0.1685837 0.1687823 0.1689823 0.1691912 0.1694088 0.1696306 0.1698546 0.1700792 0.1703008
 0.1705181 0.1707309 0.1709383 0.171143 0.17135 0.1715585 0.1717644 0.1719679 0.1721724 0.17238
 0.1725929 0.1728096 0.1730216 0.1732253 0.1734298 0.1736418 0.1738548 0.1740609 0.1742612 0.1744608
 0.1746664 0.174882 0.175099 0.1753033 0.1754982 0.1757019 0.1759224 0.1761531 0.1763867 0.1766152
 0.1768318 0.1770414 0.1772514 0.1774457 0.1775714 0.1775076 0.1769743 0.1754221 0.1720095 0.1657709
 0.156014 0.1427668 0.1269154 0.1098805 0.09309527 0.07764244 0.0641569 0.05291144 0.04395627 0.03721246
 0.03253259 0.02979174 0.02897885 0.03029751 0.03428719 0.04150907 0.05132121 0.06078333 0.06579627 0.0643418
 0.05841427 0.05219902 0.0485877 0.04777945 0.04853545 0.0498023 0.05124686 0.05305995 0.05557259 0.05888401
 0.0628436 0.06745294 0.07305935 0.0799139 0.08764552 0.09541651 0.1026437 0.1094611 0.1164318 0.123873
 0.1315208 0.138792 0.1452548 0.1508428 0.1557488 0.1602155 0.1644013 0.1683715 0.1721551 0.1757472
 0.1790254 0.18171 0.1834976 0.1842932 0.1843235 0.184011 0.1837249 0.1836329 0.1837445 0.1840249
 0.1844492 0.1849997 0.1856595 0.1864084 0.1872172 0.1880552 0.1889001 0.1897294 0.190514 0.1912332
 0.191886 0.1924834 0.1930385 0.1935617 0.1940527 0.194503 0.1949109 0.1952876 0.1956443 0.1959873
 0.1963207 0.1966437 0.1969471 0.1972244 0.1974778 0.1977112 0.1979276 0.1981338 0.1983367 0.198536
 0.1987294 0.1989224 0.1991244 0.1993396 0.1995656 0.1997962 0.2000219 0.2002346 0.2004334 0.2006238
 0.2008125 0.2010041 0.2011988 0.2013927 0.2015819 0.2017661 0.2019474 0.2021291 0.2023152 0.2025078
 0.2027072 0.2029139 0.2031256 0.2033309 0.203521 0.2037052 0.2039026 0.2041182 0.2043419 0.2045679
 0.2047972 0.2050259 0.2052459 0.2054542 0.2056486 0.2058201 0.2059633 0.206094 0.2062465 0.2064464
 0.2066851 0.206929 0.2071551 0.2073671 0.207575 0.2077761 0.2079621 0.2081308 0.2082902 0.208464
 0.2086811 0.2089416 0.2092102 0.2094579 0.2096879 0.2099122 0.2101345 0.2103629 0.2106018 0.2108248
 0.2109931 0.2111142 0.2112608 0.2115113 0.2118708 0.212259 0.2125863 0.2128335 0.2130452 0.2132695
 0.2135279 0.2138005 0.2140001 0.2140292 0.2139302 0.2139183 0.2141844 0.214704 0.2152909 0.2157912
 0.2161734 0.2164772 0.2167383 0.2169531 0.2170833 0.2171 0.2170521 0.2170877 0.2173562 0.217855
 0.2184157 0.2188734 0.2191959 0.2194311 0.2196185 0.2197814 0.2198867 0.2197928 0.2194005 0.2189196
 0.2188127 0.2193455 0.220288 0.2211651 0.2217266 0.2220684 0.2223616 0.2226427 0.22287 0.2229563
 0.2226552 0.2217039 0.2203307 0.2193959 0.2196818 0.2211061 0.2228642 0.2242362 0.22504 0.2254528
 0.2257012 0.2259108 0.2260111 0.2257394 0.2249365 0.223938 0.2234897 0.2240592 0.2253124 0.2264749
 0.2271232 0.2274051 0.2276226 0.2278926 0.2280713 0.2277076 0.2262917 0.2240096 0.2221343 0.222132
 0.2242272 0.2271341 0.2293329 0.230376 0.2307705 0.2308637 0.2303293 0.2287581 0.2262785 0.2234985
 0.2213173 0.220805 0.2224917 0.225479 0.2279506 0.2289643 0.2292459 0.2299917 0.2314436 0.2328959
 0.2336134 0.2334012 0.2324851 0.2311083 0.2294124 0.2278063 0.227192 0.2283257 0.2308967 0.2336385
 0.2354977 0.2364333 0.2368644 0.2364323 0.2337471 0.2280547 0.2213255 0.2177129 0.2198872 0.2262473
 0.2326459 0.2364718 0.2380842 0.2388631 0.2393493 0.2390928 0.2369202 0.2315806 0.2237239 0.2171349
 0.2161726 0.2214624 0.2291915 0.2346669 0.2355022 0.2318661 0.2256541 0.2199292 0.2176647 0.219941
 0.2254777 0.2318988 0.2371576 0.2401036 0.240471 0.2387628 0.2362176 0.2345167 0.2345645 0.2351523
 0.2338755 0.2301697 0.2262424 0.2238318 0.221527 0.2173962 0.21325 0.2134469 0.2192216 0.2265994
 0.2308565 0.2313078 0.23044 0.2293952 0.2260199 0.2179611 0.2071111 0.1996982 0.2008414 0.2092361
 0.2183189 0.2226987 0.222443 0.2211515 0.221156 0.2211413 0.2179915 0.2108522 0.2032146 0.1999908
 0.2022898 0.2064265 0.208294 0.2066438 0.2016467 0.1935755 0.1851762 0.1825328 0.1899413 0.2046576
 0.2190393 0.2268335 0.2254696 0.2147115 0.1975692 0.1821446 0.177685 0.186298 0.2003894 0.2096454
 0.2092167 0.2005909 0.1871936 0.1720462 0.1591588 0.1539739 0.1601214 0.1757301 0.1934242 0.2039678
 0.2013794 0.1876168 0.1730288 0.1689124 0.1772042 0.1891119 0.194942 0.1928883 0.1876767 0.1845094
 0.1860677 0.1919812 0.1992123 0.2049257 0.2087577 0.2096085 0.2025961 0.1849267 0.1636741 0.1511154
 0.1519836 0.161056 0.1729667 0.1870184 0.200776 0.2067723 0.2009255 0.1902685 0.1869545 0.1953568
 0.2083282 0.2159402 0.2153085 0.2111203 0.2084108 0.2072087 0.2050306 0.2026666 0.2043976 0.2120805
 0.2219033 0.2286417 0.2310949 0.2316174 0.2321283 0.2326528 0.2326663 0.231973 0.2306368 0.2291122
 0.2280998 0.2277537 0.2275379 0.2270363 0.2259274 0.2227549 0.2152409 0.2034927 0.1920393 0.1862407
 0.1866033 0.1891583 0.1913666 0.1935902 0.193572 0.1848975 0.1654619 0.1444071 0.1354641 0.1436871
 0.1616985 0.1781071 0.1862307 0.1846614 0.1738703 0.1564309 0.1397354 0.1336613 0.1425124 0.1608971
 0.1794975 0.193091 0.2011196 0.2032368 0.1983481 0.1877903 0.1765786 0.1705269 0.1727217 0.1821828
 0.1941804 0.2014321 0.197674 0.1839023 0.1711081 0.1721513 0.1882641 0.2069838 0.2161596 0.2162499
 0.2153629 0.2166542 0.2167762 0.2147515 0.2155153 0.2231617 0.2349323 0.2439409 0.2452189 0.2376761
 0.2234631 0.2084676 0.2007761 0.2041536 0.2136989 0.2211192 0.2227224 0.2189359 0.2094302 0.1951575
 0.1835058 0.1838551 0.1967168 0.2125192 0.2224797 0.2266004 0.2296736 0.2330302 0.2329222 0.2261974
 0.2155611 0.2079126 0.2075306 0.2123393 0.2174451 0.2202977 0.2207255 0.2180226 0.2113922 0.2032734
 0.1993565 0.2036384 0.2142651 0.2252338 0.2317317 0.2331356 0.2316186 0.2293297 0.2269467 0.2238252
 0.2194258 0.2151965 0.2143115 0.2182878 0.2245887 0.2292354 0.2313683 0.2335478 0.2377197 0.2425283
 0.2449661 0.2436598 0.2401779 0.2376565 0.2382814 0.2415631 0.2447076 0.2449968 0.242366 0.2397062
 0.2402022 0.2442911 0.2495942 0.253627 0.2558269 0.2570425 0.2580786 0.2589896 0.2590312 0.257221
 0.2537255 0.2506688 0.2506239 0.2540612 0.2589051 0.2626864 0.2645427 0.2650735 0.2649704 0.2642917
 0.2628741 0.2609997 0.2594111 0.2587194 0.2589688 0.259792 0.2607977 0.2617289 0.2624384 0.2628931
 0.2631623 0.2633271 0.2634323 0.2635216 0.2636255 0.2636934 0.2636421 0.2635168 0.2635058 0.2637276
 0.2640714 0.2643134 0.2643237 0.2640718 0.2635019 0.2625454 0.2612563 0.2598028 0.2582792 0.2566389
 0.2549247 0.2535292 0.2530824 0.2539771 0.2559991 0.258455 0.2606491 0.2622346 0.2632056 0.2637089
 0.2639159 0.263976 0.2639808 0.2639425 0.2638268 0.2636098 0.2633002 0.2629226 0.2625047 0.2620841
 0.2617071 0.2614005 0.2611438 0.2608833 0.2605681 0.260173 0.2597007 0.2591787 0.2586406 0.2580865
 0.257468 0.2567289 0.2558588 0.2549072 0.2539554 0.2530729 0.2522767 0.2515234 0.2507525 0.2499307
 0.2490348 0.2480198 0.2468623 0.2456418 0.2445236 0.2436278 0.2429354 0.2423314 0.2417034 0.240985
 0.2401518 0.239217 0.2382177 0.2371778 0.2360912 0.2349442 0.2337353 0.2324619 0.2311136 0.2296839
 0.2281758 0.2265972 0.224968 0.2233192 0.2216547 0.2199082 0.2179502 0.2156365 0.2128489 0.2095093
 0.2055935 0.2011554 0.1963436 0.191376 0.1864734 0.1818023 0.1774767 0.1735913 0.1702363 0.1674845
 0.1653833 0.1639601 0.1632317 0.1632099 0.1638952 0.1652563 0.1672165 0.1696621 0.1724551 0.1754358
 0.1784287 0.181272 0.1838694 0.1862244 0.1884139 0.1905021 0.1924793 0.1942905 0.1959046 0.1973276
 0.1985669 0.199616 0.2004773 0.2011791 0.2017627 0.2022616 0.202692 0.2030598 0.2033703 0.2036316
 0.2038527 0.2040447 0.2042207 0.2043924 0.2045721 0.2047772 0.2050268 0.2053349 0.2057123 0.2061643
 0.2066781 0.2072253 0.2077855 0.2083627 0.2089728 0.2096305 0.2103553 0.2111806 0.2121444 0.2132666
 0.2145315 0.215892 0.2172832 0.2186273 0.2198379 0.2208386 0.2215884 0.2220876 0.2223647 0.2224596
 0.2224064 0.2222228 0.2219186 0.2215133 0.2210359 0.220509 0.2199426 0.2193407 0.2187051 0.2180344
 0.2173298 0.2166073 0.2158951 0.2152141 0.2145623 0.2139234 0.2132885 0.21266 0.2120409 0.2114319
 0.2108377 0.2102612 0.2096966 0.2091361 0.2085754 0.2079974 0.2073604 0.2066225 0.2057771 0.2048471
 0.2038451 0.2027533 0.2015482 0.2002367 0.1988546 0.1974288 0.195952 0.1943988 0.1927581 0.1910389
 0.1892437 0.1873568 0.185375 0.1833456 0.181355 0.1794764 0.1777367 0.1761254 0.1746173 0.1731908
 0.1718392 0.170565 0.1693614 0.1682096 0.1670979 0.1660305 0.165015 0.1640547 0.1631563 0.1623374
 0.1616197 0.16101 0.1604897 0.1600319 0.1596273 0.159285 0.1590181 0.1588447 0.1587822 0.1588152
 0.1588816 0.158912 0.158875 0.1587782 0.1586471 0.1585118 0.1583961 0.1583088 0.1582417 0.1581624
 0.1580061 0.1576885 0.1571302 0.1562715 0.1550836 0.1535832 0.1518362 0.1499557 0.1480949 0.1464064
 0.1449818 0.1438389 0.1429602 0.1423108 0.14183 0.1414528 0.1411536 0.1409619 0.140937 0.1410985
 0.1413569 0.141551 0.1416036 0.1416112 0.1417503 0.1421314 0.1427495 0.1435075 0.144269 0.144927
 0.1454405 0.1458067 0.1460389 0.1461712 0.1462349 0.1462259 0.1461266 0.1459425 0.1456947 0.1454022
 0.145072 0.1446792 0.1441802 0.1435677 0.1428756 0.1421237 0.1413111 0.1404395 0.1394769 0.1383581
 0.137118 0.1359787 0.1352344 0.1350705 0.1354805 0.1362881 0.1372713 0.1383105 0.1393454 0.1401846
 0.1405683 0.1405632 0.140747 0.1417878 0.143812 0.1462654 0.1484039 0.1498332 0.1505507 0.150651
 0.1501878 0.1492225 0.1477873 0.1458405 0.1433904 0.1405677 0.1375103 0.1343383 0.1312583 0.1285056
 0.1261991 0.1243607 0.1229721 0.1220361 0.1216507 0.1214421 0.1195279 0.113486 0.1041212 0.0971481
 0.09837306 0.1071501 0.1168431 0.1218354 0.1219924 0.1203201 0.118871 0.1179228 0.1173527 0.117331
 0.1180292 0.1193131 0.1207663 0.1219553 0.1227043 0.1230593 0.1229875 0.1221362 0.119783 0.1150902
 0.107772 0.09868066 0.0895291 0.08189876 0.07652063 0.0732891 0.07161498 0.07077008 0.07023082 0.0699256
 0.07015307 0.07122107 0.07317782 0.0758636 0.07907575 0.08255173 0.08588448 0.08868108 0.09084672 0.09256889
 0.0939974 0.09506568 0.09563689 0.09569535 0.09535134 0.09474546 0.09399828 0.09318978 0.09231055 0.09126425
 0.09002393 0.08879407 0.08789881 0.08747335 0.08736528 0.08735059 0.08732699 0.08728936 0.0872476 0.08720724
 0.08717316 0.0871756 0.0873018 0.08763298 0.08812549 0.08861358 0.08894429 0.08908576 0.08911529 0.08908552
 0.08888158 0.08831996 0.0874752 0.08672136 0.08625253 0.08574486 0.08477499 0.08346412 0.08241987 0.08206838
 0.08226761 0.08256675 0.08263971 0.08244183 0.08215332 0.08208288 0.08246565 0.0831774 0.0837328 0.08373353
</values></Ydata></ScRf><Data_Parameters_AB><parameter name="DPF">1</parameter><parameter name="NPT">3497</parameter><parameter name="FXV">3996</parameter><parameter name="LXV">500</parameter><parameter name="CSF">1</parameter><parameter name="MXY">0.0526773817837238</parameter><parameter name="MNY">-0.0925687700510025</parameter><parameter name="DAT">31/05/2022</parameter><parameter name="TIM">14:35:07.043 (GMT+2)</parameter><parameter name="DXU">WN</parameter></Data_Parameters_AB><AB__Qtest><MainReport name="Quality Test Report"><Header><Line><Legend>Test result ok/not ok [1/0]: </Legend><Value>0</Value></Line><Line><Legend>Method file: </Legend><Value>C:\Users\Public\Documents\Bruker\OPUS_8.2.28\QT\IRBT_v3_default.QT</Value></Line></Header><Matrix><Line><Legend></Legend><Legend>min</Legend><Legend>max</Legend><Legend>measured</Legend></Line><Line><Value>Absorption (X-Range 1):</Value><Value>0.400000</Value><Value>2.000000</Value><Value>0.101949</Value></Line><Line><Value>Noise (X-Range 4):</Value><Value></Value><Value>0.000300</Value><Value>0.000044</Value></Line><Line><Value>Signal/Noise (X-Range 2):</Value><Value>200.000000</Value><Value></Value><Value>30.155590</Value></Line><Line><Value>Signal/Noise (X-Range 3):</Value><Value>40.000000</Value><Value></Value><Value>20.893739</Value></Line><Line><Value>Water vapour (X-Range 5):</Value><Value></Value><Value>0.000300</Value><Value>0.000060</Value></Line><Line><Value>Signal/Water (X-Range 2):</Value><Value>100.000000</Value><Value></Value><Value>21.799959</Value></Line><Line><Value>Signal/Water (X-Range 3):</Value><Value>20.000000</Value><Value></Value><Value>15.104419</Value></Line><Line><Value>Fringes (X-Range 6):</Value><Value></Value><Value>0.000100</Value><Value>0.000056</Value></Line></Matrix></MainReport></AB__Qtest><Data_Parameters_ScSm><parameter name="DPF">1</parameter><parameter name="NPT">1814</parameter><parameter name="FXV">3996.33169228125</parameter><parameter name="LXV">499.541461535156</parameter><parameter name="CSF">1</parameter><parameter name="MXY">0.275867342948914</parameter><parameter name="MNY">0.0350317060947418</parameter><parameter name="DAT">31/05/2022</parameter><parameter name="TIM">14:35:07.043 (GMT+2)</parameter><parameter name="DXU">WN</parameter></Data_Parameters_ScSm><Data_Parameters_ScRf><parameter name="DPF">1</parameter><parameter name="NPT">1820</parameter><parameter name="FXV">4004.04661832813</parameter><parameter name="LXV">495.683998511719</parameter><parameter name="CSF">1</parameter><parameter name="MXY">0.265073537826538</parameter><parameter name="MNY">0.0289788488298655</parameter><parameter name="DAT">31/05/2022</parameter><parameter name="TIM">14:34:40.319 (GMT+2)</parameter><parameter name="DXU">WN</parameter></Data_Parameters_ScRf><Optic_Parameters_Rf><parameter name="APR">0</parameter><parameter name="APT">Open</parameter><parameter name="BMS">KBr</parameter><parameter name="DTC">RT-DLaTGS_IR-Biotyper [Microplate reader]</parameter><parameter name="HPF">0</parameter><parameter name="LPF">10.0</parameter><parameter name="LPV">4000</parameter><parameter name="PGR">0</parameter><parameter name="RCH">Module port</parameter><parameter name="RDX">0</parameter><parameter name="SRC">MIR</parameter><parameter name="VEL">10.0</parameter><parameter name="SON">Off</parameter></Optic_Parameters_Rf><Acquisition_Parameters_Rf><parameter name="ADT">1</parameter><parameter name="AQM">DD</parameter><parameter name="CFE">0</parameter><parameter name="COR">0</parameter><parameter name="DEL">0</parameter><parameter name="DLY">0</parameter><parameter name="HFW">8000</parameter><parameter name="LFW">0</parameter><parameter name="NSR">32</parameter><parameter name="PLF">AB</parameter><parameter name="RES">6</parameter><parameter name="RGN">-1</parameter><parameter name="STR">0</parameter><parameter name="TCL">MakeCompatibleScalar (0, {WSV=1.000000, ARV=0});</parameter><parameter name="TDL">37</parameter><parameter name="RPO">0</parameter></Acquisition_Parameters_Rf><FT_-_Parameters_Rf><parameter name="APF">B3</parameter><parameter name="HFQ">500</parameter><parameter name="LFQ">4000</parameter><parameter name="NLI">0</parameter><parameter name="PHR">24</parameter><parameter name="PHZ">ML</parameter><parameter name="SPZ">NO</parameter><parameter name="ZFF">1</parameter></FT_-_Parameters_Rf><Optic_Parameters_><parameter name="APR">0</parameter><parameter name="APT">Open</parameter><parameter name="BMS">KBr</parameter><parameter name="CHN">Module port</parameter><parameter name="DTC">RT-DLaTGS_IR-Biotyper [Microplate reader]</parameter><parameter name="HPF">0</parameter><parameter name="LPF">10.0</parameter><parameter name="LPV">4000</parameter><parameter name="PGN">0</parameter><parameter name="RDX">0</parameter><parameter name="SRC">MIR</parameter><parameter name="VEL">10.0</parameter><parameter name="SON">Off</parameter></Optic_Parameters_><FT_-_Parameters_><parameter name="APF">B3</parameter><parameter name="HFQ">500</parameter><parameter name="LFQ">4000</parameter><parameter name="NLI">0</parameter><parameter name="PHR">24</parameter><parameter name="PHZ">ML</parameter><parameter name="SPZ">NO</parameter><parameter name="ZFF">1</parameter></FT_-_Parameters_><Acquisition_Parameters_><parameter name="ADT">1</parameter><parameter name="AQM">DD</parameter><parameter name="CFE">0</parameter><parameter name="COR">0</parameter><parameter name="DEL">0</parameter><parameter name="DLY">0</parameter><parameter name="HFW">8000</parameter><parameter name="LFW">0</parameter><parameter name="NSS">32</parameter><parameter name="PLF">AB</parameter><parameter name="RES">6</parameter><parameter name="SOT">0</parameter><parameter name="TCL">MakeCompatibleScalar (0, {WSV=1.000000, ARV=0});</parameter><parameter name="TDL">37</parameter><parameter name="SPO">0</parameter><parameter name="SGN">-1</parameter></Acquisition_Parameters_><Instrument_Parameters_Rf><parameter name="HFL">15800.168544</parameter><parameter name="LFL">0</parameter><parameter name="LWN">15800.168544</parameter><parameter name="ABP">32197</parameter><parameter name="SSP">1</parameter><parameter name="ARG">2</parameter><parameter name="ASG">2</parameter><parameter name="ASS">32</parameter><parameter name="GFW">16</parameter><parameter name="GBW">16</parameter><parameter name="BFW">0</parameter><parameter name="BBW">0</parameter><parameter name="PKA">7262</parameter><parameter name="PKL">4996</parameter><parameter name="PRA">7450</parameter><parameter name="PRL">5001</parameter><parameter name="P2A">1</parameter><parameter name="P2L">1</parameter><parameter name="P2R">1</parameter><parameter name="P2K">1</parameter><parameter name="DAQ">0</parameter><parameter name="AG2">1</parameter><parameter name="SSM">1</parameter><parameter name="RSN">25813</parameter><parameter name="CRR">0</parameter><parameter name="SRT">1654007680.32</parameter><parameter name="DUR">19.6379852294922</parameter><parameter name="TSC">29.1</parameter><parameter name="MVD">0.203495562076569</parameter><parameter name="AN1">0.225802284268042</parameter><parameter name="AN2">0</parameter><parameter name="VSN">2.485 Apr  4 2017</parameter><parameter name="SRN">0085</parameter><parameter name="CAM">0</parameter><parameter name="INS">IR-Biotyper</parameter><parameter name="FOC">69</parameter><parameter name="RDY">1</parameter><parameter name="ARS">32</parameter></Instrument_Parameters_Rf><Sample_Parameters_><parameter name="BLD"></parameter><parameter name="CNM">Admin</parameter><parameter name="CPY"></parameter><parameter name="DPM"></parameter><parameter name="EXP">IRBT_v3_32Scans.XPM</parameter><parameter name="LCT"></parameter><parameter name="SFM">Microplate, HTS-XT</parameter><parameter name="SNM">220531-1301_RTF49M (D_1)_F11_f050fc74-bd74-4f04-8bb2-cf6e9eeef13e.0</parameter><parameter name="XPP">C:\Users\Public\Documents\Bruker\OPUS_8.2.28\XPM</parameter><parameter name="IST">OK</parameter><parameter name="CPG">1252</parameter><parameter name="UID">736621e4-4e60-4821-b3e1-e4a0b9a4cdf6</parameter></Sample_Parameters_><Instrument_Parameters_><parameter name="HFL">15800.168544</parameter><parameter name="LFL">0</parameter><parameter name="LWN">15800.168544</parameter><parameter name="ABP">32197</parameter><parameter name="SSP">1</parameter><parameter name="ASG">2</parameter><parameter name="ARG">2</parameter><parameter name="ASS">32</parameter><parameter name="GFW">16</parameter><parameter name="GBW">16</parameter><parameter name="BFW">0</parameter><parameter name="BBW">0</parameter><parameter name="PKA">7951</parameter><parameter name="PKL">4988</parameter><parameter name="PRA">8272</parameter><parameter name="PRL">4993</parameter><parameter name="P2A">1</parameter><parameter name="P2L">1</parameter><parameter name="P2R">1</parameter><parameter name="P2K">1</parameter><parameter name="DAQ">0</parameter><parameter name="AG2">1</parameter><parameter name="SSM">1</parameter><parameter name="RSN">13532</parameter><parameter name="CRR">0</parameter><parameter name="SRT">1654007707.044</parameter><parameter name="DUR">19.6379852294922</parameter><parameter name="TSC">29.1</parameter><parameter name="MVD">0.23262594640255</parameter><parameter name="AN1">0.225823718940764</parameter><parameter name="AN2">0</parameter><parameter name="VSN">2.485 Apr  4 2017</parameter><parameter name="SRN">0085</parameter><parameter name="CAM">0</parameter><parameter name="INS">IR-Biotyper</parameter><parameter name="FOC">69</parameter><parameter name="RDY">1</parameter></Instrument_Parameters_><History/></OPUSDataFile>
