<?xml version="1.0" encoding="UTF-8" ?>
<OPUSDataFile><AB><Ydata ylabel="Absorbance Units"><values byteorder="INTEL" format="FLOAT32" numvalues="3497"> -0.02316558 -0.02318171 -0.02319842 -0.02321615 -0.02322918 -0.02323721 -0.02322319 -0.02318764 -0.02313052 -0.02305646
 -0.0229927 -0.02294229 -0.02293299 -0.02295848 -0.02301968 -0.02310521 -0.0231964 -0.02328801 -0.0233656 -0.02343229
 -0.02348565 -0.02353031 -0.02356829 -0.02360215 -0.02363293 -0.02366332 -0.0236937 -0.02372853 -0.02376882 -0.02381577
 -0.02387011 -0.02392425 -0.02397778 -0.02401954 -0.02404988 -0.02406962 -0.02408173 -0.02410442 -0.0241394 -0.02420457
 -0.02429473 -0.02440843 -0.02453565 -0.02465936 -0.0247733 -0.02486203 -0.02492885 -0.02497008 -0.02499435 -0.02500569
 -0.02500886 -0.02500725 -0.02499938 -0.02498476 -0.02496568 -0.02494104 -0.02492388 -0.02491509 -0.02492828 -0.02496426
 -0.02502167 -0.02509927 -0.02518002 -0.02526273 -0.0253309 -0.02538616 -0.02542499 -0.0254509 -0.02547002 -0.02548604
 -0.0255076 -0.02553703 -0.02558205 -0.02563797 -0.02570619 -0.0257735 -0.02583293 -0.02587637 -0.0258958 -0.02590321
 -0.02589732 -0.02590404 -0.02592703 -0.02598665 -0.02608579 -0.02623018 -0.02642035 -0.02664196 -0.02689205 -0.02712853
 -0.02734507 -0.02747833 -0.02753096 -0.02746929 -0.0273209 -0.02713267 -0.02693363 -0.02680021 -0.02672702 -0.02674388
 -0.02681857 -0.02693824 -0.0270669 -0.02718023 -0.02726155 -0.02729485 -0.02729406 -0.02725718 -0.02721206 -0.02716289
 -0.02712923 -0.02711387 -0.02712269 -0.02715622 -0.02721022 -0.02728439 -0.02737348 -0.02747737 -0.02759427 -0.02772193
 -0.02785332 -0.02798165 -0.02808631 -0.02816404 -0.02819581 -0.02819353 -0.02816273 -0.02811678 -0.02807189 -0.02802369
 -0.02797067 -0.02792028 -0.02786569 -0.027855 -0.02789744 -0.0280381 -0.02829263 -0.02863856 -0.02908336 -0.02949759
 -0.02987487 -0.03000623 -0.02989404 -0.02952828 -0.02894793 -0.02841268 -0.02792453 -0.02763232 -0.02750338 -0.02753128
 -0.02768771 -0.02792955 -0.02821898 -0.02850122 -0.0287327 -0.02885205 -0.02886325 -0.02873463 -0.02854573 -0.02831742
 -0.0281195 -0.0279821 -0.02789821 -0.02787269 -0.02787904 -0.02791338 -0.02798052 -0.02808057 -0.02821914 -0.02839405
 -0.0285725 -0.02874931 -0.02887199 -0.02894283 -0.02893964 -0.02887437 -0.02876582 -0.02862317 -0.02846866 -0.0283122
 -0.02816999 -0.02806059 -0.02800516 -0.02801277 -0.02809953 -0.02824817 -0.02846155 -0.02869887 -0.02895377 -0.0291778
 -0.02936178 -0.02947476 -0.02951084 -0.02947363 -0.02936266 -0.02921349 -0.02902834 -0.02884757 -0.02867072 -0.02851416
 -0.02837607 -0.02825687 -0.02815838 -0.02808556 -0.02804022 -0.0280302 -0.02804939 -0.02809645 -0.02815703 -0.02822034
 -0.0282713 -0.02829809 -0.02829335 -0.02824847 -0.0281741 -0.02806617 -0.02796285 -0.02786826 -0.02782426 -0.02783783
 -0.02790996 -0.02804171 -0.0281895 -0.02835039 -0.02847016 -0.02854975 -0.02856543 -0.02852715 -0.0284599 -0.02837432
 -0.02831252 -0.02827363 -0.02827679 -0.02831348 -0.02837881 -0.02847165 -0.02858574 -0.02873358 -0.02892231 -0.02915528
 -0.02944451 -0.02975091 -0.03007413 -0.03034163 -0.03053907 -0.03062974 -0.03060476 -0.0304882 -0.03028107 -0.02999843
 -0.02964248 -0.0292449 -0.02881733 -0.02845989 -0.02817572 -0.02803975 -0.02802719 -0.02811859 -0.02827424 -0.02841205
 -0.02851414 -0.02850982 -0.02844417 -0.02832823 -0.02821369 -0.02814502 -0.0281121 -0.02812858 -0.02814612 -0.02815509
 -0.02811503 -0.02801282 -0.0278561 -0.02764011 -0.02742579 -0.02721637 -0.02707733 -0.02700983 -0.02703759 -0.02715278
 -0.02731869 -0.02751586 -0.02764526 -0.02769687 -0.02757517 -0.0273274 -0.02698818 -0.02661778 -0.02632411 -0.02608748
 -0.02593987 -0.02581225 -0.02566865 -0.02547344 -0.02519042 -0.02486245 -0.0244881 -0.02413931 -0.02383388 -0.02358468
 -0.02340144 -0.02321241 -0.02301465 -0.02269575 -0.02225435 -0.0216608 -0.02093632 -0.02022396 -0.01953786 -0.01902336
 -0.0186535 -0.01843023 -0.01832481 -0.01828728 -0.01829696 -0.01831765 -0.01830895 -0.01822887 -0.01803469 -0.01767582
 -0.01717984 -0.0165351 -0.01581899 -0.01505494 -0.01427284 -0.01348202 -0.01269249 -0.01190418 -0.01114912 -0.01042968
 -0.009758582 -0.009135296 -0.008545261 -0.007988186 -0.007455494 -0.006948286 -0.006467493 -0.006012266 -0.00558074 -0.005171828
 -0.004787218 -0.004413728 -0.004047995 -0.003640848 -0.003148683 -0.002534264 -0.001731246 -0.0008396573 0.0001288876 0.001031154
 0.001804283 0.002466394 0.003001891 0.003507479 0.003994751 0.004509038 0.005055678 0.005602063 0.006145103 0.00661672
 0.007019898 0.007333968 0.007586349 0.007874331 0.008236297 0.008853162 0.009680002 0.0107524 0.01192374 0.01299656
 0.01393188 0.01459392 0.01509081 0.01544318 0.01576965 0.01613313 0.01657233 0.01712348 0.01772843 0.01838423
 0.01902471 0.0196372 0.02022972 0.02080065 0.0214112 0.02206303 0.0227855 0.02357048 0.024368 0.02517001
 0.0259115 0.02659979 0.0272205 0.02778656 0.02831504 0.0288165 0.02931012 0.0298063 0.03032445 0.03085842
 0.03141491 0.03196809 0.03250144 0.03302667 0.03353207 0.03409329 0.03472646 0.03546439 0.03632474 0.03719088
 0.03805717 0.0387847 0.03937211 0.03983003 0.04017139 0.04050489 0.04083478 0.04124197 0.04171029 0.04223945
 0.04280547 0.04335812 0.04389438 0.04437968 0.04484768 0.04531127 0.04581731 0.04640854 0.04707886 0.04785173
 0.04864643 0.04944529 0.0501826 0.05083664 0.05141197 0.05190357 0.05235314 0.05276268 0.05318089 0.05360992
 0.05408616 0.05460828 0.05518249 0.05580544 0.05646495 0.05716098 0.05789009 0.05864691 0.05942665 0.0602057
 0.06095143 0.06164419 0.06224504 0.062775 0.0632294 0.06365302 0.06406788 0.06448885 0.06493076 0.06536638
 0.06579234 0.06618805 0.06654647 0.06689841 0.06724441 0.06764592 0.06810486 0.06864809 0.06926898 0.0699259
 0.07060908 0.07124919 0.07184973 0.07238053 0.07286013 0.07331071 0.07374652 0.07420144 0.07466635 0.075149
 0.07562464 0.07607645 0.07649822 0.07687472 0.07724075 0.07759978 0.07799894 0.07845141 0.07896593 0.07954902
 0.08016235 0.08080421 0.08142709 0.08202925 0.08258802 0.08310536 0.08358737 0.08403704 0.08447115 0.08489051
 0.08530597 0.08571708 0.08612772 0.08653829 0.08695168 0.08736571 0.08778024 0.08819028 0.08859009 0.08898515
 0.08937348 0.08977285 0.09019123 0.09062609 0.09108309 0.09152468 0.09194588 0.09232631 0.09266186 0.09299943
 0.09334205 0.09376173 0.09425527 0.09483086 0.09547168 0.09610409 0.09671558 0.09722495 0.09764504 0.09795703
 0.09819251 0.09838892 0.09856499 0.09875767 0.09895676 0.09916649 0.0993744 0.09957077 0.09976836 0.09996791
 0.1001864 0.1004299 0.1006925 0.1009746 0.1012666 0.1015671 0.1018855 0.1022222 0.1025862 0.1029761
 0.1033831 0.1038072 0.1042432 0.1046936 0.1051668 0.105657 0.1061607 0.1066613 0.1071334 0.1075674
 0.1079413 0.1082631 0.1085302 0.1087551 0.1089439 0.1091003 0.1092259 0.1093251 0.109396 0.1094587
 0.1095138 0.1095912 0.1096934 0.1098386 0.1100272 0.1102568 0.1105264 0.1108268 0.1111564 0.1115065
 0.1118706 0.1122271 0.1125656 0.1128516 0.1130878 0.1132554 0.1133846 0.1134931 0.1136197 0.1138017
 0.1140421 0.114363 0.1147126 0.1150835 0.1154132 0.1156821 0.1158838 0.11601 0.1161146 0.1162014
 0.1163078 0.1164343 0.1165459 0.116639 0.1166576 0.1166094 0.1164975 0.1163399 0.1161945 0.1160702
 0.1160165 0.1160243 0.1161041 0.1162366 0.116408 0.1165994 0.1167921 0.1169819 0.117157 0.1173399
 0.1175339 0.1177648 0.1180447 0.1183523 0.1186923 0.1189884 0.1192352 0.1193675 0.1193832 0.1192948
 0.1191095 0.1189035 0.118681 0.1185045 0.1183661 0.1182725 0.1182188 0.1181935 0.1182053 0.1182655
 0.1183717 0.1185372 0.1187216 0.1189054 0.1190434 0.1190992 0.1190873 0.1189936 0.1188925 0.1187971
 0.1187653 0.1188123 0.1189203 0.1190917 0.1192532 0.1194013 0.1194697 0.1194602 0.1193599 0.1191798
 0.1189649 0.1187292 0.1185418 0.1184066 0.1183709 0.1184184 0.1185514 0.1187352 0.1189379 0.119126
 0.1192625 0.1193441 0.119353 0.1193226 0.1192577 0.1191973 0.1191517 0.1191376 0.1191583 0.1192227
 0.1193311 0.1195067 0.1197506 0.1200754 0.1204759 0.1209073 0.1213557 0.1217247 0.1220081 0.1221271
 0.1221043 0.1219395 0.1216836 0.1214093 0.121161 0.1210211 0.1209802 0.1210724 0.1212256 0.1214208
 0.1215736 0.1216485 0.1216106 0.1214388 0.1211643 0.1207846 0.1203638 0.1199068 0.1194643 0.1190386
 0.1186469 0.1182887 0.1179631 0.1176717 0.1174211 0.1172147 0.1170693 0.1169809 0.1169555 0.1169709
 0.1170036 0.1170137 0.1169532 0.1167886 0.1164733 0.1160193 0.1154074 0.114706 0.1139269 0.1131532
 0.1124063 0.1117316 0.1111415 0.110634 0.1102114 0.1098442 0.1095306 0.1092238 0.1089213 0.1085786
 0.1082005 0.1077858 0.1073477 0.1069327 0.1065419 0.1062085 0.1059061 0.1056109 0.1052947 0.10491
 0.1044686 0.1039531 0.1034192 0.1028856 0.10241 0.1020205 0.1017297 0.1015543 0.1014425 0.1013952
 0.1013176 0.101202 0.1009733 0.1006283 0.1001699 0.09960482 0.099008 0.09838701 0.09782377 0.09731462
 0.09689377 0.09654669 0.09625989 0.09601679 0.09578675 0.09555809 0.09530622 0.09502839 0.09471287 0.0943682
 0.09399321 0.09360518 0.09320877 0.09282057 0.09244641 0.09208897 0.09175122 0.09141755 0.0910873 0.09074021
 0.0903753 0.08998781 0.08957933 0.08916655 0.08875202 0.08835902 0.08798695 0.08764756 0.08733555 0.08704565
 0.08677105 0.08649888 0.08622501 0.08593984 0.0856429 0.08533075 0.08500466 0.08466425 0.08431157 0.08394694
 0.08357343 0.08319155 0.08280501 0.08241437 0.0820225 0.08162972 0.08123758 0.08084617 0.08045446 0.0800624
 0.07966845 0.07927332 0.07887986 0.0784896 0.07810994 0.07774033 0.07738443 0.07703784 0.07669571 0.0763533
 0.07600234 0.07564405 0.07527333 0.07490405 0.07453772 0.07420168 0.07390609 0.07366847 0.07350197 0.07337381
 0.0732877 0.07315897 0.0729806 0.07268333 0.07226349 0.07173697 0.07111094 0.0704771 0.06984334 0.0693047
 0.06885567 0.0685344 0.06831621 0.06817007 0.0680591 0.06791036 0.06770308 0.06737573 0.06695627 0.06643521
 0.06587841 0.06531929 0.06479674 0.06434098 0.06392738 0.06355715 0.06319495 0.06282973 0.0624856 0.06216092
 0.06192335 0.06177643 0.06174566 0.06182485 0.0619458 0.06209419 0.06214951 0.06210955 0.06189331 0.06152849
 0.0610317 0.06044774 0.05985947 0.05928579 0.05879002 0.05834279 0.05794378 0.05755783 0.05715678 0.05675528
 0.0563469 0.05597385 0.05565091 0.05537428 0.05515061 0.05492841 0.05470217 0.05445194 0.05417638 0.0539213
 0.05368912 0.0535267 0.05342744 0.05337766 0.05336607 0.05334269 0.05330767 0.05323373 0.05313301 0.05301434
 0.05288483 0.05276136 0.05263022 0.05249196 0.05231507 0.05208334 0.05177399 0.05136826 0.05088577 0.05031915
 0.04973686 0.04914555 0.0486202 0.04817093 0.04781578 0.0475564 0.04733247 0.04713876 0.04688768 0.0465814
 0.04618327 0.04571034 0.04520229 0.04467751 0.04420321 0.04377865 0.04343787 0.04315889 0.04293197 0.04273134
 0.04253231 0.04232324 0.04208731 0.04183622 0.04156615 0.04130865 0.04107067 0.04087616 0.04073475 0.040623
 0.04054276 0.04042657 0.04027066 0.04003333 0.03971815 0.03936604 0.03898612 0.03866004 0.0383818 0.03817891
 0.03802692 0.03787776 0.03772011 0.03750381 0.0372545 0.03697708 0.03671184 0.03649572 0.03634411 0.03627963
 0.03628944 0.03637391 0.03651969 0.03672284 0.03697906 0.03728902 0.03763719 0.03802472 0.03840514 0.03877604
 0.03906661 0.03927371 0.0393368 0.03926007 0.03903382 0.03867399 0.03823053 0.0377234 0.03722652 0.03674952
 0.03634446 0.03600453 0.03574452 0.035547 0.03540388 0.03529789 0.03521684 0.03515253 0.03509853 0.03505464
 0.03502003 0.03499351 0.03497448 0.03496315 0.03495772 0.03498122 0.0350346 0.03517049 0.03539096 0.03573931
 0.03620931 0.03678676 0.03745657 0.0381547 0.0388715 0.0395483 0.04019024 0.04077874 0.04132436 0.04183405
 0.0423111 0.04276088 0.04318331 0.04357658 0.04395215 0.04431115 0.04467477 0.04505057 0.04544271 0.04585779
 0.04625978 0.04664783 0.04696438 0.04720577 0.04734417 0.04738156 0.04734581 0.04724227 0.04712079 0.04698063
 0.04684515 0.04671058 0.04657523 0.04644619 0.04633239 0.04624705 0.04621438 0.0462276 0.04629638 0.04638822
 0.04648745 0.04657038 0.04661833 0.04664563 0.04664874 0.04666295 0.04669388 0.04676525 0.04688117 0.04704341
 0.04725267 0.04748446 0.04773526 0.04794575 0.04811063 0.04816106 0.0481034 0.04791823 0.04763046 0.04729104
 0.04692436 0.04660153 0.04631914 0.04610935 0.04593705 0.04579087 0.04561863 0.04539247 0.04506018 0.04459456
 0.0439677 0.04315942 0.04219858 0.04107813 0.03989021 0.03864058 0.03743711 0.03628707 0.0352494 0.03432365
 0.03350319 0.03278409 0.03213627 0.03155958 0.03103962 0.03057416 0.03015481 0.02976833 0.02938877 0.02900334
 0.0285803 0.02813101 0.02764789 0.02716482 0.02669924 0.02627516 0.02591015 0.0255983 0.02534324 0.02512635
 0.02494385 0.02479002 0.02466251 0.02457521 0.02452873 0.02454295 0.02461736 0.02474693 0.0249239 0.02509446
 0.02524692 0.02530278 0.0252637 0.02508703 0.02479743 0.02441498 0.02397215 0.02351786 0.02307037 0.02266358
 0.02229777 0.02198392 0.02171172 0.02148107 0.02127655 0.02109482 0.02092083 0.02075094 0.02057943 0.02040488
 0.02023043 0.02005644 0.01987477 0.01968307 0.01943916 0.01913738 0.01871362 0.01817125 0.01748077 0.01666794
 0.01578042 0.01485116 0.01396792 0.01313141 0.0123889 0.01169741 0.01103818 0.01036814 0.009648911 0.008883518
 0.00805755 0.007210158 0.006348565 0.005506036 0.004690938 0.003913906 0.003177652 0.002479838 0.001820603 0.001192087
 0.0005937277 1.525197E-05 -0.0005439586 -0.00109304 -0.001632504 -0.002169719 -0.002704036 -0.003239149 -0.003770152 -0.004290967
 -0.00479454 -0.005267237 -0.005711599 -0.006121184 -0.006512922 -0.006894775 -0.007280577 -0.007682133 -0.008088481 -0.008502322
 -0.00889457 -0.009259237 -0.009583127 -0.009861305 -0.01011901 -0.0103571 -0.01061754 -0.0109011 -0.01122004 -0.01156952
 -0.01191874 -0.01226453 -0.0125732 -0.01285424 -0.01311375 -0.01336704 -0.01364829 -0.01395865 -0.0143186 -0.01470952
 -0.01512427 -0.01553983 -0.01594033 -0.01631127 -0.01664222 -0.01692939 -0.01716703 -0.01736859 -0.01753233 -0.01769256
 -0.01785237 -0.01804411 -0.01827076 -0.0185315 -0.01882506 -0.01912151 -0.01941942 -0.01969348 -0.01994616 -0.02017452
 -0.02038144 -0.02057379 -0.02075163 -0.02091788 -0.0210729 -0.02121748 -0.02135436 -0.02148667 -0.02161479 -0.02174151
 -0.02186039 -0.02196956 -0.02206334 -0.02213713 -0.02220109 -0.02225383 -0.02232175 -0.02240778 -0.02253119 -0.02269416
 -0.02288627 -0.02310609 -0.0233217 -0.02353216 -0.02371428 -0.02387144 -0.02400501 -0.02412011 -0.02423236 -0.02434273
 -0.02446227 -0.02458472 -0.02470754 -0.02482186 -0.02491651 -0.02499316 -0.0250446 -0.02509234 -0.02514105 -0.02521851
 -0.02533571 -0.02549957 -0.02571649 -0.02596498 -0.02624446 -0.02652498 -0.02680429 -0.02706644 -0.02731118 -0.0275384
 -0.02774857 -0.02794518 -0.02812785 -0.02829616 -0.02845042 -0.02859008 -0.02871823 -0.02883993 -0.02895922 -0.02908431
 -0.02921519 -0.02935571 -0.02950162 -0.02965089 -0.02980178 -0.02995232 -0.03010502 -0.03026098 -0.03041853 -0.03057875
 -0.03073149 -0.03087559 -0.03100381 -0.03111518 -0.03121677 -0.03130912 -0.03140469 -0.03150253 -0.03160116 -0.03169751
 -0.03177553 -0.0318365 -0.03187246 -0.03189393 -0.03191627 -0.03195116 -0.03202331 -0.03213124 -0.03228591 -0.0324712
 -0.03268132 -0.03289917 -0.03311513 -0.03332237 -0.03351613 -0.03369837 -0.0338683 -0.03403097 -0.03418659 -0.03434214
 -0.03449813 -0.03465977 -0.03482713 -0.03499928 -0.03517553 -0.03534965 -0.03552146 -0.03568626 -0.03584548 -0.03600055
 -0.0361532 -0.03630813 -0.03646459 -0.03662443 -0.03678393 -0.03694019 -0.03709058 -0.03723166 -0.03736553 -0.03749197
 -0.03761446 -0.03773434 -0.03785207 -0.03796785 -0.03808203 -0.03819416 -0.03831013 -0.03843025 -0.03856189 -0.03870517
 -0.03885968 -0.03902442 -0.03919061 -0.03935741 -0.0395158 -0.03966686 -0.03980858 -0.0399433 -0.0400748 -0.04020429
 -0.04033563 -0.04046735 -0.04059941 -0.04073033 -0.04085807 -0.04098553 -0.04111275 -0.04124531 -0.04138549 -0.04153404
 -0.04169254 -0.04185359 -0.04201675 -0.04217322 -0.04232219 -0.04246088 -0.04258929 -0.04271019 -0.04282384 -0.04293367
 -0.04303978 -0.04314427 -0.04324746 -0.04335131 -0.043456 -0.04356308 -0.04367178 -0.04378164 -0.04389206 -0.04400151
 -0.04411222 -0.0442245 -0.04434264 -0.0444693 -0.04460472 -0.04475081 -0.04490058 -0.04505342 -0.04520102 -0.04534202
 -0.0454735 -0.04559509 -0.04570574 -0.04580533 -0.04589092 -0.04596298 -0.04602337 -0.04607449 -0.04612868 -0.0461876
 -0.04626409 -0.04635485 -0.04646006 -0.04657448 -0.04668983 -0.04680546 -0.04691736 -0.04702747 -0.04713722 -0.04724374
 -0.04734686 -0.04744096 -0.04752288 -0.04759575 -0.04765833 -0.0477226 -0.04779016 -0.04786796 -0.0479571 -0.04805153
 -0.04815087 -0.04824452 -0.04833263 -0.04841184 -0.04848355 -0.04855292 -0.04862068 -0.04869242 -0.04876648 -0.04884249
 -0.04891781 -0.04898807 -0.04905273 -0.04910913 -0.0491593 -0.04920356 -0.04924459 -0.04928344 -0.04932278 -0.04936333
 -0.04940841 -0.04945904 -0.04951605 -0.04958017 -0.0496466 -0.04971515 -0.04977912 -0.04983834 -0.04989275 -0.04994318
 -0.04999764 -0.05005667 -0.05012792 -0.0502098 -0.05030196 -0.05040164 -0.05050252 -0.05060405 -0.05070199 -0.05079911
 -0.05089661 -0.0509969 -0.05110293 -0.05121281 -0.05132725 -0.05144092 -0.05155246 -0.05165734 -0.05175404 -0.05184186
 -0.05192008 -0.05199281 -0.05206018 -0.0521283 -0.0521974 -0.05226974 -0.05234488 -0.05241928 -0.05249263 -0.05256119
 -0.052626 -0.05268816 -0.05274898 -0.05281183 -0.05287693 -0.052946 -0.05301904 -0.05309671 -0.05317865 -0.05326529
 -0.05335455 -0.05344613 -0.05353632 -0.05362387 -0.05370636 -0.05378278 -0.05385344 -0.05391794 -0.05397976 -0.05403903
 -0.05410071 -0.054165 -0.05423285 -0.05430373 -0.05437214 -0.05443786 -0.05449608 -0.05454873 -0.05459921 -0.05464952
 -0.05470653 -0.05476851 -0.0548366 -0.05490682 -0.05497488 -0.05504011 -0.05509991 -0.05515739 -0.05521353 -0.05527024
 -0.05532873 -0.05538817 -0.05544841 -0.05550962 -0.0555716 -0.05563663 -0.05570501 -0.05577658 -0.05585127 -0.05592327
 -0.05599229 -0.05605288 -0.05610588 -0.05615253 -0.05619426 -0.05623679 -0.05627968 -0.05632511 -0.05637125 -0.05641585
 -0.05645879 -0.0564985 -0.05653716 -0.05657588 -0.05661613 -0.05665916 -0.05670465 -0.05675281 -0.05680299 -0.05685512
 -0.0569085 -0.05696336 -0.0570165 -0.05706784 -0.05711175 -0.05714796 -0.05717275 -0.05718671 -0.05719412 -0.05719677
 -0.05720668 -0.05722399 -0.05725683 -0.05730135 -0.05735359 -0.05740914 -0.05745839 -0.05750255 -0.05753812 -0.05757078
 -0.05760393 -0.05764041 -0.05768347 -0.05773038 -0.05778134 -0.05783178 -0.05788087 -0.05792453 -0.05796199 -0.05799126
 -0.05801182 -0.05802727 -0.05803785 -0.05805299 -0.05807343 -0.05811058 -0.05816499 -0.05824573 -0.05835274 -0.05849076
 -0.05865926 -0.05885914 -0.05909044 -0.05935301 -0.05964873 -0.05997892 -0.0603469 -0.06075464 -0.06120709 -0.06170557
 -0.0622597 -0.06287224 -0.06355356 -0.06430903 -0.06513038 -0.06602135 -0.06693839 -0.06787978 -0.06878331 -0.0696456
 -0.07041189 -0.07107898 -0.07159618 -0.07195747 -0.07210486 -0.07203174 -0.07168088 -0.07106034 -0.07013506 -0.06897999
 -0.06766943 -0.06633599 -0.06515699 -0.0641925 -0.063559 -0.06321355 -0.06317368 -0.06335557 -0.06374483 -0.06423356
 -0.06480575 -0.06532422 -0.06576612 -0.06604378 -0.06614095 -0.06611651 -0.0659734 -0.06582009 -0.06565727 -0.06552561
 -0.06541917 -0.0653276 -0.06524471 -0.06514479 -0.06502496 -0.06486393 -0.06466755 -0.06443474 -0.06417399 -0.0638961
 -0.06360047 -0.06328963 -0.06296305 -0.06261592 -0.06226793 -0.06192164 -0.06160663 -0.06133173 -0.06110718 -0.06093806
 -0.06080871 -0.06071886 -0.06064508 -0.06058613 -0.06052542 -0.06046274 -0.06039043 -0.06030919 -0.0602181 -0.06011929
 -0.06001878 -0.05991959 -0.05983213 -0.05975659 -0.05969954 -0.0596553 -0.05962106 -0.05958939 -0.05955271 -0.05951031
 -0.05945846 -0.05940361 -0.0593472 -0.05929435 -0.05924701 -0.05920499 -0.05916836 -0.05913775 -0.059113 -0.05909863
 -0.05909486 -0.05910438 -0.05912672 -0.05915722 -0.05919457 -0.05922887 -0.05925931 -0.05927738 -0.05928425 -0.05927749
 -0.05926079 -0.05923866 -0.05921469 -0.05919538 -0.05918019 -0.05917157 -0.05916548 -0.05915976 -0.05915399 -0.05914637
 -0.05914275 -0.0591446 -0.05915441 -0.05917413 -0.05919342 -0.05921191 -0.05921494 -0.05920171 -0.05917111 -0.05912432
 -0.05907647 -0.05902846 -0.0589943 -0.05897157 -0.05895944 -0.05895459 -0.05894801 -0.0589398 -0.05892557 -0.05890793
 -0.05888841 -0.05886851 -0.05884999 -0.05883327 -0.05881872 -0.05880761 -0.05880076 -0.05879774 -0.05879952 -0.05880011
 -0.05879919 -0.05878837 -0.05876653 -0.05873223 -0.05868533 -0.05863542 -0.05858335 -0.05854267 -0.05851314 -0.05850105
 -0.05850397 -0.05851712 -0.05853764 -0.05855625 -0.05857205 -0.05857896 -0.05857848 -0.05856965 -0.05855493 -0.0585357
 -0.05851454 -0.05849307 -0.05847314 -0.05845585 -0.05844174 -0.05843129 -0.0584239 -0.05841971 -0.05841678 -0.05841504
 -0.05841159 -0.05840626 -0.05839662 -0.05838268 -0.05836405 -0.05834112 -0.05831583 -0.05828886 -0.05826363 -0.05824047
 -0.05822233 -0.05820802 -0.05819745 -0.05818782 -0.0581754 -0.05815984 -0.05813827 -0.05811567 -0.05809353 -0.05807739
 -0.05807072 -0.05807201 -0.05808246 -0.05809463 -0.05810738 -0.05811612 -0.05811995 -0.05812098 -0.05811927 -0.05811922
 -0.05812087 -0.05812578 -0.05813358 -0.05814277 -0.05815301 -0.05816226 -0.05817061 -0.05817736 -0.05818256 -0.05818608
 -0.05818761 -0.05818672 -0.05818332 -0.05817676 -0.0581685 -0.05815869 -0.0581503 -0.05814444 -0.05814318 -0.05814767
 -0.05815669 -0.05817058 -0.05818514 -0.05819996 -0.05821245 -0.05822239 -0.05823263 -0.05824346 -0.05826027 -0.05828275
 -0.05831214 -0.05834709 -0.05838322 -0.05841952 -0.05845114 -0.0584782 -0.05849866 -0.0585131 -0.05852104 -0.05852407
 -0.05852265 -0.05852022 -0.05851861 -0.05852073 -0.05852877 -0.05854117 -0.05855887 -0.05857513 -0.05858933 -0.05859371
 -0.05858723 -0.05856689 -0.05853239 -0.05848988 -0.05844012 -0.0583957 -0.05835722 -0.0583352 -0.05832861 -0.05833965
 -0.05836606 -0.05840366 -0.05845013 -0.05850008 -0.0585511 -0.05859825 -0.05864022 -0.05867368 -0.05870036 -0.05871954
 -0.05873583 -0.05875073 -0.05876778 -0.0587887 -0.0588124 -0.05883947 -0.05886466 -0.05888758 -0.05890287 -0.05891018
 -0.0589084 -0.05889786 -0.05888374 -0.05886677 -0.05885454 -0.05884704 -0.0588486 -0.05885791 -0.05887407 -0.05889551
 -0.05891896 -0.05894382 -0.05896806 -0.0589916 -0.05901385 -0.05903442 -0.05905282 -0.05906918 -0.05908299 -0.0590964
 -0.05910963 -0.05912562 -0.05914513 -0.05916856 -0.0591963 -0.05922509 -0.05925479 -0.05928095 -0.05930344 -0.05931967
 -0.05933008 -0.05933594 -0.05933826 -0.05934168 -0.05934678 -0.0593579 -0.05937375 -0.05939458 -0.05941772 -0.05943996
 -0.05945968 -0.05947404 -0.0594838 -0.05948823 -0.05948963 -0.05948849 -0.05948763 -0.05948774 -0.05949137 -0.0594993
 -0.05951141 -0.05952801 -0.05954559 -0.05956395 -0.0595809 -0.05959658 -0.05961378 -0.05963264 -0.05965628 -0.05968326
 -0.05970995 -0.05973423 -0.05974805 -0.05975226 -0.05974358 -0.05972645 -0.05970496 -0.05968288 -0.05966525 -0.05965263
 -0.05964659 -0.05964734 -0.05965486 -0.0596712 -0.0596973 -0.05973255 -0.05977785 -0.05982608 -0.0598769 -0.05992109
 -0.059958 -0.05998375 -0.05999849 -0.06000528 -0.06000489 -0.06000393 -0.06000293 -0.06000783 -0.06001789 -0.06003475
 -0.06005621 -0.0600793 -0.0601018 -0.06011936 -0.06013202 -0.06013774 -0.06013913 -0.06013708 -0.06013389 -0.06013133
 -0.06012795 -0.06012407 -0.06011613 -0.06010313 -0.06008559 -0.06006299 -0.06004213 -0.06002344 -0.06001215 -0.06000808
 -0.06000753 -0.06000958 -0.06000556 -0.05999554 -0.05997458 -0.05994469 -0.05990842 -0.05986826 -0.05983011 -0.05979492
 -0.05976692 -0.05974405 -0.05972668 -0.05971046 -0.05969312 -0.0596709 -0.05964142 -0.05960413 -0.05955786 -0.05950576
 -0.05944779 -0.05938926 -0.05933066 -0.05927689 -0.05922828 -0.05918846 -0.0591575 -0.05913701 -0.05912644 -0.05912333
 -0.05912599 -0.05912613 -0.05912272 -0.05910768 -0.05908348 -0.0590504 -0.05901223 -0.05897532 -0.05893791 -0.05890222
 -0.05886099 -0.0588093 -0.05874633 -0.05866803 -0.05858617 -0.05850284 -0.05842927 -0.05836928 -0.05831935 -0.05828019
 -0.05823957 -0.05819662 -0.05814636 -0.05808919 -0.05803471 -0.05798405 -0.05795097 -0.05793429 -0.05793754 -0.05795659
 -0.05798271 -0.05801135 -0.05803018 -0.05803644 -0.05802112 -0.05798482 -0.05792298 -0.05784377 -0.05774896 -0.05765201
 -0.05755951 -0.05747771 -0.05741134 -0.05735393 -0.05730543 -0.05725722 -0.05720805 -0.05715506 -0.05709794 -0.05703589
 -0.05696889 -0.05689658 -0.05681979 -0.05674438 -0.05667164 -0.05661118 -0.05656144 -0.05652421 -0.05649487 -0.05646567
 -0.05643299 -0.05638869 -0.05633195 -0.05625907 -0.05617089 -0.05606605 -0.05594867 -0.05581894 -0.05568526 -0.05554951
 -0.05542028 -0.05529993 -0.05519067 -0.05509362 -0.05500297 -0.05491839 -0.05483468 -0.05475209 -0.05467775 -0.05461298
 -0.05457295 -0.05455556 -0.05456249 -0.05458499 -0.05460007 -0.0546001 -0.05455576 -0.05447522 -0.05435336 -0.0542107
 -0.0540655 -0.05392768 -0.05381141 -0.05371021 -0.05362576 -0.05354654 -0.05346971 -0.05338645 -0.053294 -0.05319119
 -0.05307642 -0.05296182 -0.05284778 -0.05275553 -0.05268559 -0.05264559 -0.05263171 -0.05261816 -0.05259837 -0.05252621
 -0.05240582 -0.05221904 -0.0519873 -0.05174385 -0.0515031 -0.05130262 -0.05113443 -0.05100537 -0.05090213 -0.05081811
 -0.05074424 -0.05067687 -0.05060336 -0.05052051 -0.05041389 -0.05027876 -0.05011612 -0.04992424 -0.04971943 -0.04950283
 -0.04928365 -0.04906211 -0.04883786 -0.04861143 -0.0483868 -0.04816509 -0.04795387 -0.04775281 -0.04756547 -0.04738932
 -0.04722256 -0.04705935 -0.04689166 -0.04671379 -0.04651459 -0.04630109 -0.04607135 -0.04584362 -0.04562805 -0.0454259
 -0.04524411 -0.04505724 -0.04486106 -0.04463812 -0.04438278 -0.04411684 -0.0438411 -0.04358578 -0.04335088 -0.04312158
 -0.04289281 -0.04261241 -0.04228222 -0.04187661 -0.04141413 -0.04093586 -0.0404547 -0.04002239 -0.03962401 -0.03926367
 -0.0389167 -0.0385577 -0.03818142 -0.03777127 -0.03734876 -0.03691917 -0.03650104 -0.03610709 -0.03571793 -0.03533914
 -0.03490517 -0.03441103 -0.03378039 -0.0330048 -0.03209573 -0.03105695 -0.03000684 -0.02894723 -0.02795018 -0.02699828
 -0.0260495 -0.02508772 -0.02403821 -0.02291014 -0.02167719 -0.02037738 -0.0190477 -0.01773039 -0.01648195 -0.01531692
 -0.0142701 -0.01331131 -0.01244304 -0.01160662 -0.01078017 -0.009946428 -0.009088225 -0.008269133 -0.007495238 -0.006815922
 -0.00623771 -0.005729544 -0.00528963 -0.004874917 -0.004486678 -0.00412234 -0.003779388 -0.003451389 -0.003120346 -0.002727069
 -0.002263492 -0.001668241 -0.0009871672 -0.0002531486 0.0004790892 0.001130252 0.001715353 0.002215276 0.002672031 0.003104911
 0.003523903 0.003936709 0.004340129 0.004725642 0.005146964 0.00560105 0.006221561 0.007020557 0.008054229 0.009318841
 0.01061417 0.01192912 0.01306762 0.01405755 0.01493053 0.01571518 0.01651767 0.0173384 0.0182287 0.01917867
 0.02018565 0.0212701 0.02243486 0.02374814 0.02525887 0.0270047 0.02905188 0.0312629 0.03363425 0.03592805
 0.03808442 0.04001207 0.04168142 0.04314857 0.04441286 0.04557945 0.04665555 0.04779959 0.04902563 0.0505481
 0.05234384 0.05445057 0.05676358 0.05895785 0.06101773 0.06271861 0.06418341 0.06549814 0.0667525 0.06808041
 0.0694852 0.07101481 0.07263247 0.07433363 0.07608385 0.07788028 0.07965642 0.08139969 0.08305185 0.08459602
 0.08607316 0.0874851 0.08887532 0.09024292 0.09149165 0.09261304 0.09347741 0.09410137 0.09449238 0.09468465
 0.09479235 0.09482414 0.09486566 0.09487709 0.09482741 0.09471031 0.09449001 0.09422626 0.09395479 0.09370101
 0.09350019 0.09330259 0.0931009 0.09284741 0.09252376 0.09214485 0.09170654 0.09126212 0.09081614 0.09039711
 0.09000517 0.08959587 0.08916601 0.08866439 0.0880968 0.08746465 0.0867772 0.08606226 0.08532908 0.08460966
 0.08391023 0.08325425 0.08264096 0.0820743 0.08156375 0.08110957 0.08074475 0.08048595 0.08035186 0.08036207
 0.08047517 0.08068775 0.08095176 0.0812551 0.0816147 0.08202946 0.08254767 0.08317129 0.08391861 0.08478676
 0.0857539 0.08681609 0.08794228 0.08913115 0.09036162 0.09163617 0.09294792 0.0943049 0.0957159 0.09718722
 0.09873118 0.1003425 0.1020232 0.1037612 0.1055511 0.1073857 0.1092615 0.1111749 0.113127 0.1151009
 0.1170977 0.1190716 0.121019 0.122897 0.1247046 0.1264692 0.1281974 0.1299777 0.1317987 0.1336609
 0.135523 0.1372411 0.1388142 0.1401586 0.1413195 0.1423427 0.1432258 0.1439959 0.1446035 0.1450133
 0.1452198 0.1452055 0.1449963 0.1446046 0.1440143 0.1432231 0.1422191 0.1409903 0.1396268 0.1381368
 0.136562 0.1349033 0.1330912 0.1311241 0.1289603 0.1266086 0.1240958 0.1214293 0.1186578 0.1157596
 0.1127245 0.1094963 0.1059556 0.1021529 0.09802002 0.09385332 0.08987044 0.08618978 0.08298989 0.08004563
 0.07731456 0.07463274 0.07193647 0.06925136 0.06656756 0.06396864 0.06146366 0.05906196 0.05676385 0.05453172
 0.05236681 0.05026967 0.04824696 0.04633871 0.04454175 0.04287207 0.04131083 0.0398264 0.03839873 0.03698341
 0.03556998 0.03413064 0.03266333 0.03115714 0.02961663 0.02803123 0.02644511 0.02485318 0.02337462 0.02204233
 0.02089894 0.01997009 0.0191373 0.01839189 0.01765255 0.01691552 0.01619943 0.0155077 0.01488832 0.01433656
 0.01385054 0.01342358 0.01302462 0.0126683 0.01236798 0.01214901 0.01206414 0.01210702 0.01229996 0.01260253
 0.01298876 0.01343971 0.01393394 0.01448437 0.01508894 0.01576849 0.01652043 0.01739852 0.01839967 0.01965721
 0.02118407 0.02306991 0.02531753 0.02769193 0.0301682 0.0323635 0.03429567 0.03586501 0.03711429 0.03814252
 0.03895862 0.03962754 0.04015067 0.04053834 0.04084587 0.04111898 0.04145476 0.04196174 0.04262374 0.04350234
 0.04439962 0.04524693 0.04596139 0.04648718 0.04693561 0.04731298 0.04773499 0.04821629 0.04877548 0.04941372
 0.0500657 0.05072893 0.05135025 0.05193898 0.05251633 0.05310097 0.05377016 0.05452994 0.0554437 0.05647882
 0.05761364 0.05881341 0.0600187 0.06125009 0.06250124 0.06380495 0.06518804 0.06662726 0.06812746 0.06963264
 0.07112465 0.0725985 0.07404385 0.07552499 0.07704772 0.07865351 0.08034437 0.08202351 0.08367947 0.08513851
 0.08640125 0.08738204 0.08809306 0.08853521 0.08870905 0.08861759 0.08825401 0.08760435 0.08667602 0.0854652
 0.08400039 0.0822974 0.08039252 0.07830647 0.07606985 0.07369409 0.07121263 0.06862678 0.06600605 0.06335447
 0.06077693 0.05828434 0.05593843 0.05374298 0.05167844 0.04974236 0.04789541 0.04614104 0.04447921 0.04291684
 0.04148237 0.04017068 0.03898859 0.03791716 0.03692948 0.03600982 0.0351281 0.03428294 0.03346335 0.03267325
 0.03191527 0.03118028 0.03046848 0.02975948 0.02904781 0.028323 0.02758114 0.0268288 0.02606523 0.02531022
 0.02456484 0.02386177 0.02320276 0.02261976 0.022111 0.02168294 0.02133132 0.02104316 0.02081882 0.02065268
 0.02054683 0.0205047 0.02052095 0.02059343 0.0207097 0.02086169 0.02103323 0.02121678 0.02139043 0.02154668
 0.02166251 0.02172995 0.02174066 0.02169036 0.02159034 0.02144081 0.02125814 0.02104329 0.0208029 0.02053722
 0.02024904 0.01994135 0.0196317 0.01932709 0.01906247 0.01884188 0.01869564 0.01861572 0.01860522 0.01864779
 0.01872499 0.0188279 0.01894152 0.01906908 0.01920885 0.01936347 0.01953577 0.01971756 0.01990854 0.02009556
 0.02027644 0.02044244 0.02059224 0.02072404 0.02083764 0.02093703 0.02102269 0.02110237 0.02117642 0.02125139
 0.02132608 0.02140048 0.02147125 0.02153061 0.02157549 0.02159635 0.02159447 0.0215663 0.0215181 0.02145321
 0.02137813 0.02129718 0.02121455 0.02113197 0.02105494 0.02098439 0.02092821 0.02088805 0.0208674 0.02086732
 0.02088177 0.02091048 0.02094384 0.02098167 0.02101911 0.02105697 0.02109773 0.02114263 0.02119749 0.02126325
 0.02134483 0.0214433 0.02156247 0.0217034 0.02186969 0.02205892 0.0222722 0.02250087 0.02274145 0.02298411
 0.02322359 0.02345743 0.02368312 0.02390552 0.02412517 0.02434548 0.02456734 0.02478648 0.02500279 0.02520545
 0.02539399 0.02555871 0.02570074 0.0258216 0.02592452 0.02602293 0.02611807 0.02622163 0.02632848 0.02643659
 0.02653731 0.02661933 0.02667752 0.02670292 0.02669687 0.02665681 0.02658852 0.02649302 0.02637743 0.02624346
 0.02609734 0.02594029 0.02577662 0.02560688 0.02543427 0.02525901 0.02508372 0.02490839 0.02473371 0.02455891
 0.02437988 0.02419505 0.02399592 0.02378237 0.02354872 0.02329821 0.02303349 0.02275831 0.02247918 0.02219547
 0.02190888 0.0216178 0.02131969 0.02102119 0.02072267 0.02043654 0.020167 0.0199176 0.0196909 0.01947789
 0.01927797 0.01908295 0.01889215 0.01870883 0.01853356 0.01837675 0.01823859 0.01812615 0.01803768 0.01797052
 0.01792218 0.01788422 0.01785703 0.01783636 0.01782635 0.01783035 0.01785171 0.0178945 0.01796013 0.01804897
 0.01816728 0.01831575 0.01850687 0.01874449 0.01903502 0.01938207 0.01977501 0.02021429 0.0206766 0.02116061
 0.02164397 0.02212596 0.02259369 0.02304776 0.0234853 0.02390801 0.02432014 0.02472441 0.02512974 0.02553823
 0.02595874 0.02638885 0.02683027 0.02727676 0.02772283 0.0281666 0.02860425 0.02904018 0.02947642 0.02991149
 0.0303471 0.03077205 0.03118425 0.03157831 0.03195243 0.03231595 0.03266928 0.03302415 0.03338092 0.03374502
 0.03411691 0.03450217 0.0349021 0.03532518 0.03577173 0.03624733 0.03675056 0.0372824 0.03783879 0.0384171
 0.03900811 0.03960438 0.04019523 0.04077109 0.04133067 0.04186887 0.04239722 0.04291691 0.04344225 0.04397716
 0.04452271 0.04508115 0.04563189 0.04617403 0.04667705 0.04714043 0.04755451 0.04792299 0.0482679 0.04859251
 0.04892346 0.04925768 0.04960058 0.04994817 0.05029417 0.05064038 0.05098602 0.05133485 0.05169021 0.0520536
 0.05242657 0.05281065 0.05320657 0.05361625 0.05404067 0.05447946 0.05493356 0.05539661 0.05586883 0.05633541
 0.0567954 0.05723687 0.05766039 0.05807805 0.05849308 0.05893648 0.05940742 0.05992178 0.06047052 0.06103931
 0.06161635 0.06217491 0.06270406 0.06318033 0.06359462 0.06392939 0.06418628 0.06435798 0.06446081 0.06449865
 0.06448861 0.06443621 0.0643515 0.06423583 0.0641036 0.06395562 0.06381295 0.06367706 0.0635622 0.06346879
 0.06340219 0.06336274 0.06335592 0.06338166 0.06344365 0.06353953 0.06366557 0.06381788 0.06398889 0.06417247
 0.06435981 0.06454067 0.06470411 0.06484 0.06493916 0.06499621 0.06500745 0.06496806 0.06487624 0.06472769
 0.06452002 0.06425969 0.06394595 0.06359782 0.06321635 0.06282248 0.06241712 0.06201594 0.06161875 0.06123234
 0.0608545 0.06047956 0.06010566 0.05972354 0.05933566 0.05894267 0.0585462 0.0581522 0.05775072 0.05733768
 0.05689601 0.05641283 0.05588181 0.05529439 0.05466123 0.05398295 0.05327268 0.05253411 0.05176786 0.05097502
 0.05014729 0.04928387 0.04838741 0.04745883 0.04651989 0.0455723 0.04463982 0.04372161 0.04282602 0.04195254
 0.04110244 0.04027949 0.03949117 0.03874134 0.03803878 0.0373835 0.03677829 0.03622308 0.03571908 0.03526425
 0.03485991 0.03449617 0.03417059 0.03387502 0.03360577 0.03337043 0.03316921 0.03301227 0.03290093 0.03282345
 0.03277863 0.03273957 0.03270602 0.03266329 0.03261393 0.03256198 0.03250828 0.03245836 0.03240908 0.03235674
 0.03229918 0.03223049 0.03215418 0.03207124 0.03198558 0.03190182 0.03181545 0.03172601 0.0316277 0.03151616
 0.031401 0.03128223 0.031176 0.03108578 0.03100646 0.03093846 0.03085926 0.03076845 0.03066282 0.03054546
 0.03044102 0.03035111 0.03029738 0.03027583 0.03028621 0.03032416 0.03038054 0.03045426 0.03054012 0.03063831
 0.03074704 0.03086752 0.03099941 0.03114583 0.0313081 0.03148826 0.03168785 0.03190443 0.03213849 0.03238317
 0.03263803 0.03289462 0.03315231 0.03340502 0.03365238 0.03388862 0.03411249 0.03431122 0.03448324 0.03461287
 0.03470308 0.03475233 0.03476877 0.03476769 0.03475483 0.03474505 0.03473882 0.03474095 0.03475321 0.03477768
 0.03481679 0.034874 0.03494276 0.03502354 0.03510229 0.03517587 0.03523723 0.03528404 0.03532301 0.03535413
 0.03539142 0.03543559 0.03549923 0.03558272 0.03569456 0.03583474 0.03600848 0.03621432 0.03645268 0.03671758
 0.03699882 0.03728781 0.03756692 0.03783545 0.03808365 0.03832236 0.03855635 0.03879229 0.03903772 0.03928179
 0.03952393 0.03974877 0.03995163 0.04013222 0.04028872 0.04043487 0.04057143 0.04071165 0.040856 0.04100942
 0.04117113 0.04133656 0.04150447 0.04166597 0.04182206 0.0419699 0.04211384 0.04226126 0.04241551 0.04258564
 0.04276941 0.04296832 0.04317825 0.04339578 0.043622 0.04385559 0.04410193 0.04436313 0.04463939 0.04493197
 0.04523434 0.04554546 0.0458639 0.04618914 0.04652944 0.04688497 0.04725664 0.04764193 0.04801859 0.04838317
 0.04870556 0.04898875 0.04922308 0.04941976 0.04959636 0.04976283 0.04994262 0.05013473 0.0503488 0.05057419
 0.05080683 0.05103762 0.05126035 0.05147414 0.05167709 0.05187165 0.05205777 0.05223891 0.05241481 0.05259481
 0.05277951 0.0529789 0.05319314 0.05341679 0.0536481 0.0538678 0.05407599 0.05426188 0.05442943 0.05458507
 0.05473223 0.05488183 0.05503338 0.05519118 0.0553526 0.05551612 0.05568103 0.05584409 0.0560133 0.05618892
 0.05638799 0.05661712 0.05688227 0.05718994 0.05751581 0.0578596 0.05818151 0.05847776 0.05873238 0.05894537
 0.05914196 0.05932511 0.05953469 0.05976857 0.06003937 0.06033842 0.06064438 0.06095369 0.06124535 0.06152822
 0.06180646 0.06208757 0.06238441 0.06268912 0.063001 0.06330987 0.06360776 0.06390054 0.06418747 0.06447917
 0.06477937 0.06508505 0.06539709 0.06570429 0.06600557 0.06629808 0.06658194 0.06686771 0.06715643 0.06746368
 0.06778748 0.06812841 0.06847898 0.06881517 0.06913377 0.06941187 0.06966176 0.0698899 0.07011241 0.07035131
 0.07060606 0.07088547 0.07117723 0.07147726 0.07177772 0.07207491 0.07236585 0.07264845 0.07292648 0.07319901
 0.07348081 0.0737733 0.07408279 0.07440925 0.07473532 0.07506047 0.075371 0.0756704 0.07597059 0.07627255
 0.07658754 0.07691006 0.07723194 0.07755337 0.07786813 0.07818615 0.07851582 0.07886335 0.07923935 0.07963383
 0.08004993 0.08045777 0.08085088 0.08119496 0.08147705 0.08170225 0.08186419 0.0820209 0.08217658 0.08237792
 0.08262657 0.08290794 0.08321914 0.08352366 0.08382276 0.08410472 0.08437214 0.08462775 0.08487166 0.0851045
 0.0853282 0.08554716 0.08575916 0.08596738 0.08615724 0.08631903 0.08644335 0.08651819 0.08655921 0.086566
 0.08656653 0.08656695 0.08658585 0.08662781 0.08669376 0.08678526 0.08688078 0.08697919 0.08705343 0.08710519
 0.08714108 0.08716778 0.08722477 0.08731496 0.08746978 0.0876851 0.08797051 0.08831237 0.0887005 0.08910619
 0.08949333 0.08985002 0.09014096 0.09041815 0.09069023 0.09103188 0.09149385 0.09200922 0.09258816 0.0930656
 0.09340467 0.09362257 0.09371264 0.0937928 0.09386843 0.0939979 0.09417877 0.0944054 0.09467082 0.09493908
 0.09519979 0.09540042 0.09553473 0.09555609 0.09548257 0.09531429 0.09508948 0.09484912 0.09461837 0.09443226
 0.09428826 0.09419774 0.09413832 0.09410632 0.09407678 0.09403975 0.09400123 0.09395749 0.09394621 0.09397206
 0.09403545 0.09413591 0.09420127 0.0942275 0.09414177 0.09395088 0.09365159 0.09325857 0.09281733 0.09234062
 0.09187675 0.09143696 0.09105889 0.09074916 0.09053069 0.090399 0.0903613 0.09040008 0.09051641 0.09066548
 0.09083869 0.09097388 0.09105055 0.09105653 0.09098066 0.09087922 0.09075633 0.09065212 0.09056865 0.09050175
 0.09045374 0.09045056 0.09049705 0.09064163 0.09087168 0.09117319 0.09152493 0.09186737 0.09219936 0.0924917
 0.09275347 0.09298663 0.09319025 0.09336394 0.09350772 0.09361972 0.0937071 0.09377224 0.09381846 0.0938448
 0.09386505 0.09387818 0.09392004 0.09399424 0.09412043 0.09429957 0.09450452 0.09473209 0.09493569 0.09511422
 0.09523612 0.09530608 0.0953194 0.09529008 0.0952467 0.09520233 0.09519617 0.09521727 0.0952723 0.09533693
 0.09538978 0.09543149 0.09545431 0.09547263 0.09549461 0.09550893 0.0955164 0.09549461 0.09543862 0.0953472
 0.09521898 0.09506667 0.09489092 0.09471231 0.0945325 0.09438002 0.09425284 0.09415592 0.09408202 0.09400439
 0.09392743 0.09384449 0.09377129 0.09373502 0.09373301 0.09377787 0.09384783 0.09392962 0.09400942 0.0940791
 0.09412192 0.09413534 0.09408467 0.09395806 0.09374934 0.09344894 0.09311409 0.0927475 0.09241995 0.09213542
 0.09191872 0.09176757 0.09165963 0.09158986 0.09151722 0.09144048 0.09132968 0.09119541 0.09104601 0.09089528
 0.09077401 0.09067707 0.09061323 0.09056646 0.09052563 0.09048423 0.09043746 0.09037668 0.090298 0.0901943
 0.09005674 0.08991874 0.08978143 0.08969633 0.08967181 0.08968852 0.08974575</values></Ydata></AB><ScSm><Ydata ylabel="Single channel"><values byteorder="INTEL" format="FLOAT32" numvalues="1814"> 0.06443134 0.06444231 0.06451449 0.06466746 0.06486812 0.06505322 0.0651765 0.06523713 0.06525747 0.06524342
 0.06519532 0.06515518 0.06520017 0.06536688 0.06559969 0.06578615 0.06584445 0.0657955 0.06575631 0.06582727
 0.06595878 0.06595744 0.06566779 0.0651511 0.06464877 0.0643574 0.06430155 0.06447216 0.06494976 0.06568161
 0.06622469 0.06606007 0.06524539 0.06444958 0.06420993 0.0644138 0.06461124 0.06453779 0.06419703 0.06375228
 0.06357045 0.06413007 0.06555416 0.06721449 0.06795114 0.066804 0.06369708 0.05965845 0.05644208 0.05559297
 0.05736598 0.06039923 0.06273267 0.06337202 0.06277689 0.06188691 0.06109863 0.06037582 0.05990706 0.06014522
 0.06119084 0.06237065 0.06258325 0.06123868 0.0589537 0.057115 0.05661261 0.05727619 0.0586131 0.06035966
 0.06173627 0.06099391 0.05711377 0.05201225 0.0497184 0.0525505 0.0586453 0.06378333 0.06515563 0.06295988
 0.05919251 0.05597733 0.05476312 0.05593479 0.05873071 0.06187435 0.06435952 0.06551306 0.0648125 0.0623235
 0.0591608 0.05696483 0.05689207 0.05914634 0.06293143 0.06653009 0.0680842 0.06696028 0.06416963 0.06129388
 0.05943852 0.0592317 0.06098019 0.06435794 0.06837982 0.07197337 0.07441695 0.07541393 0.07515916 0.07421701
 0.07308772 0.07211548 0.07179146 0.07246281 0.07353005 0.07365817 0.07222439 0.0701441 0.06892857 0.06911938
 0.06985189 0.06991336 0.06897593 0.06742459 0.0651675 0.06158005 0.05693455 0.05281769 0.05054746 0.05015191
 0.05130532 0.05386129 0.05674165 0.05783793 0.05631024 0.05410211 0.05402516 0.05675345 0.06044766 0.06299864
 0.06398658 0.06456194 0.06595674 0.06822322 0.07006578 0.0698203 0.06709734 0.06372137 0.06245412 0.06429255
 0.06750371 0.06975397 0.07057334 0.07114998 0.07224011 0.07300377 0.07187988 0.06843765 0.06440419 0.06261726
 0.06456017 0.06888156 0.07237774 0.07237914 0.06854776 0.06295288 0.05844859 0.05669884 0.05771171 0.06091001
 0.06578396 0.07133803 0.07581905 0.07769394 0.07677236 0.07412164 0.07084937 0.06708346 0.06253146 0.05815735
 0.05642557 0.0589894 0.06458934 0.07008916 0.0732832 0.07402951 0.07305656 0.07060349 0.06657398 0.0618007
 0.05851126 0.05862932 0.0614757 0.06411032 0.06441076 0.06302731 0.06191935 0.06189175 0.06225952 0.06233175
 0.06240099 0.06322882 0.064951 0.06676602 0.06770855 0.06753276 0.06676628 0.06609178 0.06573147 0.0652865
 0.064293 0.06312252 0.06298319 0.06461045 0.06726651 0.06949064 0.07057066 0.07083971 0.0707313 0.07001442
 0.06813525 0.06526734 0.06277213 0.06220472 0.06381187 0.06636494 0.06844641 0.06947812 0.06960237 0.069178
 0.06853153 0.06784466 0.06720245 0.06683339 0.06706452 0.0678715 0.06875143 0.06922942 0.0692614 0.06902263
 0.06856218 0.06784433 0.06698933 0.06630771 0.06608143 0.06634751 0.06690827 0.06751174 0.067958 0.06808817
 0.06783679 0.06732933 0.06679834 0.06637162 0.06604497 0.06584685 0.06587581 0.06613955 0.06647782 0.0667035
 0.06675337 0.06666961 0.06649973 0.06626232 0.06597847 0.06570143 0.0655154 0.06548809 0.0655963 0.06572673
 0.06579411 0.06582373 0.06586505 0.06587478 0.06576552 0.06554203 0.06531391 0.06518165 0.06515807 0.06518927
 0.06520365 0.06512855 0.06489895 0.06451106 0.06408736 0.06383245 0.06387168 0.06415637 0.06454237 0.06490393
 0.06515554 0.06525273 0.06522577 0.06515706 0.06508678 0.06497844 0.06479529 0.06458213 0.06445648 0.06451625
 0.06474611 0.06502431 0.06523266 0.06533777 0.06536697 0.06536221 0.06537137 0.06542104 0.06547314 0.06545857
 0.06537044 0.06528448 0.06527716 0.06534734 0.06542179 0.06543203 0.06538938 0.06537411 0.06544185 0.0655639
 0.06567514 0.06575185 0.06581882 0.06589606 0.06595825 0.06595288 0.06586396 0.06574818 0.06568272 0.06568393
 0.06571139 0.06574486 0.06581231 0.06593341 0.06607192 0.06616586 0.06619255 0.06618674 0.06619138 0.06620317
 0.06618258 0.06611229 0.0660229 0.06595936 0.06594042 0.06595394 0.06597459 0.06598012 0.06595971 0.06591432
 0.06585149 0.06577953 0.06570269 0.06562449 0.06556207 0.06554921 0.06560369 0.06568879 0.0657277 0.06567082
 0.06554317 0.06541751 0.06534262 0.06530438 0.0652566 0.06517874 0.06509225 0.06502831 0.06499696 0.064988
 0.06498504 0.06497476 0.06496057 0.06497559 0.06506372 0.06522822 0.06540781 0.06552549 0.06556195 0.06556559
 0.065593 0.06565921 0.06574509 0.06583311 0.06592946 0.06605742 0.06622428 0.06639458 0.06651722 0.066586
 0.06664979 0.06675677 0.06691425 0.06710464 0.06730406 0.06747753 0.06759521 0.0676711 0.06775787 0.06788868
 0.06804574 0.06819656 0.06833808 0.06848995 0.06866191 0.06884885 0.0690531 0.06929321 0.06958368 0.06990987
 0.07022703 0.0704893 0.0706885 0.07086847 0.07109436 0.07139987 0.07176176 0.07212346 0.07244222 0.0727182
 0.07298294 0.07326059 0.0735472 0.0738352 0.0741439 0.07450236 0.07490547 0.075312 0.07568937 0.07604182
 0.07639241 0.0767556 0.07713223 0.07751925 0.07791711 0.07832761 0.07874331 0.07914203 0.0795013 0.07982099
 0.08012726 0.08045499 0.08082479 0.08122379 0.08160394 0.08191777 0.082173 0.08243606 0.08276111 0.08312732
 0.0834716 0.08377299 0.08407277 0.08440927 0.08476809 0.08511259 0.0854386 0.08577476 0.086139 0.08651182
 0.08684988 0.0871195 0.08732365 0.08750132 0.08769651 0.08793078 0.08821224 0.08855243 0.08894886 0.08935939
 0.08972301 0.09000796 0.09022439 0.09040126 0.09057149 0.09076568 0.09099543 0.09124658 0.09149809 0.09173378
 0.09193506 0.09209384 0.09224351 0.09244317 0.09271439 0.09302291 0.0933371 0.09367025 0.0940403 0.09442091
 0.09477175 0.09510259 0.09546264 0.09586163 0.09623924 0.09652901 0.09672254 0.09685366 0.09695347 0.09705265
 0.0972002 0.09743536 0.09774239 0.09806129 0.09834209 0.0985726 0.09876163 0.09891884 0.09905419 0.09918274
 0.09932069 0.09947766 0.09965678 0.0998652 0.1001203 0.1004341 0.100788 0.1011334 0.101421 0.1016232
 0.1017257 0.1017218 0.1016301 0.1015036 0.1013898 0.1012766 0.1010968 0.1007884 0.1003395 0.09977517
 0.09912074 0.09839294 0.09761956 0.09685656 0.09618153 0.09566993 0.09537452 0.09532395 0.09552918 0.09597428
 0.09659572 0.0972846 0.09792144 0.09840705 0.09866563 0.09864491 0.0983378 0.09779832 0.09711967 0.0963929
 0.09568477 0.0950354 0.09446104 0.09397119 0.09360505 0.09345183 0.09362449 0.09420812 0.0952225 0.09660947
 0.09823926 0.09994124 0.1015591 0.103001 0.1042508 0.1053396 0.1063089 0.1071975 0.1080418 0.1088643
 0.1096575 0.1103944 0.1110585 0.1116571 0.1122023 0.1126924 0.1131118 0.1134412 0.1136728 0.1138243
 0.1139348 0.1140375 0.114144 0.1142569 0.11438 0.114503 0.1145882 0.1145849 0.1144583 0.114208
 0.1138829 0.1135952 0.1135146 0.1138199 0.1146204 0.1158963 0.1175018 0.1192348 0.1209174 0.1224335
 0.123727 0.1247954 0.1256838 0.12646 0.1271792 0.1278698 0.1285436 0.1292036 0.1298442 0.1304566
 0.1310439 0.1316243 0.1322156 0.1328175 0.1334086 0.1339647 0.1344788 0.1349684 0.135463 0.1359844
 0.1365304 0.1370782 0.1376075 0.1381196 0.1386245 0.1391169 0.1395803 0.140014 0.1404409 0.1408866
 0.1413601 0.1418535 0.1423444 0.1428026 0.1432099 0.1435763 0.1439305 0.1442939 0.1446685 0.1450453
 0.1454159 0.1457751 0.1461211 0.1464609 0.1468096 0.1471743 0.1475392 0.1478759 0.1481733 0.1484497
 0.1487321 0.1490315 0.149339 0.1496416 0.1499386 0.1502469 0.1505892 0.1509705 0.151366 0.1517394
 0.1520715 0.1523728 0.1526694 0.1529831 0.1533207 0.1536731 0.154022 0.1543523 0.1546657 0.1549789
 0.155307 0.1556492 0.1559923 0.1563228 0.1566334 0.1569243 0.157204 0.1574869 0.157786 0.1581067
 0.158448 0.158802 0.159155 0.1594914 0.1598024 0.16009 0.1603636 0.160636 0.1609206 0.1612276
 0.1615581 0.1619029 0.1622495 0.1625909 0.1629272 0.1632617 0.1635969 0.1639341 0.1642731 0.1646119
 0.1649492 0.1652861 0.1656228 0.1659549 0.1662772 0.1665915 0.166905 0.1672237 0.167548 0.1678743
 0.1681956 0.1685062 0.1688086 0.169112 0.1694232 0.1697425 0.1700669 0.1703921 0.1707126 0.1710269
 0.1713397 0.1716548 0.171968 0.1722723 0.1725676 0.1728611 0.1731589 0.1734623 0.1737702 0.1740825
 0.1743989 0.1747159 0.1750285 0.1753327 0.1756285 0.1759211 0.1762195 0.1765272 0.1768368 0.177139
 0.1774349 0.1777305 0.1780241 0.1783082 0.178584 0.178862 0.1791505 0.1794469 0.1797413 0.1800272
 0.1803091 0.1805963 0.18089 0.1811826 0.1814683 0.1817477 0.1820242 0.1823027 0.1825887 0.1828814
 0.1831732 0.1834595 0.1837453 0.1840388 0.1843419 0.1846459 0.1849386 0.1852169 0.1854913 0.1857714
 0.1860539 0.1863314 0.1866038 0.1868747 0.1871461 0.187419 0.187693 0.1879669 0.1882445 0.1885335
 0.1888336 0.189137 0.1894396 0.1897413 0.1900385 0.1903273 0.1906103 0.1908925 0.1911779 0.1914694
 0.1917639 0.1920527 0.1923354 0.1926228 0.19292 0.1932201 0.1935173 0.1938131 0.1941105 0.1944108
 0.194712 0.1950083 0.1952973 0.1955853 0.1958747 0.1961599 0.1964397 0.1967198 0.1969997 0.1972743
 0.1975458 0.1978181 0.1980903 0.1983649 0.1986475 0.1989347 0.1992179 0.1994973 0.1997743 0.2000463
 0.2003163 0.2005909 0.2008661 0.2011352 0.2014028 0.201674 0.2019462 0.2022192 0.2024914 0.2027391
 0.2029089 0.2028757 0.2023257 0.2006309 0.1968373 0.1898577 0.1789062 0.1639971 0.1461113 0.1268423
 0.107809 0.09024474 0.07488556 0.06205898 0.05183467 0.04412813 0.03876901 0.03560997 0.03464194 0.03610973
 0.04063335 0.0488467 0.06002582 0.07084791 0.07664953 0.07508574 0.06836782 0.06125259 0.05707829 0.05611695
 0.05696592 0.05841026 0.06005909 0.0621286 0.0649984 0.06878026 0.07329205 0.07852016 0.08485643 0.09260533
 0.1013729 0.110221 0.1184759 0.1262625 0.1341974 0.1426416 0.1513172 0.1595827 0.166949 0.1733254
 0.1789135 0.1839824 0.1887183 0.193206 0.1974819 0.2015382 0.2052387 0.2082777 0.2103211 0.2112582
 0.2113309 0.2110009 0.2106784 0.2105608 0.2106736 0.2109855 0.2114649 0.212087 0.2128375 0.2136997
 0.2146306 0.2155721 0.216488 0.2173729 0.2182273 0.219041 0.2197999 0.2204957 0.2211297 0.2217079
 0.2222354 0.2227162 0.2231601 0.223579 0.2239757 0.2243492 0.2247051 0.2250508 0.2253818 0.2256864
 0.2259589 0.2262054 0.2264383 0.2266705 0.2269084 0.227149 0.227386 0.2276173 0.2278444 0.2280696
 0.2282952 0.2285197 0.2287377 0.2289479 0.2291572 0.2293701 0.2295822 0.2297897 0.2299989 0.230218
 0.2304457 0.2306733 0.2308935 0.2311069 0.2313204 0.2315408 0.2317688 0.2320022 0.2322395 0.2324775
 0.2327123 0.2329458 0.2331847 0.2334307 0.2336808 0.2339353 0.2341937 0.2344499 0.2347037 0.2349644
 0.2352313 0.2354814 0.2356935 0.2358748 0.2360591 0.2362796 0.2365408 0.2368147 0.2370673 0.2372882
 0.2374889 0.237683 0.2378764 0.2380705 0.2382703 0.2384974 0.2387813 0.2391208 0.2394723 0.2397964
 0.2400921 0.2403748 0.2406528 0.2409349 0.2412203 0.2414758 0.2416606 0.2417912 0.2419556 0.2422448
 0.2426651 0.2431242 0.2435162 0.2438148 0.2440715 0.2443463 0.2446674 0.2450092 0.2452651 0.2453184
 0.2452167 0.2452093 0.2455217 0.246131 0.2468226 0.2474113 0.2478543 0.2482018 0.2485058 0.2487672
 0.2489371 0.2489763 0.2489414 0.2490053 0.249337 0.2499258 0.2505718 0.251086 0.2514399 0.2517009
 0.2519231 0.2521305 0.252277 0.2521937 0.2517655 0.2512356 0.2511409 0.2517936 0.2529261 0.2539736
 0.2546328 0.2550203 0.2553519 0.2556771 0.2559386 0.2560278 0.2556688 0.254574 0.2530071 0.2519437
 0.252271 0.2538971 0.2559049 0.2574643 0.2583577 0.2587879 0.2590254 0.2592275 0.2593199 0.2589983
 0.2580687 0.2569049 0.2563595 0.2569745 0.2583733 0.259668 0.26037 0.2606521 0.2608697 0.2611565
 0.261335 0.2608773 0.2591993 0.2565173 0.2542903 0.2542073 0.2565425 0.2598292 0.2623095 0.2634512
 0.263839 0.263896 0.2632641 0.2614646 0.2586245 0.2554277 0.252894 0.2522358 0.2540643 0.2573782
 0.2601209 0.2612094 0.2614612 0.262244 0.2638369 0.2654293 0.2661793 0.2658678 0.2647528 0.2631082
 0.2610897 0.2591568 0.2583367 0.2595045 0.2623237 0.2653547 0.2673863 0.2683583 0.2687479 0.2681673
 0.265061 0.2585638 0.2508691 0.2466636 0.2490015 0.2561046 0.2632703 0.2675111 0.2692203 0.2699692
 0.2703825 0.2699706 0.2674332 0.2613572 0.2524232 0.2448407 0.2435333 0.2492783 0.2578293 0.2638839
 0.2647201 0.2605149 0.2533907 0.2467746 0.244009 0.2463283 0.2523062 0.2592742 0.264938 0.2680129
 0.2682039 0.2660748 0.2630038 0.2608557 0.2606469 0.2610555 0.2594035 0.2550267 0.2503696 0.2474067
 0.2446001 0.239757 0.2348011 0.234544 0.240427 0.2481348 0.2524424 0.2525216 0.2510783 0.2494202
 0.2452558 0.2360074 0.2236452 0.2148393 0.2151299 0.2231873 0.2319879 0.2356778 0.2342395 0.2315289
 0.2301619 0.2289256 0.2246561 0.2164346 0.2077674 0.2036689 0.2053382 0.2090511 0.2105613 0.2085301
 0.203137 0.1946612 0.185797 0.182603 0.1894373 0.2036335 0.2175536 0.2249107 0.2231531 0.2120913
 0.1946601 0.1787258 0.1733527 0.180746 0.1936165 0.2018856 0.2007446 0.1916381 0.1779555 0.1626063
 0.1492978 0.1430506 0.1472354 0.1601596 0.1750916 0.1836485 0.1804232 0.1671051 0.1528399 0.1476899
 0.1535484 0.1628146 0.1669312 0.1641808 0.1586206 0.1547442 0.1548194 0.1585467 0.1634383 0.1671233
 0.1692776 0.1691518 0.162991 0.1485397 0.1313318 0.1211577 0.121871 0.1293026 0.1390821 0.1506087
 0.1619505 0.1670949 0.1626695 0.1542869 0.1518337 0.1589858 0.170007 0.1767631 0.1767944 0.1738645
 0.1720898 0.1714929 0.1699896 0.1681803 0.1696053 0.1758552 0.1837945 0.1890458 0.1905626 0.190297
 0.1898713 0.1893398 0.1883019 0.1866204 0.1843468 0.1818389 0.179667 0.1779742 0.1763499 0.1744745
 0.1721257 0.1682647 0.1612595 0.1512187 0.1414791 0.1360158 0.1352773 0.1363744 0.1373827 0.1385507
 0.138338 0.1321669 0.1184506 0.1036824 0.09775709 0.104424 0.1184802 0.131718 0.1391816 0.139618
 0.1330954 0.1213659 0.1101298 0.1072791 0.1164138 0.1333538 0.1506516 0.1640439 0.1729 0.1766371
 0.1740962 0.1663405 0.1577515 0.1535496 0.1566563 0.1663753 0.1785254 0.1864202 0.1841316 0.1724084
 0.161457 0.1634406 0.1796498 0.1983226 0.2078404 0.208555 0.2082112 0.2098726 0.2103146 0.2085379
 0.2092762 0.2165129 0.2276017 0.2358505 0.2364257 0.2283004 0.2135618 0.1977765 0.1886013 0.1897807
 0.1970205 0.2027235 0.2034093 0.1994229 0.190431 0.1771447 0.1660847 0.1657557 0.1767907 0.1906286
 0.1992449 0.202505 0.204706 0.2071344 0.2065082 0.1999884 0.1898943 0.1822983 0.1810146 0.1842444
 0.1876514 0.1889642 0.1880969 0.1845786 0.1777972 0.1697769 0.1652538 0.1676119 0.1754318 0.1838558
 0.1889744 0.1903194 0.1897174 0.1889261 0.1884237 0.1875653 0.1858089 0.1843182 0.1857502 0.1913508
 0.1988594 0.2047623 0.2082997 0.2117481 0.2168363 0.2223356 0.2255324 0.2251899 0.2227526 0.2211363
 0.2224279 0.2262296 0.2299344 0.23095 0.2291676 0.2272818 0.2282891 0.2326041 0.2379649 0.2419889
 0.244125 0.2451967 0.2460116 0.2466751 0.2465414 0.2447271 0.2414083 0.2386022 0.2387612 0.2423396
 0.2473348 0.2513189 0.253371 0.2539975 0.2538679 0.2531013 0.2515969 0.2496371 0.2479276 0.2470635
 0.2471106 0.2477334 0.248557 0.24933 0.2499151 0.2502899 0.2505221 0.2506814 0.2508032 0.2509274
 0.2510809 0.2512101 0.2512259 0.2511535 0.2511559 0.2513499 0.251654 0.2518737 0.2518779 0.2516122
 0.251 0.2499671 0.2485682 0.2469727 0.2452817 0.2434636 0.2415723 0.2399904 0.239323 0.2399472
 0.2416603 0.2438046 0.245724 0.2470922 0.247898 0.2482743 0.2483879 0.2483937 0.2483891 0.2483903
 0.2483651 0.2482893 0.2481669 0.2480131 0.2478381 0.2476573 0.2475071 0.2474293 0.2474312 0.2474663
 0.2474616 0.247369 0.2471963 0.2469896 0.2467793 0.2465407 0.2462074 0.2457253 0.2450951 0.2443704
 0.2436227 0.2429037 0.2422215 0.2415384 0.2407987 0.2399679 0.2390291 0.2379476 0.2366847 0.2352775
 0.2338636 0.2325763 0.2314353 0.2303622 0.2292725 0.2281186 0.2268775 0.2255454 0.2241443 0.2227085
 0.2212568 0.2197805 0.2182574 0.2166735 0.2150289 0.2133267 0.2115666 0.2097551 0.207908 0.206032
 0.2041001 0.2020443 0.1997664 0.1971607 0.194135 0.1906224 0.1866005 0.1821224 0.1773322 0.1724357
 0.1676419 0.1631146 0.1589591 0.155242 0.1520189 0.1493409 0.1472415 0.1457363 0.144835 0.1445455
 0.1448645 0.1457659 0.147191 0.1490435 0.1511995 0.153517 0.1558347 0.1579922 0.1598926 0.1615557
 0.1630902 0.1646017 0.1661183 0.1675975 0.1689899 0.170276 0.171444 0.1724628 0.1733055 0.1739813
 0.1745206 0.1749405 0.1752454 0.1754484 0.1755776 0.1756666 0.1757473 0.1758474 0.1759935 0.1762156
 0.1765378 0.1769649 0.1774829 0.1780728 0.1787205 0.1794186 0.1801619 0.180938 0.1817318 0.1825494
 0.1834275 0.1844098 0.1855248 0.1867961 0.1882572 0.1899381 0.1918296 0.1938632 0.1959295 0.1979226
 0.1997626 0.2013854 0.2027396 0.2038027 0.2045843 0.2051083 0.2054092 0.2055341 0.2055155 0.2053525
 0.2050403 0.2046078 0.2041029 0.2035546 0.2029708 0.2023596 0.2017391 0.2011312 0.2005517 0.2000037
 0.1994799 0.1989711 0.1984718 0.1979843 0.1975185 0.1970772 0.1966397 0.1961729 0.1956585 0.1950994
 0.1945043 0.1938725 0.1931848 0.1924044 0.1914977 0.1904595 0.1893076 0.1880602 0.18673 0.1853338
 0.1838959 0.1824394 0.1809745 0.1794917 0.177972 0.1763995 0.1747506 0.172987 0.1710972 0.1691445
 0.1672428 0.1654764 0.1638573 0.1623462 0.1608956 0.159478 0.1580935 0.156757 0.1554793 0.1542617
 0.1530975 0.1519743 0.1508859 0.1498437 0.1488707 0.1479866 0.1472046 0.1465304 0.1459528 0.1454468
 0.144991 0.1445781 0.1442154 0.1439253 0.1437298 0.1436148 0.1435204 0.1433778 0.143155 0.1428649
 0.1425432 0.1422187 0.1419045 0.141613 0.1413604 0.1411351 0.1408713 0.1404739 0.1398614 0.1389788
 0.1378011 0.1363508 0.1347009 0.1329517 0.1312114 0.1295867 0.1281693 0.1270176 0.1261418 0.1254928
 0.1249771 0.1245179 0.1241108 0.1238165 0.1237002 0.1237571 0.1238796 0.12392 0.1238245 0.1236899
 0.1236719 0.1238597 0.1242408 0.1247329 0.1252264 0.1256342 0.1259208 0.1260855 0.1261371 0.1260931
 0.1259735 0.1257844 0.1255289 0.1252176 0.1248516 0.1244206 0.1239294 0.123395 0.1228166 0.1221809
 0.1214828 0.1207189 0.1198839 0.1189791 0.1179878 0.1168697 0.1156529 0.1145183 0.1137226 0.1134319
 0.1136317 0.1141582 0.1148177 0.1155062 0.1161743 0.1166708 0.1167868 0.1165896 0.1165881 0.1173533
 0.1189563 0.1208836 0.1225055 0.1235233 0.1239652 0.1239277 0.1234577 0.1225895 0.1213339 0.1196643
 0.1176041 0.1152636 0.1127491 0.1101496 0.1076224 0.1053548 0.1034414 0.1018844 0.1006571 0.099778
 0.09934613 0.09905404 0.09737204 0.09234326 0.08459871 0.07873745 0.079496 0.0864317 0.09419474 0.09818103
 0.09822468 0.09675419 0.09546714 0.09464007 0.09420364 0.09427059 0.09492192 0.09601547 0.09721945 0.09820414
 0.09884162 0.09916125 0.09911501 0.09842275 0.096542 0.09282129 0.08700718 0.07975374 0.07243305 0.06632525
 0.06202368 0.05944269 0.05810184 0.05741706 0.05698654 0.0567664 0.05698577 0.05787564 0.05946632 0.0616169
 0.06415687 0.06689186 0.06951297 0.07169846 0.07336703 0.07468634 0.07578918 0.07661323 0.07703946 0.07705379
 0.07673946 0.0762064 0.07555869 0.07486914 0.07413776 0.07329486 0.07231116 0.07132817 0.07059894 0.07024714
 0.0701615 0.07016428 0.07017902 0.07019801 0.07020661 0.07019362 0.07017167 0.07018241 0.07030822 0.07061545
 0.07104711 0.07144061 0.07167571 0.07175937 0.07177538 0.07177114 0.07166356 0.07130533 0.07072534 0.07018371
 0.06982175 0.06939423 0.06859018 0.06753378 0.06672289 0.06649458 0.06672774 0.06704981 0.06717975 0.0670661
 0.06684805 0.06677145 0.06703722 0.06758368</values></Ydata></ScSm><ScRf><Ydata ylabel="Single channel"><values byteorder="INTEL" format="FLOAT32" numvalues="1820"> 0.06079742 0.06095802 0.06105526 0.06108885 0.06108533 0.06109134 0.06115527 0.06129877 0.06149816 0.06169256
 0.06182367 0.06187697 0.06187522 0.06183673 0.06177131 0.06171966 0.06175225 0.06190167 0.06211342 0.06227856
 0.062319 0.06225833 0.06221256 0.06227557 0.06239076 0.06236655 0.06205897 0.06153831 0.0610427 0.06075842
 0.06070339 0.06086536 0.0613204 0.0620175 0.06253184 0.06236653 0.06157719 0.06080428 0.06056264 0.06074688
 0.06092842 0.06085215 0.06051727 0.06007987 0.05989422 0.06041703 0.06175908 0.0633148 0.06397945 0.06284704
 0.05985975 0.0560113 0.0529755 0.0522068 0.05391838 0.05679438 0.05897643 0.05954469 0.05895882 0.05811676
 0.05738588 0.05671831 0.05628114 0.05649663 0.05746043 0.05854194 0.05870895 0.05741485 0.05525116 0.05352505
 0.05306338 0.0536964 0.05496239 0.05661029 0.05788439 0.05712115 0.05338656 0.04854369 0.04642253 0.04918181
 0.05500487 0.05987035 0.06112847 0.05899766 0.05540379 0.05237739 0.05127534 0.05242296 0.05507405 0.05802787
 0.06034861 0.06140284 0.06070094 0.05832527 0.05534576 0.05330259 0.05326533 0.05541424 0.05899356 0.0623749
 0.06380108 0.06268691 0.06000906 0.05727641 0.05553505 0.05536772 0.05704707 0.06025388 0.06405958 0.06745726
 0.06976452 0.07069698 0.07044116 0.06954017 0.06847739 0.06758239 0.06730995 0.06796451 0.06895988 0.06904175
 0.06765192 0.06567923 0.0645484 0.06474977 0.06544949 0.06550048 0.06459942 0.06311043 0.06094232 0.05751262
 0.05310166 0.04922311 0.04711368 0.04678756 0.04793721 0.0504179 0.05318351 0.05422238 0.05275913 0.05066383
 0.05059994 0.05318271 0.05665851 0.05904555 0.05997268 0.06054147 0.06190665 0.06409031 0.06584129 0.0655816
 0.06297252 0.05978569 0.05864993 0.06047257 0.06356759 0.06572686 0.06654696 0.06717873 0.06831856 0.06913148
 0.06812548 0.06492549 0.06121787 0.05970298 0.06174196 0.06599419 0.06938887 0.06939313 0.06571782 0.0603887
 0.05617 0.05464945 0.05581526 0.05911524 0.06406756 0.06969817 0.07428293 0.07631011 0.0755767 0.07311718
 0.07001869 0.06640828 0.06200826 0.05781068 0.05629778 0.05910333 0.06492934 0.07062677 0.0740079 0.07494172
 0.07413249 0.07177397 0.06775942 0.06299881 0.05984644 0.06026968 0.06347801 0.06637119 0.06678377 0.06546196
 0.06447165 0.06462863 0.06518943 0.06543357 0.06569664 0.06679693 0.06885943 0.07100449 0.07219402 0.0721706
 0.07150836 0.07095127 0.07073871 0.07042588 0.06951526 0.06844774 0.06855419 0.07058904 0.07368533 0.07624565
 0.07754657 0.07799886 0.07807101 0.07746629 0.0755465 0.07252166 0.06994177 0.06954935 0.07159403 0.07467066
 0.07718122 0.07848997 0.07878203 0.07848193 0.07796047 0.07741467 0.07693683 0.07677969 0.07729146 0.07841921
 0.07959215 0.08029409 0.08048803 0.08036012 0.07995228 0.07924056 0.07840198 0.0778139 0.07778051 0.07830524
 0.07914142 0.08001198 0.08070566 0.08103277 0.08089164 0.08042002 0.07991741 0.07957065 0.07938391 0.07936896
 0.07961556 0.08012 0.08069333 0.08111978 0.08132935 0.08137555 0.08131748 0.08117577 0.08097103 0.08077158
 0.08069402 0.08082227 0.0811052 0.08139019 0.08160125 0.08181443 0.08209272 0.0823286 0.08235587 0.08217278
 0.08195404 0.08185916 0.08190557 0.08201654 0.08210934 0.08210462 0.08191781 0.0815376 0.08112349 0.08093955
 0.08114076 0.08166437 0.08233271 0.08297871 0.0834678 0.0837222 0.08378076 0.08375886 0.08371291 0.0836
 0.08338693 0.08315195 0.08305911 0.08323377 0.0836504 0.08414401 0.0845425 0.08477487 0.08486786 0.08490542
 0.0849946 0.08518358 0.08538692 0.08546507 0.08539902 0.08532182 0.0853581 0.08548369 0.08556728 0.08552614
 0.08542116 0.08539519 0.08552495 0.08575349 0.08597215 0.08614066 0.08630668 0.08651663 0.08672401 0.08680667
 0.08669771 0.08648119 0.0863129 0.08625822 0.08626886 0.08631179 0.08643305 0.08665948 0.08690554 0.08704225
 0.08704168 0.08700341 0.08702967 0.08710726 0.08713368 0.08703983 0.08685938 0.08668839 0.08660573 0.08662955
 0.08671886 0.08680197 0.08681931 0.0867582 0.08665167 0.08654235 0.08645174 0.08639283 0.08640404 0.08653584
 0.08677608 0.08700432 0.087064 0.0869032 0.08663361 0.08643171 0.0863777 0.08639604 0.08634956 0.08617409
 0.08591552 0.08566022 0.08545825 0.08530958 0.08519347 0.0850983 0.08503971 0.08505936 0.08518282 0.0853568
 0.08545072 0.08536123 0.0851157 0.08484522 0.08466238 0.08458836 0.0845779 0.0845753 0.0845591 0.08456149
 0.08462562 0.08472504 0.08476627 0.08469886 0.08458319 0.0845261 0.08458909 0.0847669 0.08499569 0.08516479
 0.08518365 0.08507258 0.08495134 0.08491921 0.08497605 0.08506629 0.08515622 0.0852454 0.08533521 0.08542359
 0.08552742 0.08568364 0.08591345 0.08618829 0.08643894 0.08660599 0.0866919 0.08676755 0.08692037 0.08718526
 0.087521 0.08784861 0.08811238 0.08831281 0.08849002 0.08867589 0.08886857 0.08906118 0.08927815 0.08955367
 0.08988055 0.09021173 0.0905139 0.09079413 0.09107424 0.09136328 0.09166077 0.09197536 0.09233283 0.09275277
 0.09320347 0.09359446 0.09384589 0.0939699 0.09406903 0.09425819 0.09458651 0.09500101 0.09536903 0.09557748
 0.09564704 0.0957208 0.09590857 0.09617458 0.09641866 0.09663339 0.09691708 0.09733155 0.09780307 0.0981902
 0.09842599 0.09857142 0.09873501 0.09895486 0.0991683 0.09929919 0.09935643 0.09941997 0.09954084 0.09970479
 0.09990478 0.1001884 0.1005878 0.1010418 0.1014382 0.1017192 0.1019072 0.1020494 0.1021716 0.1022729
 0.1023378 0.1023631 0.1023835 0.1024465 0.1025485 0.1026312 0.1026603 0.1026752 0.10274 0.1028797
 0.1030872 0.1033573 0.1036721 0.1039803 0.1042438 0.1045021 0.1048326 0.1052281 0.1055665 0.1057413
 0.1057801 0.1057886 0.1058187 0.105854 0.1059042 0.106032 0.1062769 0.1066056 0.106959 0.1073117
 0.1076672 0.1080209 0.1083413 0.1085807 0.1087039 0.1087173 0.1086782 0.1086719 0.1087717 0.1090019
 0.1093245 0.1096625 0.1099494 0.1101524 0.110255 0.1102507 0.1101817 0.1101523 0.1102495 0.1104428
 0.1105946 0.1105778 0.1103613 0.1099812 0.1094725 0.1088557 0.1081733 0.1075088 0.1069539 0.1065625
 0.1063451 0.1063113 0.1064979 0.1069303 0.1075583 0.1082623 0.1089237 0.1094593 0.1097855 0.109808
 0.1094867 0.1088898 0.108153 0.1074008 0.1067089 0.1060983 0.1055341 0.1049698 0.1044414 0.1041056
 0.1041593 0.1047201 0.1057741 0.1071884 0.1087482 0.1102203 0.111448 0.1124135 0.1132035 0.1139127
 0.114586 0.1152402 0.1158999 0.1165758 0.1172258 0.117785 0.1182394 0.1186392 0.1190337 0.1194222
 0.1197716 0.1200551 0.1202773 0.1204748 0.1206802 0.1208698 0.1209746 0.1209597 0.1208653 0.1207528
 0.1206341 0.1204708 0.1202184 0.1198592 0.1194273 0.1190333 0.118856 0.1190713 0.1197488 0.1208022
 0.1220534 0.123352 0.1246181 0.1257803 0.1267354 0.1274125 0.1278466 0.1281485 0.1284157 0.1286934
 0.1289929 0.1293093 0.129626 0.1299243 0.1301994 0.1304672 0.1307564 0.1310847 0.1314336 0.1317569
 0.1320263 0.1322675 0.1325419 0.132887 0.1332756 0.1336416 0.1339537 0.1342468 0.134565 0.1348896
 0.1351597 0.1353532 0.1355157 0.1357108 0.135975 0.1363102 0.136681 0.1370196 0.1372718 0.1374472
 0.1376058 0.1377963 0.1380235 0.1382707 0.1385258 0.1387813 0.1390302 0.139277 0.1395438 0.1398457
 0.1401566 0.1404193 0.1406005 0.1407289 0.1408661 0.1410481 0.1412635 0.1414799 0.1416843 0.1419008
 0.1421695 0.1424977 0.1428341 0.1431046 0.1432775 0.1433855 0.1434885 0.1436267 0.1438079 0.1440198
 0.1442456 0.1444702 0.1446863 0.1448968 0.1451113 0.1453343 0.1455569 0.1457641 0.1459512 0.1461302
 0.1463178 0.1465197 0.1467344 0.1469703 0.1472449 0.1475565 0.1478651 0.1481178 0.1482953 0.1484216
 0.1485348 0.1486609 0.1488124 0.1489927 0.1491942 0.1494017 0.1496052 0.1498055 0.1500083 0.1502139
 0.1504181 0.1506213 0.1508298 0.1510481 0.1512734 0.151502 0.1517327 0.1519605 0.1521735 0.1523645
 0.1525411 0.1527196 0.1529121 0.1531166 0.1533209 0.1535144 0.1537 0.153889 0.1540839 0.1542768
 0.154463 0.1546474 0.1548364 0.1550325 0.1552368 0.1554484 0.1556604 0.1558635 0.1560558 0.1562447
 0.1564375 0.1566319 0.1568197 0.1569993 0.157179 0.1573672 0.157564 0.157768 0.1579824 0.1582079
 0.1584351 0.158651 0.158851 0.1590408 0.1592279 0.1594164 0.1596087 0.1598068 0.1600087 0.1602083
 0.1604037 0.1605994 0.1607998 0.1610031 0.1612062 0.1614104 0.1616186 0.1618317 0.1620484 0.162267
 0.1624856 0.162704 0.1629217 0.1631366 0.163348 0.1635601 0.1637773 0.1639961 0.1642083 0.1644082
 0.1645947 0.1647711 0.1649429 0.165113 0.1652804 0.1654463 0.1656183 0.1658012 0.1659917 0.1661825
 0.1663704 0.166559 0.1667563 0.1669668 0.1671849 0.1674005 0.167609 0.1678106 0.1680056 0.1681965
 0.1683902 0.1685911 0.1687981 0.1690073 0.1692146 0.1694199 0.1696285 0.1698439 0.1700605 0.1702726
 0.170484 0.1706999 0.1709191 0.1711389 0.171358 0.1715711 0.1717732 0.1719701 0.172172 0.1723811
 0.1725938 0.1728071 0.1730177 0.1732253 0.1734335 0.1736422 0.1738473 0.1740506 0.1742582 0.174468
 0.1746775 0.1748946 0.1751254 0.1753603 0.1755846 0.1757933 0.1759921 0.1761915 0.1763992 0.1766097
 0.1768133 0.1770126 0.1772132 0.1774014 0.1775335 0.1774949 0.1769969 0.1754733 0.1720781 0.1658591
 0.1561396 0.1429494 0.1271622 0.1101836 0.09343495 0.07799359 0.06449927 0.05324098 0.0442861 0.0375592
 0.03289995 0.03016811 0.02935132 0.03066832 0.03467453 0.04192972 0.0517731 0.06124725 0.06625263 0.06478269
 0.05884238 0.0526221 0.04901468 0.04821584 0.04897926 0.05024587 0.05168405 0.05349217 0.05600863 0.05933288
 0.06330547 0.06791685 0.07351069 0.08034354 0.08805338 0.09580931 0.1030271 0.1098285 0.1167636 0.1241549
 0.1317627 0.1390213 0.1454901 0.1510803 0.1559739 0.1604207 0.1645887 0.1685439 0.1723094 0.1758766
 0.1791245 0.1817798 0.1835464 0.1843352 0.1843734 0.1840773 0.1838066 0.1837229 0.1838355 0.1841138
 0.1845368 0.1850849 0.1857369 0.1864739 0.1872732 0.1881058 0.1889416 0.1897533 0.1905205 0.1912371
 0.1919061 0.1925275 0.1930979 0.1936182 0.1940903 0.1945153 0.1949021 0.1952705 0.1956368 0.1960024
 0.1963572 0.1966859 0.1969758 0.1972262 0.1974497 0.1976627 0.1978766 0.1980971 0.1983234 0.1985481
 0.198764 0.19897 0.1991705 0.1993724 0.1995817 0.1997976 0.2000116 0.2002165 0.2004134 0.2006086
 0.2008065 0.2010076 0.2012085 0.2014041 0.2015941 0.2017826 0.2019718 0.2021594 0.2023446 0.2025308
 0.2027214 0.2029178 0.2031201 0.2033262 0.2035335 0.2037443 0.2039616 0.2041809 0.2043947 0.204605
 0.204818 0.2050326 0.2052441 0.2054522 0.2056549 0.2058407 0.2059999 0.2061428 0.2062989 0.2064932
 0.2067218 0.2069527 0.2071579 0.2073398 0.2075224 0.2077228 0.2079359 0.2081409 0.2083245 0.2085028
 0.2087109 0.2089606 0.2092263 0.2094811 0.2097224 0.2099548 0.2101776 0.2103994 0.2106284 0.2108448
 0.2110149 0.2111437 0.211295 0.2115408 0.2118894 0.2122675 0.2125871 0.2128274 0.2130348 0.2132616
 0.2135286 0.2138077 0.214005 0.214024 0.213914 0.2138968 0.2141661 0.214693 0.2152827 0.2157749
 0.216141 0.2164322 0.2166941 0.2169229 0.2170701 0.2170961 0.2170499 0.2170883 0.2173619 0.2178569
 0.2183948 0.218819 0.2191201 0.2193609 0.2195759 0.2197717 0.2199029 0.2198204 0.2194198 0.2189141
 0.2187839 0.2193172 0.2202882 0.2211993 0.221774 0.2221029 0.2223721 0.2226328 0.2228455 0.2229194
 0.2226094 0.2216589 0.2202995 0.2193868 0.2196929 0.2211265 0.2228801 0.2242374 0.2250247 0.2254268
 0.2256725 0.2258852 0.2259911 0.2257276 0.2249366 0.2239539 0.2235256 0.224119 0.2253966 0.2265742
 0.2272182 0.2274767 0.2276657 0.2279188 0.2280959 0.227733 0.2263056 0.2240017 0.2221121 0.2221176
 0.2242382 0.2271701 0.2293801 0.2304233 0.2308194 0.2309203 0.2303874 0.2287979 0.2262849 0.2234765
 0.2212854 0.2207779 0.2224728 0.2254638 0.2279317 0.2289355 0.2292071 0.2299519 0.2314172 0.2328921
 0.2336255 0.2334065 0.2324608 0.2310488 0.2293279 0.2277108 0.2271006 0.2282597 0.2308765 0.2336669
 0.2355574 0.2365032 0.2369325 0.2364883 0.2337715 0.2280236 0.2212333 0.2175884 0.2197807 0.2261931
 0.232636 0.2364706 0.2380649 0.238827 0.239313 0.2390656 0.2368924 0.2315307 0.2236381 0.2170248
 0.2160736 0.2214087 0.2291904 0.2346945 0.235522 0.2318523 0.2256014 0.2198473 0.2175683 0.2198463
 0.225403 0.2318602 0.2371585 0.240128 0.2404911 0.2387565 0.236182 0.2344672 0.2345179 0.2351062
 0.2338096 0.2300709 0.2261246 0.2237177 0.2214137 0.2172556 0.21307 0.2132589 0.2190738 0.2265108
 0.2308042 0.2312528 0.2303552 0.229267 0.2258339 0.2176985 0.206769 0.1993149 0.2004881 0.2089699
 0.2181408 0.2225591 0.2222873 0.2209614 0.2209526 0.2209505 0.2178071 0.2106386 0.2029491 0.1996952
 0.2020115 0.2061945 0.2080982 0.2064499 0.2014216 0.1933031 0.1848634 0.1822088 0.1896461 0.2044208
 0.2188635 0.2266961 0.2253356 0.2145435 0.1973365 0.1818392 0.1773372 0.185964 0.2001083 0.209408
 0.2089809 0.2003236 0.1868887 0.1717062 0.1587791 0.1535583 0.1597019 0.1753536 0.1931144 0.2037043
 0.2011109 0.187295 0.1726421 0.1684983 0.1768214 0.1887917 0.194668 0.192623 0.1873971 0.1842161
 0.1857749 0.1917083 0.1989796 0.2047492 0.2086395 0.2095245 0.2024912 0.1847398 0.1633802 0.1507391
 0.1515688 0.1606387 0.1725851 0.1867219 0.2005899 0.206656 0.2007959 0.1900759 0.1867224 0.1951419
 0.2081546 0.2157812 0.2151241 0.2108957 0.2081572 0.206938 0.2047431 0.2023682 0.2041146 0.2118421
 0.2217125 0.2284791 0.2309509 0.2315053 0.2320604 0.232619 0.2326426 0.2319409 0.2305889 0.2290494
 0.2280326 0.2277017 0.2275205 0.2270635 0.2259943 0.2228351 0.2152851 0.2034473 0.1918831 0.1859994
 0.1863216 0.1888617 0.1910594 0.193278 0.1932622 0.1845761 0.1650945 0.1439779 0.1350065 0.1432634
 0.1613492 0.1778242 0.1859752 0.1843935 0.1735609 0.156063 0.1393156 0.1332278 0.1421136 0.1605555
 0.1792 0.1928099 0.2008274 0.2029046 0.1979491 0.1873161 0.1760484 0.169978 0.172193 0.1817026
 0.1937518 0.2010189 0.1972152 0.1833642 0.1705337 0.1716405 0.1878872 0.2067207 0.2159354 0.2160162
 0.2151221 0.2164135 0.2165143 0.2144477 0.2151934 0.222879 0.2347241 0.2437864 0.2450614 0.2374625
 0.223168 0.208106 0.2004043 0.2038383 0.2134669 0.220944 0.2225617 0.2187604 0.2092139 0.1948772
 0.1831736 0.1835288 0.1964509 0.2123145 0.2223004 0.2264288 0.2295287 0.2329292 0.2328402 0.2260782
 0.2153688 0.2076653 0.2072791 0.2121217 0.2172687 0.2201553 0.2206093 0.2179183 0.2112737 0.2031207
 0.1991847 0.2035005 0.2142128 0.2252688 0.2318008 0.2331774 0.231609 0.2292785 0.2268602 0.2236927
 0.2192456 0.2150018 0.2141554 0.218201 0.2245592 0.2292303 0.2313662 0.2335487 0.2377338 0.2425624
 0.2450153 0.2437069 0.2402065 0.2376705 0.2383042 0.2416087 0.2447568 0.2450093 0.2423209 0.2396252
 0.2401331 0.2442712 0.2496312 0.2537085 0.2559378 0.2571692 0.2582079 0.2591111 0.2591363 0.2572921
 0.2537396 0.2506235 0.250553 0.2540111 0.2588984 0.2627145 0.2645866 0.2651188 0.265007 0.2643129
 0.2628813 0.2610016 0.2594154 0.2587287 0.2589826 0.2598062 0.2608023 0.2617154 0.2624174 0.2628982
 0.2632258 0.2634516 0.2635888 0.2636745 0.2637546 0.2637948 0.2637169 0.2635625 0.2635216 0.2637254
 0.2640763 0.2643501 0.2643991 0.2641723 0.2636032 0.2626262 0.2613092 0.2598371 0.2583102 0.2566704
 0.2549456 0.2535296 0.2530717 0.2539809 0.256038 0.258526 0.2607296 0.2623066 0.2632748 0.2637982
 0.2640409 0.2641295 0.2641385 0.2640808 0.2639356 0.2636955 0.2633811 0.2630199 0.2626302 0.2622344
 0.2618716 0.2615752 0.2613337 0.261087 0.2607682 0.2603449 0.2598301 0.2592693 0.2587099 0.2581559
 0.2575489 0.2568159 0.2559409 0.2549865 0.2540483 0.2531933 0.2524219 0.2516752 0.2508883 0.2500368
 0.2491169 0.2480996 0.2469598 0.245764 0.2446703 0.2437975 0.2431194 0.2425088 0.2418503 0.2410888
 0.2402107 0.2392329 0.2381972 0.2371387 0.2360591 0.2349395 0.2337634 0.2325132 0.2311679 0.2297195
 0.2281839 0.2265896 0.2249652 0.2233292 0.2216683 0.2199172 0.2179659 0.2156825 0.2129336 0.2096107
 0.2056769 0.2012067 0.1963819 0.1914309 0.1865532 0.18189 0.1775528 0.1736556 0.1703024 0.1675595
 0.1654582 0.1640194 0.163265 0.1632119 0.1638629 0.165196 0.1671484 0.1696057 0.1724094 0.1753837
 0.1783627 0.1812072 0.1838263 0.1862122 0.1884335 0.1905558 0.192568 0.1944087 0.1960446 0.1974847
 0.1987362 0.1997887 0.2006462 0.201345 0.2019312 0.2024347 0.2028656 0.2032299 0.2035408 0.2038108
 0.2040415 0.2042332 0.204399 0.2045612 0.2047391 0.2049479 0.2052027 0.2055172 0.2059014 0.2063572
 0.2068678 0.2074031 0.2079479 0.2085147 0.2091221 0.2097745 0.2104802 0.2112785 0.2122297 0.2133681
 0.2146681 0.2160554 0.2174448 0.2187611 0.2199344 0.2209035 0.2216342 0.2221267 0.2224024 0.222492
 0.2224309 0.2222512 0.2219717 0.2216027 0.2211554 0.2206398 0.2200603 0.2194224 0.2187415 0.2180349
 0.2173128 0.216588 0.2158832 0.2152122 0.2145607 0.2139071 0.2132609 0.2126523 0.2120847 0.2115257
 0.2109498 0.210364 0.2097847 0.209212 0.2086357 0.2080433 0.2074105 0.2066987 0.2058781 0.2049472
 0.2039206 0.2028056 0.2016006 0.2003125 0.198956 0.1975344 0.1960355 0.1944529 0.1927995 0.1910892
 0.1893086 0.1874232 0.1854256 0.1833742 0.1813696 0.1794913 0.1777614 0.176158 0.1746479 0.1732132
 0.1718603 0.1706013 0.1694259 0.1683034 0.167214 0.1661604 0.1651498 0.1641819 0.1632599 0.1624035
 0.1616449 0.1610082 0.1604877 0.1600498 0.1596597 0.1593079 0.1590152 0.1588205 0.1587486 0.1587773
 0.1588405 0.1588696 0.1588298 0.1587277 0.1586002 0.1584888 0.1584066 0.1583372 0.1582602 0.1581548
 0.1579786 0.1576634 0.157129 0.1562983 0.1551253 0.1536297 0.1518958 0.1500415 0.1482002 0.1465037
 0.1450483 0.1438786 0.142996 0.1423551 0.1418651 0.1414442 0.1410845 0.1408536 0.140836 0.1410501
 0.1413835 0.1416415 0.1417162 0.1416992 0.1417976 0.1421585 0.1427805 0.143542 0.1442933 0.144943
 0.1454677 0.1458592 0.146111 0.1462474 0.146304 0.146286 0.1461838 0.1460064 0.1457674 0.1454713
 0.1451205 0.1447025 0.1441911 0.1435879 0.1429236 0.1422044 0.1414091 0.1405261 0.13953 0.1383767
 0.1371149 0.135965 0.1352146 0.13505 0.1354695 0.1362908 0.1372741 0.1382914 0.1393001 0.1401339
 0.1405306 0.1405295 0.1406974 0.1417263 0.143767 0.1462557 0.1484185 0.1498503 0.1505675 0.1506874
 0.1502675 0.1493534 0.1479549 0.1460141 0.143541 0.1406882 0.1376224 0.1344762 0.1314427 0.1287272
 0.1264201 0.1245346 0.1230806 0.1221124 0.1217571 0.1216142 0.1197474 0.1137069 0.1043077 0.09728512
 0.09846199 0.1072071 0.1168906 0.1218836 0.1220331 0.1203428 0.1188787 0.117929 0.1173654 0.1173443
 0.1180309 0.1193011 0.120754 0.1219596 0.1227312 0.1231083 0.1230658 0.1222544 0.1199294 0.115218
 0.1078243 0.09863177 0.08939999 0.08173779 0.07637674 0.07319649 0.07158566 0.07079239 0.07028086 0.06998641
 0.0702206 0.07129075 0.07323509 0.07589792 0.07910024 0.08259508 0.08595952 0.08877051 0.0909247 0.09262607
 0.09403707 0.09508497 0.09562516 0.09565163 0.09529517 0.09470646 0.09399324 0.09320968 0.09233254 0.09127638
 0.09003383 0.08881354 0.08792908 0.08750971 0.08741128 0.08742228 0.08744069 0.08744071 0.08740176 0.08731887
 0.08722326 0.08718602 0.08731116 0.08766256 0.08816838 0.08864999 0.08896449 0.08910042 0.08914404 0.08913658
 0.08894622 0.08838405 0.08752716 0.08674869 0.08624038 0.08568212 0.08466014 0.08330916 0.08225399 0.08193339
 0.08220059 0.08258231 0.08272333 0.08255196 0.08223414 0.0820941 0.0824123 0.08310512 0.083685 0.08371323
</values></Ydata></ScRf><Data_Parameters_AB><parameter name="DPF">1</parameter><parameter name="NPT">3497</parameter><parameter name="FXV">3996</parameter><parameter name="LXV">500</parameter><parameter name="CSF">1</parameter><parameter name="MXY">0.145219758152962</parameter><parameter name="MNY">-0.0721048638224602</parameter><parameter name="DAT">02/06/2022</parameter><parameter name="TIM">13:27:15.141 (GMT+2)</parameter><parameter name="DXU">WN</parameter></Data_Parameters_AB><AB__Qtest><MainReport name="Quality Test Report"><Header><Line><Legend>Test result ok/not ok [1/0]: </Legend><Value>0</Value></Line><Line><Legend>Method file: </Legend><Value>C:\Users\Public\Documents\Bruker\OPUS_8.2.28\QT\IRBT_v3_default.QT</Value></Line></Header><Matrix><Line><Legend></Legend><Legend>min</Legend><Legend>max</Legend><Legend>measured</Legend></Line><Line><Value>Absorption (X-Range 1):</Value><Value>0.400000</Value><Value>2.000000</Value><Value>0.155016</Value></Line><Line><Value>Noise (X-Range 4):</Value><Value></Value><Value>0.000300</Value><Value>0.000057</Value></Line><Line><Value>Signal/Noise (X-Range 2):</Value><Value>200.000000</Value><Value></Value><Value>49.535833</Value></Line><Line><Value>Signal/Noise (X-Range 3):</Value><Value>40.000000</Value><Value></Value><Value>26.390579</Value></Line><Line><Value>Water vapour (X-Range 5):</Value><Value></Value><Value>0.000300</Value><Value>0.000111</Value></Line><Line><Value>Signal/Water (X-Range 2):</Value><Value>100.000000</Value><Value></Value><Value>25.319365</Value></Line><Line><Value>Signal/Water (X-Range 3):</Value><Value>20.000000</Value><Value></Value><Value>13.489078</Value></Line><Line><Value>Fringes (X-Range 6):</Value><Value></Value><Value>0.000100</Value><Value>0.000079</Value></Line></Matrix></MainReport></AB__Qtest><Data_Parameters_ScSm><parameter name="DPF">1</parameter><parameter name="NPT">1814</parameter><parameter name="FXV">3996.33169228125</parameter><parameter name="LXV">499.541461535156</parameter><parameter name="CSF">1</parameter><parameter name="MXY">0.270382523536682</parameter><parameter name="MNY">0.0346419364213943</parameter><parameter name="DAT">02/06/2022</parameter><parameter name="TIM">13:27:15.141 (GMT+2)</parameter><parameter name="DXU">WN</parameter></Data_Parameters_ScSm><Data_Parameters_ScRf><parameter name="DPF">1</parameter><parameter name="NPT">1820</parameter><parameter name="FXV">4004.04661832813</parameter><parameter name="LXV">495.683998511719</parameter><parameter name="CSF">1</parameter><parameter name="MXY">0.265118807554245</parameter><parameter name="MNY">0.0293513163924217</parameter><parameter name="DAT">02/06/2022</parameter><parameter name="TIM">13:26:48.056 (GMT+2)</parameter><parameter name="DXU">WN</parameter></Data_Parameters_ScRf><Optic_Parameters_Rf><parameter name="APR">0</parameter><parameter name="APT">Open</parameter><parameter name="BMS">KBr</parameter><parameter name="DTC">RT-DLaTGS_IR-Biotyper [Microplate reader]</parameter><parameter name="HPF">0</parameter><parameter name="LPF">10.0</parameter><parameter name="LPV">4000</parameter><parameter name="PGR">0</parameter><parameter name="RCH">Module port</parameter><parameter name="RDX">0</parameter><parameter name="SRC">MIR</parameter><parameter name="VEL">10.0</parameter><parameter name="SON">Off</parameter></Optic_Parameters_Rf><Acquisition_Parameters_Rf><parameter name="ADT">1</parameter><parameter name="AQM">DD</parameter><parameter name="CFE">0</parameter><parameter name="COR">0</parameter><parameter name="DEL">0</parameter><parameter name="DLY">0</parameter><parameter name="HFW">8000</parameter><parameter name="LFW">0</parameter><parameter name="NSR">32</parameter><parameter name="PLF">AB</parameter><parameter name="RES">6</parameter><parameter name="RGN">-1</parameter><parameter name="STR">0</parameter><parameter name="TCL">MakeCompatibleScalar (0, {WSV=1.000000, ARV=0});</parameter><parameter name="TDL">37</parameter><parameter name="RPO">0</parameter></Acquisition_Parameters_Rf><FT_-_Parameters_Rf><parameter name="APF">B3</parameter><parameter name="HFQ">500</parameter><parameter name="LFQ">4000</parameter><parameter name="NLI">0</parameter><parameter name="PHR">24</parameter><parameter name="PHZ">ML</parameter><parameter name="SPZ">NO</parameter><parameter name="ZFF">1</parameter></FT_-_Parameters_Rf><Optic_Parameters_><parameter name="APR">0</parameter><parameter name="APT">Open</parameter><parameter name="BMS">KBr</parameter><parameter name="CHN">Module port</parameter><parameter name="DTC">RT-DLaTGS_IR-Biotyper [Microplate reader]</parameter><parameter name="HPF">0</parameter><parameter name="LPF">10.0</parameter><parameter name="LPV">4000</parameter><parameter name="PGN">0</parameter><parameter name="RDX">0</parameter><parameter name="SRC">MIR</parameter><parameter name="VEL">10.0</parameter><parameter name="SON">Off</parameter></Optic_Parameters_><FT_-_Parameters_><parameter name="APF">B3</parameter><parameter name="HFQ">500</parameter><parameter name="LFQ">4000</parameter><parameter name="NLI">0</parameter><parameter name="PHR">24</parameter><parameter name="PHZ">ML</parameter><parameter name="SPZ">NO</parameter><parameter name="ZFF">1</parameter></FT_-_Parameters_><Acquisition_Parameters_><parameter name="ADT">1</parameter><parameter name="AQM">DD</parameter><parameter name="CFE">0</parameter><parameter name="COR">0</parameter><parameter name="DEL">0</parameter><parameter name="DLY">0</parameter><parameter name="HFW">8000</parameter><parameter name="LFW">0</parameter><parameter name="NSS">32</parameter><parameter name="PLF">AB</parameter><parameter name="RES">6</parameter><parameter name="SOT">0</parameter><parameter name="TCL">MakeCompatibleScalar (0, {WSV=1.000000, ARV=0});</parameter><parameter name="TDL">37</parameter><parameter name="SPO">0</parameter><parameter name="SGN">-1</parameter></Acquisition_Parameters_><Instrument_Parameters_Rf><parameter name="HFL">15800.168544</parameter><parameter name="LFL">0</parameter><parameter name="LWN">15800.168544</parameter><parameter name="ABP">32197</parameter><parameter name="SSP">1</parameter><parameter name="ARG">2</parameter><parameter name="ASG">2</parameter><parameter name="ASS">32</parameter><parameter name="GFW">16</parameter><parameter name="GBW">16</parameter><parameter name="BFW">0</parameter><parameter name="BBW">0</parameter><parameter name="PKA">7268</parameter><parameter name="PKL">4996</parameter><parameter name="PRA">7456</parameter><parameter name="PRL">5001</parameter><parameter name="P2A">1</parameter><parameter name="P2L">1</parameter><parameter name="P2R">1</parameter><parameter name="P2K">1</parameter><parameter name="DAQ">0</parameter><parameter name="AG2">1</parameter><parameter name="SSM">1</parameter><parameter name="RSN">26209</parameter><parameter name="CRR">0</parameter><parameter name="SRT">1654176408.057</parameter><parameter name="DUR">19.6379852294922</parameter><parameter name="TSC">29.2</parameter><parameter name="MVD">0.215919747948647</parameter><parameter name="AN1">0.225830658893497</parameter><parameter name="AN2">0</parameter><parameter name="VSN">2.485 Apr  4 2017</parameter><parameter name="SRN">0085</parameter><parameter name="CAM">0</parameter><parameter name="INS">IR-Biotyper</parameter><parameter name="FOC">69</parameter><parameter name="RDY">1</parameter><parameter name="ARS">32</parameter></Instrument_Parameters_Rf><Sample_Parameters_><parameter name="BLD"></parameter><parameter name="CNM">Admin</parameter><parameter name="CPY"></parameter><parameter name="DPM"></parameter><parameter name="EXP">IRBT_v3_32Scans.XPM</parameter><parameter name="LCT"></parameter><parameter name="SFM">Microplate, HTS-XT</parameter><parameter name="SNM">220602-1248_SMP48F (D_4)_B3_d9563050-0ade-4e52-8ea7-0bec0953c6f5.0</parameter><parameter name="XPP">C:\Users\Public\Documents\Bruker\OPUS_8.2.28\XPM</parameter><parameter name="IST">OK</parameter><parameter name="CPG">1252</parameter><parameter name="UID">978370a3-1298-42e4-8282-7baff2bd0258</parameter></Sample_Parameters_><Instrument_Parameters_><parameter name="HFL">15800.168544</parameter><parameter name="LFL">0</parameter><parameter name="LWN">15800.168544</parameter><parameter name="ABP">32197</parameter><parameter name="SSP">1</parameter><parameter name="ASG">2</parameter><parameter name="ARG">2</parameter><parameter name="ASS">32</parameter><parameter name="GFW">16</parameter><parameter name="GBW">16</parameter><parameter name="BFW">0</parameter><parameter name="BBW">0</parameter><parameter name="PKA">7180</parameter><parameter name="PKL">4988</parameter><parameter name="PRA">7421</parameter><parameter name="PRL">4993</parameter><parameter name="P2A">1</parameter><parameter name="P2L">1</parameter><parameter name="P2R">1</parameter><parameter name="P2K">1</parameter><parameter name="DAQ">0</parameter><parameter name="AG2">1</parameter><parameter name="SSM">1</parameter><parameter name="RSN">13730</parameter><parameter name="CRR">0</parameter><parameter name="SRT">1654176435.141</parameter><parameter name="DUR">19.6379852294922</parameter><parameter name="TSC">29.2</parameter><parameter name="MVD">0.230968326330185</parameter><parameter name="AN1">0.22585273789885</parameter><parameter name="AN2">0</parameter><parameter name="VSN">2.485 Apr  4 2017</parameter><parameter name="SRN">0085</parameter><parameter name="CAM">0</parameter><parameter name="INS">IR-Biotyper</parameter><parameter name="FOC">69</parameter><parameter name="RDY">1</parameter></Instrument_Parameters_><History/></OPUSDataFile>
