<?xml version="1.0" encoding="UTF-8" ?>
<OPUSDataFile><AB><Ydata ylabel="Absorbance Units"><values byteorder="INTEL" format="FLOAT32" numvalues="3497"> -0.06681287 -0.06684767 -0.06688859 -0.06693636 -0.06698055 -0.06702061 -0.0670417 -0.06704408 -0.06702629 -0.06699128
 -0.06695543 -0.06692092 -0.06690516 -0.06690563 -0.06692597 -0.06696073 -0.0670027 -0.06704818 -0.06708959 -0.06712757
 -0.06715912 -0.06718933 -0.06721924 -0.06725607 -0.06730313 -0.06736293 -0.06743841 -0.06752054 -0.06760952 -0.06768867
 -0.0677563 -0.06780246 -0.06782652 -0.06783596 -0.0678321 -0.06783459 -0.06784356 -0.06787135 -0.06791393 -0.06796444
 -0.06801732 -0.06805474 -0.06807705 -0.06807417 -0.06805594 -0.06802821 -0.06800341 -0.06799474 -0.06800393 -0.06803856
 -0.06808521 -0.06814238 -0.06819165 -0.0682273 -0.06824286 -0.06823438 -0.06821636 -0.06818897 -0.06817668 -0.0681809
 -0.06821375 -0.06827405 -0.06834926 -0.06843651 -0.06851128 -0.06857464 -0.06861649 -0.06864161 -0.06865706 -0.06866454
 -0.06867084 -0.06867388 -0.06867297 -0.06866887 -0.06866076 -0.06865349 -0.0686499 -0.06865161 -0.06866071 -0.06867339
 -0.06868815 -0.06870723 -0.06872912 -0.06876897 -0.06882768 -0.06892293 -0.06905583 -0.06922723 -0.06943485 -0.06964899
 -0.0698632 -0.07002161 -0.07012287 -0.07012533 -0.07004712 -0.06990736 -0.0697315 -0.0695737 -0.06944004 -0.06936215
 -0.06932713 -0.06933783 -0.06937199 -0.06941934 -0.06946037 -0.06948256 -0.06948853 -0.06947333 -0.0694613 -0.06945628
 -0.06947244 -0.06951358 -0.06955928 -0.06960862 -0.06963265 -0.06963252 -0.06961852 -0.06959622 -0.06960812 -0.06965274
 -0.06975188 -0.06989013 -0.07004257 -0.0701923 -0.07029397 -0.07035497 -0.07036123 -0.07033864 -0.07030725 -0.07027283
 -0.07024591 -0.07021885 -0.07018463 -0.07016546 -0.07016064 -0.07021619 -0.07034194 -0.07055345 -0.07085901 -0.07119166
 -0.07154879 -0.07176267 -0.07183083 -0.07167545 -0.07132604 -0.07094115 -0.07053392 -0.070242 -0.07004717 -0.06997216
 -0.06999844 -0.0701087 -0.07027981 -0.07048302 -0.07068748 -0.07085771 -0.07097936 -0.07102719 -0.07102687 -0.07097999
 -0.0709202 -0.07085972 -0.07080135 -0.07074761 -0.07069364 -0.07063739 -0.07059968 -0.07058152 -0.07061332 -0.07069457
 -0.07082409 -0.07099444 -0.0711583 -0.07130671 -0.07137603 -0.07137237 -0.07127182 -0.07110151 -0.07089489 -0.07067924
 -0.07050276 -0.07037311 -0.07031535 -0.07031918 -0.07038723 -0.07050264 -0.07066108 -0.07084399 -0.07104786 -0.07125006
 -0.07144846 -0.07161208 -0.07173823 -0.07179526 -0.07178085 -0.07169248 -0.07153268 -0.07134285 -0.07112662 -0.07092958
 -0.07074971 -0.0706031 -0.07048669 -0.07039994 -0.07034335 -0.07031901 -0.07032393 -0.07035913 -0.0704103 -0.07046765
 -0.07051508 -0.07053755 -0.07053804 -0.07051047 -0.07047686 -0.07044163 -0.07042231 -0.0704241 -0.0704459 -0.07048866
 -0.07054342 -0.07060968 -0.07068042 -0.07075509 -0.07082497 -0.07088933 -0.07093768 -0.07097171 -0.07099121 -0.07100076
 -0.07101271 -0.0710282 -0.07105636 -0.07109255 -0.07113363 -0.07117888 -0.07122269 -0.07127846 -0.07135043 -0.07145596
 -0.07160681 -0.07179663 -0.07203235 -0.07227201 -0.07251208 -0.07270186 -0.07283482 -0.07288726 -0.07285721 -0.07273373
 -0.07251801 -0.07222582 -0.07186712 -0.07151864 -0.0711888 -0.07095612 -0.07081232 -0.07078079 -0.07083786 -0.07095779
 -0.07110714 -0.07123015 -0.07131869 -0.07133771 -0.07132025 -0.07127596 -0.07123207 -0.07120622 -0.0711944 -0.07120202
 -0.07120491 -0.07119905 -0.07117004 -0.07111367 -0.07104818 -0.07097412 -0.07092594 -0.07090455 -0.070928 -0.07099266
 -0.07108504 -0.07119521 -0.07127605 -0.07132098 -0.07127982 -0.07117403 -0.07101499 -0.07083434 -0.07068484 -0.07056039
 -0.07048019 -0.07041098 -0.07033699 -0.07023859 -0.07009719 -0.06993365 -0.06974602 -0.06957533 -0.06943034 -0.06932755
 -0.06927286 -0.06923841 -0.06922352 -0.0691678 -0.0690696 -0.06889475 -0.06865297 -0.06839905 -0.06814257 -0.0679583
 -0.06783397 -0.0677752 -0.06776664 -0.06778177 -0.06781434 -0.06784763 -0.06787451 -0.06788556 -0.06786918 -0.0678156
 -0.06771932 -0.06757661 -0.0673822 -0.06713533 -0.06682472 -0.06644489 -0.06601185 -0.06552414 -0.06502668 -0.06452249
 -0.06403712 -0.06357097 -0.06312601 -0.06270359 -0.06231479 -0.061962 -0.06166394 -0.06141597 -0.06121696 -0.06105734
 -0.06091879 -0.06079534 -0.06067723 -0.06054583 -0.06038966 -0.06016893 -0.05984733 -0.05943326 -0.058906 -0.05834741
 -0.05777952 -0.05724487 -0.05676057 -0.0563063 -0.0558822 -0.05546271 -0.05504566 -0.05463106 -0.05421995 -0.05383657
 -0.05348175 -0.05317765 -0.05291535 -0.05267571 -0.05243589 -0.05211867 -0.05172141 -0.05118531 -0.05056554 -0.04991037
 -0.04926254 -0.04868995 -0.04817198 -0.04772048 -0.04729205 -0.04686904 -0.04643023 -0.04596081 -0.04547939 -0.04498595
 -0.04450632 -0.04404582 -0.04359614 -0.04315782 -0.04269354 -0.04220204 -0.04166081 -0.04107381 -0.0404612 -0.03982813
 -0.03920833 -0.03860148 -0.03802367 -0.03747283 -0.03695405 -0.03646123 -0.03599251 -0.03553097 -0.03505991 -0.03457031
 -0.03404652 -0.0335049 -0.03295008 -0.03239032 -0.03183534 -0.03125466 -0.03064271 -0.02998299 -0.0292665 -0.02855548
 -0.02785284 -0.02723702 -0.02670898 -0.02626826 -0.02590713 -0.02556476 -0.02523561 -0.02486091 -0.02444633 -0.02397343
 -0.02345976 -0.02293002 -0.02239759 -0.02189624 -0.02141459 -0.02096115 -0.02050024 -0.02001134 -0.01947123 -0.01885588
 -0.01819307 -0.01748082 -0.01677107 -0.01607435 -0.01541981 -0.0148139 -0.01425565 -0.01374623 -0.01325884 -0.01279171
 -0.01230853 -0.01180915 -0.01127519 -0.01071003 -0.01011872 -0.009503946 -0.008874839 -0.008234631 -0.007590787 -0.006953244
 -0.006337708 -0.005752823 -0.005216452 -0.004718318 -0.004261174 -0.003820288 -0.003384341 -0.002941552 -0.002482431 -0.00202149
 -0.001559402 -0.001113854 -0.0006897088 -0.0002713123 0.0001411805 0.0005902495 0.001077146 0.001619568 0.002212154 0.002818499
 0.003432272 0.00400224 0.004534278 0.00501557 0.005461987 0.005899202 0.00633661 0.006801915 0.007285681 0.007792804
 0.008300372 0.00879371 0.009261735 0.009689754 0.01009973 0.01049154 0.01090289 0.01134339 0.01182398 0.01235007
 0.01289574 0.01345999 0.01400874 0.01454073 0.01503819 0.0155023 0.01593439 0.01633726 0.01672376 0.01709642
 0.01746939 0.01784327 0.01822622 0.01861705 0.01901794 0.01942622 0.01984067 0.02025752 0.02067279 0.02108836
 0.02150229 0.02192438 0.02235916 0.022804 0.02326264 0.02370787 0.02413625 0.02453109 0.02488936 0.02524118
 0.02558857 0.02597978 0.02641276 0.02689322 0.02741082 0.02792023 0.02841508 0.02884941 0.0292318 0.02955456
 0.0298356 0.03009774 0.03035018 0.03061408 0.03087926 0.0311467 0.03140121 0.03163305 0.03184514 0.03203326
 0.03221765 0.0324014 0.03260137 0.03282075 0.03306338 0.03333009 0.03361503 0.0339178 0.03422828 0.03454696
 0.03487258 0.03520855 0.03557147 0.03596178 0.03639372 0.03685565 0.03733334 0.03781018 0.03825495 0.0386633
 0.03901735 0.03932569 0.03958865 0.03981461 0.04000687 0.04017304 0.04031383 0.04044509 0.04056908 0.04070378
 0.04085246 0.04102009 0.04120765 0.04140892 0.0416237 0.04184965 0.04208736 0.04234277 0.04261467 0.04290273
 0.04320073 0.04349052 0.04376538 0.04400005 0.04419895 0.04435271 0.04448184 0.04460091 0.04473238 0.04490025
 0.04510135 0.04534762 0.0456016 0.04585623 0.04607216 0.04623535 0.04635106 0.04641408 0.04647394 0.04653432
 0.0466296 0.04676027 0.04690069 0.04704689 0.04714839 0.04720879 0.04721628 0.04718331 0.04714249 0.047101
 0.04709242 0.04711006 0.04716009 0.04723006 0.0473081 0.04739062 0.04746744 0.04755289 0.04764846 0.04777686
 0.04794874 0.04816394 0.04843058 0.04870502 0.04898539 0.04921018 0.04937352 0.0494492 0.04943689 0.0493661
 0.04924086 0.04911238 0.04898045 0.04887139 0.0487808 0.04870626 0.04865018 0.04861449 0.0486076 0.0486472
 0.04872542 0.04884883 0.04898359 0.04910852 0.04919916 0.04922976 0.04922447 0.04917939 0.04914792 0.04914309
 0.04918803 0.04929233 0.04942303 0.04957968 0.0497057 0.04979852 0.04982357 0.04978334 0.04968665 0.04954157
 0.04939153 0.04924472 0.04915069 0.04910953 0.04914945 0.04925603 0.04942581 0.04962954 0.04983973 0.05002482
 0.05015085 0.05021285 0.05019077 0.05012461 0.05001769 0.04992807 0.04987062 0.04987252 0.04994233 0.05006643
 0.05024465 0.05045917 0.05070926 0.05099275 0.05130791 0.05164051 0.05198209 0.05228212 0.05253293 0.05267722
 0.05272751 0.05267408 0.0525538 0.05241504 0.05229099 0.05224156 0.05225867 0.05236632 0.05251046 0.0526764
 0.05280226 0.05286235 0.05282912 0.05268677 0.05245624 0.05213448 0.05177579 0.05138377 0.05101153 0.05066155
 0.05035473 0.05008953 0.04985658 0.04965498 0.04947392 0.04931694 0.04919069 0.04909649 0.04904568 0.04902424
 0.04902327 0.04901015 0.04895062 0.04881308 0.04855891 0.04819073 0.04769018 0.04710545 0.0464428 0.04576677
 0.04509249 0.04446309 0.04388802 0.0433802 0.04294244 0.04256507 0.04224737 0.04195827 0.04169546 0.04142121
 0.04113805 0.04083782 0.04052849 0.04023541 0.03995584 0.03970265 0.03945373 0.03918102 0.03886769 0.03847647
 0.03802817 0.03751632 0.03699538 0.03648793 0.03604239 0.03568491 0.03541954 0.03526017 0.0351523 0.03509524
 0.03500043 0.0348598 0.03461509 0.03426379 0.0338296 0.03331892 0.03281188 0.03231125 0.0318764 0.03149832
 0.03117895 0.03090764 0.03066043 0.03043473 0.03021712 0.03000564 0.02979608 0.02957905 0.02934726 0.02909165
 0.02880327 0.02848743 0.02814114 0.02778364 0.02741807 0.0270626 0.02672128 0.02639717 0.02609167 0.02579197
 0.0254974 0.02519209 0.02487622 0.02454599 0.02420388 0.02386141 0.02352082 0.02319681 0.02288739 0.02259648
 0.02231845 0.02204683 0.02177592 0.02149761 0.02120711 0.02089872 0.02056874 0.02021206 0.01983412 0.01943264
 0.01902686 0.01861987 0.01823122 0.01786583 0.01752261 0.01720301 0.01688571 0.01656963 0.01623604 0.0158855
 0.01551861 0.01513782 0.01475721 0.01437807 0.01401258 0.01365965 0.01332294 0.01300062 0.01269159 0.01239396
 0.01210573 0.01182412 0.0115458 0.01127126 0.01099686 0.01073552 0.01048962 0.01027563 0.01010196 0.009955686
 0.009841389 0.009702197 0.009534252 0.009279387 0.008934523 0.008498332 0.007976042 0.007430142 0.006868224 0.006367529
 0.005926139 0.005583576 0.005321937 0.005124824 0.004963997 0.004786309 0.004576868 0.00429027 0.00394979 0.003550943
 0.003142453 0.002751655 0.002399183 0.002106754 0.001842232 0.001602737 0.001354842 0.001087492 0.0008251567 0.0005666722
 0.0003732049 0.000247962 0.0002100515 0.0002542839 0.0003215164 0.0004018532 0.0004050583 0.0003324502 0.0001347494 -0.0001673664
 -0.0005546352 -0.000998296 -0.001441641 -0.0018726 -0.002250422 -0.002590623 -0.002891061 -0.003171121 -0.003445131 -0.003707601
 -0.003961287 -0.004191483 -0.004390585 -0.004574831 -0.004743094 -0.004931795 -0.005146174 -0.005383884 -0.00564503 -0.005876958
 -0.006077867 -0.006207658 -0.006273309 -0.006294617 -0.006281651 -0.006283112 -0.006297845 -0.006349804 -0.006427353 -0.006521143
 -0.006624399 -0.006721319 -0.00682294 -0.006927564 -0.007062796 -0.007242118 -0.007487411 -0.007815792 -0.008211018 -0.008680532
 -0.009161176 -0.009647008 -0.0100678 -0.01041413 -0.0106683 -0.01082872 -0.01095047 -0.01103862 -0.01117653 -0.01136361
 -0.01164338 -0.01200173 -0.01241405 -0.01286148 -0.01328524 -0.0136791 -0.01400264 -0.01426824 -0.0144716 -0.01463449
 -0.01477147 -0.01490188 -0.01504118 -0.01519551 -0.01537398 -0.01556187 -0.01575898 -0.01594233 -0.0161057 -0.01625285
 -0.0163811 -0.01653176 -0.01670707 -0.01693904 -0.01722544 -0.0175416 -0.01788092 -0.01818665 -0.01846253 -0.01868788
 -0.01887971 -0.01907041 -0.01926857 -0.01950973 -0.01977673 -0.02006772 -0.02035346 -0.02060856 -0.02081874 -0.02096623
 -0.02105829 -0.02109306 -0.02108184 -0.02102824 -0.02093349 -0.02079813 -0.02062201 -0.02040347 -0.02016427 -0.01990532
 -0.01968065 -0.01949362 -0.01940455 -0.01941148 -0.01953653 -0.01976754 -0.02007377 -0.02044022 -0.02081455 -0.02118998
 -0.02153061 -0.02183881 -0.02210329 -0.02232925 -0.02251727 -0.0226719 -0.02279547 -0.02289215 -0.02296384 -0.02301362
 -0.02304257 -0.02305275 -0.02304509 -0.02301816 -0.02297304 -0.02289417 -0.02278089 -0.02259984 -0.02234967 -0.02200233
 -0.02156171 -0.02103562 -0.0204345 -0.01980113 -0.01914372 -0.01850564 -0.01788532 -0.01730119 -0.0167444 -0.01621256
 -0.01569512 -0.01518402 -0.01466778 -0.01413908 -0.01358659 -0.01300333 -0.01238761 -0.01173462 -0.01106176 -0.01036862
 -0.009688179 -0.0090231 -0.008405166 -0.00783647 -0.007333994 -0.006897961 -0.006532613 -0.006238643 -0.006022769 -0.005886272
 -0.005841559 -0.005880901 -0.005999065 -0.006169307 -0.00634832 -0.006502765 -0.006571633 -0.006548441 -0.006399131 -0.006155896
 -0.00582556 -0.005443031 -0.005028785 -0.004580051 -0.004104177 -0.003570193 -0.002972983 -0.002296245 -0.001535574 -0.0007090386
 0.0001828862 0.001098224 0.002033892 0.002936993 0.003804241 0.004586026 0.005284415 0.005877297 0.006376224 0.006798139
 0.007154996 0.007481001 0.007766486 0.00802532 0.008209384 0.008295773 0.008207019 0.007896796 0.0073007 0.00637374
 0.005122378 0.003522783 0.00168226 -0.0003975041 -0.002539394 -0.004727848 -0.006797616 -0.008737022 -0.01046874 -0.01199407
 -0.01333302 -0.01449325 -0.01553565 -0.01646333 -0.01731983 -0.01810472 -0.01883599 -0.01951889 -0.02016873 -0.02079488
 -0.0214167 -0.02203382 -0.02265634 -0.02326822 -0.02386513 -0.02442664 -0.02494346 -0.02540396 -0.02580209 -0.02613875
 -0.02641246 -0.02663115 -0.02679588 -0.02690852 -0.02696945 -0.02696709 -0.02690151 -0.02676909 -0.02657613 -0.02636124
 -0.02613692 -0.02597601 -0.02588051 -0.02590035 -0.02601213 -0.02620381 -0.02643607 -0.02665684 -0.02683563 -0.02692661
 -0.02692278 -0.02680345 -0.0265855 -0.02626722 -0.02588004 -0.02543105 -0.02494741 -0.02443578 -0.02390527 -0.02335615
 -0.02280546 -0.02225279 -0.02178321 -0.02140567 -0.02128612 -0.02143295 -0.02199771 -0.02295763 -0.02431978 -0.02601958
 -0.02790064 -0.02989416 -0.03179865 -0.03359533 -0.03516746 -0.03655948 -0.03776402 -0.03884595 -0.039845 -0.04079266
 -0.04171701 -0.04260432 -0.04345859 -0.0442512 -0.04497627 -0.04562314 -0.04618809 -0.04668807 -0.04712356 -0.04752555
 -0.04789527 -0.04825523 -0.04860456 -0.04894791 -0.04928338 -0.04960563 -0.04991366 -0.05020234 -0.05047097 -0.05071527
 -0.05093689 -0.05113337 -0.05131494 -0.05148669 -0.05166617 -0.05186637 -0.05209452 -0.05236196 -0.05264794 -0.05295343
 -0.05323743 -0.05349234 -0.05369168 -0.05382886 -0.05391964 -0.05396393 -0.05400665 -0.05404949 -0.05412279 -0.05422372
 -0.05434538 -0.05448441 -0.0546208 -0.05475893 -0.05489945 -0.05504992 -0.05522778 -0.05542924 -0.05566033 -0.05590471
 -0.0561507 -0.05638396 -0.05659133 -0.05676938 -0.05691256 -0.05702535 -0.05710594 -0.0571688 -0.05721406 -0.05726829
 -0.05733442 -0.05743318 -0.05756671 -0.05772715 -0.05791329 -0.05809801 -0.05828081 -0.05844501 -0.05859278 -0.05872538
 -0.05884301 -0.0589473 -0.05903644 -0.05910594 -0.05915947 -0.0591982 -0.05923066 -0.05926644 -0.05930611 -0.05935566
 -0.05940301 -0.05944388 -0.05947158 -0.05947961 -0.05948438 -0.05948588 -0.05951212 -0.05956743 -0.05966026 -0.05979227
 -0.05994059 -0.06010364 -0.06024884 -0.06037669 -0.06047468 -0.06054785 -0.06061089 -0.06066843 -0.06074282 -0.06083058
 -0.06093867 -0.06105406 -0.06116306 -0.06125421 -0.06130873 -0.06133247 -0.06131884 -0.06129239 -0.06126035 -0.06124733
 -0.06126367 -0.06131458 -0.06140494 -0.06152 -0.06165934 -0.06180265 -0.06194839 -0.06208473 -0.06221149 -0.06232867
 -0.06243689 -0.06254135 -0.06264171 -0.06273943 -0.06283335 -0.06292051 -0.06300122 -0.06307394 -0.0631412 -0.0632056
 -0.0632695 -0.06333648 -0.0634062 -0.06348002 -0.063555 -0.06363038 -0.06370329 -0.06377246 -0.06383768 -0.06389834
 -0.06395712 -0.06401426 -0.06407173 -0.06412974 -0.06418778 -0.06424578 -0.064302 -0.06435627 -0.06440656 -0.06445263
 -0.06449195 -0.06452521 -0.06455238 -0.06457574 -0.06459948 -0.06462572 -0.06465935 -0.06470054 -0.06475069 -0.06481089
 -0.0648814 -0.06496594 -0.06506693 -0.06518396 -0.06531948 -0.06546189 -0.06561035 -0.06574912 -0.06587562 -0.06598502
 -0.06607642 -0.0661584 -0.06623137 -0.06630392 -0.06637544 -0.06644437 -0.06650984 -0.06656609 -0.06661513 -0.06665888
 -0.06670152 -0.06675276 -0.06681345 -0.06689049 -0.06697809 -0.06707419 -0.06717087 -0.06726211 -0.06734412 -0.06741317
 -0.06747051 -0.06751545 -0.06755138 -0.06757852 -0.06760136 -0.06762005 -0.06764186 -0.06766722 -0.06770453 -0.06775406
 -0.06781881 -0.06789782 -0.06798457 -0.06807746 -0.06816524 -0.06824808 -0.06832008 -0.06838363 -0.06844076 -0.06849329
 -0.06854517 -0.06859558 -0.06864516 -0.06869278 -0.06873731 -0.06877998 -0.06882048 -0.06886254 -0.06890728 -0.06895705
 -0.06901312 -0.06907264 -0.0691359 -0.06919536 -0.06925037 -0.06929752 -0.06933694 -0.06937517 -0.06941289 -0.06945963
 -0.06951423 -0.069577 -0.069645 -0.06970944 -0.06976891 -0.06981549 -0.06985137 -0.06987527 -0.06989244 -0.06990703
 -0.06992432 -0.06994956 -0.06998377 -0.07002955 -0.07008296 -0.07014322 -0.07020752 -0.07027469 -0.07034634 -0.07042287
 -0.07050287 -0.07058664 -0.07066356 -0.07073311 -0.07078446 -0.07081847 -0.07083736 -0.07084376 -0.07085161 -0.07086178
 -0.07088551 -0.07091894 -0.07096035 -0.07100414 -0.07104056 -0.07106949 -0.07108533 -0.07109569 -0.07110349 -0.07111643
 -0.07114004 -0.07117348 -0.07121871 -0.07126848 -0.07132164 -0.07137288 -0.07142118 -0.07146535 -0.07150516 -0.07154108
 -0.07157313 -0.07160231 -0.07162861 -0.07165235 -0.07167337 -0.07169063 -0.07170454 -0.07171527 -0.07172444 -0.07173558
 -0.07174954 -0.07176958 -0.07179414 -0.07182273 -0.07185426 -0.07188723 -0.07192323 -0.07196292 -0.07200642 -0.07205513
 -0.07210286 -0.07214925 -0.07218516 -0.07220906 -0.07221703 -0.07220829 -0.07218838 -0.07215775 -0.07212814 -0.07209998
 -0.07208245 -0.0720747 -0.07207786 -0.07209054 -0.07210878 -0.07213284 -0.07216119 -0.07219501 -0.07223616 -0.07228321
 -0.0723366 -0.07239129 -0.07244402 -0.07249106 -0.07252888 -0.07255953 -0.07258213 -0.07260284 -0.0726229 -0.07264613
 -0.07267362 -0.07270379 -0.0727367 -0.07276857 -0.07279927 -0.07282808 -0.07285527 -0.07288347 -0.07291265 -0.07294433
 -0.07297752 -0.07300992 -0.07304086 -0.07306726 -0.07309052 -0.07311092 -0.07313105 -0.07315447 -0.0731804 -0.07321078
 -0.07323954 -0.07326471 -0.07327997 -0.07328171 -0.07327184 -0.07324866 -0.07322407 -0.07319897 -0.07318687 -0.07318916
 -0.07321025 -0.07325016 -0.07330128 -0.07336257 -0.07342081 -0.07347567 -0.07351807 -0.07354937 -0.07356872 -0.07357831
 -0.07358234 -0.07358233 -0.07358235 -0.07358307 -0.0735867 -0.07359307 -0.07360281 -0.07361501 -0.0736293 -0.07364518
 -0.07366212 -0.07368117 -0.0737024 -0.07372707 -0.07375564 -0.07378653 -0.0738198 -0.07385122 -0.07388057 -0.07390341
 -0.07391976 -0.07392798 -0.07392873 -0.07392405 -0.07391535 -0.07390791 -0.07390329 -0.0739077 -0.07392123 -0.07394756
 -0.07398366 -0.07402895 -0.07407723 -0.07412469 -0.07416445 -0.07419197 -0.07420413 -0.07419775 -0.07417765 -0.07414321
 -0.07410558 -0.07406602 -0.07403449 -0.07401218 -0.07400115 -0.07400145 -0.07400867 -0.07402256 -0.074039 -0.07405787
 -0.07407673 -0.074095 -0.07410957 -0.07411993 -0.07412275 -0.07411956 -0.07411081 -0.07409907 -0.07408753 -0.07407692
 -0.0740689 -0.07406295 -0.07405891 -0.07405759 -0.07405952 -0.07406393 -0.07407156 -0.07407655 -0.07407822 -0.07407116
 -0.07405443 -0.07403218 -0.07400469 -0.07398354 -0.07396927 -0.0739716 -0.0739902 -0.07402848 -0.07408579 -0.0741618
 -0.07425617 -0.07436787 -0.07449729 -0.07464392 -0.07481004 -0.07499647 -0.07520937 -0.07545142 -0.0757339 -0.07606148
 -0.07644776 -0.07689861 -0.07742089 -0.07801932 -0.07868425 -0.07941749 -0.08018957 -0.08099963 -0.08180077 -0.08259023
 -0.08330515 -0.08394172 -0.08443702 -0.0847896 -0.08495969 -0.08494683 -0.08472767 -0.08430417 -0.08365256 -0.08281854
 -0.08184239 -0.08081725 -0.07986062 -0.07902426 -0.07839197 -0.07795075 -0.07771873 -0.07766113 -0.07777476 -0.07801121
 -0.0783679 -0.07875904 -0.07917565 -0.07952334 -0.07978995 -0.07996498 -0.0800478 -0.08008334 -0.08007129 -0.08002006
 -0.07992734 -0.07978093 -0.07958741 -0.07936133 -0.07911287 -0.07887467 -0.0786459 -0.07844274 -0.07825215 -0.07806617
 -0.07787403 -0.07766302 -0.07743482 -0.07718491 -0.07692495 -0.07665746 -0.07639365 -0.07613657 -0.07589302 -0.07566448
 -0.07545453 -0.07526378 -0.0750917 -0.07493827 -0.07479739 -0.07466861 -0.07454465 -0.07442555 -0.07430748 -0.07419103
 -0.07407589 -0.07396325 -0.07385547 -0.07375404 -0.07366312 -0.07358135 -0.07351027 -0.07344396 -0.07337873 -0.0733094
 -0.07323054 -0.07314651 -0.07305592 -0.07297108 -0.07289474 -0.07283521 -0.07279518 -0.07277095 -0.07276291 -0.07275936
 -0.07275968 -0.07275477 -0.07274477 -0.07272874 -0.07270745 -0.07268491 -0.07266115 -0.07263848 -0.072616 -0.07259257
 -0.07256803 -0.07254141 -0.07251335 -0.07248437 -0.07245441 -0.07242373 -0.07239174 -0.07235762 -0.07232331 -0.07228893
 -0.07225776 -0.07223104 -0.07220849 -0.07219089 -0.07217228 -0.07215227 -0.07212506 -0.07209033 -0.07204922 -0.07200222
 -0.0719559 -0.07191049 -0.07187074 -0.07183583 -0.07180522 -0.07177815 -0.07175244 -0.07172825 -0.07170504 -0.0716828
 -0.07166141 -0.07164044 -0.07161942 -0.07159826 -0.07157701 -0.07155482 -0.07153194 -0.07150535 -0.07147412 -0.07143749
 -0.07139446 -0.07135078 -0.0713067 -0.07127011 -0.07124145 -0.07122125 -0.0712089 -0.07119661 -0.0711838 -0.07116269
 -0.07113438 -0.07109823 -0.07105682 -0.07101616 -0.07097743 -0.07094619 -0.07091973 -0.07089762 -0.0708756 -0.07084919
 -0.07081901 -0.070783 -0.07074708 -0.0707132 -0.07068461 -0.0706633 -0.07064605 -0.07063278 -0.0706192 -0.07060472
 -0.07058912 -0.07057234 -0.07055558 -0.0705388 -0.07052142 -0.07050347 -0.07048442 -0.07046486 -0.07044645 -0.07043004
 -0.07041881 -0.07041255 -0.07041317 -0.07041771 -0.07042432 -0.07042814 -0.07042413 -0.07041133 -0.07038597 -0.07035572
 -0.07032174 -0.07029384 -0.07027574 -0.07026747 -0.07027072 -0.0702748 -0.0702788 -0.07027464 -0.07026177 -0.07024417
 -0.0702225 -0.07020716 -0.07019793 -0.07019918 -0.07020876 -0.07022136 -0.0702349 -0.07024117 -0.07024067 -0.07022987
 -0.07021187 -0.07018889 -0.07016348 -0.07013888 -0.07011484 -0.07009193 -0.07007012 -0.07004865 -0.07003132 -0.07001865
 -0.07001525 -0.07002275 -0.07003799 -0.07006148 -0.07008108 -0.07009614 -0.07009557 -0.0700795 -0.07004769 -0.07000198
 -0.06995334 -0.06990386 -0.06986769 -0.06984424 -0.06984068 -0.06985157 -0.06987212 -0.06989474 -0.0699079 -0.06990922
 -0.06989106 -0.06985989 -0.06981602 -0.06976979 -0.06972545 -0.06968864 -0.06966238 -0.06964506 -0.06963727 -0.0696337
 -0.06963381 -0.06963475 -0.06963629 -0.06963969 -0.06964498 -0.06965324 -0.06966371 -0.06967212 -0.06967758 -0.06967387
 -0.06966202 -0.06964083 -0.06961311 -0.06958323 -0.06955273 -0.06952547 -0.06950091 -0.0694799 -0.06946138 -0.06944484
 -0.06942996 -0.06941654 -0.0694041 -0.06939257 -0.06938116 -0.06936971 -0.06935784 -0.06934533 -0.0693341 -0.06932421
 -0.06931915 -0.06931897 -0.06932539 -0.06933761 -0.06935164 -0.06936608 -0.06937321 -0.06937309 -0.06936122 -0.06934013
 -0.06931167 -0.06927919 -0.06924766 -0.06921847 -0.06919489 -0.06917559 -0.06916077 -0.06914883 -0.06913884 -0.06913137
 -0.06912645 -0.0691245 -0.06912618 -0.06912744 -0.06912817 -0.06912174 -0.06910766 -0.06908543 -0.06905559 -0.069027
 -0.06900021 -0.06898404 -0.06897677 -0.06897703 -0.06898186 -0.06898242 -0.06897868 -0.06896551 -0.06894663 -0.0689244
 -0.06890232 -0.06888484 -0.06887157 -0.06886405 -0.06885923 -0.06885643 -0.06885246 -0.06884629 -0.06883627 -0.06882162
 -0.06880415 -0.06878366 -0.06876591 -0.06875124 -0.0687433 -0.06874183 -0.06874251 -0.06874469 -0.06874124 -0.06873298
 -0.06871913 -0.06870136 -0.06868409 -0.06866697 -0.06865185 -0.06863671 -0.06861935 -0.06859968 -0.06857606 -0.06855144
 -0.06852663 -0.06850547 -0.0684899 -0.06848133 -0.0684811 -0.06848646 -0.06849759 -0.06850905 -0.06852028 -0.06852745
 -0.06853027 -0.06852806 -0.06852075 -0.06850719 -0.0684871 -0.06845742 -0.06841864 -0.0683703 -0.06831457 -0.06825645
 -0.06819844 -0.06814761 -0.06810458 -0.06807314 -0.06805241 -0.068043 -0.06804361 -0.06805424 -0.06807173 -0.06809621
 -0.06811942 -0.06814034 -0.06814686 -0.06813618 -0.06810368 -0.06804748 -0.06797824 -0.06789637 -0.06781876 -0.06774588
 -0.06768607 -0.06763846 -0.06760084 -0.06757213 -0.06754696 -0.06752473 -0.06750123 -0.06747626 -0.06744707 -0.06741501
 -0.06738019 -0.06734533 -0.06731313 -0.06728436 -0.0672611 -0.06724016 -0.06722115 -0.06719979 -0.06717456 -0.06714416
 -0.0671077 -0.06706781 -0.06702451 -0.06698183 -0.06694002 -0.066902 -0.06686781 -0.06683791 -0.06681205 -0.0667888
 -0.06676751 -0.06674492 -0.06672022 -0.0666892 -0.06665231 -0.06660753 -0.06655817 -0.06650735 -0.06645827 -0.06641581
 -0.06637829 -0.06634717 -0.06631639 -0.06628347 -0.06624532 -0.06619955 -0.06615026 -0.06609746 -0.06604744 -0.06600115
 -0.06596019 -0.06592485 -0.0658917 -0.06586058 -0.0658287 -0.06579638 -0.06576467 -0.06573369 -0.0657047 -0.06567685
 -0.06564832 -0.06561883 -0.06558646 -0.06555253 -0.06551816 -0.06548392 -0.06545143 -0.06541848 -0.06538446 -0.06534674
 -0.06530382 -0.06525535 -0.06520067 -0.06514113 -0.06507666 -0.06500981 -0.06494081 -0.06487182 -0.06480302 -0.06473411
 -0.0646651 -0.06459585 -0.06452686 -0.06446206 -0.06440179 -0.06435025 -0.06430621 -0.06426858 -0.06423569 -0.06420359
 -0.064172 -0.06413933 -0.06410463 -0.06406736 -0.0640242 -0.06397264 -0.0639117 -0.06383912 -0.06376008 -0.06367485
 -0.06359136 -0.0635113 -0.06343889 -0.06337527 -0.06331789 -0.06326675 -0.0632152 -0.06316307 -0.06310803 -0.06305113
 -0.06299968 -0.06295433 -0.06292337 -0.06290316 -0.06288943 -0.06287485 -0.06284246 -0.0627904 -0.06270572 -0.06259968
 -0.06247631 -0.06235076 -0.06223454 -0.06213376 -0.06205557 -0.06199405 -0.06195004 -0.06191201 -0.06187771 -0.06184056
 -0.06179898 -0.06175515 -0.06170903 -0.06166585 -0.06162575 -0.06159093 -0.06156067 -0.06153094 -0.06149961 -0.06145498
 -0.06139604 -0.06131181 -0.06120761 -0.06108723 -0.06095881 -0.06083567 -0.0607201 -0.06061974 -0.06053164 -0.06045667
 -0.06038981 -0.0603301 -0.06026988 -0.06020707 -0.06013486 -0.06005078 -0.05995642 -0.05985122 -0.05974228 -0.05963019
 -0.05951629 -0.05940057 -0.0592813 -0.05915904 -0.05903755 -0.05891764 -0.05880512 -0.05869973 -0.05860398 -0.05851665
 -0.05843737 -0.05836292 -0.05829002 -0.05821283 -0.05812386 -0.05802244 -0.05790336 -0.05777689 -0.05764586 -0.05751994
 -0.05740428 -0.05729561 -0.05719497 -0.0570926 -0.05698701 -0.05687584 -0.05675858 -0.0566409 -0.05652295 -0.05640704
 -0.056292 -0.05616944 -0.05603779 -0.05588403 -0.05571093 -0.05551834 -0.05531299 -0.05510936 -0.05490853 -0.0547201
 -0.0545368 -0.05435514 -0.05416911 -0.05397145 -0.05376733 -0.053556 -0.05334792 -0.05314778 -0.05295441 -0.05277116
 -0.05257722 -0.05237199 -0.05212268 -0.05182634 -0.05147227 -0.0510611 -0.0506229 -0.0501585 -0.04969073 -0.04921301
 -0.04870768 -0.04816692 -0.04755646 -0.0468787 -0.04611761 -0.04529031 -0.04441017 -0.04350116 -0.04259051 -0.04169429
 -0.04083406 -0.04000548 -0.03921518 -0.0384419 -0.0376779 -0.0369202 -0.03616124 -0.03543981 -0.03475922 -0.0341558
 -0.03363338 -0.03319347 -0.03283596 -0.03255302 -0.03234404 -0.03220288 -0.03212565 -0.03209303 -0.03209729 -0.03210625
 -0.03211379 -0.03209094 -0.03203975 -0.03194871 -0.0318285 -0.03168551 -0.03152759 -0.0313631 -0.03119173 -0.03101538
 -0.03083239 -0.03064266 -0.03044521 -0.03024264 -0.03001729 -0.02977136 -0.02944909 -0.02904634 -0.02851849 -0.02786615
 -0.02715521 -0.02639217 -0.02566971 -0.02497705 -0.02431165 -0.02365873 -0.02297053 -0.02224522 -0.02145613 -0.02060742
 -0.01969996 -0.01871999 -0.01766541 -0.01649006 -0.01516292 -0.01365069 -0.01190683 -0.01001292 -0.007965083 -0.005928961
 -0.003943141 -0.00208653 -0.0003811453 0.001199034 0.002652443 0.004043623 0.005377053 0.006753345 0.008181694 0.009801424
 0.011597 0.01359147 0.01571461 0.01774695 0.01967873 0.02136009 0.02287403 0.02428035 0.02563667 0.02703143
 0.02846361 0.0299598 0.03150386 0.03309156 0.03472236 0.03640296 0.03809548 0.03979848 0.04144805 0.0430313
 0.04454807 0.04599671 0.04740056 0.04875901 0.05001874 0.05117431 0.0521474 0.05294502 0.05355993 0.05400396
 0.0543116 0.05448457 0.05453882 0.05448284 0.05432843 0.05410229 0.05383426 0.05354542 0.05325982 0.05298528
 0.05273519 0.05249538 0.05226847 0.05202059 0.05174621 0.05141412 0.05101832 0.0505481 0.05000028 0.0494081
 0.04877363 0.04815251 0.04754271 0.04694701 0.04635743 0.04573362 0.0450749 0.04435337 0.04358387 0.04277857
 0.04196498 0.04118982 0.04046688 0.03983125 0.03927374 0.03879588 0.03839643 0.03807123 0.03783571 0.03769702
 0.03765154 0.03770348 0.03782367 0.03800801 0.03824139 0.03852141 0.03885693 0.03924844 0.03970885 0.04023818
 0.04084161 0.04151802 0.04226491 0.04308042 0.04395708 0.04489454 0.04588711 0.04693872 0.04805186 0.04923255
 0.05048848 0.05182158 0.0532369 0.05472986 0.05630033 0.05794115 0.05964956 0.06142293 0.06326114 0.06515854
 0.06711771 0.06910431 0.07111698 0.07310437 0.07506437 0.0769849 0.07886776 0.08073682 0.08257894 0.08434588
 0.08600836 0.08743453 0.08863576 0.08956194 0.09026191 0.09079168 0.0911753 0.09146237 0.09164943 0.09174735
 0.09175419 0.09167678 0.09149247 0.09120721 0.09074443 0.09008337 0.08919565 0.08805502 0.08683329 0.08554398
 0.08429663 0.08309492 0.08185352 0.08056893 0.07917231 0.07767341 0.07608844 0.07442744 0.0727406 0.0710101
 0.06923866 0.06736305 0.06528071 0.06297084 0.06031547 0.05749977 0.05461957 0.05181981 0.04924333 0.04677603
 0.04440797 0.04204111 0.03963236 0.03724086 0.03486429 0.03260401 0.03047219 0.02847207 0.02660342 0.02479791
 0.02305414 0.02133174 0.01963814 0.01799245 0.01640137 0.01490054 0.01348338 0.01215595 0.01090185 0.009699772
 0.008534863 0.007386164 0.006237008 0.005075772 0.003869033 0.002595222 0.00124 -0.0002343552 -0.001697011 -0.003137212
 -0.00437541 -0.005364234 -0.006163684 -0.006769544 -0.007335922 -0.007870113 -0.008439478 -0.009040182 -0.009649947 -0.0102634
 -0.01083782 -0.0113782 -0.01188225 -0.01234944 -0.01278561 -0.01316755 -0.01346297 -0.01365118 -0.01368846 -0.01359435
 -0.01336423 -0.01303599 -0.01262896 -0.0121633 -0.01165269 -0.01109472 -0.01049678 -0.009822132 -0.009072964 -0.008162896
 -0.007083555 -0.005778461 -0.004245773 -0.002623456 -0.0009269187 0.0006117406 0.001999795 0.00315802 0.004107438 0.004879984
 0.005482418 0.005941609 0.006266236 0.006471194 0.006590926 0.006657557 0.006728883 0.006862406 0.007078226 0.007422934
 0.007813839 0.008233549 0.008610301 0.008913138 0.009166617 0.009366372 0.009571147 0.009786475 0.01004488 0.01034809
 0.01068141 0.01104302 0.01140463 0.01176885 0.01213447 0.01250881 0.0129173 0.01336242 0.01386594 0.01441758
 0.01500934 0.01563587 0.01628098 0.01696549 0.01769697 0.01850226 0.01940157 0.02039396 0.02148755 0.02265768
 0.02389762 0.02520251 0.02656728 0.02802161 0.02956928 0.03121303 0.03295279 0.03469213 0.03642321 0.03801803
 0.03948006 0.04076513 0.0418809 0.04283617 0.04362252 0.04422773 0.04463479 0.04480825 0.0447455 0.04442532
 0.04386527 0.04306988 0.04206109 0.04085093 0.03945521 0.03787852 0.0361446 0.03425007 0.03226604 0.03019461
 0.02815599 0.02616211 0.02429047 0.02254575 0.0209067 0.01936972 0.01787999 0.01644036 0.01503823 0.01368318
 0.01240546 0.0112044 0.01009807 0.009070248 0.008104247 0.007182715 0.006278906 0.00538544 0.004486415 0.003585926
 0.002679825 0.001781726 0.0008943357 3.367474E-05 -0.0007948717 -0.001587011 -0.002339681 -0.003065281 -0.003764628 -0.004449535
 -0.005120713 -0.005765698 -0.006382327 -0.006937538 -0.007431323 -0.007845189 -0.008184563 -0.00845936 -0.008673506 -0.008842052
 -0.008964024 -0.009044056 -0.009081401 -0.009075483 -0.009030232 -0.008946004 -0.008834271 -0.00869804 -0.008557408 -0.008418651
 -0.0083025 -0.008215525 -0.008167991 -0.008163203 -0.008200118 -0.008279181 -0.008395545 -0.008548964 -0.008734236 -0.008950795
 -0.009191019 -0.009452759 -0.009720899 -0.009990373 -0.01023578 -0.01045168 -0.01061068 -0.010715 -0.01075242 -0.01073722
 -0.01067887 -0.0105955 -0.01050506 -0.01041665 -0.01034198 -0.01027626 -0.0102214 -0.01016679 -0.01010959 -0.01004536
 -0.009971754 -0.009896223 -0.00981867 -0.00975353 -0.009701624 -0.009673826 -0.009669918 -0.009689406 -0.009730426 -0.009781213
 -0.009840408 -0.00989567 -0.009949412 -0.01000069 -0.01005376 -0.01011687 -0.01018844 -0.01027212 -0.01035851 -0.01044112
 -0.01051367 -0.01056875 -0.01061195 -0.01064307 -0.01067044 -0.0106975 -0.01072203 -0.0107451 -0.0107565 -0.01075502
 -0.01073689 -0.01070175 -0.01065813 -0.01060668 -0.01055867 -0.01051341 -0.01047286 -0.01043451 -0.0103899 -0.01033759
 -0.01026901 -0.01018621 -0.01008823 -0.009978781 -0.009862158 -0.009739949 -0.009615736 -0.009487002 -0.009354202 -0.009211662
 -0.009057131 -0.008887537 -0.008700267 -0.008501679 -0.008291385 -0.008082846 -0.007877523 -0.007683095 -0.007500155 -0.007326867
 -0.007163147 -0.007007171 -0.00685947 -0.006723012 -0.006597714 -0.006485038 -0.006384092 -0.006292632 -0.006211856 -0.006141942
 -0.006086493 -0.006050289 -0.006034535 -0.006042624 -0.006071921 -0.006121315 -0.006190625 -0.006278431 -0.006389938 -0.006526624
 -0.006690327 -0.006882878 -0.007094986 -0.007326253 -0.007564333 -0.007808382 -0.008056436 -0.008308789 -0.008570995 -0.008842399
 -0.009121908 -0.009407277 -0.009688978 -0.009966145 -0.01023155 -0.01048608 -0.01072845 -0.0109585 -0.01117568 -0.01137944
 -0.01156846 -0.01174469 -0.0119087 -0.01206279 -0.0122082 -0.01234524 -0.01247379 -0.01259606 -0.0127118 -0.01282738
 -0.01294366 -0.01306296 -0.01318565 -0.01330151 -0.01340961 -0.01349285 -0.01355131 -0.01357638 -0.01357069 -0.01354024
 -0.01348673 -0.01341889 -0.01333356 -0.01322959 -0.01310256 -0.01294525 -0.01275898 -0.01254193 -0.01229775 -0.01202995
 -0.01173382 -0.01141018 -0.01104662 -0.01063936 -0.01018314 -0.009674533 -0.009125166 -0.00853467 -0.007927459 -0.007304899
 -0.006692958 -0.006092507 -0.005519981 -0.004974225 -0.004456138 -0.003963005 -0.003484822 -0.003019623 -0.002556909 -0.00209716
 -0.00163557 -0.001175713 -0.0007193644 -0.0002716578 0.0001625536 0.000579681 0.0009764967 0.001350646 0.001701046 0.002023984
 0.002317455 0.002583237 0.002819346 0.003042341 0.003253205 0.003471986 0.00370021 0.003940852 0.00419356 0.004450182
 0.004711698 0.004980795 0.00526 0.005562174 0.005886124 0.00623628 0.006607957 0.006994504 0.007393185 0.00779749
 0.008207642 0.00862149 0.009040449 0.009464358 0.009895991 0.01033659 0.01078739 0.01124998 0.0117195 0.01219601
 0.01267059 0.01314227 0.01360457 0.01405692 0.01450024 0.01493494 0.01536961 0.01580415 0.01624357 0.01668432
 0.01711452 0.0175313 0.01791753 0.0182809 0.0186252 0.01896373 0.01931781 0.0196869 0.02008179 0.02048584
 0.02089195 0.02128831 0.02166656 0.02202886 0.02237363 0.02270723 0.02303031 0.02334925 0.02366449 0.02398466
 0.02431034 0.0246474 0.02499569 0.02535224 0.02571578 0.02607581 0.02643115 0.02677092 0.02709566 0.02740163
 0.02768899 0.02795884 0.02820433 0.02841928 0.02859219 0.02870877 0.02876873 0.02876402 0.02871101 0.02861355
 0.0284884 0.02834126 0.02818044 0.02800763 0.02783179 0.02765381 0.02748346 0.02732159 0.02716792 0.02702225
 0.02687936 0.02673981 0.02660531 0.02647696 0.02636041 0.02625596 0.0261669 0.02609388 0.02604053 0.02600466
 0.02598757 0.02597918 0.02597282 0.02595518 0.02591633 0.02584815 0.02574513 0.02560285 0.02541883 0.02519181
 0.02491971 0.02461234 0.02426952 0.02391087 0.02353764 0.02316593 0.02279625 0.02243566 0.02208372 0.02174098
 0.02140603 0.02107333 0.02074168 0.02040439 0.02006231 0.01971499 0.01936062 0.0189991 0.01862158 0.01822019
 0.01778841 0.01731756 0.01681355 0.01627639 0.01571358 0.01512915 0.01451794 0.01387993 0.01320774 0.01249908
 0.0117643 0.01100348 0.01024206 0.009481065 0.008738437 0.008012747 0.007300958 0.006601098 0.005901452 0.005204891
 0.004512245 0.003829666 0.003170965 0.002535448 0.001930501 0.001346041 0.0007749056 0.0002110993 -0.000354445 -0.0009125206
 -0.001463316 -0.001990532 -0.00248896 -0.002950342 -0.003370752 -0.003756456 -0.004106799 -0.004437607 -0.004749894 -0.005056926
 -0.005359021 -0.005658598 -0.005955433 -0.006248537 -0.006538574 -0.006829407 -0.007118946 -0.00740585 -0.007681866 -0.007930395
 -0.00814589 -0.008310211 -0.008433021 -0.008512979 -0.008571852 -0.008622291 -0.008681657 -0.008762402 -0.008865498 -0.00899565
 -0.009140543 -0.009298916 -0.009458576 -0.009617282 -0.009773874 -0.009927982 -0.01008404 -0.01024202 -0.01039957 -0.01055574
 -0.01070148 -0.01083647 -0.01095452 -0.01105587 -0.01113816 -0.01120138 -0.01124354 -0.011267 -0.01127304 -0.01126699
 -0.01125472 -0.01123836 -0.01122251 -0.01120211 -0.01117704 -0.01113894 -0.01108543 -0.01101031 -0.01091147 -0.01078868
 -0.010641 -0.0104755 -0.01029245 -0.01010228 -0.009905643 -0.009714343 -0.009529952 -0.009370477 -0.009237776 -0.009151775
 -0.009109266 -0.009113974 -0.009155783 -0.009217013 -0.009289211 -0.00935204 -0.009405808 -0.009442824 -0.009468216 -0.009483141
 -0.009491794 -0.009496803 -0.009498744 -0.00949965 -0.009492579 -0.009477441 -0.009442304 -0.009385194 -0.009302602 -0.009193733
 -0.009068008 -0.00892578 -0.008773401 -0.008609731 -0.008426992 -0.008224661 -0.00799372 -0.007739783 -0.007472211 -0.007201757
 -0.006954809 -0.006736574 -0.006569356 -0.006441863 -0.006355174 -0.006285994 -0.006219609 -0.006139482 -0.00603265 -0.005899198
 -0.005735597 -0.005549405 -0.005341016 -0.005119494 -0.004884918 -0.004654477 -0.004429171 -0.004229734 -0.004056736 -0.003913327
 -0.003797164 -0.003688608 -0.003585924 -0.003468954 -0.0033415 -0.003203501 -0.003061175 -0.00292845 -0.002805357 -0.002699937
 -0.002604183 -0.002513718 -0.002420506 -0.002317003 -0.002201831 -0.002071747 -0.0019304 -0.001777698 -0.001619481 -0.001456394
 -0.001295979 -0.001139477 -0.0009904787 -0.000849811 -0.0007086999 -0.0005664848 -0.0004061626 -0.0002275776 -2.126178E-05 0.0002101695
 0.0004603872 0.0007247909 0.0009866514 0.001242483 0.001476348 0.001689477 0.001875604 0.002040876 0.002188517 0.002325182
 0.002456402 0.002585753 0.002715923 0.002849578 0.002987893 0.003133198 0.003286654 0.003446494 0.003613158 0.003779823
 0.003946021 0.004105986 0.004259559 0.004407112 0.00454924 0.004691709 0.004834808 0.004983404 0.005136373 0.005292429
 0.00545141 0.005611197 0.00577512 0.0059474 0.006129593 0.00632717 0.006532829 0.00674412 0.006952188 0.007150847
 0.007340848 0.007520997 0.007694109 0.007861712 0.008018362 0.008163466 0.00829289 0.008405716 0.008511201 0.008609976
 0.008718373 0.008837016 0.008978468 0.009142085 0.009332502 0.00954653 0.009777953 0.01002157 0.01026346 0.01050086
 0.01072309 0.01093186 0.01112398 0.01130509 0.01147595 0.01164859 0.01182829 0.0120255 0.01224813 0.01248509
 0.01273845 0.01297836 0.01320028 0.01338999 0.01354491 0.01367992 0.01379581 0.01391167 0.0140275 0.0141497
 0.01427833 0.01441712 0.01456652 0.01473146 0.01490866 0.01509531 0.01528392 0.01546242 0.01562557 0.01576128
 0.01587499 0.01596332 0.01604411 0.01612452 0.01621912 0.01633635 0.01647292 0.0166291 0.01680273 0.01699148
 0.01721412 0.01747232 0.01777555 0.01812357 0.01848314 0.01885186 0.01919006 0.01950303 0.01979651 0.02007848
 0.02038016 0.02069858 0.0210437 0.02140693 0.02177822 0.02215566 0.02253337 0.02291214 0.02329339 0.02366902
 0.02403895 0.02438338 0.02469678 0.02496074 0.02516692 0.02532471 0.02543096 0.02552608 0.02561316 0.02572257
 0.02585546 0.026005 0.02616947 0.02632833 0.02648156 0.02661889 0.02674109 0.02684417 0.0269311 0.02700424
 0.02707134 0.02714618 0.0272304 0.02733521 0.02744577 0.02755697 0.02765006 0.02771333 0.02774037 0.02772407
 0.02767442 0.02758842 0.02749877 0.02740721 0.02736047 0.02736373 0.02743088 0.02756212 0.02771817 0.02789645
 0.02805475 0.02819538 0.02830974 0.02839969 0.02846626 0.02851058 0.02853182 0.02854023 0.02855018 0.02857161
 0.02862174 0.02870117 0.02881221 0.02896519 0.0291656 0.02942172 0.02975149 0.03009124 0.0304335 0.0307046
 0.03088186 0.03101849 0.03111466 0.03126165 0.03146365 0.03175236 0.03212334 0.03254084 0.03299525 0.0334177
 0.03380189 0.03408958 0.0342837 0.03435932 0.03432979 0.03420242 0.03399464 0.03372425 0.03341343 0.03307782
 0.03275155 0.03245545 0.03221064 0.03203494 0.03190798 0.03182963 0.03177259 0.03173019 0.03170922 0.03171017
 0.03173376 0.03177956 0.03179913 0.03178976 0.03170177 0.03154072 0.03130997 0.03101925 0.03070271 0.0303656
 0.03003434 0.02971467 0.0294249 0.02917324 0.02897715 0.02883499 0.02875645 0.02871924 0.0287224 0.02871821
 0.02869204 0.02860133 0.02842333 0.02819442 0.02790731 0.02767882 0.02751958 0.02750095 0.0276264 0.0278543
 0.02817975 0.02853311 0.02891308 0.02927981 0.02963043 0.02993127 0.03018671 0.0303835 0.03054384 0.0306972
 0.03085872 0.03106095 0.03129517 0.03156562 0.03186049 0.03217653 0.03249921 0.03283007 0.03312545 0.03337765
 0.03354211 0.0336057 0.03358529 0.0334778 0.03335592 0.03322342 0.03314373 0.03311619 0.03315413 0.03324911
 0.03336226 0.03348403 0.03355642 0.03358651 0.03355568 0.03348982 0.0334238 0.03337119 0.03336674 0.03339471
 0.03345547 0.03352946 0.03360618 0.03367493 0.03373186 0.03376137 0.03375863 0.03371625 0.03363032 0.03351541
 0.03337226 0.03321572 0.03304663 0.0328735 0.03269799 0.03254295 0.0324103 0.03232505 0.03228355 0.03228722
 0.03232973 0.03239969 0.03248655 0.03257382 0.03263941 0.03265055 0.03259943 0.03245891 0.03226534 0.03202814
 0.03178608 0.03156326 0.03134475 0.0311338 0.03089857 0.03063084 0.03033989 0.03002483 0.0297111 0.02940004
 0.02909662 0.0288016 0.02852424 0.02826818 0.02806183 0.02790429 0.02781129 0.02777112 0.02776719 0.02778204
 0.02778018 0.02775072 0.0276624 0.02752857 0.02734222 0.02714173 0.02694608 0.02678007 0.02666278 0.02657885
 0.02652928 0.02649116 0.02645924 0.02643357 0.02641388 0.02639791 0.02638552</values></Ydata></AB><ScSm><Ydata ylabel="Single channel"><values byteorder="INTEL" format="FLOAT32" numvalues="1814"> 0.0712299 0.07124482 0.07133087 0.07151102 0.07174771 0.07196648 0.07211098 0.07217877 0.07219657 0.07217278
 0.07210878 0.07205436 0.07209958 0.07228584 0.07254685 0.07275176 0.07280773 0.07274229 0.07269293 0.07277443
 0.07292521 0.07291889 0.07257695 0.07197236 0.07138424 0.07104061 0.0709738 0.07117398 0.07172552 0.0725596
 0.07317306 0.07298446 0.07206146 0.07115503 0.07086897 0.07108267 0.07129721 0.07121462 0.07083313 0.0703342
 0.07013101 0.0707567 0.07234015 0.0741742 0.07497098 0.07367544 0.07021692 0.06574455 0.06220322 0.06129503
 0.06328252 0.06663837 0.0691911 0.06986141 0.06918341 0.06820336 0.06734693 0.06655942 0.06604385 0.06630006
 0.06743819 0.06871648 0.06892747 0.06743135 0.06491418 0.06290013 0.06235977 0.06310005 0.06458043 0.06650823
 0.06801101 0.06715335 0.06283081 0.05719079 0.05469077 0.05786609 0.06462747 0.07030335 0.0717988 0.06934446
 0.06515998 0.06160734 0.06029064 0.06161839 0.06472841 0.06820461 0.07093909 0.07218952 0.07138444 0.06861435
 0.06512573 0.06272511 0.06267238 0.06518298 0.0693766 0.07335357 0.07505696 0.07379015 0.07068181 0.06749052
 0.06544168 0.06522524 0.06717312 0.07092042 0.07537545 0.07934742 0.08203486 0.08311559 0.08281641 0.08176677
 0.08052011 0.0794598 0.07912858 0.07989521 0.08107776 0.08120185 0.07960182 0.07730791 0.07598679 0.07621947
 0.07703692 0.07709883 0.07605146 0.0743241 0.0718094 0.06781653 0.06266265 0.05811848 0.05563907 0.05524242
 0.05655935 0.05941591 0.06260087 0.06378126 0.06206045 0.05962179 0.05956937 0.06261258 0.06669575 0.06950059
 0.07058983 0.07124516 0.07281879 0.07535458 0.07741132 0.07714599 0.07413672 0.0704217 0.06906606 0.07115553
 0.07474864 0.07726483 0.07820796 0.07890612 0.08018212 0.08108008 0.07986237 0.07607637 0.07167758 0.06982932
 0.07214904 0.07708737 0.08104901 0.08105846 0.07676744 0.07053406 0.06557895 0.06375341 0.06504091 0.06878735
 0.07442257 0.08081457 0.08596906 0.08815148 0.08715826 0.08420818 0.08055097 0.0763173 0.07118355 0.0662866
 0.06445792 0.06755127 0.0740754 0.0804318 0.08412392 0.08501175 0.08392373 0.08111703 0.0764887 0.07103799
 0.06736024 0.06763916 0.07101823 0.07407503 0.07440363 0.07281293 0.07157686 0.07159726 0.07205966 0.07216944
 0.0722842 0.07329436 0.07534406 0.07748516 0.07859577 0.07840614 0.07754451 0.07680301 0.07641986 0.07591065
 0.07474306 0.07338329 0.07325624 0.07519569 0.07830924 0.08089465 0.08214889 0.0824762 0.0823689 0.08153541
 0.07932919 0.07597879 0.07309575 0.07248443 0.07439943 0.07738723 0.0798019 0.08098789 0.08112383 0.08063233
 0.07989244 0.07911318 0.07839446 0.0780015 0.07830257 0.07925296 0.08026668 0.08080634 0.08083054 0.08053715
 0.0799761 0.07911265 0.07810281 0.07731703 0.07707725 0.07741179 0.0780811 0.07879263 0.07931709 0.07946812
 0.0791669 0.07856342 0.07793878 0.07745165 0.07709999 0.07691009 0.07698338 0.07731789 0.07772607 0.07799613
 0.07805892 0.07796288 0.07776177 0.07747789 0.07713799 0.07680663 0.07658367 0.07654752 0.07666947 0.07682002
 0.07690962 0.07697651 0.0770723 0.07712414 0.07700928 0.07673384 0.07644529 0.07627738 0.07624544 0.07628034
 0.07629807 0.07621524 0.07595158 0.0754988 0.07500555 0.0747191 0.0747848 0.07513805 0.07560781 0.07604983
 0.07636276 0.07648897 0.07646216 0.07638064 0.07628961 0.07614224 0.07589982 0.07562889 0.07547782 0.07555978
 0.07584943 0.07619964 0.07646779 0.07660642 0.07664141 0.07662873 0.07664186 0.07672316 0.07682005 0.07683225
 0.07674144 0.0766431 0.07663621 0.07671632 0.07678825 0.07677235 0.07669473 0.07666297 0.07674797 0.07691266
 0.07706966 0.07717934 0.07726964 0.07737465 0.07747115 0.07748665 0.07738485 0.07723058 0.07713175 0.07712372
 0.07715803 0.07720102 0.07728322 0.07743303 0.07760815 0.07772706 0.07775606 0.07773863 0.07773305 0.07773904
 0.07770643 0.07760894 0.07748233 0.07738626 0.07734977 0.07735819 0.07737607 0.07737494 0.07734697 0.07729878
 0.0772353 0.07715326 0.07705019 0.07694138 0.07686869 0.0768798 0.07697757 0.07708977 0.07711209 0.07699791
 0.07680318 0.07663424 0.07654855 0.07651113 0.07644898 0.07633559 0.07620898 0.07611721 0.07607062 0.07604787
 0.07602509 0.07599284 0.0759661 0.07598826 0.07610213 0.07629406 0.07648004 0.07657406 0.07657001 0.07653855
 0.07654971 0.07661871 0.07671941 0.07682513 0.07693489 0.07707029 0.07724066 0.07741068 0.07752793 0.07758871
 0.07764778 0.07775793 0.07793048 0.07815254 0.07839854 0.07861818 0.07876088 0.07883188 0.07889412 0.07899979
 0.07914418 0.07929622 0.07944737 0.0796124 0.07980013 0.08000778 0.0802407 0.08051746 0.08084727 0.08120806
 0.08155157 0.08183414 0.08205318 0.08225928 0.08252358 0.082881 0.08330151 0.0837179 0.08408141 0.08439557
 0.08469822 0.08501268 0.08532794 0.08563665 0.08597253 0.08637843 0.08684449 0.08731212 0.08773936 0.08813485
 0.088527 0.08892816 0.08933669 0.0897557 0.09019783 0.09067059 0.09115604 0.09161159 0.09200323 0.09233925
 0.09266572 0.09303316 0.09346575 0.09393944 0.09438103 0.09471902 0.09496119 0.09520055 0.09551783 0.09589639
 0.09626228 0.09658989 0.09692712 0.09731829 0.09774202 0.09814166 0.09849394 0.09882708 0.09917741 0.09954128
 0.09987213 0.1001253 0.100308 0.1004775 0.1006877 0.1009511 0.1012613 0.1016281 0.1020567 0.1025078
 0.1029147 0.1032381 0.1034841 0.1036795 0.1038562 0.1040468 0.1042661 0.1045 0.104729 0.104944
 0.1051322 0.105282 0.1054196 0.1056052 0.1058695 0.1061842 0.106516 0.1068748 0.1072755 0.1076886
 0.108074 0.108449 0.1088693 0.1093363 0.1097678 0.1100835 0.1102849 0.1104259 0.1105444 0.1106653
 0.1108423 0.1111323 0.1115272 0.1119512 0.1123331 0.1126543 0.1129284 0.1131645 0.1133624 0.1135259
 0.1136663 0.1137999 0.1139477 0.1141404 0.1144124 0.1147751 0.115192 0.1155922 0.1159153 0.1161337
 0.1162336 0.1162069 0.1160807 0.1159284 0.1158128 0.1157152 0.1155444 0.1152167 0.1147117 0.1140518
 0.1132576 0.1123427 0.1113449 0.1103426 0.1094335 0.1086983 0.1081887 0.1079463 0.1080152 0.1084107
 0.1090716 0.1098571 0.1105987 0.1111481 0.1113884 0.1112419 0.1107029 0.1098513 0.1088124 0.1077005
 0.1065971 0.1055516 0.104581 0.1036903 0.102927 0.1024131 0.1023083 0.1027406 0.1037649 0.1053506
 0.1073755 0.1096344 0.1118917 0.1139603 0.1157543 0.1172803 0.1185943 0.1197691 0.1208748 0.1219494
 0.1229765 0.123913 0.1247442 0.1254951 0.1261876 0.1268102 0.127333 0.1277356 0.1280203 0.1282106
 0.128338 0.1284214 0.128467 0.1284875 0.1285 0.1284912 0.1283995 0.1281449 0.1276791 0.1270151
 0.1262345 0.1254887 0.124998 0.1250283 0.1258095 0.1274071 0.1296481 0.1321871 0.1346676 0.1368424
 0.1386025 0.1399575 0.1409998 0.1418471 0.1425865 0.1432618 0.1438949 0.1444983 0.1450729 0.1456122
 0.1461174 0.1466048 0.1470975 0.1476054 0.1481126 0.1485914 0.1490336 0.1494641 0.1499167 0.1504006
 0.150893 0.1513627 0.1518026 0.152236 0.1526855 0.1531384 0.1535583 0.1539304 0.1542791 0.1546436
 0.1550494 0.1554983 0.1559662 0.1564083 0.1567876 0.1571063 0.1574022 0.1577119 0.1580443 0.1583852
 0.1587201 0.1590478 0.1593768 0.1597158 0.1600698 0.1604354 0.1607938 0.1611176 0.1613955 0.1616487
 0.1619118 0.1622001 0.1625029 0.1628022 0.1630944 0.1633949 0.1637248 0.1640874 0.1644551 0.164787
 0.1650658 0.1653121 0.1655624 0.1658377 0.1661374 0.1664505 0.1667641 0.1670668 0.1673552 0.1676397
 0.1679359 0.1682481 0.1685647 0.1688696 0.1691566 0.1694317 0.1697052 0.1699823 0.1702672 0.170571
 0.1709054 0.1712624 0.1716083 0.1719106 0.1721671 0.1724042 0.1726497 0.1729138 0.1731932 0.1734813
 0.1737739 0.1740695 0.1743661 0.1746598 0.1749482 0.1752338 0.1755219 0.1758145 0.1761086 0.1764014
 0.176695 0.1769951 0.1773033 0.1776118 0.1779091 0.1781907 0.1784622 0.1787322 0.1790057 0.179282
 0.1795553 0.1798196 0.1800769 0.1803374 0.1806096 0.1808915 0.1811747 0.1814517 0.1817194 0.1819806
 0.1822408 0.1825041 0.1827708 0.1830391 0.1833076 0.1835747 0.1838399 0.1841042 0.1843683 0.184633
 0.1849009 0.1851743 0.1854534 0.1857353 0.1860156 0.1862898 0.1865562 0.1868152 0.1870662 0.1873077
 0.1875442 0.1877874 0.1880472 0.1883239 0.1886077 0.1888859 0.1891532 0.1894144 0.1896759 0.1899366
 0.1901944 0.190454 0.1907222 0.1909973 0.1912719 0.1915428 0.1918133 0.1920894 0.1923718 0.1926526
 0.192922 0.1931791 0.1934315 0.1936852 0.1939402 0.1941917 0.194435 0.194671 0.1949076 0.1951499
 0.1953944 0.1956358 0.1958732 0.1961087 0.196347 0.1965948 0.1968521 0.1971104 0.1973658 0.1976235
 0.1978862 0.1981497 0.1984123 0.1986751 0.1989343 0.1991852 0.1994296 0.1996749 0.1999314 0.2002066
 0.2004935 0.2007714 0.20103 0.2012793 0.2015318 0.2017906 0.2020541 0.2023187 0.2025797 0.2028388
 0.2031036 0.2033751 0.2036471 0.203915 0.2041748 0.2044221 0.2046632 0.2049118 0.2051714 0.2054351
 0.2056973 0.2059529 0.2061975 0.2064373 0.206685 0.2069407 0.207196 0.2074507 0.2077084 0.2079681
 0.2082293 0.208492 0.2087482 0.2089934 0.2092367 0.2094854 0.2097366 0.2099912 0.2102465 0.2104737
 0.2106118 0.2105286 0.2098989 0.2080708 0.2040516 0.1967124 0.1852423 0.1696651 0.1510118 0.1309509
 0.1111726 0.0929528 0.07703715 0.06374779 0.05315169 0.04516612 0.03962146 0.03636843 0.03539449 0.03694599
 0.0416621 0.05019882 0.06179122 0.07296892 0.07889587 0.07718462 0.07018031 0.06282552 0.05855035 0.05760397
 0.05851734 0.060026 0.06172498 0.06384876 0.06680585 0.0707196 0.07539966 0.08082819 0.08740689 0.09544292
 0.1045184 0.1136584 0.1221725 0.1302016 0.1383914 0.1471157 0.1560832 0.1646256 0.1722343 0.1788166
 0.1845858 0.1898203 0.1947075 0.1993338 0.2037446 0.2079385 0.211769 0.2149069 0.2169989 0.2179348
 0.2179751 0.2176056 0.217251 0.2171097 0.2172033 0.2175021 0.2179803 0.2186124 0.2193718 0.2202294
 0.2211463 0.2220833 0.2230199 0.2239461 0.2248429 0.2256851 0.2264564 0.2271537 0.2277845 0.2283614
 0.2288922 0.2293769 0.2298183 0.2302288 0.2306224 0.2310066 0.2313808 0.231736 0.2320605 0.2323519
 0.2326195 0.2328714 0.2331085 0.2333314 0.2335466 0.2337624 0.2339838 0.2342119 0.2344442 0.2346776
 0.2349092 0.2351345 0.2353498 0.2355595 0.2357752 0.2360032 0.2362343 0.2364536 0.2366573 0.2368586
 0.237074 0.2373043 0.2375329 0.2377457 0.2379475 0.2381537 0.2383711 0.2385952 0.2388189 0.2390364
 0.239249 0.2394677 0.2397023 0.2399489 0.2401993 0.2404543 0.2407139 0.2409659 0.2411988 0.2414152
 0.2416203 0.2418109 0.2419856 0.2421591 0.2423561 0.2425914 0.2428532 0.2431096 0.2433402 0.2435531
 0.2437664 0.2439843 0.2441983 0.2443987 0.244584 0.2447761 0.2450143 0.2453108 0.245631 0.2459339
 0.2462098 0.246466 0.2467107 0.2469582 0.2472121 0.2474397 0.2476049 0.2477324 0.2479116 0.2482193
 0.2486399 0.2490697 0.2494101 0.2496544 0.2498702 0.2501228 0.2504369 0.2507749 0.2510148 0.2510344
 0.2508951 0.2508663 0.251176 0.2517839 0.2524573 0.2530109 0.2534173 0.2537411 0.2540354 0.2542905
 0.2544447 0.2544536 0.2543783 0.2544051 0.2547148 0.2552961 0.2559405 0.2564551 0.2568142 0.257081
 0.2572962 0.2574781 0.2575871 0.2574612 0.2569856 0.2564049 0.2562644 0.2568835 0.2579924 0.2590148
 0.2596374 0.2599745 0.2602499 0.2605255 0.2607552 0.2608319 0.260465 0.2593447 0.2577313 0.256621
 0.2569242 0.2585515 0.2605755 0.2621599 0.2630849 0.2635459 0.2638008 0.2639986 0.2640652 0.2637022
 0.2627265 0.2615298 0.2609825 0.2616277 0.2630668 0.264387 0.2650948 0.2653731 0.2655846 0.2658645
 0.266032 0.2655478 0.2638186 0.2610776 0.2588263 0.258782 0.2612 0.2645655 0.2670933 0.2682615
 0.2686715 0.268734 0.2680619 0.2661689 0.2632071 0.2598979 0.2572982 0.2566537 0.258575 0.2620067
 0.2648239 0.2659296 0.2661852 0.2669997 0.2686498 0.2702944 0.2710686 0.2707534 0.2696223 0.2679631
 0.265937 0.2640111 0.2632298 0.2644791 0.2674057 0.2705337 0.2726291 0.27364 0.2740555 0.2734627
 0.2702552 0.2635651 0.2556817 0.2514251 0.2538932 0.2612204 0.2685814 0.2729403 0.2747191 0.2755271
 0.2759986 0.2756197 0.2730372 0.2668003 0.2576507 0.2499564 0.2487576 0.2547833 0.2636276 0.2698601
 0.2707194 0.2664046 0.2591098 0.2523774 0.249648 0.2521701 0.2584535 0.2657472 0.2716948 0.2749735
 0.2752735 0.2731746 0.2701082 0.2680081 0.2679102 0.2684272 0.2668022 0.2623924 0.2577416 0.2548489
 0.252079 0.2471924 0.2422577 0.2422829 0.248699 0.2569622 0.2616559 0.2619739 0.2607511 0.2593112
 0.2552249 0.245818 0.2332216 0.2244765 0.2253673 0.2344161 0.2441927 0.2485695 0.2475789 0.2452725
 0.244323 0.2433459 0.2389517 0.2302281 0.2210162 0.2167147 0.2185794 0.2226173 0.2243365 0.222348
 0.2168223 0.2080326 0.198908 0.1959944 0.2039255 0.219734 0.2351538 0.2434164 0.241745 0.2299076
 0.2111524 0.1941483 0.1887798 0.1973262 0.2117059 0.2209004 0.2197249 0.209812 0.1948824 0.1781386
 0.1636841 0.1570497 0.1619002 0.1762933 0.1927504 0.202031 0.1982569 0.1834284 0.1677199 0.1621744
 0.1687326 0.1789342 0.1834014 0.1803392 0.1742521 0.170067 0.1702432 0.1744084 0.1798033 0.1838469
 0.1862104 0.186025 0.1791029 0.1630196 0.143993 0.1328251 0.1336587 0.1418412 0.1526054 0.1653222
 0.1778089 0.1834078 0.1784853 0.1693322 0.1668274 0.1748983 0.1871325 0.1945879 0.1946332 0.1914538
 0.1895548 0.188923 0.1872837 0.1853641 0.1870919 0.1941749 0.2031072 0.2090758 0.2109751 0.2109765
 0.2108428 0.2105935 0.209757 0.2081696 0.2058936 0.203338 0.2011383 0.1994437 0.1977848 0.1957899
 0.1931843 0.1887836 0.1807821 0.1693904 0.1584589 0.1524875 0.1519308 0.1534798 0.1549427 0.1565526
 0.1564784 0.1494974 0.1338761 0.1170655 0.1102886 0.1177059 0.1333247 0.1478244 0.1556417 0.155439
 0.1473945 0.1335718 0.1203659 0.1164897 0.12585 0.1438167 0.1622319 0.1764359 0.1857188 0.1894373
 0.186369 0.1777244 0.1682688 0.1636021 0.1667989 0.1770441 0.1898214 0.1979851 0.195264 0.1825617
 0.1708296 0.1729652 0.1901824 0.2098847 0.2198192 0.2205191 0.2202351 0.2221163 0.2226784 0.220913
 0.2219011 0.2298343 0.2418225 0.2507357 0.251475 0.2429799 0.2275015 0.211049 0.2018541 0.2038295
 0.2121865 0.2186936 0.21968 0.2155696 0.205987 0.1917479 0.1800312 0.1800841 0.1924864 0.2078528
 0.2174944 0.2213417 0.2240823 0.227053 0.2266095 0.2196628 0.2088399 0.2008746 0.1999474 0.2040191
 0.2082724 0.2101756 0.2095735 0.2058666 0.1983589 0.1893709 0.1842622 0.1868173 0.1953783 0.2044401
 0.209623 0.2104522 0.2090231 0.2073352 0.2059568 0.2042187 0.2015644 0.1992863 0.2002683 0.2058269
 0.2134846 0.2194569 0.2229647 0.226478 0.2318318 0.2376686 0.2410598 0.2406967 0.2381632 0.2365946
 0.238178 0.2424013 0.2464163 0.2474594 0.2454734 0.2434005 0.2444698 0.2491072 0.2548642 0.2591862
 0.2614992 0.2626925 0.2636175 0.2643619 0.2642102 0.2622076 0.2585624 0.2554752 0.2555996 0.2594134
 0.2647474 0.2689947 0.2711839 0.2718667 0.2717487 0.2709462 0.2693642 0.2673345 0.2656231 0.2648455
 0.2650396 0.2658318 0.2668294 0.2677782 0.2685359 0.2690704 0.2694399 0.2697054 0.2698958 0.2700493
 0.2701947 0.2702817 0.2702346 0.2701104 0.2701035 0.2703296 0.270672 0.2709097 0.2709208 0.2706702
 0.2700741 0.2690311 0.2675871 0.2659289 0.2641743 0.2622864 0.260309 0.2586427 0.2579423 0.2586278
 0.2604924 0.2628259 0.2649114 0.2663921 0.2672627 0.2676784 0.2678254 0.2678679 0.2679008 0.2679313
 0.2679264 0.2678762 0.2678022 0.2677196 0.2676246 0.2675262 0.2674625 0.2674644 0.2675124 0.267542
 0.267484 0.2672998 0.2669975 0.2666253 0.2662299 0.2658101 0.2653145 0.2646886 0.2639201 0.2630439
 0.2621204 0.2612081 0.260333 0.2594678 0.2585518 0.2575341 0.2563818 0.2550503 0.2535045 0.251802
 0.2501074 0.2485723 0.2472168 0.245952 0.2446814 0.2433485 0.2419301 0.2404365 0.2389089 0.2373879
 0.2358829 0.2343777 0.2328535 0.231297 0.2296939 0.2280282 0.2262911 0.2244897 0.2226402 0.2207485
 0.2187912 0.2167039 0.2143841 0.2117149 0.208593 0.2049437 0.2007377 0.1960223 0.1909437 0.1857199
 0.1805766 0.1756895 0.1711718 0.1671051 0.163572 0.1606468 0.1583663 0.1567369 0.1557713 0.1554945
 0.1559092 0.1569701 0.1585904 0.1606561 0.1630334 0.1655733 0.1681229 0.1705477 0.1727679 0.1747851
 0.1766689 0.1784979 0.1802983 0.1820346 0.1836571 0.1851386 0.1864597 0.1875926 0.188528 0.1893009
 0.189961 0.1905312 0.1910115 0.1914046 0.1917215 0.1919795 0.1922055 0.1924342 0.1926994 0.1930287
 0.1934372 0.1939202 0.1944625 0.1950589 0.1957195 0.1964542 0.1972544 0.1980936 0.198952 0.1998408
 0.200793 0.2018336 0.2029798 0.2042695 0.2057582 0.2074752 0.2093923 0.2114359 0.2135162 0.2155448
 0.2174349 0.2191033 0.2204891 0.2215794 0.222409 0.2230274 0.2234683 0.2237472 0.2238729 0.2238611
 0.2237372 0.2235231 0.2232268 0.222857 0.2224347 0.2219723 0.2214594 0.2208898 0.2202868 0.2196855
 0.2191049 0.2185498 0.2180253 0.2175365 0.21708 0.216639 0.2161887 0.2157131 0.2152131 0.2146915
 0.214137 0.2135308 0.2128564 0.2120953 0.2112268 0.2102367 0.2091185 0.2078679 0.2064898 0.2050072
 0.2034582 0.2018809 0.200296 0.1986951 0.1970529 0.1953464 0.1935518 0.191638 0.1895996 0.187496
 0.185426 0.1834632 0.1816274 0.1799012 0.1782494 0.1766393 0.1750665 0.1735563 0.1721375 0.1708196
 0.1695909 0.1684271 0.1673037 0.1662102 0.1651577 0.1641771 0.1633086 0.1625741 0.1619546 0.1614087
 0.1609137 0.1604753 0.1601106 0.1598422 0.1596889 0.1596335 0.1596063 0.1595257 0.1593565 0.1591242
 0.1588812 0.1586618 0.1584643 0.15827 0.1580676 0.157844 0.1575555 0.157122 0.1564499 0.1554668
 0.1541531 0.1525512 0.1507403 0.1488177 0.1469016 0.1451161 0.1435515 0.1422544 0.141245 0.1405044
 0.1399542 0.1394985 0.139103 0.1388161 0.1387093 0.1387872 0.1389409 0.1390142 0.1389486 0.138849
 0.1388858 0.1391562 0.1396418 0.140246 0.1408525 0.1413788 0.14179 0.1420675 0.1421973 0.1421961
 0.142105 0.1419481 0.1417267 0.1414445 0.1411086 0.1407205 0.1402784 0.1397724 0.1391858 0.1385214
 0.1377999 0.1370213 0.1361652 0.1352214 0.1341677 0.1329576 0.1316224 0.1303687 0.1294961 0.1292026
 0.12947 0.1300963 0.1308511 0.1316246 0.1323767 0.1329437 0.1330877 0.1328747 0.1328644 0.1337014
 0.1354988 0.1377213 0.1396677 0.1409645 0.1415954 0.1416442 0.1411682 0.1402209 0.1388201 0.1369299
 0.134577 0.1319045 0.1290547 0.1261281 0.1232798 0.1206994 0.1184959 0.1166943 0.1152858 0.1143083
 0.1138945 0.1136934 0.1119104 0.1062506 0.09743863 0.09079545 0.09177116 0.09981681 0.1087484 0.1132829
 0.1132669 0.1115249 0.1100212 0.1090665 0.1085699 0.1086629 0.1094468 0.1107509 0.1121734 0.1133262
 0.1140737 0.1144671 0.1144553 0.1136988 0.1115437 0.1072228 0.1004591 0.09203891 0.08356132 0.07649662
 0.07152325 0.06855147 0.06703766 0.06630199 0.06586037 0.06563951 0.06588351 0.06684807 0.06858432 0.07097623
 0.0738713 0.07704793 0.08011268 0.0826562 0.08457342 0.0860667 0.08729941 0.08820786 0.08866879 0.08868225
 0.08834828 0.08778058 0.08707987 0.08631435 0.0854763 0.08449113 0.08334284 0.08220536 0.08136036 0.08093452
 0.08080128 0.08077407 0.08078042 0.08081259 0.08084346 0.08084743 0.08083017 0.08083256 0.08094187 0.08123788
 0.08168254 0.08212472 0.08243608 0.08260003 0.08268216 0.08272503 0.08263543 0.08224731 0.08159927 0.08100216
 0.08062454 0.08017001 0.07925837 0.07803071 0.07708213 0.07681905 0.0771006 0.07749057 0.07766488 0.0775649
 0.07734962 0.07730325 0.07765165 0.07829937</values></Ydata></ScSm><ScRf><Ydata ylabel="Single channel"><values byteorder="INTEL" format="FLOAT32" numvalues="1820"> 0.06078272 0.06094043 0.06103978 0.06107718 0.06107448 0.06107764 0.06113889 0.061283 0.0614848 0.06168076
 0.06181386 0.06187311 0.06188027 0.06184778 0.06178202 0.06172691 0.06175676 0.06190238 0.06210488 0.06225652
 0.06228643 0.06222342 0.06218131 0.0622485 0.06236669 0.06234699 0.06204699 0.06153332 0.06103773 0.06074424
 0.06067669 0.06083316 0.06129611 0.0620112 0.06254192 0.06237905 0.06157469 0.06077769 0.06051584 0.06069019
 0.06087056 0.06079884 0.06047381 0.06004993 0.05987691 0.06040843 0.06175592 0.06331435 0.06397644 0.06283385
 0.0598309 0.05596811 0.05292726 0.05216711 0.05389751 0.05679207 0.0589824 0.05954827 0.05895858 0.05811881
 0.05739234 0.05672144 0.05627235 0.05647937 0.05744815 0.05854158 0.05871118 0.05740461 0.05522485 0.05349279
 0.05303531 0.05367274 0.0549385 0.05658576 0.05786151 0.05709659 0.05335075 0.04849055 0.04635657 0.04911518
 0.05494992 0.05983451 0.06110991 0.05898278 0.05537316 0.05231932 0.05119414 0.05233308 0.054989 0.057956
 0.06029354 0.06135995 0.06065478 0.05825967 0.05526131 0.05322054 0.05321018 0.05539397 0.05899797 0.0623886
 0.06381325 0.06269032 0.05999576 0.05723861 0.0554722 0.05529244 0.05698155 0.06021591 0.06405026 0.0674628
 0.06976852 0.07068998 0.07042186 0.06951284 0.06844859 0.06755584 0.06728339 0.0679338 0.06892626 0.06901181
 0.06763001 0.0656624 0.06452969 0.06472363 0.0654136 0.06545661 0.064555 0.06307507 0.06091815 0.05748951
 0.05306529 0.04916738 0.04704414 0.04671554 0.04787324 0.05036755 0.05314486 0.05418714 0.05271904 0.05061649
 0.05054819 0.05312991 0.05660577 0.05899199 0.05991514 0.06047422 0.06182501 0.06399739 0.06575015 0.065508
 0.06292384 0.05975667 0.05862811 0.06044802 0.06353903 0.06569973 0.06652621 0.06716403 0.06830519 0.06911216
 0.06809127 0.06487045 0.06114674 0.05963034 0.06167994 0.06594266 0.06933956 0.06933979 0.0656603 0.06032903
 0.05610817 0.0545847 0.05575187 0.0590646 0.06404059 0.06969537 0.07429438 0.076324 0.07558434 0.07311083
 0.06998941 0.06634901 0.06192002 0.05770754 0.05620432 0.05904162 0.06490443 0.07062447 0.07400645 0.07492614
 0.07410136 0.0717366 0.06772532 0.062967 0.05980561 0.06020984 0.0634013 0.06629142 0.06671658 0.06541455
 0.06443883 0.0645974 0.0651477 0.06537585 0.06562337 0.06671191 0.06876864 0.07091454 0.07211 0.07209697
 0.07145193 0.07091943 0.0707321 0.0704346 0.06952471 0.06844827 0.06854517 0.07057553 0.07367165 0.07623146
 0.07752907 0.07797815 0.07804976 0.07744256 0.07551154 0.07246905 0.06987675 0.0694863 0.07154699 0.07464761
 0.07718264 0.07850835 0.0788056 0.07850213 0.07797516 0.07742345 0.0769372 0.0767695 0.07727133 0.07838964
 0.07955146 0.08024235 0.08043014 0.08030139 0.07989281 0.07917769 0.07833646 0.07774937 0.07771802 0.07824312
 0.07908038 0.07995613 0.08065836 0.08099437 0.08086088 0.08039534 0.07989738 0.07955625 0.07937998 0.07938115
 0.07964401 0.08015648 0.08072623 0.08114243 0.08134267 0.0813826 0.08131875 0.08117159 0.08096471 0.08076623
 0.08068821 0.08081298 0.08109403 0.08138417 0.08160739 0.0818341 0.08212079 0.08235735 0.08238049 0.08219431
 0.08197859 0.08189468 0.08195587 0.08207559 0.0821633 0.08214267 0.08193939 0.08154739 0.08112288 0.0809272
 0.08111908 0.08164136 0.08231686 0.0829738 0.08347282 0.08373443 0.08379747 0.08377659 0.08372852 0.08361407
 0.08340392 0.08317537 0.08308816 0.08326597 0.083685 0.08418144 0.08458245 0.0848159 0.08490743 0.08494024
 0.08502305 0.08520703 0.08540678 0.08547917 0.08540389 0.08531964 0.08535969 0.08550212 0.08560759 0.08558168
 0.0854798 0.08544728 0.08556522 0.08577943 0.08598517 0.08614834 0.08631915 0.08653807 0.08674893 0.08682636
 0.08671021 0.0864936 0.08633348 0.08628812 0.08630283 0.08634399 0.08645922 0.08667664 0.0869157 0.08705635
 0.08707365 0.0870565 0.0870904 0.08715408 0.08715173 0.08702974 0.08683641 0.08667299 0.08661025 0.0866509
 0.08674371 0.08681922 0.0868266 0.08675868 0.08664902 0.08654007 0.0864533 0.08639927 0.08641291 0.08654441
 0.08678372 0.08701046 0.08706625 0.08690067 0.0866302 0.08643272 0.08638309 0.08639898 0.08634196 0.08615356
 0.08588842 0.08563907 0.08545488 0.08532698 0.08522282 0.08512524 0.08505604 0.08506857 0.08519346 0.08537198
 0.08546601 0.0853707 0.08511512 0.08483036 0.08463004 0.08454242 0.08453187 0.08454702 0.08456166 0.08459542
 0.08467577 0.08476782 0.08478522 0.084694 0.08456449 0.08450194 0.08456436 0.08474754 0.08498742 0.08516718
 0.08519086 0.08508069 0.08496042 0.08492669 0.08497374 0.0850486 0.08512972 0.08522593 0.08533534 0.08544441
 0.08556063 0.08571772 0.08593944 0.08620538 0.08645587 0.08663401 0.08673513 0.08682171 0.08697943 0.0872465
 0.08758366 0.08791048 0.08816789 0.08835445 0.0885132 0.08868337 0.08886899 0.08906294 0.08928568 0.08956824
 0.08990072 0.09023291 0.09053099 0.09080684 0.09108838 0.09138545 0.09169251 0.0920123 0.0923684 0.09278273
 0.09322837 0.09361906 0.09387579 0.09400662 0.09410788 0.09429146 0.09460963 0.09501551 0.09537954 0.09558806
 0.09566092 0.09574144 0.09593868 0.09621497 0.09646881 0.09669113 0.09697564 0.09738003 0.09783444 0.09820879
 0.09844279 0.09859048 0.09874821 0.09895252 0.09915291 0.0992852 0.09935734 0.09943811 0.09956911 0.0997341
 0.09992835 0.1002019 0.1005901 0.1010359 0.1014316 0.1017195 0.1019169 0.1020645 0.1021851 0.1022806
 0.1023387 0.1023555 0.102366 0.1024223 0.1025286 0.1026286 0.1026787 0.1027044 0.1027626 0.1028832
 0.1030716 0.1033349 0.1036607 0.1039931 0.1042816 0.1045538 0.1048837 0.1052704 0.1056014 0.1057738
 0.1058117 0.1058149 0.1058333 0.105857 0.1059058 0.1060466 0.1063118 0.1066554 0.1070088 0.1073444
 0.1076729 0.1080019 0.1083109 0.1085546 0.1086912 0.1087192 0.1086926 0.1086955 0.1087987 0.1090249
 0.1093366 0.1096609 0.1099355 0.1101304 0.1102303 0.1102294 0.1101678 0.110145 0.1102438 0.1104362
 0.1105914 0.110585 0.1103785 0.1099994 0.1094825 0.1088576 0.1081751 0.1075142 0.1069546 0.1065467
 0.1063137 0.1062829 0.1064939 0.1069563 0.1076011 0.1083031 0.108954 0.1094841 0.1098135 0.1098393
 0.1095133 0.1089078 0.1081707 0.1074289 0.106747 0.106136 0.1055657 0.1049991 0.1044697 0.1041237
 0.104157 0.1047004 0.1057495 0.1071679 0.1087333 0.1102122 0.1114512 0.1124294 0.1132276 0.1139382
 0.1146073 0.1152529 0.1159015 0.1165689 0.1172192 0.1177875 0.1182526 0.1186563 0.1190466 0.11943
 0.1197808 0.1200739 0.1203101 0.120522 0.1207386 0.1209337 0.1210365 0.1210128 0.1209085 0.1207927
 0.1206799 0.1205239 0.1202661 0.1198827 0.1194178 0.1190004 0.1188179 0.1190368 0.1197126 0.1207595
 0.1220127 0.1233285 0.1246192 0.1258025 0.126772 0.1274555 0.1278851 0.1281753 0.1284367 0.1287237
 0.1290402 0.1293658 0.1296777 0.1299654 0.1302359 0.1305106 0.130815 0.1311568 0.1315053 0.1318071
 0.1320395 0.1322457 0.1325027 0.1328507 0.1332554 0.1336423 0.1339729 0.1342753 0.1345895 0.1349004
 0.1351551 0.1353392 0.135501 0.1357027 0.1359778 0.1363246 0.136705 0.1370489 0.1373002 0.1374687
 0.1376168 0.1377953 0.1380111 0.1382509 0.1385064 0.1387707 0.1390346 0.1393001 0.1395861 0.1398998
 0.1402075 0.1404525 0.1406143 0.1407362 0.1408848 0.1410862 0.141312 0.1415198 0.1417029 0.1419009
 0.1421617 0.1424883 0.1428237 0.1430962 0.1432789 0.1434053 0.1435308 0.1436884 0.1438779 0.1440842
 0.1442949 0.1445037 0.1447085 0.1449132 0.1451253 0.1453472 0.1455725 0.1457916 0.1460001 0.1462003
 0.1463986 0.1466001 0.1468104 0.1470419 0.1473073 0.1475988 0.1478804 0.1481162 0.1483012 0.1484554
 0.1485967 0.1487339 0.148878 0.1490434 0.1492336 0.149438 0.149645 0.1498533 0.1500668 0.1502829
 0.150492 0.1506875 0.1508749 0.1510669 0.1512744 0.1515024 0.1517481 0.1519987 0.1522349 0.1524424
 0.1526226 0.1527918 0.1529687 0.1531597 0.1533562 0.1535471 0.1537335 0.153926 0.1541302 0.1543392
 0.1545421 0.1547357 0.1549267 0.1551213 0.1553164 0.1555041 0.1556855 0.1558719 0.1560727 0.1562861
 0.156501 0.156706 0.1568972 0.1570798 0.1572602 0.1574392 0.1576191 0.1578108 0.1580236 0.1582498
 0.1584689 0.1586675 0.1588504 0.1590326 0.1592241 0.1594236 0.1596252 0.1598274 0.160031 0.1602332
 0.1604316 0.1606301 0.1608328 0.1610386 0.1612465 0.1614597 0.1616778 0.1618948 0.1621061 0.1623109
 0.1625106 0.1627098 0.1629174 0.1631394 0.1633736 0.1636121 0.1638456 0.1640673 0.1642759 0.1644727
 0.1646556 0.164823 0.1649837 0.1651517 0.1653325 0.1655203 0.1657058 0.1658846 0.1660623 0.1662493
 0.1664465 0.1666434 0.166835 0.1670296 0.1672335 0.1674411 0.1676448 0.1678446 0.1680473 0.1682601
 0.1684834 0.1687072 0.1689211 0.1691249 0.1693231 0.1695166 0.1697095 0.1699103 0.1701223 0.1703405
 0.1705591 0.1707744 0.1709835 0.1711888 0.1713956 0.1716029 0.1718075 0.1720116 0.1722179 0.1724248
 0.1726339 0.1728476 0.1730589 0.1732569 0.1734419 0.1736232 0.1738122 0.1740218 0.1742571 0.1745017
 0.1747337 0.1749489 0.1751563 0.1753611 0.1755672 0.1757796 0.1759964 0.1762113 0.1764252 0.1766405
 0.1768548 0.1770675 0.1772774 0.1774689 0.1775983 0.1775484 0.177028 0.1754734 0.1720436 0.1657903
 0.1560381 0.1428169 0.127003 0.1100051 0.09324631 0.07780179 0.06430572 0.05303927 0.04406581 0.03731596
 0.03264275 0.02991331 0.02910862 0.03043346 0.03443518 0.04167679 0.0515068 0.06097389 0.06597727 0.06450492
 0.0585584 0.05232897 0.04871191 0.0479053 0.04866631 0.04994023 0.05139523 0.05322048 0.05574276 0.05905976
 0.06302097 0.06762374 0.07320999 0.08003527 0.08774447 0.09551337 0.1027548 0.109583 0.1165435 0.1239567
 0.1315808 0.1388521 0.1453364 0.1509483 0.1558658 0.1603335 0.1645204 0.1684957 0.1722795 0.1758556
 0.1791025 0.1817574 0.1835347 0.1843427 0.1843959 0.1841017 0.1838215 0.1837243 0.1838275 0.184106
 0.1845388 0.1851013 0.1857656 0.1865071 0.1873012 0.1881236 0.1889554 0.1897781 0.1905686 0.1913063
 0.1919812 0.1925918 0.1931447 0.193652 0.1941207 0.1945526 0.1949549 0.1953401 0.195711 0.196062
 0.1963918 0.196705 0.1970038 0.1972861 0.1975478 0.1977867 0.1980074 0.1982214 0.1984358 0.1986477
 0.1988541 0.19906 0.1992704 0.1994836 0.1996953 0.1999027 0.200103 0.2002962 0.2004869 0.2006781
 0.2008699 0.2010632 0.2012605 0.2014603 0.2016579 0.2018517 0.2020439 0.2022358 0.2024256 0.2026098
 0.202788 0.202967 0.2031555 0.2033541 0.2035569 0.203765 0.203985 0.2042131 0.2044357 0.2046453
 0.2048465 0.2050489 0.2052607 0.2054838 0.2057026 0.2058893 0.2060329 0.2061605 0.2063215 0.2065436
 0.2068075 0.2070645 0.2072833 0.2074717 0.2076536 0.2078377 0.2080151 0.2081769 0.2083294 0.2085019
 0.2087283 0.2090091 0.2093059 0.2095826 0.2098325 0.2100632 0.2102825 0.2105043 0.210732 0.2109348
 0.2110759 0.2111743 0.2113141 0.2115747 0.21195 0.2123455 0.2126644 0.2128933 0.2130903 0.2133145
 0.2135864 0.2138735 0.2140787 0.2141089 0.2140169 0.2140172 0.2142902 0.2148057 0.2153824 0.2158706
 0.2162387 0.21653 0.2167875 0.2170083 0.2171468 0.2171688 0.2171234 0.2171598 0.2174265 0.2179215
 0.2184787 0.218934 0.2192573 0.2194998 0.2197016 0.2198805 0.2199964 0.219902 0.219495 0.2189886
 0.2188585 0.2193847 0.2203388 0.2212312 0.2217993 0.2221401 0.2224326 0.222714 0.222936 0.2230065
 0.2226798 0.2216986 0.2203028 0.2193679 0.2196816 0.2211508 0.2229532 0.2243581 0.2251806 0.2255984
 0.2258412 0.2260415 0.2261336 0.2258536 0.2250403 0.224035 0.2235925 0.2241819 0.2254578 0.2266307
 0.2272722 0.2275376 0.2277411 0.2280057 0.2281847 0.2278175 0.2263843 0.2240723 0.2221707 0.2221668
 0.2242888 0.227231 0.2294486 0.2304887 0.2308734 0.2309602 0.2304143 0.2288158 0.226299 0.2234869
 0.2212851 0.2207628 0.2224505 0.2254474 0.227928 0.2289453 0.2292353 0.230007 0.2314994 0.2329876
 0.2337181 0.2334941 0.2325543 0.2311558 0.2294423 0.2278211 0.2272025 0.2283562 0.2309696 0.2337528
 0.2356296 0.2365581 0.2369723 0.2365185 0.2337921 0.2280281 0.221222 0.2175817 0.2198113 0.2262802
 0.2327707 0.2366253 0.2382131 0.2389513 0.2394044 0.2391239 0.2369253 0.2315455 0.2236366 0.2170117
 0.2160645 0.2214215 0.2292291 0.2347471 0.2355698 0.2318771 0.2255933 0.2198154 0.2175394 0.2198463
 0.2254402 0.2319274 0.2372442 0.2402214 0.2405798 0.2388263 0.2362242 0.2344859 0.2345272 0.2351147
 0.2338099 0.2300492 0.2260785 0.2236569 0.2213417 0.2171628 0.2129514 0.2131327 0.2189721 0.2264507
 0.2307771 0.231246 0.2303713 0.229313 0.2258986 0.2177533 0.206791 0.1993019 0.200453 0.208927
 0.2181023 0.222538 0.2222981 0.2210122 0.2210346 0.2210368 0.2178643 0.2106439 0.2029014 0.1996156
 0.2019317 0.2061367 0.2080626 0.2064181 0.2013692 0.1932117 0.1847312 0.1820577 0.1895148 0.2043422
 0.2188444 0.2267136 0.2253489 0.2145128 0.1972415 0.1816904 0.1771682 0.1858049 0.1999635 0.2092588
 0.2088064 0.2001184 0.1866612 0.1714667 0.158536 0.1533244 0.1594963 0.1751907 0.1929911 0.2036003
 0.2009997 0.1871575 0.1724766 0.1683226 0.1766606 0.1886592 0.1945559 0.1925105 0.1872686 0.1840754
 0.1856473 0.191621 0.1989351 0.2047221 0.2086027 0.2094691 0.2024167 0.1846391 0.1632458 0.1505758
 0.1513903 0.1604598 0.1724214 0.1865845 0.2004688 0.2065173 0.2006133 0.1898653 0.1865381 0.1950331
 0.2081262 0.2157926 0.2151212 0.2108467 0.2080637 0.2068194 0.2046189 0.202256 0.2040372 0.2118207
 0.2217501 0.2285542 0.2310322 0.2315713 0.2321078 0.2326571 0.2326801 0.2319768 0.2306152 0.2290638
 0.2280462 0.227731 0.2275738 0.2271355 0.2260705 0.222896 0.2153133 0.2034443 0.1918783 0.1860308
 0.1863993 0.188958 0.1911397 0.1933308 0.1932915 0.1845747 0.1650424 0.143867 0.1348579 0.1431164
 0.1612356 0.1777507 0.1859236 0.1843332 0.1734654 0.1559212 0.1391354 0.1330287 0.1419108 0.1603506
 0.1789881 0.1925939 0.20062 0.2027155 0.197773 0.1871358 0.1758492 0.1697602 0.1719722 0.1814991
 0.1935799 0.2008781 0.1970821 0.1832001 0.1703149 0.1713836 0.1876332 0.2064982 0.2157486 0.2158634
 0.2150028 0.2163125 0.2163998 0.2143011 0.2150335 0.2227473 0.234648 0.2437583 0.2450462 0.2374173
 0.2230629 0.207943 0.2002191 0.2036766 0.2133529 0.2208728 0.2225148 0.2187151 0.2091381 0.1947393
 0.1829755 0.1833217 0.1963001 0.2122481 0.222297 0.2264527 0.229563 0.2329744 0.2328952 0.2261309
 0.2154048 0.2076811 0.2072844 0.2121302 0.2172866 0.220181 0.220639 0.2179457 0.2112875 0.2031095
 0.1991483 0.2034543 0.2141783 0.2252632 0.231833 0.2332463 0.2317046 0.2293868 0.226968 0.2237824
 0.2192917 0.2149846 0.2140815 0.2181015 0.2244662 0.2291612 0.2313312 0.2335571 0.2377833 0.2426289
 0.2450651 0.2437218 0.2401948 0.2376578 0.2383158 0.2416591 0.2448448 0.2451184 0.2424296 0.239727
 0.2402449 0.2444152 0.2498059 0.2538854 0.2560875 0.2572853 0.2583013 0.259189 0.2591916 0.2573161
 0.2537377 0.250618 0.2505705 0.2540688 0.2589973 0.2628399 0.2647162 0.2652368 0.2651132 0.264414
 0.262975 0.2610763 0.2594686 0.2587767 0.2590505 0.2599111 0.2609445 0.2618791 0.2625772 0.2630337
 0.2633316 0.2635297 0.2636362 0.2636863 0.2637364 0.2637616 0.2636803 0.2635281 0.2634975 0.2637216
 0.2640953 0.2643853 0.2644495 0.2642511 0.2637281 0.2628005 0.2615113 0.2600288 0.2584578 0.2567663
 0.2550104 0.2535911 0.253139 0.2540412 0.2560809 0.2585637 0.2607874 0.2623937 0.2633732 0.2638819
 0.2640992 0.2641715 0.2641837 0.2641474 0.2640313 0.2638147 0.263514 0.2631635 0.2627856 0.2623944
 0.2620175 0.2616897 0.2614136 0.2611428 0.2608135 0.2603904 0.2598842 0.259337 0.258788 0.2582339
 0.2576193 0.2568784 0.255995 0.2550247 0.2540606 0.2531753 0.2523795 0.2516292 0.2508715 0.250075
 0.2492093 0.2482216 0.2470854 0.2458825 0.2447855 0.2439199 0.2432566 0.2426565 0.2419924 0.241208
 0.2403023 0.2393081 0.2382746 0.2372335 0.2361766 0.2350747 0.2339012 0.2326344 0.231264 0.2298052
 0.2282865 0.226722 0.225115 0.223478 0.2218098 0.2200493 0.2180746 0.2157495 0.2129612 0.2096325
 0.2057352 0.2013167 0.1965153 0.1915386 0.1866086 0.1819104 0.1775754 0.1736954 0.1703403 0.16757
 0.1654414 0.1640025 0.1632813 0.1632827 0.16399 0.1653573 0.1673039 0.1697218 0.1724833 0.1754408
 0.1784286 0.181288 0.1839162 0.1863064 0.1885282 0.1906438 0.1926449 0.1944805 0.1961221 0.1975728
 0.1988304 0.1998821 0.2007345 0.2014262 0.2020032 0.2024933 0.2029068 0.2032537 0.2035514 0.2038141
 0.204044 0.2042415 0.2044183 0.2045912 0.2047721 0.204972 0.2052072 0.2054998 0.2058729 0.2063368
 0.2068718 0.207438 0.2080119 0.2085985 0.2092066 0.2098398 0.2105214 0.2113037 0.2122356 0.2133332
 0.2145819 0.2159474 0.2173684 0.2187497 0.2199855 0.2209995 0.2217612 0.2222706 0.2225412 0.222603
 0.2225058 0.2223 0.2220153 0.2216585 0.2212268 0.220718 0.2201348 0.2194865 0.2187889 0.2180633
 0.2173385 0.2166425 0.215984 0.2153429 0.2146901 0.2140197 0.2133567 0.2127287 0.2121366 0.2115575
 0.2109722 0.2103806 0.2097946 0.2092216 0.2086525 0.2080623 0.2074183 0.2066928 0.2058733 0.2049622
 0.2039652 0.2028793 0.2016968 0.2004217 0.199069 0.1976452 0.1961401 0.1945471 0.192881 0.1911612
 0.1893785 0.1874955 0.1854979 0.183441 0.1814316 0.1795589 0.1778476 0.1762675 0.1747756 0.1733503
 0.1719958 0.1707159 0.1694931 0.1683044 0.1671518 0.1660575 0.1650345 0.1640789 0.1631918 0.1623902
 0.16169 0.1610869 0.1605595 0.1600931 0.1596907 0.1593552 0.1590827 0.1588866 0.1587988 0.1588199
 0.1588871 0.1589153 0.158861 0.1587389 0.1585964 0.1584793 0.1584069 0.1583719 0.1583521 0.158309
 0.1581749 0.1578622 0.1572864 0.1563885 0.1551576 0.1536408 0.1519212 0.150094 0.1482702 0.1465682
 0.1450802 0.1438609 0.1429365 0.1422869 0.1418318 0.1414815 0.1412067 0.141047 0.1410612 0.1412522
 0.1415125 0.141677 0.1416818 0.1416442 0.1417567 0.1421337 0.1427614 0.1435317 0.1443056 0.1449831
 0.1455255 0.1459214 0.1461751 0.1463206 0.1463884 0.1463675 0.1462405 0.1460267 0.1457555 0.1454372
 0.145075 0.144663 0.1441761 0.1435965 0.142928 0.1421742 0.1413395 0.140436 0.1394405 0.1383023
 0.1370723 0.135973 0.135281 0.135165 0.1356169 0.1364629 0.137472 0.138515 0.1395406 0.1403744
 0.1407519 0.1407139 0.1408267 0.1417826 0.1437475 0.1461908 0.1483627 0.1498421 0.1505967 0.1507102
 0.1502499 0.1492947 0.1478741 0.1459279 0.1434529 0.1405889 0.1375001 0.1343335 0.1313047 0.1286272
 0.1263751 0.1245323 0.1230815 0.1220657 0.121631 0.1214249 0.1195546 0.1135727 0.1042548 0.09728928
 0.09847631 0.1071942 0.1168435 0.1218271 0.1220043 0.120364 0.1189468 0.1180308 0.1174985 0.1175092
 0.1182043 0.1194365 0.120821 0.1219741 0.1227374 0.1231391 0.1231272 0.122334 0.1200085 0.1152832
 0.1078792 0.09869237 0.08947316 0.08181089 0.07643426 0.07323845 0.07162111 0.07082097 0.07029142 0.0699724
 0.07018834 0.0712531 0.07320398 0.07588209 0.07910089 0.08260091 0.08595288 0.08874385 0.09089012 0.0926103
 0.09406945 0.09518322 0.09577911 0.09581683 0.09541424 0.09474971 0.09398079 0.0931888 0.09233176 0.0912846
 0.09002282 0.08877093 0.08786292 0.08742887 0.08731352 0.08730301 0.08730551 0.08730599 0.08728434 0.08722384
 0.0871385 0.0870893 0.08718728 0.08751804 0.08802855 0.08853482 0.088863 0.0889753 0.08896943 0.08892782
 0.08874565 0.08822294 0.08740669 0.08664778 0.08613124 0.08554806 0.08451238 0.08318257 0.08217421 0.08188754
 0.08214723 0.08249208 0.08260971 0.08246364 0.08221704 0.0821563 0.08251934 0.08320308 0.08373 0.08369219
</values></Ydata></ScRf><Data_Parameters_AB><parameter name="DPF">1</parameter><parameter name="NPT">3497</parameter><parameter name="FXV">3996</parameter><parameter name="LXV">500</parameter><parameter name="CSF">1</parameter><parameter name="MXY">0.0917541906237602</parameter><parameter name="MNY">-0.0849596858024597</parameter><parameter name="DAT">02/06/2022</parameter><parameter name="TIM">13:57:09.413 (GMT+2)</parameter><parameter name="DXU">WN</parameter></Data_Parameters_AB><AB__Qtest><MainReport name="Quality Test Report"><Header><Line><Legend>Test result ok/not ok [1/0]: </Legend><Value>0</Value></Line><Line><Legend>Method file: </Legend><Value>C:\Users\Public\Documents\Bruker\OPUS_8.2.28\QT\IRBT_v3_default.QT</Value></Line></Header><Matrix><Line><Legend></Legend><Legend>min</Legend><Legend>max</Legend><Legend>measured</Legend></Line><Line><Value>Absorption (X-Range 1):</Value><Value>0.400000</Value><Value>2.000000</Value><Value>0.123912</Value></Line><Line><Value>Noise (X-Range 4):</Value><Value></Value><Value>0.000300</Value><Value>0.000059</Value></Line><Line><Value>Signal/Noise (X-Range 2):</Value><Value>200.000000</Value><Value></Value><Value>45.249776</Value></Line><Line><Value>Signal/Noise (X-Range 3):</Value><Value>40.000000</Value><Value></Value><Value>22.846772</Value></Line><Line><Value>Water vapour (X-Range 5):</Value><Value></Value><Value>0.000300</Value><Value>0.000052</Value></Line><Line><Value>Signal/Water (X-Range 2):</Value><Value>100.000000</Value><Value></Value><Value>50.636499</Value></Line><Line><Value>Signal/Water (X-Range 3):</Value><Value>20.000000</Value><Value></Value><Value>25.566548</Value></Line><Line><Value>Fringes (X-Range 6):</Value><Value></Value><Value>0.000100</Value><Value>0.000065</Value></Line></Matrix></MainReport></AB__Qtest><Data_Parameters_ScSm><parameter name="DPF">1</parameter><parameter name="NPT">1814</parameter><parameter name="FXV">3996.33169228125</parameter><parameter name="LXV">499.541461535156</parameter><parameter name="CSF">1</parameter><parameter name="MXY">0.275998592376709</parameter><parameter name="MNY">0.0353944934904575</parameter><parameter name="DAT">02/06/2022</parameter><parameter name="TIM">13:57:09.413 (GMT+2)</parameter><parameter name="DXU">WN</parameter></Data_Parameters_ScSm><Data_Parameters_ScRf><parameter name="DPF">1</parameter><parameter name="NPT">1820</parameter><parameter name="FXV">4004.04661832813</parameter><parameter name="LXV">495.683998511719</parameter><parameter name="CSF">1</parameter><parameter name="MXY">0.265236794948578</parameter><parameter name="MNY">0.0291086249053478</parameter><parameter name="DAT">02/06/2022</parameter><parameter name="TIM">13:56:42.697 (GMT+2)</parameter><parameter name="DXU">WN</parameter></Data_Parameters_ScRf><Optic_Parameters_Rf><parameter name="APR">0</parameter><parameter name="APT">Open</parameter><parameter name="BMS">KBr</parameter><parameter name="DTC">RT-DLaTGS_IR-Biotyper [Microplate reader]</parameter><parameter name="HPF">0</parameter><parameter name="LPF">10.0</parameter><parameter name="LPV">4000</parameter><parameter name="PGR">0</parameter><parameter name="RCH">Module port</parameter><parameter name="RDX">0</parameter><parameter name="SRC">MIR</parameter><parameter name="VEL">10.0</parameter><parameter name="SON">Off</parameter></Optic_Parameters_Rf><Acquisition_Parameters_Rf><parameter name="ADT">1</parameter><parameter name="AQM">DD</parameter><parameter name="CFE">0</parameter><parameter name="COR">0</parameter><parameter name="DEL">0</parameter><parameter name="DLY">0</parameter><parameter name="HFW">8000</parameter><parameter name="LFW">0</parameter><parameter name="NSR">32</parameter><parameter name="PLF">AB</parameter><parameter name="RES">6</parameter><parameter name="RGN">-1</parameter><parameter name="STR">0</parameter><parameter name="TCL">MakeCompatibleScalar (0, {WSV=1.000000, ARV=0});</parameter><parameter name="TDL">37</parameter><parameter name="RPO">0</parameter></Acquisition_Parameters_Rf><FT_-_Parameters_Rf><parameter name="APF">B3</parameter><parameter name="HFQ">500</parameter><parameter name="LFQ">4000</parameter><parameter name="NLI">0</parameter><parameter name="PHR">24</parameter><parameter name="PHZ">ML</parameter><parameter name="SPZ">NO</parameter><parameter name="ZFF">1</parameter></FT_-_Parameters_Rf><Optic_Parameters_><parameter name="APR">0</parameter><parameter name="APT">Open</parameter><parameter name="BMS">KBr</parameter><parameter name="CHN">Module port</parameter><parameter name="DTC">RT-DLaTGS_IR-Biotyper [Microplate reader]</parameter><parameter name="HPF">0</parameter><parameter name="LPF">10.0</parameter><parameter name="LPV">4000</parameter><parameter name="PGN">0</parameter><parameter name="RDX">0</parameter><parameter name="SRC">MIR</parameter><parameter name="VEL">10.0</parameter><parameter name="SON">Off</parameter></Optic_Parameters_><FT_-_Parameters_><parameter name="APF">B3</parameter><parameter name="HFQ">500</parameter><parameter name="LFQ">4000</parameter><parameter name="NLI">0</parameter><parameter name="PHR">24</parameter><parameter name="PHZ">ML</parameter><parameter name="SPZ">NO</parameter><parameter name="ZFF">1</parameter></FT_-_Parameters_><Acquisition_Parameters_><parameter name="ADT">1</parameter><parameter name="AQM">DD</parameter><parameter name="CFE">0</parameter><parameter name="COR">0</parameter><parameter name="DEL">0</parameter><parameter name="DLY">0</parameter><parameter name="HFW">8000</parameter><parameter name="LFW">0</parameter><parameter name="NSS">32</parameter><parameter name="PLF">AB</parameter><parameter name="RES">6</parameter><parameter name="SOT">0</parameter><parameter name="TCL">MakeCompatibleScalar (0, {WSV=1.000000, ARV=0});</parameter><parameter name="TDL">37</parameter><parameter name="SPO">0</parameter><parameter name="SGN">-1</parameter></Acquisition_Parameters_><Instrument_Parameters_Rf><parameter name="HFL">15800.168544</parameter><parameter name="LFL">0</parameter><parameter name="LWN">15800.168544</parameter><parameter name="ABP">32197</parameter><parameter name="SSP">1</parameter><parameter name="ARG">2</parameter><parameter name="ASG">2</parameter><parameter name="ASS">32</parameter><parameter name="GFW">16</parameter><parameter name="GBW">16</parameter><parameter name="BFW">0</parameter><parameter name="BBW">0</parameter><parameter name="PKA">7269</parameter><parameter name="PKL">4996</parameter><parameter name="PRA">7458</parameter><parameter name="PRL">5001</parameter><parameter name="P2A">1</parameter><parameter name="P2L">1</parameter><parameter name="P2R">1</parameter><parameter name="P2K">1</parameter><parameter name="DAQ">0</parameter><parameter name="AG2">1</parameter><parameter name="SSM">1</parameter><parameter name="RSN">26275</parameter><parameter name="CRR">0</parameter><parameter name="SRT">1654178202.697</parameter><parameter name="DUR">19.6379852294922</parameter><parameter name="TSC">29.2</parameter><parameter name="MVD">0.200351342558861</parameter><parameter name="AN1">0.225847434189845</parameter><parameter name="AN2">0</parameter><parameter name="VSN">2.485 Apr  4 2017</parameter><parameter name="SRN">0085</parameter><parameter name="CAM">0</parameter><parameter name="INS">IR-Biotyper</parameter><parameter name="FOC">69</parameter><parameter name="RDY">1</parameter><parameter name="ARS">32</parameter></Instrument_Parameters_Rf><Sample_Parameters_><parameter name="BLD"></parameter><parameter name="CNM">Admin</parameter><parameter name="CPY"></parameter><parameter name="DPM"></parameter><parameter name="EXP">IRBT_v3_32Scans.XPM</parameter><parameter name="LCT"></parameter><parameter name="SFM">Microplate, HTS-XT</parameter><parameter name="SNM">220602-1248_SMP48F (D_6)_C11_ead5b52b-6376-4f19-b713-1ac8da3aba3c.0</parameter><parameter name="XPP">C:\Users\Public\Documents\Bruker\OPUS_8.2.28\XPM</parameter><parameter name="IST">OK</parameter><parameter name="CPG">1252</parameter><parameter name="UID">05fb3157-5ea6-443a-8096-ffbb8a5c34c1</parameter></Sample_Parameters_><Instrument_Parameters_><parameter name="HFL">15800.168544</parameter><parameter name="LFL">0</parameter><parameter name="LWN">15800.168544</parameter><parameter name="ABP">32197</parameter><parameter name="SSP">1</parameter><parameter name="ASG">2</parameter><parameter name="ARG">2</parameter><parameter name="ASS">32</parameter><parameter name="GFW">16</parameter><parameter name="GBW">16</parameter><parameter name="BFW">0</parameter><parameter name="BBW">0</parameter><parameter name="PKA">7753</parameter><parameter name="PKL">4988</parameter><parameter name="PRA">8015</parameter><parameter name="PRL">4993</parameter><parameter name="P2A">1</parameter><parameter name="P2L">1</parameter><parameter name="P2R">1</parameter><parameter name="P2K">1</parameter><parameter name="DAQ">0</parameter><parameter name="AG2">1</parameter><parameter name="SSM">1</parameter><parameter name="RSN">13763</parameter><parameter name="CRR">0</parameter><parameter name="SRT">1654178229.413</parameter><parameter name="DUR">19.6379852294922</parameter><parameter name="TSC">29.2</parameter><parameter name="MVD">0.208482727408409</parameter><parameter name="AN1">0.225835422836276</parameter><parameter name="AN2">0</parameter><parameter name="VSN">2.485 Apr  4 2017</parameter><parameter name="SRN">0085</parameter><parameter name="CAM">0</parameter><parameter name="INS">IR-Biotyper</parameter><parameter name="FOC">69</parameter><parameter name="RDY">1</parameter></Instrument_Parameters_><History/></OPUSDataFile>
