<?xml version="1.0" encoding="UTF-8" ?>
<OPUSDataFile><AB><Ydata ylabel="Absorbance Units"><values byteorder="INTEL" format="FLOAT32" numvalues="3497"> -0.07327306 -0.07330121 -0.07330793 -0.07329299 -0.07325941 -0.07320739 -0.0731448 -0.07307263 -0.07300442 -0.07294188
 -0.07290217 -0.07288539 -0.07290297 -0.07294989 -0.0730221 -0.07311039 -0.07319786 -0.07327963 -0.07334169 -0.07338925
 -0.07342073 -0.07344545 -0.07346868 -0.07349391 -0.07352418 -0.07355776 -0.0735947 -0.07363376 -0.07367498 -0.07371573
 -0.07375607 -0.07378903 -0.07381424 -0.07382789 -0.07383049 -0.07382777 -0.07382081 -0.07381941 -0.07382344 -0.07383791
 -0.07386141 -0.07389344 -0.07393191 -0.07397381 -0.07401615 -0.07405406 -0.07408681 -0.07411078 -0.07413113 -0.07414921
 -0.07417091 -0.07420047 -0.07423324 -0.07427039 -0.07429858 -0.07431529 -0.07431565 -0.07429797 -0.07427426 -0.07424508
 -0.07422739 -0.07422137 -0.07423411 -0.07426376 -0.07430308 -0.07434958 -0.07439012 -0.07442458 -0.07444526 -0.0744554
 -0.07445595 -0.07445247 -0.07445163 -0.07445731 -0.07447645 -0.07450487 -0.07454485 -0.07458193 -0.07461186 -0.07462163
 -0.07460459 -0.07456824 -0.0745101 -0.07445931 -0.07441786 -0.07441563 -0.07445448 -0.07454341 -0.07468086 -0.0748485
 -0.07504132 -0.0752202 -0.07538094 -0.07548463 -0.07553708 -0.07552917 -0.07547737 -0.07540514 -0.07532377 -0.07525794
 -0.07520477 -0.07517226 -0.07514744 -0.07512513 -0.0750964 -0.07505364 -0.07500648 -0.07495362 -0.07491688 -0.07490012
 -0.07491493 -0.07496429 -0.07503472 -0.0751257 -0.07520766 -0.07528005 -0.0753282 -0.07535567 -0.07537758 -0.0753968
 -0.07543471 -0.07548529 -0.0755466 -0.07560693 -0.07564223 -0.07565476 -0.07563291 -0.07559649 -0.07556012 -0.07552999
 -0.07551737 -0.07550848 -0.07549763 -0.07548702 -0.07547123 -0.07548152 -0.07552219 -0.07561842 -0.07577684 -0.07596661
 -0.07618701 -0.07631811 -0.07635664 -0.07622185 -0.07593556 -0.0756016 -0.07523538 -0.07495363 -0.07474647 -0.07464781
 -0.0746429 -0.07472689 -0.07487503 -0.0750629 -0.07525299 -0.07540596 -0.07550173 -0.07550782 -0.07545815 -0.07535294
 -0.07524605 -0.07515569 -0.0750928 -0.07506484 -0.07504999 -0.07504607 -0.07504521 -0.07504663 -0.0750664 -0.07510512
 -0.07517624 -0.07527643 -0.0753931 -0.07551789 -0.07561255 -0.0756713 -0.07565568 -0.07557675 -0.07542958 -0.0752438
 -0.0750515 -0.07487819 -0.0747595 -0.07469489 -0.07469865 -0.0747461 -0.0748337 -0.07493011 -0.07502613 -0.07510398
 -0.07515781 -0.07519013 -0.07520067 -0.07519219 -0.07516494 -0.07511114 -0.07503087 -0.07492352 -0.07479135 -0.07464923
 -0.07449922 -0.07435723 -0.07422342 -0.07410645 -0.07400488 -0.07392139 -0.07385089 -0.07378933 -0.07372957 -0.07366289
 -0.07358968 -0.07350457 -0.0734215 -0.07334393 -0.07328575 -0.07325312 -0.07324422 -0.07326085 -0.07329115 -0.07333402
 -0.07338145 -0.07343287 -0.07348087 -0.07352471 -0.07355123 -0.07356039 -0.07354388 -0.07350519 -0.07345311 -0.07339206
 -0.07333843 -0.07329292 -0.0732645 -0.07325146 -0.07325447 -0.07327399 -0.07330878 -0.07336551 -0.07344717 -0.07356062
 -0.07371322 -0.07389179 -0.07410013 -0.07429498 -0.07447015 -0.07458906 -0.07464521 -0.07464166 -0.07457837 -0.07444977
 -0.0742555 -0.07398228 -0.07363846 -0.07327445 -0.07290204 -0.07259993 -0.07236234 -0.07221881 -0.07214733 -0.07212354
 -0.07212681 -0.0721164 -0.07209779 -0.07205903 -0.07201882 -0.07198875 -0.07196796 -0.0719621 -0.07195345 -0.07193925
 -0.07190078 -0.07183315 -0.07173268 -0.07159676 -0.0714447 -0.07127726 -0.07112552 -0.07099077 -0.07089759 -0.07084398
 -0.07083206 -0.07085142 -0.07086386 -0.07085586 -0.07076345 -0.07060253 -0.07036392 -0.07008841 -0.06983138 -0.06959713
 -0.06941828 -0.06925637 -0.06909914 -0.0689104 -0.0686647 -0.06837537 -0.06803379 -0.06769536 -0.06736886 -0.06709348
 -0.06687799 -0.06670672 -0.06658038 -0.06642866 -0.0662481 -0.06596819 -0.06559721 -0.0651586 -0.06466933 -0.06421675
 -0.0637984 -0.06345395 -0.06316929 -0.06293813 -0.06274546 -0.06257537 -0.06240121 -0.06219747 -0.06193706 -0.06158967
 -0.06116745 -0.0606649 -0.06011142 -0.05951922 -0.05888025 -0.05819373 -0.05745801 -0.05666941 -0.05586852 -0.05505776
 -0.05426901 -0.05350273 -0.05276204 -0.05204743 -0.05136418 -0.05071378 -0.05010774 -0.04954178 -0.04901161 -0.04850966
 -0.04802173 -0.04753827 -0.04705 -0.04652485 -0.04593724 -0.04524592 -0.04440023 -0.04344554 -0.042373 -0.04129254
 -0.04024291 -0.03924675 -0.03832045 -0.03742269 -0.03654968 -0.03567874 -0.03480748 -0.03394546 -0.03309363 -0.03227401
 -0.03148538 -0.03073497 -0.03000972 -0.0292639 -0.02847463 -0.02754229 -0.02648737 -0.0252799 -0.02400463 -0.02277009
 -0.02160547 -0.02059344 -0.01967609 -0.01884521 -0.01803561 -0.01721386 -0.0163565 -0.01544486 -0.01450034 -0.01352308
 -0.01253957 -0.01155478 -0.01056573 -0.009573093 -0.008551579 -0.007500633 -0.006410873 -0.005286527 -0.004156583 -0.003024445
 -0.001921941 -0.0008449697 0.0002020796 0.001222902 0.002221911 0.003202604 0.004168002 0.005130314 0.00610223 0.007089906
 0.00810587 0.009133186 0.01016561 0.01119778 0.01221965 0.01326834 0.01434975 0.01549083 0.01670156 0.01793018
 0.01917478 0.02035829 0.02147923 0.02252427 0.0234995 0.0244461 0.02536997 0.02632045 0.02729409 0.02831118
 0.02935499 0.03040277 0.03144251 0.03244121 0.03341662 0.03436671 0.0353302 0.03633486 0.03739192 0.03852235
 0.03968744 0.04088213 0.0420652 0.04322609 0.04435166 0.0454381 0.04648959 0.04750561 0.04850645 0.04949348
 0.05049508 0.05151131 0.05255603 0.05362619 0.0547161 0.05582216 0.05693185 0.05804208 0.05914061 0.06022735
 0.06129497 0.06235117 0.06339981 0.06444934 0.06550757 0.0665746 0.06765303 0.06873875 0.06983201 0.07092497
 0.0720178 0.07309346 0.07414969 0.07517584 0.07617024 0.07714931 0.0781142 0.07909088 0.08007813 0.08107773
 0.08208612 0.08308659 0.08408042 0.08506155 0.08603546 0.08701076 0.08798952 0.08898087 0.08997685 0.09097622
 0.09196247 0.09292325 0.09385261 0.09473886 0.09560615 0.09645652 0.09732371 0.09821745 0.09914127 0.1000988
 0.1010679 0.1020471 0.1030219 0.1039917 0.1049529 0.1059052 0.1068439 0.1077687 0.1086754 0.109564
 0.110432 0.1112794 0.1121028 0.1129079 0.1136995 0.1144882 0.1152884 0.1160978 0.1169227 0.1177456
 0.1185588 0.1193553 0.1201288 0.1208908 0.1216424 0.1223926 0.1231429 0.1238962 0.1246524 0.1254175
 0.1261917 0.1269732 0.1277607 0.1285398 0.1293107 0.1300668 0.1308104 0.1315476 0.1322763 0.1329968
 0.1337035 0.1343881 0.1350492 0.1356813 0.1362877 0.1368674 0.1374288 0.1379728 0.1385166 0.1390659
 0.139633 0.1402237 0.1408293 0.1414501 0.1420708 0.1426899 0.143306 0.1439188 0.1445311 0.1451424
 0.1457511 0.1463588 0.1469724 0.1475941 0.1482367 0.1488945 0.1495641 0.1502337 0.1508844 0.1515108
 0.1520988 0.1526526 0.1531689 0.1536582 0.1541231 0.1545769 0.1550248 0.1554725 0.1559235 0.156369
 0.1568081 0.157234 0.1576455 0.1580536 0.1584588 0.1588756 0.1593032 0.1597409 0.1601861 0.1606265
 0.1610605 0.1614763 0.1618751 0.1622515 0.1626134 0.1629677 0.1633264 0.1637052 0.1641077 0.1645452
 0.1650025 0.1654794 0.1659468 0.1663961 0.1668036 0.1671599 0.1674698 0.1677301 0.1679755 0.1682086
 0.1684519 0.1687053 0.1689425 0.1691611 0.1693222 0.1694322 0.1695002 0.1695401 0.1696018 0.1696897
 0.1698405 0.1700427 0.1702977 0.1705877 0.1708961 0.1712083 0.1715068 0.1717929 0.1720569 0.1723272
 0.1726091 0.1729346 0.1733172 0.1737418 0.1742144 0.1746612 0.1750777 0.175391 0.1755988 0.1756983
 0.1756965 0.1756587 0.1755898 0.1755512 0.1755359 0.1755529 0.1755987 0.175665 0.1757655 0.1759197
 0.1761296 0.1764174 0.17674 0.1770795 0.1773848 0.1776164 0.1777868 0.1778801 0.1779703 0.1780704
 0.1782361 0.1784819 0.1787918 0.1791684 0.1795399 0.1799027 0.1801791 0.1803697 0.1804441 0.1804165
 0.1803365 0.1802276 0.1801914 0.1802366 0.1804407 0.1807752 0.1812421 0.1817826 0.1823403 0.1828645
 0.1832948 0.1836335 0.1838551 0.1840184 0.1841328 0.1842641 0.1844297 0.1846608 0.1849645 0.1853488
 0.1858147 0.1863722 0.1870216 0.1877593 0.1885795 0.1894285 0.1902915 0.1910661 0.1917417 0.192222
 0.1925258 0.1926311 0.1925979 0.1924983 0.1923999 0.1924094 0.1925329 0.1928284 0.1932105 0.1936649
 0.1940742 0.1943934 0.1945627 0.1945514 0.1943916 0.1940774 0.1936971 0.1932572 0.1928335 0.1924295
 0.192062 0.1917282 0.1914019 0.1910834 0.1907581 0.1904349 0.1901357 0.1898656 0.1896534 0.1894802
 0.1893403 0.1891869 0.1889734 0.1886538 0.1881733 0.1875327 0.1867052 0.1857537 0.1846857 0.1835849
 0.1824703 0.181401 0.1803881 0.1794632 0.1786308 0.1778969 0.1772611 0.1766797 0.1761471 0.1755839
 0.1749928 0.1743407 0.1736475 0.1729635 0.1722975 0.171705 0.1711557 0.1706318 0.1700935 0.1694814
 0.1688046 0.1680364 0.1672437 0.1664473 0.1657183 0.1650908 0.1645807 0.164208 0.1639113 0.1636915
 0.1634384 0.1631425 0.1627204 0.162168 0.1614952 0.1607098 0.1599005 0.1590741 0.1583172 0.1576234
 0.1570199 0.1564915 0.156019 0.1555893 0.1551743 0.1547652 0.1543429 0.1539017 0.1534304 0.1529296
 0.1523943 0.1518359 0.151255 0.1506702 0.1500858 0.149515 0.1489617 0.148422 0.1478965 0.1473683
 0.1468365 0.146288 0.1457232 0.1451444 0.1445538 0.1439644 0.1433769 0.142802 0.1422375 0.1416841
 0.141139 0.1405975 0.1400588 0.1395204 0.1389814 0.1384419 0.1378965 0.1373435 0.1367753 0.1361881
 0.1355808 0.1349513 0.1343068 0.1336474 0.1329826 0.132313 0.1316472 0.1309857 0.1303361 0.1296983
 0.1290755 0.1284666 0.1278683 0.1272788 0.12669 0.1261002 0.1255009 0.1248933 0.1242738 0.1236485
 0.1230216 0.1224027 0.1217986 0.1212204 0.120673 0.1201733 0.1197281 0.1193498 0.1190492 0.1187952
 0.1185925 0.1183515 0.1180656 0.11765 0.1171001 0.1164211 0.1156212 0.1148011 0.113971 0.1132453
 0.1126179 0.1121364 0.1117711 0.1114838 0.1112335 0.1109357 0.1105736 0.1100829 0.1095049 0.1088384
 0.1081609 0.1075164 0.1069392 0.1064633 0.1060444 0.1056799 0.1053188 0.1049459 0.1045879 0.1042424
 0.1039878 0.1038282 0.1037869 0.1038567 0.1039538 0.1040638 0.1040564 0.1039333 0.1036222 0.103155
 0.1025636 0.1018934 0.1012357 0.1006076 0.1000735 0.09960308 0.09919637 0.09881549 0.09843188 0.09805463
 0.09767544 0.09733196 0.0970371 0.09678714 0.09658837 0.09639063 0.09618853 0.09596251 0.09571123 0.09547897
 0.09526782 0.09511984 0.09502809 0.09497338 0.09494578 0.09489655 0.09482899 0.09472393 0.09459514 0.09445843
 0.09431895 0.09419455 0.09406788 0.09393804 0.09376712 0.09353634 0.09321402 0.09277629 0.09224311 0.09160348
 0.09094357 0.09027164 0.08968186 0.08918736 0.08880454 0.08853512 0.08829907 0.08809043 0.08780694 0.08745214
 0.08698984 0.08643945 0.08584895 0.08523884 0.08468528 0.08418889 0.08379099 0.08346692 0.08320875 0.08298154
 0.08275527 0.08250722 0.08221263 0.08187878 0.08149682 0.08110445 0.08070741 0.08034538 0.08002924 0.07975546
 0.07952803 0.07929217 0.07904496 0.07873891 0.07837609 0.07797517 0.07754365 0.07714129 0.07676382 0.07643259
 0.0761272 0.07580668 0.07546178 0.07504927 0.07459453 0.07410426 0.07361978 0.07317914 0.07279933 0.07250524
 0.07228065 0.07212592 0.0720215 0.07196073 0.0719416 0.07196312 0.07202479 0.07212848 0.07224705 0.07237928
 0.07246876 0.07251281 0.07245948 0.0723126 0.07206563 0.07173248 0.07135818 0.07095885 0.07059716 0.07027848
 0.07004267 0.06988084 0.06979953 0.06978443 0.06982549 0.06991471 0.07004395 0.07021352 0.07042234 0.07066936
 0.07095551 0.07127209 0.07161739 0.07198746 0.07237988 0.072817 0.07329976 0.07387319 0.07453864 0.07532625
 0.0762306 0.07723473 0.07832775 0.07945952 0.08062439 0.08178144 0.08293533 0.08407588 0.08520842 0.08633775
 0.08746029 0.08857514 0.08967764 0.09076175 0.09183683 0.09290363 0.09397665 0.09506416 0.09615199 0.09724499
 0.09828515 0.09926898 0.1001273 0.1008556 0.1014212 0.101825 0.1020799 0.102189 0.102178 0.1020492
 0.1018192 0.101499 0.1011153 0.1006995 0.1003119 0.0999911 0.09981104 0.09978171 0.09994507 0.1002674
 0.1007451 0.1013332 0.1020108 0.10276 0.1035703 0.1044454 0.1053857 0.1063846 0.1074433 0.1085327
 0.1096513 0.1107537 0.1118365 0.1128434 0.1137713 0.1145699 0.1152431 0.115775 0.1161787 0.1164794
 0.116686 0.1168335 0.1169034 0.1169022 0.1167671 0.1164644 0.1158946 0.1149967 0.1136909 0.1119165
 0.1097014 0.107015 0.1040354 0.1007705 0.09748424 0.09420261 0.09114287 0.08832106 0.08581246 0.08361392
 0.08167186 0.07997695 0.07844002 0.07706008 0.07578721 0.07462396 0.07355661 0.072576 0.0716633 0.07080165
 0.06995929 0.06913716 0.06831869 0.06753117 0.066784 0.0661049 0.06551005 0.06500235 0.06458776 0.06425247
 0.06399439 0.06380658 0.063687 0.06364515 0.06368148 0.06380923 0.06402729 0.06432096 0.06468065 0.06503669
 0.06537385 0.06559143 0.06568803 0.06559993 0.06535538 0.06496716 0.06448344 0.06396496 0.06345644 0.06301572
 0.06266875 0.06244919 0.06235626 0.06240204 0.0625591 0.06282479 0.06316467 0.06357239 0.0640268 0.06452754
 0.06503619 0.06555239 0.06594659 0.06620656 0.06610455 0.06563181 0.06459901 0.06304147 0.06097709 0.0584937
 0.05582121 0.05304333 0.05042635 0.04798159 0.04584496 0.04395296 0.04230057 0.04081601 0.03944901 0.03817696
 0.03697448 0.03585669 0.0348244 0.03388548 0.03304439 0.03228473 0.03160638 0.03098221 0.03041056 0.02986728
 0.02935142 0.02884654 0.02835283 0.02786297 0.02737888 0.02690301 0.02643985 0.0260018 0.02559388 0.02523294
 0.02491604 0.02465102 0.02441951 0.02421185 0.02400194 0.02377029 0.02350514 0.02319173 0.02284939 0.02247559
 0.02211377 0.02177096 0.02148171 0.02125349 0.02107607 0.02095017 0.02082472 0.02069764 0.02052953 0.02032449
 0.02009452 0.01984557 0.01961287 0.01938972 0.01917905 0.01896506 0.01871618 0.018432 0.01809217 0.01772154
 0.01733192 0.01695347 0.01660921 0.01631221 0.01607616 0.0158931 0.01576717 0.01567081 0.01560256 0.0155212
 0.01542166 0.01527663 0.01508312 0.01485506 0.01459428 0.01434051 0.01409407 0.01387671 0.01368376 0.01350636
 0.01334163 0.01317584 0.01301199 0.01284957 0.01269135 0.0125417 0.0123993 0.01226369 0.01213607 0.01201561
 0.01190867 0.01181877 0.01174599 0.01169425 0.01164601 0.01160029 0.01153191 0.01143699 0.0113072 0.01114105
 0.01095801 0.0107595 0.01057472 0.01040337 0.01025769 0.01013356 0.01001983 0.00991307 0.009796378 0.009673003
 0.009539241 0.009404328 0.009279466 0.009169608 0.009086955 0.00902079 0.008971748 0.00891671 0.008845978 0.008744059
 0.008601784 0.008425621 0.008213252 0.007986065 0.007745888 0.007512814 0.007288487 0.007082758 0.006895715 0.006725806
 0.006571902 0.006424298 0.006282462 0.006138072 0.005993278 0.005849482 0.005709611 0.005580852 0.00546238 0.005357511
 0.005260432 0.00516776 0.005072477 0.004968861 0.00485392 0.004723387 0.004583152 0.004432338 0.004284984 0.004143401
 0.004019336 0.003915545 0.003828132 0.003757464 0.003685377 0.003611119 0.003520807 0.003416186 0.003304294 0.003189141
 0.003093234 0.003016748 0.002974989 0.002958443 0.002958323 0.002960092 0.002939553 0.002890636 0.00279556 0.002665126
 0.00249824 0.002315088 0.002124253 0.001939065 0.001766461 0.00160664 0.001461378 0.001324613 0.001195702 0.001071204
 0.0009507266 0.0008351332 0.0007244877 0.0006206106 0.0005233014 0.000431859 0.0003456284 0.0002614676 0.0001785718 9.288549E-05
 4.33298E-06 -8.954718E-05 -0.0001874059 -0.000288845 -0.0003914469 -0.0004927729 -0.0005912988 -0.0006848514 -0.000774529 -0.0008599253
 -0.0009437166 -0.001026579 -0.001110597 -0.001196389 -0.00128446 -0.00137493 -0.001468085 -0.001563928 -0.001663467 -0.001766684
 -0.00187295 -0.001981591 -0.002086757 -0.002187484 -0.002275205 -0.002351661 -0.002415993 -0.002473752 -0.00253566 -0.002605261
 -0.002694155 -0.002796885 -0.002914159 -0.003034982 -0.003151526 -0.003259491 -0.003352997 -0.00343938 -0.003519202 -0.003601208
 -0.00368821 -0.003779439 -0.003875743 -0.003969347 -0.004059674 -0.004142353 -0.004217376 -0.004288173 -0.004355167 -0.004423586
 -0.004493262 -0.004566014 -0.004641692 -0.004720368 -0.004803019 -0.004891805 -0.004987067 -0.005091532 -0.005201159 -0.005314547
 -0.005423591 -0.005522443 -0.005606153 -0.005669011 -0.005717335 -0.005750201 -0.005781833 -0.005815285 -0.005858477 -0.005913858
 -0.005975181 -0.006042392 -0.006103989 -0.006159607 -0.006206227 -0.006244679 -0.006281177 -0.006316456 -0.006357281 -0.006403512
 -0.006458291 -0.006521005 -0.006592492 -0.006670646 -0.006753792 -0.006837594 -0.006917625 -0.00698977 -0.007049265 -0.007096498
 -0.007128984 -0.007154019 -0.007172293 -0.007194617 -0.007223556 -0.007264955 -0.007320863 -0.007385011 -0.007457386 -0.007525127
 -0.007587755 -0.007639869 -0.007682342 -0.007721237 -0.007757258 -0.007797602 -0.007840774 -0.007886198 -0.007931717 -0.007972207
 -0.008007512 -0.008034756 -0.008055854 -0.008071213 -0.008083901 -0.008095775 -0.008110042 -0.008128676 -0.008153364 -0.00818557
 -0.008223411 -0.008267283 -0.008311972 -0.008356862 -0.008397891 -0.008434493 -0.008468398 -0.008499797 -0.008535408 -0.008575412
 -0.008624672 -0.008682054 -0.008744899 -0.008811396 -0.008874187 -0.008933309 -0.008984703 -0.009030697 -0.009072901 -0.009113345
 -0.009155093 -0.009197857 -0.009242332 -0.00928801 -0.009334402 -0.009382818 -0.009433524 -0.009487798 -0.009546258 -0.009607709
 -0.009672165 -0.009737749 -0.009804321 -0.009870633 -0.009936561 -0.009998777 -0.01005682 -0.01010427 -0.01014171 -0.0101677
 -0.01018491 -0.01020067 -0.01021728 -0.01024401 -0.01027936 -0.01032555 -0.01037943 -0.0104381 -0.01050098 -0.01056687
 -0.01063553 -0.01070776 -0.01077875 -0.01084786 -0.01090796 -0.01095688 -0.01099319 -0.01101574 -0.0110307 -0.01103833
 -0.01104611 -0.01105439 -0.01106791 -0.01108672 -0.01111326 -0.0111472 -0.01118885 -0.01123664 -0.01128624 -0.01133548
 -0.01137723 -0.0114114 -0.01143377 -0.01144799 -0.01145563 -0.01146152 -0.01146951 -0.01148261 -0.01150344 -0.01153252
 -0.01157085 -0.01161696 -0.01167114 -0.01172958 -0.01179211 -0.01185326 -0.01191265 -0.01196488 -0.0120097 -0.01204349
 -0.01206647 -0.01207932 -0.01208312 -0.01208379 -0.01208226 -0.01208507 -0.01209125 -0.01210219 -0.0121158 -0.01212921
 -0.01214192 -0.01215192 -0.0121607 -0.01216878 -0.01217723 -0.01218668 -0.01219786 -0.01221097 -0.01222723 -0.01224704
 -0.01227054 -0.01229807 -0.01232704 -0.01235733 -0.01238585 -0.01241245 -0.01243618 -0.01245713 -0.01247611 -0.0124931
 -0.01250851 -0.01252204 -0.01253259 -0.01254049 -0.01254524 -0.01254877 -0.01255344 -0.0125616 -0.01257718 -0.01259969
 -0.01263102 -0.01266668 -0.0127054 -0.01274202 -0.01277442 -0.01280021 -0.01281825 -0.01282899 -0.01283207 -0.01283035
 -0.01282391 -0.01281694 -0.01280964 -0.01280494 -0.01280289 -0.01280476 -0.01281109 -0.01282504 -0.01284811 -0.01288653
 -0.01294203 -0.01302109 -0.01312529 -0.01325934 -0.01342539 -0.0136272 -0.01386675 -0.01414669 -0.0144676 -0.0148295
 -0.01523594 -0.01568597 -0.01619236 -0.01675696 -0.0173951 -0.01811233 -0.01889387 -0.01974234 -0.02058615 -0.02142122
 -0.02214525 -0.0227562 -0.02319498 -0.02346966 -0.02359495 -0.02357553 -0.02344018 -0.02317546 -0.0227577 -0.02219447
 -0.02146646 -0.02064288 -0.0197838 -0.01896176 -0.01825263 -0.01768358 -0.01728944 -0.01706887 -0.01703298 -0.01715578
 -0.01744409 -0.01781368 -0.01826061 -0.01865759 -0.01899082 -0.01920952 -0.01931116 -0.01934055 -0.01929982 -0.01922648
 -0.0191192 -0.01898769 -0.01883378 -0.01866838 -0.01849531 -0.01832967 -0.01817078 -0.018026 -0.01788816 -0.01775307
 -0.01761249 -0.01745726 -0.01728833 -0.01710095 -0.01690868 -0.01671468 -0.01653138 -0.01636339 -0.01621108 -0.01607592
 -0.01595003 -0.01583289 -0.01571713 -0.01560235 -0.0154876 -0.01537362 -0.01526881 -0.01517411 -0.01509991 -0.01504467
 -0.0150094 -0.01499058 -0.01498023 -0.01497716 -0.01497535 -0.01497672 -0.01498145 -0.01499047 -0.01500496 -0.01502398
 -0.01504691 -0.0150746 -0.01510728 -0.01514549 -0.0151904 -0.01523638 -0.01528318 -0.01532241 -0.01535289 -0.01537499
 -0.01538873 -0.01540524 -0.01542504 -0.01545828 -0.01550398 -0.01556233 -0.01563104 -0.0157024 -0.01577488 -0.01584079
 -0.01590072 -0.01595165 -0.01599643 -0.01603641 -0.01607598 -0.01611878 -0.0161681 -0.0162278 -0.0162948 -0.01637037
 -0.01644459 -0.01651548 -0.01657516 -0.01662127 -0.01665635 -0.01668006 -0.0167006 -0.0167184 -0.01673761 -0.01675817
 -0.01678004 -0.01680346 -0.01682993 -0.01685999 -0.01689677 -0.01693974 -0.01698966 -0.0170448 -0.01710299 -0.01716219
 -0.01721941 -0.01727299 -0.01732062 -0.01736174 -0.01739527 -0.0174219 -0.01744158 -0.01745528 -0.01746272 -0.01746738
 -0.01746901 -0.01747623 -0.0174897 -0.01751794 -0.01756147 -0.01761728 -0.01768431 -0.01774773 -0.01780689 -0.0178494
 -0.01787746 -0.01789192 -0.01789611 -0.01789876 -0.01790067 -0.01790743 -0.01791752 -0.01793116 -0.01794749 -0.01796531
 -0.01798614 -0.01801015 -0.01803976 -0.0180759 -0.01811997 -0.01817279 -0.01823333 -0.01830197 -0.01837448 -0.01845077
 -0.01852387 -0.01859339 -0.01865199 -0.01869953 -0.01873224 -0.01875108 -0.01875917 -0.01875878 -0.01875948 -0.01876305
 -0.01877923 -0.01880673 -0.01884858 -0.01890083 -0.01896025 -0.0190233 -0.01908614 -0.01914682 -0.01920334 -0.01925465
 -0.01929942 -0.01933955 -0.01937451 -0.01941042 -0.01944824 -0.01949224 -0.01954338 -0.01959761 -0.01965478 -0.01970825
 -0.01975816 -0.01980491 -0.01984926 -0.01989659 -0.01994652 -0.02000077 -0.02005795 -0.0201151 -0.02017228 -0.0202279
 -0.02028344 -0.02034034 -0.02039862 -0.0204596 -0.0205202 -0.02057922 -0.02063384 -0.02068188 -0.02072547 -0.02076395
 -0.02080381 -0.02084611 -0.02089464 -0.02095024 -0.02101024 -0.02107454 -0.02113882 -0.02120312 -0.02126754 -0.02133229
 -0.02139909 -0.02146722 -0.02153508 -0.02160143 -0.02166212 -0.02171724 -0.02176433 -0.02180595 -0.02184354 -0.02188096
 -0.02192193 -0.02196834 -0.02202299 -0.02208361 -0.02215012 -0.02221982 -0.02229174 -0.02236582 -0.02244207 -0.02251963
 -0.0225987 -0.0226741 -0.02274552 -0.02280924 -0.0228656 -0.02291911 -0.02297045 -0.02302677 -0.02308718 -0.02315236
 -0.02322053 -0.02328692 -0.02335207 -0.02341396 -0.02347566 -0.02354039 -0.02360949 -0.02368632 -0.02376736 -0.02385239
 -0.0239353 -0.02401339 -0.02408411 -0.02414564 -0.02420081 -0.02424951 -0.02429661 -0.02434251 -0.02439178 -0.0244447
 -0.02450594 -0.02457557 -0.02465597 -0.02474637 -0.02484306 -0.02494488 -0.02504501 -0.02514384 -0.02523837 -0.0253308
 -0.02542381 -0.02551844 -0.025618 -0.02571964 -0.02582335 -0.02592259 -0.02601394 -0.02609187 -0.02615217 -0.02619748
 -0.02622584 -0.02625029 -0.02627213 -0.02630597 -0.02635397 -0.02641966 -0.02650353 -0.0265957 -0.0266954 -0.02678865
 -0.02687577 -0.0269512 -0.02701745 -0.02708103 -0.02714455 -0.02721877 -0.02730267 -0.02740051 -0.02750742 -0.02761952
 -0.02773199 -0.02783895 -0.02793948 -0.02803084 -0.02811563 -0.02819377 -0.0282696 -0.02834409 -0.02842108 -0.02850155
 -0.02858672 -0.02867706 -0.02877028 -0.02886631 -0.02896143 -0.02905546 -0.02914503 -0.02923018 -0.02930945 -0.02938339
 -0.02945309 -0.02951957 -0.02958602 -0.02965309 -0.02972354 -0.02979725 -0.0298752 -0.02995699 -0.03004259 -0.03013158
 -0.03022397 -0.03031837 -0.03041439 -0.03051022 -0.03060521 -0.03069872 -0.0307904 -0.03088099 -0.03097047 -0.03106006
 -0.03114984 -0.03124037 -0.03133165 -0.03142332 -0.03151533 -0.03160712 -0.03169864 -0.03178938 -0.0318794 -0.0319686
 -0.032057 -0.03214467 -0.03223139 -0.03231711 -0.03240113 -0.03248282 -0.03256192 -0.03263782 -0.0327116 -0.03278342
 -0.03285459 -0.03292572 -0.03299654 -0.03306727 -0.0331364 -0.03320377 -0.03326848 -0.03333048 -0.03338927 -0.03344489
 -0.03349755 -0.03354775 -0.03359876 -0.03365161 -0.03371257 -0.03378144 -0.0338617 -0.03395073 -0.03404586 -0.03414356
 -0.03423803 -0.03432801 -0.03440996 -0.03448527 -0.03455374 -0.03461695 -0.03467572 -0.03473002 -0.03477966 -0.034826
 -0.03486862 -0.03491314 -0.03496007 -0.03501481 -0.03507789 -0.03514676 -0.03522099 -0.0352918 -0.03535922 -0.03541883
 -0.0354723 -0.03552391 -0.03557549 -0.03563423 -0.03570058 -0.03577923 -0.03586832 -0.03596867 -0.03607445 -0.03618203
 -0.03628327 -0.03637172 -0.03644447 -0.03649716 -0.03653638 -0.03656254 -0.03658415 -0.03660308 -0.03662302 -0.03664466
 -0.03666898 -0.03669606 -0.03672843 -0.03676628 -0.03681315 -0.03686907 -0.03693635 -0.03701419 -0.03710097 -0.03719486
 -0.0372901 -0.03738555 -0.0374761 -0.0375623 -0.03764302 -0.03771835 -0.03778821 -0.03785186 -0.03790784 -0.03795926
 -0.03800608 -0.03805495 -0.03810832 -0.03816769 -0.03823475 -0.03830241 -0.03837025 -0.03843044 -0.03848225 -0.03852743
 -0.03856638 -0.03860841 -0.03865356 -0.03870726 -0.03876722 -0.0388268 -0.03888362 -0.03892637 -0.03895739 -0.03897427
 -0.03898399 -0.03899485 -0.03901128 -0.03904163 -0.03908294 -0.0391369 -0.03919605 -0.03925782 -0.03931627 -0.03936854
 -0.03941461 -0.03945331 -0.03949055 -0.03952694 -0.03956633 -0.03960925 -0.03965073 -0.03969055 -0.03972328 -0.0397502
 -0.03977858 -0.03981038 -0.03985947 -0.0399234 -0.04000455 -0.04009475 -0.04017936 -0.04025334 -0.04030111 -0.04032971
 -0.04033852 -0.04033972 -0.04034177 -0.04034905 -0.0403669 -0.04039015 -0.04041845 -0.04044651 -0.04047236 -0.04049889
 -0.04052585 -0.04055996 -0.04060171 -0.04065392 -0.04071666 -0.04079057 -0.04087517 -0.04096872 -0.04106804 -0.04115932
 -0.04123773 -0.04127983 -0.04128968 -0.04126072 -0.04120709 -0.04114502 -0.04108478 -0.04104245 -0.04101996 -0.04102399
 -0.04105043 -0.04110093 -0.04116384 -0.04123783 -0.04130557 -0.04136345 -0.04140025 -0.04141336 -0.04140522 -0.0413756
 -0.0413338 -0.04128031 -0.04122449 -0.04116669 -0.04111417 -0.04106646 -0.04102527 -0.04099004 -0.04095957 -0.0409348
 -0.04091762 -0.04090745 -0.04090609 -0.04090749 -0.04090672 -0.04089922 -0.04087836 -0.04085033 -0.04081545 -0.04078263
 -0.04075583 -0.04073436 -0.04071971 -0.04070329 -0.04068417 -0.04065646 -0.04061938 -0.04057717 -0.04053013 -0.04048644
 -0.04044508 -0.04040202 -0.04035378 -0.04028051 -0.04018353 -0.04005361 -0.03990022 -0.03973878 -0.03957329 -0.0394179
 -0.03926663 -0.03911791 -0.03896907 -0.03881549 -0.03866455 -0.03851871 -0.03838249 -0.03826002 -0.03814241 -0.03803089
 -0.03790343 -0.03775911 -0.03756427 -0.03731601 -0.03699851 -0.03661254 -0.03619339 -0.03574362 -0.03530348 -0.03486697
 -0.03442837 -0.03397924 -0.03348945 -0.03296082 -0.03237974 -0.03175866 -0.03110847 -0.03044083 -0.02977165 -0.02910454
 -0.02844973 -0.02779578 -0.02714416 -0.02646776 -0.02575617 -0.02500285 -0.02419814 -0.02338565 -0.0225695 -0.02178581
 -0.02103893 -0.02031596 -0.01961641 -0.01892777 -0.0182524 -0.01760888 -0.016996 -0.01642242 -0.01587547 -0.01532231
 -0.0147523 -0.01412209 -0.01344488 -0.01271699 -0.01196394 -0.01121319 -0.01046888 -0.009745316 -0.009028631 -0.00831596
 -0.007596084 -0.006864914 -0.006116973 -0.005354954 -0.004548975 -0.003702025 -0.002725461 -0.001612346 -0.0002991203 0.001212754
 0.00280609 0.004470819 0.006056698 0.007582033 0.009055593 0.01050028 0.01199238 0.01353445 0.01516552 0.01688641
 0.01870034 0.02064838 0.02275112 0.0251049 0.02778057 0.03084028 0.03437365 0.03822803 0.0424108 0.04661408
 0.05076796 0.05471439 0.05841251 0.06188943 0.06514071 0.06826884 0.07128149 0.0743608 0.0775253 0.08104517
 0.08489322 0.08912861 0.09361638 0.09794366 0.1020875 0.1057534 0.1091028 0.1122493 0.1153101 0.1184617
 0.1217054 0.1250969 0.1286059 0.132225 0.1359555 0.139812 0.1437189 0.1476735 0.1515476 0.1553143
 0.1589847 0.1625564 0.1660839 0.1695652 0.1728579 0.1759461 0.1786116 0.1808673 0.1826625 0.1840215
 0.184995 0.1855911 0.1858343 0.1857685 0.1854546 0.1849617 0.1843871 0.1837516 0.1830937 0.1824319
 0.1817825 0.1811594 0.1805838 0.1799969 0.1794024 0.1786748 0.1778006 0.176661 0.1752395 0.1735766
 0.1716775 0.1697723 0.1678621 0.1660545 0.1643193 0.162558 0.1607524 0.1587849 0.1566766 0.1543995
 0.1520202 0.1496195 0.1472591 0.1450418 0.1429663 0.1410643 0.1393155 0.1377057 0.136268 0.1350043
 0.1339707 0.1331869 0.1326428 0.1323441 0.1322356 0.1323126 0.1325443 0.1329294 0.1334707 0.1341688
 0.1350336 0.1360636 0.1372571 0.1386101 0.1401099 0.1417525 0.1435228 0.145421 0.1474389 0.149584
 0.151859 0.1542783 0.1568529 0.1595927 0.1625075 0.1655918 0.1688477 0.1722602 0.1758299 0.1795262
 0.1833513 0.1872276 0.1911504 0.1950321 0.1988697 0.2026763 0.2064595 0.2103202 0.2142355 0.2181572
 0.2220206 0.2255678 0.2288127 0.2316381 0.2341372 0.2364194 0.2384978 0.2404481 0.2421946 0.243697
 0.2449287 0.2458618 0.2465068 0.2468778 0.2469058 0.246576 0.2458438 0.2446764 0.2432816 0.2416758
 0.2399946 0.2382423 0.2362973 0.2341549 0.2317215 0.2290114 0.226055 0.2228619 0.2195016 0.2159211
 0.2120757 0.207823 0.2028842 0.1972923 0.1908172 0.1840365 0.1773164 0.1710018 0.1654842 0.1604017
 0.1557119 0.1511093 0.1464786 0.1418762 0.1372856 0.1328684 0.128644 0.124601 0.1207382 0.1169265
 0.1131654 0.1094002 0.1056485 0.1019766 0.09839656 0.09499 0.09173981 0.08865194 0.08569741 0.08283376
 0.08004352 0.07729991 0.07457133 0.07185113 0.06903427 0.06607592 0.06286527 0.0592877 0.05560043 0.05179156
 0.0483886 0.04551056 0.04312607 0.04126066 0.03952708 0.03790706 0.03617695 0.03434712 0.0324619 0.03054403
 0.02874996 0.02706527 0.02552356 0.02410021 0.02273996 0.02147046 0.02030095 0.01928614 0.01850156 0.01794103
 0.01763589 0.01752821 0.01759459 0.01780037 0.01812274 0.01857083 0.01913472 0.01987226 0.02078132 0.02198738
 0.02350237 0.02541516 0.02772865 0.03023381 0.03290413 0.03535117 0.03758147 0.03942864 0.04092823 0.04211381
 0.04300764 0.04366951 0.04412339 0.0444195 0.04460861 0.04475128 0.04492139 0.04520005 0.04560523 0.04619433
 0.04685572 0.04756199 0.0482307 0.04882356 0.04937985 0.04989743 0.05043894 0.05101179 0.05162845 0.05228963
 0.0529546 0.05362123 0.05424914 0.05484355 0.05540869 0.05595963 0.05654724 0.05718857 0.05795104 0.05883377
 0.05986696 0.06103821 0.06233665 0.06377865 0.06536714 0.06713606 0.06911093 0.07128518 0.07367027 0.07621661
 0.07890946 0.08174133 0.08469924 0.08786841 0.09125629 0.0949257 0.09887958 0.1029518 0.1071213 0.1110733
 0.1148074 0.1181612 0.1211528 0.1237733 0.1260069 0.1278228 0.1291767 0.1299794 0.1302153 0.1298198
 0.1288339 0.1272588 0.1251641 0.1225828 0.1195748 0.1161634 0.1124033 0.1082947 0.1039642 0.09941345
 0.09488107 0.09038866 0.08612128 0.08208977 0.07827759 0.07467685 0.07117521 0.06777676 0.06444427 0.06119931
 0.05810364 0.05516141 0.05242162 0.04985693 0.04744726 0.04516194 0.04295788 0.04081937 0.03871958 0.03665651
 0.03461961 0.03262134 0.03066197 0.02876128 0.0269267 0.02515678 0.02345596 0.02179072 0.02015837 0.01853075
 0.01690614 0.01531089 0.01375027 0.01230165 0.01096792 0.009808711 0.008815086 0.00798727 0.007314627 0.006771183
 0.00635366 0.006046099 0.005846248 0.005748959 0.005742855 0.005823476 0.005962709 0.006150987 0.006344504 0.006528869
 0.006659952 0.006725118 0.006693993 0.006559618 0.006307448 0.005934437 0.005445483 0.004840633 0.004150603 0.003378414
 0.002570486 0.001731063 0.0009076464 0.0001052052 -0.0006330935 -0.001304972 -0.001881077 -0.002368036 -0.002761778 -0.003074577
 -0.003319026 -0.003503699 -0.003639443 -0.003730431 -0.003780534 -0.003795692 -0.003777439 -0.003735819 -0.003672383 -0.003600291
 -0.003521014 -0.003449796 -0.003388056 -0.003349101 -0.003333777 -0.003348903 -0.003394428 -0.003471398 -0.003578747 -0.003711282
 -0.003866621 -0.004032876 -0.004209411 -0.004386949 -0.00457053 -0.004763437 -0.004972839 -0.005209445 -0.005474407 -0.005773387
 -0.006101499 -0.006458191 -0.006837048 -0.007236507 -0.007648198 -0.008070948 -0.008492687 -0.008911828 -0.009316314 -0.009704853
 -0.01006866 -0.01040715 -0.01071598 -0.01099528 -0.0112461 -0.01146906 -0.01166895 -0.01184538 -0.01200012 -0.01213112
 -0.01223448 -0.01230804 -0.01234636 -0.01234843 -0.01231073 -0.01223377 -0.01211646 -0.01196077 -0.01176692 -0.01153847
 -0.011276 -0.01098524 -0.01066626 -0.01033098 -0.009980295 -0.009630804 -0.00928423 -0.008952387 -0.008636099 -0.008339223
 -0.008062021 -0.007808571 -0.007579701 -0.007383289 -0.007219226 -0.007091622 -0.006999118 -0.00693966 -0.006913962 -0.006921026
 -0.00696538 -0.007051863 -0.007184282 -0.007368527 -0.007602552 -0.007887897 -0.008218046 -0.008590688 -0.009001949 -0.009450094
 -0.009935083 -0.01045739 -0.01101213 -0.01159958 -0.01220619 -0.01283117 -0.01346314 -0.01410217 -0.01474872 -0.01540341
 -0.0160713 -0.0167509 -0.01743981 -0.01813482 -0.01882684 -0.01951337 -0.02018618 -0.02084367 -0.02148058 -0.02209679
 -0.02268967 -0.02326254 -0.0238154 -0.02435526 -0.02488424 -0.02540978 -0.02593442 -0.02646167 -0.02699333 -0.02752487
 -0.02805662 -0.0285767 -0.02908442 -0.02956905 -0.03003034 -0.03046418 -0.03087033 -0.03124606 -0.03158962 -0.03189307
 -0.03215402 -0.03236226 -0.03251669 -0.03261035 -0.03264447 -0.0326171 -0.03253194 -0.0323912 -0.03219847 -0.03195766
 -0.03166611 -0.03132551 -0.03092515 -0.03046284 -0.02992894 -0.02932007 -0.02864004 -0.0278873 -0.02708475 -0.0262334
 -0.02536964 -0.02449537 -0.023645 -0.02281832 -0.02203185 -0.02128207 -0.02056495 -0.01987549 -0.01919917 -0.01853235
 -0.01786146 -0.01718667 -0.01650138 -0.01581139 -0.01511797 -0.01443072 -0.01375476 -0.01309931 -0.01246855 -0.01187056
 -0.01130783 -0.01078754 -0.01031175 -0.009882035 -0.009499642 -0.009155078 -0.008848074 -0.008558086 -0.008283579 -0.007997382
 -0.007697602 -0.007357683 -0.00697732 -0.0065401 -0.006048979 -0.005501898 -0.004905172 -0.00426796 -0.003598013 -0.002908997
 -0.002204353 -0.001494306 -0.0007705913 -3.280528E-05 0.0007324068 0.001533661 0.00236614 0.003235078 0.004108697 0.004983961
 0.005824517 0.006625408 0.007370058 0.008056781 0.008690595 0.009272446 0.009819999 0.01033515 0.01083974 0.01133459
 0.01183493 0.0123399 0.01285453 0.01337877 0.0139148 0.01446278 0.0150243 0.0155979 0.01618155 0.01677838
 0.01738773 0.01801949 0.01867873 0.01936711 0.02008893 0.02082852 0.02158446 0.02233959 0.02309139 0.02383399
 0.02456677 0.02529034 0.02600481 0.0267122 0.02741306 0.02811236 0.02881037 0.02951168 0.03021443 0.03091806
 0.0316157 0.03229841 0.03295037 0.03355127 0.03408002 0.03451084 0.03483269 0.03502889 0.03510638 0.03506225
 0.03491202 0.034657 0.03432043 0.03390293 0.03344635 0.03295339 0.03247719 0.03202147 0.03162384 0.03128511
 0.0310157 0.03081397 0.03067327 0.0305919 0.03055908 0.03057474 0.03063295 0.03073504 0.03088234 0.0310716
 0.03130243 0.03156221 0.03184165 0.03212507 0.03240084 0.03265775 0.03288854 0.03308725 0.03325007 0.03337835
 0.03347058 0.03353703 0.03357866 0.03360366 0.03361277 0.03360596 0.03358354 0.03355124 0.03351106 0.03348128
 0.033463 0.0334712 0.03350415 0.03356435 0.0336507 0.03376299 0.03389875 0.0340583 0.03422889 0.03440341
 0.03455899 0.03468199 0.03474893 0.0347476 0.03466099 0.03448165 0.03420204 0.03381891 0.03333374 0.03274592
 0.03206138 0.03128022 0.03041426 0.02946472 0.02845676 0.02739275 0.02630362 0.025189 0.02406514 0.0229272
 0.02177132 0.02059065 0.01937133 0.01810656 0.01678108 0.01539343 0.01393306 0.01241368 0.01083699 0.00922792
 0.007597084 0.005962424 0.004331647 0.002711705 0.001104137 -0.0004816729 -0.002045195 -0.003571866 -0.005060615 -0.006501694
 -0.007894851 -0.00923767 -0.01053065 -0.01177604 -0.01297513 -0.01413489 -0.01525584 -0.01634432 -0.01739714 -0.01841177
 -0.0193838 -0.02030528 -0.02117642 -0.02199362 -0.02276146 -0.02348149 -0.02415841 -0.02479389 -0.02539366 -0.02595834
 -0.02649833 -0.02701455 -0.02752195 -0.02802231 -0.02852744 -0.02903865 -0.02955355 -0.03007146 -0.0305739 -0.0310596
 -0.03150946 -0.03192396 -0.03229554 -0.03262461 -0.03290876 -0.03314742 -0.03333673 -0.03348072 -0.03358135 -0.03364775
 -0.03369027 -0.03371136 -0.03371872 -0.0337009 -0.0336559 -0.03356967 -0.0334363 -0.03325367 -0.03301862 -0.03274333
 -0.03242794 -0.03209179 -0.03173618 -0.03137811 -0.0310184 -0.03066916 -0.0303317 -0.03002136 -0.02974126 -0.02951428
 -0.02934151 -0.0292402 -0.02920431 -0.02923237 -0.02931279 -0.02943096 -0.02957354 -0.02972475 -0.02987048 -0.0299981
 -0.03009637 -0.03015696 -0.03017606 -0.0301507 -0.03008107 -0.02996696 -0.02980747 -0.02960204 -0.02935427 -0.02906398
 -0.0287449 -0.02839769 -0.02803498 -0.02765593 -0.02725873 -0.02684224 -0.02639817 -0.02593066 -0.02544531 -0.02495148
 -0.02447166 -0.02400862 -0.02358004 -0.02317224 -0.02278053 -0.02238642 -0.02197287 -0.0215411 -0.0210827 -0.0206219
 -0.02016345 -0.01973007 -0.01932841 -0.01896349 -0.01863721 -0.01834623 -0.01809038 -0.01786905 -0.01768205 -0.01752472
 -0.0173953 -0.01727661 -0.01716612 -0.01704182 -0.01690466 -0.01674461 -0.01656721 -0.01637933 -0.01618393 -0.01599068
 -0.01579262 -0.01558828 -0.01536577 -0.01511518 -0.01483444 -0.01451684 -0.01417674 -0.01381538 -0.01345323 -0.01309535
 -0.01275095 -0.01242325 -0.01210283 -0.01178954 -0.01146729 -0.01113561 -0.01079223 -0.01043841 -0.01008582 -0.009733946
 -0.009387658 -0.009043051 -0.008690108 -0.008327665 -0.007946697 -0.007552629 -0.007148658 -0.006741495 -0.006339287 -0.005944812
 -0.005562328 -0.005192649 -0.004837068 -0.004495973 -0.004170356 -0.003857326 -0.00355755 -0.003261786 -0.002969525 -0.002668003
 -0.002356081 -0.00202697 -0.001680599 -0.001323077 -0.000955073 -0.0005857678 -0.0002143335 0.0001591847 0.0005345966 0.0009133236
 0.001290004 0.00165406 0.002001855 0.002319661 0.002618123 0.002898906 0.003183789 0.003489045 0.00382556 0.004207377
 0.004618323 0.00505951 0.005500226 0.005932912 0.006344729 0.006730602 0.007107758 0.007476832 0.007859776 0.008257249
 0.008668108 0.00909107 0.00951229 0.009932922 0.01035127 0.01076994 0.01119728 0.01163223 0.01207749 0.01252898
 0.01298225 0.01343342 0.01387674 0.01431096 0.01473226 0.01514511 0.0155504 0.01595296 0.01635632 0.01675444
 0.0171467 0.017527 0.01789258 0.01825765 0.01862281 0.01900755 0.0194123 0.01982751 0.02025081 0.02065347
 0.02103688 0.02139172 0.02172408 0.0220489 0.02236882 0.02269803 0.02303264 0.02337412 0.0237152 0.02404914
 0.0243705 0.02467109 0.02495659 0.02522533 0.02549225 0.02576281 0.02604265 0.02633557 0.02663312 0.02693457
 0.02723363 0.02752962 0.02782156 0.02810928 0.0283863 0.02865256 0.02890346 0.02914197 0.0293797 0.02962171
 0.02988964 0.03018717 0.0305339 0.03092743 0.03137688 0.03186634 0.03238545 0.03291366 0.03342966 0.03393416
 0.03441981 0.0349008 0.03538508 0.03585998 0.03632725 0.0367552 0.03713648 0.03747751 0.03777616 0.03808056
 0.03839296 0.0387476 0.03914293 0.03957593 0.04004207 0.0405179 0.04099851 0.04145515 0.04188761 0.04227873
 0.0426378 0.04297202 0.04328736 0.04359817 0.04388983 0.04415979 0.04438392 0.04454768 0.04464413 0.04466361
 0.0446251 0.04452741 0.04440844 0.04427176 0.04415876 0.04407379 0.04403538 0.04404429 0.04408996 0.0441717
 0.04427847 0.04441108 0.04456913 0.04475187 0.04495595 0.04518167 0.04542856 0.04569586 0.04598754 0.04628746
 0.04657963 0.04685387 0.04708276 0.04731526 0.0475559 0.04789479 0.0483841 0.04898326 0.04971514 0.05039157
 0.05097741 0.05143915 0.05176478 0.05205817 0.05232402 0.05262797 0.05296664 0.05332614 0.0536968 0.05401987
 0.05429076 0.05446015 0.05453717 0.05451547 0.05441115 0.05424982 0.0540316 0.05376883 0.05344988 0.0530622
 0.05262414 0.05213312 0.05163794 0.0511553 0.05071485 0.05032807 0.04999883 0.04972877 0.04952273 0.04938254
 0.04929241 0.04925105 0.04919178 0.04910959 0.04892443 0.04863767 0.04821096 0.04765753 0.04699325 0.04624707
 0.04548527 0.04474275 0.04411041 0.04358377 0.04320561 0.04291961 0.04269621 0.04249681 0.04228809 0.04207503
 0.04185496 0.0416244 0.04138147 0.04112612 0.04085208 0.04061237 0.04040996 0.04030659 0.04030531 0.04041073
 0.04062056 0.04090994 0.04127681 0.04169931 0.04217391 0.0426747 0.04320498 0.04375606 0.04434125 0.04498339
 0.04567566 0.04642982 0.04720447 0.04797434 0.04870298 0.0493598 0.04994642 0.05045252 0.05090527 0.05130598
 0.05169389 0.05207343 0.05248558 0.05293534 0.05343596 0.05398818 0.05457538 0.05519607 0.05583125 0.05647547
 0.05709366 0.05767094 0.05813587 0.05848245 0.05865302 0.05867151 0.05854516 0.05831123 0.0580125 0.05767677
 0.05733659 0.05701225 0.05672384 0.05647507 0.05627604 0.05610388 0.05595512 0.05581097 0.05566639 0.05552548
 0.05538898 0.05524861 0.05510387 0.05492361 0.05470743 0.05444075 0.05412739 0.0537803 0.0534062 0.05303102
 0.0526679 0.0523605 0.05211582 0.05197556 0.05190845 0.05190486 0.05190872 0.05186899 0.05176674 0.05156894
 0.05131021 0.05099398 0.05065801 0.05031408 0.04997377 0.04964181 0.04931235 0.04898595 0.04864617 0.04829213
 0.04791338 0.04751135 0.04710195 0.04668789 0.04629453 0.0459203 0.04557379 0.04525051 0.04494565 0.0446521
 0.04435669 0.04405348 0.04372416 0.04338694 0.04304277 0.04273174 0.0424803 0.04229557 0.04219501 0.04213502
 0.04210691 0.04208404 0.04205639 0.04204852 0.04206254 0.04210668 0.04218149</values></Ydata></AB><ScSm><Ydata ylabel="Single channel"><values byteorder="INTEL" format="FLOAT32" numvalues="1814"> 0.07229789 0.07230653 0.07237864 0.07253968 0.07276142 0.07297687 0.07312866 0.07320838 0.07323766 0.07322156
 0.07315969 0.0731029 0.07314424 0.07332592 0.07358023 0.0737781 0.07383336 0.07377756 0.07374257 0.07383189
 0.07397804 0.07395868 0.07360409 0.07299368 0.07240765 0.07207019 0.07200742 0.07220623 0.07275337 0.07358334
 0.07419153 0.07399367 0.07306103 0.07215222 0.07187143 0.07208855 0.07229741 0.07220418 0.07181622 0.07131757
 0.07111689 0.0717438 0.07332793 0.07516144 0.07594876 0.07462354 0.07111216 0.06657931 0.06299934 0.06209666
 0.0641299 0.06754362 0.0701347 0.07080827 0.07010357 0.06908408 0.06819254 0.06738461 0.06686811 0.06714354
 0.06831357 0.06961866 0.06983268 0.06831183 0.0657571 0.06371373 0.06316341 0.06391169 0.06541231 0.06736431
 0.06887642 0.06798926 0.06359835 0.05789181 0.0553773 0.0585981 0.06542152 0.07112624 0.07260419 0.07010753
 0.06588144 0.06229956 0.06096859 0.06229934 0.06543033 0.06893852 0.07170118 0.07296005 0.07213619 0.06932843
 0.06580411 0.06338788 0.06334241 0.06587368 0.07008981 0.07408039 0.07577986 0.07449059 0.07134978 0.06812786
 0.06606033 0.0658439 0.06780905 0.07157987 0.07605381 0.08003743 0.08272933 0.08380453 0.08348871 0.08241498
 0.08113952 0.08004642 0.07968366 0.08042979 0.08160632 0.08172973 0.0801207 0.07780492 0.07645731 0.07666881
 0.07747103 0.07751938 0.07646116 0.07472887 0.07220989 0.06820209 0.06301858 0.05843764 0.0559269 0.05551455
 0.0568338 0.05970286 0.06289694 0.06407224 0.06232977 0.05986058 0.05978273 0.06281404 0.06689282 0.06968771
 0.07075688 0.07138839 0.07293975 0.07545172 0.07747784 0.0771781 0.07414048 0.0704062 0.06902952 0.07108416
 0.0746301 0.07709685 0.07799251 0.07864197 0.07986679 0.08071764 0.07946742 0.0756662 0.07125276 0.06936015
 0.07158768 0.07640028 0.08024346 0.08018218 0.07587728 0.06965239 0.06467654 0.06277371 0.06393026 0.06749679
 0.07290335 0.07904019 0.08396465 0.08598893 0.08491597 0.08193429 0.07826561 0.07404584 0.06896211 0.0641018
 0.06218608 0.0649996 0.07110848 0.077052 0.08043414 0.0811269 0.07993083 0.0771011 0.07255094 0.06723186
 0.06359199 0.06368621 0.06670903 0.06944226 0.06962053 0.06799662 0.06669883 0.06657088 0.06685243 0.06680253
 0.06675166 0.06752352 0.06925219 0.07106531 0.07193224 0.07160696 0.07066411 0.06982388 0.06930494 0.06867871
 0.06747358 0.06610812 0.06585154 0.06743541 0.07004923 0.07217628 0.07311676 0.07323944 0.07297798 0.07207343
 0.06996362 0.0668581 0.06417491 0.06349398 0.06502914 0.06749419 0.06944183 0.0703046 0.07025114 0.06965929
 0.06886151 0.06803991 0.06728367 0.06681906 0.06694694 0.06760915 0.06830119 0.06857814 0.06841496 0.06798139
 0.06732799 0.06644122 0.06545746 0.06467472 0.06434399 0.06447797 0.06487833 0.06531274 0.06560052 0.06558621
 0.06519745 0.06455594 0.06389911 0.06336637 0.06295995 0.06269357 0.06263464 0.06277332 0.06296234 0.06303966
 0.06295627 0.06275569 0.06248051 0.06214205 0.06175908 0.06139094 0.06112456 0.06101499 0.06102116 0.06102991
 0.06098177 0.06093226 0.06093371 0.06091075 0.06073986 0.06042051 0.06008455 0.05985051 0.0597299 0.05966206
 0.05957857 0.05941898 0.0591279 0.05869878 0.05823836 0.05793425 0.05790693 0.05811523 0.0584237 0.05870963
 0.05888833 0.05891845 0.05883179 0.05870397 0.05856506 0.05837923 0.05812413 0.05785479 0.05768038 0.05768391
 0.0578509 0.05807473 0.05824263 0.05830653 0.05827765 0.05820218 0.05814808 0.05815464 0.05817844 0.05813842
 0.05802298 0.05790918 0.05787183 0.05790448 0.05793232 0.05789236 0.05780232 0.05774352 0.05776873 0.05784835
 0.05791952 0.05795965 0.05799079 0.05802909 0.0580483 0.05799886 0.05786957 0.05771972 0.05762458 0.05759712
 0.0575959 0.05759924 0.05762851 0.05769752 0.05777553 0.05781423 0.05779693 0.05774982 0.05770409 0.05765539
 0.05757516 0.05745842 0.05733852 0.05724936 0.05719163 0.05714168 0.05707914 0.05699941 0.05690734 0.056806
 0.05669377 0.05656912 0.0564316 0.05628262 0.05613718 0.05602769 0.05597424 0.05595016 0.05589716 0.05578139
 0.05562362 0.05547196 0.05535395 0.05525929 0.05516456 0.0550658 0.05498082 0.05492496 0.05489755 0.05489164
 0.05490199 0.05492195 0.0549497 0.05500437 0.0551177 0.05529406 0.05548886 0.055645 0.05574956 0.05584038
 0.05595744 0.0561033 0.05625432 0.0563969 0.05654547 0.05672517 0.05693681 0.05714378 0.0573073 0.05743227
 0.05756054 0.05772175 0.05791362 0.05812488 0.0583444 0.05854688 0.05870514 0.05882745 0.05895601 0.05911778
 0.05929856 0.05947385 0.0596436 0.05982403 0.06002198 0.06023458 0.06046664 0.06073274 0.06103972 0.06137273
 0.06169823 0.06198276 0.06221916 0.06244098 0.06270258 0.06303424 0.06341527 0.06379383 0.06413323 0.06444009
 0.06474808 0.06507631 0.06541313 0.06574616 0.06609312 0.06648266 0.06691141 0.06734343 0.06775276 0.06814596
 0.06854032 0.06893893 0.06933505 0.06972857 0.0701278 0.07053711 0.07094777 0.07134333 0.07171479 0.07206847
 0.07241927 0.07278102 0.07316184 0.0735555 0.07393226 0.07425611 0.07452719 0.07479398 0.07510258 0.07544259
 0.07576646 0.07605641 0.07634442 0.07666318 0.07700557 0.07734529 0.07767597 0.07801157 0.07835715 0.07869396
 0.07899079 0.07922603 0.07940527 0.07956183 0.07973492 0.07994683 0.08020541 0.08051693 0.08087588 0.08124634
 0.08157694 0.08183865 0.08203668 0.08219428 0.08234319 0.08251934 0.08274172 0.08299558 0.08324863 0.0834756
 0.08366258 0.08381303 0.08396396 0.08416905 0.08444472 0.08475523 0.08506701 0.08539125 0.08575021 0.08612911
 0.08649629 0.08685669 0.08724521 0.08766232 0.0880503 0.08835013 0.08855867 0.08871377 0.08885076 0.08900157
 0.0892118 0.08951569 0.08989438 0.09028763 0.09064806 0.09096625 0.09124939 0.09149958 0.09171484 0.0918967
 0.09205091 0.09218617 0.0923148 0.09245485 0.09262878 0.09284824 0.09309262 0.09331111 0.09345509 0.09350085
 0.09343912 0.09326651 0.09300527 0.09271166 0.09243217 0.09215073 0.09179846 0.09131588 0.09069167 0.0899464
 0.08910163 0.08817627 0.08720458 0.08624861 0.08538949 0.08470445 0.08424973 0.08406332 0.08417062 0.08456675
 0.08518551 0.08589713 0.08654819 0.08700578 0.08717427 0.08700024 0.08648778 0.08570664 0.08476834 0.08378425
 0.08283733 0.08197158 0.0811947 0.08050507 0.0799388 0.07959187 0.07958856 0.0800322 0.08098305 0.08245064
 0.08436744 0.08656476 0.08880576 0.09087539 0.09266039 0.09416039 0.09544268 0.09658916 0.09766017 0.09867525
 0.09961787 0.1004665 0.101221 0.1018955 0.1024947 0.103008 0.1034193 0.1037142 0.1038898 0.1039678
 0.1039928 0.1040087 0.1040447 0.1041194 0.104238 0.1043721 0.1044524 0.1043964 0.1041488 0.1037087
 0.1031382 0.102564 0.1021847 0.10226 0.1030351 0.1046001 0.1067935 0.1092625 0.1116424 0.1137018
 0.1153644 0.1166583 0.1176638 0.1184747 0.1191681 0.1197948 0.1203866 0.1209599 0.1215155 0.1220467
 0.1225512 0.1230347 0.1235059 0.1239727 0.1244352 0.1248841 0.1253118 0.125728 0.1261537 0.1265988
 0.1270503 0.1274883 0.1279089 0.1283263 0.1287504 0.1291694 0.1295639 0.1299327 0.1302964 0.1306763
 0.13108 0.1315012 0.131922 0.1323178 0.1326706 0.1329834 0.1332787 0.133581 0.1339015 0.1342355
 0.1345715 0.1349005 0.1352202 0.1355356 0.1358597 0.1362008 0.136544 0.1368556 0.1371173 0.1373506
 0.1375967 0.1378758 0.1381737 0.138464 0.1387378 0.1390134 0.1393182 0.1396597 0.1400134 0.1403427
 0.1406312 0.1408926 0.1411518 0.1414236 0.1417099 0.1420075 0.1423096 0.1426048 0.1428841 0.143151
 0.1434203 0.1437053 0.1440078 0.1443162 0.1446128 0.1448864 0.1451426 0.1453997 0.1456745 0.1459744
 0.1462971 0.1466289 0.1469459 0.1472264 0.1474686 0.1476902 0.1479113 0.1481435 0.1483915 0.1486581
 0.1489416 0.1492333 0.1495216 0.149799 0.1500651 0.1503239 0.1505797 0.1508359 0.1510964 0.1513649
 0.1516438 0.1519352 0.1522382 0.152543 0.1528341 0.1531015 0.153347 0.1535806 0.1538151 0.1540614
 0.1543217 0.154587 0.1548478 0.1551048 0.1553664 0.1556354 0.155904 0.1561603 0.1564007 0.1566347
 0.1568763 0.1571304 0.1573892 0.1576435 0.157894 0.1581487 0.1584118 0.1586762 0.1589297 0.1591692
 0.1594034 0.1596406 0.1598801 0.1601184 0.1603565 0.1605962 0.1608377 0.1610812 0.1613281 0.1615771
 0.1618226 0.1620594 0.1622874 0.1625135 0.162746 0.1629869 0.1632304 0.1634711 0.1637085 0.1639456
 0.1641874 0.164437 0.1646912 0.1649424 0.1651852 0.165419 0.165647 0.1658766 0.1661161 0.1663656
 0.1666175 0.1668679 0.1671197 0.1673743 0.1676252 0.1678628 0.1680833 0.1682931 0.168505 0.1687249
 0.1689485 0.1691725 0.169401 0.1696369 0.1698762 0.1701136 0.1703458 0.1705708 0.1707931 0.1710228
 0.1712643 0.171513 0.1717637 0.1720134 0.1722567 0.1724901 0.1727184 0.1729491 0.1731868 0.1734316
 0.1736798 0.1739273 0.1741755 0.1744267 0.1746753 0.1749145 0.1751465 0.1753764 0.1756053 0.1758385
 0.1760846 0.1763418 0.1765977 0.1768436 0.1770764 0.177296 0.1775103 0.17773 0.1779561 0.1781835
 0.1784125 0.1786447 0.1788774 0.1791124 0.1793545 0.1795986 0.1798349 0.1800639 0.1802897 0.1805121
 0.1807354 0.1809669 0.1812029 0.1814365 0.1816711 0.181911 0.1821498 0.1823818 0.1826034 0.1827977
 0.1829195 0.182853 0.1823091 0.1807199 0.1772296 0.1708642 0.1609206 0.1474159 0.131239 0.1138321
 0.09665966 0.08083417 0.06701303 0.05548381 0.0463041 0.03939515 0.03460166 0.03178843 0.03094437 0.03229234
 0.03640187 0.04384719 0.05394816 0.06366763 0.06880077 0.06729356 0.06120351 0.05482326 0.05111703 0.05029233
 0.05107886 0.05238878 0.05387612 0.05574504 0.05834739 0.0617827 0.06587576 0.07060805 0.07633809 0.08334756
 0.09128005 0.0992831 0.1067467 0.113786 0.1209595 0.1285945 0.1364443 0.1439342 0.1506212 0.156418
 0.1615047 0.1661253 0.1704489 0.1745543 0.1784768 0.1822045 0.1856026 0.1883882 0.1902651 0.1911431
 0.1912453 0.1909906 0.190751 0.1907022 0.1908599 0.1911924 0.1916748 0.1922846 0.1929994 0.1937985
 0.1946574 0.1955462 0.1964374 0.1973081 0.1981394 0.1989226 0.1996583 0.2003448 0.2009738 0.2015408
 0.2020522 0.2025222 0.2029645 0.2033866 0.2037913 0.2041844 0.2045727 0.204951 0.2053021 0.2056144
 0.2058918 0.2061445 0.2063842 0.206625 0.2068774 0.2071407 0.2074092 0.20768 0.20795 0.2082125
 0.208462 0.2086985 0.2089259 0.2091527 0.2093902 0.2096432 0.2099057 0.2101671 0.210419 0.2106571
 0.2108864 0.21112 0.2113651 0.2116147 0.2118605 0.2121046 0.2123522 0.2126034 0.212855 0.2131061
 0.2133604 0.2136271 0.2139117 0.214204 0.2144867 0.2147556 0.2150201 0.2152875 0.21556 0.2158393
 0.2161177 0.2163753 0.2165986 0.2168023 0.2170241 0.2172951 0.2176107 0.2179322 0.2182245 0.218487
 0.218742 0.2190036 0.2192681 0.2195233 0.2197648 0.2200111 0.2202949 0.2206249 0.2209752 0.2213226
 0.2216671 0.2220081 0.2223344 0.2226457 0.2229476 0.2232245 0.2234537 0.2236531 0.2238888 0.224225
 0.2246632 0.2251329 0.2255542 0.2259071 0.2262264 0.2265494 0.2268957 0.2272538 0.2275445 0.2276685
 0.2276612 0.2277376 0.2280965 0.2287211 0.2294242 0.2300424 0.230536 0.2309476 0.2313204 0.2316473
 0.2318762 0.2319717 0.2319959 0.2321195 0.2325021 0.2331302 0.233816 0.2343842 0.234806 0.2351358
 0.2354195 0.2356885 0.2359101 0.2359235 0.2356071 0.2351809 0.2351527 0.2358233 0.2369481 0.2380018
 0.2387014 0.2391519 0.2395477 0.2399311 0.2402512 0.2404103 0.2401475 0.239189 0.2377881 0.2368717
 0.2372739 0.2388955 0.2408648 0.2424096 0.2433427 0.2438649 0.2442227 0.244543 0.2447364 0.2445127
 0.2437036 0.2426824 0.2422656 0.2429637 0.2444113 0.2457564 0.2465272 0.246883 0.247166 0.2475166
 0.2477779 0.2474508 0.2459768 0.2435605 0.2415882 0.2416559 0.2440063 0.2472346 0.2496803 0.2508587
 0.2513341 0.2514939 0.2509796 0.2493353 0.2466958 0.2437299 0.2414252 0.2409439 0.2428517 0.2461642
 0.2489083 0.2500682 0.2504427 0.2513348 0.2529997 0.2546602 0.2555142 0.2553482 0.2544013 0.2529335
 0.2511041 0.249375 0.2487496 0.2500634 0.2529666 0.256052 0.258155 0.2592306 0.2597368 0.2592772
 0.2563359 0.2501013 0.2427457 0.2388301 0.2412838 0.2483378 0.255424 0.2596696 0.2614733 0.2623561
 0.2629166 0.2626655 0.2603141 0.254486 0.2458937 0.2386932 0.2376712 0.2435146 0.2520328 0.2580642
 0.2589863 0.2549896 0.2481573 0.241855 0.2393607 0.2418718 0.2479754 0.2550483 0.2608349 0.2640619
 0.26443 0.262503 0.2596608 0.257754 0.2577673 0.2583669 0.2569087 0.2527769 0.248412 0.2457284
 0.2431521 0.2385355 0.2338702 0.2339636 0.2401862 0.2481753 0.252728 0.2530677 0.251924 0.2505788
 0.2466914 0.2376751 0.2255787 0.2171911 0.218093 0.2268713 0.2363792 0.2407168 0.2399151 0.2378807
 0.2371782 0.2364329 0.23233 0.2239704 0.21507 0.2108566 0.2125428 0.2162459 0.2175973 0.2152652
 0.2094691 0.2005211 0.1912452 0.1879098 0.1949381 0.2094704 0.2235967 0.2308773 0.2287233 0.216988
 0.1987806 0.1822318 0.1765434 0.1837935 0.1964349 0.2042428 0.2024506 0.1926151 0.1781883 0.1620888
 0.1480016 0.1408492 0.1438211 0.1550984 0.1680652 0.1747382 0.1701901 0.156262 0.141625 0.1355502
 0.139629 0.146806 0.1493051 0.1456491 0.1395457 0.1349722 0.1338108 0.1357083 0.1385265 0.1402836
 0.1407506 0.1394176 0.133361 0.1208853 0.1065667 0.09828951 0.09900684 0.1052181 0.1133859 0.1230334
 0.1325156 0.1368967 0.1335393 0.1271933 0.1259807 0.1327939 0.1427853 0.1492234 0.15014 0.1487146
 0.1483277 0.1488606 0.1484833 0.1477815 0.1498763 0.1560951 0.1636043 0.1685565 0.1700953 0.1699804
 0.1696246 0.1690427 0.1678689 0.1659953 0.1634951 0.1607022 0.1581049 0.1557995 0.1534175 0.1506939
 0.1474635 0.1428978 0.1357141 0.1261004 0.1168903 0.1113896 0.1099567 0.1101734 0.1103884 0.1107544
 0.1100632 0.1047276 0.09355661 0.08172978 0.07702046 0.08229086 0.09339931 0.1039209 0.1099923 0.1106024
 0.1057509 0.09682988 0.08847715 0.08711755 0.09566191 0.1106878 0.1261455 0.1385598 0.1472943 0.1516498
 0.1505221 0.1448227 0.1383644 0.1357194 0.139512 0.1492153 0.1611579 0.1692927 0.1681681 0.1584815
 0.149724 0.1531406 0.1697293 0.188348 0.1982202 0.199914 0.2007749 0.2035105 0.2049184 0.2041339
 0.2058439 0.2138698 0.2255005 0.2341205 0.2349875 0.2270883 0.2124897 0.1967651 0.187568 0.1886015
 0.1955827 0.2010437 0.2016343 0.1976984 0.1888328 0.1757301 0.1649065 0.1647791 0.1758677 0.18961
 0.1980934 0.2012776 0.2034602 0.2058847 0.2052661 0.1988094 0.1888565 0.1814203 0.180198 0.1833015
 0.1863694 0.1871254 0.1854759 0.180988 0.1731328 0.1639357 0.1579738 0.1584625 0.1640418 0.1701696
 0.1733003 0.173181 0.1716748 0.1704826 0.1700361 0.1696997 0.1689218 0.1687108 0.1714419 0.1781661
 0.1866795 0.1936689 0.1984703 0.2032736 0.2096858 0.2164561 0.2209155 0.221851 0.2206975 0.220355
 0.2228804 0.2278264 0.2325557 0.2344956 0.2335886 0.2325716 0.234443 0.2395639 0.2455937 0.2501106
 0.2525865 0.2538849 0.2548313 0.2555355 0.2553629 0.2534664 0.2501137 0.247465 0.2480772 0.2523708
 0.2581873 0.2629377 0.2656283 0.2667729 0.2670595 0.2665947 0.2652622 0.2633768 0.2617195 0.2609479
 0.2611428 0.2619506 0.2629744 0.2639549 0.264764 0.2653919 0.2658994 0.266332 0.2667159 0.2671107
 0.2675685 0.2680413 0.2684319 0.2687658 0.269215 0.2698883 0.2706621 0.2712942 0.2716381 0.2716527
 0.2712648 0.2703829 0.2690527 0.2674536 0.2656948 0.2637391 0.2616455 0.2598388 0.2589897 0.2595214
 0.26123 0.2634214 0.2654033 0.2668361 0.2677144 0.2681827 0.2684208 0.2686007 0.2688345 0.2691405
 0.2694776 0.2698153 0.2701582 0.2705147 0.2708742 0.2712354 0.2716328 0.2721062 0.272648 0.2731948
 0.2736677 0.274014 0.2742297 0.2743552 0.2744383 0.2744855 0.274451 0.2742747 0.2739305 0.2734474
 0.2728949 0.2723369 0.2717809 0.2711677 0.2704199 0.269496 0.2683775 0.267023 0.2653938 0.263546
 0.2616406 0.259822 0.2581159 0.2564694 0.2548375 0.2531959 0.2515134 0.2497648 0.2479564 0.2461134
 0.2442539 0.2423861 0.2405155 0.2386456 0.2367769 0.2349071 0.2330238 0.231102 0.2291151 0.2270453
 0.2248689 0.2225249 0.219907 0.2168947 0.2133873 0.2093148 0.2046576 0.1994929 0.1940146 0.1884776
 0.1831083 0.1780556 0.1734034 0.1692129 0.1655516 0.1624859 0.1600565 0.158278 0.1571571 0.1566973
 0.1568861 0.1576878 0.159041 0.1608475 0.1629719 0.1652549 0.1675303 0.1696464 0.1715147 0.1731568
 0.1746884 0.1762304 0.177825 0.1794382 0.1810273 0.1825768 0.1840605 0.1854103 0.1865555 0.187476
 0.1881953 0.1887421 0.189138 0.1894035 0.1895551 0.1896061 0.1895798 0.1895169 0.18947 0.1894868
 0.1895895 0.1897697 0.1900125 0.1903168 0.1906834 0.1910968 0.1915305 0.1919635 0.1923882 0.1928121
 0.1932598 0.1937763 0.1944347 0.1953301 0.1965455 0.1981104 0.1999941 0.2021202 0.2043811 0.2066573
 0.2088467 0.2108886 0.2127725 0.2145312 0.2162076 0.2178132 0.2193259 0.2207233 0.2220002 0.2231538
 0.2241734 0.2250461 0.2257666 0.2263466 0.2268107 0.2271725 0.2274209 0.2275487 0.2275789 0.2275486
 0.2274769 0.2273678 0.2272347 0.2271035 0.2269895 0.2268755 0.2267215 0.2264979 0.2262016 0.2258356
 0.2253912 0.2248545 0.2242077 0.2234184 0.2224517 0.2213008 0.2199847 0.2185195 0.2169139 0.2151885
 0.2133838 0.2115503 0.2097362 0.2079711 0.2062476 0.2045208 0.2027223 0.2007868 0.1986903 0.1964777
 0.1942417 0.1920691 0.1900045 0.1880475 0.1861687 0.1843333 0.1825291 0.1807729 0.1790917 0.1774997
 0.1759886 0.1745373 0.1731371 0.1718087 0.1705879 0.1694997 0.1685536 0.1677501 0.167077 0.1665053
 0.166002 0.1655488 0.1651499 0.1648272 0.1645938 0.1644229 0.1642499 0.164016 0.163707 0.1633508
 0.162985 0.1626289 0.1622848 0.161955 0.1616399 0.1613107 0.1608974 0.160313 0.1594788 0.1583351
 0.1568605 0.1550909 0.1531083 0.151017 0.1489391 0.1470055 0.14532 0.143932 0.1428378 0.1419867
 0.1412958 0.1406927 0.140157 0.1397252 0.1394593 0.1393811 0.1394055 0.139369 0.13918 0.1389248
 0.1387923 0.1389131 0.139279 0.1397697 0.1402336 0.140574 0.1407775 0.1408659 0.1408528 0.1407511
 0.1405765 0.1403251 0.1399819 0.1395521 0.1390618 0.1385361 0.1379846 0.1373902 0.136719 0.1359597
 0.1351337 0.1342557 0.1333191 0.132314 0.1312147 0.1299818 0.1286571 0.1274389 0.1265981 0.1263091
 0.1265521 0.1271345 0.1278248 0.1285073 0.1291524 0.1296219 0.1296879 0.1294017 0.1293076 0.1300507
 0.1317422 0.1338246 0.135572 0.1366172 0.1369874 0.1368196 0.1361962 0.1351598 0.1337095 0.131814
 0.1295155 0.1269527 0.1242402 0.1214538 0.1187379 0.1162756 0.1141651 0.1124207 0.1110314 0.1100335
 0.1095523 0.1092558 0.1074427 0.1019331 0.09341787 0.08696868 0.08778796 0.09536295 0.103805 0.1080786
 0.1080343 0.1063614 0.1049303 0.1040341 0.1035787 0.1036865 0.1044694 0.1057918 0.1072778 0.1085252
 0.1093567 0.1097972 0.1098107 0.1091015 0.107067 0.1029857 0.09659356 0.08862718 0.0805909 0.0738796
 0.06915377 0.06634189 0.06492183 0.06423496 0.06382257 0.06362794 0.06389058 0.06484912 0.06654157 0.06884539
 0.07160394 0.07459719 0.0774447 0.07975685 0.08144623 0.08273092 0.0837893 0.08456013 0.08489761 0.08476847
 0.08426067 0.08350515 0.08262327 0.08169031 0.08071244 0.07965565 0.07854535 0.07755177 0.07690351 0.07666707
 0.07668303 0.07675737 0.07682003 0.07687208 0.07690422 0.07691374 0.07692239 0.07697029 0.07713038 0.07746933
 0.07794635 0.07841359 0.07874871 0.07894616 0.07907876 0.07917825 0.07913333 0.07878073 0.07818215 0.07766003
 0.07737428 0.07702562 0.07624375 0.07516269 0.07434224 0.07415865 0.07447262 0.07486209 0.07500739 0.07485679
 0.07459275 0.07451874 0.07485483 0.07549582</values></Ydata></ScSm><ScRf><Ydata ylabel="Single channel"><values byteorder="INTEL" format="FLOAT32" numvalues="1820"> 0.06081731 0.06097858 0.06106813 0.06108977 0.06107543 0.06107586 0.06114101 0.06129078 0.06149713 0.06169614
 0.06183029 0.06188721 0.06188933 0.06185253 0.06178519 0.06172941 0.06175775 0.06190258 0.06210699 0.06226271
 0.06229857 0.06224465 0.06221398 0.06229083 0.06241325 0.06239115 0.06208206 0.06155566 0.06105185 0.06076127
 0.06070312 0.06086255 0.06131435 0.06200996 0.06252708 0.06236764 0.06158318 0.06080998 0.06056147 0.06073473
 0.06090692 0.06082889 0.06050145 0.0600752 0.05989584 0.06041744 0.0617571 0.06331654 0.06398967 0.0628619
 0.05986904 0.05600674 0.0529571 0.05218282 0.05390005 0.05678882 0.05898295 0.05955712 0.05897084 0.05812451
 0.05738665 0.05670957 0.05626264 0.05647276 0.05743867 0.05852775 0.05870219 0.05741179 0.05524984 0.05352768
 0.05307231 0.05370912 0.05497295 0.05661607 0.05788904 0.05713055 0.05340394 0.04856873 0.04645182 0.04920938
 0.05502541 0.0598838 0.06113848 0.0590043 0.05540071 0.05235869 0.05124319 0.05238586 0.05503903 0.0579972
 0.06032263 0.06138067 0.06067706 0.05829079 0.05529797 0.05325156 0.05322677 0.0553956 0.05898918 0.06237419
 0.06379962 0.06268937 0.06002194 0.05729866 0.05555749 0.05538247 0.05705528 0.06026215 0.06407058 0.06746718
 0.06976943 0.07070002 0.07045248 0.06956787 0.06851687 0.06761527 0.06731705 0.06794207 0.06892304 0.06901194
 0.06764057 0.06568238 0.06455435 0.06474958 0.06544109 0.06548759 0.06459035 0.06311458 0.06096184 0.05753753
 0.05311671 0.04921987 0.04709449 0.04676074 0.04791262 0.05040497 0.05318785 0.05424286 0.05279034 0.05070078
 0.05063809 0.05321509 0.05667729 0.05904726 0.05995871 0.06051347 0.06186553 0.06404223 0.06580064 0.06556319
 0.06297986 0.05980898 0.05867539 0.06049187 0.0635788 0.06573015 0.06654366 0.06717478 0.06832342 0.06914797
 0.06814162 0.06492186 0.06118619 0.05965549 0.06170093 0.06597346 0.06938605 0.06939723 0.06572137 0.06039086
 0.05617015 0.05464299 0.05579899 0.05909376 0.06405011 0.0696905 0.0742849 0.07631852 0.07558616 0.07311918
 0.07000412 0.06637263 0.06195492 0.05775057 0.05624557 0.05907095 0.06492051 0.07063627 0.07402408 0.07495059
 0.07412471 0.07175253 0.06773844 0.06299046 0.05984916 0.06027117 0.06346914 0.06635457 0.06676847 0.06545287
 0.06446606 0.06462194 0.06517988 0.06542022 0.06567611 0.06676598 0.06881957 0.07096194 0.07215681 0.07214641
 0.07150173 0.07095933 0.07075181 0.07043472 0.06951606 0.06844071 0.06854132 0.07057489 0.07367653 0.07624747
 0.07756135 0.07802638 0.07810591 0.07749598 0.07555765 0.07251085 0.06991819 0.06952752 0.07158579 0.07468098
 0.07720663 0.07852036 0.07880697 0.07849647 0.07796538 0.07741284 0.07693066 0.07677066 0.07728103 0.07840984
 0.07958677 0.08029389 0.08049248 0.08036995 0.07997029 0.07926698 0.07843012 0.07783245 0.07778104 0.07828826
 0.07911669 0.07999291 0.08070081 0.08104005 0.08089985 0.08041781 0.07990283 0.07955375 0.07937995 0.07938773
 0.07965524 0.08017012 0.08074324 0.08116366 0.08136433 0.08139822 0.08132602 0.08117494 0.0809705 0.0807771
 0.08070251 0.08082737 0.08110565 0.08139057 0.08160621 0.08182482 0.08210775 0.08234955 0.08238569 0.08221216
 0.08199944 0.08190532 0.08194838 0.08205341 0.08214054 0.08213645 0.08195914 0.08158816 0.08116898 0.08096467
 0.08114546 0.08166195 0.08233379 0.08298317 0.08347191 0.08372706 0.08379188 0.08378141 0.08374965 0.08365072
 0.08344699 0.08321278 0.08311214 0.08327478 0.08368029 0.08416648 0.08456142 0.08479246 0.08488471 0.08492161
 0.08501062 0.08519907 0.08539975 0.0854731 0.08540282 0.08532488 0.08536436 0.08549467 0.08558127 0.08554094
 0.08543846 0.08542071 0.0855622 0.08579841 0.0860161 0.08617768 0.08633673 0.08654308 0.08674936 0.08683028
 0.08671772 0.08649922 0.08633427 0.08628546 0.08629772 0.08633615 0.08645076 0.08667158 0.08691461 0.08705471
 0.08706571 0.08703976 0.08706802 0.08713606 0.08715062 0.08704952 0.0868656 0.08669339 0.08661439 0.08664827
 0.08674909 0.08683725 0.08684872 0.08677239 0.08664785 0.08652681 0.08643712 0.08638962 0.08641389 0.0865543
 0.08679937 0.08702983 0.08708568 0.0869128 0.08662813 0.08641604 0.08635892 0.08637886 0.08633699 0.08616807
 0.08591571 0.08566538 0.08547014 0.08533216 0.08522672 0.08513562 0.08507337 0.085087 0.08520696 0.08537991
 0.08547345 0.0853842 0.08513805 0.08486085 0.08466254 0.08457214 0.08455727 0.08456615 0.08456728 0.08457977
 0.08464305 0.08473774 0.08478011 0.08472274 0.08461887 0.08456521 0.08462217 0.08479422 0.08502541 0.08520152
 0.08522396 0.08511199 0.08498953 0.08495574 0.08500706 0.08508968 0.0851768 0.08527104 0.08536974 0.0854658
 0.08557393 0.08572912 0.08595149 0.08621803 0.08647009 0.08665188 0.08675567 0.08683818 0.08698247 0.08722992
 0.08754706 0.08785923 0.08811437 0.08831672 0.08850555 0.0887049 0.08890343 0.08909132 0.08929923 0.08957124
 0.08990445 0.09024733 0.09055837 0.09083971 0.09111302 0.09138957 0.09167279 0.09197605 0.09232754 0.0927453
 0.09319538 0.09358819 0.09384707 0.0939849 0.09409994 0.09429884 0.09462365 0.0950212 0.09536669 0.09555756
 0.09562065 0.09569868 0.09589674 0.09617411 0.09642912 0.09665639 0.09695461 0.09738113 0.09785774 0.09824504
 0.09848101 0.09862538 0.09878033 0.09898379 0.09918285 0.09930997 0.09937204 0.09944159 0.09956805 0.09974139
 0.09995544 0.1002511 0.1006525 0.1010972 0.1014802 0.1017514 0.101935 0.102074 0.1021923 0.1022913
 0.1023561 0.1023797 0.1023952 0.1024534 0.102554 0.1026364 0.1026626 0.1026722 0.1027335 0.102875
 0.1030905 0.1033723 0.1036986 0.1040143 0.1042799 0.1045345 0.1048573 0.1052488 0.1055951 0.1057871
 0.1058384 0.1058442 0.10586 0.1058813 0.1059256 0.1060561 0.1063086 0.106646 0.1070047 0.1073554
 0.1077023 0.108046 0.1083592 0.1085936 0.1087111 0.1087202 0.1086836 0.1086874 0.1087984 0.109033
 0.10935 0.1096766 0.109953 0.1101497 0.1102476 0.110239 0.1101699 0.1101459 0.1102469 0.1104352
 0.1105782 0.1105624 0.110362 0.1100038 0.1095089 0.1088931 0.1082056 0.107537 0.1069774 0.1065751
 0.1063434 0.1063044 0.1065025 0.106955 0.1075973 0.1083017 0.1089531 0.1094782 0.1098036 0.1098365
 0.1095284 0.1089373 0.1081993 0.1074464 0.1067574 0.1061477 0.1055785 0.1050067 0.1044722 0.1041297
 0.1041729 0.1047222 0.1057701 0.1071873 0.1087565 0.1102395 0.1114766 0.1124473 0.1132363 0.1139382
 0.1146024 0.1152518 0.1159132 0.1165933 0.1172466 0.1178093 0.1182704 0.1186773 0.1190739 0.1194593
 0.1198043 0.1200861 0.1203102 0.1205129 0.1207258 0.1209235 0.1210336 0.121018 0.1209168 0.1207957
 0.1206741 0.1205168 0.1202726 0.1199137 0.1194726 0.1190689 0.1188881 0.1191004 0.119767 0.1208054
 0.1220528 0.1233654 0.1246516 0.1258226 0.1267716 0.1274375 0.1278659 0.1281706 0.1284465 0.1287343
 0.1290401 0.1293557 0.129664 0.1299505 0.130218 0.1304892 0.1307942 0.1311444 0.1315121 0.1318435
 0.1321062 0.1323283 0.1325812 0.132916 0.1333109 0.133692 0.1340142 0.1343066 0.1346155 0.1349257
 0.1351758 0.1353463 0.1354931 0.1356913 0.1359775 0.1363412 0.1367325 0.1370777 0.1373259 0.1374947
 0.1376501 0.137841 0.1380683 0.1383116 0.1385593 0.1388081 0.1390555 0.1393085 0.1395891 0.1399072
 0.1402277 0.1404859 0.1406523 0.1407705 0.1409152 0.1411202 0.1413565 0.1415772 0.1417724 0.1419801
 0.1422439 0.1425601 0.1428699 0.1431106 0.1432692 0.1433845 0.1435065 0.1436628 0.1438535 0.1440636
 0.1442774 0.1444861 0.1446903 0.1448958 0.145108 0.1453267 0.1455464 0.1457615 0.1459717 0.1461813
 0.146392 0.1466018 0.1468122 0.1470408 0.1473128 0.1476306 0.1479505 0.1482098 0.1483803 0.148489
 0.1485868 0.148708 0.1488616 0.1490437 0.1492482 0.1494671 0.1496906 0.14991 0.1501207 0.1503211
 0.1505125 0.1507002 0.1508934 0.1510997 0.151321 0.1515558 0.1517999 0.1520424 0.1522676 0.1524643
 0.1526358 0.1527998 0.1529792 0.1531833 0.1533968 0.1535948 0.1537725 0.1539503 0.1541474 0.1543589
 0.1545651 0.1547537 0.1549304 0.15511 0.1553024 0.1555058 0.1557101 0.1559053 0.1560887 0.156266
 0.1564485 0.156645 0.1568545 0.1570677 0.1572738 0.157469 0.1576595 0.1578557 0.1580623 0.1582733
 0.1584796 0.158677 0.158867 0.1590531 0.1592407 0.159435 0.1596378 0.1598461 0.1600524 0.1602493
 0.1604386 0.160631 0.1608327 0.1610391 0.1612462 0.1614588 0.1616816 0.161911 0.1621392 0.1623594
 0.1625684 0.1627695 0.1629729 0.1631858 0.1634062 0.1636282 0.163846 0.1640549 0.1642532 0.1644421
 0.164623 0.1647983 0.1649749 0.1651572 0.1653415 0.1655227 0.1657029 0.1658863 0.1660713 0.1662551
 0.1664394 0.1666302 0.1668328 0.1670449 0.167257 0.1674623 0.1676619 0.1678557 0.1680396 0.1682177
 0.1684055 0.1686137 0.1688389 0.1690708 0.1692988 0.1695154 0.1697226 0.1699303 0.1701445 0.170364
 0.1705849 0.1708011 0.1710062 0.1712027 0.1714007 0.1716039 0.1718086 0.1720138 0.1722218 0.172431
 0.1726398 0.1728495 0.1730598 0.1732709 0.1734863 0.1737057 0.1739242 0.1741419 0.1743614 0.1745774
 0.174784 0.174986 0.1751889 0.1753915 0.1755976 0.1758157 0.1760419 0.1762637 0.1764769 0.1766838
 0.176886 0.1770873 0.1772894 0.1774757 0.1775987 0.1775395 0.177013 0.1754653 0.1720603 0.1658433
 0.1561261 0.1429275 0.1271189 0.1101133 0.09334543 0.07790129 0.06441551 0.05316218 0.04420182 0.03747
 0.03282121 0.03011237 0.02931081 0.03061831 0.03459289 0.04181328 0.05163875 0.06111886 0.06614485 0.0646943
 0.05876174 0.05253621 0.04891514 0.04810257 0.04886135 0.05013678 0.05159408 0.05342423 0.05595832 0.05929002
 0.06325657 0.06784916 0.07341686 0.08022597 0.08792569 0.09569187 0.1029394 0.1097837 0.1167635 0.1241862
 0.1318017 0.1390515 0.1455155 0.1511158 0.1560254 0.1604775 0.1646362 0.168576 0.1723299 0.1758941
 0.1791506 0.1818268 0.1836214 0.1844328 0.1844774 0.1841728 0.1838911 0.1838054 0.183925 0.1842082
 0.184622 0.1851479 0.1857799 0.1865119 0.1873181 0.1881579 0.1889982 0.1898163 0.1905911 0.1913095
 0.1919716 0.1925814 0.1931384 0.1936446 0.1941092 0.1945451 0.1949638 0.1953664 0.1957417 0.1960819
 0.1963987 0.1967107 0.1970203 0.1973135 0.1975776 0.1978125 0.1980294 0.1982437 0.1984628 0.1986816
 0.1988911 0.19909 0.1992824 0.1994734 0.1996699 0.1998776 0.2000936 0.2003081 0.2005146 0.2007142
 0.2009108 0.2011057 0.2012978 0.2014867 0.2016742 0.2018625 0.2020511 0.2022393 0.2024292 0.2026217
 0.2028137 0.2030028 0.2031915 0.2033811 0.2035717 0.2037711 0.2039905 0.2042267 0.2044607 0.2046774
 0.2048789 0.2050757 0.2052767 0.2054835 0.2056867 0.2058709 0.2060311 0.2061847 0.2063614 0.2065793
 0.2068272 0.2070709 0.207282 0.207461 0.207631 0.207814 0.2080119 0.2082056 0.2083795 0.2085509
 0.2087591 0.2090144 0.2092842 0.2095399 0.2097876 0.2100396 0.210292 0.2105407 0.2107823 0.2109937
 0.2111453 0.2112505 0.211379 0.2116033 0.2119291 0.2122836 0.2125858 0.2128222 0.2130412 0.2132922
 0.2135914 0.2139047 0.214131 0.2141692 0.2140698 0.2140585 0.2143307 0.2148565 0.2154399 0.2159215
 0.2162767 0.2165626 0.2168265 0.2170581 0.2171999 0.2172109 0.2171465 0.2171702 0.2174377 0.2179423
 0.2185104 0.2189758 0.2193047 0.2195422 0.2197291 0.2198951 0.2200109 0.2199297 0.2195424 0.2190562
 0.2189427 0.2194795 0.2204371 0.2213269 0.2218874 0.222217 0.2224972 0.2227671 0.2229803 0.2230481
 0.2227299 0.2217703 0.2204019 0.219484 0.2197912 0.2212325 0.2230009 0.2243804 0.2251912 0.2256074
 0.2258521 0.2260513 0.2261374 0.2258514 0.2250376 0.2240374 0.2236039 0.2242051 0.2254926 0.2266704
 0.2273078 0.2275678 0.227773 0.2280435 0.2282196 0.2278325 0.2263715 0.2240433 0.2221476 0.2221616
 0.224297 0.2272449 0.2294703 0.2305251 0.2309229 0.2310132 0.2304634 0.2288603 0.2263417 0.2235332
 0.2213428 0.2208357 0.2225307 0.2255183 0.2279767 0.2289714 0.2292468 0.2300103 0.2314924 0.2329649
 0.2336856 0.2334746 0.2325728 0.231218 0.2295318 0.2279156 0.2272875 0.2284265 0.2310263 0.2338037
 0.2356852 0.2366228 0.2370435 0.2365943 0.233877 0.2281277 0.2213328 0.2176869 0.2198865 0.2263098
 0.2327633 0.2366119 0.2382258 0.2390023 0.2394827 0.2392088 0.2370018 0.2316103 0.2236938 0.2170656
 0.2161166 0.2214732 0.229283 0.2348049 0.2356307 0.2319387 0.2256524 0.2198696 0.2175911 0.2199018
 0.2255025 0.2319929 0.2373074 0.2402826 0.240646 0.2389061 0.2363192 0.2345876 0.2346243 0.2352056
 0.2339047 0.2301588 0.2262052 0.223798 0.2214967 0.2173319 0.2131274 0.213299 0.2191135 0.2265665
 0.2308798 0.2313428 0.2304534 0.2293683 0.2259321 0.217787 0.2068436 0.1993761 0.2005408 0.2090226
 0.218206 0.2226524 0.2224203 0.2211279 0.221122 0.2210824 0.2178783 0.2106553 0.2029337 0.1996686
 0.2019896 0.2061921 0.2081284 0.2065161 0.2015079 0.1933762 0.1848946 0.1822023 0.1896409 0.2044564
 0.2189444 0.2267928 0.2254125 0.2145825 0.1973385 0.1818184 0.1773111 0.1859429 0.2000923 0.2093946
 0.2089697 0.2003115 0.186866 0.1716648 0.1587249 0.1535114 0.1596826 0.17537 0.1931591 0.2037596
 0.2011589 0.1873273 0.1726646 0.1685246 0.1768601 0.1888393 0.1947135 0.1926587 0.1874254 0.1842491
 0.1858263 0.1917803 0.1990555 0.2048062 0.2086711 0.2095459 0.2025198 0.1847749 0.1634079 0.1507517
 0.1515737 0.1606511 0.1726155 0.1867703 0.2006457 0.2067008 0.2008122 0.1900625 0.1867024 0.1951483
 0.2082027 0.215857 0.2152003 0.2109533 0.2081915 0.206953 0.2047482 0.2023805 0.2041565 0.2119304
 0.2218473 0.228643 0.2311212 0.2316675 0.2322136 0.2327713 0.232801 0.232101 0.230734 0.2291649
 0.2281211 0.2277805 0.2276052 0.2271582 0.2260942 0.2229308 0.2153656 0.2035107 0.1919435 0.1860771
 0.186424 0.1889797 0.1911817 0.1934018 0.1933875 0.1846973 0.1652 0.1440551 0.1350482 0.1432731
 0.1613427 0.1778243 0.1860005 0.1844465 0.1736247 0.1561103 0.139327 0.1332035 0.142068 0.1605051
 0.1791585 0.1927905 0.2008397 0.2029428 0.197988 0.1873267 0.176018 0.169917 0.172126 0.1816576
 0.1937527 0.2010751 0.1973068 0.1834453 0.1705636 0.1716163 0.1878411 0.2066873 0.2159251 0.2160195
 0.2151267 0.2164107 0.2164996 0.2144257 0.2151826 0.2229018 0.2347906 0.2438887 0.2451801 0.2375739
 0.2232507 0.2081547 0.2004389 0.2038924 0.2135606 0.2210691 0.2226889 0.218858 0.2092619 0.1948747
 0.1831404 0.1834974 0.1964494 0.2123533 0.2223738 0.2265282 0.2296512 0.2330717 0.2329916 0.226222
 0.2154964 0.2077837 0.2074043 0.2122622 0.2174148 0.2202868 0.2207119 0.21799 0.2113197 0.2031483
 0.199201 0.2035093 0.2142133 0.2252661 0.2318137 0.2332263 0.2316965 0.229388 0.2269722 0.2237945
 0.2193283 0.2150602 0.214195 0.2182369 0.2246043 0.2292868 0.2314319 0.2336245 0.2378197 0.2426493
 0.2450893 0.2437655 0.2402639 0.2377452 0.2384045 0.2417318 0.2448946 0.2451505 0.2424516 0.2397363
 0.240226 0.2443533 0.2497054 0.2537752 0.2560069 0.2572637 0.258344 0.259276 0.2592937 0.2574168
 0.2538401 0.2507285 0.2506809 0.2541606 0.2590619 0.2628881 0.2647657 0.2652945 0.2651699 0.2644565
 0.2629984 0.2610853 0.2594705 0.2587794 0.2590607 0.2599293 0.2609617 0.2618841 0.2625674 0.2630153
 0.2633155 0.2635315 0.2636745 0.263771 0.2638579 0.2638965 0.263809 0.263643 0.2635965 0.2638037
 0.2641636 0.2644496 0.2645177 0.2643187 0.26378 0.2628243 0.2615108 0.2600228 0.2584664 0.256799
 0.2550666 0.2536674 0.2532305 0.2541381 0.2561699 0.2586378 0.2608518 0.2624588 0.2634426 0.2639475
 0.2641485 0.264197 0.2641855 0.2641323 0.2640128 0.2638087 0.2635272 0.2631876 0.2628091 0.2624144
 0.2620367 0.2617054 0.2614208 0.2611455 0.2608272 0.2604317 0.2599614 0.259448 0.2589185 0.2583594
 0.2577182 0.256948 0.2560498 0.2550742 0.2540963 0.2531833 0.2523611 0.2515982 0.2508384 0.2500445
 0.2491876 0.2482158 0.2470945 0.2458965 0.2447909 0.2439044 0.2432143 0.242597 0.2419415 0.241193
 0.2403337 0.2393743 0.2383527 0.2373048 0.2362355 0.2351259 0.2339555 0.232707 0.2313658 0.229927
 0.2283982 0.2267957 0.2251465 0.2234829 0.2218096 0.2200631 0.2181091 0.2157885 0.2129752 0.2096056
 0.2056808 0.2012648 0.1964925 0.1915589 0.1866702 0.1819933 0.1776493 0.17374 0.1703618 0.1675943
 0.1654871 0.1640614 0.1633266 0.1632961 0.1639786 0.1653481 0.1673265 0.1697919 0.172595 0.1755697
 0.1785431 0.1813601 0.1839301 0.1862688 0.1884721 0.1906128 0.1926647 0.1945436 0.1962003 0.1976406
 0.1988757 0.1999034 0.2007379 0.2014239 0.2020077 0.2025103 0.2029372 0.2033008 0.2036191 0.2038967
 0.2041235 0.2042994 0.2044492 0.204608 0.2047997 0.2050318 0.2053023 0.2056122 0.2059742 0.2064031
 0.2068959 0.2074351 0.2080107 0.2086224 0.2092614 0.2099155 0.2106023 0.2113811 0.2123188 0.2134435
 0.2147269 0.2161039 0.2175009 0.2188433 0.2200504 0.2210477 0.2217914 0.2222801 0.2225423 0.2226184
 0.222546 0.222351 0.2220509 0.2216655 0.2212136 0.2207033 0.2201362 0.2195205 0.2188682 0.2181833
 0.2174644 0.2167234 0.2159886 0.2152862 0.2146222 0.2139871 0.2133722 0.2127739 0.2121851 0.211594
 0.2109949 0.2103937 0.2098016 0.2092264 0.2086644 0.2080914 0.2074629 0.2067347 0.2058935 0.2049606
 0.2039597 0.2028851 0.2017102 0.2004238 0.1990405 0.1975791 0.1960465 0.194446 0.1927835 0.1910577
 0.1892523 0.1873486 0.1853535 0.1833189 0.1813309 0.1794695 0.1777684 0.1762067 0.1747387 0.173334
 0.1719894 0.1707062 0.1694717 0.1682768 0.1671353 0.1660668 0.1650704 0.1641324 0.1632519 0.1624433
 0.1617195 0.1610839 0.1605334 0.1600648 0.1596764 0.1593619 0.1591139 0.1589411 0.1588658 0.1588859
 0.1589477 0.1589756 0.1589263 0.1588116 0.1586784 0.1585651 0.1584768 0.158402 0.1583366 0.1582666
 0.158134 0.1578439 0.1573009 0.1564349 0.1552196 0.1536885 0.1519261 0.1500472 0.1481889 0.1464892
 0.1450452 0.1438967 0.1430407 0.1424267 0.1419568 0.1415438 0.1411817 0.1409454 0.1409215 0.1411179
 0.141411 0.1416169 0.1416592 0.1416489 0.1417783 0.1421669 0.1428068 0.1435856 0.1443497 0.144991
 0.1454844 0.1458462 0.1460948 0.14625 0.1463216 0.1462983 0.1461795 0.1459915 0.1457498 0.1454479
 0.1450868 0.1446685 0.1441745 0.1435914 0.1429271 0.1421844 0.1413608 0.1404655 0.1394799 0.1383539
 0.1371237 0.1359985 0.1352615 0.1350976 0.1355032 0.1363015 0.1372704 0.1382927 0.1393108 0.1401351
 0.1405083 0.1404982 0.1406817 0.1417275 0.1437658 0.1462443 0.1484115 0.1498606 0.1505859 0.1506952
 0.1502561 0.1493272 0.1479231 0.1459891 0.1435334 0.1406964 0.1376299 0.1344659 0.1314124 0.1286911
 0.1263985 0.1245381 0.1230956 0.122108 0.1217142 0.1215448 0.1196786 0.1136577 0.1042902 0.09731321
 0.09853967 0.1073121 0.1169869 0.1219528 0.1220839 0.1203879 0.1189159 0.1179551 0.1174005 0.117422
 0.1181565 0.1194354 0.1208489 0.1219992 0.1227295 0.1230807 0.1230191 0.1221959 0.1198693 0.1151596
 0.1077613 0.09855849 0.08932392 0.08167692 0.07633951 0.07316621 0.07153323 0.07070634 0.07017605 0.06988003
 0.07010975 0.07116109 0.07308249 0.0757312 0.07892714 0.08241706 0.0857809 0.08860524 0.09078999 0.09253109
 0.09397855 0.09505089 0.0956004 0.09561964 0.09523897 0.09461546 0.09387229 0.09307605 0.09219997 0.09114645
 0.08990568 0.08869453 0.08782908 0.0874293 0.08734088 0.08735086 0.0873643 0.08736756 0.08735049 0.08730333
 0.08722979 0.08716596 0.08720533 0.08744659 0.08788063 0.08836871 0.08874698 0.08894365 0.08900659 0.0889919
 0.08880635 0.08828034 0.08748151 0.08676024 0.08628827 0.08574277 0.08473011 0.08340631 0.08238686 0.08207412
 0.08229961 0.0826086 0.08268511 0.08248588 0.08218448 0.08209451 0.08247107 0.08320485 0.08380267 0.08383636
</values></Ydata></ScRf><Data_Parameters_AB><parameter name="DPF">1</parameter><parameter name="NPT">3497</parameter><parameter name="FXV">3996</parameter><parameter name="LXV">500</parameter><parameter name="CSF">1</parameter><parameter name="MXY">0.246905818581581</parameter><parameter name="MNY">-0.0763566419482231</parameter><parameter name="DAT">02/06/2022</parameter><parameter name="TIM">13:37:04.648 (GMT+2)</parameter><parameter name="DXU">WN</parameter></Data_Parameters_AB><AB__Qtest><MainReport name="Quality Test Report"><Header><Line><Legend>Test result ok/not ok [1/0]: </Legend><Value>0</Value></Line><Line><Legend>Method file: </Legend><Value>C:\Users\Public\Documents\Bruker\OPUS_8.2.28\QT\IRBT_v3_default.QT</Value></Line></Header><Matrix><Line><Legend></Legend><Legend>min</Legend><Legend>max</Legend><Legend>measured</Legend></Line><Line><Value>Absorption (X-Range 1):</Value><Value>0.400000</Value><Value>2.000000</Value><Value>0.227248</Value></Line><Line><Value>Noise (X-Range 4):</Value><Value></Value><Value>0.000300</Value><Value>0.000068</Value></Line><Line><Value>Signal/Noise (X-Range 2):</Value><Value>200.000000</Value><Value></Value><Value>93.037184</Value></Line><Line><Value>Signal/Noise (X-Range 3):</Value><Value>40.000000</Value><Value></Value><Value>36.180507</Value></Line><Line><Value>Water vapour (X-Range 5):</Value><Value></Value><Value>0.000300</Value><Value>0.000105</Value></Line><Line><Value>Signal/Water (X-Range 2):</Value><Value>100.000000</Value><Value></Value><Value>60.187586</Value></Line><Line><Value>Signal/Water (X-Range 3):</Value><Value>20.000000</Value><Value></Value><Value>23.405883</Value></Line><Line><Value>Fringes (X-Range 6):</Value><Value></Value><Value>0.000100</Value><Value>0.000065</Value></Line></Matrix></MainReport></AB__Qtest><Data_Parameters_ScSm><parameter name="DPF">1</parameter><parameter name="NPT">1814</parameter><parameter name="FXV">3996.33169228125</parameter><parameter name="LXV">499.541461535156</parameter><parameter name="CSF">1</parameter><parameter name="MXY">0.274485468864441</parameter><parameter name="MNY">0.0309443734586239</parameter><parameter name="DAT">02/06/2022</parameter><parameter name="TIM">13:37:04.648 (GMT+2)</parameter><parameter name="DXU">WN</parameter></Data_Parameters_ScSm><Data_Parameters_ScRf><parameter name="DPF">1</parameter><parameter name="NPT">1820</parameter><parameter name="FXV">4004.04661832813</parameter><parameter name="LXV">495.683998511719</parameter><parameter name="CSF">1</parameter><parameter name="MXY">0.265294462442398</parameter><parameter name="MNY">0.0293108094483614</parameter><parameter name="DAT">02/06/2022</parameter><parameter name="TIM">13:36:38.796 (GMT+2)</parameter><parameter name="DXU">WN</parameter></Data_Parameters_ScRf><Optic_Parameters_Rf><parameter name="APR">0</parameter><parameter name="APT">Open</parameter><parameter name="BMS">KBr</parameter><parameter name="DTC">RT-DLaTGS_IR-Biotyper [Microplate reader]</parameter><parameter name="HPF">0</parameter><parameter name="LPF">10.0</parameter><parameter name="LPV">4000</parameter><parameter name="PGR">0</parameter><parameter name="RCH">Module port</parameter><parameter name="RDX">0</parameter><parameter name="SRC">MIR</parameter><parameter name="VEL">10.0</parameter><parameter name="SON">Off</parameter></Optic_Parameters_Rf><Acquisition_Parameters_Rf><parameter name="ADT">1</parameter><parameter name="AQM">DD</parameter><parameter name="CFE">0</parameter><parameter name="COR">0</parameter><parameter name="DEL">0</parameter><parameter name="DLY">0</parameter><parameter name="HFW">8000</parameter><parameter name="LFW">0</parameter><parameter name="NSR">32</parameter><parameter name="PLF">AB</parameter><parameter name="RES">6</parameter><parameter name="RGN">-1</parameter><parameter name="STR">0</parameter><parameter name="TCL">MakeCompatibleScalar (0, {WSV=1.000000, ARV=0});</parameter><parameter name="TDL">37</parameter><parameter name="RPO">0</parameter></Acquisition_Parameters_Rf><FT_-_Parameters_Rf><parameter name="APF">B3</parameter><parameter name="HFQ">500</parameter><parameter name="LFQ">4000</parameter><parameter name="NLI">0</parameter><parameter name="PHR">24</parameter><parameter name="PHZ">ML</parameter><parameter name="SPZ">NO</parameter><parameter name="ZFF">1</parameter></FT_-_Parameters_Rf><Optic_Parameters_><parameter name="APR">0</parameter><parameter name="APT">Open</parameter><parameter name="BMS">KBr</parameter><parameter name="CHN">Module port</parameter><parameter name="DTC">RT-DLaTGS_IR-Biotyper [Microplate reader]</parameter><parameter name="HPF">0</parameter><parameter name="LPF">10.0</parameter><parameter name="LPV">4000</parameter><parameter name="PGN">0</parameter><parameter name="RDX">0</parameter><parameter name="SRC">MIR</parameter><parameter name="VEL">10.0</parameter><parameter name="SON">Off</parameter></Optic_Parameters_><FT_-_Parameters_><parameter name="APF">B3</parameter><parameter name="HFQ">500</parameter><parameter name="LFQ">4000</parameter><parameter name="NLI">0</parameter><parameter name="PHR">24</parameter><parameter name="PHZ">ML</parameter><parameter name="SPZ">NO</parameter><parameter name="ZFF">1</parameter></FT_-_Parameters_><Acquisition_Parameters_><parameter name="ADT">1</parameter><parameter name="AQM">DD</parameter><parameter name="CFE">0</parameter><parameter name="COR">0</parameter><parameter name="DEL">0</parameter><parameter name="DLY">0</parameter><parameter name="HFW">8000</parameter><parameter name="LFW">0</parameter><parameter name="NSS">32</parameter><parameter name="PLF">AB</parameter><parameter name="RES">6</parameter><parameter name="SOT">0</parameter><parameter name="TCL">MakeCompatibleScalar (0, {WSV=1.000000, ARV=0});</parameter><parameter name="TDL">37</parameter><parameter name="SPO">0</parameter><parameter name="SGN">-1</parameter></Acquisition_Parameters_><Instrument_Parameters_Rf><parameter name="HFL">15800.168544</parameter><parameter name="LFL">0</parameter><parameter name="LWN">15800.168544</parameter><parameter name="ABP">32197</parameter><parameter name="SSP">1</parameter><parameter name="ARG">2</parameter><parameter name="ASG">2</parameter><parameter name="ASS">32</parameter><parameter name="GFW">16</parameter><parameter name="GBW">16</parameter><parameter name="BFW">0</parameter><parameter name="BBW">0</parameter><parameter name="PKA">7270</parameter><parameter name="PKL">4996</parameter><parameter name="PRA">7457</parameter><parameter name="PRL">5001</parameter><parameter name="P2A">1</parameter><parameter name="P2L">1</parameter><parameter name="P2R">1</parameter><parameter name="P2K">1</parameter><parameter name="DAQ">0</parameter><parameter name="AG2">1</parameter><parameter name="SSM">1</parameter><parameter name="RSN">26231</parameter><parameter name="CRR">0</parameter><parameter name="SRT">1654176998.796</parameter><parameter name="DUR">19.6389923095703</parameter><parameter name="TSC">29.2</parameter><parameter name="MVD">0.197942927479744</parameter><parameter name="AN1">0.225807770308338</parameter><parameter name="AN2">0</parameter><parameter name="VSN">2.485 Apr  4 2017</parameter><parameter name="SRN">0085</parameter><parameter name="CAM">0</parameter><parameter name="INS">IR-Biotyper</parameter><parameter name="FOC">69</parameter><parameter name="RDY">1</parameter><parameter name="ARS">32</parameter></Instrument_Parameters_Rf><Sample_Parameters_><parameter name="BLD"></parameter><parameter name="CNM">Admin</parameter><parameter name="CPY"></parameter><parameter name="DPM"></parameter><parameter name="EXP">IRBT_v3_32Scans.XPM</parameter><parameter name="LCT"></parameter><parameter name="SFM">Microplate, HTS-XT</parameter><parameter name="SNM">220602-1248_SMP48F (D_3)_A6_cdc51eb3-5c77-4706-b215-e0b0528f0e65.0</parameter><parameter name="XPP">C:\Users\Public\Documents\Bruker\OPUS_8.2.28\XPM</parameter><parameter name="IST">OK</parameter><parameter name="CPG">1252</parameter><parameter name="UID">4deb2eb9-8469-4c6d-9ed9-81ebdb6304c6</parameter></Sample_Parameters_><Instrument_Parameters_><parameter name="HFL">15800.168544</parameter><parameter name="LFL">0</parameter><parameter name="LWN">15800.168544</parameter><parameter name="ABP">32197</parameter><parameter name="SSP">1</parameter><parameter name="ASG">2</parameter><parameter name="ARG">2</parameter><parameter name="ASS">32</parameter><parameter name="GFW">16</parameter><parameter name="GBW">16</parameter><parameter name="BFW">0</parameter><parameter name="BBW">0</parameter><parameter name="PKA">7036</parameter><parameter name="PKL">4988</parameter><parameter name="PRA">7300</parameter><parameter name="PRL">4993</parameter><parameter name="P2A">1</parameter><parameter name="P2L">1</parameter><parameter name="P2R">1</parameter><parameter name="P2K">1</parameter><parameter name="DAQ">0</parameter><parameter name="AG2">1</parameter><parameter name="SSM">1</parameter><parameter name="RSN">13741</parameter><parameter name="CRR">0</parameter><parameter name="SRT">1654177024.649</parameter><parameter name="DUR">19.6389923095703</parameter><parameter name="TSC">29.2</parameter><parameter name="MVD">0.301581740379333</parameter><parameter name="AN1">0.225829884291397</parameter><parameter name="AN2">0</parameter><parameter name="VSN">2.485 Apr  4 2017</parameter><parameter name="SRN">0085</parameter><parameter name="CAM">0</parameter><parameter name="INS">IR-Biotyper</parameter><parameter name="FOC">69</parameter><parameter name="RDY">1</parameter></Instrument_Parameters_><History/></OPUSDataFile>
