<?xml version="1.0" encoding="UTF-8" ?>
<OPUSDataFile><AB><Ydata ylabel="Absorbance Units"><values byteorder="INTEL" format="FLOAT32" numvalues="3497"> 0.009901958 0.00991148 0.009923483 0.009937661 0.009958872 0.009987355 0.01002269 0.01006422 0.01010374 0.01014027
 0.01016339 0.01017412 0.01016956 0.01015318 0.01013198 0.01010744 0.01008644 0.01006518 0.01004222 0.01001363
 0.009974048 0.009927615 0.009873645 0.009821526 0.009775161 0.009737714 0.009711723 0.009691879 0.00967782 0.009664341
 0.009650738 0.00963651 0.009621598 0.009605918 0.009589427 0.009571146 0.009551524 0.009532489 0.009514963 0.009503829
 0.009498327 0.009500184 0.009505592 0.009509538 0.009508016 0.0094933 0.009467205 0.009425842 0.009381194 0.009336875
 0.009308343 0.009303754 0.009324791 0.009377056 0.009438036 0.009506443 0.009552904 0.009573606 0.00956138 0.009515614
 0.009454608 0.009379544 0.009311164 0.009248525 0.009196208 0.009152741 0.009114461 0.009082617 0.009059247 0.009043687
 0.009037733 0.009034921 0.009027908 0.009013968 0.008984574 0.008952736 0.008921549 0.008907625 0.008921385 0.008956639
 0.009017742 0.009074767 0.009123921 0.009140573 0.009120987 0.00906312 0.008966611 0.00884715 0.008706558 0.008572043
 0.008446834 0.008365482 0.008327856 0.00835675 0.008439356 0.008559138 0.008697847 0.00881516 0.008907564 0.008951665
 0.008961068 0.008936377 0.008898674 0.008860135 0.008832578 0.00882639 0.008831812 0.008849797 0.008862439 0.008865697
 0.008857353 0.00883591 0.008814281 0.008793172 0.008777703 0.008766787 0.008745141 0.008711372 0.008646818 0.008555862
 0.008441267 0.008315535 0.008209861 0.008134553 0.008127292 0.008174288 0.008279801 0.008412207 0.008544193 0.008665152
 0.008759068 0.008834696 0.008896411 0.008932085 0.008943758 0.008896834 0.008783876 0.008594267 0.008321011 0.008027023
 0.007714876 0.007531862 0.007479299 0.00761157 0.007902832 0.008205954 0.008513313 0.008714847 0.00882927 0.008849371
 0.008790317 0.008671447 0.008510357 0.008329105 0.008157676 0.008027148 0.007957398 0.007978729 0.008057666 0.008195808
 0.008330237 0.008441113 0.008508758 0.00852268 0.008509451 0.008470478 0.008430466 0.008391093 0.008356214 0.008325928
 0.008301218 0.008283385 0.008282766 0.008298603 0.008335614 0.008387665 0.008441792 0.008493198 0.008526913 0.008543373
 0.008537487 0.008510206 0.008459572 0.008390354 0.008302064 0.008208308 0.008112916 0.008030986 0.007968259 0.007927654
 0.007911361 0.007912816 0.00793116 0.007966954 0.008020178 0.008093248 0.008185456 0.008285242 0.008391474 0.008490453
 0.008582999 0.008665654 0.008738465 0.008800589 0.008849833 0.008881404 0.008895316 0.008888098 0.008865249 0.008828686
 0.00878771 0.00874742 0.008716539 0.008700592 0.008700302 0.0087197 0.00874259 0.00876846 0.008772057 0.008749861
 0.008694141 0.008603857 0.00849892 0.008381158 0.008283732 0.00820696 0.008171437 0.008171521 0.00819701 0.008240796
 0.008277635 0.008308707 0.008323196 0.008328277 0.008330889 0.008329323 0.008329148 0.008312289 0.008269654 0.008188815
 0.008056354 0.007894159 0.007699619 0.007523427 0.007374458 0.00728458 0.007260234 0.007293217 0.007383409 0.007523938
 0.00771353 0.007934073 0.008178254 0.008384133 0.00854936 0.008626092 0.008629019 0.008568309 0.008466679 0.008371158
 0.008290455 0.008262252 0.008262387 0.008283394 0.008302633 0.008298879 0.008280884 0.00824473 0.008211555 0.008186721
 0.008183199 0.008205983 0.008248711 0.008312718 0.008373929 0.008431033 0.008458416 0.008455512 0.008411153 0.00832826
 0.008218498 0.008090869 0.007986849 0.007914776 0.007925532 0.008002427 0.008144247 0.008319344 0.008481459 0.008627959
 0.008735632 0.008826365 0.008907862 0.008993649 0.009095864 0.009200403 0.009308173 0.009393244 0.009449218 0.009471489
 0.009456238 0.009432714 0.009401982 0.009416545 0.009477609 0.009610797 0.009806721 0.01000957 0.01020956 0.01033083
 0.01038434 0.01035848 0.01027219 0.01015314 0.01001808 0.009896461 0.009805812 0.009772675 0.009801603 0.009909829
 0.01006963 0.01027451 0.0104989 0.01073013 0.01097716 0.01124111 0.01152186 0.01182196 0.01211067 0.01238605
 0.01262815 0.0128371 0.01301881 0.0131741 0.01331183 0.01343096 0.01353165 0.01361265 0.01367014 0.0137048
 0.0137125 0.01370417 0.01368319 0.01368529 0.01373975 0.01388252 0.01416312 0.01452801 0.01498061 0.01541359
 0.01578639 0.01608672 0.01629845 0.0164796 0.0166355 0.01680553 0.0169936 0.0171896 0.01739188 0.01756279
 0.017703 0.01779536 0.01785172 0.01790885 0.01798566 0.01816166 0.01842509 0.0188071 0.01924724 0.01967469
 0.02005985 0.02033932 0.02054374 0.02067016 0.02076236 0.02083901 0.02092506 0.02103371 0.02116382 0.02131701
 0.02148996 0.02168093 0.02190505 0.02216309 0.02247387 0.02283697 0.02324048 0.023679 0.02410468 0.0245145
 0.02486768 0.0251707 0.02541867 0.02562303 0.02580171 0.02596604 0.02613871 0.02632417 0.02653808 0.02676829
 0.02701384 0.02725624 0.02748208 0.02770206 0.02791057 0.02815071 0.02843231 0.02877003 0.02917292 0.02957833
 0.02998313 0.03031616 0.0305766 0.0307671 0.03089376 0.03100621 0.03110714 0.03123613 0.03138769 0.03156824
 0.03176838 0.03197204 0.03217618 0.03236638 0.03255403 0.03274101 0.03294862 0.03319319 0.03347993 0.03382219
 0.03418923 0.03457714 0.03494953 0.03529667 0.03560989 0.03588548 0.03613682 0.03636435 0.03658708 0.03680582
 0.03703338 0.03726959 0.03751865 0.0377809 0.03806021 0.03835725 0.03867827 0.03901821 0.03937327 0.03973098
 0.04007265 0.04039101 0.04066942 0.04091629 0.04113073 0.04132616 0.04150951 0.04168424 0.0418538 0.04201334
 0.0421618 0.04229906 0.04242372 0.04254914 0.04267577 0.04282599 0.04300066 0.04321432 0.04346503 0.04374431
 0.04404782 0.04435112 0.04465293 0.04493557 0.04520354 0.04545715 0.04570134 0.04594482 0.04618506 0.04642451
 0.04665445 0.04686873 0.04706578 0.04723943 0.0474066 0.0475691 0.04775025 0.04795681 0.04819174 0.04845838
 0.048734 0.04901749 0.04928241 0.04952797 0.04974573 0.04993732 0.05011245 0.0502732 0.0504344 0.05059627
 0.05076734 0.0509461 0.05113384 0.05132835 0.05152749 0.05172854 0.05192827 0.05212477 0.05231484 0.05250137
 0.05268344 0.05286977 0.05306333 0.05326776 0.05348564 0.05370931 0.05393837 0.05416379 0.05438457 0.05460215
 0.0548167 0.0550346 0.05525542 0.0554788 0.05570277 0.05591819 0.05612321 0.05630654 0.05647035 0.05661145
 0.05673815 0.05685995 0.05698502 0.0571268 0.05728247 0.05745583 0.05763685 0.05782088 0.05800501 0.05818648
 0.05836925 0.05855461 0.05873973 0.05892511 0.05910096 0.0592665 0.05941658 0.05955121 0.05967404 0.05978657
 0.05990244 0.06002495 0.06017772 0.06036104 0.06059208 0.06085958 0.06115262 0.06145195 0.06172479 0.06196225
 0.06213968 0.06226859 0.06234622 0.06239511 0.06242385 0.06245194 0.06248729 0.0625404 0.06261548 0.06271303
 0.06283454 0.06297015 0.06311943 0.06326916 0.06341881 0.06356163 0.06369834 0.06383273 0.06396582 0.06410509
 0.06424963 0.06440151 0.06455727 0.0647109 0.06485948 0.06499492 0.06512008 0.06523305 0.06534275 0.06545501
 0.06557467 0.06570836 0.06584587 0.06598709 0.06611463 0.06622322 0.06631173 0.06637742 0.06644078 0.06650325
 0.06657945 0.06666943 0.06675747 0.06684136 0.06689236 0.06691284 0.06689696 0.06685335 0.06680516 0.06675928
 0.06674287 0.06675353 0.06680135 0.0668762 0.06697194 0.06707967 0.06718958 0.06730337 0.06741762 0.06754264
 0.06768227 0.06783814 0.06801438 0.06819092 0.06836687 0.06851473 0.06863165 0.06871118 0.06875344 0.06877721
 0.06878349 0.06879046 0.0687956 0.06879536 0.06878792 0.06876247 0.06872642 0.06868818 0.06865951 0.06866491
 0.06870035 0.06877685 0.06886871 0.06896173 0.06903625 0.0690733 0.06908763 0.06907582 0.06907316 0.06908794
 0.06913687 0.06922629 0.06933727 0.06946989 0.06958636 0.0696848 0.06973341 0.06973297 0.06967647 0.06957004
 0.06943863 0.06929135 0.0691708 0.06907945 0.06904677 0.06906118 0.06912172 0.06920774 0.06929822 0.06937811
 0.06942727 0.0694501 0.06943937 0.06941882 0.06939317 0.06938718 0.06940836 0.06946349 0.06955559 0.06967646
 0.06982565 0.06999753 0.07019181 0.07040627 0.07063902 0.0708719 0.07109935 0.07128275 0.07141948 0.07147687
 0.07146495 0.07138411 0.07125773 0.07111826 0.07098908 0.07090935 0.07088162 0.07092732 0.07101581 0.07114397
 0.07126202 0.07135282 0.07138389 0.07134024 0.07123489 0.07106362 0.07087696 0.07067819 0.07051606 0.07039274
 0.07032257 0.07030331 0.07031693 0.0703608 0.07041102 0.07046913 0.07052702 0.07058869 0.07066064 0.07074115
 0.07083482 0.07092676 0.07100656 0.0710522 0.07104322 0.0709715 0.07082219 0.0706163 0.07035257 0.07007286
 0.06978449 0.06952662 0.06930646 0.06914274 0.06903888 0.06898472 0.06897951 0.06898537 0.06899986 0.06898148
 0.06893344 0.06884827 0.06873645 0.06862979 0.06853205 0.06847238 0.0684358 0.06841455 0.06838831 0.0683287
 0.06823567 0.0680936 0.06793027 0.06775136 0.06759459 0.06747507 0.06741153 0.06741621 0.0674657 0.067563
 0.06764662 0.06771202 0.06770387 0.06761961 0.06745756 0.06722228 0.06696365 0.06668665 0.06644561 0.06623778
 0.06608469 0.06597643 0.06590258 0.0658527 0.06580555 0.06575723 0.06569354 0.06562087 0.06553867 0.06545592
 0.06537855 0.0653063 0.06524175 0.06517662 0.06510891 0.06503591 0.06495633 0.06487452 0.06479089 0.06470665
 0.06462183 0.06453176 0.06443651 0.06433505 0.06422869 0.06412425 0.06402272 0.06393204 0.06385014 0.06377721
 0.06370864 0.06363709 0.06356024 0.0634717 0.06337447 0.06326851 0.06315751 0.06304458 0.06292723 0.0628057
 0.06267539 0.06253392 0.06238639 0.06223205 0.06208551 0.06194824 0.06182782 0.06172462 0.06162865 0.06153876
 0.0614376 0.06132571 0.0611962 0.06105286 0.06090435 0.06075493 0.06061898 0.06049747 0.06039995 0.06032067
 0.06025893 0.06020344 0.06014473 0.06007795 0.05999384 0.05990807 0.05982178 0.05975903 0.05972938 0.05972723
 0.05975774 0.05977381 0.0597721 0.05970865 0.05958116 0.05939505 0.05915388 0.05890305 0.05864588 0.05842533
 0.0582394 0.05810606 0.05801682 0.05796447 0.0579334 0.05789647 0.05784095 0.05773725 0.05759587 0.05740911
 0.05720983 0.05701413 0.05684116 0.05670693 0.05659365 0.05650098 0.0564061 0.05630209 0.0562018 0.05610415
 0.05604766 0.05603436 0.05608061 0.05618344 0.05631123 0.0564568 0.05656173 0.05662389 0.05660094 0.05650395
 0.05633375 0.05611095 0.05586945 0.05562192 0.05539896 0.05519452 0.05501423 0.05484824 0.05468936 0.05454414
 0.05441261 0.05430479 0.05422686 0.05416352 0.05411547 0.05405089 0.05396561 0.05385529 0.0537195 0.05359421
 0.05348116 0.05341442 0.05339019 0.05340442 0.05345006 0.05349902 0.05354979 0.05358394 0.05360545 0.05361347
 0.05360952 0.05359713 0.05357049 0.053528 0.05345904 0.05335731 0.05321671 0.05303018 0.05281054 0.05255518
 0.05230028 0.05204976 0.05184126 0.05168029 0.05157018 0.05151147 0.05146497 0.05142805 0.05135419 0.05124569
 0.05109019 0.05089702 0.05069236 0.05048474 0.0503093 0.05016482 0.05006776 0.05000613 0.0499745 0.04995673
 0.04993823 0.04990923 0.04985795 0.04979051 0.04970348 0.04961744 0.04953653 0.04947774 0.04944694 0.04943455
 0.04944209 0.04943317 0.04940579 0.04933005 0.04920721 0.04904786 0.04885768 0.04867854 0.0485109 0.04838195
 0.04828113 0.04819631 0.04811873 0.048024 0.04792026 0.04780447 0.04769462 0.04760579 0.0475446 0.04752145
 0.04752745 0.04756171 0.04761576 0.04768664 0.0477732 0.04787543 0.04798932 0.04811546 0.04823766 0.04835511
 0.04844159 0.04849581 0.04849365 0.0484366 0.04831931 0.04814869 0.04794546 0.04771917 0.04750362 0.0473037
 0.04714404 0.04702167 0.0469442 0.04690257 0.04689353 0.04690477 0.04692975 0.04695651 0.04697908 0.04699082
 0.04698859 0.04697138 0.04693812 0.0468921 0.04683268 0.0467732 0.04671424 0.04668488 0.04668675 0.04675025
 0.04687332 0.04706022 0.04730307 0.04757542 0.04786983 0.04815368 0.04842653 0.04867241 0.04889528 0.04909407
 0.04927141 0.04942873 0.04956907 0.04969227 0.04980874 0.04992073 0.05004309 0.05018145 0.05033789 0.05051623
 0.05069578 0.05087563 0.05102881 0.05115352 0.05124371 0.05130052 0.05134195 0.05136899 0.05139817 0.05142625
 0.05144944 0.05146454 0.05145915 0.05143831 0.0514028 0.05136409 0.051337 0.05132705 0.05134643 0.05138763
 0.05145096 0.05152468 0.05160308 0.05168395 0.05176411 0.05185209 0.05194842 0.05206329 0.05219806 0.05235684
 0.05254011 0.05273917 0.05295247 0.05315467 0.05334308 0.05348593 0.05358489 0.05362665 0.05362058 0.0535829
 0.05352291 0.05346682 0.05341183 0.05336856 0.05332088 0.05326079 0.05316945 0.05303419 0.0528426 0.05258612
 0.05226236 0.05186677 0.0514119 0.05089625 0.05035131 0.04977883 0.04921943 0.04867574 0.04817595 0.0477202
 0.04731164 0.04694851 0.04662033 0.0463268 0.04606208 0.04582552 0.04561491 0.04542389 0.04524152 0.04505963
 0.04486165 0.04464976 0.044417 0.0441778 0.04393824 0.04371032 0.04350127 0.0433129 0.043147 0.04300337
 0.04288161 0.042786 0.04271686 0.04267867 0.04267177 0.04269695 0.04275373 0.04283528 0.04293853 0.04304047
 0.04313572 0.04318922 0.04320108 0.04314983 0.04304793 0.0429053 0.04273932 0.04257625 0.04242472 0.0423023
 0.04220719 0.04214336 0.04210649 0.04209633 0.04210699 0.04213826 0.04217847 0.04222602 0.04226919 0.04230617
 0.04233428 0.04235331 0.04236024 0.04235368 0.0423089 0.042222 0.04205106 0.04179798 0.04144248 0.04100084
 0.04050194 0.03996775 0.03945332 0.03896522 0.03853893 0.0381575 0.03782084 0.03750478 0.03719344 0.03687657
 0.0365437 0.03620264 0.03585211 0.03550708 0.03516984 0.03485223 0.03455622 0.03428489 0.03403876 0.03381115
 0.0336015 0.03339892 0.03320333 0.03300846 0.03281575 0.03262748 0.0324457 0.03227735 0.03212291 0.03198737
 0.03186796 0.03176464 0.03167045 0.03158082 0.03148592 0.03137844 0.03125297 0.03110283 0.03093772 0.0307561
 0.03058201 0.03041951 0.03028645 0.03018705 0.03011223 0.03006209 0.03000926 0.02995295 0.02987957 0.02979172
 0.02970301 0.02961527 0.02954599 0.02948906 0.02943856 0.02938434 0.02930267 0.02919323 0.02904148 0.0288636
 0.02866617 0.0284712 0.02829453 0.02814744 0.02804082 0.02796843 0.02793323 0.02791501 0.02791203 0.027899
 0.02787266 0.02781746 0.02773168 0.02762372 0.0274948 0.02737132 0.02725404 0.02716214 0.02709222 0.02704068
 0.02700291 0.02696381 0.02692277 0.02687096 0.02681135 0.02674414 0.02667233 0.02659811 0.02652535 0.02645595
 0.02639627 0.02634996 0.02631875 0.02630627 0.02630004 0.02629964 0.02628575 0.02625532 0.02620301 0.02612771
 0.02604586 0.02595842 0.02588495 0.02582454 0.02577946 0.02574674 0.02571426 0.02568127 0.02563841 0.02558897
 0.02553414 0.02547885 0.02543022 0.02539105 0.02536788 0.02535672 0.02535954 0.02536309 0.02536333 0.02534608
 0.02530478 0.02523956 0.02514711 0.02504538 0.0249357 0.02483642 0.02474923 0.02467562 0.02461514 0.02455491
 0.02449452 0.02442418 0.02434583 0.02426239 0.0241767 0.02409845 0.02402848 0.0239739 0.02393167 0.02390192
 0.02387804 0.02385459 0.02382503 0.0237825 0.02372778 0.02365764 0.02358209 0.02350292 0.02343018 0.02336698
 0.02331329 0.02327005 0.0232297 0.02319175 0.02315114 0.02310782 0.02306248 0.0230156 0.02297105 0.02292944
 0.02289557 0.02286963 0.02285546 0.02285094 0.02285491 0.02286243 0.02286673 0.02286341 0.02284532 0.02281258
 0.02276206 0.02269895 0.02262387 0.02254461 0.02246367 0.02238587 0.02231334 0.02224341 0.0221764 0.02210535
 0.02202963 0.02194805 0.0218609 0.02177704 0.02169733 0.02163338 0.02158418 0.02155231 0.0215341 0.02152088
 0.02150863 0.02148474 0.021449 0.02139437 0.02132646 0.02124681 0.02116422 0.02108468 0.02101425 0.02095767
 0.02091506 0.02088813 0.02087235 0.02086767 0.02086712 0.02087023 0.02086831 0.02086073 0.02083967 0.02080491
 0.02075426 0.0206886 0.02061399 0.02053183 0.02045214 0.0203748 0.02030536 0.02024139 0.02018069 0.02012118
 0.02005806 0.01999329 0.01992613 0.01986151 0.01980272 0.01975201 0.01971221 0.01967988 0.01965496 0.01963241
 0.01961088 0.01958917 0.01956684 0.01954493 0.01952362 0.01950055 0.01947547 0.01944147 0.0193985 0.0193422
 0.01927446 0.01920099 0.01912496 0.01905921 0.01900426 0.01896876 0.01894803 0.01894009 0.01893825 0.01893503
 0.01892721 0.01890982 0.01888412 0.01884927 0.01880774 0.01876 0.01870842 0.01865314 0.01859847 0.01854487
 0.01849666 0.01845432 0.0184181 0.01838789 0.01835958 0.01833295 0.01830395 0.01827289 0.01823885 0.01820256
 0.01816558 0.01812876 0.01809459 0.01806336 0.01803702 0.01801399 0.01799386 0.01797393 0.01795212 0.01792722
 0.01789763 0.01786513 0.01782973 0.01779413 0.01775899 0.01772548 0.01769408 0.01766296 0.01763212 0.0175977
 0.01755955 0.01751592 0.01746741 0.01741841 0.01737011 0.01733074 0.01730041 0.01728448 0.0172807 0.01728787
 0.01730167 0.01731609 0.01732629 0.01732487 0.01731066 0.01727874 0.01723634 0.0171839 0.01713403 0.01709124
 0.01706171 0.01704895 0.01704637 0.01705418 0.01706023 0.01706349 0.01705709 0.01704078 0.0170152 0.01698078
 0.01694178 0.01689863 0.01685572 0.01681304 0.01677307 0.01673506 0.01669879 0.01666327 0.0166266 0.01658933
 0.01655088 0.01651335 0.01647803 0.01644638 0.01641988 0.01639723 0.01637878 0.01636103 0.01634334 0.01632303
 0.01629935 0.01627344 0.01624515 0.01621916 0.01619572 0.01617958 0.01617049 0.01616832 0.01617183 0.01617492
 0.01617643 0.01616909 0.01615351 0.01612689 0.01609167 0.01604995 0.01600428 0.01595798 0.01591271 0.01587067
 0.01583234 0.01579902 0.01576841 0.01574063 0.01571089 0.01567785 0.01564016 0.01559665 0.01555458 0.01551421
 0.01548622 0.01547097 0.01546903 0.01547917 0.01548892 0.01549725 0.01549144 0.01547356 0.01544297 0.01540315
 0.01536154 0.01531935 0.01528179 0.01524808 0.01521906 0.0151945 0.01517466 0.01515864 0.01514668 0.01513557
 0.01512414 0.01511094 0.01509485 0.01507894 0.01506354 0.01505081 0.01504115 0.01503238 0.01502438 0.01501488
 0.01500391 0.0149913 0.01497666 0.01495779 0.01493444 0.01490386 0.01486798 0.01482929 0.01479042 0.01475722
 0.0147288 0.01470716 0.01468859 0.01467056 0.01465205 0.01463131 0.01461068 0.01459051 0.01457297 0.01455888
 0.01454791 0.01454034 0.01453379 0.01452817 0.01451972 0.01450829 0.01449288 0.01447382 0.01445442 0.01443496
 0.01441891 0.01440567 0.01439502 0.01438654 0.01437897 0.01437279 0.01436852 0.01436561 0.01436432 0.01436207
 0.01435712 0.01434764 0.01433167 0.01431069 0.01428417 0.01425638 0.01422792 0.01420337 0.01418364 0.01417027
 0.01416374 0.01415994 0.01415862 0.01415187 0.01413936 0.01411446 0.01407738 0.01402566 0.01395989 0.01388056
 0.01378838 0.01368527 0.01357114 0.01344736 0.01331179 0.01316363 0.01299813 0.01281208 0.01260066 0.01236015
 0.01208999 0.01178855 0.01145967 0.01110431 0.01072338 0.01031763 0.00988235 0.009416554 0.008925821 0.008410811
 0.00791245 0.007435448 0.00704626 0.006747425 0.006587959 0.006565014 0.00669589 0.006974776 0.007407684 0.007963175
 0.00860875 0.009282352 0.009904148 0.01043826 0.01082759 0.01107909 0.0111792 0.01115128 0.01099602 0.01075142
 0.01041811 0.01007027 0.009714763 0.009439684 0.009255782 0.009182788 0.009221656 0.009325383 0.009490859 0.009669865
 0.009859811 0.01002132 0.01015406 0.01023211 0.01026555 0.01026134 0.01023616 0.01022018 0.0102209 0.01026023
 0.01033224 0.01044055 0.0105744 0.01072987 0.01089683 0.01107138 0.01124539 0.01141644 0.01157917 0.01173243
 0.01187344 0.01200181 0.01211689 0.01221863 0.01230744 0.01238342 0.01244765 0.01250067 0.01254559 0.01258384
 0.01262191 0.012661 0.01270792 0.01276082 0.01282099 0.01288304 0.01294186 0.01299262 0.01302912 0.01305204
 0.01305889 0.01305593 0.0130443 0.01303112 0.01301861 0.01300909 0.01300376 0.0129991 0.01299501 0.01298646
 0.01297318 0.01295445 0.01293065 0.01290658 0.01288276 0.01286524 0.01285323 0.01284795 0.01284672 0.01284403
 0.0128377 0.0128207 0.01279552 0.01276079 0.01272366 0.01268902 0.01266223 0.0126485 0.01264616 0.01265657
 0.01267377 0.01269671 0.01272035 0.0127439 0.01276356 0.01277895 0.01278674 0.01278671 0.01277815 0.01276132
 0.01273922 0.01271206 0.01268269 0.01265086 0.01261688 0.01258138 0.01254529 0.01251105 0.01248313 0.01246298
 0.01245507 0.01245635 0.01246684 0.0124806 0.01249413 0.01250492 0.01251055 0.01251364 0.0125143 0.01251537
 0.01251749 0.01252079 0.01252538 0.01253057 0.01253633 0.01254126 0.01254509 0.01254386 0.01253739 0.01252199
 0.01249901 0.01247073 0.01243951 0.01241237 0.01238993 0.01237688 0.01237133 0.0123732 0.01237987 0.01238951
 0.01239952 0.01240831 0.01241338 0.01241327 0.01240744 0.01239494 0.01237893 0.01235959 0.01234093 0.01232358
 0.0123073 0.01229211 0.01227417 0.01225355 0.01222978 0.01220405 0.01218336 0.01216859 0.01216767 0.01217842
 0.01220046 0.01222918 0.01225656 0.01228028 0.01229375 0.01229889 0.01229493 0.01228458 0.01226951 0.01224994
 0.01222646 0.01219823 0.01216489 0.01212719 0.01208501 0.01204044 0.01199357 0.01194721 0.01190152 0.01185979
 0.01182217 0.01179143 0.01176743 0.01175082 0.01174106 0.01173691 0.01173722 0.01173896 0.01174058 0.01173813
 0.01173089 0.01171571 0.0116949 0.01166842 0.01164111 0.01161562 0.01159521 0.01158259 0.01157514 0.01157351
 0.01157056 0.01156529 0.01155201 0.01152975 0.01149937 0.01146084 0.01142032 0.01137811 0.01133978 0.01130503
 0.01127478 0.01124827 0.01122291 0.01119877 0.01117435 0.01115076 0.01112939 0.01111067 0.01109608 0.01108434
 0.01107487 0.01106664 0.01105854 0.01105143 0.0110454 0.01104103 0.01103893 0.01103676 0.01103426 0.01102937
 0.01102163 0.01101283 0.01100307 0.01099499 0.01098852 0.01098287 0.01097756 0.01096895 0.01095675 0.01093782
 0.01091249 0.01087954 0.01084049 0.01079669 0.01075129 0.01070824 0.01067058 0.01064266 0.01062419 0.01061701
 0.01061695 0.01062327 0.01063083 0.01063827 0.01064176 0.01064032 0.01063284 0.01061889 0.0106005 0.01057771
 0.0105548 0.01053194 0.0105126 0.0104964 0.01048283 0.01047079 0.0104559 0.01043735 0.01041031 0.0103763
 0.01033477 0.01029016 0.01024733 0.01021017 0.01018463 0.01016876 0.0101644 0.01016421 0.01016578 0.0101638
 0.01015566 0.01014284 0.01012497 0.01010577 0.01008577 0.01006498 0.01004343 0.01001962 0.009993677 0.009967708
 0.009942045 0.009920255 0.009901811 0.009886624 0.009873851 0.009860883 0.009848285 0.009835654 0.009824271 0.009816163
 0.009810291 0.009807148 0.009803427 0.009797482 0.009786611 0.009769093 0.00974476 0.009713012 0.009675357 0.009631773
 0.009584812 0.009534583 0.009484708 0.00943538 0.009391525 0.009353387 0.009325675 0.009308052 0.009301116 0.009303295
 0.009308938 0.009316418 0.009318106 0.009314794 0.009303685 0.009288023 0.009271 0.009254144 0.009240996 0.009228191
 0.009215313 0.009197413 0.009171777 0.00913807 0.009094705 0.009047474 0.008996763 0.008949869 0.008907779 0.00887356
 0.008847549 0.008826814 0.008811031 0.008794228 0.008776123 0.008751642 0.008721323 0.00868411 0.008641701 0.008597764
 0.008554048 0.008515746 0.008482642 0.008456984 0.008436725 0.008420663 0.008407854 0.008396835 0.008389351 0.008385711
 0.008387677 0.008396573 0.008409298 0.008426232 0.008439499 0.008448355 0.008446058 0.008432019 0.008407072 0.008371619
 0.008333334 0.008292827 0.008258305 0.008229394 0.008209344 0.008196639 0.008189115 0.008185194 0.008180669 0.008175693
 0.008168141 0.008160508 0.008154031 0.008151373 0.008155292 0.008164273 0.008179511 0.008194323 0.008207419 0.008212285
 0.00820706 0.0081912 0.008163972 0.008131067 0.008092745 0.00805655 0.008022736 0.007995849 0.007975403 0.007960191
 0.007949327 0.007938302 0.007927177 0.007913619 0.007898573 0.007882858 0.007866801 0.007851334 0.007835981 0.007820165
 0.007805034 0.007790661 0.007779645 0.007773555 0.007772011 0.007775954 0.007780717 0.00778559 0.007787107 0.007784458
 0.007779496 0.007772254 0.007766321 0.007761639 0.007756611 0.007750643 0.007738 0.007719255 0.007693023 0.007661821
 0.007631782 0.007604678 0.007587623 0.007578474 0.00757816 0.007581986 0.007585959 0.007587263 0.007582457 0.007572535
 0.007556736 0.00753795 0.007516816 0.007495534 0.00747461 0.007455206 0.007437299 0.007423978 0.007415419 0.007415405
 0.007423873 0.007439098 0.007460012 0.007477338 0.007490771 0.007493302 0.007487075 0.007474525 0.007457267 0.007440502
 0.007422075 0.007400993 0.007376101 0.007343901 0.007310832 0.007278848 0.007256623 0.00724998 0.007256971 0.007280126
 0.007306428 0.00733401 0.007352006 0.007358218 0.007353669 0.007338058 0.007321118 0.007303182 0.007290214 0.007281205
 0.007270962 0.007258308 0.00723414 0.007200866 0.007158899 0.007114721 0.007081457 0.007061791 0.007067556 0.007090276
 0.007127768 0.007168075 0.007201928 0.007226135 0.007235797 0.0072363 0.00722793 0.007217036 0.007205395 0.00719354
 0.007182098 0.007166885 0.007147663 0.007120661 0.007085884 0.007044062 0.006996399 0.006951991 0.006913299 0.006897048
 0.006902401 0.006938859 0.006996679 0.007062608 0.007126321 0.007166235 0.007183814 0.007170632 0.007137666 0.007088361
 0.007035105 0.006983925 0.006942963 0.006916279 0.006905481 0.006912229 0.006931652 0.006963471 0.007002555 0.007048435
 0.007100711 0.00715924 0.007221486 0.007286261 0.00734253 0.007389379 0.007415858 0.007424126 0.007413639 0.007389194
 0.007359576 0.007328743 0.00730608 0.007292177 0.007292057 0.007301143 0.007319096 0.00733797 0.007353856 0.007363024
 0.007362337 0.007356676 0.007345915 0.00733822 0.007334854 0.007338492 0.007349564 0.007364894 0.007384455 0.007408339
 0.007437304 0.0074783 0.007531201 0.007600571 0.007682696 0.007769432 0.007857164 0.007933501 0.008000722 0.008055746
 0.008104572 0.008152271 0.008201613 0.008257587 0.008314986 0.008373653 0.008425149 0.008465853 0.008495279 0.008510232
 0.008527772 0.00854779 0.008602924 0.008695886 0.008842894 0.009043449 0.009269602 0.009519046 0.009758077 0.009990348
 0.01021439 0.01043619 0.01067349 0.01092723 0.01120984 0.01151431 0.01183804 0.01216921 0.01249559 0.01280966
 0.01310027 0.01337372 0.01362732 0.01387936 0.01413646 0.01440365 0.01468707 0.01496084 0.01522277 0.01544901
 0.0156368 0.01579117 0.01591252 0.01601372 0.01609453 0.01615722 0.01620218 0.01623087 0.01624717 0.01626308
 0.0162822 0.01631925 0.01637091 0.01643947 0.01651888 0.01660232 0.01669139 0.01678468 0.01688605 0.01699869
 0.01711805 0.01724469 0.01736771 0.0174832 0.01759439 0.01769786 0.01783091 0.01799575 0.01823334 0.01854389
 0.01889614 0.01928464 0.01964315 0.01997616 0.02026968 0.02053338 0.02078934 0.02104275 0.02131415 0.02160583
 0.02192744 0.02228561 0.02268637 0.02314631 0.02367751 0.02429358 0.02501273 0.02580475 0.02667338 0.02754672
 0.02840991 0.02921768 0.02995932 0.03063716 0.03124938 0.03182599 0.03236928 0.03293568 0.03353046 0.03423249
 0.03503342 0.03594757 0.03693713 0.03788481 0.03878554 0.03955947 0.04025136 0.04089393 0.04151807 0.04217218
 0.04285322 0.04357545 0.04432346 0.0450926 0.04587489 0.04667023 0.0474577 0.04823478 0.04897419 0.04966933
 0.05032888 0.05095252 0.05156231 0.05215849 0.05272311 0.05325373 0.05371592 0.05411511 0.05445761 0.05475504
 0.05504999 0.05534125 0.05565308 0.05596345 0.05624424 0.05649733 0.05670664 0.05690244 0.05710651 0.05732019
 0.05755693 0.05778284 0.0579885 0.05815508 0.0582726 0.058359 0.05841307 0.05847242 0.05854002 0.05864346
 0.05878336 0.05894146 0.05911475 0.0592651 0.05939409 0.05948918 0.05955551 0.05960158 0.05963327 0.0596669
 0.05970581 0.05976301 0.05983583 0.05992464 0.06003155 0.06015408 0.06030824 0.06050212 0.06074267 0.06104017
 0.06136594 0.06171689 0.06206178 0.06239297 0.06271821 0.0630366 0.06337549 0.06373607 0.06413231 0.06456336
 0.06502561 0.06551822 0.06603525 0.06657697 0.06714129 0.06772844 0.06833779 0.06896963 0.06962449 0.07030156
 0.07100151 0.07171936 0.07245277 0.07319476 0.0739406 0.07468926 0.07543743 0.0761951 0.07696341 0.07775366
 0.07856946 0.07940102 0.08024882 0.08108384 0.08190486 0.08270006 0.08347163 0.08424066 0.08500582 0.08577551
 0.08653737 0.08725318 0.08791967 0.08850746 0.08902844 0.08949117 0.08989647 0.09025113 0.09054524 0.09077133
 0.09093091 0.09102329 0.09104934 0.0910146 0.09089296 0.09067897 0.09035501 0.0899102 0.0894065 0.08884811
 0.08828576 0.08772127 0.08713116 0.08651403 0.08584685 0.08513156 0.08436811 0.08355633 0.08269922 0.08178729
 0.080805 0.07973512 0.07853347 0.07722291 0.07578569 0.07432465 0.07291973 0.07160223 0.07043072 0.0693187
 0.06824593 0.06716029 0.06603756 0.06490523 0.06376199 0.0626531 0.0615841 0.06055407 0.05956283 0.05857935
 0.05760381 0.05662604 0.05565145 0.05470436 0.05378816 0.05292964 0.05212198 0.05136478 0.05064704 0.04995121
 0.04927171 0.048597 0.04792223 0.04724419 0.04654729 0.04582299 0.0450604 0.04424061 0.04342267 0.04261027
 0.0418906 0.04128679 0.04076719 0.04033395 0.03990479 0.03947587 0.0390141 0.0385228 0.03802906 0.03753725
 0.03708799 0.03667584 0.03630312 0.03596469 0.03564627 0.03535564 0.03509737 0.03488245 0.03472726 0.03462962
 0.03459437 0.03461313 0.03468242 0.03479796 0.0349573 0.03515894 0.03539965 0.03569235 0.03603367 0.03647593
 0.03702288 0.03772994 0.03859931 0.03956828 0.04062627 0.04162404 0.04256406 0.04338235 0.04409307 0.04471302
 0.04524608 0.04570695 0.04609997 0.04642887 0.04672294 0.04700721 0.04732835 0.04773956 0.04823222 0.04883591
 0.04945423 0.05005419 0.05059295 0.05104337 0.05145467 0.05182929 0.05221921 0.0526311 0.05307197 0.05354228
 0.05400881 0.0544701 0.05489661 0.05529249 0.05566356 0.05601905 0.05639397 0.05679313 0.05724974 0.05775128
 0.05829449 0.05886187 0.05942881 0.05999711 0.06055933 0.06112357 0.06169549 0.06226807 0.06284166 0.06340273
 0.06394662 0.06447332 0.0649814 0.0654799 0.06597046 0.0664463 0.06690703 0.0673165 0.06767242 0.06793538
 0.06810634 0.06817061 0.06813062 0.06798679 0.06774098 0.06739638 0.06695724 0.06643048 0.06582272 0.065144
 0.06439806 0.06359163 0.06272343 0.06179455 0.06080284 0.0597454 0.0586311 0.05745595 0.05625882 0.05504121
 0.05386414 0.05273433 0.05168113 0.05070639 0.04978751 0.04892284 0.04808336 0.04727216 0.04649255 0.0457496
 0.04506605 0.04443742 0.04386741 0.04334258 0.04284224 0.04235856 0.04187224 0.04138849 0.0409041 0.04042875
 0.0399684 0.03952337 0.03909647 0.03868004 0.03827234 0.03787002 0.03747221 0.03707833 0.03668858 0.03629726
 0.03590406 0.03550482 0.03510044 0.03470138 0.03431043 0.03394962 0.03362051 0.03334063 0.03310909 0.03293311
 0.0328095 0.03273776 0.03271085 0.03272243 0.03276177 0.03282018 0.03288515 0.03294907 0.03299968 0.03303092
 0.03303565 0.03301002 0.03295645 0.03287429 0.03277029 0.03264517 0.03250171 0.0323401 0.032161 0.03196498
 0.03175909 0.03154524 0.03133807 0.03114005 0.03096787 0.03082264 0.03071639 0.03064621 0.03061461 0.03061305
 0.03063431 0.03066708 0.03070029 0.03072648 0.03073717 0.03073493 0.03071696 0.03069518 0.03067177 0.03065722
 0.03065457 0.03066211 0.03068057 0.03069891 0.03071656 0.03072509 0.03072467 0.03071592 0.03069978 0.03068247
 0.03066448 0.03065133 0.03064204 0.03063782 0.03063541 0.03063069 0.03061904 0.03059388 0.03055127 0.0304856
 0.03039597 0.03027903 0.03014016 0.02997853 0.02980787 0.02963002 0.02946278 0.02930947 0.02918048 0.02907781
 0.02899883 0.02894356 0.02890096 0.02887026 0.02883879 0.02880595 0.02876097 0.02870484 0.02863406 0.02855285
 0.02846901 0.02838769 0.02832177 0.02827216 0.02824615 0.02823923 0.02825025 0.02827481 0.0283098 0.0283539
 0.0284065 0.02846476 0.02852886 0.02859134 0.02865108 0.02870208 0.02874318 0.02877665 0.02880252 0.02882632
 0.02884808 0.02886874 0.028888 0.02890387 0.02891699 0.02892891 0.02893996 0.02895276 0.02896487 0.02897391
 0.02897605 0.02896515 0.02894062 0.02889888 0.02884398 0.02877665 0.02870229 0.02862301 0.02854261 0.02846244
 0.02838469 0.02831005 0.02823885 0.02817139 0.02810496 0.02803945 0.02796931 0.02789425 0.02780879 0.02771327
 0.02760672 0.0274906 0.02736981 0.02724592 0.02712571 0.02700891 0.02689868 0.02679272 0.02668941 0.02658705
 0.0264828 0.02637869 0.02627422 0.02617452 0.02608169 0.02599838 0.02592683 0.02586191 0.02580375 0.02574297
 0.02567827 0.02560711 0.0255291 0.02545355 0.02538105 0.02532272 0.02527792 0.02524787 0.02523085 0.02521999
 0.02521606 0.02521659 0.02522523 0.02524762 0.0252855 0.02534439 0.02542113 0.02551528 0.02562263 0.02573994
 0.02586715 0.02600279 0.02615053 0.02631082 0.02648776 0.02668213 0.0268967 0.02713211 0.02738718 0.02766201
 0.0279487 0.02824663 0.02854458 0.02884245 0.02913371 0.0294195 0.02970074 0.02997878 0.03025769 0.03053784
 0.03082182 0.03110925 0.0314011 0.03169566 0.03199268 0.03228797 0.03257991 0.03286242 0.0331327 0.0333869
 0.03362285 0.03384205 0.03404404 0.03423332 0.03441026 0.03457861 0.03473856 0.03489566 0.03505067 0.03521709
 0.03539614 0.03560405 0.0358391 0.03610484 0.03639494 0.03669503 0.03699948 0.0372899 0.03756861 0.03782899
 0.03808123 0.03833133 0.03858889 0.03886254 0.03915284 0.03946365 0.03978649 0.0401204 0.04045563 0.04079025
 0.04111867 0.04144007 0.04175141 0.04205246 0.04234204 0.04262032 0.04289043 0.04315267 0.04341145 0.04366543
 0.0439118 0.04414849 0.04436712 0.04457009 0.04475602 0.04493268 0.04510964 0.04529147 0.04548797 0.0456924
 0.04590577 0.04611332 0.04630865 0.04648439 0.04663432 0.04677096 0.04689382 0.04702638 0.04717187 0.04733934
 0.04753002 0.04772968 0.04793746 0.04813631 0.04832705 0.04850823 0.048681 0.04885065 0.04901461 0.04916908
 0.04931052 0.04942913 0.04952718 0.04960205 0.04966113 0.04971084 0.04975378 0.0497959 0.04982823 0.0498496
 0.04984785 0.04981778 0.04976 0.04967202 0.0495686 0.04945083 0.04933318 0.0492168 0.04910695 0.04900384
 0.04891029 0.04882679 0.04875889 0.04870664 0.04867377 0.04865875 0.04866005 0.04867474 0.04869809 0.04872434
 0.04874559 0.04875381 0.04873871 0.04869704 0.04862204 0.04851996 0.04839121 0.04824387 0.04808122 0.04790361
 0.04771198 0.04750283 0.04727523 0.04703308 0.04677626 0.04651919 0.04626272 0.04602316 0.04580018 0.04559975
 0.04541913 0.04525012 0.04508997 0.0449261 0.04475949 0.04458563 0.04440762 0.04422881 0.04404805 0.04386754
 0.04367907 0.04347914 0.04325835 0.04301126 0.04273501 0.04242662 0.04209117 0.04172852 0.041347 0.04094725
 0.04053803 0.04011988 0.0397018 0.03928412 0.03887266 0.03846695 0.03806594 0.03766906 0.03727274 0.0368783
 0.03648751 0.03610209 0.03572719 0.03536077 0.03500325 0.03464953 0.03429513 0.03393637 0.03356942 0.03319339
 0.03280645 0.03241092 0.03200589 0.03159953 0.03119255 0.03079578 0.03041095 0.03004118 0.02968698 0.02934411
 0.02901252 0.02869224 0.02838374 0.02809207 0.02781604 0.02755399 0.02730281 0.02705227 0.02680175 0.02654392
 0.02628293 0.02602053 0.02576271 0.02551577 0.02528291 0.02506905 0.02487127 0.02469103 0.02451899 0.02435342
 0.02418399 0.02400808 0.0238214 0.02362247 0.02341578 0.0232013 0.02298982 0.02278195 0.02258928 0.02241168
 0.02225355 0.02211331 0.0219864 0.0218712 0.02176068 0.02165425 0.02154798 0.02144058 0.02132843 0.02121168
 0.02108709 0.0209622 0.02083921 0.0207299 0.02064182 0.02057451 0.0205324 0.02049741 0.0204669 0.02042561
 0.02036961 0.02030772 0.02023984 0.02018782 0.02015218 0.02013739 0.0201409 0.0201425 0.02014067 0.02011598
 0.02007301 0.02001403 0.01994595 0.01988433 0.01983094 0.01979589 0.01977514 0.01976876 0.0197719 0.01978138
 0.01979415 0.01980771 0.01982221 0.01983632 0.01985512 0.01987891 0.01991505 0.01996474 0.02003089 0.02011413
 0.02020834 0.02031295 0.02041366 0.0205096 0.02058611 0.02064465 0.0206827 0.02070508 0.02072438 0.02074436
 0.02077953 0.02082847 0.02089593 0.02097752 0.0210714 0.0211718 0.02127586 0.02137471 0.02146385 0.0215371
 0.02158983 0.02162829 0.02165211 0.02167283 0.0216926 0.02171208 0.02173168 0.0217452 0.02175261 0.02175798
 0.02176233 0.0217774 0.02180241 0.02184017 0.02188847 0.02194146 0.02199938 0.02205971 0.0221239 0.02219397
 0.02226796 0.0223448 0.02242252 0.02249809 0.02257544 0.02265538 0.02274224 0.02283911 0.02294072 0.02304737
 0.02314877 0.02324285 0.02333043 0.023411 0.02349677 0.02358811 0.02368869 0.0237965 0.02389487 0.02398188
 0.02403728 0.02406585 0.02406892 0.02405748 0.02405524 0.02406753 0.02411575 0.02418962 0.02428925 0.0243969
 0.02449879 0.02458986 0.02466107 0.02472542 0.02478467 0.02485185 0.02493107 0.02502305 0.02512877 0.02524422
 0.02536931 0.02549874 0.02563195 0.02575254 0.02585923 0.0259313 0.0259715 0.02598015 0.02596506 0.02595101
 0.02594123 0.02595692 0.02599051 0.02604101 0.02609861 0.02615143 0.02619883 0.02623476 0.02626792 0.02630052
 0.02634076 0.02639275 0.0264561 0.02653218 0.02661469 0.02670292 0.02679278 0.02688389 0.02697423 0.02706364
 0.0271482 0.0272281 0.02730277 0.02737392 0.02744984 0.02753164 0.02762806 0.02773663 0.02785685 0.027985
 0.02811615 0.02824588 0.0283702 0.02847936 0.02856615 0.02862187 0.02863644 0.02862229 0.02857643 0.02853381
 0.02850118 0.02850437 0.02855036 0.02862984 0.02874363 0.0288613 0.02898145 0.02908254 0.02916499 0.02922479
 0.02926291 0.02928103 0.02928103 0.02926729 0.02924624 0.0292323 0.02923314 0.02926841 0.02933547 0.02944195
 0.02957355 0.02972276 0.02987859 0.03003299 0.03018407 0.03033096 0.03046714 0.0305924 0.0306936 0.030768
 0.03081462 0.03083232 0.03083862 0.03083446 0.03083994 0.03085526 0.03089016 0.03094328 0.0310134 0.03109866
 0.03119138 0.03129343 0.0314028 0.03152778 0.03168067 0.03186491 0.03209371 0.03235133 0.03263463 0.03291707
 0.0331845 0.0334223 0.03362047 0.03378331 0.03390832 0.03401163 0.03409458 0.03417465 0.03425379 0.03433722
 0.03442504 0.03450665 0.0345819 0.03464424 0.03469639 0.0347495 0.03480528 0.03487731 0.03496033 0.03505074
 0.03514032 0.03521421 0.03526996 0.03529713 0.03530338 0.0352882 0.035268 0.03524939 0.03524861 0.03527397
 0.03532764 0.03541334 0.03551907 0.03564399 0.03577562 0.03591293 0.03604613 0.03617463 0.03628528 0.03637812
 0.03644679 0.03649522 0.03653938 0.03658568 0.03666511 0.03677709 0.03694081 0.03713916 0.03735878 0.03757347
 0.03774674 0.03787492 0.03793161 0.0379633 0.03797519 0.03804804 0.0382207 0.03849619 0.03890016 0.0393088
 0.03970415 0.0400269 0.04026669 0.04045915 0.04060566 0.04072934 0.04082879 0.04089393 0.04092474 0.04091476
 0.0408685 0.04079859 0.04070648 0.04060244 0.0404837 0.04034888 0.04019987 0.04003541 0.0398661 0.03969869
 0.03954264 0.03940713 0.0392862 0.03918172 0.03907809 0.03896967 0.03885991 0.03874598 0.03865597 0.03859275
 0.03856726 0.03857977 0.03859467 0.03860891 0.03857422 0.03849301 0.03835132 0.03815814 0.0379344 0.03769022
 0.03745728 0.03724361 0.03707604 0.03695586 0.03689681 0.0368899 0.03693317 0.03701758 0.03713829 0.03728924
 0.03747211 0.03766166 0.03785797 0.03800947 0.03810879 0.0381171 0.03802764 0.03785861 0.03761112 0.03735618
 0.03709803 0.03690987 0.03678865 0.036759 0.03680754 0.03690273 0.03703286 0.03715344 0.03726621 0.03735447
 0.03742318 0.03747483 0.03750324 0.03750407 0.03747415 0.03740291 0.03731988 0.0372267 0.0371761 0.03718318
 0.03726906 0.0374455 0.03766703 0.03793293 0.03816792 0.03836809 0.03849888 0.03856272 0.03858043 0.03855439
 0.03850975 0.03844283 0.03835209 0.03823787 0.03809678 0.03793911 0.03777898 0.03762637 0.03749724 0.03739824
 0.03733799 0.03732402 0.03736633 0.03745357 0.03759256 0.03773284 0.0378659 0.03794161 0.03794556 0.0378923
 0.03777834 0.03767604 0.03758915 0.0375687 0.03761147 0.03769307 0.03780315 0.03786806 0.03788536 0.03780208
 0.03763476 0.03739113 0.03709774 0.03680033 0.03651672 0.03628648 0.03610987 0.0360042 0.03594898 0.03594432
 0.03594912 0.03595153 0.03591073 0.03581161 0.03564811 0.03541286 0.03514162 0.03483565 0.03454391 0.03426912
 0.03403923 0.03385233 0.03369276 0.03355372 0.03338556 0.0331876 0.03292427 0.03261452 0.03228141 0.03195071
 0.03167986 0.03146851 0.03134346 0.03128171 0.03127293 0.03130224 0.03136022 0.03143446 0.03152351 0.03159701
 0.03164733 0.0316532 0.03160535 0.03153134 0.03143103 0.03135817 0.03131583</values></Ydata></AB><ScSm><Ydata ylabel="Single channel"><values byteorder="INTEL" format="FLOAT32" numvalues="1814"> 0.05967281 0.0596806 0.05974318 0.0598796 0.06006825 0.06025498 0.06038722 0.06044874 0.0604552 0.06042127
 0.06035974 0.06031513 0.06035655 0.06051143 0.0607219 0.0608808 0.06091535 0.06085277 0.06080842 0.06087453
 0.06099671 0.06098837 0.06070657 0.06021437 0.05973889 0.05946117 0.05940307 0.05955819 0.06000354 0.06068905
 0.06119788 0.06104117 0.06027009 0.05951118 0.0592716 0.05945054 0.05962864 0.05955728 0.05923772 0.05882014
 0.05864386 0.05915163 0.06045626 0.06197468 0.06263351 0.0615471 0.05865085 0.05490355 0.05193298 0.05116414
 0.05281864 0.05562356 0.05776546 0.05833673 0.05777533 0.05695467 0.05623765 0.05558322 0.05515782 0.05537482
 0.05632712 0.05739756 0.05757613 0.05632481 0.05421481 0.0525201 0.05205345 0.05265555 0.05387557 0.05546925
 0.05671107 0.05599079 0.05238844 0.04769131 0.04561307 0.04826831 0.05391494 0.05865354 0.05990054 0.05785266
 0.05436623 0.05140682 0.05030242 0.05139366 0.05397459 0.05687483 0.05916567 0.06021493 0.05953934 0.05721813
 0.05429809 0.05229028 0.05224524 0.0543394 0.05783729 0.06115749 0.06258591 0.06153528 0.05893877 0.05626371
 0.05454057 0.05435067 0.05597028 0.0590935 0.06281017 0.06612673 0.06837223 0.06927635 0.06903034 0.06816277
 0.06713384 0.06625434 0.0659689 0.06658985 0.06756373 0.0676702 0.06634787 0.06444231 0.06333648 0.06351894
 0.06419036 0.06423739 0.06336221 0.06191936 0.05982168 0.05649623 0.05220374 0.04841421 0.04634121 0.0460059
 0.04710445 0.04949338 0.05216508 0.05317227 0.05175579 0.04972462 0.04966979 0.05219706 0.05560115 0.05794448
 0.05885383 0.05939598 0.06070294 0.06281616 0.06453533 0.0643217 0.06181987 0.05872663 0.05759742 0.05933827
 0.06233056 0.06442384 0.0652082 0.06579556 0.06687344 0.06764156 0.06664538 0.06350407 0.05984975 0.05832388
 0.06027666 0.06441537 0.06774096 0.06776919 0.06420394 0.05900899 0.05487573 0.05335706 0.05444377 0.05759143
 0.06232933 0.06772207 0.07210759 0.07402231 0.07326937 0.07085189 0.06782226 0.06430362 0.06002601 0.05593748
 0.054421 0.05705323 0.06259675 0.06802464 0.07122195 0.07205384 0.07120546 0.06888531 0.06500386 0.06041517
 0.05733804 0.05764344 0.06060563 0.06330005 0.06366323 0.06238101 0.06139976 0.0614941 0.06196355 0.06212258
 0.06228125 0.06321454 0.06505539 0.06698969 0.06804425 0.06797299 0.06730713 0.06673311 0.06646883 0.0661028
 0.06517291 0.06408186 0.06406814 0.06585525 0.06866071 0.0709971 0.07216756 0.07253454 0.07253422 0.07190388
 0.07005922 0.06718928 0.06471762 0.06425299 0.06603606 0.06878328 0.07102664 0.07217424 0.07238272 0.07203129
 0.07146005 0.07085721 0.07031412 0.07006648 0.07043745 0.07138184 0.07237687 0.07294817 0.07306272 0.07289398
 0.07247974 0.07178839 0.07096577 0.07034623 0.07021299 0.07058713 0.07125901 0.07197739 0.07254186 0.07277656
 0.07259393 0.07212059 0.07161758 0.07124022 0.07099006 0.07088898 0.0710305 0.07141459 0.07186584 0.07218347
 0.07230274 0.07227417 0.07215443 0.07196509 0.07172506 0.07149012 0.07135616 0.07139774 0.07157953 0.07177274
 0.071902 0.07202192 0.07218888 0.07232328 0.0722914 0.07208816 0.07185355 0.07172123 0.07171214 0.07176434
 0.07180258 0.07175434 0.07154747 0.07117168 0.07076131 0.07054624 0.07066523 0.0710597 0.07156508 0.07203759
 0.07237849 0.07253826 0.07255327 0.07251322 0.07245436 0.07233186 0.07211605 0.07187815 0.0717629 0.0718783
 0.07219993 0.07258496 0.07288775 0.07304952 0.07309065 0.07307694 0.07309723 0.07319823 0.0733186 0.07334814
 0.07326834 0.07318167 0.07318901 0.07327821 0.07334819 0.07332574 0.07324803 0.07322413 0.07331637 0.07348022
 0.07362868 0.07372893 0.07381773 0.07393414 0.07405089 0.07408337 0.07398316 0.07381144 0.07368337 0.07364666
 0.07366227 0.07370015 0.07378968 0.07395217 0.07413319 0.07424368 0.07425599 0.07422817 0.07422711 0.07424819
 0.07422917 0.07413325 0.07399429 0.07388106 0.0738381 0.07386337 0.07392109 0.07396561 0.07396376 0.07390795
 0.07381353 0.07370404 0.0735983 0.07351428 0.07348392 0.07354428 0.07369027 0.07384053 0.07388142 0.0737662
 0.07356334 0.07339284 0.07331406 0.07328354 0.0732187 0.07308555 0.07291635 0.07276007 0.07263796 0.0725431
 0.07246028 0.07238087 0.07231529 0.07229817 0.07236061 0.07247905 0.07256702 0.0725455 0.07242079 0.07227325
 0.07217538 0.0721406 0.07214093 0.07214713 0.0721551 0.0721896 0.07227031 0.07236686 0.07241489 0.07239122
 0.07234514 0.07234389 0.07241654 0.07255342 0.07271763 0.07284812 0.07289614 0.07287864 0.07286622 0.0729063
 0.07298431 0.07306692 0.07315081 0.07325095 0.07336599 0.07348295 0.07360841 0.07377154 0.07399096 0.07424806
 0.07449441 0.07468437 0.07481019 0.07491624 0.07507211 0.07531838 0.07563256 0.0759481 0.07620858 0.07640915
 0.07658891 0.07678339 0.07699282 0.07720613 0.07743949 0.07772277 0.07805209 0.07838598 0.07869154 0.07897201
 0.07924679 0.07952639 0.07981356 0.0801162 0.08045049 0.08082554 0.08121865 0.08157393 0.08184395 0.08203702
 0.08221507 0.08244628 0.08275819 0.08311614 0.08343693 0.08365149 0.0837782 0.08391477 0.08413384 0.08440739
 0.08466229 0.08488908 0.08515175 0.08549198 0.08586532 0.08618955 0.0864338 0.08664113 0.08687093 0.08713233
 0.08737621 0.08755056 0.08765931 0.08775833 0.08789593 0.08807835 0.08830042 0.08857821 0.08892172 0.08929268
 0.0896244 0.08987918 0.09006527 0.09020893 0.09033356 0.0904552 0.0905762 0.09068991 0.0908011 0.09092285
 0.09104563 0.09113985 0.09120502 0.09128688 0.09142724 0.09162343 0.09185629 0.09212577 0.09242882 0.09272868
 0.09298994 0.09323687 0.09353048 0.09387632 0.09419508 0.09440783 0.09451857 0.09458508 0.09464345 0.09470514
 0.09480311 0.09498456 0.09525453 0.09556455 0.09586448 0.0961413 0.09640467 0.09665605 0.09688012 0.09705678
 0.09717683 0.09725115 0.09731054 0.09739875 0.09755822 0.09780493 0.09810997 0.09841463 0.09866971 0.0988521
 0.09894864 0.09895365 0.09889941 0.09886221 0.09890023 0.09898428 0.09901269 0.09889828 0.09862402 0.098217
 0.0976994 0.09708524 0.09641072 0.09574497 0.09516552 0.09472899 0.09446757 0.09440808 0.09457903 0.0949814
 0.09555356 0.09618461 0.09676887 0.09723014 0.09749511 0.09748581 0.09717108 0.09660921 0.09591504 0.09519282
 0.09450634 0.09388164 0.09331164 0.09278119 0.0923238 0.0920535 0.09212162 0.09263355 0.09359483 0.09490642
 0.09639425 0.09786582 0.09918082 0.1002943 0.1012405 0.1020772 0.1028453 0.1035716 0.1042815 0.1049837
 0.1056532 0.1062528 0.1067769 0.1072545 0.1077105 0.1081378 0.1085078 0.1087957 0.1090015 0.1091559
 0.1092956 0.1094235 0.1095098 0.1095377 0.1095291 0.1095096 0.1094655 0.109349 0.1091169 0.1087628
 0.1083369 0.1079557 0.107785 0.1079852 0.1086383 0.1097033 0.1110393 0.1124788 0.1138849 0.1151526
 0.116201 0.1169985 0.1175873 0.118055 0.1184762 0.1188861 0.1192935 0.119696 0.1200876 0.120463
 0.1208225 0.1211733 0.1215284 0.1218972 0.1222697 0.1226202 0.1229356 0.1232364 0.1235614 0.1239307
 0.1243266 0.1247094 0.1250581 0.1253899 0.1257291 0.1260659 0.1263674 0.1266264 0.1268737 0.1271448
 0.1274551 0.1278017 0.1281625 0.1284961 0.1287687 0.128987 0.1291901 0.1294119 0.1296606 0.1299292
 0.1302094 0.1304925 0.1307702 0.1310424 0.1313211 0.1316154 0.1319113 0.1321746 0.1323842 0.1325559
 0.1327294 0.1329322 0.1331607 0.1333914 0.1336108 0.1338348 0.1340942 0.134396 0.1347069 0.1349791
 0.1351926 0.1353658 0.1355332 0.1357215 0.1359418 0.1361908 0.1364515 0.1367009 0.1369258 0.1371338
 0.1373447 0.1375718 0.1378127 0.1380571 0.1382958 0.1385242 0.1387416 0.138952 0.1391664 0.1394008
 0.1396663 0.1399544 0.1402353 0.1404776 0.1406723 0.1408353 0.1409917 0.1411604 0.1413506 0.1415651
 0.1418014 0.1420513 0.1423029 0.1425433 0.1427656 0.1429732 0.1431787 0.1433949 0.1436253 0.1438623
 0.144097 0.1443299 0.1445675 0.1448095 0.1450468 0.1452726 0.145489 0.1457035 0.1459225 0.1461474
 0.146373 0.1465922 0.1468045 0.147016 0.1472308 0.1474457 0.1476551 0.1478579 0.1480575 0.1482594
 0.1484676 0.1486833 0.1489038 0.1491236 0.1493368 0.1495428 0.149747 0.1499546 0.1501664 0.1503822
 0.1506029 0.1508261 0.1510459 0.1512606 0.1514741 0.1516891 0.1519035 0.1521157 0.1523272 0.1525395
 0.152753 0.152966 0.1531752 0.1533783 0.1535763 0.1537719 0.1539706 0.1541799 0.1544036 0.1546346
 0.1548623 0.1550812 0.155292 0.1554998 0.1557133 0.1559399 0.1561746 0.156404 0.1566207 0.156829
 0.1570387 0.1572571 0.1574846 0.1577148 0.1579397 0.1581541 0.1583562 0.1585493 0.1587396 0.1589302
 0.1591178 0.1593011 0.1594853 0.1596759 0.1598741 0.1600789 0.1602866 0.1604916 0.1606933 0.1608984
 0.1611121 0.1613331 0.1615587 0.1617846 0.1620051 0.162219 0.1624315 0.1626454 0.1628567 0.1630625
 0.1632657 0.1634722 0.1636869 0.1639088 0.1641318 0.1643522 0.1645737 0.1647981 0.1650231 0.1652485
 0.1654741 0.1656927 0.1658998 0.1661028 0.1663084 0.1665148 0.1667245 0.1669457 0.1671759 0.1674024
 0.1676207 0.1678361 0.1680534 0.1682745 0.1684972 0.1687139 0.1689225 0.1691334 0.1693526 0.1695738
 0.1697935 0.1700141 0.1702323 0.1704437 0.1706553 0.1708744 0.1710977 0.1713215 0.1715413 0.1717359
 0.171857 0.1717978 0.1712975 0.1698316 0.1665902 0.1606413 0.15131 0.1386098 0.1233833 0.1069958
 0.09082992 0.07592946 0.0629072 0.05203395 0.0433725 0.03685632 0.03233807 0.02968472 0.02888344 0.03014392
 0.0340003 0.0409943 0.05049754 0.05966579 0.06453937 0.06316312 0.05745226 0.051444 0.04793779 0.04713721
 0.04785331 0.04907262 0.05047707 0.05225155 0.05470919 0.05793434 0.06177123 0.06621662 0.07160832 0.07819875
 0.08564429 0.09314798 0.1001455 0.1067486 0.1134799 0.1206427 0.1280019 0.1350154 0.1412681 0.1466803
 0.1514225 0.1557249 0.1597483 0.1635673 0.1672137 0.1706768 0.1738333 0.1764199 0.1781564 0.1789542
 0.179021 0.17875 0.1784911 0.1784092 0.1785174 0.1787836 0.1791841 0.1797046 0.1803331 0.1810525
 0.1818338 0.1826451 0.1834624 0.1842642 0.1850267 0.1857362 0.1863937 0.1870022 0.1875597 0.1880672
 0.1885294 0.1889521 0.1893449 0.1897201 0.1900817 0.1904251 0.1907492 0.191059 0.191355 0.1916308
 0.1918799 0.1921033 0.1923101 0.1925136 0.192723 0.1929394 0.1931607 0.1933862 0.193612 0.1938304
 0.1940386 0.1942412 0.1944439 0.1946494 0.1948564 0.1950592 0.1952507 0.1954322 0.195615 0.19581
 0.1960192 0.1962385 0.1964623 0.1966842 0.1968986 0.1971036 0.1973015 0.1974965 0.197692 0.1978901
 0.1980949 0.1983124 0.1985412 0.1987674 0.198981 0.1991909 0.1994135 0.1996526 0.1998998 0.2001441
 0.2003722 0.2005683 0.2007286 0.2008742 0.2010417 0.2012546 0.2015009 0.2017439 0.2019594 0.2021565
 0.2023556 0.2025591 0.2027544 0.2029326 0.2031031 0.2032957 0.2035387 0.2038231 0.2041062 0.2043621
 0.204602 0.2048407 0.2050766 0.2053123 0.2055531 0.2057782 0.2059531 0.2060859 0.2062474 0.2065172
 0.2069025 0.2073187 0.2076636 0.2079113 0.2081161 0.2083425 0.2086163 0.2089072 0.209121 0.2091657
 0.2090885 0.209098 0.2093761 0.2098984 0.2104844 0.2109815 0.2113572 0.2116567 0.2119232 0.212154
 0.2123053 0.2123449 0.212323 0.2123873 0.2126807 0.2131938 0.2137586 0.2142176 0.2145466 0.2147942
 0.2149939 0.2151625 0.2152697 0.215183 0.2148085 0.2143521 0.2142698 0.2148281 0.2158023 0.2167141
 0.2173039 0.217662 0.217964 0.2182529 0.2184895 0.2185867 0.2183021 0.2173791 0.2160424 0.2151365
 0.2154312 0.2168495 0.2186026 0.2199773 0.2207879 0.2212089 0.2214668 0.2216851 0.2217899 0.2215204
 0.2207223 0.2197329 0.2192974 0.2198855 0.2211654 0.2223554 0.223018 0.2232969 0.223507 0.2237787
 0.2239671 0.2236149 0.2222165 0.2199632 0.2181156 0.2181186 0.2201928 0.2230717 0.2252527 0.2262867
 0.2266737 0.2267682 0.2262577 0.2247328 0.2223072 0.2195756 0.2174284 0.2169225 0.2185811 0.2215227
 0.2239625 0.2249727 0.2252669 0.2260222 0.2274725 0.2289183 0.2296378 0.2294437 0.2285573 0.2272137
 0.2255524 0.2239784 0.2233778 0.2244919 0.2270175 0.2297167 0.2315618 0.2325117 0.2329646 0.2325482
 0.2298883 0.2242539 0.2176012 0.2140313 0.2161803 0.2224702 0.228805 0.2325984 0.2341974 0.2349637
 0.2354351 0.235175 0.2330349 0.2277847 0.2200555 0.2135625 0.212599 0.2177959 0.225413 0.2308291
 0.2316811 0.2281172 0.2219914 0.2163238 0.2140613 0.2162842 0.2217287 0.2280446 0.2332148 0.2361105
 0.2364682 0.2347745 0.2322446 0.2305395 0.2305613 0.231124 0.2298522 0.2261825 0.222296 0.2199152
 0.2176395 0.2135394 0.2093874 0.2094982 0.2151223 0.222357 0.2265278 0.2269275 0.2259969 0.2248818
 0.2214842 0.213486 0.2027266 0.1953133 0.1962823 0.2043669 0.2131215 0.2172305 0.2167384 0.215179
 0.2148652 0.2145458 0.2112037 0.204008 0.1963389 0.1929653 0.1949862 0.1988475 0.2005603 0.1988985
 0.1940235 0.1861923 0.1780353 0.1754125 0.182481 0.1966062 0.2104067 0.217835 0.2164186 0.2059557
 0.1893456 0.1743443 0.1698129 0.1777988 0.1910522 0.1996872 0.1990403 0.190539 0.1774785 0.1627384
 0.1500976 0.1446795 0.1498969 0.1639818 0.1800099 0.1893573 0.1864753 0.173194 0.1590892 0.1546094
 0.1615898 0.1719756 0.1768383 0.1744803 0.169219 0.1657987 0.1666278 0.1713678 0.1773199 0.1819484
 0.1849037 0.1852331 0.178674 0.1627792 0.143772 0.1324693 0.1330479 0.1408936 0.1512461 0.1634741
 0.1754556 0.1806484 0.1754539 0.166015 0.1629859 0.1702228 0.1814867 0.1880879 0.1874903 0.1837752
 0.181333 0.1801887 0.17817 0.1759489 0.177248 0.1836979 0.1919929 0.1975784 0.1993938 0.1994798
 0.1995034 0.1994881 0.1989898 0.1978555 0.1961455 0.1942442 0.1927512 0.1918098 0.1909764 0.1898994
 0.1883045 0.1849872 0.1780885 0.1677299 0.1576668 0.152329 0.1521506 0.1538664 0.1553618 0.1569269
 0.1567576 0.1496544 0.1338949 0.1168997 0.1098381 0.1168393 0.1319207 0.1458012 0.1529843 0.1522372
 0.143859 0.1299262 0.1166016 0.1122062 0.1204228 0.1367615 0.1533843 0.1658642 0.1736473 0.1762993
 0.1727749 0.1642053 0.1549778 0.1502273 0.1527346 0.1616982 0.1729525 0.179986 0.1771362 0.1652561
 0.1542552 0.155777 0.1709413 0.1884342 0.197221 0.1977304 0.1973369 0.1988765 0.1992604 0.1976156
 0.1985177 0.2057433 0.2167125 0.2250148 0.2260341 0.2187801 0.2052643 0.1909047 0.1831197 0.1854059
 0.1933728 0.199516 0.200487 0.1966862 0.1878201 0.1746886 0.1638581 0.1637422 0.1748483 0.188624
 0.1971763 0.2004696 0.2027892 0.2053657 0.2049069 0.1986201 0.1888732 0.1817363 0.1809773 0.1847676
 0.1887946 0.1908203 0.1907281 0.1879496 0.1818099 0.1744112 0.1706718 0.1740718 0.1830615 0.1925074
 0.1982785 0.1998325 0.1990246 0.1976794 0.1963467 0.1944388 0.1914745 0.1887172 0.188936 0.1934256
 0.1999059 0.204848 0.2075137 0.2101958 0.21461 0.2195146 0.2222091 0.2214765 0.2187506 0.2168895
 0.2179006 0.2213438 0.2246444 0.2252885 0.223223 0.2211341 0.2219661 0.2260965 0.2312825 0.2351961
 0.2373201 0.2384653 0.2393977 0.2401823 0.2401557 0.2384435 0.2352258 0.2324823 0.2326024 0.2360176
 0.2407771 0.2445407 0.2464523 0.2470365 0.2469472 0.2462814 0.2449281 0.2431669 0.2416895 0.2410611
 0.241316 0.2420997 0.243036 0.2438863 0.2445322 0.2449645 0.2452508 0.2454497 0.2455893 0.2457183
 0.2458874 0.2460652 0.2461697 0.2462181 0.2463557 0.2466772 0.2470833 0.2473811 0.247466 0.2473195
 0.2468822 0.2460657 0.2448969 0.24353 0.2420667 0.2404745 0.2387978 0.237413 0.2369269 0.2377204
 0.2395919 0.2418833 0.2439363 0.2454207 0.2463252 0.2467875 0.2469774 0.2470467 0.2470867 0.2471083
 0.247076 0.2469645 0.2467808 0.2465456 0.2462736 0.2459851 0.2457231 0.2455316 0.2454073 0.2452899
 0.2451075 0.2448269 0.2444662 0.2440701 0.2436669 0.2432379 0.2427281 0.2420921 0.2413283 0.240478
 0.2396095 0.2387911 0.2380469 0.2373318 0.2365728 0.2357297 0.23479 0.2337258 0.2325168 0.2312272
 0.2300022 0.2289504 0.2280539 0.2272088 0.226318 0.2253301 0.2242288 0.2230277 0.2217644 0.220475
 0.2191735 0.2178567 0.2165139 0.2151259 0.2136725 0.2121494 0.2105703 0.208949 0.2072908 0.2055957
 0.2038495 0.2020004 0.1999528 0.1975882 0.1947948 0.1914908 0.1876496 0.1833286 0.1786779 0.1739078
 0.1692273 0.1647913 0.1606961 0.1570129 0.1538163 0.1511783 0.149144 0.1477291 0.14694 0.1467887
 0.1472825 0.1483971 0.1500589 0.1521498 0.1545322 0.1570672 0.1596153 0.1620411 0.1642551 0.1662619
 0.1681409 0.1699558 0.1716923 0.1732978 0.1747541 0.17608 0.1772773 0.1783162 0.1791771 0.1798778
 0.1804548 0.1809357 0.1813355 0.1816663 0.1819415 0.1821774 0.1823931 0.1826097 0.1828483 0.1831274
 0.1834604 0.1838516 0.1842962 0.1847857 0.185315 0.1858801 0.1864725 0.1870816 0.187708 0.1883655
 0.1890727 0.1898502 0.190728 0.1917433 0.1929232 0.1942719 0.1957671 0.1973609 0.1989843 0.2005574
 0.2020028 0.2032602 0.2042979 0.2051127 0.2057181 0.2061397 0.206417 0.2065894 0.2066744 0.2066697
 0.2065769 0.206406 0.2061611 0.2058406 0.2054548 0.2050279 0.2045822 0.2041295 0.203676 0.2032254
 0.2027767 0.2023276 0.2018816 0.2014505 0.201043 0.2006514 0.2002519 0.1998255 0.1993756 0.1989223
 0.1984795 0.1980361 0.19755 0.1969633 0.1962385 0.1953852 0.1944409 0.1934289 0.1923424 0.1911687
 0.1899102 0.1885774 0.1871748 0.1857016 0.1841599 0.1825479 0.1808462 0.1790284 0.1771038 0.1751389
 0.1732221 0.1714083 0.1697058 0.1681034 0.1665942 0.1651804 0.1638634 0.1626286 0.1614439 0.1602859
 0.1591626 0.158099 0.1571069 0.1561791 0.1553106 0.1545139 0.1538095 0.1532021 0.1526723 0.1521998
 0.1517844 0.151433 0.1511465 0.1509357 0.1508233 0.1508027 0.1508136 0.1507837 0.1506836 0.150532
 0.1503642 0.1502054 0.1500651 0.1499471 0.1498515 0.1497506 0.1495716 0.1492231 0.1486322 0.1477525
 0.1465635 0.1450857 0.1433892 0.1415823 0.1397952 0.1381544 0.136747 0.1356096 0.1347426 0.134111
 0.1336417 0.1332577 0.1329309 0.1327 0.1326345 0.1327547 0.1329637 0.1330996 0.133094 0.1330512
 0.133144 0.1334666 0.1339965 0.1346388 0.1352807 0.135841 0.1362879 0.1366163 0.1368303 0.1369443
 0.1369675 0.1368947 0.1367321 0.1365075 0.1362405 0.1359372 0.1356058 0.1352362 0.1347833 0.1342111
 0.1335271 0.1327532 0.1319076 0.1310068 0.130033 0.1289365 0.1277501 0.1266661 0.1259406 0.1257358
 0.126048 0.1267235 0.1275595 0.1284344 0.1292832 0.1299378 0.1301773 0.1300804 0.1301928 0.1311268
 0.1329704 0.135184 0.1370851 0.1383345 0.1389404 0.1389843 0.1385148 0.1375943 0.1362512 0.1344385
 0.1321576 0.1295319 0.1267008 0.1237852 0.1209707 0.1184535 0.1163194 0.1145744 0.113209 0.1122518
 0.1118166 0.1115674 0.1097748 0.1042058 0.09556438 0.08905058 0.08999313 0.09785599 0.106606 0.1110976
 0.1111849 0.1096128 0.1082737 0.1074425 0.1070129 0.1071157 0.1078632 0.1091064 0.110474 0.1115961
 0.1123249 0.1126925 0.1126532 0.1118823 0.1097275 0.1054232 0.09870051 0.09034194 0.08193399 0.07494552
 0.07005696 0.06716497 0.065704 0.06498032 0.06451169 0.06424978 0.06447744 0.06546825 0.06725559 0.06969377
 0.07260843 0.07576999 0.07880493 0.08134606 0.08331216 0.08489251 0.08622464 0.08721533 0.08770119 0.08766191
 0.08723331 0.08659389 0.0858817 0.08516175 0.08440153 0.08349659 0.08241393 0.08133309 0.08054567 0.08017197
 0.08006994 0.08004592 0.08003458 0.08004563 0.08006331 0.08005235 0.08000302 0.07996446 0.08005305 0.08036983
 0.08087431 0.08138999 0.08175331 0.08193214 0.08200753 0.08203508 0.08190976 0.08146018 0.08075044 0.08011851
 0.07973604 0.0793018 0.07843126 0.07724519 0.07630913 0.07602328 0.07627147 0.07664253 0.07681026 0.0766937
 0.07644105 0.07635185 0.0766705 0.0773026</values></Ydata></ScSm><ScRf><Ydata ylabel="Single channel"><values byteorder="INTEL" format="FLOAT32" numvalues="1820"> 0.06078628 0.06093546 0.06102084 0.06104988 0.06104863 0.06105928 0.06112742 0.0612747 0.06147866 0.06167965
 0.06181867 0.06187815 0.06187838 0.06183786 0.06176785 0.06171057 0.06173835 0.06188474 0.06209308 0.06225157
 0.06228308 0.06221496 0.06216507 0.06222734 0.06234737 0.06233687 0.06204997 0.06154715 0.06105562 0.06076022
 0.06069043 0.06084961 0.06131893 0.06203669 0.06256169 0.06238964 0.06158201 0.0607896 0.06053263 0.0607063
 0.06088319 0.06080924 0.06048019 0.06004571 0.0598591 0.06038264 0.0617304 0.06329267 0.0639591 0.06282355
 0.05983128 0.05597794 0.05293848 0.05217017 0.0538887 0.05677649 0.05896977 0.05954488 0.0589628 0.05812445
 0.05739672 0.05672915 0.05628998 0.05650631 0.05747472 0.05855821 0.05871823 0.05741111 0.05523936 0.05351831
 0.05307101 0.0537153 0.05498119 0.05662107 0.05788792 0.05712112 0.053383 0.04853443 0.04640802 0.04916538
 0.05498992 0.05985972 0.06112399 0.05899668 0.05539768 0.05235774 0.05124238 0.05238543 0.05504064 0.05800128
 0.06032787 0.06138727 0.06069037 0.05831965 0.0553465 0.05331114 0.05327756 0.05541896 0.05898198 0.06235163
 0.06378239 0.06268635 0.06002591 0.05729791 0.05554795 0.05536771 0.05704028 0.06025102 0.0640671 0.06747264
 0.06978048 0.07070994 0.07045406 0.06955667 0.0684955 0.06759473 0.06730923 0.06794891 0.06893478 0.06901668
 0.06763423 0.06566912 0.06453998 0.06473678 0.06543063 0.06548116 0.06458917 0.06311636 0.0609628 0.05753803
 0.05312216 0.04923601 0.0471236 0.04680119 0.04795779 0.05044257 0.05320572 0.05423865 0.05277338 0.05068266
 0.05062378 0.05320448 0.05667203 0.0590514 0.05997299 0.06053224 0.06188089 0.06405008 0.06580226 0.06556217
 0.06297825 0.05980609 0.05867029 0.06048701 0.06358083 0.06574527 0.06657027 0.06720048 0.06833208 0.06913242
 0.0681106 0.0648939 0.06117629 0.05966491 0.06171611 0.06597445 0.06936041 0.06934965 0.06567024 0.06035509
 0.0561593 0.05465609 0.05582749 0.05912504 0.06407315 0.06970081 0.07428414 0.07631067 0.07557568 0.07311007
 0.06999706 0.06636503 0.06194754 0.05775198 0.05626415 0.05910198 0.06494686 0.07064478 0.07401843 0.07494517
 0.07412758 0.07175763 0.06773425 0.06297372 0.05982856 0.06025878 0.0634699 0.06636402 0.06677845 0.06545682
 0.06445979 0.06460369 0.06515352 0.06539672 0.06566824 0.06677946 0.0688493 0.07099593 0.07218379 0.07216266
 0.07151261 0.07097246 0.07076818 0.07044867 0.06952496 0.06844967 0.06855546 0.0705907 0.0736842 0.07623871
 0.07753214 0.07797699 0.07804365 0.07743556 0.07551223 0.07248194 0.06989641 0.06950229 0.07155241 0.07464191
 0.07717043 0.07849756 0.07880157 0.07850115 0.07796863 0.07741143 0.076932 0.07678261 0.07730224 0.07843058
 0.07959703 0.08028975 0.08047548 0.08034194 0.07993022 0.07921377 0.07836717 0.07776777 0.07772298 0.07824177
 0.07908224 0.07996747 0.08068118 0.08102682 0.08089808 0.08043203 0.07993073 0.07958435 0.07939827 0.07938351
 0.07962859 0.08012872 0.08069399 0.08110903 0.08130669 0.08134384 0.08128132 0.08113946 0.08093663 0.08073732
 0.08065636 0.08078163 0.08106926 0.08136784 0.08159243 0.08180855 0.0820795 0.08230798 0.08233386 0.08215064
 0.08192812 0.08183108 0.08188482 0.08201142 0.08212143 0.08213373 0.08196363 0.08159263 0.08117111 0.08096587
 0.08114684 0.08166378 0.08233798 0.082991 0.08347796 0.08371978 0.08376175 0.0837263 0.08367336 0.08356126
 0.08335708 0.08313648 0.08305798 0.08324245 0.08366466 0.08416438 0.08457345 0.08481785 0.08491457 0.0849406
 0.08500764 0.08517603 0.08536802 0.08544222 0.08537486 0.08529847 0.0853401 0.08547492 0.08556619 0.08552645
 0.08541837 0.0853906 0.08552194 0.08575176 0.08596757 0.08612971 0.08628851 0.08649166 0.0866936 0.08677571
 0.08667604 0.08647873 0.08633071 0.08628538 0.08629119 0.08632316 0.08643634 0.08665909 0.08690433 0.08704542
 0.08705679 0.08703282 0.08706632 0.08713996 0.08715402 0.0870428 0.08684272 0.08665548 0.08656678 0.08659506
 0.08669157 0.0867769 0.08678963 0.08671893 0.08660068 0.08648307 0.08639534 0.08635398 0.08639234 0.0865511
 0.08680961 0.08704309 0.08709498 0.08691704 0.08662622 0.08640421 0.08633564 0.0863472 0.08629905 0.08612128
 0.08585794 0.08560166 0.08541179 0.08529039 0.08520696 0.08513463 0.08508039 0.08508945 0.08519813 0.08536187
 0.08545245 0.08536345 0.08511609 0.08483736 0.08464307 0.08456364 0.08455946 0.08457002 0.08456288 0.08456425
 0.08462133 0.08471739 0.08476477 0.08470868 0.08459805 0.08453242 0.08457829 0.08474252 0.08496791 0.08514075
 0.0851654 0.08506078 0.08494468 0.08491063 0.08495542 0.08502934 0.08510896 0.08519971 0.08530225 0.08540954
 0.08553068 0.08569398 0.08591852 0.08618509 0.08643824 0.08662215 0.08672763 0.08681134 0.0869593 0.08721738
 0.08755226 0.0878813 0.08814038 0.08832744 0.08848649 0.08865514 0.08883702 0.08902961 0.08925709 0.08954681
 0.08988197 0.09021048 0.09050235 0.09077379 0.09105434 0.09135191 0.09165657 0.09196962 0.09232095 0.09274117
 0.09320213 0.09360518 0.0938625 0.09398745 0.09408604 0.09426999 0.09458356 0.0949762 0.09532288 0.09551617
 0.09557919 0.09565523 0.09585001 0.09612134 0.09636787 0.09658732 0.09688132 0.09730911 0.09779371 0.09819309
 0.09843844 0.09858546 0.09873931 0.09894238 0.0991426 0.0992725 0.09934077 0.0994194 0.09955175 0.09971968
 0.0999134 0.1001789 0.1005536 0.1009897 0.1013872 0.1016871 0.1018982 0.102052 0.1021687 0.1022539
 0.1023019 0.1023155 0.1023313 0.102397 0.1025055 0.1025918 0.1026175 0.102626 0.10269 0.1028393
 0.1030655 0.1033567 0.1036863 0.1039964 0.1042495 0.1044915 0.1048069 0.1051952 0.1055374 0.1057203
 0.1057589 0.1057542 0.1057682 0.1057993 0.1058618 0.1060111 0.1062759 0.1066157 0.1069692 0.1073133
 0.1076567 0.1079966 0.1083013 0.1085245 0.1086348 0.1086417 0.1086027 0.1086021 0.1087131 0.1089593
 0.109299 0.1096509 0.1099444 0.110145 0.1102356 0.110213 0.1101262 0.1100865 0.1101852 0.1103912
 0.1105636 0.1105716 0.1103789 0.1100152 0.1095083 0.1088783 0.1081773 0.1074983 0.1069315 0.1065235
 0.1062878 0.1062498 0.1064567 0.1069229 0.1075752 0.1082782 0.1089177 0.1094278 0.1097401 0.1097623
 0.1094464 0.1088533 0.1081192 0.1073705 0.1066823 0.1060754 0.105519 0.1049691 0.1044553 0.1041255
 0.1041768 0.1047348 0.1057871 0.1071953 0.1087423 0.1102026 0.1114273 0.1123953 0.1131847 0.1138882
 0.1145567 0.1152116 0.1158753 0.1165531 0.1172016 0.1177595 0.1182165 0.1186213 0.1190183 0.1194052
 0.1197513 0.1200338 0.1202574 0.1204565 0.120663 0.1208548 0.1209621 0.1209476 0.1208541 0.1207481
 0.1206402 0.120483 0.120225 0.1198521 0.1194072 0.1190059 0.1188272 0.119043 0.1197174 0.1207633
 0.1220078 0.1233037 0.1245686 0.12573 0.1266906 0.1273826 0.1278333 0.1281433 0.1284105 0.128687
 0.1289864 0.1292998 0.1296092 0.129903 0.1301847 0.1304704 0.1307795 0.1311191 0.1314662 0.1317762
 0.1320246 0.1322429 0.1324995 0.1328377 0.1332299 0.1336057 0.1339288 0.1342324 0.1345593 0.1348878
 0.1351516 0.135329 0.1354749 0.1356645 0.1359375 0.1362875 0.1366681 0.137005 0.1372439 0.1374007
 0.1375462 0.1377369 0.1379758 0.1382367 0.1385001 0.1387583 0.1390081 0.1392568 0.1395271 0.1398326
 0.1401443 0.1404034 0.1405804 0.14071 0.1408555 0.1410483 0.1412698 0.1414849 0.1416829 0.1418929
 0.1421566 0.1424786 0.1428046 0.1430634 0.1432308 0.1433465 0.1434686 0.1436278 0.1438218 0.1440362
 0.1442576 0.1444747 0.1446821 0.1448848 0.1450909 0.1453003 0.1455085 0.1457166 0.1459287 0.1461413
 0.1463454 0.1465393 0.1467352 0.1469551 0.1472168 0.1475154 0.1478155 0.1480712 0.1482601 0.1483954
 0.14851 0.1486349 0.1487874 0.1489681 0.1491664 0.1493725 0.1495845 0.1498028 0.1500217 0.1502313
 0.1504265 0.1506124 0.1508 0.1509978 0.1512091 0.1514371 0.1516833 0.1519382 0.1521809 0.1523945
 0.1525787 0.1527493 0.1529262 0.1531171 0.1533127 0.1534986 0.1536758 0.1538591 0.1540583 0.1542663
 0.1544705 0.1546674 0.1548612 0.1550545 0.155243 0.1554235 0.1556024 0.1557917 0.1559961 0.1562082
 0.1564178 0.1566203 0.1568158 0.1570073 0.1571995 0.1573957 0.1575956 0.1577979 0.1580015 0.1582041
 0.1584026 0.1585981 0.1587957 0.1589997 0.1592081 0.1594138 0.1596102 0.1597968 0.1599783 0.1601597
 0.1603441 0.1605349 0.1607338 0.1609403 0.1611541 0.1613764 0.1616039 0.1618289 0.1620459 0.1622556
 0.1624628 0.1626732 0.1628904 0.1631115 0.1633309 0.1635465 0.163759 0.1639678 0.1641706 0.1643652
 0.1645491 0.1647227 0.1648926 0.1650656 0.165242 0.1654188 0.1655966 0.1657769 0.1659624 0.1661581
 0.1663665 0.1665808 0.1667912 0.1669945 0.1671925 0.1673892 0.1675891 0.1677932 0.1679977 0.1681982
 0.1683931 0.168583 0.1687733 0.1689749 0.1691911 0.1694108 0.1696219 0.1698242 0.1700234 0.170225
 0.170434 0.1706526 0.1708767 0.171101 0.1713225 0.1715375 0.1717443 0.1719481 0.1721526 0.1723552
 0.1725551 0.1727577 0.1729662 0.173177 0.1733873 0.1735961 0.1738049 0.1740186 0.1742385 0.1744565
 0.1746674 0.1748765 0.1750889 0.1753027 0.1755189 0.1757399 0.1759602 0.176176 0.1763933 0.1766144
 0.1768315 0.1770417 0.1772473 0.1774336 0.1775533 0.17749 0.176963 0.1754211 0.1720253 0.1658174
 0.1561091 0.1429234 0.1271347 0.1101528 0.09340599 0.07797597 0.06449943 0.05325397 0.0442977 0.03755772
 0.03288469 0.03014514 0.02932449 0.03063604 0.03463368 0.04188105 0.05172312 0.06120426 0.06622024 0.06475715
 0.05881581 0.05258639 0.04896431 0.04815303 0.04891795 0.05020548 0.05167396 0.05350168 0.05601381 0.05931403
 0.0632578 0.067846 0.07342228 0.08024164 0.08794765 0.09571746 0.1029663 0.1098051 0.1167691 0.12417
 0.1317679 0.1390118 0.1454823 0.1510971 0.1560203 0.1604753 0.1646241 0.1685508 0.1722993 0.1758634
 0.1791118 0.1817662 0.1835368 0.1843396 0.1843975 0.1841163 0.1838456 0.1837435 0.1838255 0.1840739
 0.1844783 0.185024 0.1856898 0.1864493 0.1872659 0.1881014 0.1889299 0.1897335 0.1904923 0.191193
 0.1918401 0.1924462 0.1930171 0.1935496 0.1940361 0.1944754 0.1948806 0.1952687 0.1956448 0.196003
 0.1963396 0.1966532 0.1969395 0.1971968 0.1974321 0.1976542 0.1978708 0.1980888 0.1983109 0.198532
 0.1987482 0.1989636 0.1991805 0.1993913 0.1995874 0.1997737 0.1999684 0.2001863 0.2004225 0.2006537
 0.2008591 0.2010398 0.201213 0.2013913 0.2015759 0.2017635 0.201952 0.2021395 0.2023261 0.2025144
 0.2027075 0.2029069 0.2031092 0.203308 0.2035021 0.2037013 0.2039148 0.204137 0.2043542 0.2045635
 0.2047713 0.2049828 0.2051988 0.2054175 0.2056265 0.2058054 0.205948 0.2060792 0.206239 0.2064493
 0.2066948 0.2069389 0.2071579 0.2073574 0.2075545 0.2077547 0.2079488 0.2081263 0.2082903 0.208466
 0.208681 0.2089311 0.2091837 0.2094238 0.2096653 0.2099159 0.2101635 0.2104028 0.2106364 0.2108464
 0.2110047 0.211125 0.2112787 0.2115384 0.2119034 0.2122887 0.212604 0.2128374 0.2130443 0.2132764
 0.2135481 0.213829 0.2140288 0.2140538 0.2139506 0.2139362 0.2142025 0.214724 0.2153113 0.2158083
 0.216186 0.2164891 0.2167542 0.2169715 0.2170944 0.2170926 0.2170223 0.2170413 0.2173046 0.2178106
 0.2183875 0.218863 0.2191975 0.219437 0.2196244 0.2197841 0.2198792 0.2197632 0.219338 0.2188239
 0.2187 0.2192442 0.2202218 0.2211342 0.2217072 0.2220324 0.2222972 0.222557 0.2227756 0.2228603
 0.2225606 0.2216177 0.2202642 0.2193559 0.2196632 0.2210957 0.2228496 0.2242118 0.2250083 0.2254225
 0.2256801 0.2258977 0.2259968 0.2257174 0.22491 0.2239166 0.2234836 0.224076 0.2253532 0.2265284
 0.2271699 0.2274323 0.2276342 0.2278996 0.2280767 0.227702 0.2262625 0.2239528 0.2220587 0.222057
 0.2241726 0.2271076 0.2293253 0.2303711 0.2307601 0.2308497 0.230312 0.2287297 0.2262328 0.2234407
 0.2212576 0.2207456 0.2224268 0.2254035 0.2278648 0.2288717 0.2291536 0.2299139 0.2313971 0.2328878
 0.2336339 0.2334325 0.2325146 0.2311296 0.2294162 0.2277821 0.2271428 0.2282731 0.2308649 0.2336359
 0.235518 0.2364692 0.2369119 0.2364779 0.2337599 0.2279993 0.221193 0.2175398 0.2197385 0.226171
 0.2326424 0.2365067 0.2381235 0.2388903 0.2393565 0.2390709 0.2368594 0.2314758 0.2235831 0.2169861
 0.2160557 0.2214007 0.2291726 0.2346558 0.2354688 0.2317974 0.2255501 0.2197998 0.2175319 0.2198356
 0.2254273 0.2319137 0.237222 0.2401813 0.240524 0.2387691 0.2361772 0.2344475 0.2344887 0.2350753
 0.2337801 0.2300378 0.2260828 0.2236722 0.2213767 0.2172343 0.2130586 0.2132458 0.2190552 0.2264934
 0.2307947 0.2312516 0.2303611 0.2292817 0.2258557 0.2177161 0.2067685 0.1992932 0.2004551 0.2089372
 0.2181133 0.222539 0.2222801 0.2209711 0.2209705 0.2209567 0.2177892 0.2106061 0.2029228 0.1996841
 0.2020045 0.206176 0.2080669 0.2064194 0.2014033 0.1932915 0.1848385 0.1821527 0.1895555 0.2043064
 0.218741 0.226579 0.2252311 0.2144519 0.1972536 0.1817652 0.1772798 0.1859283 0.2000861 0.2093823
 0.2089403 0.2002684 0.1868236 0.1716332 0.1586989 0.1534752 0.1596227 0.1752813 0.1930428 0.2036228
 0.2010171 0.1871985 0.1725531 0.1684148 0.1767343 0.1886986 0.1945793 0.1925538 0.1873561 0.1842005
 0.1857741 0.1917117 0.1989808 0.204743 0.2086182 0.2094828 0.2024339 0.1846798 0.1633278 0.1506958
 0.1515328 0.1606129 0.1725734 0.1867185 0.2005772 0.2066173 0.2007284 0.1899913 0.1866376 0.1950699
 0.2080994 0.2157391 0.2150886 0.2108613 0.2081198 0.2068959 0.2047007 0.2023368 0.2041058 0.2118598
 0.2217523 0.2285313 0.2310024 0.231541 0.2320698 0.2326047 0.2326221 0.2319371 0.2306147 0.2290991
 0.2280834 0.2277234 0.2274915 0.2269867 0.225898 0.2227511 0.215226 0.203407 0.1918552 0.1859881
 0.1863329 0.1888919 0.1910933 0.193298 0.1932602 0.1845605 0.1650821 0.1439776 0.1350126 0.143267
 0.1613526 0.1778418 0.1860178 0.1844525 0.1736095 0.1560751 0.1392859 0.1331745 0.1420596 0.1605103
 0.1791596 0.1927728 0.2008041 0.2029072 0.1979729 0.1873385 0.1760486 0.1699549 0.172161 0.1816727
 0.1937256 0.2010008 0.1972168 0.1833887 0.170561 0.1716414 0.1878521 0.2066678 0.215888 0.2159792
 0.215082 0.2163558 0.2164377 0.2143643 0.2151187 0.2228225 0.2346887 0.2437717 0.2450618 0.2374631
 0.2231493 0.2080575 0.2003338 0.2037671 0.2134146 0.220915 0.2225426 0.2187297 0.2091566 0.1947935
 0.1830775 0.1834424 0.1963914 0.212284 0.2222856 0.2264149 0.2295081 0.2328975 0.2327916 0.2260114
 0.2152957 0.2076071 0.2072522 0.212127 0.217293 0.2201831 0.2206342 0.2179424 0.2112986 0.2031401
 0.1991868 0.2034757 0.2141582 0.2251922 0.2317212 0.2331183 0.2315862 0.229295 0.2269088 0.2237571
 0.2192988 0.2150144 0.2141137 0.218113 0.2244429 0.2291023 0.2312447 0.2334548 0.237676 0.242524
 0.2449664 0.2436334 0.2401217 0.2375982 0.2382565 0.2415844 0.2447545 0.2450308 0.2423602 0.2396634
 0.2401488 0.244254 0.2495844 0.253647 0.2558851 0.2571492 0.258225 0.2591393 0.2591377 0.2572542
 0.2536874 0.2505884 0.2505383 0.2539983 0.2588775 0.2626919 0.264566 0.2650954 0.2649826 0.2643003
 0.2628834 0.2610003 0.2593931 0.2586946 0.2589666 0.2598273 0.260851 0.261764 0.2624404 0.2628839
 0.263179 0.2633889 0.2635286 0.2636276 0.2637201 0.2637647 0.263685 0.2635327 0.2635058 0.263731
 0.2640982 0.2643774 0.2644286 0.2642087 0.2636503 0.2626825 0.261369 0.2598913 0.2583491 0.2566933
 0.2549648 0.2535574 0.2531034 0.253997 0.256027 0.258501 0.2607174 0.26232 0.2633001 0.2638086
 0.2640177 0.264071 0.2640581 0.2639993 0.2638717 0.2636595 0.2633767 0.2630466 0.2626788 0.2622831
 0.2618942 0.2615579 0.261283 0.2610212 0.2607023 0.260285 0.2597814 0.2592421 0.2587104 0.2581742
 0.2575652 0.2568156 0.2559184 0.254936 0.2539628 0.2530729 0.2522775 0.2515262 0.2507567 0.2499385
 0.2490527 0.2480571 0.2469267 0.2457364 0.2446492 0.2437866 0.2431273 0.2425446 0.2419128 0.2411639
 0.2402829 0.2392929 0.2382399 0.2371633 0.2360738 0.2349563 0.2337834 0.2325244 0.2311591 0.2296917
 0.228145 0.2265464 0.2249273 0.2233158 0.2216974 0.2199819 0.2180265 0.2156932 0.2128831 0.2095325
 0.2056161 0.2011792 0.1963658 0.1913955 0.1864932 0.1818301 0.1775192 0.1736466 0.1702921 0.1675264
 0.1654046 0.163966 0.163235 0.16322 0.1639067 0.1652555 0.1671999 0.1696415 0.1724422 0.1754308
 0.1784284 0.1812807 0.1838926 0.1862599 0.188454 0.1905443 0.192531 0.1943645 0.1960102 0.1974654
 0.1987293 0.199791 0.2006529 0.2013455 0.2019158 0.2024044 0.2028339 0.2032129 0.2035435 0.2038207
 0.2040377 0.2042028 0.2043477 0.2045088 0.2047035 0.2049321 0.2051956 0.2055085 0.2058918 0.2063501
 0.2068579 0.2073809 0.2079123 0.2084741 0.2090859 0.2097519 0.2104822 0.2113072 0.2122632 0.2133682
 0.2146129 0.21596 0.2173436 0.2186751 0.2198652 0.2208537 0.221617 0.2221499 0.2224534 0.2225429
 0.2224571 0.222243 0.2219355 0.2215534 0.2211055 0.220597 0.2200327 0.2194185 0.2187599 0.2180624
 0.2173375 0.2166062 0.2158941 0.2152178 0.214573 0.213939 0.2132987 0.212655 0.2120244 0.2114176
 0.2108291 0.2102458 0.2096621 0.2090852 0.2085207 0.207949 0.2073236 0.2065998 0.205765 0.2048326
 0.2038124 0.2027015 0.2015053 0.200244 0.1989251 0.1975267 0.1960242 0.1944254 0.1927628 0.1910522
 0.1892696 0.1873761 0.1853732 0.1833292 0.1813441 0.1794865 0.177769 0.1761703 0.1746622 0.1732273
 0.1718667 0.1705868 0.1693769 0.1682181 0.1671112 0.1660697 0.1650891 0.1641503 0.1632549 0.1624317
 0.1617047 0.161072 0.160519 0.160039 0.1596344 0.1593046 0.1590475 0.1588766 0.1588128 0.1588449
 0.1589144 0.1589519 0.1589205 0.1588265 0.1587075 0.1586044 0.1585302 0.1584671 0.158391 0.1582799
 0.1580954 0.1577705 0.1572182 0.1563555 0.1551449 0.1536228 0.1518816 0.1500385 0.1482265 0.1465717
 0.1451468 0.1439688 0.1430432 0.1423661 0.1418847 0.1415113 0.1411959 0.1409723 0.1409249 0.141087
 0.1413573 0.1415571 0.1416081 0.1416185 0.1417678 0.142157 0.1427727 0.1435237 0.1442882 0.1449698
 0.1455226 0.1459215 0.1461537 0.1462472 0.1462564 0.1462104 0.1461079 0.1459435 0.1457122 0.1454149
 0.1450634 0.1446563 0.1441687 0.1435902 0.1429336 0.1422011 0.1413915 0.1405157 0.1395453 0.1384124
 0.1371508 0.1359866 0.135217 0.1350271 0.1354113 0.1361969 0.1371679 0.1382129 0.1392764 0.1401577
 0.1405765 0.14059 0.1407877 0.1418509 0.1438965 0.1463481 0.1484558 0.1498453 0.1505388 0.1506396
 0.1501907 0.1492351 0.1477895 0.1458121 0.1433304 0.1405033 0.1374865 0.1343969 0.1314202 0.1287579
 0.1264909 0.1246227 0.1231636 0.1221779 0.1218044 0.1216504 0.1197766 0.1137237 0.1043085 0.09728487
 0.09848797 0.1072739 0.1169912 0.1220021 0.1221527 0.1204447 0.1189536 0.1179958 0.117465 0.1175033
 0.1182356 0.1195119 0.1209396 0.1221113 0.1228496 0.1231924 0.1231167 0.1222776 0.1199271 0.1151843
 0.1077529 0.09852397 0.089267 0.08160181 0.07626766 0.07313889 0.07158954 0.07085871 0.07040507 0.07014535
 0.07036537 0.07137212 0.07323968 0.07585122 0.07903355 0.08251823 0.08586748 0.0886668 0.09082616 0.0925442
 0.0939652 0.09501127 0.09555084 0.09558342 0.09522344 0.0946073 0.09385901 0.09306512 0.09220909 0.09117702
 0.08993422 0.0886932 0.0877898 0.08736655 0.08727765 0.08730468 0.08733813 0.08734937 0.08732839 0.08728576
 0.0872454 0.08724172 0.08734797 0.08763817 0.08808064 0.0885281 0.08884268 0.08900363 0.08908475 0.08911028
 0.08892959 0.08834863 0.08746287 0.08667426 0.08618684 0.08566169 0.0846486 0.08325918 0.08212932 0.08173542
 0.08196823 0.08236974 0.08257326 0.08247854 0.08222139 0.08210768 0.0824167 0.0830805 0.08363973 0.08368029
</values></Ydata></ScRf><Data_Parameters_AB><parameter name="DPF">1</parameter><parameter name="NPT">3497</parameter><parameter name="FXV">3996</parameter><parameter name="LXV">500</parameter><parameter name="CSF">1</parameter><parameter name="MXY">0.0910493358969688</parameter><parameter name="MNY">0.00656501390039921</parameter><parameter name="DAT">02/06/2022</parameter><parameter name="TIM">13:28:09.403 (GMT+2)</parameter><parameter name="DXU">WN</parameter></Data_Parameters_AB><AB__Qtest><MainReport name="Quality Test Report"><Header><Line><Legend>Test result ok/not ok [1/0]: </Legend><Value>0</Value></Line><Line><Legend>Method file: </Legend><Value>C:\Users\Public\Documents\Bruker\OPUS_8.2.28\QT\IRBT_v3_default.QT</Value></Line></Header><Matrix><Line><Legend></Legend><Legend>min</Legend><Legend>max</Legend><Legend>measured</Legend></Line><Line><Value>Absorption (X-Range 1):</Value><Value>0.400000</Value><Value>2.000000</Value><Value>0.061441</Value></Line><Line><Value>Noise (X-Range 4):</Value><Value></Value><Value>0.000300</Value><Value>0.000046</Value></Line><Line><Value>Signal/Noise (X-Range 2):</Value><Value>200.000000</Value><Value></Value><Value>17.866398</Value></Line><Line><Value>Signal/Noise (X-Range 3):</Value><Value>40.000000</Value><Value></Value><Value>16.069978</Value></Line><Line><Value>Water vapour (X-Range 5):</Value><Value></Value><Value>0.000300</Value><Value>0.000079</Value></Line><Line><Value>Signal/Water (X-Range 2):</Value><Value>100.000000</Value><Value></Value><Value>10.452908</Value></Line><Line><Value>Signal/Water (X-Range 3):</Value><Value>20.000000</Value><Value></Value><Value>9.401895</Value></Line><Line><Value>Fringes (X-Range 6):</Value><Value></Value><Value>0.000100</Value><Value>0.000061</Value></Line></Matrix></MainReport></AB__Qtest><Data_Parameters_ScSm><parameter name="DPF">1</parameter><parameter name="NPT">1814</parameter><parameter name="FXV">3996.33169228125</parameter><parameter name="LXV">499.541461535156</parameter><parameter name="CSF">1</parameter><parameter name="MXY">0.247466027736664</parameter><parameter name="MNY">0.0288834385573864</parameter><parameter name="DAT">02/06/2022</parameter><parameter name="TIM">13:28:09.403 (GMT+2)</parameter><parameter name="DXU">WN</parameter></Data_Parameters_ScSm><Data_Parameters_ScRf><parameter name="DPF">1</parameter><parameter name="NPT">1820</parameter><parameter name="FXV">4004.04661832813</parameter><parameter name="LXV">495.683998511719</parameter><parameter name="CSF">1</parameter><parameter name="MXY">0.265095353126526</parameter><parameter name="MNY">0.0293244924396276</parameter><parameter name="DAT">02/06/2022</parameter><parameter name="TIM">13:27:43.171 (GMT+2)</parameter><parameter name="DXU">WN</parameter></Data_Parameters_ScRf><Optic_Parameters_Rf><parameter name="APR">0</parameter><parameter name="APT">Open</parameter><parameter name="BMS">KBr</parameter><parameter name="DTC">RT-DLaTGS_IR-Biotyper [Microplate reader]</parameter><parameter name="HPF">0</parameter><parameter name="LPF">10.0</parameter><parameter name="LPV">4000</parameter><parameter name="PGR">0</parameter><parameter name="RCH">Module port</parameter><parameter name="RDX">0</parameter><parameter name="SRC">MIR</parameter><parameter name="VEL">10.0</parameter><parameter name="SON">Off</parameter></Optic_Parameters_Rf><Acquisition_Parameters_Rf><parameter name="ADT">1</parameter><parameter name="AQM">DD</parameter><parameter name="CFE">0</parameter><parameter name="COR">0</parameter><parameter name="DEL">0</parameter><parameter name="DLY">0</parameter><parameter name="HFW">8000</parameter><parameter name="LFW">0</parameter><parameter name="NSR">32</parameter><parameter name="PLF">AB</parameter><parameter name="RES">6</parameter><parameter name="RGN">-1</parameter><parameter name="STR">0</parameter><parameter name="TCL">MakeCompatibleScalar (0, {WSV=1.000000, ARV=0});</parameter><parameter name="TDL">37</parameter><parameter name="RPO">0</parameter></Acquisition_Parameters_Rf><FT_-_Parameters_Rf><parameter name="APF">B3</parameter><parameter name="HFQ">500</parameter><parameter name="LFQ">4000</parameter><parameter name="NLI">0</parameter><parameter name="PHR">24</parameter><parameter name="PHZ">ML</parameter><parameter name="SPZ">NO</parameter><parameter name="ZFF">1</parameter></FT_-_Parameters_Rf><Optic_Parameters_><parameter name="APR">0</parameter><parameter name="APT">Open</parameter><parameter name="BMS">KBr</parameter><parameter name="CHN">Module port</parameter><parameter name="DTC">RT-DLaTGS_IR-Biotyper [Microplate reader]</parameter><parameter name="HPF">0</parameter><parameter name="LPF">10.0</parameter><parameter name="LPV">4000</parameter><parameter name="PGN">0</parameter><parameter name="RDX">0</parameter><parameter name="SRC">MIR</parameter><parameter name="VEL">10.0</parameter><parameter name="SON">Off</parameter></Optic_Parameters_><FT_-_Parameters_><parameter name="APF">B3</parameter><parameter name="HFQ">500</parameter><parameter name="LFQ">4000</parameter><parameter name="NLI">0</parameter><parameter name="PHR">24</parameter><parameter name="PHZ">ML</parameter><parameter name="SPZ">NO</parameter><parameter name="ZFF">1</parameter></FT_-_Parameters_><Acquisition_Parameters_><parameter name="ADT">1</parameter><parameter name="AQM">DD</parameter><parameter name="CFE">0</parameter><parameter name="COR">0</parameter><parameter name="DEL">0</parameter><parameter name="DLY">0</parameter><parameter name="HFW">8000</parameter><parameter name="LFW">0</parameter><parameter name="NSS">32</parameter><parameter name="PLF">AB</parameter><parameter name="RES">6</parameter><parameter name="SOT">0</parameter><parameter name="TCL">MakeCompatibleScalar (0, {WSV=1.000000, ARV=0});</parameter><parameter name="TDL">37</parameter><parameter name="SPO">0</parameter><parameter name="SGN">-1</parameter></Acquisition_Parameters_><Instrument_Parameters_Rf><parameter name="HFL">15800.168544</parameter><parameter name="LFL">0</parameter><parameter name="LWN">15800.168544</parameter><parameter name="ABP">32197</parameter><parameter name="SSP">1</parameter><parameter name="ARG">2</parameter><parameter name="ASG">2</parameter><parameter name="ASS">32</parameter><parameter name="GFW">16</parameter><parameter name="GBW">16</parameter><parameter name="BFW">0</parameter><parameter name="BBW">0</parameter><parameter name="PKA">7266</parameter><parameter name="PKL">4996</parameter><parameter name="PRA">7455</parameter><parameter name="PRL">5001</parameter><parameter name="P2A">1</parameter><parameter name="P2L">1</parameter><parameter name="P2R">1</parameter><parameter name="P2K">1</parameter><parameter name="DAQ">0</parameter><parameter name="AG2">1</parameter><parameter name="SSM">1</parameter><parameter name="RSN">26211</parameter><parameter name="CRR">0</parameter><parameter name="SRT">1654176463.171</parameter><parameter name="DUR">19.6389923095703</parameter><parameter name="TSC">29.2</parameter><parameter name="MVD">0.336793124675751</parameter><parameter name="AN1">0.225837809997654</parameter><parameter name="AN2">0</parameter><parameter name="VSN">2.485 Apr  4 2017</parameter><parameter name="SRN">0085</parameter><parameter name="CAM">0</parameter><parameter name="INS">IR-Biotyper</parameter><parameter name="FOC">69</parameter><parameter name="RDY">1</parameter><parameter name="ARS">32</parameter></Instrument_Parameters_Rf><Sample_Parameters_><parameter name="BLD"></parameter><parameter name="CNM">Admin</parameter><parameter name="CPY"></parameter><parameter name="DPM"></parameter><parameter name="EXP">IRBT_v3_32Scans.XPM</parameter><parameter name="LCT"></parameter><parameter name="SFM">Microplate, HTS-XT</parameter><parameter name="SNM">220602-1248_SMP48F (D_5)_C3_fe6cd9a7-0006-4d83-834b-7a103d590836.0</parameter><parameter name="XPP">C:\Users\Public\Documents\Bruker\OPUS_8.2.28\XPM</parameter><parameter name="IST">OK</parameter><parameter name="CPG">1252</parameter><parameter name="UID">5391d1a5-2adb-42ae-8458-b1ebeee88a6d</parameter></Sample_Parameters_><Instrument_Parameters_><parameter name="HFL">15800.168544</parameter><parameter name="LFL">0</parameter><parameter name="LWN">15800.168544</parameter><parameter name="ABP">32197</parameter><parameter name="SSP">1</parameter><parameter name="ASG">2</parameter><parameter name="ARG">2</parameter><parameter name="ASS">32</parameter><parameter name="GFW">16</parameter><parameter name="GBW">16</parameter><parameter name="BFW">0</parameter><parameter name="BBW">0</parameter><parameter name="PKA">6796</parameter><parameter name="PKL">4988</parameter><parameter name="PRA">6997</parameter><parameter name="PRL">5002</parameter><parameter name="P2A">1</parameter><parameter name="P2L">1</parameter><parameter name="P2R">1</parameter><parameter name="P2K">1</parameter><parameter name="DAQ">0</parameter><parameter name="AG2">1</parameter><parameter name="SSM">1</parameter><parameter name="RSN">13731</parameter><parameter name="CRR">0</parameter><parameter name="SRT">1654176489.403</parameter><parameter name="DUR">19.6379852294922</parameter><parameter name="TSC">29.2</parameter><parameter name="MVD">0.31582635641098</parameter><parameter name="AN1">0.225826541366351</parameter><parameter name="AN2">0</parameter><parameter name="VSN">2.485 Apr  4 2017</parameter><parameter name="SRN">0085</parameter><parameter name="CAM">0</parameter><parameter name="INS">IR-Biotyper</parameter><parameter name="FOC">69</parameter><parameter name="RDY">1</parameter></Instrument_Parameters_><History/></OPUSDataFile>
