<?xml version="1.0" encoding="UTF-8" ?>
<OPUSDataFile><AB><Ydata ylabel="Absorbance Units"><values byteorder="INTEL" format="FLOAT32" numvalues="3497"> -0.09754775 -0.09752525 -0.09751068 -0.0975044 -0.09750181 -0.09750267 -0.09749172 -0.09746929 -0.09743392 -0.09738936
 -0.09735674 -0.09733873 -0.09735794 -0.09740938 -0.0974949 -0.0976033 -0.09771807 -0.09782963 -0.09792054 -0.09798717
 -0.09801999 -0.098023 -0.09799331 -0.09794489 -0.09787994 -0.09781868 -0.0977665 -0.09773573 -0.0977306 -0.09774514
 -0.09778 -0.09781707 -0.09785539 -0.09788136 -0.09789524 -0.09789699 -0.09788807 -0.09787708 -0.09786511 -0.09786067
 -0.09786377 -0.09787878 -0.09790499 -0.09794407 -0.09799261 -0.09804862 -0.09810561 -0.09815801 -0.09820142 -0.09823077
 -0.0982491 -0.09825571 -0.09825697 -0.09825465 -0.09825111 -0.09824709 -0.09824259 -0.09823744 -0.09823507 -0.09823565
 -0.09824358 -0.09825873 -0.09828036 -0.09830785 -0.09833687 -0.09836754 -0.09839799 -0.0984288 -0.09846044 -0.09849352
 -0.09852875 -0.09856775 -0.09861322 -0.09866446 -0.09872506 -0.09878302 -0.09883577 -0.09886315 -0.09885468 -0.09880863
 -0.09871729 -0.09861299 -0.09849786 -0.09841175 -0.09835961 -0.09835566 -0.09840102 -0.0984826 -0.09859885 -0.09872632
 -0.09886307 -0.09898644 -0.09909425 -0.0991651 -0.09920116 -0.09919342 -0.0991535 -0.09909533 -0.09903148 -0.09898346
 -0.09895352 -0.0989532 -0.09897161 -0.09900773 -0.0990452 -0.09907632 -0.09909671 -0.09910129 -0.09910408 -0.09910621
 -0.09912247 -0.09915548 -0.09920022 -0.09925661 -0.09930643 -0.09934977 -0.09938401 -0.09941218 -0.09945313 -0.09950702
 -0.09958743 -0.09968583 -0.09978956 -0.09988811 -0.09995403 -0.09999304 -0.09999671 -0.09998589 -0.09997725 -0.09997676
 -0.0999971 -0.1000203 -0.1000417 -0.10005 -0.1000373 -0.1000221 -0.1000047 -0.1000161 -0.1000612 -0.1001433
 -0.1002636 -0.1003538 -0.1004102 -0.1003515 -0.1001906 -0.09996893 -0.09970295 -0.09947909 -0.09929582 -0.09919308
 -0.09916171 -0.09920768 -0.09931265 -0.09946241 -0.09962756 -0.09978011 -0.09989973 -0.09996162 -0.09997969 -0.09995003
 -0.09990337 -0.09984884 -0.09979638 -0.09975034 -0.09970355 -0.09965523 -0.0996059 -0.09955544 -0.09951515 -0.09948564
 -0.09947762 -0.09949107 -0.09953204 -0.0995985 -0.09968931 -0.09979554 -0.09989674 -0.09998028 -0.1000112 -0.09999362
 -0.09991172 -0.09979326 -0.09965327 -0.09952152 -0.09942009 -0.09936163 -0.09935848 -0.09940381 -0.09950092 -0.09962729
 -0.09978155 -0.09993312 -0.1000795 -0.1001891 -0.1002597 -0.1002706 -0.1002226 -0.1001252 -0.09998242 -0.09982681
 -0.09966083 -0.09951153 -0.09937786 -0.09927075 -0.09918807 -0.0991322 -0.09909813 -0.09908318 -0.09907594 -0.09906641
 -0.0990458 -0.09900249 -0.09894674 -0.09887648 -0.09881637 -0.09877361 -0.098759 -0.09877775 -0.09881725 -0.09887684
 -0.09894466 -0.09901975 -0.09910596 -0.09920334 -0.09931545 -0.09943938 -0.09955785 -0.09966652 -0.09973664 -0.09977194
 -0.09976424 -0.09972666 -0.09967817 -0.09962942 -0.09960307 -0.09959804 -0.09962158 -0.09966812 -0.09973364 -0.09982411
 -0.09994054 -0.1000904 -0.1002817 -0.1004876 -0.1007096 -0.1008881 -0.1010159 -0.1010615 -0.101022 -0.1009055
 -0.1007133 -0.1004651 -0.1001661 -0.09985978 -0.0995537 -0.09930257 -0.09910681 -0.09899903 -0.0989666 -0.09900831
 -0.0990952 -0.09919023 -0.09927562 -0.09931599 -0.09933015 -0.09931828 -0.09930211 -0.09929472 -0.09929116 -0.09929515
 -0.09928584 -0.09925888 -0.09920783 -0.09912957 -0.09904546 -0.0989565 -0.09888844 -0.09884191 -0.09882766 -0.09884462
 -0.09889264 -0.09896669 -0.09905042 -0.09913161 -0.09916714 -0.09915557 -0.09906636 -0.09892523 -0.0987523 -0.09856813
 -0.0984028 -0.09824894 -0.09811284 -0.09797617 -0.09782963 -0.09767456 -0.09750582 -0.0973473 -0.09720308 -0.09708726
 -0.09700401 -0.09693672 -0.09688506 -0.09681176 -0.09671587 -0.09657802 -0.09640365 -0.09622379 -0.09604298 -0.09589953
 -0.09578651 -0.09570439 -0.09564662 -0.09560022 -0.09556511 -0.09553728 -0.09551423 -0.09549555 -0.09546957 -0.09543037
 -0.09536584 -0.09526958 -0.09513515 -0.09496076 -0.09473681 -0.0944606 -0.09413035 -0.09374363 -0.09332258 -0.09286821
 -0.09240977 -0.09194868 -0.09150875 -0.09109149 -0.09071986 -0.0903936 -0.09012692 -0.08991233 -0.08973851 -0.08959545
 -0.08945802 -0.08932456 -0.08918474 -0.08903392 -0.08887133 -0.08867179 -0.08841822 -0.0880997 -0.08769688 -0.08725347
 -0.086776 -0.08630871 -0.08586369 -0.08544769 -0.08506418 -0.08469892 -0.08435123 -0.08400734 -0.08366746 -0.0833386
 -0.08302297 -0.08274423 -0.08249757 -0.0822826 -0.08207811 -0.08182448 -0.08150997 -0.08106907 -0.08054336 -0.07995608
 -0.07935546 -0.07880159 -0.07829452 -0.07785682 -0.07745912 -0.07709651 -0.07673644 -0.07636734 -0.07597579 -0.07555521
 -0.07511631 -0.07465954 -0.07419505 -0.07372387 -0.07324049 -0.07274478 -0.07223339 -0.07170826 -0.07118381 -0.07066105
 -0.07015301 -0.06965688 -0.06917012 -0.06869323 -0.06822489 -0.06776899 -0.06733244 -0.06691097 -0.06650531 -0.06610436
 -0.06569982 -0.06529025 -0.0648735 -0.06444883 -0.06402003 -0.06356357 -0.06307634 -0.06253436 -0.0619304 -0.06129334
 -0.06062348 -0.05998684 -0.05938561 -0.05885481 -0.0583905 -0.05797945 -0.05761392 -0.05725396 -0.05689437 -0.05649689
 -0.05606857 -0.05560159 -0.05511305 -0.05462411 -0.05414203 -0.05368663 -0.05324106 -0.05280373 -0.05234813 -0.05185812
 -0.05133511 -0.05077133 -0.05019774 -0.04961896 -0.04905867 -0.04852187 -0.04800593 -0.04751153 -0.04701876 -0.04652685
 -0.04602224 -0.04550618 -0.04498344 -0.04445486 -0.04392796 -0.04339984 -0.0428652 -0.04232338 -0.04176774 -0.04120656
 -0.04064751 -0.04009942 -0.03957542 -0.03907305 -0.0385964 -0.0381351 -0.03768533 -0.0372407 -0.03679748 -0.03635798
 -0.0359218 -0.0354936 -0.03507483 -0.03465936 -0.03424725 -0.03382088 -0.03337973 -0.03291599 -0.03243204 -0.03194463
 -0.03145576 -0.03098585 -0.03052967 -0.03008375 -0.02964014 -0.0291793 -0.0287029 -0.0282014 -0.02768932 -0.02717516
 -0.02667561 -0.02620598 -0.02576842 -0.02537214 -0.02499648 -0.02464006 -0.02427184 -0.02388482 -0.02346259 -0.02300059
 -0.02250705 -0.02198166 -0.02144749 -0.02090577 -0.02038013 -0.01987085 -0.01939117 -0.01893916 -0.01851358 -0.01811183
 -0.01772561 -0.01735397 -0.0169913 -0.01663725 -0.01628942 -0.01594661 -0.01560676 -0.01526955 -0.01493451 -0.01460062
 -0.01426849 -0.01393248 -0.01359119 -0.01323965 -0.01287582 -0.01250247 -0.01211974 -0.01173024 -0.01133443 -0.01092597
 -0.01050469 -0.01006827 -0.009618712 -0.009172149 -0.008731732 -0.00832167 -0.007941118 -0.007602078 -0.00729763 -0.007021191
 -0.006763037 -0.006506416 -0.006246832 -0.005971194 -0.005687582 -0.00539558 -0.005109359 -0.004836867 -0.004580616 -0.004345311
 -0.004118945 -0.003900293 -0.003677185 -0.003447589 -0.003207069 -0.002955051 -0.002691125 -0.002415316 -0.002129608 -0.00183399
 -0.001529946 -0.0012161 -0.0008862558 -0.000540033 -0.000170044 0.0002161644 0.0006096347 0.0009966744 0.001353146 0.001673746
 0.001940722 0.002166148 0.002350155 0.002512929 0.002664153 0.00281527 0.002973262 0.003136087 0.003304718 0.003474141
 0.003643114 0.003814965 0.003989575 0.004176711 0.004376755 0.004594713 0.004830031 0.005079924 0.005343276 0.005614439
 0.005890657 0.006162301 0.006423717 0.006657881 0.006863665 0.007027357 0.007164531 0.007281634 0.007403906 0.007554065
 0.007734623 0.007960764 0.008194962 0.00843076 0.008628042 0.008771777 0.008872805 0.008926564 0.008986575 0.009057225
 0.009166853 0.009315622 0.009470926 0.009629432 0.009743975 0.00981902 0.009849717 0.009846549 0.009840159 0.009834568
 0.009854495 0.009894952 0.009959378 0.01004177 0.01013679 0.01024208 0.01035372 0.01047342 0.0106 0.0107394
 0.01089382 0.01106509 0.0112569 0.01145157 0.01164963 0.0118143 0.01194268 0.0120078 0.01200899 0.01195727
 0.01185645 0.01174787 0.01163343 0.01154564 0.0114802 0.01143964 0.0114218 0.01142092 0.01144282 0.01149536
 0.01157793 0.01169933 0.01183674 0.01197988 0.01210187 0.01218238 0.01222618 0.01222469 0.01221501 0.01220331
 0.01221943 0.01227103 0.01235027 0.01245848 0.01255936 0.01265108 0.01269862 0.01270272 0.01265485 0.01256152
 0.01244865 0.01232596 0.01223861 0.01218888 0.0122084 0.01228197 0.01240578 0.01255173 0.01268977 0.012801
 0.0128576 0.01287049 0.01283239 0.01277809 0.01271638 0.01267701 0.01266951 0.01270116 0.01277459 0.01288789
 0.01304079 0.0132385 0.01348114 0.01376895 0.01409857 0.0144389 0.01478119 0.01506363 0.015282 0.01538434
 0.01538583 0.01528599 0.01512005 0.01493774 0.01477059 0.0146757 0.014649 0.0147156 0.01482758 0.01497453
 0.01509413 0.01516243 0.01514572 0.01502649 0.01482505 0.01453718 0.01422537 0.01389391 0.01360046 0.01334753
 0.01314476 0.01298881 0.01284726 0.01271801 0.01257099 0.01241234 0.01224493 0.01207777 0.01193493 0.01181341
 0.0117258 0.01164759 0.01156265 0.01143702 0.01123872 0.01095655 0.01056829 0.0101068 0.0095718 0.009021543
 0.008468235 0.007955354 0.007492521 0.00708946 0.006749042 0.006453353 0.006201314 0.005958602 0.005723542 0.005464279
 0.005183927 0.004880411 0.00456164 0.004254531 0.003959264 0.003693759 0.00344367 0.003195154 0.002935866 0.002642691
 0.002324683 0.001976244 0.001624252 0.001279068 0.0009656404 0.0006960682 0.0004780477 0.0003192973 0.0001989906 0.0001189357
 2.939303E-05 -7.309401E-05 -0.0002378845 -0.0004673036 -0.0007695383 -0.001140819 -0.001542529 -0.001969537 -0.00237282 -0.002754014
 -0.003090905 -0.003391923 -0.00366481 -0.003916616 -0.004162887 -0.004403404 -0.004644011 -0.004881981 -0.005115328 -0.005347885
 -0.005580239 -0.00581875 -0.006067713 -0.006321768 -0.006582138 -0.006833448 -0.007072901 -0.007295426 -0.007499346 -0.007699207
 -0.00789576 -0.008107522 -0.00833456 -0.008583914 -0.008853864 -0.009139358 -0.009437689 -0.009737547 -0.01003657 -0.01032322
 -0.01059849 -0.01085748 -0.01110609 -0.01134791 -0.01159041 -0.01184102 -0.01210171 -0.01237734 -0.01266025 -0.01294994
 -0.01323496 -0.01351152 -0.01377829 -0.01403312 -0.01428873 -0.01454597 -0.01481689 -0.01510208 -0.01539833 -0.01570474
 -0.01600942 -0.01631236 -0.01660729 -0.01689528 -0.01717674 -0.01745229 -0.01772311 -0.01799046 -0.01825636 -0.01852308
 -0.01879496 -0.01907 -0.01935112 -0.01962579 -0.01989104 -0.02012726 -0.02032581 -0.02047893 -0.02057782 -0.02065118
 -0.02069744 -0.02077886 -0.02090078 -0.02111234 -0.02141615 -0.02179878 -0.02225472 -0.02271313 -0.02316829 -0.02354842
 -0.02385902 -0.02407586 -0.02421875 -0.02431717 -0.02439646 -0.02451117 -0.02467234 -0.02492056 -0.02523331 -0.02561356
 -0.02601572 -0.02641574 -0.02678733 -0.02711026 -0.02739905 -0.02765314 -0.02789065 -0.02811819 -0.02831511 -0.02848142
 -0.02857745 -0.02860112 -0.02855423 -0.02844187 -0.02832807 -0.02822013 -0.02819646 -0.02825233 -0.0284181 -0.02867315
 -0.02898649 -0.02933744 -0.02967467 -0.02999978 -0.03029011 -0.03056774 -0.03084485 -0.03113065 -0.03144051 -0.03174947
 -0.03205364 -0.03232469 -0.03254983 -0.03274199 -0.03289832 -0.03305816 -0.03322645 -0.03340953 -0.03360797 -0.0337837
 -0.03393548 -0.03403526 -0.03408857 -0.03411379 -0.03411733 -0.03413403 -0.03416068 -0.03420771 -0.03426781 -0.03433077
 -0.03439942 -0.03446911 -0.03455561 -0.03466803 -0.03482336 -0.03503505 -0.03530529 -0.03564313 -0.03602323 -0.0364464
 -0.03686228 -0.03726426 -0.03760717 -0.03788406 -0.03809379 -0.03823587 -0.03835975 -0.03846883 -0.03862245 -0.0388185
 -0.03907766 -0.03938867 -0.03972369 -0.04007045 -0.04038385 -0.0406632 -0.04088325 -0.04105898 -0.04119473 -0.04131299
 -0.04143293 -0.04156903 -0.0417375 -0.04193189 -0.04215767 -0.04238757 -0.04261709 -0.04281887 -0.04298513 -0.04312002
 -0.04322059 -0.04333001 -0.04345055 -0.04362457 -0.04385092 -0.04412331 -0.04443499 -0.04473909 -0.04503545 -0.04529477
 -0.04552966 -0.04575713 -0.045985 -0.04623967 -0.04650754 -0.04678535 -0.0470534 -0.04729095 -0.04749884 -0.04766914
 -0.04781695 -0.04794883 -0.04806409 -0.04816687 -0.04823677 -0.04827016 -0.04825806 -0.04819696 -0.04811305 -0.04800746
 -0.0479313 -0.04788671 -0.0479159 -0.04801551 -0.04818897 -0.04842562 -0.04868944 -0.04896963 -0.04922068 -0.04944076
 -0.04960476 -0.04971983 -0.04978379 -0.04980623 -0.04979322 -0.0497546 -0.04969613 -0.0496285 -0.04955657 -0.04948853
 -0.0494279 -0.04937605 -0.04933457 -0.04929744 -0.0492652 -0.0492207 -0.0491631 -0.04906294 -0.04891895 -0.04870573
 -0.04842628 -0.0480844 -0.0476887 -0.04727288 -0.04684395 -0.04643751 -0.04605234 -0.04570359 -0.04538434 -0.0450923
 -0.0448215 -0.04456668 -0.04432297 -0.04408732 -0.04385302 -0.04361683 -0.04337478 -0.04312328 -0.04287114 -0.04261727
 -0.04238433 -0.04217409 -0.04200899 -0.04189058 -0.04182599 -0.04181461 -0.04184704 -0.04192186 -0.04202555 -0.04215735
 -0.04230869 -0.04247663 -0.04265234 -0.04282661 -0.04298101 -0.04310525 -0.04317726 -0.04319937 -0.04316182 -0.04308387
 -0.04297251 -0.0428469 -0.04271824 -0.04258791 -0.04246017 -0.04232303 -0.04217498 -0.04200738 -0.04181848 -0.04161081
 -0.04138422 -0.04115471 -0.04092416 -0.04072401 -0.04055711 -0.04045919 -0.04042887 -0.04048267 -0.0406113 -0.04080156
 -0.04104098 -0.04130138 -0.04157669 -0.04184481 -0.04211547 -0.04238337 -0.04267851 -0.043012 -0.04342238 -0.04392942
 -0.04454741 -0.04529103 -0.04612608 -0.04705476 -0.04800582 -0.04897317 -0.04989046 -0.05075289 -0.05153529 -0.05223863
 -0.05288004 -0.05346217 -0.05401221 -0.05452825 -0.05501731 -0.05547592 -0.05589605 -0.05628225 -0.05663637 -0.05696984
 -0.0572991 -0.05762681 -0.05796458 -0.05829915 -0.05862731 -0.0589336 -0.05920995 -0.05945216 -0.05965667 -0.0598279
 -0.05996612 -0.06007531 -0.06015637 -0.06020683 -0.06022668 -0.06020747 -0.06014949 -0.06005507 -0.05992933 -0.05980664
 -0.05969587 -0.05965298 -0.05967762 -0.05980311 -0.06001059 -0.06028583 -0.06060168 -0.06091861 -0.06121992 -0.06147564
 -0.06168712 -0.06184462 -0.06196203 -0.06204144 -0.06209916 -0.06214003 -0.06217416 -0.06220427 -0.06223388 -0.06226311
 -0.06229939 -0.06234278 -0.06241811 -0.06252775 -0.06271491 -0.0629821 -0.06337094 -0.06387574 -0.06450225 -0.06522975
 -0.06601118 -0.06682048 -0.06758631 -0.06830211 -0.06892394 -0.06947614 -0.06996099 -0.07041355 -0.07085747 -0.07130738
 -0.07177904 -0.07225852 -0.07274746 -0.07321981 -0.07367154 -0.0740818 -0.07444714 -0.07476226 -0.07502624 -0.07525228
 -0.07544169 -0.07561933 -0.07578647 -0.07596491 -0.07615276 -0.07635564 -0.07656743 -0.07677575 -0.07697374 -0.07714152
 -0.07728018 -0.07737918 -0.07745346 -0.07750934 -0.07756891 -0.07764865 -0.07775706 -0.07790645 -0.07807765 -0.07827112
 -0.07845269 -0.07861517 -0.07874233 -0.07882909 -0.07889533 -0.07894166 -0.07900205 -0.07907714 -0.07917671 -0.07929741
 -0.0794181 -0.07953725 -0.07963465 -0.07971689 -0.07979055 -0.07986411 -0.07995859 -0.08007246 -0.0802149 -0.08037455
 -0.08054513 -0.08071584 -0.08087832 -0.0810264 -0.08115611 -0.08126247 -0.08134243 -0.08139779 -0.08142597 -0.08144629
 -0.08145962 -0.0814929 -0.08154825 -0.08163511 -0.08175293 -0.08188716 -0.08203632 -0.08218202 -0.08232491 -0.08245835
 -0.08258324 -0.08269919 -0.08280538 -0.08289962 -0.08298247 -0.08305308 -0.08311439 -0.08316949 -0.08321804 -0.08326205
 -0.08329573 -0.0833161 -0.08332299 -0.08331262 -0.08330207 -0.08329244 -0.08330736 -0.08335076 -0.08342718 -0.08353782
 -0.08366159 -0.08379728 -0.0839209 -0.08403322 -0.08412902 -0.08421072 -0.0842862 -0.08435614 -0.08442679 -0.08449705
 -0.08456811 -0.08463777 -0.08470467 -0.08476396 -0.08481066 -0.08484178 -0.08485091 -0.08484836 -0.08483358 -0.08482926
 -0.08484196 -0.08488656 -0.08496942 -0.08508137 -0.08522357 -0.0853709 -0.0855217 -0.08565707 -0.08577669 -0.08587991
 -0.08596825 -0.08605347 -0.08613633 -0.08622708 -0.08632363 -0.08642633 -0.08653099 -0.0866298 -0.08672005 -0.08679391
 -0.08685351 -0.08689666 -0.08693035 -0.08695773 -0.08698615 -0.08702005 -0.08706154 -0.0871129 -0.08717039 -0.08723395
 -0.08729833 -0.08736273 -0.08742496 -0.08748471 -0.0875444 -0.08760416 -0.08766659 -0.08773091 -0.08779228 -0.08784873
 -0.08788783 -0.08791083 -0.08791234 -0.08790045 -0.08788719 -0.08788148 -0.08790239 -0.08794844 -0.08802767 -0.08812784
 -0.08824409 -0.08836475 -0.08848301 -0.08859453 -0.08869637 -0.0887886 -0.08887064 -0.0889439 -0.08900833 -0.08906644
 -0.08911837 -0.08916634 -0.08921048 -0.08925296 -0.08929418 -0.08933864 -0.0893866 -0.08944232 -0.08950467 -0.08957303
 -0.08964533 -0.08971704 -0.08978716 -0.08985242 -0.08991278 -0.08996712 -0.09001563 -0.09005794 -0.09009497 -0.09012678
 -0.09015511 -0.09018048 -0.09020408 -0.09022613 -0.09024806 -0.09026986 -0.09029464 -0.09032255 -0.09035813 -0.09040154
 -0.09045476 -0.09051728 -0.09058567 -0.09065895 -0.09073053 -0.09080047 -0.09086514 -0.0909263 -0.09098639 -0.09104527
 -0.09110527 -0.09116145 -0.09120973 -0.09124698 -0.09126747 -0.09127886 -0.0912817 -0.09128866 -0.09130513 -0.09133203
 -0.09137204 -0.09141318 -0.09145415 -0.0914869 -0.09151037 -0.09152932 -0.09154406 -0.09156248 -0.09158449 -0.09161251
 -0.09164631 -0.09168593 -0.09173155 -0.09178445 -0.09184337 -0.09190717 -0.09197279 -0.0920352 -0.09209341 -0.09214386
 -0.09218909 -0.09222992 -0.09226781 -0.09230451 -0.09233711 -0.09236499 -0.09238609 -0.09239904 -0.09240823 -0.0924138
 -0.0924218 -0.09243284 -0.09244782 -0.09246669 -0.09248669 -0.09250782 -0.09252921 -0.09255118 -0.09257481 -0.09260016
 -0.09262796 -0.09265818 -0.09269103 -0.09272677 -0.09276621 -0.09280835 -0.09285326 -0.09289756 -0.09293953 -0.09297502
 -0.09300126 -0.09301754 -0.09302196 -0.09302013 -0.09301216 -0.09300713 -0.09300642 -0.09301443 -0.09303185 -0.09305503
 -0.09308373 -0.09311224 -0.09314074 -0.09316874 -0.09319669 -0.09322695 -0.09325857 -0.09329022 -0.09332015 -0.09334356
 -0.09336074 -0.0933693 -0.09337212 -0.09337096 -0.09336879 -0.09336843 -0.09337059 -0.09337666 -0.09338503 -0.0933958
 -0.09340613 -0.09341539 -0.0934219 -0.0934251 -0.09342648 -0.09342603 -0.09342739 -0.09343065 -0.09343574 -0.09344222
 -0.09344573 -0.09344646 -0.09344239 -0.09343581 -0.09343263 -0.09343497 -0.09345123 -0.09347927 -0.093521 -0.09356979
 -0.09361988 -0.09366604 -0.09370178 -0.09372877 -0.09374506 -0.09375765 -0.09376835 -0.09378237 -0.09380175 -0.0938253
 -0.09385363 -0.09388045 -0.0939054 -0.09392224 -0.09393072 -0.09392902 -0.09391765 -0.09390071 -0.09387953 -0.09386282
 -0.09385158 -0.09385405 -0.09386875 -0.09389775 -0.09393619 -0.09397855 -0.09401936 -0.09405044 -0.09407081 -0.09407566
 -0.09407156 -0.09405941 -0.09404865 -0.09404303 -0.09404618 -0.09406063 -0.09408059 -0.094106 -0.09412818 -0.09414627
 -0.09415738 -0.09416148 -0.09416206 -0.09415944 -0.09415808 -0.09415802 -0.0941616 -0.09416892 -0.09418166 -0.0941996
 -0.09422386 -0.09425227 -0.09428298 -0.09431193 -0.09433425 -0.09434767 -0.09434785 -0.09433851 -0.09431912 -0.0942979
 -0.09427756 -0.094263 -0.0942567 -0.09425527 -0.09425905 -0.09426036 -0.09425848 -0.0942505 -0.09423636 -0.09422038
 -0.09420304 -0.09419085 -0.0941835 -0.09418306 -0.0941882 -0.09419578 -0.0942046 -0.09421019 -0.09421302 -0.09421143
 -0.09420737 -0.09420203 -0.09419769 -0.09419619 -0.09419956 -0.09420945 -0.09422614 -0.094251 -0.09427954 -0.09431197
 -0.09433889 -0.09435917 -0.09436458 -0.09435407 -0.09432739 -0.0942846 -0.09423332 -0.09417425 -0.09411742 -0.09406322
 -0.09401922 -0.09398493 -0.0939632 -0.0939524 -0.0939506 -0.09395584 -0.09396429 -0.09397486 -0.09398495 -0.09399427
 -0.09400204 -0.09400763 -0.09401098 -0.09401007 -0.09400444 -0.09399153 -0.09397024 -0.09394155 -0.09390478 -0.09386692
 -0.09382831 -0.09379814 -0.09377687 -0.09376859 -0.09377287 -0.09378666 -0.09380943 -0.09383668 -0.0938689 -0.09390494
 -0.09394651 -0.09399611 -0.09405671 -0.09413338 -0.09422958 -0.09435046 -0.09449919 -0.09467928 -0.09489334 -0.0951433
 -0.09543129 -0.09575909 -0.09612465 -0.09652852 -0.09696423 -0.09743069 -0.09792591 -0.09844962 -0.09900364 -0.09958767
 -0.1001696 -0.1007424 -0.1012183 -0.1015908 -0.1017744 -0.1017798 -0.1015949 -0.1012399 -0.1007499 -0.1001495
 -0.09948304 -0.09878932 -0.09812366 -0.09751771 -0.0970138 -0.09661955 -0.09635052 -0.09620143 -0.09617726 -0.09625604
 -0.0964416 -0.09667055 -0.09693878 -0.09715899 -0.0973208 -0.09740368 -0.09740665 -0.09737864 -0.09732107 -0.09726578
 -0.09720909 -0.09714646 -0.09707498 -0.09698129 -0.0968679 -0.09673236 -0.0965819 -0.09642715 -0.09627216 -0.0961278
 -0.09598765 -0.09585184 -0.09570915 -0.09555254 -0.09538004 -0.09518727 -0.09498462 -0.09477247 -0.09456636 -0.09436847
 -0.094191 -0.09403573 -0.09390278 -0.09379216 -0.0936904 -0.09359683 -0.09349869 -0.09339739 -0.09329426 -0.09319109
 -0.09309548 -0.09300627 -0.09292465 -0.09284871 -0.09277504 -0.09270477 -0.09263769 -0.09257547 -0.09252035 -0.09246974
 -0.09242342 -0.09237706 -0.09232832 -0.09227785 -0.09222453 -0.09217466 -0.09212903 -0.09209225 -0.09206518 -0.0920447
 -0.09203064 -0.0920145 -0.09199601 -0.0919695 -0.09193579 -0.09189623 -0.09185239 -0.0918102 -0.09177093 -0.09174038
 -0.091719 -0.0917108 -0.09171356 -0.0917275 -0.09174708 -0.09176868 -0.09178662 -0.09179638 -0.09179713 -0.09178706
 -0.09176908 -0.09174371 -0.09171254 -0.09167606 -0.09163366 -0.09158526 -0.09153116 -0.09147137 -0.09140948 -0.09134591
 -0.0912868 -0.09123254 -0.0911888 -0.09115474 -0.0911309 -0.09111503 -0.09110195 -0.09109037 -0.09107526 -0.09105802
 -0.09103805 -0.09101749 -0.09099833 -0.0909803 -0.09096401 -0.09094808 -0.09093188 -0.09091551 -0.09089881 -0.09088231
 -0.09086644 -0.09084851 -0.09082849 -0.09080149 -0.09076726 -0.09072547 -0.09067669 -0.09062832 -0.09058092 -0.09054232
 -0.09051111 -0.09048686 -0.0904672 -0.09044574 -0.09042251 -0.09039386 -0.09036293 -0.09033177 -0.09030332 -0.09028107
 -0.09026482 -0.09025624 -0.09025132 -0.09024965 -0.09024511 -0.09023593 -0.09021894 -0.09019249 -0.09016201 -0.09012743
 -0.09010006 -0.09008052 -0.09007395 -0.09007967 -0.09008956 -0.09010225 -0.0901047 -0.09009775 -0.0900765 -0.09004482
 -0.09000928 -0.08997345 -0.08994697 -0.08992931 -0.08992482 -0.08992805 -0.08993695 -0.0899444 -0.08994568 -0.08993769
 -0.089917 -0.08988824 -0.08985116 -0.0898143 -0.08977929 -0.08974952 -0.0897259 -0.08970381 -0.08968303 -0.08965836
 -0.08963005 -0.08960032 -0.08956997 -0.0895455 -0.08952656 -0.08951568 -0.08951122 -0.08951046 -0.08951215 -0.08951298
 -0.08951256 -0.08950939 -0.08950285 -0.089492 -0.08947645 -0.08945529 -0.08943018 -0.08940114 -0.08937119 -0.08934109
 -0.08931268 -0.0892865 -0.08926257 -0.08924095 -0.08922176 -0.089205 -0.08919155 -0.08918132 -0.08917376 -0.08916842
 -0.0891622 -0.08915492 -0.08914409 -0.08913031 -0.0891139 -0.08909535 -0.08907595 -0.08905518 -0.08903293 -0.08900881
 -0.08898207 -0.0889538 -0.0889242 -0.0888949 -0.08886661 -0.0888401 -0.0888157 -0.08879381 -0.08877454 -0.08875815
 -0.08874474 -0.08873364 -0.0887248 -0.08871566 -0.08870601 -0.08869231 -0.08867472 -0.08865213 -0.08862554 -0.08859814
 -0.08857091 -0.08854847 -0.08852969 -0.08851533 -0.08850235 -0.0884873 -0.08846839 -0.08844247 -0.0884107 -0.08837221
 -0.0883306 -0.08828647 -0.0882449 -0.08820705 -0.08817766 -0.08815815 -0.08814794 -0.08814751 -0.08815027 -0.08815584
 -0.08815841 -0.088158 -0.08815518 -0.08815023 -0.08814552 -0.08814052 -0.08813448 -0.08812663 -0.08811449 -0.08809815
 -0.0880767 -0.08805039 -0.08801898 -0.08798313 -0.08794257 -0.08790035 -0.08785752 -0.08781845 -0.08778557 -0.0877593
 -0.08774086 -0.08772621 -0.08771484 -0.0877038 -0.08769245 -0.08768267 -0.08767452 -0.08767008 -0.08766914 -0.08766846
 -0.08766746 -0.08766036 -0.08764749 -0.08762666 -0.08759946 -0.0875688 -0.08753596 -0.0875048 -0.0874748 -0.08744739
 -0.08742013 -0.0873915 -0.08735958 -0.08732218 -0.08728077 -0.08723461 -0.08718889 -0.08714479 -0.08710631 -0.0870747
 -0.08704928 -0.08703026 -0.08701472 -0.08700248 -0.08699173 -0.08698241 -0.08697339 -0.08696447 -0.08695368 -0.08694091
 -0.08692452 -0.08690481 -0.08688147 -0.08685542 -0.08682792 -0.0868002 -0.08677437 -0.08675092 -0.08673159 -0.08671445
 -0.08669923 -0.0866831 -0.08666465 -0.08664305 -0.08661761 -0.08658941 -0.08655857 -0.08652575 -0.08649098 -0.08645519
 -0.08641838 -0.08638274 -0.0863483 -0.08631616 -0.08628608 -0.08625693 -0.08622852 -0.08619946 -0.08616984 -0.08613931
 -0.08610775 -0.08607465 -0.08604016 -0.08600391 -0.08596722 -0.08593091 -0.08589657 -0.08586551 -0.08583816 -0.08581549
 -0.0857954 -0.08577818 -0.0857586 -0.08573603 -0.08570465 -0.0856635 -0.08561175 -0.08554915 -0.0854823 -0.08541165
 -0.08534593 -0.0852851 -0.08523335 -0.08518942 -0.08515076 -0.08511564 -0.08507794 -0.0850374 -0.08498995 -0.08493827
 -0.08488365 -0.0848297 -0.08478054 -0.08473671 -0.08470039 -0.08466855 -0.08464076 -0.08461335 -0.08458521 -0.08455423
 -0.08451986 -0.08448086 -0.08443692 -0.08438846 -0.08433542 -0.08428096 -0.0842253 -0.08417334 -0.08412501 -0.08408283
 -0.08404578 -0.08401114 -0.08397752 -0.08393932 -0.08389705 -0.08384831 -0.08379605 -0.0837432 -0.08369157 -0.08364487
 -0.08360023 -0.08355778 -0.08351193 -0.08346003 -0.08339989 -0.08332945 -0.08325298 -0.08317032 -0.08308935 -0.08301086
 -0.0829413 -0.08288127 -0.08283076 -0.08278947 -0.082751 -0.0827149 -0.08267452 -0.08263034 -0.08258073 -0.08252674
 -0.08247038 -0.08241233 -0.08235504 -0.08229797 -0.08224183 -0.08218481 -0.08212538 -0.08206271 -0.08199501 -0.08192516
 -0.08185364 -0.08178402 -0.08171784 -0.08165517 -0.08159661 -0.08153941 -0.08148339 -0.08142588 -0.0813667 -0.08130314
 -0.08123516 -0.08116171 -0.08108336 -0.08100379 -0.0809236 -0.08084799 -0.08077568 -0.08070599 -0.08063684 -0.08056293
 -0.08048603 -0.08040515 -0.08032577 -0.08025307 -0.08018909 -0.08013853 -0.08009475 -0.08005728 -0.08001553 -0.07996589
 -0.07990388 -0.07982707 -0.07974055 -0.0796442 -0.07954743 -0.07945091 -0.07936075 -0.0792771 -0.07920127 -0.07913326
 -0.07907414 -0.07902365 -0.07898232 -0.07894769 -0.07891437 -0.07887761 -0.07882517 -0.07875585 -0.07866064 -0.07854737
 -0.07841875 -0.07828555 -0.07815568 -0.07803424 -0.07792622 -0.07782961 -0.07774541 -0.07766826 -0.07759748 -0.07752822
 -0.07745975 -0.07738981 -0.07731812 -0.07724619 -0.07717422 -0.07710737 -0.07704541 -0.07699009 -0.0769387 -0.07688062
 -0.0768128 -0.07671884 -0.07660326 -0.076465 -0.0763142 -0.07616486 -0.07602131 -0.0758936 -0.07577924 -0.07567963
 -0.07559155 -0.07551423 -0.07544417 -0.0753812 -0.07531794 -0.07525368 -0.07517814 -0.07508986 -0.07498313 -0.07485718
 -0.07471711 -0.07456353 -0.07441004 -0.07425741 -0.07411822 -0.07399136 -0.07387918 -0.07377902 -0.07368469 -0.07359406
 -0.07350035 -0.07340184 -0.07329363 -0.0731744 -0.07303981 -0.07289422 -0.07273706 -0.07257966 -0.07242709 -0.07228584
 -0.07216081 -0.07204512 -0.07193923 -0.07183006 -0.07171577 -0.07159022 -0.07145259 -0.07130705 -0.07115383 -0.07099838
 -0.07084019 -0.07067726 -0.07050883 -0.07032927 -0.07014087 -0.06994683 -0.06975076 -0.06956311 -0.0693811 -0.06920724
 -0.06903239 -0.0688483 -0.06865009 -0.06842922 -0.06819458 -0.067946 -0.0676996 -0.06746055 -0.06723794 -0.06703623
 -0.06684848 -0.06667631 -0.06649319 -0.0662975 -0.06606258 -0.06578813 -0.06548223 -0.06514732 -0.06480969 -0.06446753
 -0.06412695 -0.0637828 -0.06342265 -0.06304431 -0.06263638 -0.06220195 -0.06173892 -0.06125544 -0.06075677 -0.06025449
 -0.05975816 -0.05927312 -0.05880686 -0.05834941 -0.05789983 -0.05744651 -0.05698437 -0.05652327 -0.05606303 -0.0556207
 -0.05519799 -0.05479481 -0.05441102 -0.0540399 -0.05368161 -0.05333588 -0.05300181 -0.05267668 -0.05235589 -0.05202485
 -0.05167884 -0.05129926 -0.05088994 -0.05044603 -0.04997914 -0.04949963 -0.04901304 -0.04852741 -0.0480401 -0.04755179
 -0.04705967 -0.04656306 -0.04606038 -0.04555377 -0.04502664 -0.04448044 -0.04386857 -0.04318725 -0.04240599 -0.04152563
 -0.04060826 -0.03965875 -0.03875192 -0.03787851 -0.03703288 -0.0362046 -0.03535757 -0.03449234 -0.03359395 -0.0326633
 -0.03170229 -0.03069177 -0.02962199 -0.02845217 -0.02714903 -0.02569717 -0.02406144 -0.02232035 -0.02047873 -0.01866012
 -0.01689582 -0.01523399 -0.01368902 -0.01224275 -0.01089596 -0.009610101 -0.008382103 -0.007139126 -0.005872679 -0.004464552
 -0.002924649 -0.001217369 0.0005995202 0.002356195 0.004038359 0.005514353 0.006848992 0.008081887 0.009262368 0.01046156
 0.01168127 0.01294575 0.01423987 0.01556076 0.01690243 0.01826725 0.01962777 0.02098127 0.0222904 0.02354651
 0.02475924 0.02592853 0.02707163 0.02818792 0.02922968 0.03019255 0.03101222 0.03169417 0.03223181 0.03263332
 0.03292173 0.03309793 0.03317066 0.03314875 0.03304419 0.0328762 0.03266824 0.03243273 0.03218234 0.03193275
 0.03169431 0.0314762 0.0312882 0.03111086 0.03094429 0.03075611 0.03054155 0.03028167 0.0299732 0.02963356
 0.02926403 0.02890638 0.02855962 0.02823156 0.02791587 0.02758405 0.02723378 0.02683936 0.02641068 0.02595126
 0.02548333 0.02504132 0.02463889 0.02430557 0.02403659 0.02383522 0.02370277 0.02363745 0.02365308 0.02375665
 0.02394354 0.0242171 0.02455173 0.0249435 0.02538214 0.02586576 0.0264044 0.0269985 0.02765688 0.02837882
 0.02916079 0.03000072 0.03088672 0.03181671 0.03277744 0.0337693 0.03478583 0.03583061 0.03690644 0.03801541
 0.03916163 0.04034314 0.04156053 0.04280947 0.04408894 0.04539225 0.04671727 0.04805828 0.04941349 0.05078129
 0.05216263 0.0535447 0.05492729 0.05628373 0.057613 0.05891154 0.06018193 0.06145538 0.06272573 0.0639843
 0.06520896 0.06631757 0.06730984 0.06813838 0.06882967 0.0694078 0.0698808 0.07027012 0.07056418 0.07076024
 0.07085184 0.07084201 0.07069993 0.07042959 0.06994192 0.06921085 0.06821309 0.06691889 0.06553851 0.06408889
 0.06269931 0.06137412 0.06001405 0.0586142 0.05708732 0.05544173 0.05367764 0.05180256 0.04985127 0.04780142
 0.04563598 0.04329535 0.04065631 0.03775418 0.03450549 0.0311911 0.02800508 0.0250855 0.02261214 0.02038707
 0.01838061 0.01643 0.01447574 0.01252978 0.01058064 0.008704067 0.006908154 0.005201355 0.003583696 0.002001765
 0.0004539584 -0.001097577 -0.002646414 -0.004179463 -0.005686721 -0.007126523 -0.008498254 -0.00977666 -0.01097453 -0.0120989
 -0.01316527 -0.01419016 -0.01519141 -0.01617941 -0.01719131 -0.01824581 -0.01937746 -0.02062541 -0.02189695 -0.02319448
 -0.02433804 -0.02528623 -0.02605546 -0.02663744 -0.02716836 -0.02765463 -0.02817178 -0.02871625 -0.02927218 -0.02983239
 -0.0303466 -0.03081974 -0.03124277 -0.03162193 -0.03197289 -0.0322832 -0.03254312 -0.03273395 -0.03282678 -0.03282664
 -0.03272427 -0.03254082 -0.03228527 -0.03197043 -0.03160377 -0.03118679 -0.03072415 -0.03019824 -0.02961199 -0.02890914
 -0.02808517 -0.02708878 -0.0259181 -0.02465322 -0.02330567 -0.02204203 -0.02085847 -0.0198206 -0.01891167 -0.01810636
 -0.01740053 -0.01677301 -0.01622475 -0.01575544 -0.01534577 -0.01498383 -0.01462621 -0.01423397 -0.01378903 -0.01325689
 -0.01269344 -0.01211096 -0.01155323 -0.01104127 -0.01054854 -0.01007631 -0.009579486 -0.009052924 -0.008483539 -0.007870653
 -0.007245621 -0.006610271 -0.005998936 -0.00540643 -0.004824546 -0.004240158 -0.003603141 -0.002906967 -0.002104353 -0.001215085
 -0.0002472882 0.0007738951 0.001810103 0.00286968 0.003944666 0.005053383 0.006209667 0.007401267 0.008630763 0.009868164
 0.01110347 0.01233572 0.01355955 0.01481143 0.01609513 0.01742805 0.01881098 0.02017376 0.02150882 0.02270001
 0.02374711 0.02459015 0.02523443 0.02567031 0.02589379 0.02589167 0.02565714 0.02516863 0.02443621 0.02345599
 0.0222593 0.02086568 0.0193078 0.01760904 0.01578281 0.01383773 0.01178231 0.009610839 0.007379912 0.005088761
 0.002851422 0.0006790196 -0.001355016 -0.003246285 -0.00502153 -0.006684371 -0.008291579 -0.009839423 -0.01133638 -0.01277187
 -0.01410965 -0.01535057 -0.01647367 -0.01749678 -0.01843785 -0.01931579 -0.02016006 -0.0209774 -0.02178437 -0.02257505
 -0.02335159 -0.02410376 -0.02482833 -0.0255183 -0.0261707 -0.02678549 -0.0273613 -0.02790681 -0.02842249 -0.02891922
 -0.02939766 -0.02985382 -0.03028592 -0.03066882 -0.03100078 -0.03125712 -0.03144103 -0.03154955 -0.03158927 -0.03157357
 -0.03150863 -0.03140994 -0.0312821 -0.0311361 -0.03097429 -0.03080061 -0.03062025 -0.03043387 -0.03025652 -0.03009145
 -0.0299597 -0.02986671 -0.02982752 -0.02984622 -0.02992416 -0.0300629 -0.03024751 -0.03047727 -0.03072617 -0.03099307
 -0.03125701 -0.03151786 -0.03176494 -0.031997 -0.03220441 -0.03238454 -0.0325252 -0.03262752 -0.03268608 -0.0327078
 -0.03269792 -0.03266364 -0.03261271 -0.03254811 -0.03247368 -0.03238939 -0.03229573 -0.0321935 -0.03208204 -0.03196711
 -0.03184845 -0.03173866 -0.03163873 -0.03156092 -0.03150603 -0.03147498 -0.03146704 -0.03147186 -0.03148858 -0.03150629
 -0.0315255 -0.03154183 -0.03155733 -0.03157409 -0.03159546 -0.03162791 -0.0316738 -0.03173961 -0.03182248 -0.03192391
 -0.03203544 -0.03215367 -0.03226954 -0.03237854 -0.0324769 -0.03256205 -0.03263698 -0.03270135 -0.03276142 -0.03281792
 -0.03287347 -0.03292829 -0.03297806 -0.03302239 -0.03305475 -0.03307512 -0.03307993 -0.0330696 -0.03304395 -0.03300323
 -0.03294814 -0.03287829 -0.03279357 -0.03269303 -0.03257525 -0.03244035 -0.03228685 -0.03211884 -0.03193722 -0.03174868
 -0.03155576 -0.03136347 -0.03117343 -0.03098897 -0.03081054 -0.03064254 -0.03048551 -0.03034177 -0.03021155 -0.03008984
 -0.02997611 -0.0298611 -0.02974489 -0.02962281 -0.02949677 -0.02937087 -0.02924815 -0.02913823 -0.02904291 -0.02897011
 -0.02891885 -0.02889145 -0.02888523 -0.0288989 -0.02892994 -0.02897696 -0.02903717 -0.02910963 -0.02919072 -0.02927933
 -0.02937336 -0.02947196 -0.02957669 -0.02968755 -0.02980702 -0.02993525 -0.03007296 -0.03022003 -0.03037524 -0.03053817
 -0.03070601 -0.03087773 -0.03104831 -0.03121613 -0.0313748 -0.03152276 -0.03165407 -0.03176913 -0.03186508 -0.03194594
 -0.03201303 -0.03207309 -0.03213029 -0.03218894 -0.03225259 -0.03231906 -0.03238932 -0.03245621 -0.03251865 -0.03257154
 -0.03261379 -0.03264795 -0.03267406 -0.03269861 -0.03272146 -0.03274169 -0.03275751 -0.0327561 -0.03273645 -0.03268656
 -0.03260928 -0.03250557 -0.03237883 -0.03223698 -0.03207782 -0.03190292 -0.0317063 -0.03148276 -0.03123032 -0.03094503
 -0.03063169 -0.03029091 -0.02992853 -0.02954678 -0.02914617 -0.02872733 -0.02828802 -0.02782759 -0.0273499 -0.02685502
 -0.02635411 -0.02584762 -0.02534381 -0.02484226 -0.02434355 -0.02384798 -0.02335683 -0.02287139 -0.02239686 -0.02193114
 -0.02147382 -0.02102028 -0.02056319 -0.02010386 -0.019639 -0.01917711 -0.01872235 -0.01828033 -0.01785513 -0.01744557
 -0.01705228 -0.01667261 -0.01630648 -0.01595014 -0.01560361 -0.01525917 -0.01491633 -0.01456871 -0.01421622 -0.0138579
 -0.01349374 -0.01312351 -0.01274643 -0.01235923 -0.01196112 -0.01154843 -0.01112074 -0.01067559 -0.01021297 -0.009731789
 -0.009232532 -0.008715015 -0.008180458 -0.007628503 -0.00706378 -0.006485824 -0.005907638 -0.005331462 -0.004772881 -0.004236008
 -0.003723561 -0.003237269 -0.00276549 -0.00230758 -0.001854409 -0.001406011 -0.0009638909 -0.0005285079 -0.0001040002 0.0003100143
 0.0007125487 0.001105022 0.001489871 0.001870127 0.002252279 0.002638622 0.003035844 0.003441239 0.003855754 0.004273285
 0.004691273 0.005102519 0.005504191 0.005888764 0.006251941 0.006597932 0.006923955 0.007255228 0.007593943 0.00796338
 0.008365767 0.008791925 0.009240447 0.00968183 0.01011605 0.01052851 0.01092234 0.01130376 0.0116731 0.01203641
 0.01238775 0.01272059 0.01302569 0.01328807 0.01350347 0.01366001 0.0137667 0.01382287 0.0138466 0.01384533
 0.01383055 0.01380765 0.01377842 0.01374373 0.01370534 0.01366343 0.01362046 0.01357664 0.01353182 0.01348625
 0.01344484 0.01340857 0.01338828 0.01338275 0.01339357 0.01341711 0.01344301 0.01347184 0.01349898 0.01352839
 0.01356592 0.0136067 0.01365258 0.01368555 0.01369698 0.01366773 0.01358651 0.01344766 0.01324433 0.01299141
 0.01268825 0.01236339 0.01201977 0.01168034 0.01134708 0.01102546 0.01071544 0.01041392 0.01012084 0.009834845
 0.009555888 0.009283129 0.00901641 0.00875473 0.008498317 0.00824826 0.008001708 0.00775729 0.007506982 0.00724398
 0.00695994 0.006647903 0.006302877 0.005921174 0.005500416 0.005038235 0.004538856 0.004001739 0.003437367 0.002847221
 0.002235081 0.001601443 0.0009424821 0.0002585052 -0.0004433848 -0.001160997 -0.001873256 -0.002579551 -0.003265419 -0.003933216
 -0.004582799 -0.005214754 -0.005830538 -0.006428973 -0.007008343 -0.007569939 -0.008114183 -0.008642716 -0.009157195 -0.00965672
 -0.01014111 -0.0106103 -0.01106418 -0.01150319 -0.01192797 -0.01233477 -0.01272325 -0.01309006 -0.01343476 -0.01376099
 -0.01406904 -0.01436541 -0.01465021 -0.01492721 -0.01519602 -0.01545759 -0.0157102 -0.01595016 -0.0161747 -0.01637554
 -0.01655441 -0.01670781 -0.0168452 -0.01697315 -0.0171017 -0.01723993 -0.01739057 -0.01755846 -0.0177375 -0.01792879
 -0.01811729 -0.01830135 -0.01846291 -0.01859884 -0.01870491 -0.01878003 -0.01883985 -0.01888528 -0.01893456 -0.01898726
 -0.0190481 -0.01911543 -0.01918456 -0.01925434 -0.01931953 -0.01937913 -0.0194291 -0.01946806 -0.01949291 -0.01950168
 -0.0194912 -0.01946118 -0.01940837 -0.01934078 -0.01925895 -0.01917825 -0.01910455 -0.01904212 -0.0189956 -0.01894669
 -0.01889441 -0.01881652 -0.01871082 -0.0185766 -0.01841451 -0.01824471 -0.01806879 -0.01790908 -0.01776511 -0.01764739
 -0.01755297 -0.0174789 -0.01742258 -0.01737654 -0.01734216 -0.0173186 -0.0173065 -0.01730927 -0.01731712 -0.01732733
 -0.01732321 -0.01729549 -0.01723882 -0.01714725 -0.01703225 -0.01689491 -0.01674637 -0.01658913 -0.01642023 -0.01623983
 -0.01603878 -0.01581704 -0.01557792 -0.01532348 -0.01507341 -0.01482857 -0.01460557 -0.014399 -0.01420286 -0.0140091
 -0.01379706 -0.01356672 -0.01330701 -0.01302741 -0.01273249 -0.01243174 -0.01213274 -0.01184096 -0.01155979 -0.01129526
 -0.01104945 -0.01082808 -0.01063345 -0.01046364 -0.01031947 -0.01019111 -0.01007798 -0.009970727 -0.009869014 -0.009768981
 -0.009670867 -0.009575347 -0.009482244 -0.009391401 -0.009301667 -0.009209967 -0.009114419 -0.009010089 -0.00889504 -0.008764287
 -0.008617554 -0.00845083 -0.008270889 -0.00807813 -0.007888214 -0.007707524 -0.007549959 -0.007423428 -0.007324235 -0.007255607
 -0.007195382 -0.007141883 -0.007071035 -0.0069806 -0.006860577 -0.006710783 -0.00653593 -0.006337138 -0.006125661 -0.005903261
 -0.005683567 -0.005468795 -0.005273815 -0.005096988 -0.004945095 -0.004807757 -0.004674528 -0.004533404 -0.004365953 -0.004174725
 -0.003952009 -0.003716414 -0.003474437 -0.003240442 -0.003022261 -0.002817727 -0.002628481 -0.002445807 -0.002268594 -0.002092239
 -0.001916194 -0.001739964 -0.001563575 -0.001389088 -0.001216704 -0.001049458 -0.0008868513 -0.0007283512 -0.0005727544 -0.0004158394
 -0.0002574902 -9.475217E-05 7.017944E-05 0.0002364156 0.0003991538 0.0005535432 0.000695606 0.0008186476 0.0009297849 0.001027474
 0.001130962 0.001246289 0.001385371 0.001553696 0.00174468 0.001958602 0.00218501 0.002423095 0.002666636 0.002915072
 0.003153796 0.003381706 0.003580345 0.003752659 0.003901917 0.004034805 0.004175192 0.004323669 0.004495155 0.004681766
 0.004878174 0.005078379 0.005272547 0.005463433 0.00564919 0.005835859 0.006027124 0.006221989 0.006422622 0.00661893
 0.006809302 0.006985217 0.007144731 0.007288354 0.0074159 0.007529594 0.007629593 0.007718764 0.00779875 0.007886472
 0.00798434 0.008116016 0.00827714 0.008468423 0.008680201 0.008890594 0.009098037 0.009289866 0.009470448 0.009642221
 0.009800919 0.009944463 0.01006894 0.01016791 0.0102559 0.0103357 0.01042145 0.01051981 0.01061899 0.01071869
 0.0108031 0.01086949 0.01093529 0.01100174 0.01110954 0.01125872 0.01146773 0.01172906 0.01201564 0.01231786
 0.01258809 0.01282893 0.0130186 0.01317458 0.0133135 0.01344905 0.01360413 0.01377716 0.01397376 0.0141906
 0.01442754 0.0146817 0.01495643 0.01522888 0.01549682 0.01572934 0.01591888 0.01607202 0.01618707 0.01630409
 0.01642486 0.01657082 0.01674002 0.01691982 0.01710757 0.01728268 0.01744592 0.01758776 0.01771327 0.01782782
 0.01793789 0.01805768 0.01818452 0.01832422 0.01846249 0.01859003 0.01869967 0.01878213 0.01884816 0.01889818
 0.01894702 0.0189978 0.01906153 0.01913994 0.01924261 0.01937128 0.01951794 0.01968194 0.01983424 0.01997431
 0.02008568 0.02017089 0.02023639 0.02028159 0.02030631 0.02031224 0.02029682 0.02027769 0.02027956 0.02031821
 0.02042485 0.02059002 0.02081771 0.02109325 0.02140935 0.0217606 0.0221493 0.02254616 0.02294795 0.02331494
 0.02363719 0.02392373 0.02417387 0.02440885 0.02462959 0.02483823 0.02503501 0.02522367 0.02540449 0.0255847
 0.02575727 0.02590431 0.02601582 0.02605778 0.02603292 0.02592825 0.02575614 0.0255236 0.02524445 0.02492703
 0.02459359 0.02425543 0.02393384 0.02364026 0.02337741 0.02314718 0.02295259 0.02279296 0.02268359 0.0226271
 0.02261202 0.02263746 0.02265265 0.02265597 0.02261175 0.0225237 0.02239523 0.02222744 0.02202477 0.02178797
 0.02151359 0.02122087 0.02093472 0.02067964 0.02049896 0.02038257 0.02034272 0.02034523 0.02037744 0.02040924
 0.02043037 0.02040968 0.0203358 0.02020311 0.0200027 0.01979096 0.01957072 0.01940919 0.01930977 0.01928835
 0.01934399 0.01947039 0.01966683 0.01993089 0.02025452 0.02061112 0.02098943 0.02134801 0.02168821 0.02199201
 0.0222699 0.02252608 0.02277074 0.02301255 0.02325872 0.02351853 0.02378188 0.0240504 0.0242997 0.0245208
 0.02471809 0.0248876 0.02506622 0.02525847 0.0254674 0.02569313 0.02588944 0.02605605 0.02617345 0.02624947
 0.02632054 0.02638994 0.02649082 0.02661517 0.02676141 0.02692015 0.02707767 0.02722283 0.02733941 0.02741707
 0.02743937 0.02741353 0.02733602 0.02722629 0.02708988 0.02694255 0.02678635 0.02664608 0.02652452 0.02645059
 0.02642942 0.02644611 0.02649992 0.02653005 0.02653423 0.02646627 0.02633007 0.02612228 0.02585198 0.02554377
 0.02521469 0.02491442 0.02465837 0.02450101 0.02442632 0.02444625 0.02451513 0.02460119 0.02467434 0.02470608
 0.02469967 0.02465099 0.02456403 0.02444181 0.02427125 0.02405138 0.02376636 0.02341364 0.02299512 0.02251082
 0.02200182 0.0214726 0.0209932 0.0205642 0.02022824 0.01997511 0.01979262 0.01966907 0.01957065 0.0194924
 0.01941141 0.01932707 0.01922699 0.01912214 0.0190119 0.01892314 0.01887187 0.01886877 0.01892971 0.01901909
 0.01913587 0.01922419 0.0192739 0.01925702 0.01916743 0.01902974 0.01884508</values></Ydata></AB><ScSm><Ydata ylabel="Single channel"><values byteorder="INTEL" format="FLOAT32" numvalues="1814"> 0.0762298 0.07623874 0.07631931 0.07649571 0.07673441 0.07696293 0.07712226 0.07720612 0.07724006 0.07723175
 0.07717985 0.07713189 0.07717942 0.07736652 0.07762663 0.0778271 0.07787623 0.07780564 0.07775559 0.07783875
 0.07798831 0.07797399 0.07761866 0.07700168 0.07640763 0.07606292 0.07599444 0.07619441 0.0767588 0.07762191
 0.07826014 0.07806621 0.07711056 0.07617557 0.07588765 0.07611746 0.07634483 0.0762621 0.07586844 0.07534975
 0.07513224 0.07577062 0.07740354 0.07929985 0.08011715 0.07874575 0.07510222 0.07039164 0.06666691 0.06572361
 0.06783101 0.07137092 0.07405543 0.07475351 0.07403171 0.07299396 0.07209244 0.07127295 0.07074693 0.07103325
 0.07224214 0.0735925 0.07381582 0.07224052 0.06959022 0.06747186 0.06690907 0.06769788 0.06926633 0.07129896
 0.07286209 0.071906 0.06728286 0.06129757 0.05867726 0.0620766 0.06924705 0.07523916 0.07680479 0.07421286
 0.0698102 0.06607594 0.06469035 0.06608243 0.0693494 0.07300678 0.07588895 0.07720544 0.07634453 0.07340568
 0.06971911 0.06719874 0.06716369 0.06982198 0.07423249 0.07839348 0.0801511 0.07879034 0.07551103 0.07216151
 0.07002313 0.06981872 0.07189437 0.07585517 0.08054145 0.08470248 0.08750814 0.08863123 0.08831391 0.08721446
 0.08590764 0.0847922 0.08444048 0.0852434 0.08648464 0.08661553 0.0849414 0.08254749 0.08117759 0.0814286
 0.0822774 0.08232818 0.08122554 0.07941652 0.07676559 0.07253748 0.067085 0.06228984 0.05967847 0.05926192
 0.06066249 0.06370866 0.06711244 0.06839231 0.0665942 0.06402458 0.06396231 0.0671618 0.07146387 0.07442656
 0.07558076 0.07626784 0.07791044 0.08055587 0.08268649 0.082369 0.07917944 0.07527865 0.07387974 0.07609278
 0.07985929 0.08248097 0.08345996 0.08419771 0.08554742 0.08649238 0.0852033 0.08121158 0.07658529 0.07465553
 0.07711335 0.082314 0.08647244 0.08647029 0.08195458 0.07540615 0.0702005 0.06827599 0.06962062 0.0735562
 0.07948306 0.08620601 0.09163089 0.09394071 0.09292015 0.08984277 0.08601681 0.08157927 0.07619537 0.07107059
 0.06918594 0.07247895 0.07936624 0.08606419 0.0899611 0.09091622 0.08979096 0.08684143 0.08195953 0.07621829
 0.072374 0.0727241 0.07633598 0.07957913 0.07992603 0.07825483 0.07697365 0.07702237 0.07752901 0.07765662
 0.07779275 0.07888225 0.08107409 0.08336318 0.08456372 0.08438866 0.08349685 0.08272319 0.08232328 0.08179307
 0.08057916 0.07917775 0.07908252 0.08115034 0.08442581 0.08712716 0.08843727 0.08879654 0.08870895 0.0878427
 0.08551252 0.08198136 0.07897028 0.07837854 0.08045058 0.08363269 0.08618522 0.0874253 0.08755361 0.08702762
 0.0862553 0.08545929 0.08474109 0.08436937 0.08471692 0.08572751 0.0867908 0.08735646 0.08738699 0.08708239
 0.08648719 0.08557039 0.0845103 0.08370396 0.08348195 0.0838569 0.08456625 0.08530817 0.08585562 0.08601716
 0.085701 0.08505742 0.08438867 0.08387446 0.08351505 0.08332758 0.08340818 0.08375414 0.08417444 0.08445114
 0.08451252 0.08441093 0.08420572 0.08392087 0.08358248 0.08325833 0.08305471 0.083047 0.08318827 0.08333364
 0.0834044 0.08346888 0.08359212 0.0836796 0.08357695 0.08328311 0.08296417 0.08277293 0.08272833 0.08275583
 0.08276749 0.08267802 0.08240411 0.08193599 0.08142763 0.08113715 0.08121907 0.08161081 0.08213557 0.08263698
 0.08299928 0.08315535 0.08313859 0.08305278 0.08294836 0.08278237 0.08251975 0.08223026 0.08206677 0.0821498
 0.08245899 0.08284198 0.0831425 0.08330196 0.08334447 0.0833317 0.08334674 0.08343953 0.08355477 0.08357845
 0.0834814 0.08336482 0.08334304 0.08341721 0.08348349 0.08345556 0.08336645 0.08333439 0.08342928 0.08360353
 0.08376491 0.08388168 0.08399273 0.08413172 0.08425952 0.08428344 0.08416034 0.08396815 0.08383493 0.08380578
 0.08383004 0.08387139 0.08396151 0.08412588 0.08431204 0.08443111 0.08445374 0.08443491 0.08443944 0.08446246
 0.08444256 0.0843447 0.08420493 0.08409169 0.08404479 0.08405726 0.08409534 0.08412258 0.08411321 0.08405834
 0.08396694 0.08385674 0.08374079 0.08363074 0.08355922 0.0835762 0.08369303 0.0838349 0.08388217 0.0837761
 0.08357567 0.08339946 0.08331275 0.08327797 0.08321404 0.08308838 0.08293696 0.08280869 0.08271836 0.08265451
 0.08260608 0.08257207 0.08256613 0.08262172 0.08276859 0.08298184 0.08317025 0.08324644 0.08320923 0.08313744
 0.08310868 0.08314463 0.08322449 0.08332235 0.08343225 0.08357157 0.08375 0.08392952 0.08404484 0.08407961
 0.0840937 0.08416297 0.08432053 0.08455563 0.08482257 0.08504415 0.08516021 0.08519459 0.08523859 0.0853532
 0.08551863 0.08568688 0.08584538 0.08601001 0.08618815 0.08637884 0.08659668 0.08686836 0.08720154 0.08756588
 0.08790681 0.0881796 0.08838505 0.08858061 0.08884484 0.08921501 0.08965489 0.09008548 0.09045017 0.09075412
 0.09104296 0.09134687 0.09165914 0.09197439 0.0923225 0.09273587 0.09319727 0.09365224 0.09406969 0.09446471
 0.09486559 0.09528233 0.0957093 0.09614419 0.09659883 0.09708649 0.097592 0.0980645 0.09845875 0.09878194
 0.09908893 0.09943849 0.09985736 0.1003218 0.100759 0.1010981 0.1013489 0.101606 0.1019452 0.1023356
 0.1026925 0.1029987 0.1033274 0.1037425 0.1042164 0.1046645 0.1050365 0.1053569 0.1056825 0.106035
 0.1063753 0.1066466 0.1068407 0.1070109 0.1072148 0.1074697 0.1077765 0.1081549 0.1086145 0.1091072
 0.1095504 0.1098947 0.1101475 0.1103446 0.1105261 0.1107234 0.1109422 0.1111636 0.1113762 0.1115828
 0.1117721 0.1119211 0.1120459 0.1122082 0.1124488 0.1127493 0.1130816 0.1134548 0.1138787 0.1143159
 0.114721 0.1151129 0.1155526 0.1160393 0.1164806 0.1167918 0.1169856 0.1171339 0.1172807 0.1174396
 0.117646 0.1179491 0.1183528 0.1188066 0.1192571 0.1196835 0.1200841 0.1204528 0.1207748 0.1210332
 0.1212202 0.1213468 0.121447 0.1215734 0.121779 0.1220822 0.1224432 0.1227877 0.1230612 0.1232452
 0.1233262 0.123289 0.1231638 0.1230431 0.1230043 0.1230185 0.1229664 0.1227441 0.1223303 0.121757
 0.1210533 0.120239 0.1193581 0.1184952 0.1177525 0.1172099 0.1169089 0.1168742 0.1171319 0.1176834
 0.118457 0.1193118 0.1201003 0.1207091 0.1210426 0.1210161 0.1206062 0.1198915 0.1190136 0.1181001
 0.1172292 0.1164345 0.115714 0.1150618 0.1145311 0.1142653 0.1144407 0.1151721 0.116463 0.1182097
 0.120223 0.1222698 0.1241506 0.1257722 0.1271531 0.1283622 0.1294606 0.1304936 0.1314991 0.1324894
 0.1334325 0.1342821 0.135028 0.1356976 0.1363128 0.1368653 0.1373309 0.1376912 0.1379505 0.1381431
 0.1383137 0.1384757 0.1386076 0.1386973 0.1387654 0.138826 0.1388444 0.1387526 0.1384988 0.1380811
 0.1375671 0.1371102 0.136936 0.1372689 0.1382252 0.1397483 0.1416405 0.1436622 0.1456136 0.1473526
 0.148788 0.1498965 0.1507347 0.1514042 0.1519934 0.152549 0.1530872 0.15361 0.1541153 0.1546019
 0.1550709 0.1555283 0.1559877 0.1564613 0.1569401 0.1573941 0.1578047 0.1581924 0.158603 0.1590655
 0.1595642 0.1600543 0.1605094 0.1609467 0.1613939 0.16184 0.1622437 0.1625903 0.1629145 0.1632672
 0.1636773 0.1641411 0.1646227 0.165067 0.1654367 0.1657447 0.166037 0.1663487 0.1666839 0.1670341
 0.1673959 0.1677657 0.1681321 0.1684865 0.1688379 0.169202 0.1695714 0.169913 0.1702026 0.1704557
 0.1707133 0.1710013 0.1713114 0.1716188 0.1719179 0.1722337 0.1725953 0.1729965 0.1733926 0.1737373
 0.1740201 0.1742677 0.1745164 0.174788 0.1750855 0.1754038 0.1757342 0.1760628 0.176374 0.1766644
 0.1769483 0.1772453 0.1775599 0.1778784 0.1781841 0.1784731 0.1787562 0.1790489 0.1793612 0.1796975
 0.1800575 0.1804315 0.1807972 0.1811282 0.1814123 0.1816588 0.1818896 0.1821241 0.1823723 0.1826359
 0.1829131 0.1832012 0.1834993 0.1838063 0.1841182 0.1844266 0.1847262 0.185019 0.185311 0.1856048
 0.1859016 0.1862052 0.1865174 0.1868305 0.1871313 0.187415 0.1876899 0.1879685 0.1882565 0.1885488
 0.1888345 0.1891059 0.1893641 0.1896168 0.1898723 0.1901359 0.1904081 0.1906849 0.1909611 0.1912358
 0.1915106 0.1917852 0.192057 0.1923261 0.1925963 0.1928723 0.1931562 0.1934425 0.1937193 0.1939791
 0.1942278 0.1944795 0.1947426 0.1950168 0.1952979 0.1955813 0.1958616 0.1961335 0.1963958 0.196654
 0.1969162 0.1971832 0.1974477 0.1977062 0.1979649 0.1982303 0.1984989 0.1987633 0.1990221 0.1992815
 0.1995493 0.1998264 0.2001056 0.2003793 0.2006479 0.2009157 0.2011842 0.2014541 0.2017285 0.2020098
 0.2022968 0.2025879 0.2028795 0.2031636 0.2034321 0.2036826 0.2039186 0.2041477 0.2043785 0.2046134
 0.2048489 0.2050864 0.2053327 0.2055869 0.2058384 0.2060816 0.2063197 0.2065585 0.2068038 0.2070614
 0.2073309 0.2076066 0.2078817 0.2081496 0.2084071 0.2086627 0.2089296 0.2092057 0.2094753 0.2097314
 0.2099822 0.210239 0.2105061 0.2107805 0.211054 0.2113224 0.2115886 0.2118539 0.212116 0.2123791
 0.2126486 0.2129159 0.2131668 0.2134025 0.2136357 0.2138768 0.2141331 0.2144062 0.2146846 0.2149539
 0.2152138 0.215471 0.215728 0.2159871 0.2162481 0.2165019 0.2167442 0.2169878 0.2172441 0.217509
 0.2177772 0.2180473 0.2183125 0.2185678 0.2188205 0.2190756 0.2193275 0.2195745 0.2198154 0.2200283
 0.2201587 0.2200753 0.2194446 0.2175984 0.2135166 0.2060263 0.1942637 0.1782168 0.1589228 0.1381036
 0.1175273 0.09853935 0.08192529 0.06802283 0.05690968 0.04851702 0.0426849 0.03926625 0.03825242 0.03991002
 0.04491989 0.05396513 0.06621017 0.07797177 0.08416408 0.08231298 0.07491774 0.06717305 0.06266247 0.06164017
 0.06257859 0.06416824 0.06598514 0.06825721 0.07138932 0.07549898 0.08039448 0.0860728 0.09295782 0.1013575
 0.1108232 0.1203441 0.1292173 0.1375918 0.1461188 0.1551647 0.1644278 0.1732345 0.1810721 0.1878432
 0.1937623 0.1991199 0.2041172 0.2088455 0.2133477 0.2176195 0.2215133 0.2246984 0.2268203 0.2277714
 0.2278173 0.2274482 0.2270922 0.2269536 0.2270592 0.2273779 0.2278765 0.2285258 0.2293044 0.2301895
 0.2311392 0.2321057 0.2330612 0.2339959 0.2348978 0.2357516 0.2365462 0.2372738 0.2379328 0.2385323
 0.2390857 0.2396008 0.2400819 0.2405332 0.2409552 0.2413468 0.241713 0.2420609 0.2423898 0.2426928
 0.242969 0.2432251 0.2434713 0.2437151 0.2439583 0.2441985 0.2444347 0.2446685 0.2449018 0.2451374
 0.2453802 0.2456304 0.2458799 0.2461194 0.246347 0.2465668 0.2467834 0.2470013 0.2472215 0.2474389
 0.2476502 0.2478592 0.2480705 0.2482823 0.2484923 0.2487046 0.2489249 0.2491533 0.2493845 0.2496132
 0.2498414 0.2500798 0.2503328 0.2505884 0.2508311 0.2510624 0.251296 0.2515391 0.2517905 0.2520445
 0.2522862 0.2524948 0.2526656 0.2528237 0.2530069 0.2532356 0.2534963 0.2537552 0.253992 0.2542145
 0.254438 0.2546616 0.2548725 0.2550616 0.2552359 0.2554279 0.2556772 0.2559838 0.2563011 0.2565898
 0.2568519 0.2571039 0.2573533 0.2576104 0.2578772 0.2581216 0.2583038 0.2584397 0.2586127 0.2589051
 0.2593168 0.2597543 0.260114 0.260375 0.2605962 0.2608434 0.2611441 0.2614667 0.2616992 0.261726
 0.2616027 0.2615866 0.2619009 0.2625095 0.2631841 0.263739 0.2641448 0.2644648 0.2647516 0.2649969
 0.2651435 0.2651495 0.2650745 0.2651008 0.2654082 0.2659888 0.2666386 0.2671642 0.2675307 0.2677906
 0.2679862 0.2681501 0.2682535 0.2681283 0.267644 0.2670384 0.266865 0.2674576 0.2685564 0.2695901
 0.2702443 0.2706247 0.2709372 0.2712275 0.2714466 0.2714955 0.271089 0.2699213 0.2682664 0.2671408
 0.2674592 0.2691116 0.2711454 0.272719 0.2736253 0.274075 0.274334 0.2745499 0.2746365 0.2742761
 0.2732738 0.27203 0.2714415 0.2720734 0.2735264 0.2748686 0.2755881 0.2758641 0.2760664 0.2763364
 0.2764932 0.2759905 0.2742278 0.2714431 0.2691593 0.2691149 0.2715635 0.2749644 0.2775074 0.2786675
 0.2790588 0.2791001 0.2784016 0.2764713 0.2734568 0.2700796 0.2674114 0.2667262 0.268655 0.2721318
 0.2750011 0.2761436 0.2764181 0.2772405 0.2788913 0.2805308 0.281295 0.2809648 0.2798073 0.2780973
 0.2759923 0.2739838 0.2731597 0.27443 0.2774221 0.2806174 0.282755 0.2837857 0.2842089 0.2836007
 0.2803231 0.2734963 0.2654564 0.2611067 0.2635903 0.2710071 0.2784587 0.2828677 0.2846591 0.2854571
 0.2859034 0.285485 0.2828318 0.2764626 0.2671239 0.2592651 0.2580271 0.2641544 0.2731507 0.2794793
 0.2803365 0.2759426 0.2685384 0.2617153 0.2589488 0.2614942 0.2678431 0.2752159 0.2812253 0.2845252
 0.2848025 0.2826548 0.2795385 0.2774057 0.2772942 0.277792 0.2761115 0.2716146 0.2668873 0.2639466
 0.2611155 0.2561154 0.251058 0.2510444 0.257538 0.2659247 0.2706943 0.2710152 0.2697535 0.2682454
 0.264028 0.2544109 0.2416001 0.2327787 0.2338208 0.2431953 0.2533308 0.2580123 0.2573071 0.2553511
 0.2548301 0.2542615 0.2501322 0.2415174 0.2323938 0.228301 0.2304626 0.2346995 0.2363751 0.2340947
 0.2280749 0.2186398 0.2088653 0.2055362 0.2134008 0.2293344 0.2447971 0.252872 0.250788 0.2383657
 0.2189508 0.2013962 0.1957546 0.2042872 0.2187222 0.2278767 0.2265426 0.2163977 0.2011794 0.1841094
 0.1693863 0.1626805 0.1677268 0.1825189 0.1994162 0.2089931 0.2052514 0.1902393 0.1743656 0.1689115
 0.1758204 0.1864031 0.1910807 0.1880625 0.1819831 0.1778826 0.1782746 0.18277 0.188521 0.1928754
 0.195504 0.1954747 0.1883868 0.1717083 0.1519445 0.1403749 0.1413133 0.1498832 0.1610818 0.1742377
 0.1871017 0.192791 0.1875499 0.1778964 0.1750874 0.1831762 0.1955325 0.2029402 0.2027152 0.1991889
 0.196996 0.1961149 0.1942094 0.192022 0.1935613 0.2005588 0.2094291 0.21527 0.2169709 0.2167614
 0.2164503 0.2160656 0.215132 0.2134899 0.2112142 0.2087288 0.2066741 0.2051902 0.2038001 0.2021417
 0.1999426 0.1959607 0.1882776 0.1770391 0.1661645 0.1602794 0.1598629 0.1615265 0.1630434 0.1646799
 0.164542 0.1572295 0.1409872 0.1235872 0.116679 0.1245464 0.1409287 0.1561344 0.1644036 0.1643711
 0.1562209 0.1420767 0.1285866 0.1248356 0.1348754 0.1538017 0.1730264 0.1876896 0.1971405 0.2008058
 0.1974455 0.1883098 0.1783624 0.1734535 0.1767804 0.1874492 0.2007086 0.2091094 0.20615 0.1927928
 0.1804298 0.1824726 0.2002034 0.220556 0.2307986 0.2314579 0.2310873 0.2329808 0.233557 0.2317615
 0.2328138 0.2410283 0.2534367 0.2627067 0.2635877 0.2549786 0.2391937 0.2224338 0.2131879 0.2154629
 0.2242582 0.2310212 0.2319403 0.2274697 0.2172689 0.2022507 0.1898948 0.1897622 0.2023947 0.2180342
 0.2276953 0.231332 0.2338054 0.2365183 0.2357573 0.2283717 0.2170386 0.208616 0.207356 0.2111779
 0.2151911 0.216864 0.2160953 0.2123043 0.2047764 0.1958484 0.1909451 0.193892 0.2029948 0.2126664
 0.2184643 0.2198953 0.2190587 0.2179485 0.2171021 0.2157997 0.2134616 0.2114434 0.2127552 0.2187742
 0.2269337 0.2333115 0.237109 0.2408968 0.2465732 0.2527102 0.2562571 0.2558606 0.2531689 0.2514276
 0.2529 0.2570698 0.2610124 0.2618868 0.2596407 0.2573118 0.2582237 0.2628047 0.2685295 0.2727821
 0.274995 0.2760997 0.2769746 0.2777056 0.2775582 0.2755574 0.2719149 0.2688666 0.2690958 0.2730581
 0.2785225 0.28284 0.2850509 0.2857474 0.2856584 0.2848853 0.2832996 0.2812186 0.2794306 0.2785856
 0.2787375 0.2795039 0.2804767 0.2813936 0.2821137 0.282611 0.2829487 0.2831919 0.2833785 0.2835633
 0.2837854 0.2839849 0.2840595 0.2840416 0.2841221 0.2844306 0.2848603 0.2851784 0.2852387 0.2849926
 0.2843627 0.2832635 0.281751 0.2800121 0.2781583 0.2761552 0.2740708 0.2723441 0.2716579 0.2724342
 0.2744411 0.2769251 0.2791255 0.2806672 0.2815621 0.2819917 0.2821462 0.2821777 0.2821826 0.2821856
 0.2821556 0.2820563 0.2818822 0.2816532 0.2813932 0.2811301 0.2809035 0.2807448 0.2806425 0.2805356
 0.28035 0.2800436 0.2796271 0.2791504 0.2786581 0.2781449 0.2775502 0.2768045 0.2758906 0.2748634
 0.2738149 0.2728144 0.271868 0.2709227 0.2699102 0.268788 0.2675334 0.266113 0.2645117 0.2628052
 0.2611556 0.2596892 0.2583988 0.2571793 0.255924 0.2545741 0.2531185 0.251583 0.2500033 0.2483956
 0.2467577 0.2450885 0.2433877 0.2416454 0.239847 0.2379851 0.2360603 0.2340772 0.2320458 0.2299751
 0.2278484 0.2255971 0.2231041 0.2202382 0.2168852 0.2129628 0.2084463 0.2034128 0.1980489 0.1925927
 0.1872589 0.1822052 0.177541 0.1733518 0.1697162 0.1667018 0.1643482 0.1626678 0.1616667 0.1613584
 0.1617531 0.1628315 0.1645168 0.1666714 0.1691305 0.1717368 0.1743396 0.1767942 0.1790101 0.1810068
 0.1828898 0.1847484 0.1865778 0.188304 0.1898697 0.1912714 0.1925174 0.193592 0.19448 0.1951985
 0.1957801 0.1962487 0.1966274 0.1969453 0.1972183 0.1974474 0.1976454 0.1978518 0.1981148 0.1984645
 0.1989007 0.1994001 0.1999401 0.2005184 0.2011482 0.2018365 0.2025696 0.2033209 0.2040773 0.204856
 0.2056922 0.2066193 0.207676 0.2089136 0.2103725 0.2120561 0.213935 0.215957 0.21804 0.2200763
 0.2219607 0.223612 0.2249787 0.2260495 0.2268541 0.2274404 0.2278505 0.2281127 0.2282398 0.2282353
 0.2281112 0.2278925 0.2276005 0.2272426 0.2268192 0.2263273 0.2257703 0.2251748 0.2245865 0.2240356
 0.2235181 0.2230165 0.222519 0.2220183 0.2215082 0.220986 0.2204515 0.2199054 0.2193508 0.2187889
 0.2182102 0.217589 0.2168826 0.2160506 0.2150891 0.2140315 0.2128972 0.211662 0.2102985 0.2088209
 0.2072681 0.2056647 0.2040157 0.202325 0.200598 0.1988263 0.1969715 0.1949794 0.1928362 0.1906118
 0.188427 0.1863703 0.1844559 0.1826494 0.1809179 0.1792563 0.1776746 0.1761685 0.1747159 0.1733074
 0.1719581 0.1706819 0.1694765 0.168341 0.1672895 0.1663409 0.1655037 0.1647726 0.16413 0.1635567
 0.1630445 0.1625978 0.16223 0.1619626 0.1618065 0.1617345 0.1616871 0.1616127 0.1614884 0.1613098
 0.1610856 0.1608399 0.1606007 0.1603866 0.1602012 0.1600197 0.1597729 0.1593583 0.158677 0.1576671
 0.1563181 0.1546688 0.1527949 0.1508044 0.1488365 0.1470301 0.1454729 0.1441944 0.1431929 0.1424364
 0.1418491 0.1413521 0.1409318 0.140649 0.1405708 0.1406833 0.1408555 0.140915 0.1408003 0.1406346
 0.1406263 0.1409024 0.1414343 0.1420848 0.1427109 0.1432377 0.143647 0.1439218 0.1440466 0.1440502
 0.1439869 0.1438741 0.1436955 0.1434486 0.1431443 0.1427791 0.1423403 0.1418212 0.1412216 0.1405495
 0.1398163 0.139018 0.1381436 0.1371893 0.136135 0.1349478 0.1336772 0.132516 0.1317117 0.1314281
 0.1316797 0.1323351 0.1331957 0.1341203 0.1350168 0.1356945 0.1359133 0.1357499 0.1357848 0.1366849
 0.1385599 0.1408409 0.142797 0.1440611 0.1446464 0.1446553 0.1441435 0.143161 0.1417316 0.1398273
 0.1374694 0.1347823 0.1318908 0.1288961 0.1259719 0.1233301 0.1210934 0.1192883 0.1178972 0.1169438
 0.1165468 0.1163384 0.1144973 0.1087115 0.09973539 0.09296016 0.09388316 0.1019394 0.1109056 0.1154879
 0.1155363 0.1138594 0.1123985 0.1114651 0.110979 0.1110684 0.1118307 0.1131156 0.1145508 0.1157464
 0.1165309 0.1169226 0.1168715 0.116056 0.113817 0.1093577 0.1023897 0.09373388 0.0850459 0.07783513
 0.07278749 0.0697947 0.06827701 0.06752118 0.06703943 0.06678675 0.06704064 0.06807074 0.06991804 0.07243682
 0.07543673 0.07867458 0.08176908 0.08433873 0.08628452 0.08778873 0.08900463 0.08988729 0.09033031 0.09031822
 0.08992554 0.08927123 0.08848712 0.08765878 0.08676849 0.08572942 0.08453178 0.08336663 0.08252765 0.08214265
 0.08207601 0.08212063 0.08217498 0.08221061 0.08220503 0.08215871 0.08210395 0.08210023 0.08225185 0.08264613
 0.08321919 0.08376415 0.08411273 0.08425972 0.08431122 0.08432996 0.08421098 0.08377816 0.08308826 0.08248341
 0.08214444 0.08175813 0.08091345 0.07972462 0.07877399 0.07847239 0.07869704 0.07903185 0.07916209 0.07902446
 0.07877155 0.07869339 0.07903129 0.07969709</values></Ydata></ScSm><ScRf><Ydata ylabel="Single channel"><values byteorder="INTEL" format="FLOAT32" numvalues="1820"> 0.06061146 0.0607657 0.06085667 0.06089025 0.06089307 0.06090602 0.06097224 0.06111355 0.06131012 0.06150398
 0.06163676 0.06169227 0.06169199 0.06165434 0.06159124 0.06154741 0.06159518 0.06176181 0.06198237 0.06214328
 0.0621735 0.06210719 0.06206317 0.06213135 0.06225383 0.0622421 0.06195236 0.06144776 0.06095836 0.06067023
 0.06060874 0.06076679 0.06121755 0.061907 0.06241727 0.06226226 0.06149611 0.06074337 0.06050567 0.06068062
 0.06085308 0.06077706 0.06045036 0.06002119 0.05983633 0.06034984 0.06167559 0.06321667 0.06388149 0.06277597
 0.05984198 0.05605543 0.05306342 0.05230197 0.0539858 0.05681873 0.05896616 0.05951995 0.05893569 0.05810235
 0.05738346 0.05672979 0.0563028 0.05651721 0.05746794 0.05853417 0.05869827 0.05742191 0.05529065 0.05359556
 0.05314947 0.05377734 0.05501809 0.05662822 0.05787282 0.05711609 0.05343255 0.04865576 0.0465657 0.04929467
 0.05505004 0.05986492 0.06112597 0.05904213 0.05550042 0.05249923 0.05138778 0.05250144 0.05511005 0.05802846
 0.06033224 0.06139211 0.06071529 0.05837522 0.05542852 0.05340078 0.05335175 0.05546263 0.05899253 0.06233717
 0.06375909 0.06267364 0.06003792 0.05733636 0.05560289 0.0554241 0.05708268 0.06026314 0.06403217 0.0673814
 0.06964152 0.07054882 0.0702996 0.06942877 0.06840294 0.06753474 0.06726532 0.06789862 0.06886931 0.06895038
 0.06758861 0.0656486 0.06452796 0.06471466 0.06539708 0.06545164 0.06457952 0.06313179 0.0610042 0.05761188
 0.05323575 0.04938444 0.04728953 0.04696766 0.04811708 0.05059784 0.05337272 0.05444121 0.05302364 0.05096215
 0.05089205 0.05343093 0.05685685 0.05921566 0.060134 0.06068906 0.06201711 0.06414698 0.0658571 0.06560051
 0.06304141 0.05991432 0.05879984 0.06059344 0.06364343 0.06577958 0.06660065 0.06723384 0.06836173 0.06915943
 0.06815408 0.06497776 0.06130264 0.05980223 0.06181991 0.06602462 0.06938052 0.06939106 0.06577465 0.06052489
 0.05635875 0.05484002 0.05596635 0.05920491 0.06408545 0.06964496 0.07417814 0.07618917 0.07547341 0.07304808
 0.06998514 0.06641448 0.06207144 0.05794257 0.05647568 0.05927259 0.06504133 0.07066815 0.0739938 0.07489559
 0.07408011 0.071747 0.06778988 0.06309997 0.05999587 0.06041788 0.06358655 0.0664452 0.06686024 0.06556778
 0.06460187 0.06476428 0.06532255 0.06556739 0.06582698 0.06690383 0.06892246 0.07102576 0.07220244 0.07220064
 0.07157373 0.07103769 0.07082199 0.07049704 0.06958559 0.06852676 0.06862804 0.07062896 0.0736751 0.07619252
 0.07746789 0.07790755 0.07797543 0.07737878 0.07548882 0.07251661 0.06999111 0.06962112 0.07164105 0.0746647
 0.07712654 0.07840923 0.07869673 0.07840285 0.07788915 0.07735151 0.07688545 0.07673848 0.07724425 0.0783444
 0.07948211 0.08015957 0.08034523 0.08021984 0.07982002 0.07911961 0.0782928 0.07771124 0.07767299 0.07818132
 0.07899852 0.07985819 0.08055198 0.08088577 0.08075231 0.08028494 0.0797815 0.07943442 0.0792573 0.07926297
 0.07952939 0.08004017 0.0806053 0.081017 0.08121157 0.08124283 0.08116964 0.0810168 0.08081011 0.08061603
 0.08054183 0.08066514 0.08093999 0.08122453 0.0814456 0.08167027 0.08195069 0.08217771 0.08219208 0.08199966
 0.08177927 0.08169207 0.08175319 0.0818775 0.08197406 0.08196566 0.08177808 0.08140478 0.08099862 0.08081529
 0.08100924 0.08152383 0.08218691 0.08283184 0.0833198 0.08356829 0.08361663 0.08358652 0.08354047 0.08343571
 0.08323371 0.08300673 0.08291546 0.08308534 0.08349456 0.08398463 0.08438829 0.0846316 0.08473088 0.08476265
 0.08483896 0.08501944 0.08522172 0.08529769 0.08522137 0.08513112 0.08516294 0.08529668 0.08539531 0.08536924
 0.08527611 0.08525565 0.08538089 0.0855972 0.08580619 0.08597575 0.08615026 0.08636597 0.08657026 0.08664174
 0.08651702 0.08628452 0.08610532 0.08604844 0.08606377 0.08611123 0.0862301 0.08644857 0.0866918 0.08684069
 0.0868632 0.08684218 0.08686766 0.08693099 0.08694395 0.08684606 0.08667007 0.08650821 0.08643669 0.08646986
 0.08656153 0.08663803 0.08664343 0.08657044 0.08645538 0.08634219 0.08625273 0.08619892 0.08621746 0.0863582
 0.08660828 0.08684409 0.08690566 0.0867415 0.08646674 0.08626038 0.08620326 0.08621962 0.08617045 0.08598938
 0.08572448 0.0854698 0.08528102 0.08515318 0.08505273 0.08495888 0.0848899 0.08489821 0.08501819 0.08519807
 0.08530353 0.08522552 0.08498473 0.08470725 0.08450729 0.08441603 0.08440021 0.08440959 0.08441696 0.08444014
 0.08450836 0.08459335 0.08461404 0.08453441 0.08441724 0.08436152 0.08442359 0.08460149 0.08483592 0.085015
 0.08504429 0.08494253 0.08482857 0.08479756 0.08484428 0.08491321 0.08497851 0.08505102 0.08513902 0.08523858
 0.08535869 0.0855286 0.08576638 0.08604611 0.08630461 0.08648533 0.0865844 0.08666249 0.08680569 0.08705924
 0.08739021 0.08771563 0.08797115 0.08815786 0.0883254 0.08851226 0.08871385 0.0889164 0.08914022 0.08941849
 0.08974269 0.09006491 0.09035501 0.09062625 0.09090326 0.09119179 0.0914872 0.09179889 0.09215683 0.09258258
 0.09304097 0.09343591 0.09368644 0.09381005 0.09391414 0.09410964 0.09443656 0.09483927 0.09519323 0.09539493
 0.09546611 0.09554272 0.09572811 0.09598742 0.09622753 0.09644711 0.09674415 0.09717551 0.09766351 0.09806591
 0.09831489 0.09846734 0.0986268 0.09883114 0.09902489 0.09914119 0.09919204 0.09925334 0.09937167 0.09953277
 0.09973164 0.100015 0.1004124 0.1008633 0.1012621 0.1015553 0.101759 0.101906 0.1020146 0.1020914
 0.1021348 0.1021489 0.1021674 0.1022332 0.1023382 0.1024211 0.102448 0.1024606 0.1025246 0.1026657
 0.1028793 0.1031609 0.1034882 0.1038036 0.1040669 0.1043195 0.1046425 0.1050334 0.1053734 0.1055509
 0.1055845 0.1055794 0.105598 0.1056341 0.1056965 0.1058401 0.1060963 0.1064264 0.1067697 0.1071064
 0.1074523 0.1078106 0.1081454 0.1083967 0.1085209 0.1085277 0.1084853 0.108487 0.1086049 0.1088545
 0.1091881 0.1095253 0.1098036 0.1099964 0.110089 0.1100732 0.1099921 0.1099547 0.1100517 0.1102513
 0.1104122 0.1104049 0.1101949 0.1098155 0.1093021 0.1086804 0.1079982 0.107337 0.106782 0.1063862
 0.1061682 0.1061443 0.1063464 0.1067878 0.1074121 0.1081033 0.1087515 0.10928 0.1096088 0.1096415
 0.1093327 0.1087479 0.1080243 0.1072856 0.1066003 0.105984 0.1054068 0.1048327 0.1042996 0.103955
 0.1039902 0.1045296 0.1055702 0.1069815 0.108543 0.1100182 0.1112525 0.1122287 0.1130297 0.1137451
 0.1144169 0.1150619 0.1157084 0.1163739 0.1170245 0.117598 0.1180747 0.1184916 0.1188882 0.1192656
 0.1196001 0.1198722 0.1200882 0.1202852 0.1204968 0.1206965 0.1208075 0.1207895 0.1206882 0.1205751
 0.1204645 0.1203085 0.1200493 0.119666 0.1192043 0.118792 0.1186157 0.118844 0.1195333 0.1205922
 0.1218467 0.1231482 0.1244133 0.1255721 0.1265309 0.1272213 0.1276639 0.1279559 0.1282012 0.1284641
 0.1287653 0.1290933 0.1294197 0.1297209 0.1299938 0.1302608 0.1305581 0.1309046 0.1312718 0.1315988
 0.1318511 0.1320642 0.1323157 0.1326501 0.1330354 0.1333992 0.1337095 0.1340035 0.1343243 0.1346513
 0.1349238 0.135121 0.1352877 0.1354861 0.1357526 0.1360922 0.1364742 0.1368313 0.1371028 0.1372883
 0.1374417 0.1376124 0.1378119 0.1380343 0.1382795 0.1385446 0.1388151 0.1390828 0.1393629 0.1396692
 0.1399764 0.1402291 0.1404009 0.1405275 0.1406692 0.1408534 0.1410639 0.1412729 0.1414749 0.1416951
 0.1419675 0.1422945 0.1426272 0.1428974 0.1430747 0.1431894 0.1432999 0.1434463 0.1436322 0.1438396
 0.1440498 0.1442525 0.1444474 0.1446425 0.1448501 0.1450753 0.1453093 0.145536 0.1457452 0.1459401
 0.1461326 0.1463328 0.1465468 0.1467847 0.1470611 0.1473714 0.1476759 0.1479239 0.1480973 0.1482209
 0.1483328 0.1484584 0.1486074 0.1487799 0.1489712 0.1491762 0.1493911 0.1496095 0.149823 0.1500267
 0.1502232 0.1504194 0.1506222 0.1508341 0.1510546 0.1512845 0.1515232 0.1517624 0.1519873 0.1521885
 0.1523703 0.1525478 0.1527339 0.1529287 0.1531201 0.1533006 0.1534804 0.1536736 0.1538777 0.1540782
 0.1542719 0.1544692 0.1546765 0.154888 0.1550955 0.1552952 0.1554849 0.1556633 0.155837 0.1560187
 0.156215 0.156419 0.1566182 0.15681 0.1570024 0.1572012 0.157406 0.1576148 0.1578273 0.1580409
 0.1582499 0.1584488 0.1586363 0.158816 0.1589962 0.1591839 0.1593812 0.1595876 0.1598012 0.1600149
 0.1602195 0.1604132 0.1606018 0.1607911 0.1609848 0.1611866 0.1613978 0.1616147 0.1618325 0.162048
 0.1622597 0.1624698 0.1626849 0.1629094 0.1631408 0.1633733 0.1636042 0.1638325 0.1640531 0.1642545
 0.1644277 0.164579 0.1647297 0.1648953 0.1650739 0.1652567 0.1654405 0.165625 0.1658102 0.1659999
 0.166199 0.1664059 0.1666125 0.1668119 0.1670032 0.1671943 0.1673965 0.1676112 0.1678272 0.1680354
 0.1682391 0.1684434 0.1686475 0.16885 0.1690533 0.1692601 0.1694703 0.1696788 0.1698787 0.1700722
 0.1702727 0.1704889 0.1707149 0.1709408 0.171162 0.1713751 0.171579 0.1717789 0.1719792 0.1721794
 0.1723829 0.1725964 0.1728175 0.1730366 0.1732496 0.1734563 0.1736539 0.1738427 0.174029 0.1742196
 0.1744234 0.1746514 0.1749021 0.1751573 0.1754016 0.1756302 0.1758419 0.1760399 0.1762359 0.1764359
 0.1766373 0.1768422 0.1770541 0.1772539 0.1773881 0.1773373 0.1768268 0.1753228 0.1720104 0.1659467
 0.1564331 0.1434555 0.1278486 0.1110045 0.09435552 0.07899269 0.06555489 0.054317 0.0453372 0.03855214
 0.03383321 0.0310708 0.03026243 0.03161626 0.03567345 0.04298692 0.05289058 0.06241317 0.06743819 0.06595431
 0.05997837 0.0537176 0.0500762 0.04925679 0.05001802 0.05130149 0.0527705 0.05461363 0.05715645 0.0604884
 0.06445128 0.06904599 0.07462271 0.08143611 0.08912438 0.09686455 0.1040777 0.1108785 0.1178001 0.1251489
 0.1326807 0.1398435 0.1462211 0.1517373 0.1565637 0.1609308 0.1650036 0.1688627 0.172543 0.1760322
 0.1792035 0.1817926 0.1835249 0.184321 0.184393 0.1841269 0.1838589 0.1837483 0.18382 0.1840616
 0.1844597 0.1849953 0.1856475 0.1863949 0.1872044 0.1880365 0.1888632 0.1896665 0.1904281 0.1911359
 0.1917904 0.1923944 0.1929461 0.1934483 0.1939111 0.1943429 0.1947475 0.1951278 0.1954885 0.1958359
 0.1961742 0.1964975 0.1967931 0.1970577 0.1973017 0.1975361 0.1977623 0.1979776 0.1981817 0.1983792
 0.1985808 0.198794 0.1990124 0.1992206 0.1994145 0.199608 0.1998154 0.2000353 0.200252 0.2004498
 0.2006264 0.2007961 0.2009768 0.201174 0.2013784 0.2015787 0.2017721 0.2019638 0.2021596 0.2023589
 0.2025561 0.2027477 0.2029351 0.2031211 0.2033112 0.2035167 0.203743 0.2039775 0.2042019 0.2044137
 0.2046233 0.2048365 0.2050508 0.205263 0.2054665 0.2056481 0.2058035 0.2059507 0.2061212 0.2063327
 0.2065721 0.2068086 0.2070234 0.2072222 0.2074166 0.2076074 0.2077887 0.2079586 0.2081243 0.208306
 0.2085279 0.2087905 0.209065 0.2093269 0.2095776 0.2098234 0.2100603 0.2102872 0.2105059 0.2107011
 0.2108499 0.2109651 0.2111109 0.2113566 0.2117067 0.2120868 0.2124122 0.2126643 0.2128842 0.2131154
 0.213378 0.2136526 0.213853 0.2138824 0.2137832 0.2137714 0.2140395 0.2145611 0.2151431 0.2156258
 0.2159838 0.2162743 0.2165462 0.2167909 0.2169519 0.2169864 0.2169434 0.2169771 0.2172379 0.217722
 0.218266 0.2187145 0.2190389 0.2192786 0.2194628 0.2196149 0.2197148 0.2196312 0.2192598 0.2187939
 0.2186856 0.2192066 0.2201408 0.221018 0.2215826 0.2219235 0.2222106 0.2224822 0.222698 0.2227732
 0.222469 0.2215324 0.2201918 0.2192918 0.2195942 0.2210113 0.2227502 0.2241036 0.224894 0.2252999
 0.2255525 0.2257801 0.2259058 0.2256564 0.2248663 0.2238705 0.2234149 0.22397 0.2252104 0.2263683
 0.2270162 0.2272926 0.2274979 0.2277549 0.2279256 0.2275625 0.2261617 0.2239105 0.2220698 0.2220869
 0.2241788 0.2270687 0.229247 0.2302665 0.2306336 0.2307057 0.2301729 0.2286305 0.2261953 0.2234585
 0.2213064 0.2207991 0.2224634 0.2254134 0.2278562 0.2288623 0.2291473 0.22989 0.2313286 0.2327685
 0.2334852 0.2332869 0.2323975 0.2310549 0.2293877 0.227788 0.2271513 0.2282472 0.2307899 0.233529
 0.2354075 0.2363657 0.2368062 0.2363717 0.2336941 0.22804 0.2213716 0.2178046 0.2199787 0.2262999
 0.2326531 0.2364466 0.2380315 0.238774 0.2392205 0.2389462 0.2368006 0.2315321 0.2237638 0.2172442
 0.2163111 0.2215913 0.2292871 0.2347262 0.2355458 0.2319313 0.2257717 0.2201008 0.217862 0.2201261
 0.225622 0.2319884 0.2371897 0.2400832 0.2404155 0.2387048 0.2361926 0.234536 0.2346054 0.2351821
 0.2338872 0.2301879 0.2262983 0.2239413 0.2216891 0.2175967 0.2134588 0.2136236 0.2193394 0.2266676
 0.2309116 0.2313809 0.2305351 0.2294985 0.2261257 0.2180827 0.2072635 0.199874 0.2010113 0.209376
 0.2184324 0.2228089 0.222568 0.2212923 0.2213063 0.2213039 0.2181861 0.2111058 0.2035383 0.2003637
 0.2026712 0.2067843 0.2086174 0.2069352 0.2019154 0.19384 0.1854553 0.182822 0.1902027 0.2048431
 0.2191271 0.2268481 0.225477 0.2147963 0.197791 0.1824901 0.1780633 0.1866005 0.2005675 0.2097377
 0.2093076 0.2007513 0.1874533 0.1723998 0.159575 0.1543971 0.1604854 0.1759947 0.1936039 0.2041225
 0.2015765 0.1878957 0.173383 0.1692943 0.1775565 0.1894084 0.1952017 0.193152 0.1879705 0.1848214
 0.1863527 0.1921945 0.1993472 0.205014 0.2088351 0.2096994 0.2027294 0.1851391 0.1639837 0.1515073
 0.1524257 0.1615107 0.1733853 0.1873532 0.2010192 0.2069725 0.2011478 0.1905341 0.1872237 0.1955716
 0.2084677 0.2160321 0.2153925 0.2112093 0.2084939 0.2072823 0.20511 0.2027651 0.2045039 0.2121637
 0.2219372 0.2286213 0.2310362 0.2315475 0.2320681 0.2326027 0.2326099 0.2318967 0.2305421 0.229009
 0.2279968 0.2276576 0.2274537 0.2269668 0.2258776 0.2227379 0.2152722 0.2035727 0.1921487 0.1863573
 0.1867227 0.1892895 0.1915092 0.193727 0.193697 0.1850436 0.1656843 0.1447325 0.1358655 0.1441089
 0.1620973 0.1784688 0.1865681 0.1850068 0.1742629 0.1568925 0.1402507 0.1341867 0.1430091 0.1613533
 0.1799182 0.1934801 0.2014851 0.203606 0.1987574 0.1882561 0.1770897 0.171064 0.1732708 0.1827286
 0.1947076 0.2019466 0.1982085 0.1844785 0.171693 0.1726713 0.1886716 0.2073015 0.2164481 0.2165457
 0.2156663 0.2169686 0.2171263 0.2151459 0.2159097 0.2234801 0.2351271 0.2440259 0.245258 0.2377505
 0.2236341 0.2087411 0.2010934 0.2044348 0.2139069 0.2212787 0.2228868 0.2191523 0.2097299 0.195544
 0.1839354 0.1842501 0.1970175 0.2127224 0.222622 0.2267115 0.2297546 0.2330723 0.2329384 0.2262298
 0.2156533 0.2080753 0.2077374 0.212553 0.2176422 0.2204752 0.2208977 0.2182157 0.2116319 0.2035663
 0.1996818 0.2039582 0.2145439 0.2254532 0.2318938 0.2332581 0.2317259 0.2294411 0.22707 0.2239675
 0.2196066 0.2154353 0.2145952 0.2185656 0.2248164 0.2294182 0.2315449 0.2337367 0.2379001 0.2426766
 0.2450956 0.2438153 0.2403947 0.2379285 0.2385634 0.2418036 0.2448887 0.2451469 0.2425292 0.2398944
 0.2403843 0.244432 0.2496899 0.2536971 0.2558861 0.2570899 0.2581068 0.2589984 0.259039 0.2572638
 0.2538326 0.2508313 0.2507942 0.2541903 0.2589779 0.2627186 0.2645517 0.2650614 0.2649347 0.2642438
 0.2628393 0.260999 0.25945 0.2587939 0.2590685 0.2598926 0.2608606 0.2617261 0.2623796 0.2628204
 0.2631161 0.263319 0.2634457 0.2635304 0.2636129 0.2636609 0.2636062 0.2634923 0.2634917 0.2637113
 0.2640462 0.2642896 0.26432 0.2641003 0.2635593 0.2626158 0.2613223 0.2598553 0.2583182 0.2566677
 0.2549482 0.2535542 0.2531137 0.2540126 0.2560328 0.2584828 0.2606714 0.2622566 0.2632369 0.2637561
 0.2639714 0.2640204 0.2640002 0.2639423 0.2638265 0.2636287 0.2633494 0.2630048 0.2626122 0.2621964
 0.2617971 0.2614511 0.2611606 0.2608854 0.2605716 0.2601848 0.2597241 0.2592149 0.2586837 0.2581281
 0.2575069 0.2567673 0.2558888 0.2549103 0.2539209 0.2530118 0.2522121 0.2514676 0.2506968 0.2498606
 0.2489552 0.2479587 0.2468467 0.2456749 0.2445908 0.2437162 0.2430369 0.2424329 0.2417877 0.2410428
 0.2401834 0.2392239 0.2382026 0.2371529 0.2360748 0.2349469 0.2337527 0.2324822 0.2311263 0.2296862
 0.2281767 0.2266142 0.2250105 0.2233752 0.2216984 0.2199202 0.2179302 0.2155999 0.2128132 0.2094816
 0.2055656 0.2011112 0.1962718 0.1912773 0.1863597 0.1816918 0.1773838 0.1735186 0.1701781 0.1674392
 0.1653574 0.1639587 0.1632509 0.1632405 0.1639281 0.1652848 0.1672397 0.169689 0.1724999 0.1755034
 0.1785066 0.1813399 0.183917 0.1862622 0.1884647 0.1905815 0.1925834 0.1944032 0.1960153 0.1974412
 0.1986965 0.1997685 0.2006458 0.2013471 0.2019149 0.2023906 0.2027991 0.2031519 0.2034592 0.2037312
 0.2039721 0.2041815 0.2043631 0.2045293 0.2047021 0.2049061 0.2051584 0.2054679 0.205844 0.2062914
 0.206794 0.2073232 0.2078654 0.2084296 0.2090274 0.2096672 0.2103712 0.2111829 0.2121476 0.2132841
 0.2145683 0.2159418 0.2173349 0.2186775 0.2198923 0.2209016 0.2216549 0.2221468 0.2224064 0.2224779
 0.2224048 0.2222159 0.221924 0.2215394 0.2210802 0.2205645 0.2200017 0.2193922 0.2187357 0.218039
 0.2173212 0.2166087 0.2159201 0.2152536 0.2145932 0.2139313 0.2132847 0.2126796 0.2121184 0.2115727
 0.2110113 0.210427 0.2098318 0.2092372 0.2086436 0.2080344 0.2073769 0.206635 0.2057895 0.2048421
 0.2038003 0.2026695 0.2014593 0.2001843 0.1988482 0.1974378 0.1959422 0.1943721 0.1927464 0.1910589
 0.1892721 0.187354 0.1853251 0.1832661 0.1812769 0.1794247 0.1777254 0.1761571 0.1746815 0.1732652
 0.1718974 0.1705878 0.1693489 0.1681856 0.1670971 0.1660753 0.1651045 0.1641727 0.1632853 0.162463
 0.1617274 0.1610864 0.1605282 0.160034 0.1595968 0.1592263 0.1589443 0.1587805 0.1587494 0.1588138
 0.1588893 0.1589008 0.1588272 0.1586925 0.1585375 0.1583998 0.1583012 0.1582442 0.1582124 0.1581613
 0.1580177 0.1577035 0.1571538 0.1563117 0.155139 0.1536487 0.1519143 0.1500536 0.1482115 0.1465271
 0.1450863 0.1439156 0.1430154 0.1423597 0.1418761 0.1414823 0.1411548 0.1409456 0.1409298 0.141119
 0.1413997 0.1415941 0.1416278 0.1416158 0.1417503 0.1421404 0.1427645 0.1435144 0.1442626 0.1449228
 0.1454614 0.1458602 0.1461114 0.1462443 0.1463015 0.1462893 0.1461903 0.1460046 0.1457486 0.14544
 0.1450923 0.1446948 0.1442165 0.1436486 0.1430043 0.1422737 0.1414389 0.1405129 0.1394936 0.1383364
 0.1370759 0.1359289 0.1351922 0.1350511 0.1354877 0.1363128 0.1373021 0.1383391 0.139365 0.1401919
 0.1405693 0.1405706 0.1407687 0.1418189 0.1438413 0.1462897 0.1484308 0.1498676 0.1505871 0.1506837
 0.1502252 0.1492832 0.1478842 0.1459752 0.1435629 0.1407882 0.1378009 0.1347212 0.13174 0.1290685
 0.1268061 0.1249655 0.1235357 0.1225431 0.1221175 0.1219109 0.1200534 0.1141122 0.1048425 0.09788953
 0.09903389 0.1076843 0.117287 0.1222532 0.1224123 0.1207333 0.1192761 0.1183493 0.1178332 0.1178537
 0.118528 0.1197175 0.1210576 0.1221665 0.1228728 0.1232026 0.1231181 0.1222682 0.1199093 0.1151697
 0.1077556 0.09854699 0.08929946 0.08163025 0.07628578 0.07314196 0.0715615 0.07077199 0.07024032 0.06991467
 0.07011572 0.07116234 0.0731093 0.07580523 0.07905281 0.08258165 0.08596213 0.0887775 0.09092671 0.09261194
 0.09400346 0.09504643 0.09560685 0.09566794 0.09533387 0.09473221 0.09396975 0.09312539 0.09220895 0.09115227
 0.0899404 0.08876017 0.08790514 0.08749592 0.08739062 0.08738434 0.08738354 0.08737771 0.0873636 0.08733138
 0.08727333 0.08722046 0.0872828 0.08757617 0.08807699 0.08861018 0.08899671 0.08918437 0.08924618 0.0892425
 0.08906394 0.08851568 0.087648 0.08682591 0.08627012 0.08569963 0.08471183 0.08341461 0.08238856 0.08204295
 0.08224034 0.08255301 0.0826764 0.0825574 0.08233233 0.08226444 0.08258455 0.08321211 0.08371556 0.08371191
</values></Ydata></ScRf><Data_Parameters_AB><parameter name="DPF">1</parameter><parameter name="NPT">3497</parameter><parameter name="FXV">3996</parameter><parameter name="LXV">500</parameter><parameter name="CSF">1</parameter><parameter name="MXY">0.0708518400788307</parameter><parameter name="MNY">-0.101779840886593</parameter><parameter name="DAT">02/06/2022</parameter><parameter name="TIM">11:59:45.990 (GMT+2)</parameter><parameter name="DXU">WN</parameter></Data_Parameters_AB><AB__Qtest><MainReport name="Quality Test Report"><Header><Line><Legend>Test result ok/not ok [1/0]: </Legend><Value>0</Value></Line><Line><Legend>Method file: </Legend><Value>C:\Users\Public\Documents\Bruker\OPUS_8.2.28\QT\IRBT_v3_default.QT</Value></Line></Header><Matrix><Line><Legend></Legend><Legend>min</Legend><Legend>max</Legend><Legend>measured</Legend></Line><Line><Value>Absorption (X-Range 1):</Value><Value>0.400000</Value><Value>2.000000</Value><Value>0.122944</Value></Line><Line><Value>Noise (X-Range 4):</Value><Value></Value><Value>0.000300</Value><Value>0.000042</Value></Line><Line><Value>Signal/Noise (X-Range 2):</Value><Value>200.000000</Value><Value></Value><Value>51.607227</Value></Line><Line><Value>Signal/Noise (X-Range 3):</Value><Value>40.000000</Value><Value></Value><Value>30.391259</Value></Line><Line><Value>Water vapour (X-Range 5):</Value><Value></Value><Value>0.000300</Value><Value>0.000058</Value></Line><Line><Value>Signal/Water (X-Range 2):</Value><Value>100.000000</Value><Value></Value><Value>36.654046</Value></Line><Line><Value>Signal/Water (X-Range 3):</Value><Value>20.000000</Value><Value></Value><Value>21.585400</Value></Line><Line><Value>Fringes (X-Range 6):</Value><Value></Value><Value>0.000100</Value><Value>0.000074</Value></Line></Matrix></MainReport></AB__Qtest><Data_Parameters_ScSm><parameter name="DPF">1</parameter><parameter name="NPT">1814</parameter><parameter name="FXV">3996.33169228125</parameter><parameter name="LXV">499.541461535156</parameter><parameter name="CSF">1</parameter><parameter name="MXY">0.285903364419937</parameter><parameter name="MNY">0.038252416998148</parameter><parameter name="DAT">02/06/2022</parameter><parameter name="TIM">11:59:45.990 (GMT+2)</parameter><parameter name="DXU">WN</parameter></Data_Parameters_ScSm><Data_Parameters_ScRf><parameter name="DPF">1</parameter><parameter name="NPT">1820</parameter><parameter name="FXV">4004.04661832813</parameter><parameter name="LXV">495.683998511719</parameter><parameter name="CSF">1</parameter><parameter name="MXY">0.265061438083649</parameter><parameter name="MNY">0.0302624348551035</parameter><parameter name="DAT">02/06/2022</parameter><parameter name="TIM">11:59:20.138 (GMT+2)</parameter><parameter name="DXU">WN</parameter></Data_Parameters_ScRf><Optic_Parameters_Rf><parameter name="APR">0</parameter><parameter name="APT">Open</parameter><parameter name="BMS">KBr</parameter><parameter name="DTC">RT-DLaTGS_IR-Biotyper [Microplate reader]</parameter><parameter name="HPF">0</parameter><parameter name="LPF">10.0</parameter><parameter name="LPV">4000</parameter><parameter name="PGR">0</parameter><parameter name="RCH">Module port</parameter><parameter name="RDX">0</parameter><parameter name="SRC">MIR</parameter><parameter name="VEL">10.0</parameter><parameter name="SON">Off</parameter></Optic_Parameters_Rf><Acquisition_Parameters_Rf><parameter name="ADT">1</parameter><parameter name="AQM">DD</parameter><parameter name="CFE">0</parameter><parameter name="COR">0</parameter><parameter name="DEL">0</parameter><parameter name="DLY">0</parameter><parameter name="HFW">8000</parameter><parameter name="LFW">0</parameter><parameter name="NSR">32</parameter><parameter name="PLF">AB</parameter><parameter name="RES">6</parameter><parameter name="RGN">-1</parameter><parameter name="STR">0</parameter><parameter name="TCL">MakeCompatibleScalar (0, {WSV=1.000000, ARV=0});</parameter><parameter name="TDL">37</parameter><parameter name="RPO">0</parameter></Acquisition_Parameters_Rf><FT_-_Parameters_Rf><parameter name="APF">B3</parameter><parameter name="HFQ">500</parameter><parameter name="LFQ">4000</parameter><parameter name="NLI">0</parameter><parameter name="PHR">24</parameter><parameter name="PHZ">ML</parameter><parameter name="SPZ">NO</parameter><parameter name="ZFF">1</parameter></FT_-_Parameters_Rf><Optic_Parameters_><parameter name="APR">0</parameter><parameter name="APT">Open</parameter><parameter name="BMS">KBr</parameter><parameter name="CHN">Module port</parameter><parameter name="DTC">RT-DLaTGS_IR-Biotyper [Microplate reader]</parameter><parameter name="HPF">0</parameter><parameter name="LPF">10.0</parameter><parameter name="LPV">4000</parameter><parameter name="PGN">0</parameter><parameter name="RDX">0</parameter><parameter name="SRC">MIR</parameter><parameter name="VEL">10.0</parameter><parameter name="SON">Off</parameter></Optic_Parameters_><FT_-_Parameters_><parameter name="APF">B3</parameter><parameter name="HFQ">500</parameter><parameter name="LFQ">4000</parameter><parameter name="NLI">0</parameter><parameter name="PHR">24</parameter><parameter name="PHZ">ML</parameter><parameter name="SPZ">NO</parameter><parameter name="ZFF">1</parameter></FT_-_Parameters_><Acquisition_Parameters_><parameter name="ADT">1</parameter><parameter name="AQM">DD</parameter><parameter name="CFE">0</parameter><parameter name="COR">0</parameter><parameter name="DEL">0</parameter><parameter name="DLY">0</parameter><parameter name="HFW">8000</parameter><parameter name="LFW">0</parameter><parameter name="NSS">32</parameter><parameter name="PLF">AB</parameter><parameter name="RES">6</parameter><parameter name="SOT">0</parameter><parameter name="TCL">MakeCompatibleScalar (0, {WSV=1.000000, ARV=0});</parameter><parameter name="TDL">37</parameter><parameter name="SPO">0</parameter><parameter name="SGN">-1</parameter></Acquisition_Parameters_><Instrument_Parameters_Rf><parameter name="HFL">15800.168544</parameter><parameter name="LFL">0</parameter><parameter name="LWN">15800.168544</parameter><parameter name="ABP">32197</parameter><parameter name="SSP">1</parameter><parameter name="ARG">2</parameter><parameter name="ASG">2</parameter><parameter name="ASS">32</parameter><parameter name="GFW">16</parameter><parameter name="GBW">16</parameter><parameter name="BFW">0</parameter><parameter name="BBW">0</parameter><parameter name="PKA">7267</parameter><parameter name="PKL">4996</parameter><parameter name="PRA">7452</parameter><parameter name="PRL">5001</parameter><parameter name="P2A">1</parameter><parameter name="P2L">1</parameter><parameter name="P2R">1</parameter><parameter name="P2K">1</parameter><parameter name="DAQ">0</parameter><parameter name="AG2">1</parameter><parameter name="SSM">1</parameter><parameter name="RSN">26121</parameter><parameter name="CRR">0</parameter><parameter name="SRT">1654171160.138</parameter><parameter name="DUR">19.6379852294922</parameter><parameter name="TSC">28.8</parameter><parameter name="MVD">0.277556568384171</parameter><parameter name="AN1">0.225832030476302</parameter><parameter name="AN2">0</parameter><parameter name="VSN">2.485 Apr  4 2017</parameter><parameter name="SRN">0085</parameter><parameter name="CAM">0</parameter><parameter name="INS">IR-Biotyper</parameter><parameter name="FOC">69</parameter><parameter name="RDY">1</parameter><parameter name="ARS">32</parameter></Instrument_Parameters_Rf><Sample_Parameters_><parameter name="BLD"></parameter><parameter name="CNM">Admin</parameter><parameter name="CPY"></parameter><parameter name="DPM"></parameter><parameter name="EXP">IRBT_v3_32Scans.XPM</parameter><parameter name="LCT"></parameter><parameter name="SFM">Microplate, HTS-XT</parameter><parameter name="SNM">220602-1054_SMP28F (D_2)_F7_e293541b-c276-49ff-8395-419e81d5ac47.0</parameter><parameter name="XPP">C:\Users\Public\Documents\Bruker\OPUS_8.2.28\XPM</parameter><parameter name="IST">OK</parameter><parameter name="CPG">1252</parameter><parameter name="UID">9a84a97e-f307-4263-85a6-b3a1119692ae</parameter></Sample_Parameters_><Instrument_Parameters_><parameter name="HFL">15800.168544</parameter><parameter name="LFL">0</parameter><parameter name="LWN">15800.168544</parameter><parameter name="ABP">32197</parameter><parameter name="SSP">1</parameter><parameter name="ASG">2</parameter><parameter name="ARG">2</parameter><parameter name="ASS">32</parameter><parameter name="GFW">16</parameter><parameter name="GBW">16</parameter><parameter name="BFW">0</parameter><parameter name="BBW">0</parameter><parameter name="PKA">8135</parameter><parameter name="PKL">4988</parameter><parameter name="PRA">8436</parameter><parameter name="PRL">4993</parameter><parameter name="P2A">1</parameter><parameter name="P2L">1</parameter><parameter name="P2R">1</parameter><parameter name="P2K">1</parameter><parameter name="DAQ">0</parameter><parameter name="AG2">1</parameter><parameter name="SSM">1</parameter><parameter name="RSN">13686</parameter><parameter name="CRR">0</parameter><parameter name="SRT">1654171185.991</parameter><parameter name="DUR">19.6369934082031</parameter><parameter name="TSC">28.8</parameter><parameter name="MVD">0.282843768596649</parameter><parameter name="AN1">0.225804738461131</parameter><parameter name="AN2">0</parameter><parameter name="VSN">2.485 Apr  4 2017</parameter><parameter name="SRN">0085</parameter><parameter name="CAM">0</parameter><parameter name="INS">IR-Biotyper</parameter><parameter name="FOC">69</parameter><parameter name="RDY">1</parameter></Instrument_Parameters_><History/></OPUSDataFile>
