<?xml version="1.0" encoding="UTF-8" ?>
<OPUSDataFile><AB><Ydata ylabel="Absorbance Units"><values byteorder="INTEL" format="FLOAT32" numvalues="3497"> -0.07731303 -0.07730035 -0.0772851 -0.07726677 -0.07725327 -0.07724501 -0.07723941 -0.07723651 -0.0772354 -0.07723735
 -0.07724945 -0.07727241 -0.07731377 -0.0773705 -0.07744034 -0.07751797 -0.0775935 -0.07766459 -0.07772376 -0.07777401
 -0.07781501 -0.07785065 -0.07788351 -0.07791371 -0.07794218 -0.07796684 -0.07798683 -0.07800363 -0.07801676 -0.07803249
 -0.07805137 -0.07807794 -0.07811248 -0.07815132 -0.07819384 -0.07823077 -0.07826225 -0.07828356 -0.07829681 -0.07830642
 -0.07831538 -0.07833301 -0.07836077 -0.07840614 -0.07846671 -0.07854445 -0.07863104 -0.07872204 -0.07880683 -0.07887863
 -0.07893091 -0.07895947 -0.078963 -0.07893988 -0.078893 -0.07882129 -0.07873682 -0.0786396 -0.07855384 -0.07848089
 -0.07844689 -0.07845189 -0.07850408 -0.07859959 -0.07872021 -0.07886138 -0.07899641 -0.07912515 -0.07923353 -0.07932455
 -0.07939663 -0.07945346 -0.07949843 -0.07953488 -0.07956737 -0.07959478 -0.07961959 -0.07963299 -0.07963221 -0.07961081
 -0.07956389 -0.0795038 -0.07942934 -0.07937012 -0.0793284 -0.0793324 -0.07938386 -0.07949542 -0.07966604 -0.07988657
 -0.08015119 -0.08042283 -0.0806911 -0.08089628 -0.08103719 -0.08107398 -0.0810286 -0.08091632 -0.08076521 -0.08061508
 -0.08047906 -0.08038376 -0.08032189 -0.08029952 -0.08029616 -0.08030445 -0.08031436 -0.08031846 -0.08033267 -0.08035781
 -0.08041336 -0.08050308 -0.0806158 -0.08075126 -0.08086765 -0.0809637 -0.08101097 -0.08101431 -0.08098818 -0.08094113
 -0.08091315 -0.08090701 -0.08095384 -0.08104109 -0.08116592 -0.08130479 -0.08142663 -0.08152297 -0.08157231 -0.08158847
 -0.08157318 -0.08153926 -0.08149226 -0.08143817 -0.0813764 -0.08132673 -0.08128893 -0.08130421 -0.08137717 -0.08153509
 -0.08178059 -0.08203814 -0.08229917 -0.08240772 -0.0823767 -0.08220751 -0.08193029 -0.08166443 -0.08141475 -0.08125424
 -0.08117085 -0.08118039 -0.08126003 -0.08139241 -0.08154984 -0.08170284 -0.08183891 -0.0819395 -0.08201501 -0.08206568
 -0.08209997 -0.08212237 -0.08212507 -0.08210702 -0.08206391 -0.08199373 -0.08191335 -0.08182354 -0.08175192 -0.08169942
 -0.08168428 -0.08170526 -0.08176476 -0.08185883 -0.08197598 -0.08210898 -0.08223516 -0.08234728 -0.08242115 -0.08245768
 -0.08244476 -0.08239704 -0.08231872 -0.08223428 -0.08215667 -0.08210924 -0.08210531 -0.08215172 -0.08225737 -0.08239809
 -0.08257446 -0.08274208 -0.0828966 -0.0830041 -0.0830621 -0.08306096 -0.08300149 -0.08289557 -0.08274642 -0.08257991
 -0.08239979 -0.08223366 -0.08208404 -0.08197159 -0.08189571 -0.08186702 -0.08187754 -0.08192548 -0.08199287 -0.08206522
 -0.08212681 -0.08216084 -0.08217393 -0.08216196 -0.08214577 -0.08213178 -0.08212517 -0.08212952 -0.08213241 -0.0821323
 -0.08212757 -0.08211781 -0.08211784 -0.08212817 -0.08215994 -0.08221108 -0.08227395 -0.08234461 -0.08240243 -0.08244801
 -0.08246986 -0.08247679 -0.08247801 -0.08248361 -0.08251213 -0.08256166 -0.08263931 -0.08273292 -0.0828338 -0.08294652
 -0.08306649 -0.08321884 -0.08341356 -0.08364699 -0.08392822 -0.0841897 -0.08442631 -0.08457255 -0.08462332 -0.08457457
 -0.08442798 -0.08421256 -0.08393308 -0.08363373 -0.08332135 -0.08304583 -0.08281207 -0.08265991 -0.08258566 -0.08260909
 -0.08270221 -0.08284409 -0.08299506 -0.0831077 -0.08317967 -0.08319081 -0.08316837 -0.08311879 -0.08306298 -0.08300959
 -0.0829612 -0.08292085 -0.08287839 -0.0828329 -0.08277761 -0.08271179 -0.082643 -0.08257224 -0.08251803 -0.0824815
 -0.08248195 -0.08251559 -0.08258282 -0.08266819 -0.08273082 -0.08276035 -0.08270967 -0.08260219 -0.0824451 -0.08226973
 -0.08211007 -0.08197106 -0.08187047 -0.08178607 -0.08171444 -0.0816308 -0.08152477 -0.08139649 -0.08124203 -0.08108198
 -0.08091805 -0.08076749 -0.08063178 -0.08051059 -0.08040319 -0.08029401 -0.08018249 -0.0800566 -0.07991838 -0.07976981
 -0.07961275 -0.07945231 -0.07929102 -0.07913438 -0.07898767 -0.07886046 -0.07875381 -0.07867645 -0.07861272 -0.07855969
 -0.07849056 -0.07839295 -0.07825299 -0.07806321 -0.07782408 -0.07753403 -0.0771984 -0.07681681 -0.07640208 -0.07595479
 -0.07549359 -0.07501983 -0.07455739 -0.07410894 -0.07370636 -0.07335 -0.07306219 -0.07283326 -0.07265044 -0.07250089
 -0.07235138 -0.07220466 -0.07205012 -0.07189541 -0.07175303 -0.07159793 -0.07142442 -0.07119098 -0.0708686 -0.07047668
 -0.07000844 -0.06951915 -0.06901954 -0.0685362 -0.06807435 -0.06763693 -0.06722445 -0.06683807 -0.06647806 -0.06615123
 -0.06585694 -0.06559669 -0.06536403 -0.06513639 -0.06490007 -0.06460268 -0.06424411 -0.06378804 -0.06327154 -0.06272669
 -0.06218693 -0.06169945 -0.06126216 -0.06089122 -0.06056313 -0.06027524 -0.05999433 -0.05971038 -0.05940187 -0.05906067
 -0.05869338 -0.05829939 -0.05789134 -0.05747043 -0.05703184 -0.05657512 -0.0560883 -0.05557316 -0.05503662 -0.05448363
 -0.05393909 -0.05340609 -0.05290674 -0.05243933 -0.05201366 -0.05161955 -0.05125104 -0.05088984 -0.05051639 -0.05012193
 -0.04969056 -0.04923762 -0.04876449 -0.04829027 -0.04782387 -0.04736097 -0.04690381 -0.04643468 -0.0459503 -0.04545349
 -0.04494356 -0.04444733 -0.04396587 -0.04351848 -0.04310316 -0.04271452 -0.0423472 -0.0419751 -0.04159481 -0.04118009
 -0.0407386 -0.04026927 -0.03978902 -0.03932038 -0.03887356 -0.03847127 -0.03809965 -0.03776336 -0.03742447 -0.03706726
 -0.03666786 -0.03620967 -0.03571491 -0.03518246 -0.03465118 -0.03412659 -0.03362501 -0.03314864 -0.03268642 -0.03223752
 -0.03178395 -0.03132524 -0.03085013 -0.03035835 -0.0298417 -0.02930208 -0.02873747 -0.02815714 -0.02757649 -0.02700653
 -0.02647185 -0.02596827 -0.02550456 -0.02506156 -0.02462929 -0.02419495 -0.02374732 -0.02329376 -0.02283184 -0.02238134
 -0.02194619 -0.02153785 -0.02116027 -0.02079826 -0.02045176 -0.02008506 -0.01969688 -0.01926624 -0.0187966 -0.0183066
 -0.01780172 -0.01731875 -0.01685508 -0.01642474 -0.01601685 -0.01561607 -0.01521606 -0.01479794 -0.01437099 -0.01393426
 -0.0135062 -0.01310145 -0.01272129 -0.01237711 -0.01203594 -0.01169285 -0.01130906 -0.01087179 -0.01038509 -0.009844041
 -0.009296684 -0.008745942 -0.008234967 -0.007764749 -0.007337984 -0.006951662 -0.006581141 -0.006225139 -0.005864156 -0.00550092
 -0.00513344 -0.004764297 -0.004398678 -0.004035205 -0.003674745 -0.003313849 -0.002949291 -0.002579486 -0.002202959 -0.001817268
 -0.001420758 -0.001012685 -0.0005895912 -0.0001659423 0.0002582457 0.000656125 0.001023085 0.001352214 0.001641352 0.001921984
 0.00219594 0.002503209 0.002842356 0.003220048 0.003628897 0.004038525 0.004443024 0.004806815 0.005134418 0.00541464
 0.005662561 0.005894392 0.006121622 0.006364708 0.006617562 0.006884065 0.007150342 0.007408443 0.007659637 0.007900611
 0.008144897 0.00839558 0.008656741 0.008930162 0.009208423 0.00949106 0.009773257 0.01005489 0.01033603 0.01061693
 0.01089881 0.01118308 0.01147691 0.01178187 0.01210852 0.01245243 0.01281247 0.01317684 0.01352914 0.01385926
 0.01414934 0.0144013 0.01460813 0.01478444 0.01493339 0.01507341 0.01521131 0.01535639 0.015513 0.01567683
 0.01584826 0.01601861 0.01618697 0.01635334 0.01651802 0.01669344 0.01688056 0.01709455 0.01733381 0.017601
 0.0178894 0.01818143 0.01846901 0.01872531 0.01895127 0.01913266 0.01928554 0.01941768 0.01955111 0.01970534
 0.01988557 0.02010536 0.02033833 0.02058261 0.02079898 0.0209762 0.02110564 0.02118081 0.0212385 0.02128077
 0.02134454 0.02143061 0.02152583 0.02162653 0.02168985 0.0217186 0.02170056 0.02164862 0.02159596 0.02155206
 0.02155598 0.0216014 0.0216992 0.02183118 0.02198378 0.02214145 0.0222866 0.02242113 0.02253767 0.02265675
 0.02278329 0.02293347 0.02311565 0.02331357 0.02352937 0.02371763 0.0238749 0.02396681 0.02399243 0.02396238
 0.0238807 0.0237911 0.02369545 0.02362744 0.0235822 0.02356145 0.02356197 0.02357548 0.02360703 0.02366192
 0.02374052 0.02385076 0.02397388 0.02410193 0.02421165 0.02428576 0.02432779 0.02432987 0.0243249 0.02431782
 0.02433801 0.0243925 0.02447758 0.02459499 0.02470916 0.02481813 0.02488045 0.02489626 0.02484809 0.02474279
 0.02460241 0.02443895 0.0243014 0.02419697 0.02416901 0.02420708 0.02432089 0.02448002 0.02465983 0.02482921
 0.02495461 0.02503397 0.02505164 0.02503776 0.0249975 0.02496108 0.02493767 0.02493451 0.02495369 0.02499764
 0.02506588 0.02517733 0.02533287 0.02554886 0.02582236 0.02613248 0.02647001 0.026777 0.02704699 0.02722479
 0.02731969 0.02731828 0.02724844 0.02714249 0.02703058 0.02695978 0.02693412 0.0269799 0.02706127 0.02717347
 0.02726373 0.02731254 0.02729094 0.02718404 0.02700938 0.026764 0.02649574 0.02620818 0.02593969 0.02569195
 0.02547028 0.02527349 0.02509021 0.02492107 0.02476347 0.02461949 0.02449615 0.02439108 0.02430531 0.0242288
 0.02415003 0.02405251 0.02391678 0.02372626 0.02346035 0.02312011 0.02269333 0.02221464 0.02168764 0.02116403
 0.0206566 0.02019518 0.01978836 0.0194289 0.01911788 0.01883016 0.01856441 0.01829431 0.01801916 0.01772047
 0.01740182 0.01707022 0.01673368 0.01642515 0.01614269 0.01590495 0.01568943 0.01547127 0.01522917 0.01492331
 0.01456794 0.01415173 0.01372255 0.01329972 0.01292309 0.01261513 0.012375 0.0122122 0.01208551 0.01199343
 0.01187697 0.01173089 0.01151292 0.01122109 0.010859 0.01043058 0.009979733 0.009511023 0.009072505 0.008663345
 0.008307441 0.007998499 0.007735804 0.007509936 0.00730778 0.007118288 0.006925354 0.006720801 0.006492204 0.006241105
 0.005962359 0.005669946 0.005365454 0.005069304 0.00478682 0.004529377 0.004301348 0.00409185 0.003901282 0.003703544
 0.003497302 0.003263288 0.003001997 0.002712676 0.002397482 0.002067107 0.00172402 0.001381693 0.001042067 0.0007172278
 0.0004047744 0.0001084131 -0.0001808669 -0.0004711882 -0.0007698946 -0.001088139 -0.001418711 -0.001763833 -0.002104724 -0.002434458
 -0.002744101 -0.003027087 -0.003298804 -0.003558841 -0.003835534 -0.004131764 -0.004461895 -0.00482664 -0.005212768 -0.005618156
 -0.006013413 -0.006397585 -0.006748769 -0.007070716 -0.007363365 -0.007633318 -0.007895748 -0.008154279 -0.008422481 -0.008697804
 -0.00898267 -0.009273645 -0.009568854 -0.009865996 -0.01016563 -0.0104578 -0.01074161 -0.01099814 -0.0112206 -0.01140863
 -0.01155661 -0.01170547 -0.01185709 -0.01206576 -0.01233431 -0.01267552 -0.01308542 -0.0135203 -0.01397353 -0.01438353
 -0.01475116 -0.0150425 -0.01527194 -0.01545148 -0.01560453 -0.01577438 -0.01597369 -0.01624022 -0.01655474 -0.01692095
 -0.01729881 -0.0176656 -0.01800542 -0.01830112 -0.01857815 -0.01883935 -0.01910784 -0.01939203 -0.01966936 -0.01994032
 -0.02015644 -0.02031515 -0.02039905 -0.02041168 -0.02039197 -0.02034782 -0.02034601 -0.02038823 -0.02051996 -0.02072852
 -0.02101018 -0.0213449 -0.02169661 -0.02205854 -0.02240529 -0.02274921 -0.02309394 -0.02344339 -0.02380798 -0.02416038
 -0.02449452 -0.02478247 -0.02501001 -0.02519729 -0.0253413 -0.02549565 -0.02566647 -0.02587242 -0.02611479 -0.02635282
 -0.02658385 -0.02676029 -0.02688614 -0.02695913 -0.0269888 -0.02700851 -0.0270224 -0.02705847 -0.02711177 -0.02718687
 -0.02727734 -0.02737476 -0.02748379 -0.02760056 -0.02774596 -0.02792896 -0.02816889 -0.02848073 -0.02884842 -0.02927846
 -0.02971142 -0.03014077 -0.03050731 -0.03080204 -0.03102432 -0.03117357 -0.03131381 -0.03144897 -0.03164975 -0.03191184
 -0.03224939 -0.03264675 -0.03305595 -0.0334641 -0.03381259 -0.03410707 -0.03432615 -0.03449199 -0.03462011 -0.03473293
 -0.03485387 -0.03499361 -0.03516626 -0.035367 -0.0356006 -0.03584543 -0.03609895 -0.03633379 -0.03654324 -0.03672442
 -0.03687405 -0.03702726 -0.03718587 -0.03738507 -0.03762345 -0.037889 -0.03817565 -0.03843693 -0.03867507 -0.03886914
 -0.03903474 -0.03919992 -0.03937492 -0.03959545 -0.03984795 -0.04013538 -0.04042904 -0.04070707 -0.04094975 -0.04113818
 -0.04127184 -0.0413446 -0.0413676 -0.04134132 -0.04128118 -0.04118877 -0.04108152 -0.04096062 -0.04084656 -0.04074049
 -0.04066932 -0.04063469 -0.04066629 -0.04076313 -0.04093743 -0.0411808 -0.04147183 -0.04179684 -0.04211197 -0.0424087
 -0.04265096 -0.0428424 -0.04297101 -0.04304979 -0.04308427 -0.04308818 -0.04307082 -0.0430394 -0.0429992 -0.04295096
 -0.04289526 -0.04283465 -0.04276944 -0.04270353 -0.04263843 -0.04256324 -0.04247763 -0.04234545 -0.04216488 -0.04189996
 -0.04155445 -0.04113141 -0.04064151 -0.04012631 -0.03959294 -0.03908139 -0.03858912 -0.03812939 -0.03769853 -0.03729538
 -0.0369228 -0.03658355 -0.03627712 -0.03600786 -0.03575991 -0.0355299 -0.03529838 -0.03505668 -0.03480933 -0.0345523
 -0.03431855 -0.03411046 -0.03396064 -0.03387139 -0.03384583 -0.03388238 -0.03395569 -0.03406374 -0.03418016 -0.03430649
 -0.03443527 -0.0345677 -0.03470609 -0.03484321 -0.03496975 -0.03507376 -0.03513437 -0.03515304 -0.03511847 -0.03505334
 -0.03496621 -0.03487843 -0.03480421 -0.03473784 -0.03468334 -0.03461712 -0.03453495 -0.03442568 -0.03428628 -0.03412889
 -0.03395388 -0.03378673 -0.03362931 -0.03351389 -0.03344253 -0.0334466 -0.03352351 -0.03368347 -0.03391535 -0.03419775
 -0.03451825 -0.03484328 -0.03517246 -0.03548812 -0.03580574 -0.03612899 -0.03648184 -0.03687761 -0.03733698 -0.03787256
 -0.03848922 -0.03919462 -0.03996746 -0.0408089 -0.04167517 -0.0425631 -0.04342525 -0.04425847 -0.04503343 -0.04574991
 -0.04640303 -0.04699422 -0.04753072 -0.04801314 -0.0484466 -0.04883306 -0.04917783 -0.04948821 -0.04977842 -0.05005651
 -0.05034006 -0.05062699 -0.05092393 -0.05121885 -0.05150683 -0.05177816 -0.0520272 -0.05225158 -0.05244998 -0.05262018
 -0.05276211 -0.05287085 -0.05294592 -0.05298323 -0.05298244 -0.05294281 -0.05286511 -0.05276062 -0.05263412 -0.05252232
 -0.05243292 -0.05241832 -0.0524779 -0.05264213 -0.05289321 -0.05321773 -0.05358887 -0.05396822 -0.054338 -0.05466764
 -0.05495783 -0.05519794 -0.05540281 -0.05557479 -0.0557308 -0.05587608 -0.05601995 -0.05616509 -0.05631417 -0.05646736
 -0.05663 -0.05680219 -0.05700066 -0.05722695 -0.05750923 -0.05784903 -0.05827356 -0.05877796 -0.05936261 -0.06001063
 -0.06068051 -0.06135346 -0.061972 -0.06253918 -0.06302839 -0.06347041 -0.06388117 -0.06429047 -0.06472539 -0.06518453
 -0.06567823 -0.06617989 -0.06668485 -0.0671695 -0.06762802 -0.06805228 -0.06844018 -0.06879432 -0.0691146 -0.06940959
 -0.06967998 -0.06993872 -0.07018635 -0.07043353 -0.0706794 -0.07092666 -0.07117327 -0.07141531 -0.07165106 -0.071875
 -0.07208789 -0.07228727 -0.07247807 -0.07266277 -0.07284845 -0.0730406 -0.07324155 -0.07345593 -0.07367383 -0.07389541
 -0.07410203 -0.07428989 -0.074449 -0.07457616 -0.07468488 -0.07477552 -0.07487419 -0.07498151 -0.07510734 -0.07524902
 -0.07539057 -0.0755308 -0.07565337 -0.07576529 -0.07587581 -0.07599441 -0.07614575 -0.07632721 -0.07654995 -0.07679551
 -0.07705352 -0.0773029 -0.07752711 -0.07771688 -0.07786243 -0.07796955 -0.07803542 -0.07807922 -0.0781021 -0.07813156
 -0.07817075 -0.07824014 -0.07834174 -0.07847222 -0.07863057 -0.07879456 -0.07896312 -0.0791172 -0.07925858 -0.07938443
 -0.07949745 -0.07960386 -0.07970438 -0.07980365 -0.07990023 -0.07999466 -0.08008388 -0.08016598 -0.08023679 -0.08029316
 -0.08033249 -0.08035134 -0.08035536 -0.08034299 -0.08033195 -0.08032409 -0.08034093 -0.08038583 -0.08046672 -0.08058494
 -0.0807251 -0.08088584 -0.08103948 -0.08118543 -0.08130538 -0.08140228 -0.08147814 -0.08153789 -0.08159661 -0.0816561
 -0.08172873 -0.08180894 -0.08189612 -0.08198019 -0.08205052 -0.08210459 -0.08213412 -0.08215248 -0.08216135 -0.08218001
 -0.08221553 -0.08227424 -0.08236042 -0.0824625 -0.08258016 -0.08269775 -0.08281397 -0.08292317 -0.08302541 -0.08312559
 -0.08322401 -0.08332574 -0.08342954 -0.08353265 -0.0836336 -0.083726 -0.08381135 -0.08388877 -0.08396219 -0.08403706
 -0.08411438 -0.08419815 -0.08428446 -0.08437187 -0.08445759 -0.0845392 -0.084619 -0.08469712 -0.08477613 -0.08485716
 -0.0849376 -0.08501746 -0.08509241 -0.08516205 -0.08522654 -0.08528594 -0.08534324 -0.08539804 -0.08544868 -0.08549407
 -0.08552755 -0.08555011 -0.08555945 -0.08556114 -0.08556393 -0.0855747 -0.08560731 -0.08566276 -0.08574903 -0.08585788
 -0.08598779 -0.0861269 -0.08626988 -0.08640841 -0.08653861 -0.08665796 -0.08676521 -0.08686065 -0.08694411 -0.0870166
 -0.0870781 -0.08713161 -0.08717741 -0.08722126 -0.08726346 -0.08730893 -0.08735738 -0.08740992 -0.08746652 -0.08752742
 -0.08759329 -0.08766621 -0.08774508 -0.08783046 -0.08791783 -0.08800294 -0.08808313 -0.08815411 -0.08821966 -0.08828002
 -0.08834016 -0.08840263 -0.08846541 -0.08852898 -0.08858796 -0.08864129 -0.08868984 -0.08873342 -0.08877871 -0.08882596
 -0.08887875 -0.08893652 -0.08899575 -0.089056 -0.08911275 -0.08916726 -0.0892205 -0.08927462 -0.08933501 -0.089401
 -0.08947512 -0.08955269 -0.08963037 -0.08970406 -0.08976905 -0.08982687 -0.08987606 -0.0899227 -0.08996823 -0.09001752
 -0.0900721 -0.09013271 -0.09020007 -0.09026989 -0.09034207 -0.09040862 -0.09046916 -0.09051778 -0.09055518 -0.09058442
 -0.09060732 -0.0906342 -0.09066574 -0.09071022 -0.0907654 -0.09083147 -0.0909045 -0.0909792 -0.0910524 -0.09111901
 -0.09117804 -0.0912267 -0.09126718 -0.0912991 -0.09132706 -0.09135221 -0.09137869 -0.09140787 -0.09144006 -0.09147575
 -0.09151199 -0.09154854 -0.0915845 -0.09161996 -0.09165975 -0.09170416 -0.09175841 -0.09182135 -0.09189101 -0.09196479
 -0.09203377 -0.09209673 -0.09214619 -0.09218416 -0.09220984 -0.09222669 -0.0922379 -0.09224554 -0.09225204 -0.09225809
 -0.09226427 -0.092272 -0.09228138 -0.09229539 -0.09231464 -0.09234139 -0.09237628 -0.09241817 -0.09246715 -0.09251915
 -0.09257396 -0.09262766 -0.09268016 -0.09272891 -0.09277374 -0.09281252 -0.0928452 -0.09287009 -0.09288853 -0.09290193
 -0.09291293 -0.09292615 -0.09294239 -0.09296515 -0.09299104 -0.09301947 -0.09304538 -0.0930661 -0.09307916 -0.09308288
 -0.09307804 -0.09306421 -0.09304429 -0.09301814 -0.09299227 -0.092967 -0.09295186 -0.09294725 -0.09295752 -0.09298182
 -0.09301388 -0.09305257 -0.09308837 -0.09312235 -0.09315247 -0.09318131 -0.0932138 -0.09325023 -0.09329385 -0.09334213
 -0.09339399 -0.09344646 -0.0934974 -0.09354413 -0.09358506 -0.0936178 -0.09364066 -0.09365533 -0.09366087 -0.09366536
 -0.09366961 -0.09368148 -0.09370206 -0.0937288 -0.09376147 -0.0937899 -0.0938142 -0.09383087 -0.09384194 -0.09385607
 -0.09387439 -0.09390621 -0.09394839 -0.09399959 -0.09405464 -0.09410473 -0.09414852 -0.09418035 -0.09420394 -0.09421966
 -0.09423245 -0.0942449 -0.09425951 -0.09427799 -0.09429958 -0.09432456 -0.09435084 -0.09437807 -0.09440596 -0.09443443
 -0.09446453 -0.09449624 -0.09452731 -0.09455727 -0.09458029 -0.09459648 -0.09460294 -0.09460123 -0.09459469 -0.09458465
 -0.0945755 -0.09456766 -0.09456321 -0.09456318 -0.09456941 -0.09458232 -0.09460391 -0.09463026 -0.094661 -0.09468909
 -0.09471183 -0.09472621 -0.09473048 -0.09472751 -0.09471726 -0.09470399 -0.09468798 -0.09467293 -0.09465905 -0.09465107
 -0.09464913 -0.09465665 -0.09467258 -0.09469364 -0.09471785 -0.09473654 -0.09474989 -0.09475293 -0.09474961 -0.09474335
 -0.09473829 -0.09474113 -0.0947505 -0.09476863 -0.09478961 -0.09481084 -0.09482926 -0.09484238 -0.09485324 -0.09486186
 -0.09487246 -0.09488598 -0.09490237 -0.09492197 -0.09494008 -0.09495647 -0.0949652 -0.09496622 -0.09495658 -0.09493726
 -0.0949114 -0.09488043 -0.09485076 -0.09482281 -0.09480072 -0.09478383 -0.09477301 -0.09476724 -0.09476595 -0.09476782
 -0.09477194 -0.0947767 -0.09478079 -0.09478457 -0.09478772 -0.09479179 -0.09479756 -0.09480345 -0.09480973 -0.09481168
 -0.09480889 -0.09479888 -0.09478155 -0.09475913 -0.09473204 -0.09470513 -0.09467943 -0.09466229 -0.09465594 -0.09467128
 -0.09471043 -0.09478398 -0.09489111 -0.0950362 -0.09521473 -0.09542392 -0.09565901 -0.09591445 -0.09619172 -0.09648769
 -0.09681403 -0.09717279 -0.09757838 -0.09803582 -0.09854637 -0.09911358 -0.09971356 -0.1003458 -0.1009714 -0.1015883
 -0.1021603 -0.1026848 -0.1031261 -0.1034779 -0.1036878 -0.1037495 -0.1036093 -0.1032778 -0.1027384 -0.1020387
 -0.1012331 -0.1003896 -0.09960418 -0.09891043 -0.09836793 -0.09796895 -0.0977269 -0.097619 -0.09764405 -0.09776738
 -0.09798705 -0.09824303 -0.09852907 -0.09877919 -0.09898566 -0.0991277 -0.09920411 -0.09922477 -0.09919029 -0.09910777
 -0.09898039 -0.09882838 -0.09865627 -0.09849257 -0.09833364 -0.09818687 -0.0980432 -0.0978899 -0.09772558 -0.09754223
 -0.09734587 -0.09713861 -0.09692495 -0.09670775 -0.09648956 -0.09627148 -0.09605658 -0.09584572 -0.09564107 -0.09544314
 -0.09525248 -0.09506907 -0.09489469 -0.09472945 -0.09457771 -0.09443966 -0.0943194 -0.09421626 -0.09412912 -0.09405606
 -0.09399001 -0.09392931 -0.09386626 -0.09380151 -0.09373201 -0.09366086 -0.09358992 -0.09352271 -0.093463 -0.09341094
 -0.09336889 -0.0933312 -0.09329731 -0.09325861 -0.09321234 -0.09315658 -0.09308954 -0.09302061 -0.09295033 -0.09288928
 -0.09283803 -0.09279615 -0.092763 -0.09273012 -0.09269761 -0.09266119 -0.09262262 -0.09258563 -0.09255185 -0.0925272
 -0.09251147 -0.09250747 -0.09251284 -0.09252708 -0.09254488 -0.092563 -0.09257452 -0.0925748 -0.09256051 -0.09252805
 -0.09248269 -0.09242372 -0.09236349 -0.0923036 -0.09225448 -0.09221771 -0.09219298 -0.0921803 -0.09216864 -0.09215733
 -0.09213424 -0.09210008 -0.09205198 -0.09199254 -0.09192912 -0.09186402 -0.09180693 -0.09175695 -0.09171801 -0.09168568
 -0.09165666 -0.09162694 -0.09159156 -0.09155108 -0.09150364 -0.09145381 -0.09140273 -0.0913542 -0.09130941 -0.09127011
 -0.09123682 -0.09120993 -0.09118969 -0.09117395 -0.09116263 -0.0911497 -0.0911348 -0.09111137 -0.09107967 -0.09103727
 -0.09098578 -0.09092894 -0.09086934 -0.09081493 -0.09076731 -0.09073372 -0.09071152 -0.09070169 -0.09069781 -0.09069523
 -0.09068928 -0.09067524 -0.09065455 -0.09062634 -0.09059408 -0.09055872 -0.090521 -0.09048121 -0.09043933 -0.09039521
 -0.09035135 -0.09030787 -0.09026763 -0.09023054 -0.09019609 -0.09016396 -0.09013169 -0.09009967 -0.09006772 -0.09003694
 -0.09001015 -0.08998718 -0.08996972 -0.08995526 -0.08994182 -0.08992681 -0.08990692 -0.08988287 -0.08985351 -0.08982246
 -0.08979075 -0.08976106 -0.08973461 -0.08971076 -0.08968985 -0.08966871 -0.08964708 -0.08962236 -0.08959437 -0.08956431
 -0.08953249 -0.08950382 -0.08947835 -0.08945926 -0.08944545 -0.08943476 -0.08942588 -0.08941437 -0.08940014 -0.0893809
 -0.08935769 -0.08933073 -0.08930142 -0.08927049 -0.08924036 -0.08921238 -0.08918874 -0.08917105 -0.08915824 -0.08915106
 -0.08914421 -0.08913708 -0.08912458 -0.08910589 -0.0890815 -0.08905134 -0.08902232 -0.08899477 -0.08897524 -0.08896299
 -0.08895707 -0.08895565 -0.08895096 -0.08894259 -0.08892486 -0.08890011 -0.08886947 -0.08883579 -0.0888032 -0.08877253
 -0.08874594 -0.08872293 -0.08870374 -0.08868799 -0.08867586 -0.08866589 -0.08865815 -0.08864911 -0.08863828 -0.08862245
 -0.08860112 -0.08857424 -0.08854177 -0.08850637 -0.08846821 -0.08843005 -0.08839192 -0.08835509 -0.08831979 -0.08828726
 -0.08825812 -0.08823466 -0.08821703 -0.08820715 -0.08820324 -0.08820483 -0.08820779 -0.0882089 -0.08820438 -0.08819063
 -0.08816805 -0.08813509 -0.08809665 -0.08805336 -0.08801077 -0.08797003 -0.08793349 -0.08790154 -0.08787453 -0.08785249
 -0.08783619 -0.08782559 -0.0878203 -0.08781979 -0.08782057 -0.08782182 -0.08781835 -0.08780999 -0.08779351 -0.08776956
 -0.08773763 -0.08769904 -0.08765466 -0.08760718 -0.08755857 -0.08751256 -0.08747195 -0.08743828 -0.08741366 -0.08739469
 -0.08738143 -0.08736798 -0.08735309 -0.08733467 -0.08731198 -0.08728936 -0.08726698 -0.08724956 -0.08723696 -0.08722755
 -0.08722053 -0.08720931 -0.08719397 -0.08717082 -0.08714158 -0.08710863 -0.08707356 -0.08704038 -0.0870094 -0.0869827
 -0.08695973 -0.08694087 -0.08692523 -0.08691262 -0.08690172 -0.0868921 -0.08688242 -0.08687229 -0.0868607 -0.08684744
 -0.08683151 -0.08681275 -0.08679106 -0.08676641 -0.0867397 -0.08671096 -0.08668076 -0.08664908 -0.08661596 -0.08658151
 -0.08654641 -0.0865106 -0.08647452 -0.08643758 -0.08639872 -0.0863581 -0.08631461 -0.08627119 -0.08622944 -0.08619321
 -0.08616572 -0.08614714 -0.08613928 -0.08613726 -0.08614069 -0.08614295 -0.08614283 -0.0861358 -0.08612105 -0.08609784
 -0.08606599 -0.08602781 -0.08598347 -0.08593626 -0.08588652 -0.08583812 -0.0857913 -0.08574929 -0.08571178 -0.08568007
 -0.08565269 -0.08562782 -0.08560371 -0.08557724 -0.08554813 -0.08551449 -0.08547838 -0.08544011 -0.08540265 -0.08536781
 -0.0853351 -0.0853057 -0.0852735 -0.08523779 -0.08519246 -0.0851362 -0.08507134 -0.08499779 -0.08492548 -0.08485483
 -0.08479371 -0.08474163 -0.08469924 -0.08466523 -0.08463494 -0.08460689 -0.08457462 -0.08453787 -0.0844924 -0.08444083
 -0.08438415 -0.08432651 -0.08427259 -0.08422266 -0.08417971 -0.08413753 -0.08409455 -0.08404482 -0.08398505 -0.08391882
 -0.08384527 -0.08377516 -0.08370979 -0.08365474 -0.08361065 -0.08357111 -0.08353567 -0.08349478 -0.08344885 -0.08339603
 -0.08333769 -0.08327875 -0.08321965 -0.08316401 -0.08311182 -0.08306449 -0.08302256 -0.0829882 -0.08295892 -0.08293514
 -0.08290859 -0.08287478 -0.0828267 -0.08275831 -0.08267495 -0.08257511 -0.08247375 -0.0823735 -0.08228425 -0.08220815
 -0.0821426 -0.08208772 -0.08203413 -0.08198158 -0.08192517 -0.0818658 -0.08180802 -0.08175266 -0.0817065 -0.081668
 -0.08163714 -0.08161043 -0.08158143 -0.08154767 -0.08150282 -0.08144744 -0.0813788 -0.08130156 -0.08121696 -0.08113156
 -0.08104896 -0.08097081 -0.08089948 -0.0808288 -0.08075819 -0.08068123 -0.08059657 -0.08050595 -0.08040924 -0.08031373
 -0.08021969 -0.08013141 -0.08004865 -0.07997131 -0.0798992 -0.0798316 -0.07976843 -0.07970947 -0.07965392 -0.07960089
 -0.07954772 -0.07949109 -0.07942744 -0.0793515 -0.07926433 -0.07916322 -0.07905655 -0.07894673 -0.0788421 -0.07874676
 -0.07865912 -0.07858029 -0.07850276 -0.07842569 -0.07834437 -0.07825829 -0.07816824 -0.07807451 -0.07798387 -0.07789726
 -0.07782585 -0.07776894 -0.07773166 -0.07770824 -0.07768673 -0.07765927 -0.07760298 -0.07752018 -0.07740077 -0.0772605
 -0.07711003 -0.07696183 -0.07682879 -0.0767099 -0.07660905 -0.07651779 -0.0764346 -0.07635222 -0.07626855 -0.07618207
 -0.07609192 -0.07600243 -0.07591376 -0.07583263 -0.07575922 -0.07569618 -0.0756423 -0.07558991 -0.07553629 -0.0754648
 -0.07537539 -0.07525705 -0.07511663 -0.07496174 -0.07479905 -0.07464159 -0.07448985 -0.07434832 -0.07421743 -0.07409809
 -0.07399256 -0.07390378 -0.07382583 -0.07376008 -0.0736886 -0.07360829 -0.07350543 -0.07337674 -0.07322744 -0.07305735
 -0.07288162 -0.07270087 -0.07252502 -0.07235396 -0.07219097 -0.07203554 -0.07188723 -0.07174554 -0.07160889 -0.07147688
 -0.07134886 -0.07122222 -0.07109424 -0.07095983 -0.0708119 -0.07065172 -0.070475 -0.0702948 -0.0701156 -0.06994773
 -0.06979749 -0.06965871 -0.06953242 -0.0694041 -0.06927161 -0.06913002 -0.06897856 -0.06882305 -0.06866358 -0.0685005
 -0.06833245 -0.06814742 -0.06794506 -0.06771519 -0.0674631 -0.06719834 -0.06692673 -0.06666674 -0.06641451 -0.06617405
 -0.06593607 -0.06569146 -0.06543926 -0.065173 -0.06490526 -0.06463987 -0.06438725 -0.06415424 -0.06393218 -0.06372336
 -0.06350101 -0.06326309 -0.062979 -0.06264563 -0.06225994 -0.06182286 -0.06136847 -0.06089776 -0.06043565 -0.05997736
 -0.0595142 -0.05904136 -0.05853906 -0.05800861 -0.0574412 -0.0568453 -0.05622668 -0.05559888 -0.05497584 -0.05436957
 -0.05379508 -0.05324734 -0.05273256 -0.05222406 -0.05171395 -0.05118775 -0.05063561 -0.05008814 -0.04954719 -0.04904612
 -0.04858871 -0.04816714 -0.04778072 -0.04740797 -0.04704924 -0.04670019 -0.04636046 -0.04602863 -0.04569839 -0.04535025
 -0.04497926 -0.0445614 -0.04410801 -0.04362239 -0.04312236 -0.04262961 -0.04214497 -0.04167668 -0.04121744 -0.04076453
 -0.04031779 -0.03987705 -0.03944157 -0.03901568 -0.03857071 -0.03810801 -0.03755933 -0.03691876 -0.03615132 -0.03525853
 -0.03433328 -0.03338156 -0.03250265 -0.03168321 -0.03091097 -0.03017137 -0.02941245 -0.02863348 -0.02780865 -0.02694147
 -0.02603172 -0.02506653 -0.02404149 -0.02292028 -0.02167619 -0.02028869 -0.01872271 -0.01704855 -0.0152662 -0.01350524
 -0.01179623 -0.01020062 -0.008735149 -0.007384014 -0.006148693 -0.00498363 -0.003885448 -0.002775688 -0.001646027 -0.000378267
 0.001018427 0.002582441 0.004258581 0.005887174 0.007453666 0.00883178 0.01008235 0.01124176 0.01235551 0.01348959
 0.01464416 0.01583977 0.01706467 0.01831582 0.01959376 0.0209038 0.02221839 0.0235367 0.02481113 0.02603191
 0.02720059 0.028316 0.02939842 0.03044748 0.03142321 0.03232079 0.03307542 0.03369067 0.0341498 0.03446067
 0.03463721 0.03468778 0.03462993 0.03448522 0.03429125 0.03406505 0.03383993 0.0336149 0.03339728 0.03318915
 0.03299405 0.03280929 0.03263854 0.03246045 0.032273 0.03204872 0.03178322 0.03146133 0.03108012 0.03065896
 0.03019932 0.02974719 0.02930215 0.02887888 0.02847198 0.02806105 0.02764457 0.02720486 0.02674914 0.02628103
 0.02581529 0.02537453 0.0249702 0.02462229 0.02433565 0.02411734 0.02397646 0.02391897 0.02395033 0.0240773
 0.02428354 0.02456725 0.02491157 0.02531199 0.0257766 0.02630552 0.02691073 0.02759248 0.02834252 0.02915936
 0.03002454 0.03093798 0.03188974 0.03288069 0.03390802 0.03497329 0.03607703 0.03722417 0.03842199 0.03967445
 0.04099031 0.0423648 0.0437997 0.0452818 0.04680652 0.04835945 0.04993488 0.0515246 0.05312624 0.05473412
 0.05634917 0.05794988 0.05953521 0.06107426 0.06256597 0.06401623 0.06542887 0.0668522 0.06827965 0.06971028
 0.07111801 0.0724117 0.07358861 0.07459137 0.07544669 0.07617552 0.07678437 0.07729125 0.07768617 0.07796485
 0.07812811 0.07818356 0.07810003 0.07788698 0.07743153 0.07670505 0.07565428 0.07423969 0.07270002 0.07105245
 0.06947711 0.06798039 0.06646264 0.06491745 0.06324066 0.06144132 0.05951512 0.05747128 0.05534953 0.05312474
 0.05077925 0.04824292 0.04537392 0.04220698 0.0386394 0.03499147 0.03147972 0.02827138 0.02557495 0.02317261
 0.02103494 0.01897595 0.01692982 0.01490051 0.01287436 0.0109257 0.009062499 0.007289074 0.005605238 0.003954023
 0.002334606 0.0007159107 -0.0008935213 -0.002464704 -0.00398842 -0.005415564 -0.006751221 -0.007978747 -0.009116245 -0.0101825
 -0.0111961 -0.0121814 -0.01315661 -0.01413719 -0.01515112 -0.01621828 -0.01734818 -0.01857059 -0.0197804 -0.02096802
 -0.02199496 -0.02282428 -0.02350522 -0.02403511 -0.02452908 -0.02499248 -0.02546383 -0.02593952 -0.0263892 -0.02681063
 -0.02717409 -0.02748628 -0.02775718 -0.0279865 -0.02818342 -0.02833257 -0.028413 -0.02841607 -0.02831839 -0.02813656
 -0.02787408 -0.02755016 -0.02717745 -0.02675958 -0.02630184 -0.02579824 -0.02525186 -0.02463765 -0.02395785 -0.02314563
 -0.02219515 -0.02105201 -0.01971429 -0.01828279 -0.01677043 -0.01536748 -0.01406853 -0.01294169 -0.01196945 -0.01112492
 -0.01040526 -0.009793896 -0.009286852 -0.008882089 -0.008544698 -0.008246936 -0.007929161 -0.007529663 -0.007041365 -0.006421888
 -0.005768924 -0.005110414 -0.004505986 -0.003986902 -0.003509983 -0.003075789 -0.00262204 -0.002141918 -0.001611975 -0.001030926
 -0.0004244365 0.0002054218 0.0008237557 0.001434263 0.002036916 0.002642891 0.003290462 0.003987162 0.004774827 0.00564029
 0.006583158 0.007584374 0.008616689 0.009686982 0.01079064 0.01194028 0.0131483 0.01439568 0.01568289 0.01697303
 0.01825421 0.0195207 0.02076591 0.02202556 0.02330306 0.02461805 0.02597141 0.02729427 0.02857917 0.02971151
 0.03069207 0.03146699 0.03204342 0.03242183 0.03259836 0.03256698 0.03231532 0.03181828 0.03107518 0.03006823
 0.02882361 0.02734867 0.02568773 0.023864 0.02191283 0.01985105 0.01769983 0.01545988 0.01318264 0.01086808
 0.008619198 0.006445811 0.004418928 0.002542766 0.0007950695 -0.0008276423 -0.002379121 -0.003856067 -0.005267583 -0.006604268
 -0.007833931 -0.008959222 -0.00996564 -0.01087126 -0.01169855 -0.01246246 -0.01319041 -0.01388383 -0.0145524 -0.0151942
 -0.01580817 -0.01640167 -0.01697601 -0.01754164 -0.01810236 -0.01865876 -0.01921194 -0.0197573 -0.02029464 -0.02081953
 -0.02133174 -0.02181897 -0.02227997 -0.02269417 -0.02306165 -0.02337174 -0.02362676 -0.02383034 -0.02398222 -0.02408428
 -0.02413369 -0.02412499 -0.02406057 -0.02393748 -0.02376925 -0.02356112 -0.02333775 -0.0231108 -0.02290713 -0.02273965
 -0.02262158 -0.02256097 -0.02254932 -0.02258775 -0.02265742 -0.02275652 -0.02287333 -0.0230071 -0.02315806 -0.02332631
 -0.02351437 -0.02372035 -0.02393575 -0.0241552 -0.02435556 -0.02453133 -0.02465573 -0.02473192 -0.02474994 -0.02472373
 -0.02466472 -0.02458587 -0.02450308 -0.02441679 -0.02433323 -0.02424318 -0.02414428 -0.02403068 -0.02389898 -0.02375447
 -0.0235965 -0.0234377 -0.02327912 -0.02313172 -0.02299622 -0.02287658 -0.0227726 -0.02268228 -0.02260493 -0.02253548
 -0.0224734 -0.02241313 -0.02235648 -0.02230326 -0.02225991 -0.02223668 -0.02223945 -0.02228185 -0.02235808 -0.02247171
 -0.02260402 -0.02274673 -0.02288291 -0.02300252 -0.02310457 -0.02318567 -0.02325504 -0.02331419 -0.02336647 -0.02341308
 -0.02344567 -0.02346384 -0.02345883 -0.02343099 -0.02338374 -0.02331887 -0.0232499 -0.02317713 -0.02310994 -0.02304513
 -0.02298036 -0.02291084 -0.02282701 -0.02272705 -0.02260376 -0.02246103 -0.02229854 -0.02212361 -0.02194024 -0.02175307
 -0.02156525 -0.02137666 -0.02118753 -0.02099862 -0.02080946 -0.02062547 -0.02044703 -0.02027991 -0.02012452 -0.01998175
 -0.01985138 -0.01973008 -0.01961735 -0.01950852 -0.01940329 -0.01929776 -0.01919256 -0.01908691 -0.01898253 -0.01888176
 -0.01878665 -0.01870028 -0.01862469 -0.01856201 -0.01851526 -0.01848616 -0.01847859 -0.01849456 -0.01853579 -0.01860404
 -0.01869478 -0.01880861 -0.01893344 -0.01906838 -0.01920071 -0.01932959 -0.01945086 -0.01956482 -0.01967617 -0.01978531
 -0.01989725 -0.02001168 -0.02013001 -0.02025187 -0.02037729 -0.02050541 -0.02063528 -0.02076478 -0.02089093 -0.02101257
 -0.0211272 -0.02123617 -0.02133936 -0.02143887 -0.0215355 -0.02163057 -0.02172446 -0.02181877 -0.02191407 -0.02200972
 -0.02210606 -0.02219779 -0.02228464 -0.02235992 -0.0224234 -0.02247111 -0.02250319 -0.02251839 -0.02251727 -0.02250102
 -0.02247073 -0.02242999 -0.02237913 -0.02232103 -0.02225384 -0.02217719 -0.02208731 -0.02198185 -0.02185514 -0.02170371
 -0.02152238 -0.02130703 -0.02106069 -0.02078185 -0.02048214 -0.02016365 -0.01983272 -0.01949102 -0.01913208 -0.01875559
 -0.01835607 -0.0179341 -0.01749957 -0.01705456 -0.01661834 -0.01619181 -0.01578946 -0.01540915 -0.01505389 -0.0147184
 -0.01439543 -0.01407918 -0.01375903 -0.01343344 -0.0130964 -0.01275207 -0.01239998 -0.01204848 -0.01169939 -0.01136459
 -0.01104727 -0.01075711 -0.01049782 -0.01026395 -0.01005663 -0.009854765 -0.009657156 -0.009444925 -0.00921781 -0.00897157
 -0.008707051 -0.008428076 -0.008134984 -0.007831065 -0.007516143 -0.00719159 -0.006856694 -0.006510732 -0.006153358 -0.005783254
 -0.005402142 -0.005010922 -0.004611393 -0.004204962 -0.003792251 -0.003372808 -0.002951201 -0.00252722 -0.002111536 -0.001706021
 -0.001317951 -0.0009487253 -0.0005977903 -0.0002652064 5.044884E-05 0.0003491688 0.0006302681 0.0008941933 0.001143317 0.001379109
 0.001607821 0.001832613 0.002063844 0.002306396 0.002575214 0.002869337 0.003197435 0.003545374 0.003905476 0.004261424
 0.004599283 0.004917228 0.005209466 0.005485393 0.005745901 0.006001365 0.006252777 0.006514025 0.006786284 0.007085091
 0.007411712 0.007769515 0.008157937 0.008565193 0.008989798 0.009415695 0.009841926 0.01025598 0.01065795 0.01104205
 0.01140804 0.01175485 0.01207681 0.01236803 0.01261901 0.01281745 0.01296405 0.01305203 0.01309782 0.01310561
 0.01309197 0.01306294 0.01302507 0.01298033 0.01293265 0.01288259 0.01283374 0.0127864 0.01274141 0.01269916
 0.01266688 0.01264623 0.01265415 0.01269011 0.01276258 0.01286639 0.01299189 0.01313478 0.01328238 0.01343353
 0.01358291 0.01372686 0.01386223 0.01398056 0.01407715 0.01414171 0.0141699 0.01415112 0.01408109 0.01395581
 0.01377197 0.01354118 0.01326327 0.01295988 0.01263234 0.01230034 0.01196485 0.01164276 0.01133435 0.01105142
 0.01079106 0.01054845 0.01031819 0.01008223 0.009839361 0.00957796 0.009301416 0.009010235 0.008705282 0.008388758
 0.008056942 0.007709028 0.007339044 0.00694511 0.006519808 0.006060496 0.005563301 0.00502604 0.004454134 0.003847596
 0.003214906 0.002556639 0.001878222 0.001180234 0.000473502 -0.0002400216 -0.0009399759 -0.001625009 -0.002278029 -0.002899989
 -0.00348477 -0.00403385 -0.004546734 -0.005025772 -0.005473163 -0.005892667 -0.006289061 -0.006662705 -0.00701605 -0.007345379
 -0.007648828 -0.00792715 -0.008179287 -0.008411111 -0.008624151 -0.00881863 -0.008995153 -0.009148527 -0.009278252 -0.009385951
 -0.009472043 -0.009546925 -0.009611059 -0.009673257 -0.009732454 -0.009788997 -0.009840935 -0.00988261 -0.00991368 -0.009929574
 -0.009934097 -0.009929565 -0.009921798 -0.009917391 -0.009918658 -0.009929623 -0.00994843 -0.009975794 -0.01000746 -0.0100433
 -0.01007524 -0.01010205 -0.01011566 -0.01011426 -0.01010013 -0.01007308 -0.0100424 -0.01000827 -0.009971734 -0.00993218
 -0.009884169 -0.009828857 -0.009768561 -0.009704873 -0.00964479 -0.009586076 -0.009527757 -0.00946728 -0.009399675 -0.009326766
 -0.009248982 -0.009166654 -0.009082117 -0.008988132 -0.008882526 -0.008758115 -0.008610978 -0.008443718 -0.008254975 -0.008055822
 -0.007846923 -0.007641747 -0.007441282 -0.007255919 -0.007086032 -0.006936006 -0.006805745 -0.006696482 -0.006608034 -0.006541069
 -0.006493902 -0.006462923 -0.00644459 -0.00642985 -0.006417491 -0.006401512 -0.006383714 -0.006364608 -0.006343013 -0.006319657
 -0.006288704 -0.006247539 -0.006193036 -0.006123051 -0.006039642 -0.005942757 -0.005835005 -0.005716549 -0.005590577 -0.00545722
 -0.005322065 -0.005185285 -0.005049089 -0.00491265 -0.004769495 -0.004619161 -0.004455009 -0.004279517 -0.004096309 -0.003908208
 -0.003724247 -0.003541322 -0.003360228 -0.00317384 -0.002973683 -0.00276119 -0.0025314 -0.002298986 -0.002068957 -0.00185356
 -0.001659721 -0.001483182 -0.001324903 -0.00117528 -0.00103243 -0.0008977953 -0.0007712526 -0.00065766 -0.0005568925 -0.000461318
 -0.0003698674 -0.0002688734 -0.0001595157 -3.984783E-05 8.763096E-05 0.0002148608 0.0003442256 0.0004748956 0.0006144274 0.0007743172
 0.000956099 0.001169148 0.001400711 0.001646923 0.001891267 0.002123593 0.002340869 0.002538624 0.00272468 0.002900193
 0.003069341 0.003232684 0.00339321 0.003550749 0.00371822 0.00389628 0.004098041 0.004322342 0.004564415 0.004821649
 0.005078339 0.005334774 0.005583787 0.005826705 0.006064449 0.006293798 0.006510621 0.006712219 0.006890893 0.00705695
 0.007211843 0.007375188 0.007558853 0.007765415 0.008003462 0.008244966 0.008486522 0.008699777 0.008877635 0.009030693
 0.009158131 0.00929689 0.009448265 0.009624941 0.009824054 0.01002291 0.01022005 0.01039509 0.01055243 0.01069529
 0.01082735 0.01095845 0.01108831 0.01121971 0.01135429 0.01149327 0.01164218 0.01180547 0.01198547 0.01218635
 0.01240069 0.01262895 0.0128555 0.01307735 0.01328231 0.01346735 0.01363487 0.01378438 0.0139288 0.0140688
 0.01421604 0.01437069 0.0145395 0.01472128 0.01491524 0.01511723 0.01531368 0.01550257 0.01566985 0.01582409
 0.0159702 0.01612011 0.01629033 0.01647937 0.01669357 0.01692105 0.01715718 0.01739582 0.01763389 0.01786932
 0.01810203 0.01832551 0.01853859 0.01873917 0.01892653 0.01910954 0.01928863 0.01947256 0.01966078 0.01985142
 0.020043 0.02022696 0.02040298 0.02056423 0.0207143 0.02085678 0.02099644 0.02114394 0.02129583 0.02145425
 0.02160979 0.02175342 0.02188969 0.02201569 0.02214797 0.02229419 0.02245172 0.0226239 0.0227896 0.02294478
 0.02308852 0.0232193 0.02336185 0.02351723 0.02370023 0.02390954 0.02413768 0.02438257 0.0246304 0.02487942
 0.02511649 0.02534197 0.0255484 0.02574183 0.02592741 0.0261118 0.02630447 0.02650702 0.02672267 0.02695419
 0.02720409 0.02747245 0.02776321 0.02805918 0.02835874 0.02863964 0.02889717 0.02912975 0.02933636 0.02952683
 0.02970161 0.02986639 0.03002234 0.03018338 0.03035091 0.03054222 0.03075251 0.03097592 0.0312064 0.03142561
 0.03163675 0.03183855 0.03202981 0.03221409 0.03237329 0.0324935 0.03256929 0.03258658 0.03257649 0.03254428
 0.03252402 0.03252663 0.03255764 0.03261987 0.03270839 0.03282321 0.03295786 0.03311174 0.03326191 0.03340683
 0.03351977 0.03360372 0.03365822 0.03369185 0.03373084 0.03378428 0.03388748 0.03403748 0.03425245 0.03450536
 0.03477563 0.03503893 0.03526026 0.03546521 0.03564803 0.0358709 0.03616485 0.03651831 0.03694709 0.03735165
 0.03771394 0.03801547 0.03825051 0.03846127 0.03864947 0.03882847 0.03899768 0.03915386 0.03929796 0.03943597
 0.03956528 0.0396818 0.03977939 0.03984041 0.03986645 0.03985262 0.03980102 0.03971355 0.0395872 0.03941508
 0.03921347 0.03898311 0.03875897 0.03855531 0.03838466 0.03825508 0.03815406 0.03807996 0.03803034 0.03800477
 0.0380054 0.0380321 0.03806506 0.03810219 0.03811393 0.03809858 0.03803317 0.03791501 0.0377202 0.03745368
 0.03710638 0.03670554 0.0362875 0.03587807 0.03552592 0.03522146 0.03497222 0.03476728 0.0345962 0.03447857
 0.03442083 0.03442968 0.03451375 0.03464006 0.03480778 0.03496781 0.03511612 0.03520987 0.03524696 0.03523016
 0.03516559 0.03512703 0.03511918 0.0352137 0.0353944 0.03564749 0.03594885 0.03623447 0.03649707 0.03669582
 0.03683604 0.03690492 0.03692042 0.03688525 0.03683663 0.03679517 0.0367819 0.03681569 0.03687194 0.03694825
 0.03702274 0.03708814 0.03716359 0.03725065 0.0373584 0.03748719 0.0376034 0.03770615 0.0377733 0.03780886
 0.03782668 0.03782633 0.03781385 0.0377857 0.03773279 0.03766252 0.0375816 0.03749969 0.0374316 0.03737808
 0.03734271 0.03732998 0.0373423 0.03738562 0.03746616 0.03757039 0.03769761 0.03782881 0.03796007 0.03808777
 0.03821173 0.03832286 0.03842061 0.03848029 0.03850183 0.03847594 0.03840697 0.03831425 0.03820349 0.03810452
 0.03802044 0.03797637 0.03796402 0.03798649 0.03802047 0.03803996 0.0380322 0.03797262 0.03787879 0.0377536
 0.0376123 0.03746544 0.03730093 0.03711671 0.03690776 0.03667025 0.0364251 0.0361739 0.03593204 0.03570044
 0.03548464 0.03528565 0.03511937 0.03498557 0.03489248 0.03483601 0.03480333 0.03479692 0.03481572 0.03486478
 0.03495917 0.03508116 0.03522203 0.03535009 0.03543561 0.03546673 0.03542708 0.03532248 0.03514875 0.03492432
 0.03464525 0.03436932 0.03410193 0.03391164 0.03380918 0.03378049 0.03382524</values></Ydata></AB><ScSm><Ydata ylabel="Single channel"><values byteorder="INTEL" format="FLOAT32" numvalues="1814"> 0.07295774 0.07295739 0.07303044 0.07320502 0.07344783 0.07368299 0.07384597 0.07392538 0.0739455 0.07392009
 0.07385876 0.07381606 0.07387915 0.07407916 0.07433905 0.07452711 0.07456316 0.07449038 0.07445013 0.07454614
 0.07470326 0.07469155 0.07434107 0.07373746 0.07316576 0.07284652 0.07279747 0.07300181 0.07354981 0.07437873
 0.07498117 0.07477187 0.07383029 0.07292556 0.07266244 0.07290083 0.07312361 0.0730315 0.07263277 0.07211986
 0.07191573 0.07256024 0.07417852 0.07604455 0.07684346 0.07550035 0.07194866 0.0673724 0.06376754 0.06286974
 0.06493002 0.06837122 0.07097286 0.07164282 0.07093745 0.06993086 0.06906015 0.06827037 0.06776705 0.06805581
 0.06924129 0.07055555 0.07075842 0.0692039 0.06661352 0.06455894 0.0640258 0.06480245 0.0663319 0.06831337
 0.06984021 0.06892119 0.06445056 0.05867535 0.05617489 0.05949976 0.066449 0.07222429 0.07369483 0.07114279
 0.06685854 0.06325051 0.06194004 0.0633255 0.06651495 0.07006406 0.07284963 0.07411595 0.07327711 0.07043104
 0.06686464 0.06443158 0.06441346 0.06701501 0.07131822 0.07536981 0.07707493 0.07574598 0.07255539 0.06929941
 0.06722158 0.06702413 0.06904322 0.07289633 0.07746089 0.08152208 0.08426492 0.0853627 0.08505212 0.0839801
 0.08270819 0.08162338 0.08128271 0.0820653 0.08326861 0.08338152 0.08173165 0.07938494 0.07804704 0.07829895
 0.0791364 0.0791923 0.07812085 0.07636388 0.07379386 0.06969397 0.06440344 0.05974955 0.05721715 0.05682157
 0.0581967 0.06116352 0.06445208 0.06565095 0.063861 0.06135552 0.06132464 0.06447294 0.06866914 0.07153322
 0.07263187 0.07329528 0.07491155 0.07751163 0.07960218 0.07929533 0.07618283 0.07237911 0.07102063 0.07318552
 0.07686105 0.07941942 0.08038434 0.08112228 0.08245076 0.08336455 0.0820845 0.07817471 0.07366709 0.07180201
 0.07420556 0.07925908 0.08327556 0.08322983 0.07879531 0.0724033 0.06734416 0.06549335 0.06682464 0.07067314
 0.07645565 0.08300404 0.08827316 0.09049565 0.08947221 0.08645247 0.08271173 0.07837889 0.0731275 0.06813911
 0.06632075 0.06954779 0.0762606 0.08277048 0.086546 0.08746274 0.08636285 0.08349231 0.07874016 0.07314708
 0.06939819 0.06973598 0.07325582 0.07642265 0.07677539 0.07516941 0.07394612 0.07401378 0.07451933 0.07465086
 0.07479262 0.07586707 0.07801472 0.08025247 0.08142765 0.08126551 0.08040947 0.0796713 0.07929674 0.07879029
 0.07761353 0.07626192 0.0762043 0.07827321 0.08151931 0.08418953 0.0854843 0.08583926 0.08575289 0.08490404
 0.08262246 0.0791668 0.07622778 0.0756705 0.07773197 0.08088264 0.08341254 0.08465148 0.08479761 0.08430076
 0.08355816 0.08278191 0.08207226 0.08170672 0.0820652 0.0830888 0.08416015 0.08472733 0.08475949 0.08446649
 0.08389823 0.08301948 0.08199549 0.08120938 0.08098794 0.08135472 0.08206341 0.0828187 0.08338848 0.0835764
 0.08329183 0.08268346 0.08204179 0.08153465 0.08116556 0.08096902 0.08105537 0.08142063 0.0818627 0.08215633
 0.08223055 0.0821403 0.08194481 0.08166613 0.08132774 0.08099497 0.0807766 0.08075943 0.08090939 0.08108196
 0.08118315 0.08126365 0.08138511 0.08146617 0.08136831 0.08109372 0.08079801 0.0806224 0.08058359 0.08061217
 0.08062463 0.08053693 0.08026607 0.07980186 0.07929558 0.07900251 0.07907777 0.07946102 0.07997458 0.08045921
 0.08080162 0.08094406 0.08092708 0.08085176 0.08075996 0.08060434 0.08035329 0.08008245 0.07994461 0.08005059
 0.08036813 0.08074223 0.08102571 0.08117108 0.08120733 0.08119604 0.08121615 0.08130799 0.0814084 0.08141059
 0.08130533 0.08120421 0.08120981 0.08130468 0.08138062 0.0813601 0.08128157 0.08125836 0.08135357 0.08151937
 0.08166835 0.08177169 0.08186754 0.08198984 0.08210476 0.08212714 0.08201627 0.08184317 0.08172446 0.08169818
 0.08171619 0.08175057 0.08183858 0.08200338 0.08218546 0.08229293 0.08230291 0.08228072 0.08229361 0.08232778
 0.08231185 0.08221136 0.08207104 0.08196481 0.08192977 0.08195201 0.08199158 0.08200935 0.0819823 0.08190873
 0.08180451 0.08169123 0.08158346 0.08149214 0.0814441 0.08147856 0.08159697 0.08172216 0.08174184 0.08161069
 0.08139856 0.08122506 0.08114804 0.0811225 0.08106429 0.08093912 0.0807819 0.08064605 0.08055699 0.08050872
 0.08048031 0.08045282 0.08043288 0.08046556 0.08059816 0.08081155 0.08100608 0.08108336 0.08103849 0.08095524
 0.08091964 0.08095799 0.08104569 0.08114932 0.08126138 0.08140404 0.08158822 0.08177048 0.0818836 0.08191818
 0.0819398 0.08201928 0.08218074 0.08241262 0.08267666 0.08290191 0.08302779 0.08307426 0.08313008 0.08325534
 0.08342735 0.08359344 0.08374092 0.08389479 0.08407356 0.08427683 0.0845077 0.08478197 0.08510833 0.08546649
 0.08580877 0.08608887 0.08630253 0.08650406 0.08677057 0.08713868 0.08757613 0.08801243 0.08839415 0.08871716
 0.08901492 0.08931749 0.08962852 0.08994978 0.09030933 0.09073575 0.09121031 0.09167721 0.09210423 0.09250741
 0.09291561 0.09333561 0.09376082 0.09419699 0.09466588 0.09517818 0.09570426 0.09618329 0.09657376 0.09689268
 0.0972014 0.09756081 0.09799626 0.0984773 0.09892207 0.09925663 0.09949695 0.09974704 0.100088 0.1004903
 0.1008685 0.101204 0.1015633 0.1019984 0.1024716 0.1029019 0.1032575 0.1035808 0.1039295 0.1043105
 0.1046719 0.1049562 0.1051601 0.1053364 0.1055402 0.1057924 0.1061037 0.1064971 0.1069716 0.1074661
 0.1078979 0.1082323 0.1084888 0.1086996 0.1088909 0.1090883 0.1093049 0.109531 0.1097526 0.1099638
 0.1101522 0.1103051 0.110449 0.1106438 0.110918 0.1112413 0.1115817 0.111951 0.112363 0.1127865
 0.1131832 0.1135751 0.1140197 0.1145135 0.1149654 0.1152884 0.1154845 0.1156158 0.1157293 0.115854
 0.1160409 0.116343 0.1167504 0.1171918 0.1176061 0.117986 0.1183486 0.1186927 0.1189945 0.119232
 0.1194035 0.11953 0.1196482 0.1198015 0.1200306 0.1203503 0.1207267 0.1210891 0.1213763 0.121561
 0.1216316 0.1215844 0.1214547 0.1213243 0.1212566 0.1212219 0.1211143 0.1208424 0.1203888 0.1197852
 0.1190621 0.1182409 0.1173626 0.1165061 0.1157685 0.115228 0.1149284 0.1148988 0.1151669 0.1157284
 0.1165008 0.1173372 0.1180945 0.1186723 0.1189881 0.1189668 0.1185861 0.1179167 0.1170871 0.116218
 0.1153913 0.1146475 0.1139881 0.1134064 0.1129519 0.112759 0.1129925 0.1137606 0.1150663 0.1168041
 0.1187817 0.120769 0.1225801 0.1241377 0.1254688 0.1266398 0.1277037 0.1286979 0.1296582 0.1305999
 0.1314966 0.1323056 0.1330179 0.1336611 0.1342571 0.1347979 0.1352588 0.1356194 0.1358804 0.1360741
 0.1362458 0.1364121 0.1365536 0.1366577 0.1367435 0.1368274 0.1368816 0.1368449 0.1366664 0.1363396
 0.1359234 0.1355613 0.1354692 0.1358607 0.136841 0.1383429 0.1401641 0.142075 0.1439019 0.1455351
 0.146905 0.1479889 0.1488279 0.1495076 0.1501103 0.1506868 0.1512579 0.1518237 0.1523739 0.1529005
 0.1534058 0.1539027 0.1544087 0.154933 0.1554599 0.1559553 0.1564012 0.1568212 0.1572628 0.1577543
 0.1582806 0.1588 0.1592887 0.1597603 0.1602346 0.1606972 0.1611147 0.1614846 0.1618439 0.1622312
 0.1626617 0.1631311 0.1636131 0.1640599 0.1644354 0.164752 0.165057 0.1653851 0.1657395 0.1661097
 0.166486 0.1668572 0.1672135 0.1675598 0.1679178 0.1683003 0.1686869 0.1690363 0.1693304 0.1695961
 0.1698762 0.1701862 0.1705055 0.1708078 0.1710946 0.1713979 0.1717514 0.1721533 0.1725598 0.172919
 0.1732133 0.1734685 0.1737247 0.1740049 0.1743102 0.1746321 0.1749604 0.1752843 0.1755974 0.1759041
 0.1762166 0.1765401 0.176867 0.1771847 0.1774873 0.1777794 0.1780702 0.1783669 0.1786751 0.1790053
 0.1793683 0.1797555 0.1801312 0.1804581 0.1807302 0.1809732 0.1812159 0.1814713 0.1817406 0.1820232
 0.1823181 0.1826224 0.1829308 0.1832364 0.1835365 0.1838379 0.1841514 0.1844782 0.1848054 0.1851192
 0.1854208 0.1857256 0.1860444 0.1863702 0.1866848 0.1869784 0.1872577 0.1875364 0.1878223 0.1881123
 0.1883973 0.1886714 0.1889417 0.1892224 0.1895185 0.1898199 0.1901142 0.1903994 0.1906811 0.1909627
 0.1912438 0.1915249 0.1918095 0.1921006 0.1923961 0.1926895 0.192975 0.1932521 0.1935248 0.193797
 0.19407 0.1943417 0.1946129 0.19489 0.1951806 0.1954819 0.1957802 0.1960613 0.1963224 0.1965745
 0.1968328 0.1971019 0.1973749 0.1976467 0.1979215 0.1982027 0.1984859 0.1987651 0.1990409 0.1993186
 0.1996026 0.1998937 0.200187 0.2004758 0.2007567 0.2010288 0.2012921 0.2015507 0.2018129 0.2020838
 0.2023635 0.2026514 0.2029453 0.2032364 0.2035159 0.2037815 0.2040356 0.2042809 0.2045213 0.2047602
 0.204999 0.2052411 0.2054928 0.205757 0.2060302 0.2063047 0.2065715 0.2068256 0.2070746 0.2073328
 0.2076054 0.2078855 0.2081655 0.2084406 0.208709 0.2089762 0.2092493 0.2095254 0.2097985 0.210072
 0.2103502 0.2106289 0.2109039 0.2111786 0.2114532 0.2117237 0.2119938 0.2122688 0.2125444 0.2128132
 0.2130753 0.2133355 0.2135985 0.2138699 0.2141497 0.2144292 0.2147011 0.2149618 0.2152084 0.2154473
 0.2156973 0.2159658 0.21624 0.2165081 0.216772 0.217036 0.2173041 0.2175834 0.2178708 0.2181497
 0.218414 0.2186718 0.2189267 0.2191798 0.2194412 0.2197155 0.2199926 0.2202642 0.2205252 0.2207512
 0.2208854 0.2207931 0.2201322 0.2182166 0.2140048 0.2063193 0.1943185 0.1780254 0.1585035 0.1374857
 0.1167446 0.09763348 0.08094646 0.06702195 0.05592414 0.04756223 0.04175706 0.0383501 0.03732593 0.03894657
 0.04389428 0.05286644 0.06505428 0.07679876 0.08301482 0.08120273 0.07383358 0.06609581 0.0615854 0.06056521
 0.06150302 0.06308292 0.06488469 0.06714631 0.07027756 0.07439162 0.07928823 0.08496054 0.09183998 0.1002512
 0.1097553 0.119329 0.1282434 0.1366404 0.1451981 0.154318 0.1637046 0.1726576 0.1806315 0.1875132
 0.193522 0.1989647 0.2040578 0.2088937 0.2135025 0.2178673 0.2218388 0.2250884 0.2272573 0.2282299
 0.2282718 0.2278851 0.227515 0.2273754 0.227493 0.2278302 0.2283451 0.2290001 0.2297701 0.2306399
 0.2315852 0.2325693 0.2335579 0.234523 0.2354408 0.2362986 0.2370944 0.2378244 0.238483 0.2390754
 0.2396143 0.2401084 0.2405624 0.240985 0.2413872 0.2417773 0.2421581 0.2425245 0.2428645 0.2431699
 0.2434426 0.2436916 0.2439272 0.2441598 0.244395 0.2446312 0.2448626 0.2450861 0.2453035 0.2455224
 0.245751 0.2459874 0.2462182 0.2464329 0.246635 0.2468326 0.2470286 0.2472241 0.2474242 0.2476329
 0.2478493 0.2480698 0.2482891 0.2485013 0.248706 0.2489108 0.2491248 0.2493511 0.2495839 0.2498117
 0.2500302 0.2502499 0.2504843 0.2507306 0.2509761 0.2512182 0.2514624 0.2517084 0.2519529 0.2521956
 0.2524278 0.2526266 0.2527815 0.252919 0.2530885 0.2533202 0.2535965 0.2538711 0.2541144 0.2543345
 0.2545492 0.2547582 0.2549513 0.255127 0.255299 0.2554975 0.2557539 0.256064 0.2563828 0.2566722
 0.256933 0.2571829 0.2574342 0.2576961 0.2579611 0.25819 0.2583481 0.2584626 0.2586224 0.2589085
 0.2593181 0.2597569 0.2601191 0.26038 0.2605948 0.2608284 0.2611133 0.2614241 0.2616507 0.2616743
 0.261548 0.2615277 0.2618359 0.2624392 0.263117 0.2636884 0.264118 0.2644577 0.2647556 0.2650068
 0.2651578 0.2651652 0.2650843 0.265096 0.2653846 0.2659488 0.2665854 0.2670987 0.267455 0.267712
 0.2679124 0.2680821 0.2681839 0.2680453 0.2675393 0.2669156 0.2667419 0.2673546 0.2684813 0.2695332
 0.2701876 0.2705532 0.2708468 0.2711253 0.2713454 0.2714035 0.2709997 0.2698128 0.2681152 0.2669442
 0.2672437 0.2689157 0.2709925 0.2726074 0.2735399 0.2740022 0.2742649 0.2744758 0.2745464 0.2741573
 0.2731121 0.2718157 0.2711812 0.2717948 0.2732621 0.2746316 0.275365 0.2756304 0.2758076 0.276058
 0.2762123 0.2757158 0.2739443 0.2711224 0.2687896 0.2687186 0.2711815 0.2746224 0.277199 0.2783698
 0.2787581 0.2787956 0.2780875 0.2761275 0.2730634 0.2696336 0.2669278 0.2662318 0.2681789 0.2716882
 0.2745736 0.2756977 0.2759361 0.2767383 0.2783998 0.2800652 0.2808425 0.2804983 0.2793084 0.2775646
 0.2754287 0.2733844 0.2725241 0.2737774 0.2767807 0.2799955 0.2821323 0.2831344 0.2835173 0.282873
 0.2795556 0.2726627 0.2645325 0.2601171 0.2626167 0.2701292 0.2776899 0.2821559 0.283944 0.2847142
 0.2851391 0.2847074 0.2820264 0.2755888 0.2661415 0.2581736 0.2568793 0.2630197 0.2720667 0.2784369
 0.2792984 0.274863 0.2673761 0.2604507 0.257602 0.2601191 0.2664946 0.2739177 0.2799663 0.2832755
 0.2835273 0.2813222 0.2781325 0.2759398 0.2758029 0.276297 0.2745935 0.2700309 0.2652175 0.2622094
 0.2593342 0.2542823 0.2491492 0.2490636 0.255523 0.2639045 0.2686539 0.2689148 0.2675795 0.2660282
 0.2618008 0.2521559 0.2392494 0.2302715 0.2311492 0.2403878 0.2504021 0.2549414 0.2540575 0.2519041
 0.2512065 0.2505191 0.2463317 0.2376736 0.2284653 0.2242473 0.2263099 0.2305343 0.2322739 0.2300835
 0.2241546 0.2148077 0.2050867 0.2017291 0.209492 0.2253238 0.2407457 0.2488464 0.2468406 0.2345413
 0.2152622 0.1977959 0.1921678 0.2006845 0.2151425 0.2243747 0.2231393 0.2130915 0.1979857 0.181059
 0.1664838 0.1598824 0.1649729 0.1797785 0.1967034 0.2063514 0.2027265 0.1878506 0.1720954 0.1667305
 0.173725 0.1844175 0.1892234 0.1863218 0.1803273 0.1762857 0.1767322 0.1812974 0.1871364 0.1915815
 0.1942856 0.1943094 0.187253 0.1705855 0.1508147 0.1392239 0.1401317 0.148679 0.1598971 0.1731355
 0.1861125 0.1918748 0.1866356 0.176966 0.1742095 0.1824449 0.1949778 0.2025025 0.202305 0.1987609
 0.1965607 0.1956862 0.1937678 0.1915475 0.1930827 0.2001347 0.2090781 0.2149477 0.2166195 0.2163567
 0.2159934 0.2155558 0.2145584 0.2128297 0.210427 0.207766 0.2055064 0.2038195 0.202243 0.2004088
 0.1980394 0.1939031 0.1861002 0.1747795 0.1638336 0.1578483 0.1572858 0.1587776 0.1601326 0.1616474
 0.1614599 0.1542017 0.1381119 0.120887 0.1140747 0.1219205 0.1382236 0.1533869 0.1616997 0.1617858
 0.153799 0.1398417 0.1265447 0.1229661 0.1331265 0.1521122 0.1713608 0.1860479 0.1955284 0.1992063
 0.1958298 0.1866641 0.1766871 0.1717427 0.1750223 0.1856468 0.1988818 0.2072706 0.2042884 0.1908881
 0.1784771 0.1804904 0.1982172 0.2185715 0.2287878 0.2293687 0.2288649 0.2305796 0.2309453 0.2289312
 0.2297911 0.2378657 0.2501831 0.2593817 0.2601843 0.2514853 0.235608 0.2187526 0.2093978 0.2115532
 0.2202432 0.2269433 0.2278555 0.2234404 0.2133532 0.1984654 0.1861842 0.1860281 0.198574 0.2141384
 0.2237779 0.2274371 0.2299487 0.2326974 0.2319667 0.2246146 0.213325 0.2049443 0.2037032 0.2075155
 0.2115054 0.2131557 0.2123724 0.2085859 0.2010917 0.1922152 0.1873537 0.190321 0.1994396 0.2091418
 0.2149807 0.2164466 0.2156383 0.2145704 0.2137933 0.2125676 0.2102758 0.2082568 0.2095394 0.2155246
 0.2236425 0.2299449 0.2336176 0.2372429 0.2427458 0.2487183 0.2521091 0.2515453 0.2486593 0.2467133
 0.2480187 0.2520998 0.2560308 0.2569343 0.2547233 0.2524275 0.2533845 0.2580367 0.2638553 0.2681991
 0.2704704 0.2715887 0.2724462 0.2731554 0.2729944 0.2709742 0.2672783 0.2641316 0.2642412 0.2681032
 0.2735102 0.2778057 0.280005 0.2806789 0.2805485 0.2797206 0.2780783 0.275946 0.2741107 0.273219
 0.2733227 0.274035 0.2749426 0.2757862 0.2764367 0.2768758 0.2771605 0.277346 0.2774726 0.2776071
 0.2777939 0.2779655 0.2780102 0.277959 0.2780047 0.2782736 0.2786548 0.2789178 0.2789263 0.2786419
 0.2779936 0.2768963 0.275401 0.2736901 0.2718766 0.2699262 0.2678922 0.2661893 0.2654834 0.2661976
 0.2681197 0.2705284 0.2726912 0.2742329 0.2751339 0.2755453 0.2756551 0.2756325 0.2755863 0.2755443
 0.2754813 0.2753685 0.275196 0.2749664 0.2746915 0.2744026 0.2741471 0.2739567 0.2738185 0.2736804
 0.2734824 0.273188 0.2728039 0.2723735 0.2719337 0.2714702 0.2709221 0.2702315 0.2693895 0.2684428
 0.2674696 0.2665417 0.2656841 0.2648564 0.2639844 0.263015 0.2619211 0.2606655 0.2592214 0.2576575
 0.2561429 0.254813 0.2536563 0.2525609 0.2514284 0.2502134 0.2489035 0.2475114 0.2460688 0.2445993
 0.2431039 0.2415743 0.240006 0.2383976 0.2367454 0.2350413 0.233272 0.2314282 0.2295169 0.2275553
 0.2255395 0.2234122 0.2210631 0.2183608 0.2151871 0.2114569 0.207143 0.2023131 0.1971377 0.1918453
 0.1866559 0.181739 0.1772068 0.1731344 0.1695834 0.1666102 0.1642638 0.1625896 0.1616264 0.1613872
 0.1618488 0.1629636 0.1646613 0.1668313 0.1693242 0.1719751 0.1746197 0.1771064 0.1793417 0.1813384
 0.1831989 0.1850241 0.1868308 0.1885584 0.1901451 0.1915731 0.1928383 0.193918 0.1947987 0.1955065
 0.1960805 0.1965368 0.1968805 0.1971307 0.1973139 0.197451 0.1975604 0.1976696 0.1978191 0.1980546
 0.198403 0.1988535 0.1993745 0.1999455 0.2005658 0.2012431 0.2019811 0.2027695 0.2035876 0.2044263
 0.205302 0.2062468 0.2073035 0.2085276 0.2099686 0.2116388 0.2135085 0.2155187 0.2175824 0.219585
 0.2214088 0.2229633 0.2242044 0.2251397 0.2258106 0.2262586 0.2265106 0.2265905 0.2265208 0.2263128
 0.2259738 0.2255241 0.2249926 0.2244021 0.223765 0.2230881 0.2223794 0.2216547 0.2209358 0.2202372
 0.2195615 0.2189057 0.2182672 0.2176423 0.217027 0.2164131 0.2157868 0.2151425 0.2144922 0.2138473
 0.2131986 0.2125216 0.2117883 0.2109665 0.2100256 0.2089528 0.2077537 0.206441 0.2050343 0.203563
 0.2020541 0.2005188 0.1989509 0.1973333 0.1956497 0.1938903 0.1920413 0.1900776 0.1879957 0.1858535
 0.1837526 0.1817754 0.17995 0.1782589 0.1766624 0.1751202 0.1736134 0.1721494 0.1707443 0.1694047
 0.168127 0.1669078 0.1657518 0.1646657 0.1636505 0.1627111 0.1618681 0.161139 0.1605124 0.1599615
 0.1594758 0.1590582 0.1587051 0.1584168 0.1582111 0.1580941 0.1580242 0.1579277 0.1577548 0.1575141
 0.1572519 0.1570026 0.1567658 0.1565333 0.1563097 0.1560831 0.1557936 0.1553502 0.154666 0.1536732
 0.1523423 0.1507107 0.1488753 0.1469528 0.1450587 0.1433026 0.1417712 0.1405126 0.1395354 0.1388045
 0.138245 0.1377823 0.137393 0.1371127 0.1369947 0.1370433 0.1371655 0.137219 0.1371475 0.1370515
 0.1370943 0.1373668 0.1378498 0.1384549 0.1390704 0.1396044 0.1400088 0.1402662 0.140379 0.1403764
 0.1402952 0.1401453 0.1399156 0.139606 0.1392288 0.1387994 0.1383353 0.1378367 0.1372759 0.1366329
 0.1359178 0.1351369 0.1342765 0.1333279 0.1322799 0.1311119 0.1298694 0.128735 0.1279557 0.1276979
 0.1279654 0.1286085 0.1294212 0.1302731 0.1310943 0.1317147 0.1319042 0.1317311 0.1317472 0.1325886
 0.1343666 0.1365518 0.1384474 0.13968 0.1402388 0.140222 0.1396936 0.1387017 0.1372688 0.1353798
 0.1330617 0.1304204 0.1275665 0.1246149 0.1217573 0.1191977 0.1170361 0.1152902 0.1139463 0.113015
 0.1125859 0.1123035 0.110441 0.1047886 0.09606794 0.08948909 0.09039475 0.09825133 0.1070001 0.1114704
 0.1115172 0.1098944 0.1084952 0.1075982 0.1071056 0.1071544 0.1078692 0.1091159 0.1105136 0.1116605
 0.1123933 0.1127556 0.1127157 0.1119537 0.1098164 0.1055324 0.09883578 0.09052554 0.08218849 0.07526222
 0.07040316 0.06751843 0.06605791 0.06532316 0.06482301 0.06451118 0.06468166 0.0656261 0.06739004 0.0698179
 0.07271887 0.075865 0.07889162 0.0814299 0.08339516 0.08497349 0.08629039 0.08725236 0.08772714 0.08772045
 0.08735017 0.08675803 0.08606587 0.0853388 0.08454844 0.08360235 0.08247997 0.08136229 0.08054215 0.08014786
 0.08003763 0.08000431 0.07996853 0.079935 0.07989806 0.07985005 0.07980493 0.07980338 0.07992747 0.08024737
 0.08071283 0.08116411 0.08147155 0.08162113 0.08168108 0.08169632 0.08157614 0.08116028 0.08049725 0.07990099
 0.07952791 0.07907057 0.07815544 0.0769285 0.07596182 0.07563144 0.07580179 0.07607764 0.07617305 0.07604115
 0.07582985 0.07579781 0.07614703 0.07678256</values></Ydata></ScSm><ScRf><Ydata ylabel="Single channel"><values byteorder="INTEL" format="FLOAT32" numvalues="1820"> 0.06079609 0.06095681 0.06104672 0.06107053 0.06105969 0.06106292 0.06112871 0.06127716 0.06148127 0.06167755
 0.06180821 0.06186036 0.06185666 0.06181532 0.06174902 0.06170271 0.06174669 0.06190633 0.06211814 0.0622714
 0.062296 0.06222583 0.06218085 0.06225223 0.0623792 0.0623668 0.06206749 0.06154878 0.06104927 0.06075901
 0.0607006 0.06086518 0.06132964 0.0620407 0.06256907 0.06241347 0.06162669 0.06084788 0.06059201 0.06075571
 0.06091507 0.06082122 0.06047824 0.06004308 0.05986763 0.06040597 0.06176655 0.06333985 0.06401516 0.06288135
 0.05987945 0.05600755 0.0529484 0.05216631 0.05387964 0.05676921 0.058967 0.05954507 0.05896294 0.05812408
 0.05739854 0.0567343 0.05629359 0.05650115 0.05746138 0.05854919 0.05872797 0.05744062 0.05527266 0.05353616
 0.05306823 0.05370359 0.05497643 0.05663092 0.05791146 0.05715606 0.05342921 0.04859136 0.04647067 0.04922371
 0.05503312 0.05988299 0.06113219 0.05900206 0.05541303 0.05238867 0.05128237 0.0524187 0.05505448 0.05799772
 0.06032197 0.06139375 0.06071272 0.05835044 0.05537463 0.05332943 0.05328678 0.05542605 0.05899317 0.06236709
 0.06379689 0.06269386 0.06002326 0.0572862 0.05553246 0.05535559 0.05703685 0.06025752 0.06408051 0.06748612
 0.06978415 0.07069513 0.07041968 0.0695111 0.06845028 0.06755626 0.06727789 0.06792468 0.06892084 0.06901656
 0.06764761 0.06569134 0.06456481 0.06475924 0.06544834 0.06549353 0.0645962 0.06311962 0.06096681 0.05754631
 0.05313006 0.04923128 0.04709841 0.04676268 0.04792345 0.0504261 0.05320959 0.05425798 0.0528023 0.05071617
 0.0506574 0.05323557 0.05670068 0.05907889 0.06000013 0.06055931 0.06190767 0.06407478 0.06582282 0.06557985
 0.06299824 0.05983186 0.05869837 0.06051028 0.06359649 0.06575736 0.0665843 0.0672182 0.06835271 0.06915741
 0.06814412 0.0649374 0.06122302 0.0597028 0.06173854 0.0659883 0.06938183 0.06939022 0.06572713 0.06041432
 0.05620766 0.05468982 0.05585141 0.05914585 0.06409407 0.06972115 0.0743018 0.07632381 0.07558271 0.07311131
 0.06999795 0.0663747 0.06197017 0.05778078 0.0562878 0.05911662 0.06495811 0.07065812 0.07403185 0.07495293
 0.07412896 0.0717601 0.06774788 0.06300166 0.05986267 0.06028571 0.06348155 0.06636281 0.06677427 0.06546079
 0.06447875 0.06463675 0.06519222 0.06542978 0.06568728 0.06678227 0.06884007 0.07098311 0.07217557 0.07216211
 0.07151753 0.0709815 0.07078582 0.07048166 0.06957275 0.06850109 0.06859696 0.07061774 0.07370313 0.07625934
 0.07756065 0.078014 0.07808541 0.07747609 0.07554749 0.07251267 0.06992535 0.06952855 0.07157062 0.07464674
 0.07715969 0.07847198 0.07876542 0.07846388 0.07794187 0.07740103 0.07693367 0.07678663 0.07730127 0.0784234
 0.07958748 0.08028388 0.08047794 0.08035294 0.07994641 0.07923295 0.07839136 0.07779969 0.07775982 0.07827447
 0.07910213 0.0799722 0.08067378 0.08101125 0.08087731 0.08040935 0.07991117 0.07957447 0.07940313 0.07940213
 0.07965335 0.0801522 0.08071642 0.08113658 0.08134291 0.0813852 0.08132164 0.08117725 0.08097746 0.08078956
 0.08072302 0.08085564 0.08113626 0.08141536 0.08161835 0.08182143 0.08208974 0.08231909 0.08234408 0.0821612
 0.08194489 0.08185674 0.08191422 0.08203647 0.08213751 0.08214036 0.0819635 0.08159155 0.08117538 0.08097641
 0.081156 0.081659 0.08231035 0.08294265 0.08342178 0.08367002 0.08372488 0.08370139 0.08365841 0.0835557
 0.08335853 0.0831397 0.08305801 0.08323742 0.08365484 0.08414964 0.08455332 0.08479449 0.08489482 0.08493286
 0.08501593 0.08519658 0.08539102 0.08545703 0.08537576 0.08528782 0.08532536 0.08546132 0.085554 0.08551647
 0.08541656 0.08540334 0.08554772 0.08578126 0.08599187 0.08614571 0.08629772 0.08649717 0.08669835 0.08677965
 0.08667372 0.08646333 0.08630276 0.08625568 0.0862723 0.086318 0.08643691 0.08665587 0.08689492 0.08703317
 0.08704441 0.08702101 0.08705691 0.08713643 0.08715937 0.08706006 0.08687533 0.08670311 0.08662233 0.0866508
 0.08674625 0.08683281 0.08684546 0.0867705 0.08664553 0.08651834 0.08641291 0.08634414 0.08635326 0.0864916
 0.08674351 0.08698306 0.08705045 0.08689386 0.08662562 0.08642188 0.08636303 0.08637573 0.08632489 0.08614621
 0.08588614 0.08563473 0.08544636 0.08531926 0.08522413 0.08513945 0.0850765 0.08508083 0.08518751 0.08535184
 0.08544491 0.08535813 0.08511268 0.08483808 0.08464967 0.08457199 0.08456198 0.08456607 0.08456457 0.08458757
 0.08466986 0.0847747 0.08480503 0.08471671 0.08458048 0.08450976 0.08456716 0.08474596 0.08497916 0.08515173
 0.08517128 0.08506122 0.08494413 0.0849157 0.08496913 0.08504771 0.08512408 0.08520544 0.08529688 0.08539566
 0.08551507 0.08568722 0.08593046 0.08621755 0.08648246 0.08666498 0.08676049 0.08683214 0.08696823 0.08721431
 0.08753845 0.08785971 0.08811415 0.08830136 0.08847032 0.08866 0.08886408 0.08906382 0.08927612 0.08953841
 0.08985339 0.09018168 0.09049028 0.09078148 0.09107192 0.09136669 0.09166235 0.09196742 0.09231213 0.0927228
 0.09317225 0.09357117 0.09383853 0.09398183 0.09409525 0.09428599 0.09460254 0.09499814 0.09534843 0.09554769
 0.09562112 0.09570946 0.09591247 0.09618508 0.09642674 0.09663518 0.09691084 0.09731588 0.09778227 0.09817748
 0.09843545 0.09860551 0.09878038 0.09899063 0.09918084 0.09929135 0.0993427 0.09941186 0.09953764 0.09969775
 0.09988653 0.1001564 0.1005432 0.1009895 0.1013879 0.1016807 0.1018837 0.102035 0.1021561 0.1022491
 0.1023036 0.1023212 0.1023394 0.1024044 0.102507 0.1025835 0.1026013 0.1026083 0.1026771 0.102833
 0.1030614 0.1033475 0.1036686 0.103975 0.1042315 0.1044773 0.1047907 0.1051724 0.1055105 0.105697
 0.1057455 0.1057521 0.1057739 0.1058071 0.1058655 0.1060038 0.1062507 0.1065725 0.1069212 0.107282
 0.107656 0.1080252 0.1083487 0.108581 0.1086944 0.1086999 0.1086559 0.1086489 0.1087536 0.1089933
 0.1093238 0.1096629 0.1099437 0.1101386 0.1102345 0.1102248 0.1101521 0.1101227 0.1102244 0.1104246
 0.110585 0.1105815 0.1103834 0.1100192 0.1095131 0.1088843 0.1081864 0.1075126 0.1069509 0.106546
 0.1063107 0.1062695 0.10647 0.1069304 0.1075813 0.1082874 0.1089313 0.109445 0.1097598 0.1097826
 0.1094664 0.1088767 0.1081526 0.1074162 0.1067329 0.1061173 0.1055417 0.104974 0.1044554 0.104135
 0.104199 0.10476 0.1058044 0.1072027 0.1087471 0.1102141 0.11145 0.1124261 0.1132147 0.1139069
 0.1145581 0.115197 0.1158506 0.1165251 0.1171778 0.1177494 0.1182278 0.1186508 0.1190521 0.1194299
 0.1197656 0.1200468 0.1202785 0.1204893 0.1207054 0.1209011 0.1210048 0.1209782 0.1208649 0.1207378
 0.1206182 0.1204642 0.1202175 0.1198525 0.119409 0.1190091 0.1188356 0.1190581 0.1197388 0.1207908
 0.1220396 0.1233353 0.1245952 0.1257496 0.1267027 0.1273862 0.1278269 0.1281265 0.1283849 0.1286576
 0.1289611 0.1292863 0.1296107 0.1299164 0.1302031 0.1304869 0.1307896 0.1311202 0.1314581 0.1317626
 0.1320131 0.1322401 0.132505 0.1328442 0.1332312 0.1336042 0.1339332 0.1342466 0.1345763 0.1348951
 0.1351441 0.135313 0.1354609 0.1356577 0.1359368 0.1362915 0.1366782 0.1370244 0.1372761 0.1374464
 0.1375993 0.137785 0.1380088 0.138254 0.1385071 0.1387594 0.1390081 0.1392651 0.1395536 0.1398783
 0.1402008 0.1404605 0.1406323 0.1407555 0.1408973 0.1410909 0.141315 0.1415282 0.1417172 0.1419143
 0.1421671 0.1424838 0.1428124 0.1430833 0.1432709 0.1434082 0.1435466 0.1437123 0.1439011 0.1441008
 0.1443067 0.1445177 0.1447276 0.1449314 0.145134 0.1453445 0.1455612 0.1457719 0.1459685 0.1461575
 0.1463514 0.1465562 0.1467736 0.1470149 0.1472965 0.1476116 0.1479152 0.1481543 0.148314 0.1484254
 0.1485312 0.1486564 0.1488075 0.1489843 0.1491847 0.1494025 0.1496263 0.1498443 0.1500526 0.1502562
 0.1504612 0.1506703 0.150882 0.1510919 0.1512976 0.1515042 0.1517223 0.1519522 0.1521785 0.1523856
 0.1525747 0.1527613 0.1529567 0.1531562 0.1533448 0.153516 0.1536841 0.1538699 0.1540775 0.1542905
 0.1544915 0.1546772 0.1548573 0.1550447 0.155246 0.155457 0.1556668 0.1558672 0.1560583 0.1562448
 0.1564324 0.1566255 0.156825 0.1570278 0.1572281 0.1574235 0.1576176 0.1578167 0.1580208 0.1582218
 0.1584123 0.1585942 0.1587754 0.1589646 0.1591668 0.1593799 0.1595959 0.1598081 0.1600155 0.1602176
 0.1604119 0.160599 0.1607845 0.1609764 0.1611814 0.1614017 0.16163 0.1618525 0.1620618 0.1622617
 0.1624611 0.1626687 0.1628909 0.1631279 0.1633707 0.1636063 0.1638274 0.1640357 0.1642362 0.1644291
 0.1646086 0.1647727 0.1649284 0.1650849 0.1652494 0.1654292 0.1656277 0.1658363 0.1660413 0.1662396
 0.1664366 0.1666319 0.1668194 0.1669986 0.1671784 0.1673691 0.1675738 0.1677845 0.1679907 0.1681913
 0.1683923 0.1685942 0.1687925 0.1689889 0.1691907 0.1694019 0.1696228 0.1698504 0.1700775 0.1702967
 0.1705068 0.1707102 0.1709093 0.1711099 0.1713183 0.1715352 0.1717584 0.1719867 0.1722133 0.1724272
 0.1726282 0.1728264 0.1730254 0.1732219 0.1734183 0.1736193 0.1738241 0.1740298 0.1742348 0.1744362
 0.174637 0.1748495 0.1750794 0.1753171 0.1755524 0.1757818 0.1760014 0.1762111 0.1764211 0.1766382
 0.1768578 0.1770735 0.1772788 0.1774563 0.177567 0.177506 0.1769952 0.1754745 0.1720939 0.1658899
 0.1561751 0.1429763 0.1271725 0.1101798 0.09343083 0.07800722 0.0645404 0.0533033 0.04435357 0.03761952
 0.03295118 0.03021419 0.02939515 0.03070879 0.03470846 0.04195708 0.05180044 0.06128363 0.06630182 0.06484023
 0.05889785 0.05266111 0.04902402 0.0481951 0.04894757 0.05023132 0.0517041 0.05354434 0.05607734 0.05940214
 0.06336549 0.06796202 0.07353605 0.08034828 0.08804746 0.09581135 0.1030524 0.1098803 0.1168339 0.1242308
 0.1318322 0.1390807 0.1455454 0.1511377 0.1560287 0.1604573 0.1645943 0.1685216 0.1722766 0.1758504
 0.1791104 0.1817755 0.1835555 0.1843681 0.1844329 0.1841487 0.1838652 0.1837513 0.1838332 0.184093
 0.184513 0.1850717 0.1857421 0.1864928 0.1872872 0.1880951 0.1889055 0.1897137 0.1905039 0.1912526
 0.1919414 0.1925624 0.1931208 0.1936327 0.1941108 0.1945544 0.19496 0.1953305 0.1956742 0.1960011
 0.1963234 0.1966473 0.1969661 0.197265 0.1975301 0.1977559 0.1979531 0.1981452 0.1983506 0.198568
 0.1987875 0.1990042 0.1992195 0.1994354 0.1996542 0.1998753 0.2000913 0.2002934 0.2004793 0.200654
 0.2008259 0.2010041 0.2011935 0.201391 0.2015903 0.2017886 0.2019869 0.2021845 0.202379 0.2025687
 0.2027564 0.2029492 0.2031506 0.2033555 0.2035588 0.2037654 0.2039802 0.2041956 0.2044024 0.2046071
 0.2048233 0.2050501 0.2052737 0.2054837 0.2056755 0.2058443 0.2059909 0.2061327 0.2062999 0.2065117
 0.2067535 0.2069879 0.2071939 0.2073843 0.2075794 0.2077795 0.2079716 0.2081501 0.2083232 0.208513
 0.2087405 0.2089995 0.2092575 0.2094949 0.2097235 0.2099596 0.2102047 0.2104557 0.2107016 0.2109091
 0.2110486 0.2111436 0.2112734 0.2115138 0.2118685 0.2122608 0.2126002 0.2128583 0.21307 0.2132829
 0.2135288 0.2137978 0.2140041 0.2140441 0.2139532 0.2139442 0.2142103 0.2147301 0.2153174 0.2158156
 0.216191 0.2164859 0.2167413 0.2169563 0.21709 0.2171094 0.2170615 0.2170947 0.2173586 0.2178511
 0.2184057 0.2188608 0.2191884 0.2194379 0.2196447 0.2198222 0.2199293 0.2198219 0.2194041 0.2188943
 0.218767 0.2193002 0.2202669 0.221178 0.2217612 0.2220995 0.222369 0.2226218 0.22283 0.222912
 0.222618 0.2216766 0.2203116 0.2193862 0.2196877 0.2211327 0.2229095 0.2242908 0.225094 0.2255034
 0.225755 0.2259779 0.2260935 0.2258254 0.2250071 0.223984 0.2235217 0.2240992 0.2253729 0.2265476
 0.2271899 0.2274548 0.2276586 0.2279249 0.2281063 0.2277409 0.2263095 0.224003 0.2221142 0.2221274
 0.2242622 0.2272062 0.2294147 0.2304413 0.2308173 0.2309085 0.2303786 0.228796 0.2262855 0.2234748
 0.2212816 0.2207758 0.2224743 0.2254668 0.2279337 0.2289402 0.2292247 0.2299887 0.2314656 0.2329365
 0.2336589 0.2334393 0.2325076 0.2311105 0.2293933 0.2277726 0.2271599 0.2283141 0.2309146 0.2336789
 0.2355439 0.2364708 0.2368879 0.2364398 0.2337286 0.2279936 0.2212207 0.2175979 0.2198164 0.226255
 0.2327196 0.2365654 0.2381528 0.2388881 0.2393399 0.2390704 0.2368964 0.2315464 0.2236631 0.2170492
 0.2160886 0.2214108 0.2291839 0.2346925 0.2355379 0.2318856 0.2256376 0.2198765 0.2175974 0.2198876
 0.2254562 0.2319124 0.2371986 0.2401553 0.2405114 0.2387757 0.236206 0.2345036 0.2345727 0.2351761
 0.2338795 0.2301239 0.2261565 0.2237412 0.2214446 0.2172935 0.2130961 0.2132558 0.2190481 0.2264898
 0.2308106 0.2312894 0.2304138 0.2293438 0.2259308 0.2178138 0.2068911 0.1994243 0.2005674 0.209016
 0.2181681 0.2225884 0.222331 0.2210197 0.2210192 0.2210179 0.2178688 0.2106908 0.2029913 0.19973
 0.202045 0.2062347 0.2081518 0.2065197 0.2015037 0.1933859 0.184933 0.1822608 0.18969 0.2044691
 0.218915 0.2267348 0.2253468 0.2145298 0.1973152 0.1818287 0.177343 0.1859759 0.2001109 0.2093944
 0.2089579 0.200304 0.1868825 0.1717184 0.1588095 0.1535993 0.1597411 0.1753833 0.1931376 0.2037296
 0.2011425 0.1873294 0.17267 0.1685111 0.1768191 0.1887885 0.1946859 0.1926762 0.1874798 0.1843061
 0.1858507 0.1917612 0.1990079 0.2047472 0.2086022 0.2094617 0.2024276 0.1846945 0.1633544 0.1507254
 0.1515654 0.1606493 0.1726066 0.1867381 0.2005798 0.2066097 0.2007242 0.1900037 0.1866692 0.1951086
 0.2081309 0.2157643 0.2151229 0.2109167 0.2081919 0.2069721 0.2047727 0.2024009 0.2041561 0.2118889
 0.2217596 0.2285264 0.2309988 0.2315481 0.2320896 0.232631 0.2326404 0.2319275 0.2305628 0.2290097
 0.2279865 0.2276606 0.227489 0.2270355 0.225962 0.2227995 0.2152571 0.2034427 0.1919134 0.1860627
 0.1863997 0.1889306 0.1911047 0.1933014 0.193276 0.1845941 0.1651264 0.1440259 0.1350636 0.1433182
 0.1613959 0.177869 0.1860317 0.1844728 0.1736657 0.1561869 0.1394446 0.1333444 0.1422047 0.1606195
 0.1792456 0.1928499 0.2008758 0.2029726 0.1980369 0.1874099 0.1761303 0.1700405 0.1722418 0.1817497
 0.1938125 0.2011104 0.1973438 0.1835102 0.1706561 0.1717041 0.1878868 0.2066812 0.2158901 0.2159848
 0.2151054 0.2164052 0.2165156 0.2144681 0.2152376 0.222938 0.2347825 0.2438347 0.2451008 0.2374983
 0.2232004 0.2081247 0.2003945 0.2037947 0.2134022 0.2208811 0.2225166 0.2187347 0.2092 0.1948665
 0.1831621 0.1835212 0.196457 0.2123387 0.2223342 0.2264583 0.2295463 0.2329346 0.2328349 0.2260644
 0.2153544 0.2076643 0.2073033 0.2121709 0.2173312 0.2202182 0.2206663 0.2179654 0.2113042 0.2031297
 0.1991754 0.2034778 0.2141741 0.2252126 0.2317429 0.2331461 0.2316212 0.2293266 0.2269251 0.2237605
 0.2193079 0.215049 0.214179 0.2181989 0.2245347 0.229188 0.2313136 0.2334973 0.2376904 0.2425213
 0.2449654 0.2436474 0.2401499 0.2376292 0.2382802 0.2415995 0.2447664 0.2450463 0.242388 0.2397126
 0.2402228 0.2443432 0.2496678 0.2537008 0.2558951 0.2571195 0.2581776 0.2591009 0.2591242 0.2572648
 0.2537097 0.250613 0.2505682 0.2540418 0.2589325 0.2627456 0.2646118 0.2651387 0.2650241 0.2643234
 0.26287 0.2609539 0.2593372 0.2586475 0.2589259 0.259781 0.2607975 0.26172 0.2624303 0.2629219
 0.2632596 0.2634906 0.2636209 0.2636792 0.2637138 0.2637125 0.2636208 0.2634797 0.2634546 0.2636572
 0.2639986 0.2642781 0.2643578 0.264172 0.2636341 0.2626727 0.2613621 0.259892 0.2583626 0.2567196
 0.254998 0.2535897 0.2531284 0.2540088 0.2560192 0.2584704 0.2606692 0.2622665 0.2632514 0.2637678
 0.2639872 0.2640606 0.2640818 0.2640665 0.2639788 0.2637853 0.2634863 0.263111 0.2626985 0.2622881
 0.261916 0.2616016 0.2613293 0.26105 0.260711 0.260287 0.2597917 0.2592645 0.2587352 0.2581864
 0.2575561 0.2567909 0.2558934 0.254922 0.2539594 0.2530757 0.2522909 0.2515577 0.2508001 0.2499715
 0.2490586 0.2480435 0.2469152 0.245734 0.2446367 0.2437384 0.243039 0.2424404 0.2418271 0.2411158
 0.2402653 0.2392851 0.2382276 0.2371447 0.2360514 0.2349328 0.233765 0.232519 0.2311701 0.2297198
 0.228194 0.2266186 0.2250085 0.223373 0.221701 0.2199333 0.2179618 0.215657 0.2128958 0.2095853
 0.2056929 0.2012731 0.1964749 0.1915127 0.1866077 0.181934 0.177607 0.1737097 0.170318 0.1675096
 0.1653587 0.1639196 0.1632082 0.163206 0.163882 0.1652016 0.1671112 0.1695215 0.1723051 0.1753023
 0.1783309 0.1812123 0.1838296 0.1861838 0.1883717 0.1904773 0.1924872 0.1943294 0.1959662 0.1974111
 0.1986753 0.1997438 0.2006091 0.2013012 0.2018739 0.2023716 0.2028112 0.2031923 0.2035164 0.2037905
 0.2040193 0.2042086 0.2043753 0.2045431 0.2047297 0.2049418 0.205183 0.2054668 0.2058217 0.2062738
 0.2068149 0.2074003 0.2079871 0.2085674 0.2091602 0.2097906 0.2104876 0.2112904 0.2122385 0.21335
 0.214607 0.2159597 0.2173408 0.2186735 0.2198739 0.2208667 0.2216107 0.222108 0.2223883 0.2224891
 0.2224446 0.2222786 0.2220031 0.2216281 0.221169 0.220642 0.2200571 0.2194213 0.2187469 0.2180518
 0.2173504 0.2166482 0.2159474 0.2152513 0.2145635 0.21389 0.2132435 0.2126352 0.2120584 0.2114903
 0.2109154 0.2103359 0.2097584 0.2091826 0.2086033 0.2080059 0.2073618 0.2066381 0.2058185 0.2049054
 0.2039011 0.2027989 0.2015946 0.2002989 0.1989311 0.1975005 0.1960018 0.1944278 0.1927803 0.1910611
 0.1892561 0.1873427 0.1853282 0.183276 0.1812835 0.1794276 0.1777303 0.1761668 0.1746954 0.1732854
 0.171926 0.1706174 0.1693626 0.168171 0.1670552 0.1660139 0.165029 0.1640858 0.1631882 0.1623538
 0.1616027 0.160948 0.1603886 0.1599148 0.159518 0.1591912 0.1589337 0.1587659 0.158716 0.1587717
 0.1588619 0.1589025 0.1588518 0.1587247 0.158573 0.1584478 0.1583645 0.1583077 0.1582614 0.1582039
 0.1580737 0.1577699 0.1571956 0.1562963 0.1550742 0.1535753 0.151863 0.1500193 0.1481731 0.1464787
 0.1450385 0.1438761 0.142978 0.1423149 0.1418233 0.1414322 0.1411225 0.1409408 0.1409479 0.1411401
 0.1414028 0.141573 0.1415943 0.1415844 0.141726 0.1421208 0.1427469 0.1434951 0.144235 0.144884
 0.1454192 0.1458286 0.1460995 0.1462507 0.1463159 0.1462969 0.1461793 0.1459728 0.1456997 0.1453735
 0.1450018 0.1445778 0.1440795 0.1435002 0.1428489 0.1421169 0.1412926 0.1403872 0.1393888 0.1382523
 0.1370241 0.1359221 0.135223 0.1350949 0.1355271 0.1363467 0.1373292 0.1383467 0.1393408 0.1401382
 0.1404995 0.1404968 0.1406978 0.1417563 0.1437895 0.1462424 0.1483769 0.1498095 0.1505462 0.1506805
 0.1502556 0.1493186 0.1478895 0.1459206 0.1434275 0.1405632 0.1374927 0.1343502 0.1313362 0.1286608
 0.1264075 0.1245708 0.1231407 0.1221613 0.1217692 0.1215912 0.119717 0.1136982 0.1043273 0.09731627
 0.09848368 0.107211 0.1168815 0.1218679 0.1220112 0.1203139 0.1188512 0.1179224 0.117403 0.1174383
 0.118166 0.119434 0.1208415 0.1219903 0.122723 0.1230796 0.1230228 0.1222036 0.1198881 0.1152045
 0.1078427 0.09866768 0.08942938 0.08174247 0.07635333 0.07314977 0.07151894 0.07071099 0.07019765 0.06991006
 0.07013823 0.07117459 0.07307092 0.07570124 0.07890287 0.08242084 0.08581214 0.08863847 0.09079488 0.09249637
 0.09391665 0.09498016 0.09552866 0.09555031 0.09518464 0.09459129 0.09387881 0.09310283 0.09224226 0.09120052
 0.0899506 0.08869949 0.08778156 0.08734176 0.08723056 0.08722775 0.08723783 0.08725166 0.08725847 0.08724248
 0.08720233 0.08717716 0.08727209 0.08758728 0.08808596 0.08859006 0.08892825 0.08906223 0.08907592 0.0890324
 0.08882666 0.08828103 0.08746328 0.08672664 0.08624567 0.08569716 0.08468083 0.0833462 0.08231279 0.08199494
 0.08222906 0.08255135 0.08263201 0.08242051 0.08209142 0.08196554 0.08230723 0.08301051 0.08357885 0.08359045
</values></Ydata></ScRf><Data_Parameters_AB><parameter name="DPF">1</parameter><parameter name="NPT">3497</parameter><parameter name="FXV">3996</parameter><parameter name="LXV">500</parameter><parameter name="CSF">1</parameter><parameter name="MXY">0.0781835615634918</parameter><parameter name="MNY">-0.10374953597784</parameter><parameter name="DAT">02/06/2022</parameter><parameter name="TIM">13:23:37.246 (GMT+2)</parameter><parameter name="DXU">WN</parameter></Data_Parameters_AB><AB__Qtest><MainReport name="Quality Test Report"><Header><Line><Legend>Test result ok/not ok [1/0]: </Legend><Value>0</Value></Line><Line><Legend>Method file: </Legend><Value>C:\Users\Public\Documents\Bruker\OPUS_8.2.28\QT\IRBT_v3_default.QT</Value></Line></Header><Matrix><Line><Legend></Legend><Legend>min</Legend><Legend>max</Legend><Legend>measured</Legend></Line><Line><Value>Absorption (X-Range 1):</Value><Value>0.400000</Value><Value>2.000000</Value><Value>0.124011</Value></Line><Line><Value>Noise (X-Range 4):</Value><Value></Value><Value>0.000300</Value><Value>0.000042</Value></Line><Line><Value>Signal/Noise (X-Range 2):</Value><Value>200.000000</Value><Value></Value><Value>49.733786</Value></Line><Line><Value>Signal/Noise (X-Range 3):</Value><Value>40.000000</Value><Value></Value><Value>26.440048</Value></Line><Line><Value>Water vapour (X-Range 5):</Value><Value></Value><Value>0.000300</Value><Value>0.000060</Value></Line><Line><Value>Signal/Water (X-Range 2):</Value><Value>100.000000</Value><Value></Value><Value>35.114709</Value></Line><Line><Value>Signal/Water (X-Range 3):</Value><Value>20.000000</Value><Value></Value><Value>18.668086</Value></Line><Line><Value>Fringes (X-Range 6):</Value><Value></Value><Value>0.000100</Value><Value>0.000072</Value></Line></Matrix></MainReport></AB__Qtest><Data_Parameters_ScSm><parameter name="DPF">1</parameter><parameter name="NPT">1814</parameter><parameter name="FXV">3996.33169228125</parameter><parameter name="LXV">499.541461535156</parameter><parameter name="CSF">1</parameter><parameter name="MXY">0.285139113664627</parameter><parameter name="MNY">0.0373259261250496</parameter><parameter name="DAT">02/06/2022</parameter><parameter name="TIM">13:23:37.246 (GMT+2)</parameter><parameter name="DXU">WN</parameter></Data_Parameters_ScSm><Data_Parameters_ScRf><parameter name="DPF">1</parameter><parameter name="NPT">1820</parameter><parameter name="FXV">4004.04661832813</parameter><parameter name="LXV">495.683998511719</parameter><parameter name="CSF">1</parameter><parameter name="MXY">0.265138685703278</parameter><parameter name="MNY">0.0293951537460089</parameter><parameter name="DAT">02/06/2022</parameter><parameter name="TIM">13:23:11.392 (GMT+2)</parameter><parameter name="DXU">WN</parameter></Data_Parameters_ScRf><Optic_Parameters_Rf><parameter name="APR">0</parameter><parameter name="APT">Open</parameter><parameter name="BMS">KBr</parameter><parameter name="DTC">RT-DLaTGS_IR-Biotyper [Microplate reader]</parameter><parameter name="HPF">0</parameter><parameter name="LPF">10.0</parameter><parameter name="LPV">4000</parameter><parameter name="PGR">0</parameter><parameter name="RCH">Module port</parameter><parameter name="RDX">0</parameter><parameter name="SRC">MIR</parameter><parameter name="VEL">10.0</parameter><parameter name="SON">Off</parameter></Optic_Parameters_Rf><Acquisition_Parameters_Rf><parameter name="ADT">1</parameter><parameter name="AQM">DD</parameter><parameter name="CFE">0</parameter><parameter name="COR">0</parameter><parameter name="DEL">0</parameter><parameter name="DLY">0</parameter><parameter name="HFW">8000</parameter><parameter name="LFW">0</parameter><parameter name="NSR">32</parameter><parameter name="PLF">AB</parameter><parameter name="RES">6</parameter><parameter name="RGN">-1</parameter><parameter name="STR">0</parameter><parameter name="TCL">MakeCompatibleScalar (0, {WSV=1.000000, ARV=0});</parameter><parameter name="TDL">37</parameter><parameter name="RPO">0</parameter></Acquisition_Parameters_Rf><FT_-_Parameters_Rf><parameter name="APF">B3</parameter><parameter name="HFQ">500</parameter><parameter name="LFQ">4000</parameter><parameter name="NLI">0</parameter><parameter name="PHR">24</parameter><parameter name="PHZ">ML</parameter><parameter name="SPZ">NO</parameter><parameter name="ZFF">1</parameter></FT_-_Parameters_Rf><Optic_Parameters_><parameter name="APR">0</parameter><parameter name="APT">Open</parameter><parameter name="BMS">KBr</parameter><parameter name="CHN">Module port</parameter><parameter name="DTC">RT-DLaTGS_IR-Biotyper [Microplate reader]</parameter><parameter name="HPF">0</parameter><parameter name="LPF">10.0</parameter><parameter name="LPV">4000</parameter><parameter name="PGN">0</parameter><parameter name="RDX">0</parameter><parameter name="SRC">MIR</parameter><parameter name="VEL">10.0</parameter><parameter name="SON">Off</parameter></Optic_Parameters_><FT_-_Parameters_><parameter name="APF">B3</parameter><parameter name="HFQ">500</parameter><parameter name="LFQ">4000</parameter><parameter name="NLI">0</parameter><parameter name="PHR">24</parameter><parameter name="PHZ">ML</parameter><parameter name="SPZ">NO</parameter><parameter name="ZFF">1</parameter></FT_-_Parameters_><Acquisition_Parameters_><parameter name="ADT">1</parameter><parameter name="AQM">DD</parameter><parameter name="CFE">0</parameter><parameter name="COR">0</parameter><parameter name="DEL">0</parameter><parameter name="DLY">0</parameter><parameter name="HFW">8000</parameter><parameter name="LFW">0</parameter><parameter name="NSS">32</parameter><parameter name="PLF">AB</parameter><parameter name="RES">6</parameter><parameter name="SOT">0</parameter><parameter name="TCL">MakeCompatibleScalar (0, {WSV=1.000000, ARV=0});</parameter><parameter name="TDL">37</parameter><parameter name="SPO">0</parameter><parameter name="SGN">-1</parameter></Acquisition_Parameters_><Instrument_Parameters_Rf><parameter name="HFL">15800.168544</parameter><parameter name="LFL">0</parameter><parameter name="LWN">15800.168544</parameter><parameter name="ABP">32197</parameter><parameter name="SSP">1</parameter><parameter name="ARG">2</parameter><parameter name="ASG">2</parameter><parameter name="ASS">32</parameter><parameter name="GFW">16</parameter><parameter name="GBW">16</parameter><parameter name="BFW">0</parameter><parameter name="BBW">0</parameter><parameter name="PKA">7268</parameter><parameter name="PKL">4996</parameter><parameter name="PRA">7455</parameter><parameter name="PRL">5001</parameter><parameter name="P2A">1</parameter><parameter name="P2L">1</parameter><parameter name="P2R">1</parameter><parameter name="P2K">1</parameter><parameter name="DAQ">0</parameter><parameter name="AG2">1</parameter><parameter name="SSM">1</parameter><parameter name="RSN">26201</parameter><parameter name="CRR">0</parameter><parameter name="SRT">1654176191.393</parameter><parameter name="DUR">19.6379852294922</parameter><parameter name="TSC">29.2</parameter><parameter name="MVD">0.31261819601059</parameter><parameter name="AN1">0.225832237139908</parameter><parameter name="AN2">0</parameter><parameter name="VSN">2.485 Apr  4 2017</parameter><parameter name="SRN">0085</parameter><parameter name="CAM">0</parameter><parameter name="INS">IR-Biotyper</parameter><parameter name="FOC">69</parameter><parameter name="RDY">1</parameter><parameter name="ARS">32</parameter></Instrument_Parameters_Rf><Sample_Parameters_><parameter name="BLD"></parameter><parameter name="CNM">Admin</parameter><parameter name="CPY"></parameter><parameter name="DPM"></parameter><parameter name="EXP">IRBT_v3_32Scans.XPM</parameter><parameter name="LCT"></parameter><parameter name="SFM">Microplate, HTS-XT</parameter><parameter name="SNM">220602-1248_SMP48F (D_4)_B2_3e4a6e1c-b060-4762-858c-1eebb28d88d1.0</parameter><parameter name="XPP">C:\Users\Public\Documents\Bruker\OPUS_8.2.28\XPM</parameter><parameter name="IST">OK</parameter><parameter name="CPG">1252</parameter><parameter name="UID">53ac0e96-2e5d-430f-944b-789a399eb654</parameter></Sample_Parameters_><Instrument_Parameters_><parameter name="HFL">15800.168544</parameter><parameter name="LFL">0</parameter><parameter name="LWN">15800.168544</parameter><parameter name="ABP">32197</parameter><parameter name="SSP">1</parameter><parameter name="ASG">2</parameter><parameter name="ARG">2</parameter><parameter name="ASS">32</parameter><parameter name="GFW">16</parameter><parameter name="GBW">16</parameter><parameter name="BFW">0</parameter><parameter name="BBW">0</parameter><parameter name="PKA">8026</parameter><parameter name="PKL">4988</parameter><parameter name="PRA">8300</parameter><parameter name="PRL">4993</parameter><parameter name="P2A">1</parameter><parameter name="P2L">1</parameter><parameter name="P2R">1</parameter><parameter name="P2K">1</parameter><parameter name="DAQ">0</parameter><parameter name="AG2">1</parameter><parameter name="SSM">1</parameter><parameter name="RSN">13726</parameter><parameter name="CRR">0</parameter><parameter name="SRT">1654176217.246</parameter><parameter name="DUR">19.6379852294922</parameter><parameter name="TSC">29.2</parameter><parameter name="MVD">0.827009499073029</parameter><parameter name="AN1">0.22581452749454</parameter><parameter name="AN2">0</parameter><parameter name="VSN">2.485 Apr  4 2017</parameter><parameter name="SRN">0085</parameter><parameter name="CAM">0</parameter><parameter name="INS">IR-Biotyper</parameter><parameter name="FOC">69</parameter><parameter name="RDY">1</parameter></Instrument_Parameters_><History/></OPUSDataFile>
