<?xml version="1.0" encoding="UTF-8" ?>
<OPUSDataFile><AB><Ydata ylabel="Absorbance Units"><values byteorder="INTEL" format="FLOAT32" numvalues="3497"> -0.06158245 -0.0615654 -0.06154294 -0.06151492 -0.0614844 -0.06145151 -0.06141008 -0.06136045 -0.06130461 -0.06124483
 -0.06119621 -0.06115873 -0.06114223 -0.06114081 -0.06114538 -0.06115154 -0.06114537 -0.06113295 -0.06111431 -0.06109978
 -0.06109962 -0.06111253 -0.06114307 -0.06117849 -0.06121499 -0.06124424 -0.06126237 -0.06127201 -0.061273 -0.06126835
 -0.06125852 -0.06124189 -0.06121841 -0.06119182 -0.06116318 -0.06114704 -0.06114458 -0.06117146 -0.06122528 -0.0613078
 -0.06141172 -0.06152202 -0.06163041 -0.06171574 -0.06177663 -0.06180028 -0.0617977 -0.06177133 -0.0617372 -0.06170601
 -0.0616819 -0.06167142 -0.06166236 -0.06165308 -0.06163238 -0.06159643 -0.0615532 -0.06150214 -0.06146437 -0.06144101
 -0.06144587 -0.06147831 -0.06153332 -0.06160841 -0.061686 -0.06176466 -0.0618293 -0.06188165 -0.06191767 -0.06194123
 -0.06195668 -0.06196762 -0.06198108 -0.06199514 -0.06201313 -0.06202408 -0.06202361 -0.06200139 -0.06194969 -0.06187605
 -0.06177773 -0.06168023 -0.06158651 -0.06152033 -0.06148465 -0.0614895 -0.06153565 -0.0616232 -0.06175158 -0.061915
 -0.06210941 -0.06231095 -0.06250905 -0.06265058 -0.06273279 -0.06271355 -0.0626182 -0.06246545 -0.06229005 -0.06214264
 -0.06203488 -0.06199926 -0.06201404 -0.06208143 -0.06216086 -0.06223628 -0.06228695 -0.06230007 -0.06229265 -0.06226409
 -0.06224215 -0.06223047 -0.06223511 -0.06225672 -0.06227716 -0.06229582 -0.06229875 -0.06228896 -0.06227771 -0.06226928
 -0.06228735 -0.06232946 -0.06240474 -0.06250102 -0.06260268 -0.06269853 -0.06276718 -0.06280945 -0.06281867 -0.0627993
 -0.06275127 -0.06268108 -0.0625862 -0.06249318 -0.06240411 -0.06236132 -0.06237268 -0.0624638 -0.06264213 -0.06287204
 -0.06315276 -0.06333901 -0.06342579 -0.06329861 -0.06298367 -0.06259558 -0.06215655 -0.06181612 -0.06156392 -0.06144969
 -0.06145382 -0.06157186 -0.06177019 -0.06201598 -0.06225925 -0.0624477 -0.06255399 -0.06253524 -0.06243374 -0.06224838
 -0.06205052 -0.06186295 -0.06170656 -0.06159161 -0.06149773 -0.06142329 -0.06135909 -0.0613043 -0.06127166 -0.06126166
 -0.06128509 -0.06133998 -0.06142079 -0.06152174 -0.06162004 -0.06170724 -0.06174905 -0.06174531 -0.06167409 -0.06155565
 -0.06140211 -0.06124067 -0.0610997 -0.06098926 -0.06092491 -0.06090026 -0.06091652 -0.06096571 -0.06104637 -0.06115155
 -0.06128235 -0.06141673 -0.06155482 -0.06165026 -0.06170028 -0.06166629 -0.06154949 -0.06136465 -0.06111845 -0.06086312
 -0.06060107 -0.06036965 -0.0601659 -0.06000045 -0.05987125 -0.05978026 -0.05972417 -0.05970376 -0.05970407 -0.05971638
 -0.05971832 -0.05969229 -0.0596341 -0.05953283 -0.0594128 -0.05927612 -0.05915414 -0.05905332 -0.05898839 -0.05896254
 -0.05897173 -0.05901607 -0.05907995 -0.05916203 -0.05923877 -0.05930912 -0.05935315 -0.05937366 -0.05936986 -0.05934742
 -0.05932089 -0.05929283 -0.05927577 -0.05926605 -0.05926478 -0.05926627 -0.05926263 -0.0592616 -0.05926037 -0.05928499
 -0.05934679 -0.05945678 -0.05962861 -0.05981987 -0.06003 -0.06018968 -0.06028981 -0.06030394 -0.06022964 -0.06006408
 -0.05980773 -0.05946212 -0.05903662 -0.05859434 -0.058149 -0.05779331 -0.05752368 -0.05738415 -0.05734957 -0.05740216
 -0.05750247 -0.05759123 -0.05765346 -0.0576476 -0.0576007 -0.05751786 -0.05742052 -0.05732375 -0.05721698 -0.05710294
 -0.05695549 -0.05676845 -0.05653727 -0.05625787 -0.05596495 -0.05566019 -0.05538601 -0.0551437 -0.05495693 -0.05482356
 -0.05474493 -0.05470991 -0.05467983 -0.05463429 -0.05449131 -0.05426034 -0.05390721 -0.053484 -0.05304745 -0.05262123
 -0.05225622 -0.05192325 -0.05162316 -0.05131385 -0.05097378 -0.05059556 -0.05016686 -0.04972165 -0.04926321 -0.04882549
 -0.04841526 -0.04802482 -0.04765515 -0.04724742 -0.04679893 -0.04625305 -0.04561885 -0.04493368 -0.04421195 -0.04353848
 -0.04290667 -0.04234248 -0.04183269 -0.04136573 -0.04093041 -0.04051518 -0.04009142 -0.03963615 -0.03911101 -0.03848015
 -0.03774589 -0.03689661 -0.03595974 -0.03494499 -0.03384796 -0.03266566 -0.03141739 -0.03010041 -0.02878535 -0.02747704
 -0.02621286 -0.02499239 -0.02379897 -0.02263168 -0.0214762 -0.02033476 -0.01921105 -0.01810358 -0.01701083 -0.01592905
 -0.01485365 -0.01377374 -0.01268521 -0.01154454 -0.01031526 -0.008956104 -0.007404376 -0.005741036 -0.003970227 -0.002223467
 -0.0005550889 0.001038972 0.002544234 0.004028422 0.005499714 0.006984531 0.008485966 0.009988571 0.01149107 0.01296517
 0.01441268 0.01582575 0.01722262 0.01866971 0.02019615 0.02193759 0.02385579 0.02597007 0.02816371 0.03027144
 0.03227659 0.03408101 0.03578207 0.03741276 0.03904806 0.04073936 0.04247708 0.04427552 0.04607862 0.04787493
 0.04964495 0.05138066 0.05312236 0.05487149 0.05669112 0.05858225 0.06055711 0.06260635 0.06466115 0.06671655
 0.06871006 0.07065452 0.0725545 0.07442054 0.07627582 0.07812233 0.07996926 0.08182433 0.08370043 0.08559275
 0.08750863 0.08941781 0.09130183 0.09317023 0.09500906 0.09689944 0.09885789 0.1009228 0.1031113 0.1053245
 0.1075575 0.1096994 0.111749 0.1137091 0.1155873 0.1174427 0.1192791 0.121145 0.1230358 0.1249687
 0.1269264 0.1288828 0.1308268 0.1327217 0.1345988 0.1364656 0.138377 0.1403814 0.1424703 0.144668
 0.146888 0.1491074 0.1512766 0.1533757 0.1554238 0.1574195 0.1593942 0.16135 0.1633112 0.1652785
 0.1672629 0.1692624 0.1712643 0.1732683 0.1752634 0.1772569 0.179265 0.1812899 0.183348 0.185425
 0.1875095 0.1895862 0.1916336 0.1936531 0.1956361 0.1975983 0.1995426 0.2014896 0.2034478 0.2054214
 0.2074161 0.2094082 0.211395 0.2133628 0.2153092 0.2172587 0.2192122 0.2211891 0.2231864 0.2251846
 0.2271825 0.2291625 0.2311287 0.2330876 0.2350344 0.2369632 0.2388671 0.2407283 0.2425603 0.2443676
 0.2461673 0.2479771 0.2497887 0.2516047 0.2534083 0.2551924 0.2569568 0.2586986 0.2604294 0.2621489
 0.2638765 0.2656134 0.2673763 0.2691649 0.2709598 0.2727576 0.2745165 0.2762415 0.2779307 0.2795944
 0.2812661 0.2829403 0.2846238 0.2863027 0.2879563 0.2895882 0.2911926 0.2927817 0.2943634 0.2959407
 0.2975157 0.2990928 0.3006747 0.3022583 0.3038478 0.3054119 0.306947 0.3084328 0.3098659 0.3112762
 0.3126651 0.3140642 0.3154708 0.3168735 0.3182715 0.3196523 0.3210223 0.3223976 0.3237777 0.3251723
 0.3265715 0.3279645 0.3293468 0.3307107 0.3320537 0.3333731 0.334664 0.3359207 0.3371528 0.3383605
 0.3395596 0.3407559 0.3419406 0.343114 0.3442621 0.3453831 0.3464938 0.3475951 0.3487104 0.3498389
 0.3509809 0.3521357 0.3533011 0.3544763 0.3556627 0.3568498 0.358018 0.3591584 0.3602451 0.3612901
 0.3622937 0.3632742 0.3642467 0.3652129 0.366178 0.3671381 0.3680922 0.3690413 0.3699865 0.370922
 0.3718474 0.3727551 0.373644 0.3745216 0.3753882 0.3762549 0.3771215 0.3779893 0.3788578 0.3797262
 0.380592 0.3814493 0.3822914 0.3831001 0.3838778 0.3846149 0.3853308 0.3860412 0.3867602 0.3875072
 0.3882702 0.3890518 0.3898264 0.3905867 0.3913145 0.3920033 0.392654 0.393264 0.393856 0.3944319
 0.3950084 0.3955854 0.3961371 0.3966608 0.397116 0.3975098 0.3978528 0.3981611 0.3984925 0.398851
 0.3992774 0.3997556 0.4002823 0.4008348 0.401389 0.4019303 0.4024358 0.4029187 0.4033694 0.4038419
 0.404349 0.4049416 0.4056428 0.4064206 0.4072832 0.4081104 0.4088937 0.4095302 0.4100167 0.4103667
 0.4105904 0.4107948 0.4109831 0.4112339 0.4115302 0.4118582 0.4122085 0.4125451 0.4128926 0.4132721
 0.4137028 0.4142276 0.4148058 0.4154312 0.4160384 0.4165841 0.4170699 0.4174743 0.4178731 0.4182781
 0.4187527 0.4193126 0.4199456 0.420655 0.4213646 0.4220703 0.4226888 0.4232212 0.4236408 0.4239632
 0.4242486 0.4245189 0.4248771 0.4253281 0.4259406 0.4266869 0.4275655 0.4285224 0.4295056 0.4304661
 0.4313464 0.4321474 0.4328436 0.4334926 0.4341039 0.4347395 0.4354163 0.4361611 0.4369797 0.4378864
 0.4388823 0.4399907 0.4412122 0.4425429 0.4439749 0.4454322 0.4468966 0.4482339 0.4494324 0.4503724
 0.451079 0.4515296 0.4517989 0.4519809 0.4521525 0.4524426 0.4528442 0.4534168 0.4540482 0.4547103
 0.4552721 0.4556793 0.4558761 0.455831 0.4555831 0.4551274 0.4545571 0.4538786 0.4531772 0.452457
 0.4517485 0.4510497 0.4503466 0.4496389 0.4489171 0.4481862 0.4474606 0.4467392 0.4460343 0.4453236
 0.4445892 0.4437836 0.4428559 0.4417575 0.4404294 0.4388749 0.4370617 0.435079 0.4329371 0.4307643
 0.4285913 0.4265 0.4245106 0.42263 0.4208623 0.4191746 0.4175649 0.4159884 0.414443 0.4128877
 0.4113263 0.4097546 0.4081838 0.406652 0.4051582 0.4037276 0.4023325 0.4009435 0.3995334 0.3980522
 0.3965188 0.3949172 0.3933167 0.3917419 0.3902651 0.3889219 0.3877281 0.3867057 0.3857838 0.3849631
 0.3841181 0.383238 0.3822343 0.381103 0.3798614 0.378517 0.3771596 0.3757934 0.3744894 0.3732398
 0.3720575 0.3709317 0.3698455 0.3687896 0.3677444 0.3666995 0.3656354 0.3645507 0.3634326 0.3623038
 0.3611691 0.3600604 0.358993 0.3579708 0.3570028 0.3560557 0.3551275 0.3541794 0.353207 0.3521954
 0.3511438 0.3500589 0.3489414 0.3478026 0.3466437 0.3454754 0.3442992 0.3431261 0.3419558 0.340794
 0.3396365 0.3384792 0.337319 0.3361498 0.3349734 0.3337892 0.3325995 0.331406 0.3302073 0.3290032
 0.3277925 0.3265749 0.3253504 0.3241196 0.3228768 0.3216218 0.3203473 0.3190531 0.3177467 0.3164299
 0.3151264 0.3138368 0.3125782 0.3113464 0.3101365 0.3089436 0.3077523 0.3065639 0.3053731 0.3041848
 0.3030031 0.30183 0.3006669 0.2995191 0.2983843 0.297287 0.2962333 0.295249 0.2943493 0.2935029
 0.2927163 0.2918862 0.2910045 0.2899784 0.2888027 0.2874918 0.2860549 0.2846085 0.283163 0.2818418
 0.2806373 0.279597 0.2786895 0.2778732 0.2771048 0.2762949 0.2754231 0.2744191 0.2733225 0.2721275
 0.2709168 0.2697344 0.2686257 0.2676289 0.2667059 0.2658581 0.2650279 0.2642004 0.2633888 0.2625893
 0.2618773 0.2612568 0.2607658 0.2603979 0.2600853 0.2598112 0.2594421 0.2589751 0.2583187 0.2575046
 0.256553 0.2555135 0.2544797 0.2534686 0.2525463 0.2516788 0.2508601 0.2500618 0.2492544 0.2484723
 0.247717 0.2470394 0.2464615 0.2459616 0.2455459 0.2451367 0.2447254 0.244283 0.2438076 0.2433462
 0.2429009 0.242513 0.2421765 0.2418752 0.2416025 0.2413244 0.2410437 0.2407508 0.2404486 0.2401413
 0.2398203 0.2394817 0.2391048 0.2386764 0.2381694 0.2375656 0.2368502 0.236005 0.2350647 0.2340223
 0.2329763 0.2319368 0.2310091 0.2302078 0.2295514 0.2290419 0.2285793 0.2281549 0.2276254 0.226993
 0.2261884 0.2252371 0.2241891 0.2230766 0.2220053 0.220981 0.2200692 0.2192395 0.2184873 0.2177702
 0.2170512 0.2163101 0.2155197 0.2146979 0.2138395 0.2129883 0.2121542 0.2113688 0.2106439 0.2099564
 0.2093087 0.2086284 0.2079117 0.2071118 0.2062323 0.2053137 0.2043656 0.2034733 0.2026299 0.2018629
 0.2011457 0.2004243 0.1996869 0.1988786 0.198029 0.1971454 0.1962726 0.1954523 0.1947007 0.1940408
 0.1934638 0.192969 0.1925588 0.1922316 0.1920028 0.1918776 0.191845 0.1919082 0.1920044 0.1921305
 0.1921949 0.192194 0.1920591 0.1917956 0.191398 0.1908823 0.1903023 0.1896759 0.1890733 0.1885041
 0.1880158 0.1876089 0.1873019 0.1870918 0.1869822 0.1869693 0.1870523 0.1872273 0.1874932 0.1878462
 0.1882853 0.1888062 0.1894071 0.1900903 0.190854 0.1917273 0.1927117 0.1938679 0.1951985 0.1967545
 0.198529 0.2005088 0.2026747 0.2049487 0.2073137 0.2096858 0.2120657 0.2144147 0.2167445 0.2190561
 0.2213531 0.2236406 0.2259139 0.2281682 0.2304128 0.2326463 0.2348939 0.2371668 0.2394567 0.2417753
 0.2440287 0.246215 0.2481786 0.2499102 0.2512833 0.252297 0.2529183 0.253157 0.2530552 0.2526283
 0.2519468 0.2510414 0.2500072 0.2489058 0.2478728 0.246983 0.246381 0.2461017 0.2462338 0.2467416
 0.2476388 0.2488508 0.2503542 0.2520869 0.25403 0.2561395 0.2584087 0.2607883 0.2632749 0.2658063
 0.2683789 0.2709235 0.2734364 0.2758486 0.2781582 0.2803156 0.2823263 0.2841836 0.2858953 0.2874862
 0.2889399 0.2902618 0.2913737 0.2922181 0.292628 0.2924789 0.2915477 0.2896737 0.2867239 0.2825626
 0.2773393 0.2710044 0.264036 0.2564722 0.2489231 0.2414544 0.2345163 0.2281429 0.2224685 0.2174864
 0.2130815 0.2092346 0.2057633 0.2026594 0.1997969 0.1971733 0.1947234 0.1924367 0.190267 0.1882037
 0.1862108 0.1842975 0.182454 0.1807088 0.1790746 0.1775754 0.1762256 0.1750292 0.1739906 0.1731038
 0.1723675 0.1717819 0.1713459 0.1710739 0.1709668 0.1710393 0.1712891 0.1716856 0.1722133 0.1727554
 0.1732868 0.1736407 0.1738115 0.1736861 0.1733059 0.1726776 0.1718803 0.1710059 0.1701371 0.1693713
 0.1687689 0.1683919 0.1682677 0.1684239 0.1688565 0.1695721 0.1705509 0.1717941 0.1732641 0.1749676
 0.1767643 0.1786514 0.1802474 0.18152 0.1818685 0.1812723 0.1792535 0.1758994 0.1712525 0.1655232
 0.1592603 0.1526663 0.1463726 0.1404331 0.1351942 0.1305543 0.1265545 0.1230468 0.119953 0.1171764
 0.1146581 0.112357 0.110253 0.1083193 0.10655 0.1049169 0.103417 0.1020246 0.1007383 0.09953148
 0.09840263 0.09732262 0.09629022 0.09528203 0.09429881 0.09332968 0.09237918 0.09145218 0.09055647 0.08970964
 0.08891323 0.0881817 0.08749747 0.08685508 0.08622404 0.0855829 0.0849181 0.08421262 0.08348974 0.08274832
 0.08203132 0.08134732 0.08071943 0.08015402 0.07963125 0.07915083 0.07866883 0.078184 0.07767459 0.07714441
 0.07661267 0.07608132 0.0755733 0.07507733 0.07457663 0.07405606 0.07347385 0.07283807 0.07213341 0.07139686
 0.07065302 0.06993897 0.06928758 0.06870696 0.06821302 0.06778419 0.06742127 0.0670866 0.06677548 0.06644716
 0.06609605 0.065699 0.06525338 0.06477184 0.06425611 0.06374299 0.06323375 0.06275614 0.06230718 0.06188963
 0.06149904 0.06112463 0.06076421 0.06040857 0.06005758 0.05970715 0.0593585 0.05901053 0.05866723 0.05832987
 0.05800457 0.0576951 0.05740179 0.05712825 0.05685936 0.05659466 0.0563097 0.05600079 0.05565912 0.05528305
 0.05489508 0.05449686 0.05412322 0.05377354 0.05346092 0.05317933 0.05291034 0.05264816 0.05236527 0.05206457
 0.05173556 0.05139141 0.05104423 0.0507069 0.05039902 0.0501155 0.04986437 0.04961864 0.04937057 0.0490927
 0.04877292 0.0484085 0.04799373 0.0475527 0.04708628 0.04662748 0.04617868 0.04576273 0.04537997 0.04503145
 0.04471442 0.04440807 0.04410956 0.04379392 0.04346364 0.04311103 0.04274413 0.04237451 0.0420086 0.04166107
 0.04133099 0.04102374 0.04073332 0.04045768 0.04019131 0.03993124 0.03967463 0.0394204 0.03916574 0.03891018
 0.03865053 0.0383862 0.03811687 0.03784234 0.03756692 0.03729089 0.03701985 0.03675411 0.03649844 0.03625352
 0.03602536 0.03581371 0.03562287 0.03544778 0.03528272 0.03511807 0.03493844 0.03473802 0.03450407 0.0342408
 0.03394562 0.03362883 0.03329372 0.03294994 0.03260029 0.03225417 0.03191333 0.03158725 0.03127749 0.03098837
 0.03072056 0.03046941 0.03023453 0.0300064 0.02978464 0.02956185 0.02933829 0.02911103 0.02888068 0.02864757
 0.02841196 0.02817496 0.02793544 0.0276924 0.02744463 0.02718945 0.02693001 0.02666578 0.02640572 0.02615355
 0.02591586 0.02569694 0.02549225 0.02530262 0.02511692 0.02493372 0.02474679 0.02455546 0.02435927 0.02415814
 0.02394953 0.02373338 0.02350695 0.02327175 0.02303304 0.02279288 0.02256128 0.02233627 0.02211959 0.02190643
 0.0216896 0.0214695 0.0212421 0.0210146 0.02079103 0.02057478 0.02037029 0.02017071 0.01997525 0.01977626
 0.01957092 0.01936222 0.01914966 0.01894195 0.01873991 0.01854476 0.01835631 0.01816645 0.01797474 0.01777345
 0.01756383 0.0173469 0.01712552 0.01690841 0.01669784 0.01650323 0.01632335 0.01616203 0.01601274 0.01587183
 0.01573016 0.01558039 0.0154178 0.01523707 0.01504219 0.01483219 0.01461654 0.01439664 0.01418139 0.0139721
 0.01377436 0.01358877 0.01341699 0.01325897 0.01311178 0.0129747 0.01284034 0.01270781 0.01256857 0.01242306
 0.01226738 0.01210425 0.01193711 0.01176868 0.01160533 0.01144537 0.01129035 0.01113538 0.01097683 0.01081415
 0.01064471 0.01047495 0.01030618 0.01014417 0.00999105 0.009845587 0.009708148 0.009574665 0.009444831 0.009316388
 0.009189188 0.009060694 0.008930508 0.008793643 0.008650165 0.008497028 0.008336085 0.008170828 0.008004083 0.007843375
 0.007690166 0.007550382 0.007422332 0.007307154 0.007200843 0.007101094 0.007004854 0.00690991 0.006815661 0.006721738
 0.006626957 0.006531699 0.006430764 0.006323655 0.006204863 0.00607354 0.005934059 0.005786876 0.005646899 0.005514603
 0.005401677 0.005305607 0.005221111 0.005143866 0.005057049 0.004960175 0.004842473 0.004709668 0.004564851 0.004414696
 0.004267862 0.00412565 0.003992801 0.003864494 0.003740298 0.003613487 0.003481389 0.003341702 0.003192385 0.003039616
 0.002883412 0.002734154 0.002592867 0.002462942 0.002344344 0.002228962 0.002116153 0.001995931 0.001869271 0.001735265
 0.001596324 0.001459733 0.001326419 0.001202507 0.00108609 0.0009772524 0.0008733501 0.0007712343 0.0006707696 0.0005704495
 0.0004722992 0.0003774185 0.0002853321 0.0001970404 0.0001074235 1.589376E-05 -8.350085E-05 -0.0001919561 -0.000310541 -0.0004396793
 -0.0005749329 -0.000716016 -0.0008554604 -0.0009928471 -0.001121001 -0.001240162 -0.001347233 -0.001443737 -0.001532454 -0.001615478
 -0.001698679 -0.001782991 -0.001872748 -0.001966737 -0.00206593 -0.002167012 -0.002268512 -0.002366082 -0.002456936 -0.002539766
 -0.002612488 -0.002680069 -0.002742644 -0.0028079 -0.002877212 -0.002953186 -0.003036479 -0.003121927 -0.003209252 -0.003291647
 -0.003369197 -0.003440055 -0.003505109 -0.003568031 -0.003629305 -0.003692934 -0.003757614 -0.003822906 -0.003886429 -0.003944133
 -0.003995344 -0.00403686 -0.004071947 -0.004101371 -0.004129796 -0.004159942 -0.004193667 -0.00423251 -0.004275347 -0.004322
 -0.004372571 -0.004426969 -0.004486356 -0.004551057 -0.004617639 -0.00468586 -0.004747297 -0.004801884 -0.004845336 -0.004879075
 -0.004908309 -0.004934329 -0.004964713 -0.004998226 -0.005036063 -0.005076147 -0.005115315 -0.005153716 -0.005190143 -0.005225701
 -0.00526121 -0.005296132 -0.005330387 -0.005363513 -0.005394698 -0.005426783 -0.005460072 -0.00549808 -0.005541994 -0.005588487
 -0.005637773 -0.005679348 -0.005712731 -0.005732391 -0.005739502 -0.005744317 -0.005749469 -0.005774822 -0.005820721 -0.005899713
 -0.006008409 -0.006145213 -0.006307723 -0.006490007 -0.006695446 -0.006923498 -0.00718337 -0.007480242 -0.007825082 -0.00822396
 -0.008686101 -0.009216432 -0.009817493 -0.01049212 -0.0112325 -0.01203917 -0.01289525 -0.0138 -0.01473211 -0.01569004
 -0.01662689 -0.01753436 -0.01830824 -0.01893465 -0.01927751 -0.01934262 -0.01906404 -0.01848539 -0.01765903 -0.01665187
 -0.0155837 -0.01451371 -0.01355227 -0.01272077 -0.01207084 -0.01159727 -0.01131064 -0.01119952 -0.01126646 -0.01148332
 -0.01185447 -0.01229886 -0.01281187 -0.01327654 -0.01368008 -0.01397612 -0.0141623 -0.014275 -0.01431641 -0.01432205
 -0.01429171 -0.0142425 -0.01417276 -0.01408725 -0.01398195 -0.01384836 -0.01368831 -0.01349793 -0.0132884 -0.01307129
 -0.01285204 -0.01264068 -0.01243108 -0.01222163 -0.01201068 -0.0117945 -0.01158573 -0.01138573 -0.01120939 -0.01105957
 -0.01094207 -0.01085802 -0.0108048 -0.01078225 -0.01078149 -0.0108016 -0.01082935 -0.01086366 -0.0108911 -0.01091223
 -0.01092074 -0.01092015 -0.01091467 -0.01090881 -0.01091212 -0.01092554 -0.01095458 -0.01099607 -0.01104905 -0.01111186
 -0.0111828 -0.01126341 -0.0113547 -0.01145409 -0.01156229 -0.01167023 -0.01177652 -0.01187539 -0.01196564 -0.01205297
 -0.01213767 -0.01222957 -0.0123287 -0.01243835 -0.01255755 -0.01268258 -0.01281257 -0.01294271 -0.01307244 -0.01319834
 -0.01331974 -0.01343379 -0.01354101 -0.01364014 -0.01373426 -0.01382498 -0.0139157 -0.01400939 -0.01410498 -0.0142036
 -0.0142999 -0.01439259 -0.01447903 -0.01455795 -0.01463376 -0.0147065 -0.01478349 -0.01486512 -0.01495576 -0.01505512
 -0.01516116 -0.01527243 -0.01537958 -0.01548112 -0.01556586 -0.01563568 -0.0156879 -0.01572883 -0.01576761 -0.01580863
 -0.01586222 -0.01592446 -0.01599694 -0.01607114 -0.01614206 -0.0162074 -0.0162635 -0.01631796 -0.01637138 -0.01643327
 -0.01650584 -0.01659027 -0.01668742 -0.0167891 -0.0168949 -0.01699585 -0.01709188 -0.01718028 -0.01726158 -0.01733763
 -0.0174085 -0.01747541 -0.01753802 -0.01759586 -0.01764917 -0.01769784 -0.01774302 -0.01778552 -0.01782766 -0.01787127
 -0.0179187 -0.01797246 -0.01803076 -0.01809435 -0.01815736 -0.01821806 -0.01827477 -0.01832596 -0.01837939 -0.01843546
 -0.01850309 -0.01858283 -0.01867366 -0.01877494 -0.01887741 -0.01898072 -0.0190777 -0.01916926 -0.01925468 -0.0193352
 -0.0194136 -0.01949014 -0.0195668 -0.01964255 -0.01971681 -0.01978924 -0.01985882 -0.01992732 -0.01999527 -0.02006461
 -0.02013684 -0.02021004 -0.02028454 -0.02035544 -0.02042168 -0.02048239 -0.02053696 -0.02059141 -0.02064605 -0.0207079
 -0.02077681 -0.02085255 -0.02093418 -0.02101546 -0.0210964 -0.02117321 -0.02124778 -0.02132314 -0.02140025 -0.021483
 -0.02156918 -0.02165803 -0.02174665 -0.02183169 -0.02191405 -0.02199274 -0.02207124 -0.02215089 -0.02223307 -0.02231898
 -0.02240563 -0.02249293 -0.02257655 -0.02265587 -0.02273053 -0.02280045 -0.02287129 -0.02294337 -0.02302286 -0.02310904
 -0.02320072 -0.02329632 -0.02338887 -0.02347852 -0.02356163 -0.02364049 -0.02371749 -0.02379403 -0.0238731 -0.02395399
 -0.02403696 -0.02412164 -0.02420768 -0.02429558 -0.02438592 -0.02447699 -0.02456896 -0.02465765 -0.02474213 -0.02482136
 -0.02489469 -0.02496779 -0.02504094 -0.02512201 -0.02521101 -0.02530955 -0.02541659 -0.02552609 -0.02563761 -0.02574572
 -0.02585202 -0.02595768 -0.02606439 -0.02617619 -0.02629239 -0.02641434 -0.02653932 -0.02666568 -0.02679105 -0.02691362
 -0.0270323 -0.02714632 -0.02725509 -0.02735831 -0.02745565 -0.02754679 -0.0276332 -0.02771467 -0.02779648 -0.0278789
 -0.027969 -0.02806679 -0.02817385 -0.02828906 -0.02840576 -0.02852332 -0.02863508 -0.02874283 -0.02884759 -0.02895152
 -0.02905954 -0.02917095 -0.02928735 -0.02940618 -0.02952593 -0.02964444 -0.02976014 -0.02987165 -0.02997787 -0.03007919
 -0.03017477 -0.03026924 -0.03036289 -0.03046201 -0.0305675 -0.03068111 -0.03080308 -0.03092876 -0.03105783 -0.03118444
 -0.03130865 -0.03142804 -0.03154285 -0.03165289 -0.03175817 -0.03185838 -0.03195426 -0.03204608 -0.03213702 -0.03223079
 -0.0323306 -0.03244168 -0.03256137 -0.03269113 -0.03282252 -0.03295225 -0.03307588 -0.03319024 -0.03330097 -0.03340828
 -0.03351956 -0.03363616 -0.03375618 -0.03387967 -0.03399805 -0.03411107 -0.0342138 -0.03430707 -0.03439384 -0.03447543
 -0.03455846 -0.0346438 -0.03473732 -0.03483839 -0.0349495 -0.03506732 -0.03518951 -0.03531115 -0.03542687 -0.03553491
 -0.03563109 -0.03572144 -0.03580626 -0.0358954 -0.03599197 -0.03610024 -0.03622247 -0.03635288 -0.0364916 -0.03662778
 -0.03676075 -0.03688217 -0.03699186 -0.0370868 -0.03716772 -0.03723764 -0.0372983 -0.03735809 -0.03741839 -0.03748785
 -0.0375649 -0.03765154 -0.03774349 -0.03783603 -0.03792658 -0.03801021 -0.03808971 -0.03816464 -0.03824036 -0.03831962
 -0.03840308 -0.0384925 -0.03858201 -0.03867105 -0.03875345 -0.03882809 -0.03889536 -0.03895511 -0.03901245 -0.03906754
 -0.03912389 -0.03918107 -0.03923808 -0.03929409 -0.03934504 -0.03939088 -0.03942884 -0.03946076 -0.0394882 -0.03951394
 -0.03954215 -0.03957424 -0.03961321 -0.03965819 -0.03970988 -0.03976599 -0.03982647 -0.03988663 -0.03994577 -0.03999757
 -0.04004062 -0.04007203 -0.04009089 -0.04010082 -0.0401019 -0.04010129 -0.04009936 -0.04010269 -0.04011111 -0.04012689
 -0.04014863 -0.04017181 -0.04019545 -0.04021345 -0.04022861 -0.0402422 -0.0402597 -0.0402898 -0.04033249 -0.0403934
 -0.04046246 -0.0405367 -0.04060295 -0.04065423 -0.04068615 -0.0406945 -0.04068677 -0.04066288 -0.04063445 -0.04060274
 -0.04057638 -0.04055605 -0.04054615 -0.04054682 -0.04056046 -0.04058662 -0.04062382 -0.04067016 -0.04071687 -0.04076245
 -0.04079721 -0.0408236 -0.04084133 -0.04085382 -0.04086706 -0.04087821 -0.04088746 -0.04088997 -0.0408807 -0.04086448
 -0.04084105 -0.04081951 -0.04080366 -0.04079293 -0.04078878 -0.04078265 -0.04077357 -0.04075679 -0.04073178 -0.04070046
 -0.04066305 -0.04062405 -0.04058368 -0.04054587 -0.04051026 -0.04047763 -0.04044709 -0.04041623 -0.04038525 -0.04035325
 -0.04032099 -0.04028964 -0.04025793 -0.04022541 -0.04018991 -0.04014938 -0.04010471 -0.04005554 -0.04000388 -0.03995039
 -0.03989565 -0.03983982 -0.03978352 -0.03972693 -0.03966957 -0.03961144 -0.03955013 -0.03948583 -0.03942287 -0.03936287
 -0.03932114 -0.03929787 -0.03930447 -0.03933473 -0.03937972 -0.0394281 -0.03945325 -0.03945069 -0.03939913 -0.03931198
 -0.03919141 -0.03905794 -0.03892662 -0.03880464 -0.03870153 -0.03860674 -0.03851961 -0.038428 -0.03832788 -0.0382226
 -0.03811125 -0.03800705 -0.03791088 -0.03783152 -0.03776918 -0.0377263 -0.03770154 -0.03768763 -0.03767943 -0.03765056
 -0.03759706 -0.03748969 -0.03733881 -0.03714819 -0.03693426 -0.03672279 -0.03651741 -0.03633095 -0.03616117 -0.03600939
 -0.03587605 -0.03576331 -0.03566422 -0.03557972 -0.03549114 -0.03539506 -0.03527835 -0.03513821 -0.03497577 -0.03479086
 -0.03458725 -0.03436523 -0.03413051 -0.03388423 -0.03363846 -0.03339383 -0.0331598 -0.03293557 -0.03272342 -0.03252313
 -0.03233667 -0.03216046 -0.03199289 -0.0318238 -0.03164228 -0.03144424 -0.0312203 -0.03098257 -0.03073353 -0.03048537
 -0.03024396 -0.03000765 -0.02977758 -0.0295476 -0.02931699 -0.0290827 -0.0288445 -0.02859932 -0.02834687 -0.02808194
 -0.02780329 -0.02749865 -0.0271663 -0.02678896 -0.02637207 -0.02591951 -0.02544362 -0.02497293 -0.02450884 -0.0240689
 -0.02363953 -0.0232138 -0.0227815 -0.02233104 -0.0218676 -0.02138986 -0.02090698 -0.02042316 -0.01993657 -0.0194506
 -0.01894327 -0.01841514 -0.01781879 -0.01715039 -0.01638334 -0.01551854 -0.01460474 -0.01364487 -0.01269056 -0.01173057
 -0.01074163 -0.009708771 -0.008571993 -0.007334382 -0.005967514 -0.004495866 -0.002937868 -0.001323492 0.0003119602 0.001950716
 0.003563302 0.00517004 0.006763027 0.008403362 0.01011425 0.01190834 0.01380783 0.01570668 0.01759481 0.01938329
 0.0210612 0.02266426 0.02419446 0.02570435 0.02718985 0.02863255 0.03003142 0.03136404 0.03265008 0.033936
 0.03523944 0.03662881 0.03808214 0.03960115 0.04115232 0.04269322 0.04423615 0.0457706 0.0473333 0.04894113
 0.05060802 0.05234305 0.0541425 0.05599662 0.05796576 0.0600433 0.06241259 0.06508958 0.06816581 0.07163574
 0.07519726 0.07883251 0.08223157 0.08544141 0.08852433 0.09153141 0.09465468 0.09789762 0.1013547 0.1050213
 0.108901 0.1130736 0.1175731 0.122603 0.1283093 0.1348281 0.1423512 0.1505554 0.1594574 0.1684007
 0.1772354 0.1856293 0.193495 0.2009023 0.2078423 0.2145453 0.2210282 0.2276856 0.2345551 0.2422003
 0.2505584 0.259725 0.2694122 0.2787183 0.2876066 0.29546 0.3026447 0.309437 0.3161067 0.3230644
 0.3303138 0.337993 0.3460006 0.3543123 0.3628891 0.3717411 0.3807121 0.3897901 0.3987329 0.407487
 0.4160942 0.4245525 0.4329599 0.4413105 0.4492337 0.4566923 0.4631568 0.4686582 0.4730782 0.4764596
 0.4788885 0.480347 0.4807861 0.4803192 0.4790433 0.4771844 0.4750316 0.472639 0.4701133 0.4675124
 0.4648637 0.4622998 0.4598986 0.4575996 0.4554448 0.4531099 0.4505726 0.447433 0.4436455 0.439165
 0.4339994 0.4286873 0.4232439 0.4180487 0.4130331 0.4080462 0.4030346 0.3977312 0.3921791 0.3863016
 0.380257 0.3742329 0.3683765 0.3629354 0.3578906 0.3533168 0.3491198 0.3452489 0.3417305 0.338542
 0.3358154 0.3335859 0.3318791 0.3307137 0.3299935 0.3297119 0.3298042 0.3302685 0.3311156 0.3323469
 0.3339809 0.3360105 0.3384092 0.3411664 0.3442316 0.3476053 0.3512591 0.3552101 0.3594684 0.3640565
 0.3690026 0.3743163 0.380017 0.386094 0.3925483 0.3993646 0.406537 0.4140625 0.4219471 0.4301471
 0.4386726 0.447351 0.4561725 0.464927 0.4736063 0.4822112 0.4907544 0.499411 0.5081263 0.5167437
 0.525126 0.5326917 0.539489 0.5452892 0.5503187 0.5548585 0.5589628 0.5628344 0.5663361 0.5694068
 0.572018 0.5741168 0.5757927 0.5770863 0.5779609 0.5784326 0.5783515 0.5776815 0.5764754 0.5747316
 0.5725669 0.569985 0.5669096 0.5633386 0.5592155 0.5545599 0.549451 0.5438986 0.5380235 0.5317144
 0.5248794 0.5171858 0.5080286 0.4973642 0.4845766 0.4708238 0.4567514 0.4432162 0.4310636 0.4196846
 0.4090477 0.3985968 0.388116 0.3777862 0.3675858 0.3578838 0.3487257 0.3400783 0.3319384 0.3240069
 0.3162792 0.3085961 0.300988 0.293537 0.2862646 0.2792978 0.272607 0.2661934 0.2600127 0.2539922
 0.2481196 0.2423682 0.2366941 0.2311095 0.2254034 0.2195003 0.2131418 0.2060975 0.1988118 0.1912402
 0.1844159 0.178562 0.1736881 0.1698496 0.1663393 0.1631239 0.1597653 0.1562805 0.1527182 0.1491219
 0.1457695 0.1426425 0.1398259 0.1372751 0.1349078 0.1327555 0.130815 0.1291666 0.1279103 0.127053
 0.1266462 0.1266263 0.1269716 0.1276422 0.1286127 0.1298937 0.1314703 0.1334297 0.1357667 0.1386911
 0.1422249 0.1464855 0.1514755 0.1567305 0.1622001 0.1671258 0.1715278 0.175123 0.1779853 0.1802145
 0.1818584 0.1830569 0.1838657 0.1844071 0.1847851 0.1851377 0.1855944 0.1863161 0.1872991 0.1886346
 0.1900846 0.1915777 0.192974 0.1942014 0.1953482 0.1964141 0.1975122 0.1986557 0.19987 0.2011563
 0.2024587 0.2037745 0.2050506 0.2062971 0.2075356 0.2087919 0.2101639 0.211672 0.2134201 0.2153907
 0.2176002 0.2200308 0.2226479 0.2255058 0.2286244 0.2320795 0.2359294 0.2401657 0.24481 0.2497856
 0.2550665 0.2606635 0.2665572 0.2729156 0.2797558 0.2871704 0.2951635 0.3033679 0.3117416 0.3196426
 0.3270728 0.3337171 0.3396145 0.3447625 0.3491277 0.3526521 0.3552426 0.356712 0.3570338 0.3560763
 0.35394 0.3506393 0.346329 0.3410882 0.3350372 0.3282281 0.3207572 0.3126237 0.3040654 0.2950819
 0.2861447 0.2772955 0.2689097 0.2610092 0.2535643 0.2465584 0.2397576 0.2331692 0.2267066 0.2204161
 0.2144252 0.2087485 0.2035025 0.1986329 0.1941117 0.189868 0.1858114 0.1818972 0.1780596 0.1742882
 0.1705533 0.1668843 0.1632809 0.1597904 0.1564291 0.153202 0.150119 0.1471235 0.1442111 0.1413322
 0.1384839 0.13571 0.1330197 0.1305457 0.1282934 0.1263669 0.1247508 0.1234458 0.1224325 0.1216634
 0.1211326 0.12081 0.120694 0.1207774 0.1210423 0.1214844 0.1220513 0.1227268 0.1234263 0.1241227
 0.1247285 0.1252198 0.1255304 0.125647 0.1255269 0.1251633 0.1245531 0.1236957 0.1226493 0.12142
 0.1201027 0.1187054 0.1173214 0.1159606 0.1147064 0.1135658 0.1126007 0.1118033 0.1111918 0.1107465
 0.1104516 0.1102909 0.1102474 0.1103083 0.1104666 0.1107007 0.1110049 0.1113492 0.1117269 0.1121102
 0.1124945 0.112856 0.1131921 0.1134838 0.1137298 0.1139247 0.1140691 0.1141719 0.1142343 0.1142689
 0.114275 0.1142587 0.1142161 0.1141422 0.114031 0.1138699 0.1136561 0.1133798 0.1130447 0.1126496
 0.1122013 0.1117019 0.1111624 0.110584 0.1099895 0.1093826 0.1087929 0.1082262 0.1076996 0.1072161
 0.106774 0.1063733 0.1060096 0.105683 0.1053986 0.1051576 0.1049707 0.1048387 0.1047705 0.1047666
 0.1048319 0.104968 0.1051789 0.1054677 0.1058399 0.1062965 0.1068424 0.1074694 0.1081773 0.1089485
 0.109778 0.1106474 0.1115518 0.1124757 0.1134166 0.1143597 0.1153036 0.1162349 0.1171526 0.1180434
 0.1189064 0.1197261 0.1205017 0.1212193 0.121879 0.1224751 0.1230063 0.1234692 0.123857 0.1241583
 0.1243624 0.1244517 0.1244213 0.124259 0.1239718 0.1235578 0.1230331 0.1224021 0.1216817 0.1208766
 0.1199995 0.1190527 0.1180466 0.116982 0.1158705 0.1147129 0.1135216 0.112297 0.1110481 0.1097749
 0.1084819 0.1071689 0.1058374 0.1044879 0.1031215 0.1017426 0.100357 0.09897441 0.09760757 0.09626639
 0.09496418 0.09370325 0.0924902 0.09131821 0.09018736 0.08908641 0.0880131 0.08695609 0.08591286 0.08487795
 0.08384955 0.08283604 0.08183756 0.08087953 0.07996381 0.0791238 0.07836045 0.07769787 0.07713282 0.07666698
 0.07629387 0.07599738 0.07577449 0.07561041 0.07551081 0.07547478 0.07551369 0.07563554 0.07585218 0.07617172
 0.07660402 0.07715523 0.07782859 0.07862815 0.07954368 0.08057632 0.08170135 0.08291776 0.08419077 0.08551849
 0.08685865 0.08820868 0.08952347 0.09080146 0.09200825 0.09314684 0.09420796 0.09520105 0.09614367 0.09704767
 0.09794258 0.09883337 0.09974053 0.1006566 0.1015838 0.1025092 0.1034258 0.1043248 0.105202 0.1060485
 0.1068631 0.1076292 0.1083442 0.1089925 0.1095712 0.1100828 0.110527 0.1109318 0.1113 0.1116785
 0.1120711 0.1125272 0.1130481 0.113666 0.1143783 0.1151953 0.1161141 0.1171353 0.1182557 0.1194741
 0.1207812 0.1221714 0.123629 0.1251453 0.1267033 0.1282968 0.1299048 0.1315236 0.1331238 0.1347007
 0.1362267 0.1376977 0.1391008 0.140435 0.1417049 0.1429116 0.1440716 0.1451866 0.1462752 0.1473377
 0.1483846 0.1494164 0.1504373 0.151453 0.1524737 0.1535074 0.1545687 0.1556601 0.1567892 0.1579536
 0.1591545 0.1603865 0.1616504 0.1629307 0.164225 0.1655123 0.166787 0.1680443 0.1692816 0.1705136
 0.1717411 0.1729803 0.1742317 0.1755046 0.1767985 0.1781154 0.1794508 0.1807897 0.1821216 0.1834127
 0.1846501 0.1857962 0.1868391 0.1877498 0.1885186 0.1891265 0.1895725 0.1898488 0.1899647 0.1899208
 0.1897311 0.1893962 0.188942 0.1883678 0.1877296 0.1870302 0.1863469 0.1856848 0.1851093 0.1846224
 0.1842583 0.1840154 0.1838999 0.183908 0.1840281 0.1842572 0.1845807 0.1849987 0.1855061 0.1860984
 0.1867733 0.1875106 0.1882977 0.1891004 0.1898981 0.1906555 0.1913538 0.1919687 0.1924878 0.1929094
 0.1932283 0.1934664 0.1936249 0.1937284 0.1937787 0.1937866 0.1937525 0.1936857 0.1935887 0.1934841
 0.1933754 0.1932908 0.1932321 0.1932199 0.193252 0.193337 0.1934618 0.1936181 0.1937809 0.1939279
 0.1940326 0.1940758 0.1940306 0.1938872 0.1936037 0.1931705 0.1925378 0.1916925 0.1906186 0.189308
 0.1878025 0.186103 0.1842896 0.1823667 0.1804149 0.1784363 0.1764843 0.1745569 0.1726745 0.1708328
 0.1690323 0.1672653 0.1655223 0.1637868 0.1620365 0.1602499 0.1583986 0.1564745 0.1544608 0.1523692
 0.1501998 0.1479678 0.145678 0.1433392 0.1409533 0.138528 0.136064 0.1335713 0.1310502 0.1285169
 0.125973 0.1234514 0.1209554 0.1185277 0.1161678 0.1138988 0.1117135 0.109604 0.1075638 0.1055756
 0.1036402 0.1017509 0.09991272 0.09812865 0.09639986 0.09472978 0.09311207 0.09154616 0.0900214 0.08853467
 0.08707856 0.0856513 0.08424799 0.08286837 0.08150353 0.08015271 0.07881153 0.07748063 0.0761786 0.07490877
 0.07370718 0.07257496 0.07153748 0.07059086 0.06973784 0.0689728 0.06828701 0.06767465 0.06712454 0.06663281
 0.06618984 0.06580114 0.06546447 0.06519591 0.06500205 0.06489374 0.06487761 0.0649485 0.06510735 0.0653428
 0.06565353 0.06603285 0.06648057 0.06698389 0.0675411 0.0681129 0.06869346 0.06921744 0.0696796 0.07001939
 0.07024035 0.07031855 0.07026638 0.0700954 0.06981918 0.06945945 0.06902906 0.06854444 0.0680231 0.06747825
 0.06692998 0.06638917 0.06587173 0.06538327 0.06493847 0.06453967 0.06420532 0.06393775 0.06375162 0.06364842
 0.06363126 0.06370009 0.06385032 0.06408096 0.06438276 0.06475282 0.06517378 0.06564182 0.06613673 0.06665684
 0.06718987 0.06773448 0.06828553 0.06883752 0.06938385 0.06991951 0.07043719 0.07094206 0.07143349 0.07192153
 0.07241176 0.07289785 0.07338329 0.07383685 0.0742562 0.07460588 0.07488239 0.07507738 0.07519141 0.07525158
 0.07526132 0.07526203 0.0752553 0.07527099 0.07530687 0.07537233 0.07546375 0.07557812 0.07571343 0.07586549
 0.07603374 0.07621621 0.0764128 0.07662248 0.07684688 0.07708576 0.0773434 0.07762118 0.07792145 0.07824579
 0.07858967 0.078953 0.07932927 0.07971794 0.08011592 0.08052301 0.08093572 0.08135302 0.08176388 0.08216704
 0.08254889 0.08291245 0.08325653 0.08359204 0.0839394 0.08430981 0.08473187 0.08519884 0.08572114 0.08626888
 0.08682633 0.08736751 0.08787147 0.08834524 0.0887831 0.08921289 0.08964038 0.09007952 0.09053432 0.09099789
 0.09147016 0.09194145 0.09241135 0.09287506 0.09333251 0.09378117 0.09422098 0.09465023 0.09506895 0.09547588
 0.09587196 0.09625761 0.09663592 0.0970116 0.09738638 0.09776432 0.09814376 0.09852325 0.09890662 0.09929322
 0.09969465 0.1001156 0.1005582 0.1010253 0.1015059 0.1019982 0.1024995 0.1030089 0.1035356 0.1040799
 0.1046425 0.1052228 0.1058139 0.1064168 0.1070343 0.1076678 0.1083243 0.1090014 0.1096984 0.1104106
 0.1111342 0.1118556 0.1125656 0.1132363 0.1138445 0.1143759 0.1148079 0.1151763 0.1154811 0.1157856
 0.1161046 0.1164716 0.1168958 0.1173686 0.1178908 0.1184396 0.1190137 0.1195892 0.120165 0.1207195
 0.1212538 0.1217606 0.122243 0.1227075 0.1231542 0.1235874 0.1240038 0.1243996 0.1247753 0.1251271
 0.1254667 0.1257981 0.1261408 0.1265065 0.1269018 0.1273362 0.1277866 0.1282512 0.1286996 0.1291253
 0.1295272 0.1299038 0.1302719 0.1306321 0.1309821 0.1313215 0.1316392 0.131941 0.1322471 0.1325697
 0.1329589 0.1334213 0.1339998 0.134684 0.1354841 0.1363681 0.1373119 0.1382752 0.1392222 0.1401289
 0.1409751 0.1417506 0.142451 0.143057 0.1435625 0.1439606 0.1442442 0.1444609 0.1446122 0.1447728
 0.1449459 0.1451704 0.1454445 0.1457654 0.1461303 0.1465239 0.1469436 0.1473737 0.1478134 0.1482536
 0.1486935 0.1491335 0.1495576 0.1499567 0.150295 0.1505442 0.1506826 0.1506846 0.150574 0.1503468
 0.1500574 0.1497145 0.1493737 0.1490435 0.1487638 0.1485396 0.1483765 0.1482748 0.1482149 0.1481973
 0.1482216 0.1482902 0.1484206 0.1486044 0.148826 0.1490719 0.1492998 0.1495143 0.1497008 0.1498756
 0.1500494 0.1502383 0.1504454 0.1507213 0.1510797 0.1516033 0.1523458 0.1532511 0.1543428 0.1553966
 0.1563722 0.1572101 0.1578949 0.1585261 0.1591079 0.1597023 0.1603054 0.1608953 0.1614607 0.1619311
 0.1622963 0.1624844 0.1624978 0.1623014 0.1619162 0.1613577 0.1606466 0.1598123 0.1588617 0.1578027
 0.1566568 0.1554267 0.1541648 0.1528848 0.1516434 0.150454 0.149362 0.1483759 0.1475246 0.1468138
 0.1462238 0.1457533 0.1453239 0.1449307 0.1444908 0.1440056 0.1434372 0.1427926 0.1420722 0.1412875
 0.1404611 0.1396081 0.1387646 0.1379313 0.1371284 0.1363328 0.1355319 0.1347127 0.1338599 0.1329878
 0.1320959 0.131205 0.1303162 0.1294633 0.1286483 0.1279245 0.1272974 0.1267994 0.1264322 0.1261947
 0.1260864 0.1261052 0.1262473 0.1264962 0.1268377 0.1272149 0.127619 0.1279981 0.128361 0.1286999
 0.1290218 0.1293322 0.1296339 0.1299238 0.130227 0.1305507 0.1309327 0.1313913 0.1319328 0.1325658
 0.1332664 0.1340324 0.1348441 0.1356994 0.1365915 0.13752 0.1384861 0.1394888 0.1405231 0.1415787
 0.1426013 0.1435681 0.1443706 0.1449998 0.1453739 0.1455161 0.1454254 0.1451309 0.1446653 0.1440444
 0.143284 0.1424132 0.1414427 0.1404229 0.1393727 0.1383305 0.1373113 0.1363204 0.1353628 0.1344191
 0.133488 0.1325533 0.1316143 0.1306967 0.1298043 0.128997 0.1282724 0.1276534 0.1271264 0.1266546
 0.1262305 0.1258191 0.125418 0.1250158 0.1245926 0.1241218 0.123592 0.1229734 0.1223067 0.1216027
 0.1209047 0.1202441 0.1195843 0.1189291 0.1182042 0.1173929 0.1164927 0.1154974 0.1144802 0.1134448
 0.1124502 0.1114943 0.1105665 0.1096605 0.1087307 0.1077837 0.1068112 0.1058376 0.1049193 0.1040639
 0.1033242 0.1026552 0.1020315 0.1014006 0.1007 0.09994621 0.09911847 0.09828924 0.09748086 0.09674226
 0.09609506 0.09553291 0.09506098 0.09464356 0.09427826 0.09392941 0.09359486</values></Ydata></AB><ScSm><Ydata ylabel="Single channel"><values byteorder="INTEL" format="FLOAT32" numvalues="1814"> 0.07036152 0.07035927 0.07042474 0.07058293 0.07079866 0.07100259 0.07114232 0.07121131 0.07122658 0.07119302
 0.07111858 0.07105869 0.07109874 0.07127111 0.07150835 0.07168877 0.07173036 0.07166322 0.07161725 0.07169732
 0.07184158 0.07183461 0.07150816 0.07093243 0.07037244 0.07004277 0.06997077 0.07014805 0.07066326 0.07145636
 0.07203891 0.0718423 0.07093316 0.07004778 0.06977603 0.06999528 0.07021314 0.07013736 0.06976698 0.06927816
 0.06907269 0.06967247 0.07120652 0.07298399 0.07374176 0.0724453 0.06903133 0.06463817 0.06117902 0.06031223
 0.06227396 0.06555615 0.06804076 0.06868716 0.06802314 0.0670657 0.06622498 0.06544932 0.06494442 0.06520346
 0.06632854 0.06758066 0.06777109 0.06628324 0.06380594 0.06183744 0.06131807 0.06204614 0.06348923 0.06536379
 0.06681553 0.06594905 0.06169341 0.05616859 0.05374078 0.056869 0.06348164 0.06900443 0.07043152 0.06801238
 0.06392254 0.06045672 0.05916506 0.06044227 0.06345557 0.06683182 0.0694896 0.07069805 0.06989513 0.0671724
 0.06375566 0.0614145 0.06137391 0.06383119 0.06791689 0.07177652 0.07341114 0.0721525 0.06910858 0.06599316
 0.06399557 0.06378429 0.06567911 0.06932065 0.0736457 0.07749873 0.08010168 0.08114089 0.08083814 0.07980493
 0.07857309 0.07751107 0.07715148 0.07786269 0.07898927 0.07910045 0.07754548 0.07531665 0.07402608 0.07423706
 0.07501194 0.07505462 0.0740244 0.07233278 0.06986881 0.06596636 0.06094427 0.05652203 0.05410455 0.05370855
 0.05497748 0.05773506 0.06079897 0.06191421 0.06022516 0.05785085 0.0577907 0.06072283 0.06465202 0.06733266
 0.06834073 0.0689165 0.07037288 0.07276048 0.07469007 0.07438309 0.07143947 0.06782808 0.06648613 0.06843421
 0.07179895 0.07411671 0.07492805 0.07550873 0.0766377 0.07739477 0.07612945 0.07242556 0.06814501 0.06627554
 0.06833249 0.07284187 0.07641354 0.07626332 0.07208636 0.06609842 0.06129973 0.05940608 0.06038965 0.06362034
 0.06855292 0.0741498 0.07859711 0.08032019 0.0791434 0.07618657 0.07259631 0.0685089 0.06364204 0.05899399
 0.05705392 0.05944479 0.06483904 0.07006232 0.07293175 0.07334873 0.07206042 0.06931302 0.06503698 0.06008328
 0.0566279 0.05649194 0.05895562 0.06116093 0.06110004 0.05944259 0.05807359 0.05774155 0.05778164 0.05753899
 0.057283 0.05771352 0.05895095 0.06025957 0.06076432 0.06025704 0.05922874 0.05829244 0.05763814 0.05691209
 0.05571321 0.05436845 0.05391552 0.05496135 0.0568449 0.05832395 0.05883197 0.05868019 0.05823212 0.05729057
 0.05540873 0.05274223 0.0504002 0.04962686 0.05059446 0.05229299 0.05358662 0.054033 0.05376734 0.05308951
 0.05226448 0.05143307 0.05065278 0.05008431 0.04995462 0.0502276 0.05053227 0.05053667 0.05021461 0.04968571
 0.0489914 0.04813093 0.04720929 0.04644558 0.04601986 0.04593046 0.04602457 0.04614176 0.04616721 0.04599099
 0.04555036 0.04492623 0.04429208 0.04375368 0.04331374 0.04297456 0.04277515 0.04271084 0.04268668 0.04258737
 0.04237027 0.04206955 0.04172864 0.04135961 0.04096723 0.04058422 0.04026745 0.04005683 0.03993119 0.03981781
 0.03967151 0.03952347 0.03940959 0.03928135 0.03905454 0.03872886 0.03839451 0.03812904 0.0379369 0.03777912
 0.03761547 0.03741129 0.03713509 0.03678285 0.03641531 0.03614249 0.03603783 0.03607914 0.03618806 0.036293
 0.03633821 0.03628692 0.03615139 0.03598229 0.03580673 0.03560813 0.035375 0.03514076 0.03496889 0.03490653
 0.0349431 0.03501293 0.03504954 0.03502941 0.03496221 0.03487146 0.03479315 0.034751 0.03471893 0.03464506
 0.03452129 0.03439768 0.03432339 0.03429553 0.03426789 0.03420065 0.03410348 0.03402649 0.0340033 0.03401639
 0.0340264 0.03401619 0.03399343 0.03396451 0.03391872 0.03383766 0.03372086 0.03359777 0.03350218 0.03343944
 0.03339368 0.03335885 0.03334255 0.03334353 0.03334236 0.03331652 0.03325986 0.03318667 0.03311371 0.03303839
 0.03294475 0.03283073 0.03271528 0.03261527 0.03252769 0.03243797 0.03233668 0.03222529 0.03210919 0.03198794
 0.0318557 0.03171005 0.03155397 0.03139113 0.03122967 0.03108772 0.03098019 0.03089882 0.03081619 0.03071087
 0.03058464 0.0304581 0.03035255 0.03027359 0.03021236 0.03016355 0.03013484 0.03013518 0.03016273 0.03020913
 0.03026762 0.03033451 0.03041284 0.03051837 0.03067105 0.0308731 0.0311008 0.03132417 0.03153212 0.03173479
 0.03194546 0.03216675 0.03239238 0.03261671 0.0328424 0.03307898 0.03332864 0.03357461 0.03379487 0.03398935
 0.03418104 0.03438812 0.03460883 0.03483458 0.03505928 0.03527208 0.03545996 0.0356268 0.03579624 0.03598627
 0.03619057 0.03639333 0.03659397 0.03680544 0.03703219 0.0372629 0.03748877 0.03771992 0.03797577 0.03826071
 0.03855449 0.03882909 0.03907657 0.03932007 0.03959543 0.03992016 0.04027916 0.04063775 0.04096897 0.04127304
 0.04157172 0.0418824 0.04220372 0.04253212 0.04288049 0.04326362 0.04367151 0.04407594 0.04446192 0.04483746
 0.04521418 0.04559421 0.04597669 0.04636463 0.04676104 0.04716344 0.04756436 0.04795587 0.0483343 0.04870206
 0.04906547 0.0494331 0.04981273 0.05020114 0.05057666 0.05091479 0.05121888 0.05152335 0.0518556 0.05220344
 0.05253413 0.05283837 0.05313807 0.05345226 0.05377534 0.05409462 0.0544129 0.05474181 0.05508207 0.05541927
 0.05573231 0.05600186 0.05622143 0.05640756 0.05659126 0.0567958 0.05703093 0.05730396 0.05761559 0.0579419
 0.0582412 0.05848783 0.05868855 0.05886816 0.05905405 0.05927033 0.05952618 0.0598062 0.06008136 0.06032744
 0.06053405 0.06071403 0.06091074 0.06117254 0.0615058 0.06187063 0.06223425 0.06260677 0.06300859 0.06342624
 0.06382808 0.06421324 0.06461294 0.06503949 0.06545955 0.06582892 0.06613411 0.06638908 0.06661506 0.06684349
 0.067119 0.0674689 0.0678723 0.06827684 0.06864195 0.06895477 0.0692153 0.06942599 0.06959674 0.06974635
 0.06989309 0.07004642 0.07021053 0.07039396 0.07060886 0.07085286 0.07109308 0.0712779 0.07136732 0.07134575
 0.07120827 0.0709526 0.07059223 0.07016063 0.06968436 0.06915531 0.06854174 0.06782366 0.06700709 0.06610876
 0.06514185 0.06412016 0.06306933 0.06203354 0.0610769 0.06027668 0.05970744 0.05942571 0.05946068 0.05980107
 0.06037708 0.06105841 0.06168331 0.06210109 0.06220319 0.06194074 0.06133521 0.0604712 0.05946286 0.05841312
 0.05739275 0.05643866 0.05555972 0.05475525 0.05404855 0.05351004 0.05324721 0.05338037 0.05403084 0.05530296
 0.05722532 0.05967727 0.06238445 0.06502272 0.06736004 0.06932484 0.07096929 0.07239074 0.07367583 0.07487564
 0.07600029 0.07703552 0.07796992 0.07880409 0.07953615 0.08015154 0.08062965 0.08095472 0.08112445 0.08116154
 0.08111919 0.08106805 0.08107342 0.08117588 0.08137375 0.08160955 0.08177938 0.08177187 0.08151241 0.0809854
 0.08023517 0.07937504 0.07862742 0.07835558 0.07898378 0.0807704 0.08359057 0.08695273 0.09026763 0.09313341
 0.09542324 0.09719632 0.09858091 0.09970786 0.1006811 0.101567 0.1023985 0.1031873 0.1039343 0.1046401
 0.1053113 0.1059574 0.1065838 0.1071907 0.1077752 0.1083344 0.1088716 0.1094008 0.1099412 0.110503
 0.1110788 0.1116495 0.1122012 0.1127354 0.1132616 0.1137835 0.1142974 0.1148007 0.1152958 0.1157867
 0.1162781 0.1167732 0.1172665 0.1177415 0.1181848 0.1186004 0.1190048 0.1194095 0.1198151 0.1202203
 0.1206284 0.1210406 0.121452 0.1218588 0.1222659 0.1226784 0.1230856 0.1234664 0.1238128 0.1241405
 0.1244732 0.1248216 0.1251803 0.1255406 0.1259028 0.1262793 0.1266837 0.1271149 0.1275513 0.1279652
 0.1283451 0.128702 0.1290547 0.1294153 0.1297873 0.1301732 0.1305726 0.1309749 0.1313636 0.1317307
 0.1320843 0.1324378 0.1327964 0.133155 0.133507 0.1338522 0.1341957 0.1345416 0.1348924 0.1352527
 0.1356276 0.1360123 0.1363886 0.1367388 0.1370609 0.1373696 0.1376826 0.1380094 0.1383489 0.1386942
 0.1390392 0.1393823 0.1397251 0.1400701 0.1404174 0.1407648 0.141109 0.1414509 0.1417957 0.1421455
 0.1424953 0.14284 0.1431804 0.1435173 0.1438456 0.1441623 0.1444754 0.1447996 0.14514 0.1454861
 0.1458217 0.1461396 0.146446 0.1467532 0.1470704 0.1473999 0.1477371 0.1480723 0.1483962 0.1487076
 0.1490135 0.1493231 0.1496424 0.1499691 0.1502929 0.1506028 0.150899 0.1511924 0.1514946 0.1518099
 0.1521347 0.1524609 0.1527819 0.1530963 0.1534061 0.1537109 0.1540095 0.1543025 0.1545912 0.154878
 0.1551694 0.1554713 0.1557802 0.1560866 0.1563851 0.1566759 0.1569601 0.157241 0.1575268 0.1578264
 0.1581419 0.1584664 0.1587881 0.1590983 0.1593965 0.159685 0.1599649 0.1602396 0.1605183 0.1608091
 0.1611119 0.1614194 0.1617202 0.1620052 0.1622767 0.162548 0.1628285 0.1631152 0.1633989 0.1636721
 0.1639354 0.1641992 0.1644758 0.1647634 0.1650489 0.1653267 0.1656038 0.1658876 0.1661781 0.1664708
 0.1667607 0.1670471 0.1673342 0.1676226 0.1679053 0.1681805 0.1684569 0.1687423 0.1690374 0.1693408
 0.1696479 0.1699477 0.170233 0.1705075 0.1707794 0.1710539 0.1713327 0.1716125 0.1718855 0.1721508
 0.1724158 0.1726863 0.1729626 0.1732438 0.1735242 0.1737944 0.1740541 0.174311 0.1745653 0.1748104
 0.1750458 0.1752781 0.1755132 0.1757567 0.1760111 0.1762698 0.176526 0.1767811 0.1770364 0.1772892
 0.1775443 0.1778079 0.1780732 0.1783302 0.1785808 0.1788266 0.1790618 0.179289 0.179517 0.1797335
 0.179886 0.1798469 0.179327 0.1777753 0.1743611 0.1681304 0.1583863 0.145137 0.1292517 0.1121497
 0.09527487 0.07972163 0.06613424 0.05479506 0.04576499 0.03897221 0.03426629 0.03151211 0.03069308 0.03202243
 0.03606036 0.0433806 0.05332471 0.06290559 0.06797508 0.06649934 0.06050063 0.05421292 0.05056371 0.04975686
 0.05053464 0.05182562 0.05329772 0.05515554 0.05773704 0.06113286 0.06517775 0.06986637 0.07555126 0.08249501
 0.09033579 0.09823898 0.1056171 0.1125926 0.1197159 0.1273025 0.1350989 0.1425327 0.1491722 0.1549427
 0.1600246 0.164648 0.1689679 0.1730625 0.1769785 0.1807148 0.1841385 0.1869612 0.1888807 0.1898053
 0.1899597 0.1897613 0.189576 0.1895724 0.1897628 0.1901191 0.1906243 0.1912641 0.1920183 0.1928622
 0.1937662 0.1947003 0.1956407 0.1965635 0.1974404 0.1982524 0.1990005 0.1996962 0.2003466 0.2009518
 0.2015083 0.2020171 0.2024914 0.2029512 0.2034059 0.2038515 0.2042812 0.2046887 0.2050641 0.2054002
 0.2057024 0.2059863 0.2062663 0.2065485 0.2068307 0.2071051 0.207369 0.2076311 0.2079052 0.2081976
 0.2085008 0.2087995 0.2090835 0.2093559 0.2096268 0.2098987 0.2101658 0.2104259 0.2106843 0.2109459
 0.211212 0.2114837 0.2117603 0.2120377 0.2123122 0.2125839 0.2128547 0.2131268 0.2134025 0.2136821
 0.2139669 0.2142636 0.2145764 0.214895 0.2152044 0.2155018 0.2157932 0.2160814 0.2163711 0.2166699
 0.2169731 0.2172603 0.2175193 0.217763 0.2180197 0.2183109 0.2186353 0.2189713 0.2192968 0.219606
 0.2199033 0.2201923 0.2204746 0.2207503 0.2210222 0.2213099 0.221643 0.2220241 0.2224198 0.2228053
 0.223186 0.2235649 0.2239267 0.2242651 0.2245868 0.2248856 0.2251471 0.2253881 0.225668 0.226048
 0.2265313 0.2270444 0.2274966 0.227863 0.2281894 0.2285298 0.2289092 0.2293081 0.2296364 0.2297917
 0.2298175 0.2299401 0.2303598 0.2310429 0.2317808 0.2324064 0.2328987 0.2333216 0.2337229 0.2340876
 0.2343585 0.2345021 0.2345794 0.234752 0.2351709 0.2358228 0.2365265 0.2371165 0.2375725 0.2379498
 0.2382798 0.2385724 0.2387876 0.2387801 0.238452 0.2380364 0.2380403 0.2387545 0.23992 0.2409975
 0.2416979 0.2421314 0.242508 0.2428838 0.2432103 0.2433818 0.2431297 0.2421773 0.2407764 0.2398551
 0.240257 0.2418943 0.2438937 0.2454656 0.2464056 0.2469101 0.2472335 0.247514 0.2476694 0.2474112
 0.2465722 0.2455279 0.2450939 0.2457715 0.2471831 0.2484734 0.249182 0.2494862 0.2497345 0.2500559
 0.2502766 0.24989 0.2483447 0.2458611 0.2438432 0.243893 0.2462401 0.2494583 0.2518756 0.2530103
 0.2534353 0.2535469 0.2529878 0.2512899 0.2485765 0.2455212 0.2431276 0.2425685 0.2444125 0.2476736
 0.2503695 0.2514708 0.2517731 0.2525882 0.2541748 0.2557504 0.2565093 0.256243 0.2551979 0.2536388
 0.2517221 0.2498989 0.249166 0.2503627 0.253147 0.2561148 0.2581028 0.2590702 0.2594815 0.2589472
 0.2559518 0.2496723 0.2422604 0.2382576 0.2405836 0.2474777 0.2543977 0.2584921 0.260157 0.2608995
 0.2613162 0.2609278 0.2584594 0.2525473 0.2438954 0.236613 0.2354361 0.2410516 0.2493153 0.2551124
 0.2558507 0.2517371 0.2448397 0.2384702 0.2358472 0.2381395 0.2439402 0.2506613 0.2561034 0.2590445
 0.2592069 0.2571394 0.2541763 0.2521101 0.2519029 0.2522651 0.2506223 0.2463686 0.241883 0.2390365
 0.2362965 0.231562 0.2267509 0.226517 0.2321963 0.2395875 0.2436728 0.2436937 0.2422726 0.240646
 0.236573 0.2275834 0.2156469 0.207238 0.2076492 0.2155097 0.2240086 0.2275228 0.2260633 0.223331
 0.2217737 0.2201496 0.2154251 0.2068008 0.1976921 0.192885 0.1935112 0.1960502 0.1965108 0.1936781
 0.1877985 0.1791964 0.1703721 0.1668408 0.1724612 0.1846392 0.1963433 0.2018998 0.1991085 0.1879638
 0.171238 0.1559063 0.1497819 0.1546145 0.1640172 0.1693519 0.1666149 0.1571784 0.144013 0.1295377
 0.1166157 0.1089799 0.1089708 0.115115 0.1224547 0.1252372 0.1200959 0.1084645 0.09638719 0.0901806
 0.09092576 0.09392481 0.09399709 0.09011739 0.08467394 0.08018428 0.07774006 0.07707549 0.07696168 0.0762756
 0.07491292 0.07278283 0.06859649 0.0615822 0.05403831 0.0498838 0.05051576 0.05408107 0.05876697 0.06432524
 0.06983544 0.07265321 0.07142028 0.06875776 0.06908181 0.07394926 0.08067415 0.08551145 0.08734286 0.08792692
 0.08910626 0.09068204 0.09150514 0.09196987 0.09404528 0.09855139 0.1036782 0.1069818 0.1079137 0.1075815
 0.1068873 0.1058745 0.1043549 0.102282 0.0996981 0.09680099 0.0938952 0.09106089 0.08810344 0.08488674
 0.08135702 0.07715616 0.07172567 0.06524986 0.05920899 0.05529151 0.05368962 0.05315147 0.05274921 0.05248822
 0.05181585 0.04906326 0.04366066 0.0380189 0.03576513 0.03824658 0.04357063 0.04877821 0.05205813 0.052879
 0.0511593 0.04753307 0.0443532 0.04498401 0.05102624 0.06077452 0.07110261 0.08013123 0.08729431 0.09185611
 0.09294307 0.09103873 0.08849512 0.08824417 0.09210989 0.09993882 0.1094263 0.1164689 0.1171783 0.111926
 0.1074127 0.1116819 0.1253892 0.1403742 0.1487922 0.1511623 0.1529463 0.1560585 0.1579841 0.1580601
 0.1598972 0.1664128 0.1754489 0.181833 0.1818973 0.1749287 0.1626022 0.14921 0.140582 0.1396333
 0.143378 0.1464234 0.1463048 0.1431925 0.1366674 0.1270728 0.1190001 0.1185163 0.1260686 0.1355509
 0.1412709 0.1431634 0.1442871 0.1455537 0.1446727 0.1396826 0.1322054 0.1264216 0.1248908 0.1262658
 0.1274697 0.1268965 0.1245108 0.120102 0.1133869 0.1057205 0.100076 0.09854645 0.1003484 0.1027294
 0.1035829 0.1028636 0.1018094 0.1014782 0.1020766 0.1031393 0.1042625 0.1060221 0.1098599 0.1163676
 0.1240322 0.13065 0.1358142 0.1410137 0.1472803 0.1536636 0.1582642 0.1602402 0.1606455 0.1615994
 0.1646207 0.1693904 0.1739608 0.1764204 0.1767128 0.1768485 0.1790254 0.1834711 0.1883988 0.1919793
 0.1938252 0.1946062 0.1949745 0.1950726 0.1945077 0.1927229 0.1899828 0.1879666 0.1886313 0.1922748
 0.197194 0.2013291 0.2038265 0.2050051 0.2053668 0.2050138 0.2038922 0.2022745 0.2007839 0.1999414
 0.1998214 0.2001741 0.2007261 0.2012946 0.2017694 0.2021194 0.2023865 0.2026264 0.2028838 0.2032107
 0.20364 0.20413 0.2045981 0.2050347 0.2055294 0.2061429 0.2067911 0.2073062 0.2075753 0.2075481
 0.2071511 0.2063061 0.2050442 0.2035003 0.2017641 0.1998267 0.1977549 0.1958806 0.1947101 0.194564
 0.1952993 0.1964107 0.1973966 0.1980189 0.1982897 0.198335 0.1983077 0.198347 0.1985373 0.1988897
 0.1993706 0.1999443 0.2005894 0.2012903 0.2020302 0.2028052 0.2036376 0.204557 0.2055639 0.2066118
 0.207626 0.2085394 0.2093258 0.2100063 0.2106191 0.2111773 0.2116552 0.2120101 0.2122112 0.2122543
 0.2121634 0.2119735 0.2116998 0.2113195 0.210792 0.2100882 0.2091819 0.2080216 0.2065579 0.2048252
 0.2029628 0.2011205 0.1993629 0.1976812 0.1960571 0.1944797 0.1929241 0.1913566 0.1897591 0.1881338
 0.1864915 0.1848443 0.1832057 0.1815892 0.1800062 0.1784603 0.1769381 0.1754059 0.1738195 0.172138
 0.1703212 0.1683084 0.16601 0.1633347 0.1602239 0.1566589 0.1526589 0.1483032 0.1437491 0.1391982
 0.1348277 0.1307448 0.1269982 0.123622 0.1206612 0.1181606 0.116141 0.1145992 0.1135232 0.1129019
 0.1127308 0.1130068 0.1137012 0.114733 0.1159813 0.1173223 0.1186431 0.119844 0.1208716 0.1217575
 0.1226018 0.1235028 0.1244971 0.1255634 0.1266711 0.127805 0.1289382 0.1300049 0.1309256 0.1316516
 0.1321741 0.1325054 0.1326687 0.13269 0.1325864 0.132369 0.1320639 0.1317249 0.1314214 0.1312155
 0.131138 0.131182 0.1313221 0.1315385 0.1318206 0.1321535 0.1325077 0.1328467 0.1331512 0.1334421
 0.1337741 0.1342056 0.1347943 0.1356178 0.1367648 0.1382815 0.1401324 0.1422122 0.1443883 0.1465362
 0.1485591 0.1504008 0.1520624 0.153602 0.1550964 0.1565907 0.1580891 0.1595826 0.1610671 0.1625441
 0.1640177 0.1654794 0.1668879 0.1681872 0.1693523 0.170399 0.171348 0.1722049 0.1729752 0.1736765
 0.1743252 0.1749287 0.1754959 0.1760491 0.1766112 0.1771738 0.1776849 0.1780839 0.1783448 0.1784793
 0.1785083 0.1784376 0.1782449 0.1778814 0.1773004 0.1764943 0.1754855 0.1742881 0.1729061 0.1713749
 0.1697806 0.1682248 0.166773 0.165436 0.1641918 0.1630048 0.1618225 0.1605775 0.1592286 0.1577974
 0.1563456 0.1549174 0.1535134 0.1521076 0.1506763 0.1492181 0.1477575 0.1463257 0.1449397 0.1436061
 0.1423332 0.141124 0.1399661 0.138849 0.1377928 0.1368504 0.1360742 0.1354765 0.1350184 0.1346396
 0.1342946 0.1339628 0.1336466 0.1333731 0.1331771 0.1330584 0.1329652 0.1328291 0.132612 0.1323192
 0.1319843 0.1316469 0.1313325 0.1310493 0.1307923 0.1305319 0.1301969 0.1296917 0.1289418 0.1279221
 0.12665 0.1251641 0.1235127 0.1217648 0.1200218 0.1183987 0.1169798 0.1158001 0.1148596 0.1141289
 0.1135453 0.1130407 0.1125933 0.1122412 0.1120363 0.1119726 0.1119538 0.1118499 0.1116135 0.1113333
 0.1111557 0.1111664 0.111348 0.1116155 0.1118708 0.1120501 0.1121442 0.1121771 0.1121678 0.1121081
 0.111965 0.1117049 0.1113291 0.1108795 0.1104046 0.1099306 0.1094549 0.1089488 0.1083803 0.1077486
 0.107074 0.1063516 0.1055548 0.1046763 0.1037181 0.1026712 0.1015756 0.1005822 0.09989286 0.09963407
 0.09978597 0.100195 0.1006675 0.1010931 0.101442 0.1016274 0.1015114 0.1011729 0.1010591 0.1016712
 0.1030681 0.1047764 0.1062016 0.1070496 0.1073468 0.107203 0.1066821 0.1058238 0.1046504 0.1031647
 0.1014088 0.0994743 0.09742903 0.0953242 0.0932743 0.09141909 0.08982616 0.08850166 0.08744101 0.08668464
 0.08634289 0.08615302 0.08475672 0.0804154 0.07366178 0.06848677 0.06898928 0.07478409 0.08127195 0.08451815
 0.08440271 0.08302364 0.08185393 0.08115044 0.0808619 0.08108541 0.08190104 0.08320074 0.08468345 0.08600493
 0.08698222 0.08760379 0.08783513 0.08744426 0.08594429 0.08274935 0.07765323 0.07126815 0.06482844 0.05947711
 0.05575991 0.05362557 0.05264829 0.05227706 0.05211522 0.05210403 0.05244356 0.0533333 0.05479628 0.05672773
 0.05901568 0.0615072 0.06390964 0.06590842 0.06742064 0.06859436 0.06953541 0.07016882 0.0703826 0.07017877
 0.0696539 0.06891976 0.06807104 0.06717459 0.06624867 0.06527137 0.0642674 0.06340063 0.06290118 0.0628486
 0.06309222 0.06342022 0.06372557 0.06399038 0.06421856 0.06442339 0.0646205 0.06483037 0.06510963 0.06551959
 0.06603383 0.06654029 0.06694911 0.06725009 0.06747726 0.06764045 0.06766676 0.06745754 0.06708048 0.06679198
 0.06670889 0.06657819 0.06609189 0.06535378 0.06481804 0.06479649 0.06518856 0.06566395 0.06596048 0.06601062
 0.06593542 0.06598782 0.0663828 0.06704711</values></Ydata></ScSm><ScRf><Ydata ylabel="Single channel"><values byteorder="INTEL" format="FLOAT32" numvalues="1820"> 0.06080164 0.06095033 0.06103875 0.06106687 0.0610588 0.06106166 0.06112605 0.06127251 0.06147305 0.06166597
 0.06179815 0.06185975 0.06187151 0.06184503 0.061785 0.06173152 0.06175752 0.06189784 0.06209934 0.06225589
 0.06229486 0.06224282 0.06221024 0.06228065 0.06239269 0.06235972 0.0620463 0.06152718 0.06103858 0.0607607
 0.06070598 0.06086262 0.06131298 0.06201109 0.06252981 0.06236502 0.06156769 0.06078018 0.06052357 0.06069873
 0.06088005 0.06081089 0.06048607 0.06005824 0.05988231 0.06041771 0.06177445 0.06334106 0.06400764 0.06286944
 0.05987367 0.05601672 0.05297295 0.05219971 0.05391387 0.05679739 0.05898365 0.05954772 0.05895338 0.05810613
 0.05737525 0.05670957 0.05627451 0.05649424 0.05746467 0.05855127 0.05871824 0.05742007 0.05525225 0.0535242
 0.05306155 0.05369232 0.05495472 0.05660073 0.05787746 0.05712055 0.05339277 0.04855582 0.04644051 0.0492046
 0.0550282 0.05988858 0.06113738 0.05899429 0.05538618 0.05234743 0.05123996 0.05238952 0.05504514 0.05800307
 0.06032977 0.06139334 0.06069884 0.05832144 0.05533154 0.05327864 0.05324059 0.05539652 0.05898379 0.06237122
 0.06380582 0.06270474 0.06003663 0.05729738 0.05553123 0.05533721 0.0570088 0.06023183 0.06406315 0.06747799
 0.06978832 0.07071594 0.07045507 0.06955203 0.06848992 0.06759599 0.06732169 0.06797063 0.06896128 0.06904551
 0.06766486 0.06569983 0.06456681 0.06475565 0.06543951 0.06548045 0.06458157 0.06310645 0.0609545 0.0575305
 0.05310971 0.04921306 0.04708953 0.04676065 0.04791855 0.05041337 0.05319217 0.054238 0.05277498 0.05067613
 0.05060636 0.05317967 0.05664295 0.05901773 0.05993404 0.06049111 0.06184527 0.06402808 0.06579642 0.06556689
 0.06298527 0.05981305 0.05868212 0.06050757 0.06360456 0.06576014 0.06656969 0.06719045 0.06832559 0.0691393
 0.06813281 0.06492727 0.06121299 0.05969765 0.06174449 0.06600691 0.06940612 0.0694077 0.06572835 0.06039865
 0.05618051 0.05465703 0.05581758 0.05911541 0.06406995 0.06970257 0.07428602 0.07631075 0.07557575 0.07311235
 0.07000366 0.06637922 0.06196958 0.05777275 0.05626953 0.05908768 0.06492373 0.07062494 0.07400088 0.0749212
 0.07409686 0.07173249 0.06772858 0.06299101 0.05986061 0.06029326 0.06349987 0.06639114 0.06680761 0.06548944
 0.06449379 0.06463698 0.0651839 0.06541951 0.06567712 0.06677097 0.06882659 0.07096861 0.07216233 0.07215026
 0.07150436 0.07096511 0.07076737 0.07046172 0.06954804 0.06846838 0.06855842 0.07057899 0.07366657 0.07622173
 0.07751784 0.07796787 0.0780452 0.07745083 0.07553647 0.07250607 0.06991586 0.06951981 0.07157263 0.07466578
 0.07719459 0.07851808 0.07881811 0.07851762 0.07798806 0.07743026 0.07694259 0.07678157 0.07729373 0.07842161
 0.07959238 0.08029005 0.0804766 0.0803367 0.07991497 0.07919417 0.07835536 0.07777318 0.07774665 0.07827741
 0.07912026 0.07999881 0.08070166 0.0810401 0.08091159 0.08044765 0.07994132 0.07958248 0.07938734 0.07937665
 0.07963704 0.08015311 0.08072594 0.08113819 0.08132683 0.08135467 0.08128603 0.08114067 0.08093682 0.08074319
 0.08067778 0.08082186 0.08111694 0.08140427 0.08160886 0.08181322 0.08208558 0.08231899 0.08234636 0.08216804
 0.08196217 0.08188652 0.08194862 0.08206175 0.08214515 0.08213352 0.08195165 0.08158015 0.08116229 0.08095857
 0.08113831 0.08165544 0.08233467 0.08299673 0.08349376 0.08374422 0.08379161 0.08375729 0.08370207 0.08358714
 0.08338087 0.08315663 0.08306973 0.08324143 0.08365056 0.08414073 0.08454599 0.0847943 0.08490467 0.08495323
 0.0850465 0.08523779 0.08544368 0.08552049 0.08544627 0.08535914 0.08539192 0.0855208 0.0856059 0.08555927
 0.08544928 0.08543007 0.08557729 0.08581908 0.08603389 0.08618358 0.08632925 0.08652911 0.08673752 0.08682379
 0.08671364 0.08649247 0.08632214 0.08626968 0.08628285 0.08632427 0.08643806 0.08665222 0.08688756 0.08702338
 0.08703227 0.0870039 0.0870315 0.08710328 0.08712425 0.08703037 0.08685698 0.08669901 0.08662915 0.08665739
 0.08674148 0.08681738 0.08683126 0.08676564 0.08664539 0.08651479 0.08640727 0.08634552 0.08636706 0.08651547
 0.08677366 0.0870179 0.08708568 0.08691847 0.08662811 0.08640096 0.08633003 0.08634533 0.08630446 0.08613402
 0.08587669 0.08562358 0.08543034 0.08529587 0.0851929 0.08510551 0.0850519 0.08507895 0.08521181 0.08539014
 0.08547922 0.08538175 0.08513397 0.0848667 0.08468416 0.08460381 0.08458709 0.0845874 0.08458436 0.08460201
 0.08467278 0.08476587 0.08479314 0.08471249 0.0845865 0.08451867 0.08457038 0.08474173 0.0849719 0.08514702
 0.08517334 0.08507217 0.08496273 0.08493675 0.08498631 0.08505832 0.08513136 0.08521594 0.08531455 0.08541804
 0.08553403 0.08569293 0.08591675 0.08618669 0.08644439 0.08663073 0.08673697 0.0868237 0.08697824 0.08724134
 0.08757404 0.08789472 0.08814541 0.08832951 0.0884935 0.08867346 0.08886585 0.0890588 0.08927428 0.08954823
 0.08987601 0.09021093 0.09051789 0.09080149 0.09108195 0.09136844 0.09166282 0.09197699 0.09233838 0.09276493
 0.09322054 0.09361186 0.09386097 0.09398395 0.0940841 0.09427361 0.09459846 0.09500369 0.09535633 0.09554736
 0.09560612 0.09568176 0.09588152 0.09616204 0.09641768 0.09663876 0.0969214 0.09732723 0.09778847 0.09817234
 0.09841403 0.09856713 0.09873079 0.09894116 0.09914291 0.09926993 0.09933559 0.09941545 0.09955245 0.09972735
 0.09993219 0.1002139 0.1006044 0.101048 0.1014436 0.101738 0.1019445 0.1020945 0.1022073 0.1022891
 0.1023344 0.1023438 0.1023528 0.1024123 0.102523 0.1026246 0.1026722 0.1026948 0.1027555 0.1028884
 0.1030964 0.1033761 0.1037038 0.1040204 0.1042828 0.1045299 0.1048438 0.1052274 0.1055671 0.105754
 0.1058035 0.1058102 0.1058253 0.1058435 0.1058877 0.1060248 0.1062845 0.1066191 0.1069654 0.1073072
 0.1076583 0.1080133 0.1083322 0.1085625 0.1086723 0.1086755 0.1086351 0.1086385 0.1087565 0.1090071
 0.1093437 0.1096843 0.1099638 0.1101537 0.1102413 0.1102246 0.1101504 0.110123 0.110225 0.1104235
 0.1105851 0.1105875 0.1103964 0.1100366 0.1095314 0.1088966 0.108182 0.107486 0.1069146 0.1065257
 0.1063235 0.1063083 0.1065107 0.1069526 0.1075816 0.108277 0.1089236 0.1094468 0.1097705 0.1097991
 0.1094854 0.1088946 0.1081687 0.1074365 0.106767 0.1061667 0.105595 0.1050133 0.104468 0.1041192
 0.1041622 0.1047147 0.1057621 0.1071681 0.1087152 0.1101747 0.1113988 0.1123731 0.1131791 0.1139024
 0.1145815 0.1152327 0.115884 0.1165514 0.1171998 0.1177707 0.1182497 0.1186768 0.1190875 0.1194746
 0.1198073 0.1200657 0.1202621 0.1204421 0.1206456 0.1208491 0.1209732 0.1209689 0.1208722 0.1207527
 0.1206309 0.120468 0.1202131 0.1198471 0.1194102 0.11902 0.1188547 0.1190805 0.119757 0.120801
 0.1220498 0.1233625 0.1246493 0.1258211 0.1267687 0.1274287 0.1278425 0.1281224 0.128371 0.128644
 0.1289564 0.1292951 0.1296303 0.1299386 0.1302184 0.1304911 0.130787 0.1311195 0.1314622 0.1317635
 0.132 0.1322103 0.1324668 0.1328107 0.1332143 0.133609 0.133956 0.1342773 0.1346049 0.1349166
 0.1351569 0.1353174 0.1354603 0.1356602 0.1359489 0.1363105 0.1366933 0.137029 0.1372736 0.1374454
 0.1376041 0.1377938 0.1380176 0.1382599 0.138512 0.1387697 0.1390277 0.1392872 0.1395637 0.1398646
 0.1401606 0.1403991 0.1405601 0.1406864 0.1408436 0.1410567 0.1412956 0.1415168 0.1417121 0.1419198
 0.1421867 0.1425129 0.1428384 0.1430917 0.143251 0.143355 0.1434645 0.1436201 0.1438265 0.1440609
 0.1442933 0.1445054 0.1446978 0.1448843 0.1450801 0.1452927 0.1455186 0.1457466 0.1459655 0.146171
 0.1463679 0.146566 0.1467748 0.1470059 0.1472722 0.1475716 0.1478717 0.1481261 0.1483121 0.1484459
 0.1485612 0.1486838 0.1488263 0.1489944 0.1491873 0.1493981 0.1496171 0.1498375 0.150056 0.1502705
 0.1504785 0.1506787 0.1508736 0.1510695 0.1512749 0.1514956 0.1517287 0.1519612 0.1521793 0.152378
 0.1525629 0.1527469 0.1529433 0.1531535 0.1533607 0.1535459 0.1537124 0.1538839 0.1540775 0.1542879
 0.1544997 0.154705 0.1549047 0.1550989 0.1552852 0.1554642 0.1556446 0.1558373 0.156045 0.1562594
 0.1564686 0.1566652 0.1568493 0.1570285 0.157212 0.1574041 0.1576061 0.1578189 0.1580406 0.1582607
 0.1584667 0.158655 0.1588333 0.1590138 0.1592035 0.1593998 0.1595964 0.1597919 0.1599896 0.1601893
 0.1603871 0.160583 0.1607817 0.1609856 0.1611936 0.1614052 0.1616208 0.1618406 0.1620641 0.1622865
 0.1625026 0.1627135 0.1629266 0.1631427 0.1633549 0.1635615 0.1637704 0.1639865 0.1642032 0.1644091
 0.1645999 0.1647815 0.1649619 0.1651417 0.1653154 0.1654828 0.1656516 0.1658275 0.1660114 0.1662022
 0.1663963 0.1665885 0.1667784 0.1669727 0.1671748 0.167383 0.1675953 0.16781 0.1680228 0.1682318
 0.1684384 0.1686416 0.1688399 0.169038 0.1692418 0.1694503 0.1696599 0.1698694 0.1700769 0.1702806
 0.1704824 0.1706849 0.1708895 0.1710988 0.1713139 0.171529 0.1717404 0.1719537 0.1721725 0.1723899
 0.1726001 0.1728054 0.1730081 0.1732093 0.173413 0.1736208 0.1738294 0.1740398 0.174255 0.1744685
 0.1746722 0.1748727 0.1750826 0.1753048 0.1755358 0.175771 0.1760026 0.1762263 0.1764457 0.1766609
 0.1768666 0.1770663 0.1772643 0.1774436 0.1775566 0.1774922 0.1769716 0.175435 0.1720337 0.1658128
 0.1560971 0.1429154 0.1271359 0.110159 0.09340908 0.07796998 0.06448413 0.05323581 0.04428483 0.03755315
 0.03288739 0.03015848 0.02935824 0.030696 0.03471116 0.04195661 0.05178086 0.0612412 0.06624334 0.0647748
 0.0588325 0.05260245 0.04897658 0.04815381 0.04889522 0.05014941 0.05158872 0.05341056 0.05594771 0.05929126
 0.06327565 0.0678909 0.07348353 0.0803134 0.0880227 0.09578519 0.1030168 0.1098325 0.1167725 0.124155
 0.1317457 0.1389936 0.1454719 0.1510932 0.1560246 0.1604917 0.1646482 0.1685683 0.1723002 0.1758559
 0.1791153 0.1817914 0.1835771 0.1843795 0.1844242 0.1841254 0.1838452 0.1837517 0.1838574 0.1841284
 0.1845404 0.1850794 0.1857339 0.1864848 0.1872974 0.1881316 0.1889577 0.1897565 0.1905167 0.1912372
 0.1919204 0.1925572 0.1931347 0.1936551 0.194132 0.1945737 0.1949823 0.1953605 0.1957144 0.1960524
 0.1963819 0.1967016 0.1969992 0.1972661 0.1975081 0.1977398 0.1979714 0.1982025 0.1984244 0.198632
 0.1988323 0.1990373 0.1992488 0.1994586 0.199661 0.199856 0.2000455 0.2002332 0.2004235 0.2006156
 0.2008055 0.2009923 0.201178 0.201363 0.2015513 0.2017519 0.2019662 0.2021807 0.2023809 0.2025677
 0.202753 0.2029443 0.2031378 0.2033274 0.2035182 0.2037244 0.2039506 0.2041804 0.2043965 0.2046005
 0.2048052 0.2050143 0.2052229 0.2054286 0.2056298 0.2058195 0.2059912 0.2061518 0.2063216 0.2065203
 0.2067476 0.2069821 0.2072061 0.2074211 0.2076337 0.2078378 0.2080223 0.2081851 0.208339 0.2085112
 0.2087265 0.2089792 0.2092368 0.2094823 0.2097274 0.2099785 0.2102231 0.210456 0.2106811 0.2108831
 0.2110368 0.2111563 0.2113088 0.2115622 0.2119164 0.2122928 0.2126044 0.2128341 0.2130309 0.2132494
 0.2135127 0.2137945 0.2139995 0.214029 0.2139313 0.2139273 0.2142077 0.2147412 0.2153339 0.2158276
 0.2161919 0.216474 0.2167209 0.2169359 0.2170771 0.2171055 0.2170646 0.2171066 0.2173851 0.2178959
 0.2184655 0.2189278 0.2192529 0.2194889 0.2196742 0.2198341 0.2199405 0.2198493 0.2194502 0.2189482
 0.2188185 0.2193469 0.22031 0.2212178 0.2217985 0.2221366 0.2224086 0.2226644 0.222873 0.2229491
 0.2226438 0.2216924 0.2203227 0.2193944 0.2196898 0.2211276 0.2229002 0.22428 0.225083 0.2254966
 0.2257578 0.2259875 0.2260991 0.2258217 0.2250026 0.2239897 0.2235371 0.2241144 0.225383 0.2265573
 0.2272044 0.2274736 0.2276796 0.2279489 0.2281338 0.2277655 0.2263202 0.2239925 0.2220838 0.2220845
 0.2242168 0.2271709 0.2294029 0.2304561 0.2308428 0.2309195 0.2303654 0.2287731 0.2262735 0.2234778
 0.2212871 0.2207721 0.2224621 0.225453 0.2279219 0.2289297 0.2292155 0.2299829 0.231465 0.2329409
 0.2336695 0.2334592 0.232539 0.2311514 0.2294367 0.2278092 0.2271835 0.2283252 0.2309195 0.2336847
 0.2355579 0.2365022 0.2369445 0.2365182 0.2338094 0.2280492 0.2212332 0.2175694 0.2197621 0.2261869
 0.2326436 0.2364937 0.2381108 0.2388972 0.2393948 0.2391391 0.236943 0.2315517 0.2236304 0.2169996
 0.2160512 0.2214056 0.2292079 0.2347239 0.2355545 0.2318793 0.2256126 0.2198416 0.2175609 0.219856
 0.2254316 0.2318936 0.2371851 0.2401505 0.240519 0.2387917 0.2362163 0.2344927 0.2345387 0.2351353
 0.2338533 0.2301197 0.2261623 0.2237381 0.2214222 0.2172543 0.2130509 0.2132158 0.2190161 0.2264567
 0.2307625 0.2312219 0.230339 0.2292799 0.225885 0.2177767 0.2068504 0.1993814 0.2005364 0.2090072
 0.2181784 0.2226115 0.222371 0.2210833 0.2210963 0.2210792 0.2178876 0.2106648 0.2029406 0.199676
 0.201993 0.2061753 0.2080779 0.2064372 0.2014237 0.1933103 0.1848544 0.182175 0.1896017 0.2043849
 0.2188374 0.2266625 0.2252747 0.2144492 0.1972221 0.1817313 0.1772594 0.1859225 0.2000932 0.2094049
 0.2089763 0.2003042 0.1868449 0.1716412 0.1587092 0.1535004 0.1596624 0.1753296 0.1931 0.2036941
 0.2011004 0.1872825 0.1726288 0.1684863 0.176811 0.1887795 0.1946461 0.1925827 0.1873359 0.1841426
 0.1857055 0.1916568 0.1989474 0.2047262 0.2086153 0.2094983 0.2024698 0.1847269 0.1633736 0.1507351
 0.1515654 0.1606359 0.1725842 0.1867229 0.2005872 0.2066386 0.2007568 0.1900206 0.1866661 0.1950947
 0.2081113 0.2157277 0.2150537 0.2108168 0.2080844 0.2068791 0.2046972 0.2023356 0.2041053 0.2118715
 0.2217845 0.2285729 0.2310305 0.2315452 0.2320628 0.2326041 0.2326261 0.2319241 0.2305646 0.2290134
 0.2279882 0.227657 0.2274846 0.2270451 0.2259999 0.2228622 0.2153189 0.2034722 0.191899 0.1860214
 0.1863586 0.1889026 0.191086 0.1932882 0.1932727 0.1846039 0.1651403 0.1440291 0.1350523 0.1433042
 0.161391 0.1778697 0.1860227 0.1844427 0.1736135 0.1561143 0.1393534 0.133245 0.1421165 0.1605543
 0.1791954 0.192798 0.2008155 0.2029085 0.1979728 0.1873426 0.1760528 0.1699477 0.1721351 0.1816384
 0.1937056 0.201007 0.1972349 0.1833932 0.170545 0.1716226 0.1878481 0.2066751 0.2158909 0.2159748
 0.2150876 0.2163933 0.2165175 0.214484 0.2152682 0.2229837 0.234834 0.2438721 0.2451041 0.2374584
 0.2231232 0.2080321 0.2003185 0.2037592 0.2134045 0.2208931 0.2225097 0.2187014 0.2091506 0.1948121
 0.1831089 0.1834791 0.196442 0.2123612 0.2223876 0.2265221 0.2295988 0.2329642 0.2328467 0.226075
 0.2153754 0.207688 0.2073105 0.212153 0.217297 0.2201805 0.2206301 0.2179318 0.2112754 0.2031047
 0.1991491 0.2034509 0.2141586 0.2252211 0.2317735 0.2331811 0.2316396 0.2293154 0.2268826 0.2236924
 0.2192205 0.2149476 0.2140693 0.2180888 0.2244329 0.2291023 0.2312495 0.2334547 0.2376655 0.2425138
 0.2449812 0.2436892 0.2402074 0.2376836 0.2383184 0.24162 0.2447722 0.245039 0.2423678 0.2396841
 0.2401951 0.244326 0.2496658 0.2537138 0.2559198 0.2571491 0.2582033 0.2591179 0.2591342 0.257268
 0.2536995 0.2505834 0.250526 0.2540048 0.2589166 0.2627543 0.2646338 0.2651523 0.2650114 0.2642885
 0.262844 0.2609726 0.2594114 0.2587554 0.2590352 0.2598735 0.2608739 0.2617861 0.2624846 0.2629547
 0.2632609 0.2634584 0.2635693 0.2636358 0.2637029 0.2637352 0.2636576 0.2635157 0.2634963 0.2637195
 0.2640777 0.2643496 0.2644036 0.2642011 0.2636699 0.2627239 0.2614132 0.2599229 0.258371 0.2567215
 0.2550096 0.2536126 0.2531512 0.2540208 0.2560193 0.2584646 0.2606637 0.2622663 0.2632664 0.2638113
 0.264063 0.2641496 0.2641491 0.2640852 0.2639533 0.2637506 0.2634826 0.2631539 0.262769 0.2623505
 0.2619464 0.2616044 0.2613271 0.2610609 0.2607348 0.2603117 0.2598071 0.2592683 0.2587319 0.2581873
 0.2575763 0.2568353 0.2559466 0.2549617 0.2539811 0.2530955 0.2523206 0.2515892 0.25082 0.2499844
 0.2490864 0.2481021 0.2469996 0.2458264 0.2447234 0.2438153 0.2431063 0.2424975 0.2418755 0.2411599
 0.2403091 0.2393301 0.2382745 0.2371922 0.2360911 0.2349536 0.2337698 0.2325345 0.2312286 0.2298274
 0.2283214 0.2267236 0.2250687 0.2233972 0.2217149 0.2199564 0.217995 0.2156895 0.2129203 0.2096036
 0.2057056 0.2012727 0.1964538 0.1914747 0.1865649 0.1818921 0.1775631 0.1736648 0.1702874 0.1675136
 0.165404 0.1639906 0.1632787 0.1632619 0.1639353 0.1652819 0.1672393 0.1696877 0.1724737 0.1754408
 0.1784361 0.1813103 0.1839502 0.186334 0.1885329 0.1906263 0.1926188 0.1944552 0.1960944 0.197533
 0.1987727 0.1998057 0.2006409 0.2013183 0.2018867 0.2023777 0.2028065 0.203187 0.2035318 0.2038377
 0.204087 0.2042717 0.2044104 0.2045402 0.2046988 0.2049099 0.2051755 0.2054859 0.2058438 0.2062667
 0.2067603 0.2073054 0.2078809 0.2084836 0.2091216 0.209805 0.2105495 0.2113818 0.212334 0.2134303
 0.2146704 0.2160206 0.2174164 0.2187673 0.2199704 0.2209456 0.2216686 0.2221611 0.2224536 0.2225679
 0.2225244 0.222343 0.2220403 0.2216364 0.2211582 0.2206278 0.2200546 0.219445 0.2188098 0.2181538
 0.2174708 0.216758 0.2160335 0.2153256 0.214644 0.2139763 0.2133171 0.2126827 0.2120855 0.2115095
 0.2109271 0.2103302 0.2097331 0.2091524 0.2085911 0.2080283 0.2074182 0.20671 0.2058823 0.2049507
 0.2039342 0.2028276 0.2016192 0.2003212 0.1989623 0.1975499 0.1960625 0.1944826 0.192819 0.1910873
 0.1892788 0.1873675 0.1853545 0.1832999 0.1813025 0.1794411 0.1777359 0.1761589 0.1746723 0.1732557
 0.1719068 0.1706283 0.1694179 0.1682708 0.167181 0.1661385 0.1651347 0.1641726 0.1632695 0.1624469
 0.1617211 0.1610974 0.1605669 0.1601144 0.1597264 0.1593906 0.1591042 0.158892 0.1587917 0.1588021
 0.1588636 0.1589009 0.1588721 0.1587777 0.1586494 0.1585294 0.1584429 0.1583848 0.1583329 0.1582555
 0.1581029 0.1578018 0.1572623 0.1564011 0.1551862 0.1536634 0.1519264 0.1500794 0.1482407 0.146541
 0.1450796 0.1438982 0.1429966 0.1423393 0.1418514 0.1414565 0.1411337 0.1409307 0.1409183 0.1411052
 0.1413756 0.141554 0.1415759 0.1415619 0.1416993 0.1420917 0.1427226 0.1434921 0.1442722 0.144968
 0.1455365 0.1459533 0.1462083 0.1463303 0.1463583 0.1462969 0.1461419 0.1459202 0.1456656 0.1453865
 0.1450718 0.1446915 0.1442071 0.1436118 0.142932 0.1421795 0.1413498 0.140446 0.1394446 0.1382964
 0.1370506 0.1359276 0.1351998 0.1350332 0.1354322 0.1362539 0.1372885 0.1383883 0.1394556 0.1402892
 0.1406418 0.1405936 0.1407383 0.1417674 0.143819 0.1463191 0.1484868 0.1499095 0.1506013 0.1506915
 0.1502526 0.1493297 0.1479174 0.1459499 0.1434433 0.1405565 0.13746 0.1342997 0.1312832 0.1286117
 0.1263586 0.1245299 0.1231306 0.1221942 0.1218311 0.1216603 0.1197845 0.1137677 0.1044052 0.09740828
 0.09859015 0.107324 0.1169949 0.1219884 0.1221467 0.1204517 0.1189581 0.11797 0.1173865 0.1173751
 0.1180877 0.1193798 0.12084 0.1220372 0.1227861 0.123134 0.123072 0.1222607 0.1199466 0.1152408
 0.1078429 0.09863992 0.08939166 0.08170807 0.07633017 0.07314543 0.07153895 0.07075413 0.07026034 0.06999681
 0.07026075 0.07133582 0.07325359 0.07587628 0.07904771 0.08252937 0.08589345 0.0887094 0.09086822 0.09257144
 0.09398498 0.09504411 0.09560719 0.0956568 0.09530314 0.09468807 0.09393752 0.09313232 0.09224629 0.09115958
 0.0898481 0.08855549 0.0876466 0.08726016 0.08721533 0.08726228 0.08728889 0.08727971 0.0872287 0.08714445
 0.08706732 0.08706537 0.08722723 0.08760534 0.08813423 0.08864725 0.08899435 0.0891411 0.0891639 0.08911724
 0.08888541 0.08828714 0.08740951 0.08663796 0.08616211 0.08564533 0.08466424 0.08335821 0.08235316 0.08207062
 0.08233808 0.08267273 0.08274144 0.08251542 0.08219124 0.0820858 0.08244197 0.08314334 0.08370389 0.08371481
</values></Ydata></ScRf><Data_Parameters_AB><parameter name="DPF">1</parameter><parameter name="NPT">3497</parameter><parameter name="FXV">3996</parameter><parameter name="LXV">500</parameter><parameter name="CSF">1</parameter><parameter name="MXY">0.578432619571686</parameter><parameter name="MNY">-0.063425786793232</parameter><parameter name="DAT">02/06/2022</parameter><parameter name="TIM">13:29:55.789 (GMT+2)</parameter><parameter name="DXU">WN</parameter></Data_Parameters_AB><AB__Qtest><MainReport name="Quality Test Report"><Header><Line><Legend>Test result ok/not ok [1/0]: </Legend><Value>1</Value></Line><Line><Legend>Method file: </Legend><Value>C:\Users\Public\Documents\Bruker\OPUS_8.2.28\QT\IRBT_v3_default.QT</Value></Line></Header><Matrix><Line><Legend></Legend><Legend>min</Legend><Legend>max</Legend><Legend>measured</Legend></Line><Line><Value>Absorption (X-Range 1):</Value><Value>0.400000</Value><Value>2.000000</Value><Value>0.521676</Value></Line><Line><Value>Noise (X-Range 4):</Value><Value></Value><Value>0.000300</Value><Value>0.000060</Value></Line><Line><Value>Signal/Noise (X-Range 2):</Value><Value>200.000000</Value><Value></Value><Value>241.256271</Value></Line><Line><Value>Signal/Noise (X-Range 3):</Value><Value>40.000000</Value><Value></Value><Value>67.785072</Value></Line><Line><Value>Water vapour (X-Range 5):</Value><Value></Value><Value>0.000300</Value><Value>0.000127</Value></Line><Line><Value>Signal/Water (X-Range 2):</Value><Value>100.000000</Value><Value></Value><Value>114.693881</Value></Line><Line><Value>Signal/Water (X-Range 3):</Value><Value>20.000000</Value><Value></Value><Value>32.225206</Value></Line><Line><Value>Fringes (X-Range 6):</Value><Value></Value><Value>0.000100</Value><Value>0.000091</Value></Line></Matrix></MainReport></AB__Qtest><Data_Parameters_ScSm><parameter name="DPF">1</parameter><parameter name="NPT">1814</parameter><parameter name="FXV">3996.33169228125</parameter><parameter name="LXV">499.541461535156</parameter><parameter name="CSF">1</parameter><parameter name="MXY">0.261316239833832</parameter><parameter name="MNY">0.030134841799736</parameter><parameter name="DAT">02/06/2022</parameter><parameter name="TIM">13:29:55.789 (GMT+2)</parameter><parameter name="DXU">WN</parameter></Data_Parameters_ScSm><Data_Parameters_ScRf><parameter name="DPF">1</parameter><parameter name="NPT">1820</parameter><parameter name="FXV">4004.04661832813</parameter><parameter name="LXV">495.683998511719</parameter><parameter name="CSF">1</parameter><parameter name="MXY">0.265152305364609</parameter><parameter name="MNY">0.0293582417070866</parameter><parameter name="DAT">02/06/2022</parameter><parameter name="TIM">13:29:29.937 (GMT+2)</parameter><parameter name="DXU">WN</parameter></Data_Parameters_ScRf><Optic_Parameters_Rf><parameter name="APR">0</parameter><parameter name="APT">Open</parameter><parameter name="BMS">KBr</parameter><parameter name="DTC">RT-DLaTGS_IR-Biotyper [Microplate reader]</parameter><parameter name="HPF">0</parameter><parameter name="LPF">10.0</parameter><parameter name="LPV">4000</parameter><parameter name="PGR">0</parameter><parameter name="RCH">Module port</parameter><parameter name="RDX">0</parameter><parameter name="SRC">MIR</parameter><parameter name="VEL">10.0</parameter><parameter name="SON">Off</parameter></Optic_Parameters_Rf><Acquisition_Parameters_Rf><parameter name="ADT">1</parameter><parameter name="AQM">DD</parameter><parameter name="CFE">0</parameter><parameter name="COR">0</parameter><parameter name="DEL">0</parameter><parameter name="DLY">0</parameter><parameter name="HFW">8000</parameter><parameter name="LFW">0</parameter><parameter name="NSR">32</parameter><parameter name="PLF">AB</parameter><parameter name="RES">6</parameter><parameter name="RGN">-1</parameter><parameter name="STR">0</parameter><parameter name="TCL">MakeCompatibleScalar (0, {WSV=1.000000, ARV=0});</parameter><parameter name="TDL">37</parameter><parameter name="RPO">0</parameter></Acquisition_Parameters_Rf><FT_-_Parameters_Rf><parameter name="APF">B3</parameter><parameter name="HFQ">500</parameter><parameter name="LFQ">4000</parameter><parameter name="NLI">0</parameter><parameter name="PHR">24</parameter><parameter name="PHZ">ML</parameter><parameter name="SPZ">NO</parameter><parameter name="ZFF">1</parameter></FT_-_Parameters_Rf><Optic_Parameters_><parameter name="APR">0</parameter><parameter name="APT">Open</parameter><parameter name="BMS">KBr</parameter><parameter name="CHN">Module port</parameter><parameter name="DTC">RT-DLaTGS_IR-Biotyper [Microplate reader]</parameter><parameter name="HPF">0</parameter><parameter name="LPF">10.0</parameter><parameter name="LPV">4000</parameter><parameter name="PGN">0</parameter><parameter name="RDX">0</parameter><parameter name="SRC">MIR</parameter><parameter name="VEL">10.0</parameter><parameter name="SON">Off</parameter></Optic_Parameters_><FT_-_Parameters_><parameter name="APF">B3</parameter><parameter name="HFQ">500</parameter><parameter name="LFQ">4000</parameter><parameter name="NLI">0</parameter><parameter name="PHR">24</parameter><parameter name="PHZ">ML</parameter><parameter name="SPZ">NO</parameter><parameter name="ZFF">1</parameter></FT_-_Parameters_><Acquisition_Parameters_><parameter name="ADT">1</parameter><parameter name="AQM">DD</parameter><parameter name="CFE">0</parameter><parameter name="COR">0</parameter><parameter name="DEL">0</parameter><parameter name="DLY">0</parameter><parameter name="HFW">8000</parameter><parameter name="LFW">0</parameter><parameter name="NSS">32</parameter><parameter name="PLF">AB</parameter><parameter name="RES">6</parameter><parameter name="SOT">0</parameter><parameter name="TCL">MakeCompatibleScalar (0, {WSV=1.000000, ARV=0});</parameter><parameter name="TDL">37</parameter><parameter name="SPO">0</parameter><parameter name="SGN">-1</parameter></Acquisition_Parameters_><Instrument_Parameters_Rf><parameter name="HFL">15800.168544</parameter><parameter name="LFL">0</parameter><parameter name="LWN">15800.168544</parameter><parameter name="ABP">32197</parameter><parameter name="SSP">1</parameter><parameter name="ARG">2</parameter><parameter name="ASG">2</parameter><parameter name="ASS">32</parameter><parameter name="GFW">16</parameter><parameter name="GBW">16</parameter><parameter name="BFW">0</parameter><parameter name="BBW">0</parameter><parameter name="PKA">7270</parameter><parameter name="PKL">4996</parameter><parameter name="PRA">7454</parameter><parameter name="PRL">5001</parameter><parameter name="P2A">1</parameter><parameter name="P2L">1</parameter><parameter name="P2R">1</parameter><parameter name="P2K">1</parameter><parameter name="DAQ">0</parameter><parameter name="AG2">1</parameter><parameter name="SSM">1</parameter><parameter name="RSN">26215</parameter><parameter name="CRR">0</parameter><parameter name="SRT">1654176569.937</parameter><parameter name="DUR">19.6379852294922</parameter><parameter name="TSC">29.2</parameter><parameter name="MVD">0.227084144949913</parameter><parameter name="AN1">0.225818440715997</parameter><parameter name="AN2">0</parameter><parameter name="VSN">2.485 Apr  4 2017</parameter><parameter name="SRN">0085</parameter><parameter name="CAM">0</parameter><parameter name="INS">IR-Biotyper</parameter><parameter name="FOC">69</parameter><parameter name="RDY">1</parameter><parameter name="ARS">32</parameter></Instrument_Parameters_Rf><Sample_Parameters_><parameter name="BLD"></parameter><parameter name="CNM">Admin</parameter><parameter name="CPY"></parameter><parameter name="DPM"></parameter><parameter name="EXP">IRBT_v3_32Scans.XPM</parameter><parameter name="LCT"></parameter><parameter name="SFM">Microplate, HTS-XT</parameter><parameter name="SNM">220602-1248_SMP48F (D_3)_A4_c37a6467-19bc-4701-9e86-a86d87ce954e.0</parameter><parameter name="XPP">C:\Users\Public\Documents\Bruker\OPUS_8.2.28\XPM</parameter><parameter name="IST">OK</parameter><parameter name="CPG">1252</parameter><parameter name="UID">08ff9c05-ce9a-4786-8bd9-a8deb29fc8ca</parameter></Sample_Parameters_><Instrument_Parameters_><parameter name="HFL">15800.168544</parameter><parameter name="LFL">0</parameter><parameter name="LWN">15800.168544</parameter><parameter name="ABP">32197</parameter><parameter name="SSP">1</parameter><parameter name="ASG">4</parameter><parameter name="ARG">2</parameter><parameter name="ASS">32</parameter><parameter name="GFW">16</parameter><parameter name="GBW">16</parameter><parameter name="BFW">0</parameter><parameter name="BBW">0</parameter><parameter name="PKA">6129</parameter><parameter name="PKL">4988</parameter><parameter name="PRA">6381</parameter><parameter name="PRL">4993</parameter><parameter name="P2A">1</parameter><parameter name="P2L">1</parameter><parameter name="P2R">1</parameter><parameter name="P2K">1</parameter><parameter name="DAQ">0</parameter><parameter name="AG2">1</parameter><parameter name="SSM">1</parameter><parameter name="RSN">13733</parameter><parameter name="CRR">0</parameter><parameter name="SRT">1654176595.789</parameter><parameter name="DUR">19.6389923095703</parameter><parameter name="TSC">29.2</parameter><parameter name="MVD">0.227820098400116</parameter><parameter name="AN1">0.225830485570921</parameter><parameter name="AN2">0</parameter><parameter name="VSN">2.485 Apr  4 2017</parameter><parameter name="SRN">0085</parameter><parameter name="CAM">0</parameter><parameter name="INS">IR-Biotyper</parameter><parameter name="FOC">69</parameter><parameter name="RDY">1</parameter></Instrument_Parameters_><History/></OPUSDataFile>
