<?xml version="1.0" encoding="UTF-8" ?>
<OPUSDataFile><AB><Ydata ylabel="Absorbance Units"><values byteorder="INTEL" format="FLOAT32" numvalues="3497"> -0.06619313 -0.06622969 -0.06626614 -0.06630389 -0.06632143 -0.06631763 -0.06628289 -0.06621825 -0.06613337 -0.06603178
 -0.06593844 -0.06585599 -0.06580854 -0.06579258 -0.06581387 -0.06586302 -0.0659279 -0.06600054 -0.06606669 -0.06612444
 -0.06616732 -0.06619743 -0.06621368 -0.06622039 -0.06621805 -0.0662135 -0.06620828 -0.06620809 -0.06621441 -0.06622764
 -0.06624811 -0.06627315 -0.06630263 -0.06633482 -0.0663696 -0.06640503 -0.06644069 -0.06647275 -0.06650168 -0.06652623
 -0.06654886 -0.06657503 -0.06660604 -0.06664816 -0.06669677 -0.06675024 -0.06680096 -0.06684108 -0.06687076 -0.06688613
 -0.06689608 -0.06690414 -0.06691164 -0.06692163 -0.06692148 -0.06690921 -0.06687825 -0.06682658 -0.06676871 -0.06670533
 -0.06665622 -0.06662117 -0.06660214 -0.06659731 -0.06659553 -0.06659804 -0.06660295 -0.06661332 -0.06663741 -0.06667244
 -0.06671951 -0.06677002 -0.06681386 -0.06684719 -0.06686187 -0.06686305 -0.06685115 -0.06683164 -0.06680734 -0.06677803
 -0.06674314 -0.0667073 -0.06666919 -0.06664803 -0.06664494 -0.0666835 -0.06676515 -0.06689623 -0.06707457 -0.0672738
 -0.06748735 -0.06766115 -0.06779235 -0.06783589 -0.06780631 -0.06771227 -0.06757725 -0.06744662 -0.06732839 -0.06725294
 -0.06720971 -0.0672031 -0.06721207 -0.06722667 -0.0672309 -0.06721226 -0.06718182 -0.06713588 -0.06710934 -0.06710832
 -0.06715102 -0.06724298 -0.06735075 -0.06747285 -0.06755218 -0.06758902 -0.06757455 -0.06751744 -0.06746898 -0.0674336
 -0.06746014 -0.06753537 -0.06765594 -0.06779739 -0.06791375 -0.06799838 -0.06801853 -0.06799699 -0.06794134 -0.06787116
 -0.06780118 -0.06773536 -0.06767477 -0.06763588 -0.06761932 -0.06765771 -0.06775799 -0.06793297 -0.06818949 -0.06847197
 -0.06877837 -0.06895323 -0.06899347 -0.06881358 -0.06844185 -0.06802323 -0.06757464 -0.06724056 -0.06700723 -0.06691334
 -0.06693885 -0.06707508 -0.06728485 -0.06753008 -0.06775679 -0.0679038 -0.06795514 -0.06786744 -0.06770917 -0.06749059
 -0.06729376 -0.06714917 -0.06706595 -0.06705406 -0.06707926 -0.06713865 -0.06721205 -0.06729801 -0.06739394 -0.06749929
 -0.0676062 -0.06771243 -0.06779958 -0.06786578 -0.06789365 -0.06788436 -0.06783011 -0.06773805 -0.06761312 -0.06747179
 -0.06733415 -0.06721602 -0.06713945 -0.06710445 -0.06711981 -0.0671712 -0.06725617 -0.0673587 -0.06747487 -0.06759106
 -0.06770568 -0.06780117 -0.06787621 -0.06790996 -0.06790093 -0.0678438 -0.06773967 -0.06760634 -0.06744562 -0.06727742
 -0.06710257 -0.06693301 -0.06677251 -0.06663597 -0.06652763 -0.06646459 -0.06644057 -0.06645906 -0.06650035 -0.06655021
 -0.06659128 -0.06660663 -0.06659899 -0.06656282 -0.0665156 -0.06646013 -0.06641332 -0.06637838 -0.06636699 -0.06638101
 -0.06642419 -0.06649709 -0.06658781 -0.06669465 -0.06678768 -0.06686528 -0.06689889 -0.06689423 -0.06685595 -0.06679558
 -0.06674638 -0.06671204 -0.06671727 -0.06675281 -0.06681808 -0.06690113 -0.06698874 -0.06708297 -0.06717876 -0.0672897
 -0.06742278 -0.0675758 -0.06775436 -0.06792805 -0.06809298 -0.06822324 -0.06831496 -0.06836238 -0.06836529 -0.06829543
 -0.0681519 -0.06791048 -0.0675818 -0.06722649 -0.06685919 -0.0665752 -0.06636973 -0.06628462 -0.06629438 -0.06637871
 -0.06650084 -0.06660328 -0.06667453 -0.06667679 -0.06663862 -0.06656621 -0.06648436 -0.06640749 -0.06633714 -0.06627826
 -0.06621889 -0.06615801 -0.06608339 -0.06599276 -0.06588753 -0.0657673 -0.06565226 -0.06554384 -0.06546979 -0.06542958
 -0.0654369 -0.06548268 -0.06554096 -0.06559697 -0.0655914 -0.06553406 -0.06540683 -0.06524615 -0.06509724 -0.06496602
 -0.0648836 -0.064812 -0.06473979 -0.06462764 -0.06444841 -0.06421586 -0.06392004 -0.0636232 -0.0633352 -0.06309984
 -0.06292672 -0.06279994 -0.06272005 -0.06262342 -0.06250753 -0.06232127 -0.06207287 -0.06179677 -0.06150481 -0.06126905
 -0.0610826 -0.06096489 -0.06090192 -0.06087743 -0.06088051 -0.06089412 -0.06090233 -0.06088785 -0.06083356 -0.06072183
 -0.06055359 -0.06032484 -0.06004089 -0.05970476 -0.05930717 -0.05884338 -0.0583307 -0.05776731 -0.05720576 -0.05664952
 -0.05613039 -0.05564877 -0.05520559 -0.05480135 -0.05444103 -0.05412575 -0.05386657 -0.05365657 -0.05348575 -0.05334054
 -0.0531917 -0.05302953 -0.05283272 -0.05258827 -0.05227866 -0.05189291 -0.05140635 -0.05086321 -0.05026731 -0.04969177
 -0.04916592 -0.04869407 -0.04828697 -0.04790004 -0.04752923 -0.04714175 -0.04673434 -0.04631511 -0.04588606 -0.045492
 -0.04513384 -0.04484653 -0.04461531 -0.04440491 -0.04418358 -0.04383648 -0.04336872 -0.0427115 -0.04194869 -0.04116499
 -0.04041401 -0.03979035 -0.03926144 -0.03883927 -0.03846892 -0.03812845 -0.03778702 -0.03742839 -0.03705471 -0.03666391
 -0.03626245 -0.03585284 -0.03541746 -0.03495567 -0.03443641 -0.03385954 -0.03322584 -0.03254179 -0.03185827 -0.0311805
 -0.03056057 -0.0299926 -0.02948837 -0.02903719 -0.02862609 -0.02824311 -0.02786908 -0.02749149 -0.02708932 -0.02666629
 -0.02621386 -0.02575593 -0.02530494 -0.02486036 -0.02443369 -0.02397226 -0.02346723 -0.02288153 -0.02220174 -0.02149449
 -0.02076202 -0.02011071 -0.01954271 -0.01907836 -0.01870902 -0.01837607 -0.01807226 -0.01773258 -0.01736237 -0.01693909
 -0.01648069 -0.0160108 -0.0155432 -0.01511202 -0.01470536 -0.01433231 -0.01395374 -0.01354751 -0.01308666 -0.01254341
 -0.011951 -0.01130733 -0.01067418 -0.01006536 -0.009507083 -0.009007077 -0.008547077 -0.008126988 -0.007710031 -0.007294816
 -0.006858663 -0.006403517 -0.005935591 -0.005456443 -0.004978118 -0.004496201 -0.004003369 -0.003497548 -0.002966149 -0.002422866
 -0.001878375 -0.001351387 -0.00086709 -0.0004234184 -3.091822E-05 0.0003324265 0.0006739022 0.001009047 0.001346487 0.001681148
 0.002013782 0.002335374 0.002642985 0.002950124 0.003256743 0.003598477 0.003976682 0.004414801 0.004908871 0.005438456
 0.005995126 0.006528754 0.007037812 0.007488208 0.007892028 0.008254808 0.008592828 0.008932663 0.009278082 0.009646239
 0.01002247 0.01040332 0.01077278 0.0111189 0.0114489 0.01175794 0.01207733 0.01241196 0.01278806 0.01321162
 0.01367717 0.01418581 0.01470174 0.01522302 0.01571173 0.01616837 0.01657983 0.01695007 0.01728967 0.01760207
 0.01790216 0.01819218 0.01848269 0.01877667 0.01908348 0.01940162 0.01973494 0.02007481 0.02041591 0.02075497
 0.02108707 0.0214205 0.02175876 0.02209869 0.02244326 0.02276815 0.02306944 0.02334039 0.02357857 0.02382503
 0.02408207 0.02439953 0.02477411 0.02520182 0.02567036 0.02611997 0.0265437 0.02688502 0.02715654 0.02735195
 0.02749722 0.02762705 0.02775561 0.02791401 0.02809088 0.02828862 0.02849247 0.02869247 0.02889503 0.02909908
 0.02931654 0.02955174 0.0297989 0.0300583 0.03031914 0.03058023 0.03084384 0.03111003 0.03138072 0.03165533
 0.03192765 0.03219993 0.03247872 0.03276872 0.03309084 0.03343975 0.03381936 0.03421104 0.03459052 0.03494366
 0.03524463 0.03549776 0.03569582 0.03585419 0.03597761 0.03607942 0.03616433 0.03624184 0.03631372 0.03639141
 0.03647618 0.03657974 0.03670325 0.03685092 0.03702281 0.0372147 0.03742641 0.0376549 0.03790001 0.03816153
 0.03843528 0.03871084 0.03897928 0.03921601 0.03941905 0.03956934 0.03968547 0.03977379 0.03986598 0.03998722
 0.04015099 0.04037755 0.04063882 0.04093528 0.04121776 0.0414742 0.04168333 0.04183732 0.04196028 0.04205321
 0.04214359 0.04223195 0.04230661 0.04236529 0.04237876 0.04235134 0.04228616 0.04219453 0.04211382 0.04204883
 0.04203073 0.04205045 0.04211011 0.04219487 0.04228967 0.0423876 0.04247534 0.04256508 0.04265522 0.04277299
 0.04292842 0.04313235 0.04339576 0.04367879 0.04398196 0.04423089 0.04441918 0.04450354 0.04448314 0.04438873
 0.04422662 0.04407128 0.04392368 0.0438307 0.04378238 0.0437716 0.04379097 0.0438184 0.04385925 0.04391345
 0.04398255 0.04407463 0.04416926 0.0442563 0.04431519 0.04432609 0.04430818 0.04425635 0.04422347 0.04422095
 0.04428037 0.04441235 0.04458963 0.0448129 0.04501611 0.04519602 0.04529881 0.04532649 0.04527497 0.04515472
 0.04501384 0.04486437 0.04477143 0.04473476 0.04479098 0.0449196 0.04511126 0.04533364 0.04555093 0.04574024
 0.0458702 0.04594633 0.04595795 0.04593653 0.04588818 0.04584529 0.04581658 0.04581745 0.04585086 0.04592648
 0.04604469 0.04622543 0.04646957 0.04678966 0.04718135 0.04760997 0.04806219 0.04845164 0.04876938 0.04893372
 0.04896259 0.04884367 0.04862517 0.04836939 0.04812263 0.04796361 0.04789136 0.04794255 0.04805866 0.04822763
 0.04837573 0.0484741 0.04848587 0.04839199 0.04821216 0.04794265 0.04763879 0.0473044 0.04698933 0.0466959
 0.04644115 0.04622372 0.046035 0.04587431 0.04573327 0.0456142 0.04552146 0.04545465 0.04541978 0.04540327
 0.04539385 0.04536178 0.04527388 0.04510401 0.04481626 0.04442217 0.04390783 0.04332926 0.04269782 0.04207493
 0.04147761 0.04093514 0.04045539 0.04004023 0.03969118 0.0393961 0.03915405 0.03892975 0.03872022 0.03847756
 0.03820527 0.03789303 0.03755426 0.03723023 0.03692442 0.03667204 0.03645126 0.03624564 0.03603185 0.03577168
 0.03547511 0.03512963 0.03477519 0.03442731 0.03411913 0.0338695 0.03367653 0.03354864 0.03344632 0.03336817
 0.03325659 0.03310621 0.03288038 0.03257748 0.03221048 0.03178321 0.03134282 0.03089209 0.03047112 0.03007751
 0.02972474 0.02940866 0.02912699 0.02887594 0.02864988 0.02844316 0.02824891 0.0280597 0.02786849 0.02766921
 0.02745632 0.02722952 0.02698569 0.02673438 0.02647616 0.02622505 0.02598415 0.02575469 0.02553811 0.02531575
 0.02508667 0.02483294 0.02455566 0.02426101 0.02395275 0.02365558 0.02336998 0.02311249 0.02287705 0.02265897
 0.02245094 0.02223855 0.0220204 0.02178824 0.02154681 0.02129683 0.02104321 0.02078936 0.02053552 0.02028332
 0.02002844 0.01977032 0.01950461 0.01923027 0.01894715 0.01865486 0.01835843 0.0180581 0.01776114 0.0174677
 0.01718212 0.01690371 0.01663141 0.01636373 0.01609507 0.01582428 0.01554543 0.01525954 0.01496468 0.01466478
 0.01436233 0.01406358 0.01377204 0.01349835 0.01324647 0.01303249 0.012864 0.01274638 0.01268822 0.01265654
 0.01265268 0.01260781 0.01251597 0.01232299 0.01202594 0.01163691 0.01116182 0.01067548 0.01018543 0.009775808
 0.009442646 0.009223794 0.009095736 0.009029056 0.008989844 0.008908628 0.008772285 0.00852849 0.008212014 0.007824058
 0.007424978 0.007050953 0.006724134 0.006469307 0.006250497 0.006063355 0.005877698 0.005682087 0.005509899 0.005361354
 0.005295249 0.005314681 0.005418416 0.00560016 0.005780362 0.005950752 0.006019233 0.005991173 0.005830731 0.005560505
 0.005211358 0.004810759 0.004418637 0.004044727 0.003729122 0.00345214 0.003214153 0.002987316 0.002752047 0.002509674
 0.002251367 0.00200595 0.001780413 0.001586965 0.001431721 0.001293161 0.00116976 0.001044547 0.0009165166 0.0008029036
 0.0007050246 0.0006467996 0.0006249115 0.0006329599 0.0006641889 0.0006900039 0.000709276 0.0007033338 0.0006787164 0.0006382095
 0.0005865967 0.0005339966 0.000471685 0.0004008615 0.0002978438 0.000150573 -5.810395E-05 -0.0003439201 -0.0006847096 -0.001085869
 -0.001482402 -0.0018666 -0.002176916 -0.002403845 -0.002547775 -0.002608142 -0.002653117 -0.002687258 -0.002790381 -0.002959414
 -0.003221059 -0.003559688 -0.003935652 -0.004331969 -0.00468613 -0.004996169 -0.00522648 -0.005394186 -0.005501823 -0.005575251
 -0.005635278 -0.00570027 -0.005788894 -0.005897419 -0.006032992 -0.006169057 -0.00630088 -0.006405047 -0.00647317 -0.006521992
 -0.006549807 -0.006608915 -0.006702262 -0.006860384 -0.007080523 -0.007330165 -0.007602841 -0.007838761 -0.008042574 -0.008195691
 -0.008314868 -0.008433422 -0.008558265 -0.008722324 -0.008907937 -0.00911098 -0.009304362 -0.009463691 -0.009576334 -0.009626684
 -0.009618924 -0.009550967 -0.009429382 -0.009255441 -0.009033392 -0.008762644 -0.008456286 -0.008113815 -0.007767871 -0.007420145
 -0.00712015 -0.006870328 -0.006716351 -0.006656324 -0.006704563 -0.006851749 -0.007073333 -0.007357335 -0.007662517 -0.007981994
 -0.008285663 -0.008572141 -0.008829331 -0.009055086 -0.009245019 -0.009394567 -0.0094993 -0.009559582 -0.009571886 -0.00954935
 -0.009492532 -0.009423384 -0.009346305 -0.00927157 -0.009202895 -0.009116339 -0.009010979 -0.00883355 -0.008582183 -0.008217287
 -0.007744729 -0.007178875 -0.006532787 -0.005863594 -0.005178011 -0.004524525 -0.003894944 -0.003298335 -0.002721889 -0.002151655
 -0.001585532 -0.001015655 -0.0004478486 0.0001141617 0.0006752136 0.001232977 0.001806833 0.002402477 0.003027821 0.00368938
 0.004357865 0.005033363 0.00566072 0.00623664 0.006720474 0.007112361 0.007410082 0.007616746 0.007751288 0.007815282
 0.00782256 0.00777714 0.007690596 0.007579087 0.007471858 0.007390873 0.007376612 0.007433387 0.007583842 0.00780649
 0.008096062 0.008431883 0.008800331 0.009208784 0.009653726 0.01015982 0.01073156 0.0113806 0.01211019 0.01290731
 0.01377167 0.01466917 0.01559677 0.01650273 0.01738336 0.01818617 0.01891433 0.01954816 0.02010105 0.02059723
 0.02104615 0.02148313 0.02188974 0.02227037 0.02256836 0.02274954 0.02273514 0.02247308 0.0219072 0.02099202
 0.01975111 0.01816336 0.01635716 0.01433908 0.0122942 0.01024145 0.008324848 0.006555243 0.004973046 0.003576242
 0.002328839 0.001227558 0.0002331469 -0.0006526979 -0.001440962 -0.002134968 -0.002743496 -0.003283037 -0.003784681 -0.004265663
 -0.004763321 -0.005274691 -0.005815142 -0.006359908 -0.00690089 -0.007411698 -0.00787886 -0.008291756 -0.008643582 -0.008938264
 -0.009175096 -0.00936156 -0.009498872 -0.009586561 -0.00962483 -0.009602374 -0.009519302 -0.0093737 -0.009171318 -0.008948041
 -0.008715193 -0.008538842 -0.008421529 -0.008410185 -0.008484768 -0.008637337 -0.008832521 -0.009025372 -0.009185743 -0.009272009
 -0.009271507 -0.009163545 -0.008952579 -0.008633145 -0.00822291 -0.007723321 -0.007159489 -0.006534493 -0.005874963 -0.00518181
 -0.004496854 -0.003821493 -0.003248529 -0.002786145 -0.002584821 -0.002651585 -0.003119371 -0.003968389 -0.005206303 -0.006775518
 -0.008538601 -0.01043056 -0.01226808 -0.01402606 -0.0155904 -0.01698915 -0.01820307 -0.01928084 -0.02024709 -0.0211325
 -0.0219572 -0.0227278 -0.02344988 -0.02412346 -0.02474848 -0.02533001 -0.0258681 -0.0263723 -0.02684319 -0.02729067
 -0.02771514 -0.02812375 -0.02851639 -0.02889581 -0.0292614 -0.02961287 -0.02994823 -0.03026275 -0.03055322 -0.03081032
 -0.03103586 -0.03122422 -0.03139043 -0.03154256 -0.03170237 -0.03188765 -0.03210253 -0.03235902 -0.03262944 -0.03291151
 -0.03316693 -0.03338645 -0.03355833 -0.03367748 -0.033771 -0.03383993 -0.03392398 -0.03402407 -0.03415566 -0.03431517
 -0.03448339 -0.03465671 -0.03480716 -0.03493991 -0.03505209 -0.03515598 -0.03527456 -0.03541183 -0.03558682 -0.03578561
 -0.03600484 -0.03622451 -0.03643037 -0.03661401 -0.03676709 -0.0368933 -0.03699135 -0.03706913 -0.03712671 -0.03717776
 -0.0372232 -0.03728022 -0.0373502 -0.03744005 -0.03754943 -0.03766812 -0.03779508 -0.03791697 -0.03803489 -0.0381463
 -0.03825314 -0.03836015 -0.03846667 -0.03857468 -0.03868024 -0.03877983 -0.03886809 -0.03893886 -0.0389894 -0.03901495
 -0.03901961 -0.03900216 -0.0389739 -0.03893651 -0.03890456 -0.03888047 -0.03887768 -0.03889829 -0.03894855 -0.0390294
 -0.03913243 -0.03925672 -0.03938254 -0.03950912 -0.03962089 -0.03971934 -0.03980249 -0.03987217 -0.03993306 -0.03998442
 -0.04002759 -0.04005992 -0.04007807 -0.04008128 -0.04006564 -0.04003794 -0.0399979 -0.03996315 -0.03993924 -0.03994614
 -0.03999238 -0.04008137 -0.04021822 -0.04038131 -0.04057011 -0.0407523 -0.0409255 -0.04106906 -0.04118267 -0.0412665
 -0.04132257 -0.04136642 -0.04140005 -0.04144087 -0.04148834 -0.04155102 -0.04162463 -0.0417056 -0.04178864 -0.04186485
 -0.04193215 -0.0419843 -0.04202513 -0.04205402 -0.04207896 -0.0421029 -0.04213282 -0.04217226 -0.04222048 -0.04227887
 -0.04233925 -0.04240087 -0.04245655 -0.04250557 -0.04254871 -0.04258607 -0.04262106 -0.04265301 -0.04267799 -0.04269455
 -0.04269285 -0.04267473 -0.04263827 -0.04259066 -0.04254428 -0.04250614 -0.04249214 -0.0425017 -0.04254127 -0.04260384
 -0.04268696 -0.04278459 -0.04289361 -0.04301018 -0.04313368 -0.04325647 -0.04337788 -0.04348666 -0.0435812 -0.04365543
 -0.04370851 -0.04374532 -0.04376638 -0.04378408 -0.04379926 -0.0438245 -0.04385974 -0.04391214 -0.04397957 -0.04406053
 -0.04415101 -0.04424233 -0.04433234 -0.04441331 -0.04448833 -0.04455706 -0.04462415 -0.04469378 -0.04476435 -0.04483769
 -0.04490547 -0.04496539 -0.04501236 -0.04504395 -0.04506429 -0.04507314 -0.04507906 -0.04508268 -0.04508969 -0.0451003
 -0.04511714 -0.04514022 -0.04517098 -0.04520905 -0.04525366 -0.04530412 -0.04535785 -0.04541479 -0.04547352 -0.04553448
 -0.04559816 -0.04566361 -0.04573076 -0.04579677 -0.0458599 -0.04591781 -0.04596875 -0.04601267 -0.0460489 -0.0460792
 -0.04610357 -0.04612489 -0.04614341 -0.04616221 -0.04618154 -0.0462038 -0.04622909 -0.04625862 -0.04629252 -0.04633215
 -0.04637768 -0.0464307 -0.04649087 -0.0465586 -0.04663216 -0.04670893 -0.04678587 -0.04685808 -0.04692224 -0.04697334
 -0.04700993 -0.04702863 -0.04703274 -0.04702143 -0.04700374 -0.04698133 -0.04696513 -0.04695776 -0.04696523 -0.04698922
 -0.04702727 -0.04707959 -0.0471378 -0.04720143 -0.0472606 -0.04731495 -0.04735686 -0.04738696 -0.04740347 -0.04740857
 -0.04740749 -0.04740271 -0.04740194 -0.04740578 -0.04741888 -0.04743919 -0.04746661 -0.04749859 -0.04753327 -0.04756953
 -0.04760574 -0.04764432 -0.04768554 -0.04773233 -0.04778618 -0.04784368 -0.04790548 -0.04795972 -0.04800553 -0.04803398
 -0.04804495 -0.04804407 -0.0480326 -0.048025 -0.04802098 -0.04802758 -0.04804196 -0.04805925 -0.04807706 -0.04808748
 -0.04809126 -0.04808531 -0.04807328 -0.04805711 -0.04804132 -0.04802997 -0.04802425 -0.048027 -0.04803303 -0.04804194
 -0.04804632 -0.04804404 -0.04803365 -0.04801403 -0.04799148 -0.04796632 -0.04794553 -0.04792941 -0.04792064 -0.04791903
 -0.0479241 -0.0479355 -0.04795154 -0.0479716 -0.04799287 -0.04801487 -0.04803474 -0.04805366 -0.04807161 -0.04809114
 -0.04811502 -0.04814417 -0.04818079 -0.04822239 -0.04826869 -0.04831633 -0.04836417 -0.04841023 -0.04845412 -0.04849354
 -0.04852824 -0.04855568 -0.04857545 -0.0485894 -0.04859776 -0.04860913 -0.04862379 -0.04864881 -0.04868256 -0.04872117
 -0.04876201 -0.04879413 -0.04881797 -0.04882797 -0.04882883 -0.04882511 -0.04882036 -0.04882093 -0.04882504 -0.04883375
 -0.04884358 -0.04885238 -0.04886078 -0.04886818 -0.04887731 -0.04888905 -0.04890268 -0.04891844 -0.04893311 -0.04894637
 -0.04895797 -0.04896794 -0.04897896 -0.04899101 -0.04900496 -0.04902028 -0.04903481 -0.04904808 -0.04905734 -0.04906274
 -0.04906295 -0.04905934 -0.04905286 -0.04904603 -0.04904175 -0.04904177 -0.04904889 -0.04906147 -0.04908026 -0.04910029
 -0.04912042 -0.0491355 -0.04914393 -0.04914416 -0.04913529 -0.04912093 -0.04910109 -0.04908289 -0.0490667 -0.04905761
 -0.04905551 -0.04906112 -0.04907389 -0.0490915 -0.04911307 -0.04913488 -0.04915579 -0.04917132 -0.04918169 -0.04918467
 -0.04918269 -0.04917739 -0.04917087 -0.04916564 -0.04916114 -0.04915758 -0.04915476 -0.04915238 -0.04915185 -0.04915399
 -0.04915645 -0.04915953 -0.04915603 -0.04914523 -0.0491237 -0.04909137 -0.04905395 -0.04901201 -0.04897362 -0.04893877
 -0.04891159 -0.04889189 -0.04888147 -0.04887979 -0.04888753 -0.04890168 -0.04891864 -0.04893415 -0.04894171 -0.04894097
 -0.04892815 -0.04890924 -0.04888574 -0.04886423 -0.04884798 -0.04883745 -0.04883391 -0.04883295 -0.04883409 -0.04883383
 -0.04883171 -0.04882776 -0.048822 -0.04881644 -0.04881143 -0.0488112 -0.04881693 -0.04883664 -0.0488722 -0.04893395
 -0.04902299 -0.0491472 -0.04930556 -0.04950093 -0.04972898 -0.04998761 -0.05026903 -0.050567 -0.05087628 -0.05118965
 -0.05151674 -0.05185542 -0.05223221 -0.05265216 -0.05313772 -0.05369569 -0.0543152 -0.05499778 -0.05570124 -0.05642321
 -0.05711164 -0.05776224 -0.05831451 -0.05875943 -0.05901628 -0.05907964 -0.05888092 -0.05843852 -0.05774344 -0.05685636
 -0.05585437 -0.05481735 -0.053863 -0.05302786 -0.05238081 -0.05191217 -0.0516356 -0.05153034 -0.05159605 -0.05179955
 -0.05214388 -0.05254373 -0.05299472 -0.0533676 -0.05364802 -0.05378789 -0.05378501 -0.05370897 -0.05356427 -0.05342534
 -0.05328899 -0.05317665 -0.05308042 -0.05298509 -0.05288599 -0.05276375 -0.05262094 -0.05245323 -0.05226394 -0.05205607
 -0.05182899 -0.05158164 -0.05131854 -0.0510387 -0.05075734 -0.05047924 -0.05021629 -0.0499734 -0.04974926 -0.04954481
 -0.04935357 -0.04917487 -0.04900689 -0.04884951 -0.04870415 -0.04857095 -0.04845188 -0.04834678 -0.04825613 -0.04817897
 -0.04811272 -0.04805568 -0.04800276 -0.0479529 -0.04790211 -0.04785029 -0.0477961 -0.04773888 -0.04767803 -0.04761211
 -0.04753976 -0.04746201 -0.04737794 -0.0472931 -0.0472081 -0.04712997 -0.0470601 -0.0470011 -0.04695373 -0.04691333
 -0.04687969 -0.04684626 -0.04681319 -0.04678011 -0.04674792 -0.04672205 -0.04670218 -0.04669085 -0.04668546 -0.04668113
 -0.04667615 -0.04666473 -0.04664883 -0.04662824 -0.04660557 -0.04658353 -0.04656104 -0.04653895 -0.04651337 -0.04648274
 -0.04644591 -0.04640152 -0.04635396 -0.04630322 -0.04625679 -0.04621544 -0.04618326 -0.04616047 -0.04614289 -0.04612987
 -0.04611166 -0.04608806 -0.04605217 -0.04600578 -0.04595092 -0.04589054 -0.0458327 -0.04577864 -0.04573471 -0.04569863
 -0.04567079 -0.04564739 -0.04562563 -0.04560299 -0.04557709 -0.04554785 -0.04551467 -0.04547811 -0.04543811 -0.04539566
 -0.04535075 -0.04530522 -0.04525911 -0.0452158 -0.0451755 -0.04514271 -0.04511746 -0.04510162 -0.04509412 -0.04509003
 -0.04508741 -0.04507622 -0.04505654 -0.0450224 -0.04497783 -0.0449263 -0.04487243 -0.04482371 -0.04477986 -0.04474429
 -0.0447117 -0.04468001 -0.04464568 -0.04460551 -0.04456418 -0.0445212 -0.04448674 -0.04446275 -0.04445305 -0.04445896
 -0.04447122 -0.04448939 -0.04449905 -0.0445 -0.04448599 -0.04445833 -0.04442153 -0.04437705 -0.04433252 -0.04428843
 -0.04424978 -0.04421636 -0.04419038 -0.04417032 -0.04415578 -0.044144 -0.04413265 -0.04412002 -0.04410389 -0.04408605
 -0.04406635 -0.04404795 -0.04403182 -0.04401899 -0.04401021 -0.04400232 -0.0439953 -0.04398369 -0.04396715 -0.04394223
 -0.04390912 -0.04386983 -0.04382521 -0.04378139 -0.0437389 -0.04370309 -0.04367327 -0.04365089 -0.04363386 -0.04361956
 -0.04360567 -0.043588 -0.04356667 -0.04353945 -0.04351025 -0.04348006 -0.04345393 -0.04343427 -0.04342277 -0.04342077
 -0.04342607 -0.04343887 -0.04345478 -0.04347359 -0.04348919 -0.04350122 -0.04350284 -0.04349395 -0.04347106 -0.04343542
 -0.04339247 -0.04334486 -0.04330555 -0.04327563 -0.04326587 -0.04327197 -0.04329304 -0.04332078 -0.04334475 -0.04336034
 -0.04335865 -0.04334376 -0.04331445 -0.04327911 -0.04324095 -0.04320431 -0.04317148 -0.04314103 -0.04311329 -0.04308473
 -0.04305495 -0.0430228 -0.04298818 -0.04295398 -0.0429204 -0.04289145 -0.04286661 -0.04284468 -0.04282449 -0.04280025
 -0.04277288 -0.04274064 -0.0427076 -0.04268005 -0.04266054 -0.04265597 -0.04266291 -0.04268178 -0.04270611 -0.04273221
 -0.04275663 -0.04277696 -0.04279286 -0.04280405 -0.04280926 -0.0428082 -0.04279996 -0.04278415 -0.04276391 -0.0427394
 -0.04271562 -0.04269271 -0.04267327 -0.04265724 -0.04264558 -0.04263835 -0.0426368 -0.04263984 -0.04264613 -0.04265274
 -0.04265345 -0.04264783 -0.04263115 -0.04260935 -0.0425852 -0.04256533 -0.04255605 -0.04255453 -0.04256291 -0.04256996
 -0.04257303 -0.04256465 -0.04254213 -0.04250907 -0.04246501 -0.04242043 -0.0423759 -0.04234061 -0.04231464 -0.04230081
 -0.04229818 -0.04230228 -0.04231167 -0.04231828 -0.04232169 -0.04231625 -0.04230353 -0.04228332 -0.04225826 -0.04223178
 -0.04220489 -0.04218037 -0.04215578 -0.04213072 -0.04210211 -0.04206781 -0.04202963 -0.04198647 -0.04194652 -0.04191077
 -0.04188733 -0.04187756 -0.04188203 -0.04190097 -0.04192675 -0.04195881 -0.04198712 -0.04201153 -0.04202595 -0.04203114
 -0.04202673 -0.04201381 -0.04199493 -0.04197076 -0.04194348 -0.04191373 -0.04188259 -0.04185207 -0.04182358 -0.04180048
 -0.04178492 -0.0417796 -0.04178691 -0.04180462 -0.04183384 -0.04186552 -0.04189876 -0.04192303 -0.04193671 -0.04193728
 -0.04192436 -0.04190449 -0.04187803 -0.04185158 -0.04182478 -0.04179829 -0.04177177 -0.0417438 -0.0417152 -0.04168736
 -0.04166095 -0.04163845 -0.04161845 -0.04160061 -0.04158237 -0.04156086 -0.04153619 -0.04150661 -0.04147654 -0.04144721
 -0.04142264 -0.04140516 -0.04139184 -0.04138318 -0.04137167 -0.04135626 -0.04133481 -0.04130699 -0.04127797 -0.04124801
 -0.04122218 -0.04120022 -0.04118261 -0.04116876 -0.0411567 -0.04114569 -0.0411327 -0.04111742 -0.04109725 -0.04107409
 -0.04104878 -0.04102456 -0.04100548 -0.04099036 -0.04098119 -0.04097055 -0.04095593 -0.04093173 -0.04089462 -0.0408484
 -0.04079254 -0.04073573 -0.04067907 -0.04062627 -0.04057769 -0.04053187 -0.04048883 -0.04044883 -0.04041223 -0.04038243
 -0.04035886 -0.04034158 -0.04032859 -0.04031416 -0.04029787 -0.04027544 -0.04024953 -0.04022219 -0.04019447 -0.04016945
 -0.04014274 -0.04011268 -0.04007544 -0.04002728 -0.03997374 -0.03991468 -0.03985997 -0.03981212 -0.03977282 -0.03974327
 -0.03971492 -0.03968732 -0.03965215 -0.03960947 -0.03956104 -0.03950808 -0.03946059 -0.0394188 -0.03938963 -0.03937096
 -0.03936095 -0.03935679 -0.03935249 -0.03934633 -0.03933385 -0.03931394 -0.03928353 -0.03924414 -0.03919438 -0.03914122
 -0.03908686 -0.03903789 -0.03899806 -0.03896344 -0.03893498 -0.03890115 -0.03886043 -0.0388075 -0.03874163 -0.03867044
 -0.03859451 -0.03852585 -0.03846446 -0.03841645 -0.03838025 -0.0383532 -0.03833276 -0.0383107 -0.03828535 -0.03824919
 -0.03820327 -0.03814522 -0.0380785 -0.03800479 -0.03792867 -0.03785308 -0.03778201 -0.03771835 -0.03766203 -0.03761444
 -0.03757036 -0.03752924 -0.03748548 -0.03743805 -0.03738681 -0.03733157 -0.03727674 -0.03722258 -0.03717417 -0.03713156
 -0.03709788 -0.03707234 -0.03705399 -0.03704035 -0.03702449 -0.03700352 -0.03696777 -0.03691842 -0.03685148 -0.03677369
 -0.03668959 -0.03660483 -0.03652507 -0.03645023 -0.03638223 -0.03631734 -0.03625472 -0.03619221 -0.03612872 -0.0360669
 -0.03600664 -0.0359534 -0.03590759 -0.03587261 -0.03584847 -0.03583446 -0.03582955 -0.03582621 -0.03582165 -0.03579934
 -0.03575792 -0.03568223 -0.03557931 -0.03545367 -0.03531668 -0.03518606 -0.03506702 -0.03497159 -0.03489781 -0.0348494
 -0.03481783 -0.03480285 -0.03478722 -0.03476679 -0.03472466 -0.03465497 -0.03456047 -0.03443918 -0.03431264 -0.03418238
 -0.03406088 -0.03394817 -0.03383809 -0.03373021 -0.03361786 -0.03350241 -0.03338649 -0.03327149 -0.03316316 -0.03306098
 -0.03296746 -0.03287942 -0.0327944 -0.03270755 -0.03261299 -0.03250935 -0.0323926 -0.03226798 -0.03213681 -0.03200332
 -0.03186974 -0.03173474 -0.03159805 -0.03146058 -0.0313217 -0.03119007 -0.0310663 -0.03095638 -0.03086008 -0.03076877
 -0.03068045 -0.03057462 -0.03045031 -0.0302901 -0.03009894 -0.02988081 -0.02964341 -0.02940528 -0.02916702 -0.02893822
 -0.02871398 -0.028492 -0.02827145 -0.02804949 -0.02783192 -0.02762121 -0.02741943 -0.02723025 -0.02704164 -0.02685466
 -0.02664148 -0.02640017 -0.02609546 -0.02572384 -0.02528066 -0.02476715 -0.024228 -0.02366472 -0.02311265 -0.02256433
 -0.0220052 -0.02142577 -0.02078883 -0.0200949 -0.01932264 -0.01848882 -0.01760362 -0.01669301 -0.01578474 -0.01489742
 -0.01405495 -0.01325276 -0.01249873 -0.01176788 -0.0110521 -0.01034293 -0.009631604 -0.008953613 -0.008311767 -0.007740135
 -0.007242472 -0.006814856 -0.006456935 -0.006156347 -0.005913259 -0.005726376 -0.005593164 -0.005503911 -0.005450039 -0.005401696
 -0.005351483 -0.005267178 -0.005154592 -0.005006081 -0.004835504 -0.004655838 -0.004469643 -0.004283817 -0.004093112 -0.003895402
 -0.003692031 -0.003482133 -0.003272015 -0.00306569 -0.002850062 -0.002628182 -0.002346273 -0.002000482 -0.001545849 -0.0009827592
 -0.000369313 0.0002883006 0.0009041978 0.001487522 0.002036656 0.002564697 0.003111536 0.003680045 0.004294548 0.004954235
 0.005662724 0.006434019 0.007274399 0.008221964 0.009304118 0.01054605 0.01198567 0.01355343 0.01525201 0.01694228
 0.01859223 0.0201325 0.0215444 0.02284573 0.02403473 0.02516536 0.02624153 0.02735358 0.02851012 0.02983925
 0.03132772 0.03300117 0.03479684 0.03652123 0.03816536 0.03959511 0.04088689 0.04209658 0.04327933 0.04451957
 0.04581572 0.04719512 0.04863342 0.05012514 0.05165416 0.053221 0.05478269 0.05633308 0.0578234 0.05924138
 0.06060661 0.06191937 0.06320981 0.06447734 0.06565865 0.06674735 0.06765125 0.06837875 0.0689211 0.06929421
 0.06954481 0.06967635 0.06971737 0.06966816 0.06953362 0.06933472 0.06909081 0.06882743 0.0685707 0.06832508
 0.06810483 0.0678849 0.06766315 0.06740549 0.06710383 0.06673913 0.06630625 0.06580825 0.06524354 0.06464705
 0.06402061 0.06340326 0.06279259 0.06218036 0.06156115 0.06090227 0.06020449 0.05944993 0.0586498 0.05781479
 0.05696555 0.05613729 0.05534197 0.05460849 0.05392831 0.05330395 0.05272681 0.0521895 0.05170231 0.05126584
 0.05089477 0.05059427 0.05036134 0.05019655 0.05009266 0.05004853 0.05007152 0.05016209 0.05033479 0.05058929
 0.05092867 0.05134984 0.05183895 0.05239301 0.05299444 0.05364453 0.05433603 0.05507512 0.05586733 0.05671897
 0.05763925 0.05862946 0.05969396 0.06083001 0.06203655 0.06331436 0.06466194 0.06608792 0.06759539 0.06918262
 0.07085405 0.07256861 0.07432462 0.07606321 0.07778194 0.07946736 0.08112165 0.08277195 0.08440588 0.08598054
 0.08746716 0.08873794 0.08980476 0.09061906 0.09123359 0.0917107 0.09207776 0.09239398 0.09264514 0.0928385
 0.09295936 0.09299999 0.09295963 0.09283768 0.09262859 0.09232906 0.09194697 0.09147981 0.09096565 0.09040909
 0.08980734 0.08915998 0.08843116 0.08762162 0.08672591 0.08574936 0.08471793 0.08363375 0.08252326 0.08137153
 0.08017006 0.0788763 0.07741824 0.0757786 0.07387593 0.07182486 0.06968202 0.0675386 0.06548487 0.06344403
 0.0614057 0.0593167 0.05714631 0.05496802 0.05278372 0.05069562 0.0487158 0.04685669 0.0451187 0.04345294
 0.04185856 0.04030937 0.0388097 0.0373706 0.0359932 0.03468892 0.03345179 0.03227569 0.03115134 0.03006346
 0.02900178 0.02795238 0.02690125 0.02583909 0.02473976 0.02358586 0.02236827 0.02105818 0.01975917 0.018481
 0.01735904 0.01643019 0.01564 0.01499078 0.01436168 0.01374707 0.01310777 0.01244845 0.01181068 0.01119828
 0.01065635 0.01017698 0.00975416 0.009386604 0.009062734 0.008799071 0.008617358 0.008527085 0.008552991 0.008678495
 0.008899815 0.00920002 0.009567521 0.01000022 0.01049436 0.01105293 0.01167201 0.01237651 0.01316272 0.01411005
 0.01522567 0.01657049 0.01814651 0.0198136 0.02155492 0.02312024 0.02451605 0.02564837 0.02654089 0.0272251
 0.02771408 0.02804781 0.02824168 0.02832827 0.02834102 0.02832054 0.02831268 0.02836954 0.02849904 0.02873566
 0.02900754 0.02929603 0.02955096 0.02974824 0.02991489 0.03004973 0.03019498 0.03035545 0.03054295 0.03075817
 0.03098074 0.03120969 0.03142571 0.03163176 0.03183283 0.03203591 0.03226738 0.03253201 0.03285749 0.03323507
 0.03366472 0.03413292 0.03461914 0.03513237 0.03566815 0.03625216 0.03689883 0.0376167 0.03841593 0.03927974
 0.04020477 0.04118373 0.04221161 0.04331506 0.04449659 0.04577237 0.04714307 0.04854049 0.04995711 0.05127747
 0.05250207 0.05357492 0.05450308 0.055285 0.05591797 0.05639681 0.05671224 0.05684527 0.05679492 0.05654993
 0.05612101 0.05551111 0.05473449 0.05379743 0.05271623 0.05149376 0.05015893 0.04871226 0.04721228 0.04566374
 0.04414311 0.04265894 0.04124914 0.0399161 0.03864229 0.03742655 0.03624694 0.03510769 0.0340225 0.03299665
 0.03206021 0.03120583 0.03043523 0.02973001 0.02906159 0.028416 0.02776497 0.02710696 0.02643029 0.02574249
 0.02504358 0.02434381 0.02364634 0.0229605 0.02228934 0.02163739 0.02100671 0.02039186 0.0197928 0.0192001
 0.01861322 0.01803612 0.01747041 0.01693902 0.01644334 0.01600443 0.01561982 0.01529183 0.01501755 0.01479055
 0.01461094 0.014476 0.01438668 0.01434403 0.0143457 0.01439295 0.01447447 0.01458846 0.01471186 0.01483796
 0.01494193 0.01501573 0.01504857 0.01503627 0.01498452 0.01489305 0.01477343 0.0146263 0.01445974 0.0142741
 0.01407461 0.01386265 0.01364785 0.01343398 0.01323888 0.01306713 0.01293954 0.01285586 0.01282748 0.01284536
 0.01290573 0.01299405 0.01309809 0.0132069 0.01330999 0.01340724 0.01349519 0.01358099 0.01366668 0.01375306
 0.01384198 0.01392189 0.013992 0.01404094 0.01406796 0.01407666 0.01406801 0.01405693 0.01404369 0.01403817
 0.01403817 0.01404113 0.01404436 0.01403923 0.01402633 0.01400138 0.01396967 0.01393515 0.01390371 0.01388233
 0.01387118 0.01387325 0.01388358 0.01390082 0.01392193 0.01394559 0.01397202 0.01400154 0.01403112 0.01406079
 0.01408398 0.01410029 0.01410973 0.01411294 0.01411969 0.0141307 0.01415578 0.01419403 0.01424715 0.01431422
 0.01439301 0.01448511 0.01459194 0.01471558 0.01486034 0.01502341 0.01520553 0.01539866 0.01559861 0.01579955
 0.01599732 0.01619355 0.01638743 0.0165837 0.01678342 0.01698716 0.01719556 0.01740224 0.01760692 0.01779899
 0.01797804 0.01813581 0.01827297 0.01838938 0.01848662 0.01857069 0.01864231 0.01870653 0.01876257 0.01881158
 0.01885194 0.01888296 0.01890096 0.01890371 0.01888537 0.01884185 0.01877038 0.01866781 0.01853835 0.01838182
 0.01820559 0.01801088 0.01780245 0.01758097 0.01734862 0.01710555 0.01685306 0.01659127 0.01632217 0.01604607
 0.01576608 0.01548221 0.01519637 0.01490788 0.01461538 0.01431977 0.01402042 0.01372259 0.01343146 0.01315372
 0.01289749 0.01266391 0.01245777 0.01227115 0.01210358 0.01194213 0.01178366 0.01161783 0.01144181 0.01125411
 0.01105368 0.01084827 0.0106382 0.01043522 0.01023992 0.01006265 0.009903695 0.009770316 0.009662199 0.009582107
 0.009529422 0.009503775 0.009505207 0.009533707 0.009589183 0.009672244 0.009780565 0.009912531 0.01006601 0.01023817
 0.01043227 0.01064794 0.01089231 0.01116739 0.01147707 0.01182303 0.01220237 0.01261564 0.01305202 0.013511
 0.01397483 0.01444265 0.01489843 0.01534281 0.01577171 0.01618743 0.01659675 0.01700138 0.01740961 0.01782071
 0.0182385 0.01865802 0.01907619 0.01948432 0.01987375 0.02023984 0.02057554 0.0208866 0.02117295 0.0214431
 0.02169998 0.02194542 0.02218014 0.02240443 0.02261784 0.0228271 0.0230325 0.02324417 0.02346264 0.0236972
 0.02394811 0.02422234 0.02451872 0.02483726 0.02517471 0.02552251 0.02587873 0.02623486 0.02659352 0.02695381
 0.02732084 0.02769823 0.02809114 0.02850399 0.02893826 0.02939736 0.02987359 0.03036711 0.0308631 0.03135902
 0.03184446 0.0323178 0.03277555 0.03321741 0.03364032 0.03404433 0.03442967 0.0347976 0.0351575 0.03551006
 0.03586376 0.03621691 0.03656869 0.03691897 0.0372667 0.0376135 0.03796237 0.03831031 0.03865653 0.03899589
 0.03932398 0.03964176 0.03994827 0.04024638 0.04053716 0.04081992 0.0410941 0.04136304 0.04162659 0.04189308
 0.04216314 0.04243759 0.04271609 0.04299103 0.04326232 0.04352579 0.04378203 0.04403186 0.04427445 0.04450881
 0.04473181 0.04493847 0.04512309 0.04527709 0.04539473 0.04546668 0.04549449 0.04547476 0.04541636 0.04532198
 0.04519865 0.04504815 0.04487775 0.04468695 0.04449506 0.04430343 0.04413537 0.04399285 0.04388019 0.04379668
 0.04372533 0.04366446 0.04359357 0.04351287 0.04341111 0.04329208 0.04315859 0.04301804 0.04288582 0.04276564
 0.04267153 0.04259537 0.04253677 0.0424818 0.04242149 0.042348 0.04225542 0.04214264 0.04200826 0.04185253
 0.04167517 0.04147741 0.04125948 0.04102081 0.04076147 0.04047722 0.04016811 0.03983473 0.03947863 0.03911158
 0.03873564 0.03836581 0.03800277 0.03765671 0.03732564 0.03701257 0.03670977 0.03641037 0.03610243 0.03577222
 0.03541438 0.03502004 0.03459388 0.03413567 0.03365056 0.03313986 0.03260747 0.0320532 0.03148744 0.03091132
 0.03033342 0.02975477 0.02916856 0.02857429 0.02796028 0.02732771 0.02667979 0.0260199 0.02536422 0.02471513
 0.02408727 0.0234817 0.02290731 0.0223639 0.02185615 0.02137936 0.020933 0.02050632 0.02009365 0.01968347
 0.01926829 0.01884666 0.01841382 0.01798547 0.01756236 0.0171673 0.0168039 0.01647935 0.01619495 0.01593577
 0.01570092 0.01547203 0.01524943 0.01502744 0.01480771 0.01459455 0.01438871 0.01419529 0.01401228 0.01383936
 0.01367137 0.01350075 0.01332549 0.01313829 0.01294807 0.0127573 0.01257703 0.01241559 0.01226729 0.012135
 0.01199779 0.01185212 0.01168243 0.01148538 0.01126239 0.01101288 0.0107525 0.01048237 0.01022608 0.009984601
 0.009777391 0.009602698 0.009463836 0.009357055 0.009273594 0.00921057 0.009159155 0.00911582 0.00907285 0.009026365
 0.008967837 0.008902688 0.008828294 0.00876285 0.008713354 0.008693939 0.008712852 0.008764227 0.008849886 0.008952296
 0.009069283 0.009190891 0.009316033 0.009445084 0.009577867 0.009710827 0.00984244 0.009957884 0.01005634 0.01012448
 0.01016632 0.01018576 0.01018862 0.01018957 0.01018844 0.0101922 0.0101958 0.01019601 0.01019162 0.01018022
 0.010164 0.0101445 0.01011877 0.01008641 0.0100438 0.009988174 0.009930084 0.009868991 0.009828904 0.009811518
 0.009835639 0.009901674 0.01000947 0.01015696 0.01032722 0.01051737 0.01070529 0.01088984 0.01105495 0.01120421
 0.01133506 0.0114566 0.01157972 0.01171278 0.01187031 0.01204795 0.01225154 0.01246002 0.01266694 0.01285054
 0.01300053 0.01311571 0.01319142 0.01324783 0.01328606 0.01333046 0.01338311 0.01345678 0.01355166 0.01366328
 0.01378997 0.01391518 0.01403797 0.01414402 0.01423616 0.01431482 0.01438425 0.01445459 0.0145247 0.01459888
 0.01467028 0.01473244 0.0147847 0.01482033 0.01485573 0.01489414 0.01495859 0.01505907 0.01519931 0.01538513
 0.01559379 0.01582379 0.01605058 0.01627176 0.01648062 0.01667694 0.01686182 0.01703494 0.01719264 0.01733589
 0.01746575 0.01758689 0.01771386 0.01785026 0.01801202 0.01819588 0.01840609 0.01863241 0.01886838 0.01909993
 0.01931659 0.01950649 0.01966029 0.01977741 0.01985314 0.01990216 0.01992495 0.01994405 0.01996199 0.01999884
 0.02005661 0.02014307 0.02025826 0.02039328 0.02054687 0.02070343 0.02086314 0.02101886 0.02117137 0.0213207
 0.02146418 0.02159684 0.02171499 0.02180924 0.0218835 0.02193486 0.02197825 0.02202093 0.02208063 0.02216918
 0.02228979 0.0224497 0.02262943 0.02282716 0.02302076 0.02320547 0.02338254 0.0235511 0.02372757 0.02391252
 0.02410977 0.02431826 0.02452885 0.0247413 0.02495013 0.02515522 0.02535384 0.02554488 0.02572342 0.02589194
 0.02605177 0.02620563 0.02635877 0.02650609 0.02664491 0.0267736 0.02688659 0.02700049 0.0271189 0.02725736
 0.02742261 0.02760592 0.02780784 0.02801212 0.02821718 0.02841932 0.0286182 0.02880785 0.02898686 0.0291374
 0.02926047 0.0293492 0.02941061 0.02946232 0.02951173 0.0295843 0.02967974 0.02981093 0.02996803 0.03014639
 0.03033594 0.03052453 0.03071942 0.03091788 0.03114017 0.03139565 0.0316822 0.03200607 0.03233061 0.03265186
 0.03293982 0.03319037 0.0334116 0.03360415 0.03379584 0.03398738 0.03419622 0.03442083 0.03466261 0.0349199
 0.03518693 0.03546624 0.03575908 0.03607171 0.03641688 0.03679007 0.03719721 0.03761465 0.03802917 0.03841821
 0.03876536 0.03906721 0.03931905 0.03952305 0.03967922 0.03978728 0.03984534 0.03986955 0.03985997 0.03985037
 0.03984246 0.03986403 0.03991512 0.04000703 0.04013712 0.04029971 0.04048906 0.0406832 0.04087972 0.04105996
 0.04123145 0.04139854 0.0415649 0.04174169 0.04191217 0.0420702 0.04219449 0.04227029 0.04229603 0.04226552
 0.04219316 0.04207912 0.04194598 0.04179481 0.04166023 0.041545 0.04147911 0.04146389 0.04150097 0.04158908
 0.04171546 0.04187867 0.04206791 0.04227669 0.04248029 0.04266895 0.04280596 0.04289487 0.04292036 0.04290258
 0.04285381 0.04279996 0.04275795 0.04276309 0.0428362 0.04300275 0.0432933 0.04363574 0.04402865 0.04435374
 0.04458319 0.04473414 0.04480242 0.04486959 0.04493941 0.04505096 0.04520289 0.04539372 0.04562012 0.04586645
 0.04612666 0.04637531 0.04660277 0.04677521 0.04688771 0.04691638 0.04686555 0.04672737 0.04651856 0.04624138
 0.04593442 0.04561288 0.04532081 0.04508008 0.04489937 0.04478929 0.04472038 0.04469064 0.04466974 0.04465464
 0.04462961 0.04459376 0.04453829 0.04446378 0.04437308 0.04426828 0.04416304 0.04405698 0.04395606 0.04385859
 0.04376191 0.04366922 0.04358551 0.04351025 0.04344848 0.04338724 0.04331676 0.04323396 0.04313154 0.04302218
 0.04290905 0.04279985 0.04269484 0.0426102 0.04254577 0.04253655 0.04258686 0.04270163 0.04288097 0.04308389
 0.04330901 0.04352766 0.04374195 0.04395131 0.04415361 0.04434049 0.04451049 0.04465443 0.04477665 0.04488272
 0.04496845 0.04503224 0.04506755 0.04506188 0.04503591 0.04499308 0.04496495 0.04496837 0.04499931 0.0450627
 0.04513351 0.04520679 0.04528059 0.04535375 0.04543594 0.0455276 0.04562679 0.04573406 0.04585503 0.04599134
 0.04615839 0.04635091 0.04656104 0.04677817 0.04697314 0.04714172 0.04726396 0.04734107 0.04736503 0.0473443
 0.04727685 0.04719003 0.04709473 0.04702033 0.04698295 0.04698371 0.04702755 0.04710025 0.04719996 0.0473199
 0.04746014 0.04760409 0.0477508 0.04786598 0.04794848 0.04797429 0.04794505 0.04785698 0.04771363 0.04752183
 0.04729147 0.04704653 0.04679963 0.04658484 0.0463994 0.04625622 0.04614021 0.04604169 0.04595672 0.04588019
 0.04581331 0.04575954 0.04570132 0.0456372 0.04554148 0.04540864 0.04523203 0.04500886 0.0447606 0.04448833
 0.04423947 0.04401602 0.04386067 0.04376616 0.04371559 0.0436931 0.04362882 0.04352446 0.04334046 0.04310767
 0.04285994 0.04261814 0.04242729 0.0422706 0.04215156 0.04204584 0.0419373 0.0418256 0.04170403 0.04158987
 0.04148568 0.04140737 0.04135901 0.04134081 0.04135394 0.04138445 0.04143163</values></Ydata></AB><ScSm><Ydata ylabel="Single channel"><values byteorder="INTEL" format="FLOAT32" numvalues="1814"> 0.07114175 0.07115431 0.0712307 0.07138878 0.07159917 0.07180004 0.07194014 0.07201262 0.0720367 0.07201625
 0.07195196 0.07189358 0.07193045 0.07210365 0.0723483 0.07253731 0.07258406 0.07252099 0.07248212 0.07256986
 0.07271308 0.07269052 0.07234056 0.07174759 0.07118414 0.07085928 0.07079209 0.07097537 0.07150452 0.07231761
 0.07291348 0.07271428 0.07179201 0.07089534 0.07061973 0.07083862 0.07105387 0.07097073 0.07058767 0.07008263
 0.06986435 0.07046524 0.07202037 0.07383247 0.07462023 0.07332903 0.06988528 0.06543285 0.06190696 0.06099877
 0.06296991 0.06630661 0.06885228 0.0695276 0.06885443 0.0678716 0.06700954 0.06622072 0.0657081 0.065966
 0.06710084 0.06837302 0.06858189 0.06709334 0.06459086 0.062588 0.06204631 0.06277322 0.06423523 0.06614628
 0.06764041 0.06679136 0.0624993 0.05689793 0.05441426 0.05756131 0.0642587 0.06986955 0.07133196 0.06888591
 0.0647337 0.06120669 0.05988693 0.06118555 0.064262 0.06771818 0.0704469 0.07169741 0.07089444 0.06813215
 0.0646601 0.06227823 0.06222987 0.06471667 0.06886396 0.0727971 0.07448253 0.07322554 0.07013898 0.06696533
 0.06492253 0.06469822 0.0666236 0.07033578 0.0747485 0.07867894 0.08133536 0.08240324 0.08210785 0.08106766
 0.07982466 0.07875706 0.07840739 0.0791494 0.08031435 0.08044238 0.07886833 0.07660408 0.07529401 0.07551266
 0.07630552 0.07635318 0.07530984 0.07359925 0.07111225 0.06716295 0.06206229 0.05755972 0.05509769 0.05470106
 0.05600652 0.05883607 0.06198639 0.06315057 0.06144358 0.05902429 0.05896356 0.06196585 0.0659979 0.06876251
 0.06982535 0.07045838 0.07200362 0.07450318 0.07652749 0.07625419 0.07327046 0.06959136 0.06823975 0.07028358
 0.07380871 0.07627301 0.07718594 0.07785153 0.07907902 0.07993363 0.0787148 0.07498107 0.07065077 0.06882599
 0.0710922 0.07592748 0.07980267 0.07979734 0.07556896 0.06943071 0.06454413 0.06272811 0.06396623 0.06761371
 0.07311141 0.07935576 0.08439835 0.08653916 0.08557337 0.08269066 0.07911317 0.07496502 0.06992307 0.06509952
 0.06327628 0.06628253 0.07266603 0.07890074 0.08253253 0.08341365 0.08235046 0.07959812 0.0750605 0.06971459
 0.06609881 0.06635651 0.06965846 0.07265466 0.07298127 0.07142585 0.07022025 0.07025343 0.07072395 0.07084268
 0.07095404 0.07193726 0.07394723 0.07606123 0.07717251 0.07700446 0.07616801 0.07544547 0.07508019 0.07460204
 0.0734845 0.0721744 0.07206294 0.07397184 0.07703514 0.0795878 0.08083937 0.08118139 0.08109529 0.08029642
 0.07815106 0.07488199 0.07207078 0.0714938 0.07340805 0.07638554 0.07879773 0.07998689 0.08012752 0.07964954
 0.07894281 0.07821675 0.07755873 0.07721663 0.07754986 0.07851957 0.07955316 0.08012101 0.08017972 0.07992298
 0.07940088 0.07858096 0.07761646 0.07686864 0.07665241 0.07700028 0.07768576 0.07842655 0.07899291 0.07918885
 0.07892531 0.07834996 0.07775037 0.07729053 0.0769645 0.07679169 0.07687461 0.07721852 0.07763985 0.0779264
 0.07800949 0.07793963 0.07776972 0.07751766 0.07720694 0.07690445 0.07671671 0.07672489 0.07689251 0.07707749
 0.07718552 0.07726234 0.07737172 0.07744889 0.07737206 0.07714085 0.07689236 0.07675305 0.0767374 0.07677865
 0.0767964 0.07671399 0.07645801 0.07601988 0.07554176 0.07526939 0.07535517 0.07573863 0.07624039 0.07670359
 0.07702459 0.07715421 0.07713355 0.07706301 0.07699016 0.07687202 0.07666669 0.07642815 0.07629449 0.07638156
 0.07667471 0.07703283 0.07731073 0.07745665 0.07749701 0.07749098 0.07751171 0.07759532 0.07768406 0.07768137
 0.07757957 0.07748106 0.07748305 0.07757539 0.077659 0.07765333 0.07758623 0.07756802 0.0776676 0.07783948
 0.07799023 0.07808564 0.07816538 0.07826948 0.07837281 0.07839987 0.07831177 0.07816647 0.07806186 0.07803026
 0.07803375 0.07805615 0.07813743 0.07829908 0.07848324 0.07859918 0.07861601 0.07858473 0.07856733 0.07856316
 0.07852244 0.07842089 0.07829376 0.07819544 0.07815047 0.07814857 0.07816486 0.07817276 0.07815009 0.07808697
 0.07799079 0.07787932 0.07776739 0.0776661 0.07759862 0.07760017 0.07767869 0.07777797 0.07780545 0.07771312
 0.07754497 0.07739422 0.07731358 0.07727392 0.07721088 0.07709908 0.07696866 0.0768607 0.07678837 0.07674019
 0.07669975 0.07665803 0.07662609 0.07664427 0.07675593 0.07694978 0.07714084 0.0772367 0.07722456 0.0771748
 0.07716284 0.07720897 0.07728928 0.07737877 0.0774781 0.0776082 0.07777456 0.07793717 0.07803939 0.0780739
 0.07809533 0.07816379 0.07830303 0.07850742 0.07874518 0.07895211 0.07907154 0.07911846 0.07917094 0.07928451
 0.07944275 0.07960087 0.07974546 0.07989261 0.08005234 0.08022423 0.08042015 0.08066505 0.08096948 0.0813107
 0.08164147 0.08191574 0.0821209 0.08229885 0.0825254 0.08284887 0.08324559 0.08364157 0.083978 0.08425486
 0.08451401 0.08478668 0.08506992 0.08535869 0.08567904 0.08606134 0.08649115 0.08691797 0.08731231 0.08768829
 0.08807066 0.08846445 0.08886194 0.08926293 0.08967975 0.09012211 0.09057461 0.09099543 0.09135139 0.09165333
 0.09194794 0.09228029 0.09266777 0.09308983 0.0934878 0.09380008 0.09402668 0.0942437 0.09452488 0.09486048
 0.09518455 0.09547242 0.09577177 0.09613061 0.09652954 0.09690701 0.0972332 0.09753597 0.09785622 0.09819309
 0.09849978 0.09873285 0.09890117 0.09905812 0.09924683 0.09947251 0.09973624 0.1000637 0.1004677 0.1009012
 0.1012848 0.1015764 0.1017893 0.1019565 0.1021088 0.1022741 0.1024639 0.1026655 0.1028622 0.1030466
 0.1032052 0.1033235 0.1034259 0.1035745 0.1038044 0.1040903 0.1043974 0.1047287 0.1050935 0.1054614
 0.1057949 0.1061129 0.106473 0.1068821 0.1072648 0.1075413 0.107707 0.1078103 0.1078878 0.1079641
 0.10809 0.1083209 0.1086531 0.1090179 0.1093469 0.1096194 0.1098461 0.1100366 0.1101904 0.1103069
 0.1103942 0.1104724 0.1105721 0.110732 0.110988 0.1113468 0.1117619 0.1121488 0.1124385 0.1126089
 0.1126624 0.1126026 0.1124559 0.1122904 0.1121678 0.1120728 0.1119143 0.1116028 0.1111099 0.1104567
 0.1096714 0.1087778 0.107816 0.1068561 0.1059852 0.105281 0.1047985 0.1045822 0.104672 0.105073
 0.1057136 0.1064524 0.107136 0.1076411 0.1078689 0.1077434 0.1072464 0.1064428 0.105449 0.1043784
 0.1033145 0.1023053 0.1013623 0.1004859 0.09972236 0.09919405 0.09905927 0.09944315 0.1003996 0.1019019
 0.1038335 0.1059894 0.1081285 0.1100637 0.1117244 0.1131402 0.1143768 0.1154914 0.116526 0.1175022
 0.1184136 0.1192435 0.1199954 0.1206896 0.121331 0.1218989 0.1223693 0.1227315 0.1229889 0.12316
 0.1232736 0.1233477 0.1233843 0.1233895 0.1233796 0.1233503 0.1232509 0.1230055 0.12256 0.1219137
 0.1211341 0.1203675 0.1198403 0.1198223 0.1205311 0.1220145 0.1240994 0.126465 0.1287837 0.1308218
 0.1324683 0.1337253 0.1346791 0.1354446 0.1361133 0.1367373 0.1373411 0.1379304 0.1384973 0.1390327
 0.1395362 0.1400166 0.1404891 0.1409675 0.1414493 0.1419124 0.1423376 0.1427344 0.1431395 0.143584
 0.1440635 0.1445446 0.1450014 0.1454392 0.1458707 0.146285 0.1466573 0.1469866 0.1473044 0.147647
 0.1480359 0.1484708 0.148922 0.149337 0.1496777 0.1499542 0.1502118 0.1504884 0.150793 0.151118
 0.1514542 0.1517906 0.1521134 0.15242 0.1527287 0.1530557 0.1533837 0.1536716 0.1539026 0.1541093
 0.154342 0.1546197 0.1549174 0.155196 0.1554437 0.1556902 0.1559773 0.1563134 0.1566621 0.1569769
 0.1572402 0.1574689 0.1576925 0.1579308 0.1581888 0.158465 0.1587549 0.1590488 0.1593339 0.1596033
 0.1598613 0.1601159 0.1603718 0.1606304 0.1608921 0.1611558 0.16142 0.1616834 0.1619471 0.1622184
 0.1625092 0.1628201 0.1631288 0.163406 0.1636422 0.1638536 0.1640627 0.1642846 0.1645245 0.1647802
 0.1650434 0.1653054 0.1655652 0.16583 0.1661076 0.1663956 0.1666819 0.1669566 0.1672231 0.1674929
 0.167773 0.1680602 0.168345 0.1686159 0.1688668 0.1691035 0.1693418 0.1695926 0.1698522 0.1701093
 0.1703565 0.1705961 0.1708376 0.1710882 0.1713461 0.1716032 0.1718532 0.1720947 0.1723296 0.1725626
 0.1728003 0.1730466 0.1733009 0.1735609 0.1738244 0.1740877 0.1743435 0.1745851 0.1748118 0.1750312
 0.1752534 0.175484 0.1757242 0.1759755 0.1762362 0.1764958 0.1767416 0.1769721 0.1771978 0.1774297
 0.1776693 0.1779111 0.1781507 0.1783914 0.1786394 0.1788927 0.1791406 0.1793765 0.1796061 0.1798406
 0.1800859 0.1803385 0.1805883 0.1808269 0.1810575 0.181293 0.1815414 0.1817974 0.1820481 0.1822875
 0.1825218 0.182762 0.1830093 0.1832542 0.1834894 0.1837151 0.1839326 0.184142 0.184348 0.1845575
 0.1847735 0.1849968 0.185228 0.1854636 0.1856968 0.1859259 0.1861548 0.1863864 0.1866206 0.186856
 0.1870918 0.1873297 0.1875727 0.1878189 0.188062 0.1883017 0.1885424 0.1887816 0.1890142 0.1892427
 0.1894746 0.1897129 0.1899581 0.190208 0.1904538 0.1906902 0.1909253 0.1911686 0.1914178 0.1916664
 0.1919117 0.19215 0.1923794 0.1926073 0.1928404 0.1930765 0.1933126 0.193548 0.1937796 0.1940084
 0.194245 0.1944927 0.1947393 0.1949771 0.1952106 0.19544 0.1956608 0.1958773 0.1960979 0.1963236
 0.1965555 0.1967956 0.197037 0.1972706 0.1974988 0.1977281 0.197961 0.1982018 0.1984457 0.198661
 0.1987861 0.1986958 0.1980886 0.1963594 0.1925795 0.1856827 0.1748961 0.1602321 0.1426515 0.1237183
 0.1050264 0.08779471 0.07274891 0.06020552 0.05022327 0.04271162 0.03750013 0.03444099 0.0335172 0.03496124
 0.03938375 0.04741306 0.05833172 0.06886593 0.07445481 0.07284878 0.06625772 0.05933334 0.0552983 0.0543834
 0.05521332 0.05661334 0.05821339 0.06023215 0.06304136 0.06674256 0.07114923 0.07624899 0.08243245 0.08999872
 0.09855466 0.1071758 0.1152055 0.1227737 0.1304901 0.1387115 0.1471689 0.1552315 0.1624113 0.1686115
 0.1740325 0.1789461 0.1835398 0.1878985 0.1920599 0.196014 0.1996154 0.2025523 0.2044987 0.205362
 0.205395 0.2050543 0.2047343 0.2046155 0.2047122 0.2049923 0.2054334 0.2060173 0.2067225 0.2075211
 0.2083786 0.2092625 0.2101494 0.2110179 0.2118446 0.2126152 0.2133281 0.2139837 0.2145804 0.2151222
 0.2156157 0.2160655 0.2164776 0.2168617 0.2172251 0.2175729 0.2179133 0.2182506 0.2185742 0.2188634
 0.2191076 0.2193155 0.2195092 0.2197079 0.2199159 0.220125 0.2203299 0.2205367 0.2207524 0.2209746
 0.2211927 0.2213977 0.2215896 0.2217774 0.2219709 0.2221711 0.2223713 0.2225675 0.2227608 0.2229549
 0.2231548 0.2233641 0.2235765 0.2237781 0.2239612 0.2241313 0.224301 0.2244825 0.2246833 0.2248978
 0.2251102 0.2253144 0.2255194 0.2257343 0.2259595 0.2261943 0.2264373 0.2266786 0.2269075 0.2271217
 0.2273208 0.2274995 0.2276589 0.2278167 0.2279981 0.2282151 0.2284538 0.2286836 0.2288866 0.2290753
 0.229272 0.2294801 0.2296835 0.2298646 0.2300246 0.2301951 0.2304204 0.2307101 0.2310226 0.2313128
 0.2315729 0.2318163 0.2320539 0.2322947 0.2325375 0.2327524 0.2329054 0.2330147 0.2331625 0.2334312
 0.2338205 0.2342342 0.2345704 0.2348165 0.235036 0.235285 0.2355734 0.2358637 0.2360591 0.236064
 0.235937 0.235919 0.236218 0.2367981 0.2374409 0.2379675 0.2383499 0.2386521 0.2389254 0.2391575
 0.23929 0.2392875 0.2392164 0.2392519 0.2395555 0.2401095 0.2407167 0.2411966 0.2415237 0.2417573
 0.2419421 0.2421051 0.2422132 0.2421105 0.2416813 0.2411504 0.2410292 0.2416184 0.242664 0.2436265
 0.2442178 0.244552 0.244837 0.2451189 0.2453417 0.2454004 0.2450286 0.2439503 0.242425 0.2413955
 0.2417115 0.243276 0.2452031 0.2466988 0.2475608 0.2479881 0.2482371 0.248448 0.2485396 0.2482174
 0.2473004 0.2461566 0.2456163 0.2462082 0.2475658 0.2488204 0.2494923 0.2497523 0.2499552 0.2502359
 0.2504155 0.249972 0.2483432 0.2457546 0.2436265 0.2435794 0.2458577 0.2490374 0.2514314 0.2525382
 0.2529228 0.252982 0.2523611 0.2506011 0.2478364 0.2447396 0.2423024 0.2416919 0.2434811 0.2466888
 0.2493349 0.2503912 0.2506524 0.2514304 0.2529927 0.2545639 0.2553302 0.2550656 0.2540079 0.252427
 0.2504908 0.2486568 0.2479151 0.249097 0.2518665 0.2548327 0.2568297 0.2578022 0.2582081 0.2576624
 0.2546552 0.2483651 0.2409429 0.2369308 0.239258 0.2461765 0.2531367 0.2572643 0.2589487 0.259712
 0.2601624 0.2598198 0.2574053 0.2515465 0.2429373 0.2356905 0.2345566 0.2402289 0.2485643 0.2544535
 0.2552981 0.2512791 0.2444439 0.2381101 0.2355208 0.2378764 0.2437943 0.2506793 0.2562928 0.2593786
 0.259648 0.2576533 0.2547477 0.2527603 0.2526746 0.2531813 0.2516671 0.2475112 0.2431137 0.2403823
 0.2377959 0.2332313 0.2286001 0.2285982 0.2345881 0.2423151 0.2466835 0.2469293 0.2457272 0.244339
 0.2404809 0.2316172 0.2197289 0.2114317 0.2121816 0.2206107 0.2297422 0.2338098 0.2328379 0.2306376
 0.2297285 0.2288126 0.2247024 0.2165338 0.2079087 0.2038971 0.2056823 0.2095108 0.2111501 0.2092838
 0.2040732 0.1957791 0.1871519 0.1843455 0.191731 0.2065346 0.220985 0.2287163 0.2271335 0.2160369
 0.1984748 0.1825692 0.1775949 0.1857034 0.1993206 0.208102 0.2071627 0.1980075 0.1841076 0.1684727
 0.1549921 0.1489137 0.1537196 0.1675815 0.1834171 0.1924508 0.1890731 0.1751595 0.1603925 0.1553131
 0.1617852 0.171724 0.1761499 0.173332 0.1675823 0.1636406 0.1638956 0.1680078 0.1733147 0.1773075
 0.1796547 0.1795281 0.1729067 0.1574461 0.139121 0.1283481 0.1291454 0.1370384 0.1474224 0.15969
 0.1717485 0.1771774 0.1724499 0.1636138 0.1611705 0.1689364 0.1807456 0.1879671 0.1880504 0.1850378
 0.1832917 0.1827997 0.1813566 0.1796731 0.1815683 0.1886992 0.1976513 0.2037352 0.2058608 0.2061254
 0.2062416 0.206239 0.2056693 0.204377 0.2024245 0.200214 0.1983654 0.1970118 0.1956713 0.1939639
 0.1916204 0.1874743 0.1797271 0.1685705 0.1578262 0.1519832 0.1515102 0.1531158 0.1546052 0.1561985
 0.1560785 0.1490583 0.1333994 0.1164761 0.1094274 0.1164052 0.1314867 0.1454369 0.1527584 0.1521802
 0.1439574 0.1301514 0.1169694 0.1128325 0.1215182 0.1385644 0.15609 0.1695783 0.1783406 0.1817771
 0.1787225 0.1703223 0.1611261 0.1564987 0.1593967 0.1690526 0.1811542 0.1888758 0.1862263 0.1740529
 0.1627827 0.1647151 0.1810387 0.1997783 0.2092496 0.2099201 0.2096216 0.2113599 0.2118336 0.2100864
 0.2109599 0.2184645 0.2298658 0.2383647 0.23908 0.2309941 0.2162603 0.2005939 0.1918079 0.19363
 0.2015479 0.2077706 0.2088017 0.2050089 0.1960041 0.1825538 0.171494 0.1716339 0.1835282 0.1982362
 0.2074834 0.2112172 0.2139204 0.2168674 0.2165723 0.2100815 0.1998982 0.1924443 0.1917115 0.1957675
 0.2000272 0.2020728 0.2017423 0.1984427 0.1914931 0.1831155 0.178463 0.1811818 0.1896752 0.198628
 0.2037966 0.2046967 0.203327 0.2016075 0.2000934 0.1981538 0.1952645 0.1926818 0.1932046 0.1981349
 0.205118 0.2105155 0.2135551 0.216588 0.221378 0.2266475 0.2296219 0.2290636 0.2264685 0.2247922
 0.2260987 0.2299144 0.2335597 0.2344262 0.2324607 0.2304496 0.231448 0.235851 0.2413322 0.24547
 0.2477186 0.2489118 0.2498446 0.2505968 0.2504957 0.2486396 0.2452149 0.2422895 0.2423707 0.2459201
 0.2508985 0.2548485 0.2568605 0.2574669 0.2573395 0.256579 0.2550781 0.2531378 0.2514844 0.2507144
 0.2508805 0.2516329 0.2525859 0.2534803 0.2541754 0.2546496 0.2549679 0.2551906 0.2553428 0.2554583
 0.2555624 0.2556047 0.2555084 0.2553248 0.2552503 0.2554208 0.255744 0.2559933 0.2560137 0.2557527
 0.255149 0.2541332 0.252753 0.2511718 0.2494912 0.2476801 0.2457928 0.24422 0.2435775 0.2442417
 0.245999 0.2481822 0.2501309 0.2515174 0.252335 0.2527259 0.2528603 0.2528875 0.2529039 0.2529342
 0.2529534 0.2529331 0.2528705 0.2527799 0.2526754 0.252576 0.2525151 0.2525207 0.2525838 0.2526535
 0.2526647 0.252571 0.2523683 0.2520935 0.2517895 0.251461 0.2510661 0.250551 0.249896 0.2491356
 0.2483436 0.247588 0.2468815 0.2461715 0.2453857 0.2444853 0.2434582 0.2422798 0.2409324 0.2394775
 0.238057 0.2367827 0.235649 0.234571 0.2334689 0.2322961 0.2310306 0.2296817 0.2282899 0.226896
 0.2255123 0.2241247 0.2227096 0.2212477 0.21973 0.218155 0.2165202 0.2148219 0.2130625 0.2112509
 0.2093801 0.2073951 0.2051901 0.202643 0.1996516 0.1961437 0.1920919 0.1875528 0.1826839 0.1776991
 0.1728031 0.1681544 0.1638654 0.1600184 0.1566842 0.1539239 0.1517774 0.1502621 0.1493855 0.149153
 0.1495617 0.1505898 0.1521788 0.1542212 0.1565717 0.1590761 0.1615844 0.163959 0.166113 0.1680568
 0.1698829 0.1716801 0.1734582 0.1751579 0.1767253 0.1781497 0.1794276 0.1805295 0.1814299 0.1821491
 0.1827403 0.1832498 0.1837031 0.1841103 0.1844683 0.184771 0.1850261 0.1852594 0.1855031 0.185784
 0.1861159 0.1865003 0.1869418 0.1874593 0.1880737 0.1887854 0.1895646 0.1903645 0.1911556 0.1919542
 0.1928066 0.1937477 0.1947952 0.1959774 0.1973343 0.1988819 0.2005971 0.2024303 0.204314 0.2061629
 0.2078849 0.2093991 0.2106476 0.2116088 0.2123034 0.2127813 0.2130957 0.2132824 0.213351 0.2132977
 0.2131272 0.2128582 0.2125109 0.2121035 0.2116546 0.2111783 0.2106814 0.2101742 0.2096672 0.2091548
 0.2086272 0.2081037 0.2076275 0.2072217 0.2068659 0.2065184 0.2061459 0.2057375 0.2052982 0.2048334
 0.2043411 0.2038148 0.2032378 0.2025722 0.201775 0.2008331 0.1997674 0.1986001 0.1973357 0.1959732
 0.1945253 0.1930183 0.1914755 0.1899024 0.1882921 0.1866329 0.1848995 0.1830561 0.1811033 0.1791153
 0.1771999 0.1754175 0.1737566 0.1721725 0.1706295 0.1691222 0.1676737 0.1663074 0.1650171 0.1637761
 0.1625718 0.1614155 0.1603246 0.1593102 0.1583793 0.1575363 0.1567824 0.1561141 0.1555236 0.1550043
 0.1545539 0.1541697 0.1538516 0.1536173 0.1534931 0.1534684 0.1534735 0.1534216 0.1532706 0.1530406
 0.1527817 0.1525352 0.1523215 0.1521484 0.1520088 0.1518599 0.1516198 0.1511986 0.1505282 0.1495702
 0.14832 0.1468137 0.1451165 0.143312 0.141509 0.1398303 0.1383705 0.137173 0.1362416 0.1355454
 0.1350179 0.134591 0.134242 0.1340015 0.1339192 0.1340041 0.1341715 0.1342722 0.1342269 0.1341198
 0.1341266 0.1343644 0.1348266 0.1354191 0.1360241 0.1365527 0.1369634 0.1372423 0.1373881 0.1374204
 0.1373693 0.1372454 0.1370386 0.136746 0.136387 0.135994 0.1355859 0.1351395 0.1346063 0.1339722
 0.133263 0.1324859 0.1316149 0.1306329 0.1295334 0.1283108 0.127029 0.1258786 0.1250972 0.1248282
 0.1250553 0.1256274 0.1263531 0.1271151 0.1278491 0.1283986 0.1285571 0.1284021 0.1284674 0.1293641
 0.1311889 0.1334033 0.1353057 0.1365317 0.13709 0.1370935 0.1366096 0.1356793 0.1343096 0.1324742
 0.1302101 0.1276463 0.1249031 0.1220813 0.1193467 0.1168796 0.114764 0.1130166 0.1116456 0.110706
 0.1103276 0.1101591 0.1084504 0.1029763 0.09444723 0.0880232 0.08897799 0.09677842 0.1054535 0.1099064
 0.1099758 0.1083571 0.1069244 0.1059831 0.1054629 0.1055024 0.1062119 0.107448 0.108834 0.109973
 0.1106958 0.1110412 0.1109877 0.1102356 0.1081453 0.1039435 0.09734368 0.08911654 0.08083512 0.07394733
 0.06912333 0.06627037 0.06483422 0.06412091 0.063646 0.06335951 0.06354006 0.06446426 0.06617887 0.06854831
 0.07140272 0.0745187 0.07752119 0.08002892 0.08195126 0.08347881 0.08474868 0.08567619 0.0861312 0.08611953
 0.08575612 0.08517198 0.08447617 0.08372836 0.08290267 0.08191696 0.08076857 0.07965036 0.07884708 0.07847178
 0.07838112 0.07837485 0.07837036 0.07835889 0.07832231 0.07824636 0.07814769 0.0780845 0.07816687 0.07848813
 0.07900066 0.07952315 0.07989514 0.0800852 0.08015987 0.08016366 0.08000819 0.07955083 0.07886147 0.07825627
 0.07788253 0.07743642 0.07655789 0.07539538 0.0745094 0.07426232 0.07451113 0.07485946 0.07501777 0.0749224
 0.07470402 0.0746315 0.07493849 0.07554518</values></Ydata></ScSm><ScRf><Ydata ylabel="Single channel"><values byteorder="INTEL" format="FLOAT32" numvalues="1820"> 0.06080621 0.06096494 0.06105938 0.06109165 0.0610863 0.06108721 0.06114361 0.06128069 0.06147793 0.06167687
 0.06182011 0.06188927 0.06189926 0.06186261 0.06179031 0.06172989 0.06175798 0.06190742 0.06211852 0.06227878
 0.06231326 0.06225105 0.06220823 0.06227376 0.06238846 0.06236264 0.06205434 0.06153315 0.06103573 0.06074754
 0.06068628 0.06084127 0.06129292 0.06199412 0.06251887 0.06236475 0.06158353 0.06081648 0.06057967 0.060765
 0.06094123 0.06085663 0.06051773 0.06008235 0.05989908 0.06042115 0.0617641 0.06332764 0.06400253 0.06287205
 0.05987386 0.05600794 0.05295753 0.05218256 0.05389753 0.05678473 0.05898038 0.0595588 0.0589793 0.05814299
 0.05741461 0.05673705 0.05627567 0.05646817 0.05742971 0.05853058 0.05871855 0.05742845 0.05525363 0.05351689
 0.05305396 0.05369034 0.05495749 0.056606 0.05788533 0.05713037 0.05339978 0.04855323 0.04642562 0.04918308
 0.05501122 0.05988365 0.06114162 0.05899804 0.05538336 0.05234106 0.05123805 0.05239789 0.05506434 0.05802823
 0.06035103 0.06139909 0.06068356 0.05829208 0.05530445 0.05326699 0.05324424 0.05540509 0.05898928 0.06237469
 0.0638108 0.06270898 0.060035 0.05729057 0.05552583 0.05533648 0.05700826 0.06022609 0.06405358 0.06747029
 0.06978485 0.07071377 0.07045072 0.06954388 0.06847543 0.06757128 0.06728694 0.06793281 0.06892755 0.06901568
 0.06763466 0.06567048 0.06454638 0.06474907 0.06544029 0.0654745 0.0645584 0.06306665 0.06090813 0.05749009
 0.05308261 0.04919715 0.04707469 0.04673629 0.04788172 0.05037029 0.05315185 0.05420428 0.05274452 0.05064368
 0.05057199 0.05315072 0.05662824 0.05901998 0.05994811 0.0605088 0.06186099 0.06404169 0.06581245 0.06559007
 0.06301351 0.05983497 0.05868325 0.06048043 0.06355347 0.06569789 0.06650995 0.06714149 0.06828879 0.06911141
 0.06810933 0.06490458 0.06118918 0.05967159 0.06171416 0.06596978 0.06936193 0.06935979 0.06568117 0.0603546
 0.0561399 0.05461984 0.05578469 0.05908878 0.06405155 0.06969225 0.07427993 0.07630239 0.07555935 0.07308654
 0.0699725 0.06634974 0.061948 0.05776258 0.05627151 0.05909908 0.06493849 0.07063785 0.07401285 0.07493813
 0.07412194 0.07175907 0.06774203 0.0629797 0.0598269 0.06025273 0.06346723 0.06636821 0.06678588 0.06546175
 0.06446047 0.0646034 0.06515582 0.06540084 0.06567071 0.06677991 0.06885185 0.07100313 0.07219075 0.07215977
 0.07149505 0.07094638 0.07074555 0.0704354 0.06951524 0.06843404 0.06853338 0.07057247 0.07368087 0.07625319
 0.0775605 0.07801446 0.07808639 0.07747827 0.0755484 0.07250881 0.06991914 0.06953135 0.07159562 0.07469769
 0.07722721 0.07854095 0.07882544 0.07851285 0.07798099 0.07742907 0.07694893 0.07679302 0.07730816 0.07843699
 0.07960418 0.08029348 0.08047253 0.08033259 0.07991752 0.07920225 0.07836218 0.07777464 0.07774478 0.07827599
 0.07911994 0.07999785 0.08069822 0.08103216 0.08089765 0.08042974 0.07992532 0.07957406 0.07938886 0.07938792
 0.0796558 0.08017528 0.08074836 0.08116168 0.08135422 0.08138705 0.08132252 0.08118017 0.08097707 0.08077906
 0.08070304 0.08083338 0.08111715 0.08140062 0.08161017 0.08182493 0.08210706 0.08234514 0.08237086 0.08218485
 0.08196691 0.08187909 0.08193523 0.08205245 0.08214721 0.08214545 0.08196538 0.08159034 0.08117313 0.08097883
 0.08116943 0.08168691 0.08235247 0.08299536 0.08347823 0.08372232 0.08376773 0.08373454 0.08368647 0.08358551
 0.0833949 0.08318161 0.08309905 0.08327123 0.0836807 0.08417244 0.08457752 0.08481854 0.08491232 0.08493943
 0.08501417 0.08519557 0.08540316 0.08549361 0.08543956 0.08536765 0.08540279 0.08552635 0.08561095 0.08557303
 0.08547282 0.08545472 0.0855924 0.0858186 0.08601864 0.08616199 0.08631438 0.08653061 0.08675608 0.0868546
 0.08675209 0.08653469 0.08636332 0.08630566 0.08631313 0.08635156 0.08646537 0.08668031 0.08691351 0.08704266
 0.08704405 0.0870138 0.08704638 0.08712411 0.08714563 0.08704631 0.08686489 0.08670041 0.08663008 0.08666686
 0.08676551 0.08685325 0.08686988 0.08680022 0.08667584 0.08654363 0.08643453 0.08636945 0.08638796 0.08653565
 0.08679292 0.08703147 0.08708946 0.08691633 0.08663116 0.08641732 0.08635704 0.08637439 0.08633226 0.08616556
 0.08591761 0.08567289 0.08548175 0.08534405 0.08523622 0.0851429 0.08507919 0.08509052 0.08520649 0.08537382
 0.08546013 0.08536331 0.0851128 0.08483757 0.08464702 0.08456673 0.08456118 0.08457774 0.08458546 0.08460322
 0.08466776 0.08475721 0.08478945 0.08472243 0.08461429 0.08456293 0.08462533 0.0847988 0.0850222 0.08518526
 0.0852007 0.08509384 0.08498204 0.0849533 0.08499925 0.08506919 0.0851423 0.08522686 0.08532354 0.08542417
 0.0855395 0.08570255 0.08593457 0.08621268 0.08647439 0.08665921 0.08675903 0.08683617 0.08698163 0.08724046
 0.08757436 0.08789849 0.0881535 0.08834447 0.08851665 0.08869979 0.08888728 0.0890735 0.0892891 0.08957081
 0.08990642 0.09024219 0.09054285 0.0908184 0.09109388 0.09137903 0.09167384 0.09198998 0.0923561 0.09278883
 0.09324794 0.09363747 0.09388119 0.09399989 0.09410055 0.09429482 0.09462525 0.09503528 0.09539428 0.09559406
 0.09565777 0.09572645 0.0959072 0.09616718 0.09641464 0.09664778 0.0969586 0.09739341 0.09786853 0.09824736
 0.09847433 0.09861377 0.09876973 0.09897935 0.09918584 0.09931566 0.09937291 0.09943421 0.09955515 0.09972592
 0.09993464 0.1002198 0.100612 0.1010571 0.1014505 0.1017345 0.1019266 0.102068 0.1021823 0.1022709
 0.1023242 0.1023455 0.1023741 0.1024568 0.1025818 0.1026788 0.1027067 0.1027084 0.1027591 0.1028933
 0.1031076 0.1033935 0.1037252 0.1040442 0.1043108 0.1045664 0.1048899 0.1052759 0.1056068 0.1057796
 0.1058186 0.1058215 0.1058365 0.1058536 0.105894 0.1060264 0.1062856 0.1066284 0.1069897 0.1073438
 0.107697 0.1080458 0.1083599 0.1085937 0.1087145 0.1087313 0.1087017 0.1087072 0.1088163 0.1090511
 0.1093737 0.109709 0.109991 0.1101861 0.1102757 0.110253 0.1101653 0.1101259 0.1102287 0.1104416
 0.1106186 0.1106235 0.1104214 0.1100495 0.1095435 0.1089224 0.1082296 0.1075533 0.1069898 0.106593
 0.1063729 0.1063409 0.1065367 0.1069829 0.1076208 0.1083237 0.1089745 0.1094985 0.109819 0.1098405
 0.1095187 0.1089202 0.1081837 0.1074346 0.1067457 0.106135 0.1055679 0.1050007 0.1044698 0.1041315
 0.1041841 0.1047459 0.105799 0.1072044 0.1087478 0.1102062 0.1114341 0.1124141 0.1132216 0.1139393
 0.1146107 0.1152612 0.1159221 0.1166008 0.1172502 0.1178077 0.1182652 0.1186699 0.119062 0.1194392
 0.1197779 0.1200614 0.1202939 0.1205037 0.1207171 0.1209112 0.1210177 0.1209986 0.1208933 0.1207694
 0.1206461 0.120484 0.1202322 0.1198707 0.1194364 0.1190428 0.1188683 0.1190868 0.119767 0.1208257
 0.1220888 0.1234008 0.1246674 0.1258112 0.1267439 0.1274158 0.1278644 0.1281857 0.1284651 0.128747
 0.1290447 0.1293529 0.1296569 0.1299454 0.1302195 0.1304947 0.1307965 0.131139 0.1314965 0.1318122
 0.1320546 0.1322618 0.1325131 0.1328536 0.1332528 0.1336375 0.1339682 0.1342709 0.1345873 0.1349054
 0.1351709 0.1353617 0.1355219 0.1357181 0.1359879 0.1363306 0.1367098 0.1370612 0.1373303 0.1375186
 0.1376787 0.1378597 0.1380724 0.1383044 0.1385465 0.1387963 0.1390533 0.1393227 0.1396175 0.1399383
 0.1402503 0.1404984 0.1406596 0.1407732 0.1409077 0.1410981 0.1413237 0.1415435 0.1417463 0.1419646
 0.1422397 0.1425703 0.1428971 0.1431483 0.1432997 0.1433907 0.1434865 0.14363 0.1438256 0.1440531
 0.144287 0.1445093 0.1447154 0.144914 0.1451179 0.1453314 0.1455469 0.1457547 0.1459545 0.1461546
 0.1463625 0.1465766 0.1467949 0.1470294 0.1473021 0.1476125 0.1479197 0.1481721 0.1483533 0.1484863
 0.1486025 0.1487223 0.1488612 0.1490318 0.1492345 0.1494558 0.1496794 0.1498962 0.1501048 0.1503068
 0.1505049 0.1507009 0.1508959 0.1510924 0.1512971 0.1515181 0.1517546 0.1519924 0.1522154 0.1524214
 0.1526209 0.152822 0.1530228 0.1532164 0.1533981 0.1535697 0.1537416 0.1539254 0.1541241 0.1543314
 0.1545397 0.1547439 0.1549415 0.1551335 0.155324 0.1555146 0.1557027 0.1558868 0.1560702 0.1562593
 0.1564581 0.1566658 0.1568784 0.1570894 0.1572918 0.1574811 0.1576608 0.1578428 0.1580388 0.158249
 0.1584637 0.1586727 0.1588737 0.1590696 0.1592635 0.1594552 0.1596437 0.159829 0.1600127 0.1601972
 0.1603878 0.1605902 0.1608021 0.1610149 0.1612258 0.1614394 0.1616585 0.1618787 0.1620968 0.1623142
 0.162534 0.1627577 0.162985 0.1632133 0.1634405 0.1636671 0.1638902 0.1641022 0.164299 0.1644852
 0.1646658 0.1648396 0.1650047 0.1651639 0.165323 0.165488 0.1656634 0.1658493 0.1660432 0.1662408
 0.1664343 0.1666178 0.1667976 0.1669885 0.167196 0.1674119 0.1676274 0.1678405 0.1680513 0.1682596
 0.1684656 0.1686679 0.1688658 0.1690622 0.1692603 0.1694619 0.1696709 0.1698891 0.1701103 0.1703266
 0.1705383 0.1707486 0.1709566 0.1711645 0.1713784 0.1715982 0.1718174 0.1720327 0.1722429 0.1724451
 0.1726403 0.1728344 0.1730317 0.1732359 0.1734518 0.1736767 0.1738995 0.1741133 0.1743203 0.1745239
 0.1747302 0.1749478 0.1751764 0.1754053 0.1756291 0.175847 0.1760536 0.1762496 0.1764506 0.1766674
 0.1768935 0.1771202 0.1773407 0.1775327 0.1776463 0.1775698 0.1770306 0.175481 0.1720782 0.1658559
 0.1561202 0.1428948 0.1270642 0.1100517 0.09329268 0.077865 0.06439658 0.05315989 0.04421257 0.03748108
 0.03281357 0.03007597 0.02925571 0.03056617 0.0345576 0.04179254 0.05162244 0.0611005 0.06612334 0.06466805
 0.05872621 0.05248911 0.04886179 0.04805136 0.04881274 0.05008035 0.05151877 0.0533287 0.05584947 0.05917566
 0.0631436 0.06774588 0.07333095 0.08015913 0.08787291 0.09564598 0.1028933 0.1097294 0.1166953 0.1241068
 0.1317206 0.1389739 0.1454347 0.1510213 0.1559152 0.1603621 0.164533 0.1685032 0.1722986 0.1758991
 0.1791688 0.1818329 0.1836073 0.1844084 0.1844553 0.1841553 0.1838718 0.1837766 0.1838811 0.1841509
 0.1845663 0.1851175 0.185788 0.1865467 0.1873511 0.1881654 0.1889751 0.1897759 0.1905566 0.1912994
 0.1919881 0.1926118 0.1931709 0.1936776 0.1941453 0.1945798 0.1949859 0.1953707 0.1957375 0.1960854
 0.1964146 0.1967267 0.1970214 0.1972974 0.1975533 0.1977873 0.1980027 0.1982121 0.1984285 0.1986527
 0.1988735 0.1990793 0.1992695 0.199456 0.1996522 0.1998597 0.2000705 0.2002792 0.2004854 0.2006863
 0.2008788 0.2010667 0.2012563 0.2014488 0.2016432 0.2018403 0.2020395 0.2022371 0.2024315 0.2026242
 0.2028158 0.2030083 0.203207 0.2034137 0.2036234 0.2038335 0.204045 0.2042551 0.2044593 0.2046602
 0.2048639 0.2050724 0.2052872 0.2055113 0.2057333 0.2059245 0.2060684 0.2061883 0.2063342 0.2065373
 0.2067822 0.2070247 0.2072383 0.207435 0.2076409 0.2078609 0.2080757 0.2082634 0.2084277 0.2086068
 0.2088414 0.2091253 0.2094073 0.2096506 0.2098625 0.2100654 0.2102715 0.2104918 0.2107265 0.2109434
 0.2111033 0.2112177 0.2113593 0.2116013 0.2119481 0.2123259 0.2126489 0.2128932 0.2130984 0.2133169
 0.2135783 0.2138641 0.2140819 0.2141272 0.2140369 0.2140249 0.2142888 0.2148111 0.215404 0.2159039
 0.2162766 0.2165743 0.2168477 0.2170925 0.2172532 0.2172829 0.2172266 0.2172416 0.2174881 0.2179676
 0.218512 0.2189578 0.2192765 0.2195165 0.2197145 0.219888 0.2199977 0.2198944 0.2194762 0.218964
 0.218842 0.2193887 0.2203627 0.2212629 0.2218262 0.2221577 0.2224431 0.22272 0.2229402 0.2230162
 0.2227077 0.2217551 0.220385 0.2194586 0.2197616 0.2212107 0.2229919 0.2243744 0.2251731 0.2255733
 0.2258143 0.2260282 0.2261364 0.2258607 0.2250361 0.2240128 0.2235597 0.2241535 0.2254454 0.2266369
 0.2272924 0.2275664 0.2277764 0.2280467 0.2282263 0.227847 0.22639 0.2240558 0.222148 0.2221539
 0.2242891 0.2272366 0.229452 0.2304918 0.230886 0.2309927 0.2304692 0.2288837 0.2263649 0.2235417
 0.2213316 0.2208076 0.2224927 0.2254765 0.2279343 0.2289308 0.2292128 0.2299905 0.2314956 0.2329971
 0.2337386 0.2335197 0.2325766 0.2311721 0.2294628 0.2278585 0.2272534 0.2283991 0.2309867 0.2337506
 0.2356325 0.236582 0.2370108 0.2365551 0.2338225 0.2280623 0.2212659 0.2176238 0.2198325 0.2262742
 0.2327521 0.236618 0.2382335 0.2390025 0.2394797 0.2392122 0.2370153 0.2316277 0.2237058 0.2170685
 0.2161142 0.2214709 0.2292824 0.2348041 0.2356274 0.2319342 0.2256518 0.2198768 0.2176012 0.2199026
 0.2254872 0.2319673 0.2372826 0.2402622 0.2406231 0.2388702 0.2362665 0.2345259 0.2345712 0.2351792
 0.2339117 0.2301887 0.2262368 0.2238168 0.2215052 0.2173411 0.213141 0.2133127 0.2191265 0.2265837
 0.2309005 0.2313578 0.2304569 0.2293667 0.2259353 0.2177953 0.2068476 0.199368 0.2005239 0.2090062
 0.2181896 0.2226214 0.2223625 0.2210545 0.2210645 0.2210642 0.2178918 0.2106687 0.2029199 0.1996267
 0.2019393 0.2061513 0.2080987 0.2064884 0.2014761 0.1933428 0.1848643 0.1821743 0.189608 0.2044136
 0.218898 0.2267571 0.2253978 0.2145855 0.1973466 0.1818183 0.1772978 0.1859236 0.2000791 0.2093909
 0.2089669 0.2003023 0.1868559 0.1716644 0.1587333 0.1535133 0.1596614 0.1753191 0.1930837 0.2036718
 0.2010703 0.1872408 0.1725719 0.1684156 0.1767368 0.1887178 0.1946105 0.1925768 0.1873522 0.184171
 0.1857431 0.1917066 0.1990076 0.2047847 0.208659 0.2095219 0.2024738 0.1847109 0.1633358 0.1506783
 0.1515 0.1605781 0.1725523 0.1867279 0.2006208 0.206673 0.200766 0.190005 0.186653 0.1951156
 0.2081803 0.2158362 0.2151798 0.2109406 0.208199 0.2069879 0.2048026 0.202433 0.2041879 0.211936
 0.2218344 0.228622 0.2311005 0.2316514 0.2322005 0.2327525 0.2327647 0.2320438 0.2306701 0.2291192
 0.2281086 0.2277932 0.2276224 0.2271666 0.2260944 0.2229253 0.2153488 0.2034747 0.1918917 0.1860237
 0.1863763 0.1889297 0.19112 0.1933343 0.1933265 0.184642 0.1651386 0.1439875 0.1349923 0.1432442
 0.1613356 0.1778176 0.1859736 0.184391 0.1735474 0.1560288 0.1392595 0.1331606 0.142052 0.1605104
 0.1791704 0.192789 0.2008129 0.2028984 0.1979469 0.187304 0.1760089 0.169901 0.1720834 0.1815831
 0.1936565 0.2009719 0.197207 0.1833565 0.1704947 0.1715721 0.1878096 0.2066397 0.2158398 0.2159042
 0.2150114 0.2163195 0.2164345 0.2143767 0.2151426 0.2228695 0.2347654 0.2438672 0.2451555 0.2375367
 0.2231918 0.2080693 0.2003301 0.2037702 0.2134377 0.2209561 0.2225947 0.2187903 0.2092216 0.1948506
 0.1831162 0.1834673 0.1964236 0.2123467 0.2223906 0.2265574 0.2296729 0.2330709 0.232969 0.2261918
 0.215472 0.2077679 0.2073922 0.2122501 0.2174042 0.2202833 0.2207219 0.218016 0.211355 0.203178
 0.1992141 0.2035111 0.2142214 0.2252911 0.2318494 0.2332619 0.231732 0.2294303 0.2270208 0.223837
 0.2193501 0.2150565 0.2141732 0.2182053 0.2245596 0.2292205 0.2313516 0.2335587 0.2377946 0.2426677
 0.2451381 0.2438326 0.2403418 0.2378233 0.2384695 0.241777 0.2449252 0.2451799 0.2424922 0.2397933
 0.2402991 0.2444399 0.2497986 0.2538596 0.2560609 0.2572707 0.2583058 0.259218 0.2592504 0.257403
 0.2538381 0.2507076 0.2506294 0.2540929 0.2589962 0.2628251 0.264691 0.2651988 0.2650654 0.2643697
 0.2629473 0.2610642 0.2594599 0.2587641 0.2590351 0.2598895 0.2609059 0.2618233 0.2625273 0.2630155
 0.2633476 0.2635658 0.2636891 0.2637695 0.2638571 0.2639065 0.2638285 0.2636673 0.2636245 0.2638339
 0.2641869 0.2644503 0.2644846 0.2642568 0.2637069 0.2627589 0.261467 0.2600091 0.2584839 0.2568358
 0.2551022 0.2536891 0.2532469 0.2541714 0.256231 0.2587103 0.2609039 0.2624686 0.2634099 0.263887
 0.264079 0.2641363 0.264146 0.2641148 0.2640055 0.2637965 0.2635014 0.2631475 0.2627551 0.2623476
 0.2619644 0.2616414 0.2613724 0.2611029 0.2607684 0.2603425 0.259849 0.2593366 0.2588327 0.2583105
 0.2577011 0.2569444 0.2560359 0.2550366 0.2540446 0.2531445 0.2523546 0.2516198 0.2508658 0.2500518
 0.2491578 0.2481503 0.2470163 0.2458334 0.2447562 0.2438937 0.243218 0.2426063 0.2419446 0.2411774
 0.2402966 0.2393292 0.2383219 0.2373019 0.2362524 0.2351396 0.2339476 0.2326746 0.2313181 0.2298783
 0.2283657 0.2267953 0.2251872 0.2235622 0.2219093 0.2201505 0.2181561 0.2157962 0.2129737 0.209623
 0.2057162 0.2012957 0.1964999 0.1915388 0.1866267 0.1819332 0.1775851 0.1736895 0.1703375 0.1675975
 0.1655153 0.1641166 0.1634082 0.1633889 0.1640581 0.1653979 0.1673465 0.1697919 0.1725867 0.1755634
 0.1785467 0.1813779 0.1839604 0.1863006 0.188487 0.1905957 0.1926144 0.1944722 0.1961228 0.1975679
 0.1988181 0.1998733 0.2007441 0.2014617 0.2020578 0.2025496 0.2029476 0.2032728 0.2035549 0.2038122
 0.2040423 0.2042403 0.2044192 0.2046021 0.2048033 0.2050259 0.2052737 0.2055609 0.2059125 0.2063495
 0.2068662 0.2074293 0.2080077 0.2085953 0.2092032 0.2098453 0.2105432 0.2113367 0.2122758 0.2133946
 0.2146815 0.2160714 0.2174727 0.2188019 0.2199935 0.2209936 0.221763 0.2222893 0.2225863 0.2226797
 0.222596 0.2223651 0.2220256 0.2216167 0.2211586 0.2206455 0.2200665 0.2194301 0.218764 0.218091
 0.2174137 0.2167238 0.2160199 0.2153132 0.2146199 0.2139535 0.2133208 0.2127153 0.212117 0.2115104
 0.210903 0.2103166 0.20976 0.2092201 0.2086741 0.2080954 0.2074495 0.206705 0.2058552 0.2049184
 0.2039099 0.2028231 0.2016438 0.2003689 0.1990035 0.1975501 0.1960134 0.1944104 0.1927616 0.1910662
 0.1892901 0.1873919 0.1853751 0.1833118 0.1813072 0.1794387 0.1777292 0.1761593 0.1746901 0.173289
 0.1719456 0.1706614 0.1694315 0.1682531 0.1671396 0.1661023 0.1651256 0.1641839 0.1632781 0.1624391
 0.1617014 0.161079 0.1605576 0.1601082 0.1597108 0.1593651 0.1590859 0.158895 0.1588072 0.1588068
 0.1588454 0.1588696 0.1588459 0.1587675 0.1586534 0.1585359 0.1584363 0.1583589 0.1583007 0.1582396
 0.1581125 0.1578267 0.1572905 0.1564326 0.1552229 0.1536941 0.1519335 0.1500592 0.1482108 0.1465261
 0.145093 0.1439385 0.1430585 0.1424193 0.1419431 0.1415467 0.1412093 0.1409873 0.1409626 0.1411548
 0.1414538 0.1416757 0.1417354 0.1417389 0.1418761 0.1422612 0.1428812 0.1436323 0.1443845 0.1450464
 0.1455798 0.1459637 0.1461926 0.1463075 0.1463623 0.1463606 0.1462726 0.1460886 0.1458204 0.1454824
 0.1450902 0.1446451 0.14413 0.1435437 0.1429005 0.1421879 0.1413828 0.140492 0.1395084 0.1383847
 0.1371545 0.1360317 0.1353036 0.1351459 0.1355443 0.1363311 0.1373045 0.1383538 0.139408 0.1402588
 0.1406392 0.140619 0.1407825 0.1418004 0.1437977 0.1462226 0.1483406 0.1497666 0.1505005 0.1506349
 0.1502198 0.1493072 0.1479142 0.1459865 0.1435291 0.1406775 0.1375836 0.1343885 0.131315 0.1285914
 0.1263098 0.1244727 0.1230735 0.1221419 0.1217822 0.1215969 0.1196832 0.1136305 0.1042674 0.09730545
 0.09852354 0.107266 0.1169221 0.1219005 0.122058 0.1203785 0.1189216 0.1179967 0.1174879 0.1175239
 0.1182236 0.1194458 0.1208196 0.1219625 0.1227075 0.1230729 0.1230037 0.1221501 0.1197952 0.1150889
 0.107731 0.09858282 0.08938432 0.08173938 0.07638629 0.07320902 0.07158923 0.07076652 0.07021136 0.06987855
 0.07009463 0.0711686 0.07313281 0.0758234 0.07905214 0.082566 0.08594243 0.08875994 0.09091224 0.09260099
 0.09399398 0.09502724 0.09555881 0.09557685 0.09520514 0.09459506 0.09386702 0.09309189 0.09225012 0.09124002
 0.09003213 0.08882394 0.08792892 0.08748095 0.08734584 0.08732847 0.08734243 0.08736898 0.08738169 0.08735169
 0.08727333 0.0871945 0.08723596 0.08750966 0.08798494 0.08848886 0.08885165 0.08902634 0.08908036 0.08906251
 0.08886124 0.08829862 0.08744733 0.08667442 0.08617608 0.0856424 0.08465847 0.08333819 0.08228025 0.08191824
 0.08212923 0.08247174 0.08260594 0.08245736 0.08218133 0.08208545 0.08242774 0.08311243 0.08366782 0.0836861
</values></Ydata></ScRf><Data_Parameters_AB><parameter name="DPF">1</parameter><parameter name="NPT">3497</parameter><parameter name="FXV">3996</parameter><parameter name="LXV">500</parameter><parameter name="CSF">1</parameter><parameter name="MXY">0.0929999873042107</parameter><parameter name="MNY">-0.0689934715628624</parameter><parameter name="DAT">02/06/2022</parameter><parameter name="TIM">13:42:30.578 (GMT+2)</parameter><parameter name="DXU">WN</parameter></Data_Parameters_AB><AB__Qtest><MainReport name="Quality Test Report"><Header><Line><Legend>Test result ok/not ok [1/0]: </Legend><Value>0</Value></Line><Line><Legend>Method file: </Legend><Value>C:\Users\Public\Documents\Bruker\OPUS_8.2.28\QT\IRBT_v3_default.QT</Value></Line></Header><Matrix><Line><Legend></Legend><Legend>min</Legend><Legend>max</Legend><Legend>measured</Legend></Line><Line><Value>Absorption (X-Range 1):</Value><Value>0.400000</Value><Value>2.000000</Value><Value>0.112517</Value></Line><Line><Value>Noise (X-Range 4):</Value><Value></Value><Value>0.000300</Value><Value>0.000059</Value></Line><Line><Value>Signal/Noise (X-Range 2):</Value><Value>200.000000</Value><Value></Value><Value>40.624414</Value></Line><Line><Value>Signal/Noise (X-Range 3):</Value><Value>40.000000</Value><Value></Value><Value>19.058069</Value></Line><Line><Value>Water vapour (X-Range 5):</Value><Value></Value><Value>0.000300</Value><Value>0.000071</Value></Line><Line><Value>Signal/Water (X-Range 2):</Value><Value>100.000000</Value><Value></Value><Value>33.980795</Value></Line><Line><Value>Signal/Water (X-Range 3):</Value><Value>20.000000</Value><Value></Value><Value>15.941359</Value></Line><Line><Value>Fringes (X-Range 6):</Value><Value></Value><Value>0.000100</Value><Value>0.000068</Value></Line></Matrix></MainReport></AB__Qtest><Data_Parameters_ScSm><parameter name="DPF">1</parameter><parameter name="NPT">1814</parameter><parameter name="FXV">3996.33169228125</parameter><parameter name="LXV">499.541461535156</parameter><parameter name="CSF">1</parameter><parameter name="MXY">0.260162353515625</parameter><parameter name="MNY">0.033517200499773</parameter><parameter name="DAT">02/06/2022</parameter><parameter name="TIM">13:42:30.578 (GMT+2)</parameter><parameter name="DXU">WN</parameter></Data_Parameters_ScSm><Data_Parameters_ScRf><parameter name="DPF">1</parameter><parameter name="NPT">1820</parameter><parameter name="FXV">4004.04661832813</parameter><parameter name="LXV">495.683998511719</parameter><parameter name="CSF">1</parameter><parameter name="MXY">0.265198826789856</parameter><parameter name="MNY">0.0292557142674923</parameter><parameter name="DAT">02/06/2022</parameter><parameter name="TIM">13:42:04.724 (GMT+2)</parameter><parameter name="DXU">WN</parameter></Data_Parameters_ScRf><Optic_Parameters_Rf><parameter name="APR">0</parameter><parameter name="APT">Open</parameter><parameter name="BMS">KBr</parameter><parameter name="DTC">RT-DLaTGS_IR-Biotyper [Microplate reader]</parameter><parameter name="HPF">0</parameter><parameter name="LPF">10.0</parameter><parameter name="LPV">4000</parameter><parameter name="PGR">0</parameter><parameter name="RCH">Module port</parameter><parameter name="RDX">0</parameter><parameter name="SRC">MIR</parameter><parameter name="VEL">10.0</parameter><parameter name="SON">Off</parameter></Optic_Parameters_Rf><Acquisition_Parameters_Rf><parameter name="ADT">1</parameter><parameter name="AQM">DD</parameter><parameter name="CFE">0</parameter><parameter name="COR">0</parameter><parameter name="DEL">0</parameter><parameter name="DLY">0</parameter><parameter name="HFW">8000</parameter><parameter name="LFW">0</parameter><parameter name="NSR">32</parameter><parameter name="PLF">AB</parameter><parameter name="RES">6</parameter><parameter name="RGN">-1</parameter><parameter name="STR">0</parameter><parameter name="TCL">MakeCompatibleScalar (0, {WSV=1.000000, ARV=0});</parameter><parameter name="TDL">37</parameter><parameter name="RPO">0</parameter></Acquisition_Parameters_Rf><FT_-_Parameters_Rf><parameter name="APF">B3</parameter><parameter name="HFQ">500</parameter><parameter name="LFQ">4000</parameter><parameter name="NLI">0</parameter><parameter name="PHR">24</parameter><parameter name="PHZ">ML</parameter><parameter name="SPZ">NO</parameter><parameter name="ZFF">1</parameter></FT_-_Parameters_Rf><Optic_Parameters_><parameter name="APR">0</parameter><parameter name="APT">Open</parameter><parameter name="BMS">KBr</parameter><parameter name="CHN">Module port</parameter><parameter name="DTC">RT-DLaTGS_IR-Biotyper [Microplate reader]</parameter><parameter name="HPF">0</parameter><parameter name="LPF">10.0</parameter><parameter name="LPV">4000</parameter><parameter name="PGN">0</parameter><parameter name="RDX">0</parameter><parameter name="SRC">MIR</parameter><parameter name="VEL">10.0</parameter><parameter name="SON">Off</parameter></Optic_Parameters_><FT_-_Parameters_><parameter name="APF">B3</parameter><parameter name="HFQ">500</parameter><parameter name="LFQ">4000</parameter><parameter name="NLI">0</parameter><parameter name="PHR">24</parameter><parameter name="PHZ">ML</parameter><parameter name="SPZ">NO</parameter><parameter name="ZFF">1</parameter></FT_-_Parameters_><Acquisition_Parameters_><parameter name="ADT">1</parameter><parameter name="AQM">DD</parameter><parameter name="CFE">0</parameter><parameter name="COR">0</parameter><parameter name="DEL">0</parameter><parameter name="DLY">0</parameter><parameter name="HFW">8000</parameter><parameter name="LFW">0</parameter><parameter name="NSS">32</parameter><parameter name="PLF">AB</parameter><parameter name="RES">6</parameter><parameter name="SOT">0</parameter><parameter name="TCL">MakeCompatibleScalar (0, {WSV=1.000000, ARV=0});</parameter><parameter name="TDL">37</parameter><parameter name="SPO">0</parameter><parameter name="SGN">-1</parameter></Acquisition_Parameters_><Instrument_Parameters_Rf><parameter name="HFL">15800.168544</parameter><parameter name="LFL">0</parameter><parameter name="LWN">15800.168544</parameter><parameter name="ABP">32197</parameter><parameter name="SSP">1</parameter><parameter name="ARG">2</parameter><parameter name="ASG">2</parameter><parameter name="ASS">32</parameter><parameter name="GFW">16</parameter><parameter name="GBW">16</parameter><parameter name="BFW">0</parameter><parameter name="BBW">0</parameter><parameter name="PKA">7271</parameter><parameter name="PKL">4996</parameter><parameter name="PRA">7456</parameter><parameter name="PRL">5001</parameter><parameter name="P2A">1</parameter><parameter name="P2L">1</parameter><parameter name="P2R">1</parameter><parameter name="P2K">1</parameter><parameter name="DAQ">0</parameter><parameter name="AG2">1</parameter><parameter name="SSM">1</parameter><parameter name="RSN">26243</parameter><parameter name="CRR">0</parameter><parameter name="SRT">1654177324.725</parameter><parameter name="DUR">19.6379852294922</parameter><parameter name="TSC">29.2</parameter><parameter name="MVD">0.242811053991318</parameter><parameter name="AN1">0.225825420517979</parameter><parameter name="AN2">0</parameter><parameter name="VSN">2.485 Apr  4 2017</parameter><parameter name="SRN">0085</parameter><parameter name="CAM">0</parameter><parameter name="INS">IR-Biotyper</parameter><parameter name="FOC">69</parameter><parameter name="RDY">1</parameter><parameter name="ARS">32</parameter></Instrument_Parameters_Rf><Sample_Parameters_><parameter name="BLD"></parameter><parameter name="CNM">Admin</parameter><parameter name="CPY"></parameter><parameter name="DPM"></parameter><parameter name="EXP">IRBT_v3_32Scans.XPM</parameter><parameter name="LCT"></parameter><parameter name="SFM">Microplate, HTS-XT</parameter><parameter name="SNM">220602-1248_SMP48F (D_6)_C7_bf2e847a-4c18-49f4-b8a3-c8787fe2ae86.0</parameter><parameter name="XPP">C:\Users\Public\Documents\Bruker\OPUS_8.2.28\XPM</parameter><parameter name="IST">OK</parameter><parameter name="CPG">1252</parameter><parameter name="UID">a69fe555-8c45-4298-a5ca-bc302f0bc09e</parameter></Sample_Parameters_><Instrument_Parameters_><parameter name="HFL">15800.168544</parameter><parameter name="LFL">0</parameter><parameter name="LWN">15800.168544</parameter><parameter name="ABP">32197</parameter><parameter name="SSP">1</parameter><parameter name="ASG">2</parameter><parameter name="ARG">2</parameter><parameter name="ASS">32</parameter><parameter name="GFW">16</parameter><parameter name="GBW">16</parameter><parameter name="BFW">0</parameter><parameter name="BBW">0</parameter><parameter name="PKA">7419</parameter><parameter name="PKL">4988</parameter><parameter name="PRA">7728</parameter><parameter name="PRL">4993</parameter><parameter name="P2A">1</parameter><parameter name="P2L">1</parameter><parameter name="P2R">1</parameter><parameter name="P2K">1</parameter><parameter name="DAQ">0</parameter><parameter name="AG2">1</parameter><parameter name="SSM">1</parameter><parameter name="RSN">13747</parameter><parameter name="CRR">0</parameter><parameter name="SRT">1654177350.578</parameter><parameter name="DUR">19.6379852294922</parameter><parameter name="TSC">29.2</parameter><parameter name="MVD">0.30060401558876</parameter><parameter name="AN1">0.225837007230606</parameter><parameter name="AN2">0</parameter><parameter name="VSN">2.485 Apr  4 2017</parameter><parameter name="SRN">0085</parameter><parameter name="CAM">0</parameter><parameter name="INS">IR-Biotyper</parameter><parameter name="FOC">69</parameter><parameter name="RDY">1</parameter></Instrument_Parameters_><History/></OPUSDataFile>
