<?xml version="1.0" encoding="UTF-8" ?>
<OPUSDataFile><AB><Ydata ylabel="Absorbance Units"><values byteorder="INTEL" format="FLOAT32" numvalues="3497"> 0.001116373 0.001137304 0.001147902 0.001147164 0.001149827 0.001156649 0.001180194 0.001219628 0.001268061 0.00132317
 0.00136735 0.001400797 0.001414096 0.001410597 0.001393291 0.00136534 0.001332988 0.001298394 0.001265073 0.00123793
 0.001221413 0.001219991 0.001239587 0.001272966 0.001321111 0.00136715 0.001406367 0.001432023 0.001440837 0.001443076
 0.001439333 0.001439175 0.00144315 0.001446682 0.00144917 0.001441286 0.001423296 0.001392152 0.00134855 0.001292913
 0.001226554 0.001151266 0.0010717 0.0009956185 0.0009279347 0.0008787294 0.0008456837 0.0008310311 0.0008290942 0.0008355585
 0.0008537591 0.0008830452 0.0009311701 0.001002603 0.001087343 0.001187114 0.001271622 0.001338068 0.0013649 0.001350742
 0.001305066 0.001229975 0.001156822 0.001086313 0.001040251 0.001013831 0.001001456 0.000998346 0.0009890015 0.0009747163
 0.0009504062 0.0009194394 0.0008847396 0.0008457714 0.0008022776 0.0007561155 0.0007049389 0.0006628759 0.0006336705 0.0006318986
 0.0006654618 0.0007227056 0.0008063986 0.0008781324 0.0009350379 0.0009403906 0.0008919019 0.0007790003 0.0006037911 0.0003905709
 0.0001467533 -7.122522E-05 -0.0002563901 -0.000347605 -0.0003558295 -0.0002703946 -0.0001203485 4.958099E-05 0.0002222134 0.0003555116
 0.0004578933 0.0005184467 0.0005617515 0.0005985491 0.0006459585 0.0007181445 0.00079963 0.0008935262 0.0009604176 0.0009934049
 0.0009713959 0.0008887258 0.0007736909 0.0006274525 0.000505582 0.0004087441 0.0003590492 0.0003496624 0.00034904 0.0003508948
 0.0003123118 0.0002387849 0.0001182545 -3.179102E-05 -0.0001879207 -0.0003356845 -0.000446678 -0.0005210214 -0.0005493106 -0.0005358819
 -0.0004787381 -0.0003890332 -0.0002638256 -0.0001412183 -2.652179E-05 3.194804E-05 2.326016E-05 -6.855421E-05 -0.0002509797 -0.0004699614
 -0.0007235174 -0.0008670928 -0.0008978363 -0.0007366345 -0.0004093476 -4.812376E-05 0.0003320285 0.0005999186 0.0007707232 0.0008155635
 0.0007556363 0.0006092045 0.000404474 0.0001773563 -4.023842E-05 -0.0002089348 -0.0003169039 -0.0003398418 -0.0003034572 -0.0002088765
 -9.247741E-05 3.488424E-05 0.0001573611 0.0002709349 0.0003670311 0.0004452817 0.0004876264 0.000492899 0.0004527563 0.0003688718
 0.0002652209 0.0001467096 5.815691E-05 2.292424E-07 1.876555E-06 5.496648E-05 0.0001550131 0.0002915107 0.0004465111 0.0006075991
 0.0007560951 0.0008750129 0.0009433908 0.0009545764 0.0008943558 0.0007797793 0.0006095014 0.0004186432 0.0002142741 3.004879E-05
 -0.0001269831 -0.0002388982 -0.0003028544 -0.0003116955 -0.0002647454 -0.0001632829 -8.48694E-06 0.0001810655 0.0004025493 0.0006289393
 0.0008573915 0.001063754 0.001244589 0.001378228 0.001465178 0.001492267 0.001473269 0.001415387 0.001342863 0.001278749
 0.0012371 0.001236908 0.00126604 0.001327179 0.001394696 0.001462296 0.001512696 0.001541172 0.001544154 0.001520348
 0.001473818 0.001404652 0.001321727 0.001225898 0.001132033 0.001041028 0.0009674948 0.0009093008 0.000867044 0.0008357621
 0.0008020694 0.0007651334 0.0007157076 0.0006593514 0.0006006515 0.0005398876 0.0004839456 0.0004149936 0.0003257743 0.0001986341
 1.718233E-05 -0.0001948643 -0.0004433336 -0.000657957 -0.0008267749 -0.000904027 -0.0008792381 -0.000781021 -0.0006105182 -0.0003935896
 -0.0001307875 0.0001748515 0.000515883 0.0008398566 0.001136463 0.001331415 0.001431864 0.00141136 0.001298954 0.001128274
 0.0009379464 0.0007959189 0.0007047714 0.0006996392 0.0007397832 0.0008100495 0.0008821291 0.0009368353 0.0009777416 0.00099844
 0.001026032 0.001063204 0.001139571 0.00126116 0.001418369 0.001611881 0.001783153 0.00192912 0.001990493 0.001971019
 0.001862066 0.001681556 0.001493391 0.001318868 0.001258319 0.00129201 0.001441836 0.001652931 0.001856298 0.002039977
 0.002159224 0.002252067 0.002327722 0.002421544 0.002558233 0.002723039 0.002923015 0.003107321 0.003266073 0.003375604
 0.003428161 0.00345823 0.003466669 0.003525818 0.003637516 0.003839722 0.004120889 0.004415049 0.004710592 0.004918479
 0.005050559 0.005092841 0.005061239 0.004977823 0.004854241 0.00470748 0.004563651 0.004444974 0.004388965 0.004430792
 0.004567761 0.004815806 0.005126964 0.005488102 0.005879896 0.006294789 0.006739855 0.007217185 0.007708545 0.008213245
 0.008700829 0.009170195 0.009603538 0.0100003 0.01034747 0.01064535 0.01088527 0.01107408 0.01122364 0.01134492
 0.0114633 0.01158634 0.01173004 0.01190936 0.01213889 0.01244107 0.0128443 0.0133214 0.01387902 0.01444382
 0.0149912 0.01549952 0.01595615 0.01638874 0.01679925 0.01720849 0.01761854 0.01802171 0.01841681 0.01877735
 0.01910338 0.01937798 0.01961155 0.01983246 0.02006386 0.02038994 0.02080956 0.021379 0.02203638 0.02272339
 0.02339399 0.02397372 0.0244827 0.02490672 0.02529041 0.02564956 0.02601444 0.02640013 0.02680499 0.02723262
 0.02766632 0.02810331 0.02854487 0.0289903 0.02946473 0.02996901 0.03052019 0.03111425 0.03172896 0.03235783
 0.03296031 0.03353557 0.03405993 0.03453708 0.03496093 0.03534086 0.03568221 0.03600562 0.03633045 0.03667419
 0.03705774 0.03747305 0.0379229 0.03839239 0.03887401 0.03937756 0.03990367 0.04046312 0.04106116 0.04166177
 0.04226349 0.04281315 0.0433098 0.04374639 0.04412794 0.04449026 0.04483824 0.04521361 0.04561405 0.04605845
 0.04653288 0.0470218 0.04750825 0.0479598 0.04837735 0.04874221 0.04908631 0.04942011 0.04978353 0.05020303
 0.05067405 0.05120803 0.05175606 0.05231066 0.05283529 0.05332254 0.05377328 0.0541864 0.05458727 0.05497704
 0.05537712 0.0557864 0.05620505 0.0566317 0.0570587 0.05748956 0.0579304 0.05838457 0.05886528 0.05936363
 0.05987641 0.06038606 0.0608734 0.06133269 0.06175053 0.06214133 0.06250665 0.06286487 0.06322327 0.06358556
 0.06395527 0.06432145 0.06468276 0.06503457 0.06537586 0.06572168 0.06607293 0.06644894 0.06684835 0.06726902
 0.06770691 0.06814107 0.06857226 0.06898999 0.06940151 0.06981746 0.07023968 0.07067945 0.07112346 0.07156517
 0.07198749 0.07237398 0.07272736 0.07303961 0.07333789 0.0736272 0.07393524 0.07426992 0.0746374 0.07504079
 0.0754673 0.07591664 0.07636774 0.07681955 0.07725244 0.0776668 0.0780564 0.07842376 0.07877766 0.07911871
 0.07945412 0.07978109 0.08009614 0.08040031 0.08069123 0.08097729 0.08126528 0.08156238 0.08187639 0.08220699
 0.08255728 0.08292006 0.08329635 0.0836677 0.08403224 0.08436527 0.08466171 0.08492121 0.0851418 0.08536734
 0.0856003 0.0858927 0.08624193 0.08665116 0.08710884 0.08756316 0.0880058 0.0883813 0.08869801 0.08894212
 0.08913526 0.08930191 0.08945753 0.08962907 0.0898131 0.0900163 0.09022886 0.09044571 0.09066882 0.09089679
 0.09113727 0.09139282 0.09166072 0.09194182 0.09222473 0.09250875 0.09278314 0.09304748 0.09329616 0.0935305
 0.09375839 0.09398448 0.0942358 0.09451391 0.09484202 0.09520827 0.09560331 0.09600729 0.09638707 0.09673385
 0.09702386 0.09726576 0.09745659 0.09761143 0.09773555 0.09784292 0.09793749 0.09803447 0.09813718 0.09825791
 0.09839962 0.09856052 0.09874118 0.09892705 0.09911755 0.09930424 0.09948849 0.09967952 0.09987891 0.1001009
 0.1003419 0.1006007 0.1008694 0.1011308 0.1013803 0.1016015 0.1018007 0.1019751 0.1021407 0.1023071
 0.1024861 0.1026892 0.1029073 0.1031431 0.1033727 0.1035904 0.1037869 0.1039583 0.1041212 0.1042767
 0.104437 0.1046018 0.1047492 0.1048767 0.1049516 0.104978 0.1049561 0.104898 0.1048403 0.1047926
 0.104795 0.1048438 0.1049546 0.1051094 0.1052983 0.1055006 0.1056967 0.1058847 0.1060539 0.1062284
 0.1064128 0.1066293 0.1068882 0.1071731 0.107487 0.107778 0.1080425 0.1082387 0.1083655 0.1084289
 0.1084328 0.1084192 0.10839 0.1083783 0.1083801 0.1083981 0.1084323 0.1084808 0.1085529 0.1086641
 0.1088132 0.1090134 0.1092349 0.1094643 0.109668 0.10982 0.1099286 0.1099835 0.1100339 0.1100882
 0.1101842 0.110332 0.1105188 0.1107459 0.1109644 0.1111717 0.1113247 0.1114246 0.1114648 0.1114526
 0.1114184 0.111371 0.1113549 0.1113724 0.1114541 0.1115883 0.1117762 0.1119909 0.1122077 0.1123998
 0.112536 0.1126187 0.1126333 0.1126184 0.1125809 0.112562 0.1125738 0.1126306 0.1127363 0.1128934
 0.1131019 0.113375 0.1137132 0.1141191 0.1145882 0.1150772 0.1155757 0.1160058 0.1163642 0.116593
 0.1167094 0.1167145 0.1166442 0.1165496 0.116463 0.1164435 0.1164861 0.1166179 0.1167834 0.1169694
 0.117107 0.1171662 0.1171255 0.1169661 0.1167366 0.1164371 0.1161445 0.1158661 0.1156397 0.1154668
 0.1153258 0.1152144 0.115097 0.1149771 0.114854 0.1147359 0.1146512 0.1145986 0.1145944 0.1146202
 0.1146594 0.1146852 0.1146639 0.1145766 0.1143956 0.1141257 0.1137552 0.1133188 0.1128205 0.112311
 0.1118011 0.1113312 0.1109093 0.1105504 0.1102574 0.1100181 0.1098316 0.1096614 0.109505 0.1093217
 0.1091151 0.1088804 0.108629 0.108399 0.1081917 0.1080362 0.107908 0.1077851 0.1076384 0.107422
 0.1071422 0.1067782 0.1063792 0.1059584 0.1055749 0.1052532 0.1050227 0.1049012 0.1048597 0.1049033
 0.1049455 0.1049806 0.1049207 0.1047617 0.1044901 0.1041126 0.1036982 0.1032546 0.1028617 0.1025146
 0.1022412 0.1020284 0.101861 0.1017304 0.101617 0.1015174 0.1014221 0.101325 0.1012206 0.1010999
 0.1009564 0.1007883 0.1005908 0.1003781 0.1001506 0.09993243 0.09972773 0.09954868 0.09939795 0.09926195
 0.09913994 0.09900624 0.09886054 0.09869042 0.09849896 0.09829589 0.09808565 0.09788836 0.09770592 0.09755402
 0.09742827 0.0973314 0.09725092 0.0971765 0.09709224 0.09698211 0.09684019 0.09665566 0.09644195 0.09619869
 0.09594996 0.09570156 0.09546785 0.09525318 0.09505327 0.0948686 0.09468682 0.09450732 0.09432387 0.09413677
 0.0939482 0.09375849 0.09357112 0.09338505 0.09319897 0.09301068 0.09281408 0.09260892 0.09239048 0.0921639
 0.09193136 0.0917022 0.09148308 0.0912836 0.09111002 0.09096926 0.0908663 0.09079933 0.09077267 0.0907616
 0.09076652 0.09073911 0.09067527 0.09053521 0.09031679 0.09002568 0.08966606 0.08928958 0.08890226 0.08856603
 0.08828044 0.08808108 0.08795462 0.08789311 0.08787177 0.08784853 0.0878047 0.08769755 0.08753806 0.08731404
 0.08706275 0.08680093 0.08655322 0.08633708 0.0861412 0.0859667 0.08579649 0.08562458 0.08546854 0.08532776
 0.08524473 0.08522172 0.08527576 0.08540317 0.08556394 0.085749 0.08588421 0.08596682 0.08594277 0.08582671
 0.08562124 0.08535226 0.08506417 0.08476959 0.08450511 0.08425711 0.0840269 0.08380014 0.08356265 0.08333243
 0.08310943 0.08292523 0.08279251 0.08270296 0.08266192 0.08261883 0.08256877 0.08248269 0.08235875 0.08222852
 0.08209514 0.0820102 0.08197127 0.08199205 0.08206329 0.0821593 0.08227355 0.08237764 0.08247085 0.08254068
 0.08258528 0.08259994 0.08257756 0.08251198 0.08239599 0.08222205 0.08199424 0.08170741 0.08138815 0.08103704
 0.08070181 0.08038899 0.0801408 0.07996398 0.07985675 0.07981943 0.07979666 0.07978454 0.07971541 0.07959163
 0.0793892 0.07912113 0.07882011 0.07849915 0.07820779 0.07794572 0.0777377 0.07756994 0.07743756 0.0773245
 0.07721613 0.07710366 0.07697654 0.0768386 0.07668633 0.0765364 0.0763917 0.07626824 0.07617161 0.07609165
 0.07603002 0.07594691 0.07584012 0.07567886 0.07546483 0.07521519 0.07493576 0.07467404 0.07442749 0.07421598
 0.07402488 0.07382701 0.07361536 0.07335926 0.07307664 0.07277298 0.07247488 0.072209 0.07197987 0.07180125
 0.07165556 0.07153836 0.07143967 0.07135373 0.07128938 0.07124747 0.07123466 0.07125339 0.07128442 0.07132695
 0.0713385 0.07131702 0.07122349 0.07106081 0.07082406 0.07052431 0.07019757 0.06985675 0.06955237 0.06928808
 0.06909493 0.06896494 0.06890231 0.06889407 0.06893226 0.06900374 0.06910077 0.0692096 0.06932452 0.06943229
 0.06952857 0.06960519 0.06965899 0.06969411 0.06970898 0.06972934 0.06975638 0.06983563 0.06996884 0.07019249
 0.07050191 0.07088912 0.07134165 0.07180901 0.07228218 0.07271073 0.07309959 0.07343208 0.07372239 0.0739808
 0.07421863 0.07444853 0.07467674 0.07490884 0.07515224 0.07541101 0.07568946 0.07599224 0.07630585 0.0766314
 0.07693721 0.07722024 0.07745591 0.07764234 0.07778528 0.07788616 0.07796995 0.0780362 0.07809606 0.07814425
 0.07816511 0.07815761 0.07810621 0.0780251 0.07792821 0.07783715 0.07778633 0.07778001 0.07783934 0.07794163
 0.07808148 0.07823386 0.07838403 0.07853359 0.07867646 0.07883816 0.0790216 0.07924978 0.07952639 0.07985462
 0.08023517 0.0806455 0.08108288 0.0815012 0.08189689 0.08222121 0.08247749 0.08264851 0.08274812 0.08280166
 0.0828221 0.08284793 0.08287315 0.08291345 0.0829365 0.08292759 0.082839 0.08264163 0.08229744 0.0817799
 0.08109118 0.0802175 0.07921745 0.07809184 0.07693774 0.07576396 0.07465756 0.07362481 0.07270046 0.07188355
 0.07115797 0.07052054 0.06994198 0.06942223 0.06894717 0.0685155 0.06811995 0.06775165 0.06739233 0.06703383
 0.06665488 0.06626389 0.0658562 0.06545582 0.06507483 0.06473196 0.0644395 0.06419806 0.06401186 0.06386898
 0.06376861 0.06369692 0.06365214 0.06362723 0.06362143 0.06364194 0.06368905 0.06377163 0.0638857 0.06401134
 0.06413809 0.06421282 0.06423072 0.06414612 0.06397513 0.06371906 0.06341098 0.06309068 0.06278645 0.06253881
 0.06235229 0.06224572 0.06219726 0.06220531 0.0622393 0.06228928 0.06234267 0.06239282 0.0624562 0.06253376
 0.06264304 0.06278614 0.06293212 0.06307597 0.0631246 0.06307133 0.06281804 0.06237496 0.06172104 0.06089113
 0.05996081 0.05896844 0.05802187 0.05712996 0.05635466 0.05566816 0.0550702 0.0545251 0.0540086 0.05350861
 0.05301107 0.05252836 0.05206054 0.05162261 0.05121823 0.05085047 0.0505207 0.05022244 0.04995543 0.04971182
 0.04949114 0.0492859 0.04909487 0.0489058 0.04871721 0.04851466 0.04830119 0.04807455 0.04784534 0.04763176
 0.04744168 0.04729713 0.04718717 0.04711509 0.04705264 0.04698363 0.04688934 0.04675284 0.04658875 0.04639341
 0.04620462 0.04602905 0.04589118 0.04579695 0.0457328 0.04569877 0.04565834 0.04561038 0.0455341 0.04543254
 0.04531858 0.04519529 0.04508493 0.04498236 0.04488674 0.04478807 0.04466496 0.04451786 0.0443339 0.04413053
 0.04391678 0.0437128 0.04353543 0.043389 0.04328224 0.04320192 0.04314762 0.04310011 0.04305615 0.04300025
 0.04292986 0.04283945 0.04272822 0.04260313 0.04246482 0.04232587 0.04218643 0.04205345 0.04192623 0.04180494
 0.04169014 0.04158333 0.04148568 0.04140127 0.04132766 0.0412646 0.04120613 0.04114614 0.04108277 0.04101111
 0.04093836 0.04086589 0.04080161 0.04075007 0.04070567 0.04067006 0.04062417 0.04056588 0.04048189 0.04037063
 0.0402412 0.04009473 0.03995644 0.03982712 0.03972561 0.03964888 0.0395949 0.03955836 0.03952305 0.03948724
 0.03943811 0.03938159 0.03931917 0.03925946 0.03921289 0.03917824 0.03916159 0.03914637 0.03912819 0.03908968
 0.03902277 0.03892836 0.03880296 0.03866604 0.03851902 0.03838173 0.03825587 0.03814797 0.03805794 0.03798076
 0.03791562 0.03785428 0.03779601 0.03773335 0.0376659 0.03758825 0.03750158 0.03740466 0.03730129 0.03719558
 0.03709168 0.03699547 0.03690718 0.03682926 0.03675868 0.03669494 0.03663472 0.03657728 0.03651886 0.03645927
 0.03639176 0.03631546 0.03622597 0.03612267 0.03601089 0.03589118 0.03577646 0.03566745 0.03557605 0.03550174
 0.0354495 0.03541655 0.03539901 0.03539148 0.03538219 0.03536645 0.03533204 0.03528015 0.03520612 0.03511715
 0.03501575 0.03491011 0.03480421 0.03470378 0.03461166 0.03452919 0.03445789 0.0343924 0.03433267 0.03426956
 0.03420229 0.03412765 0.03404576 0.03396262 0.03387864 0.03380029 0.03372665 0.03365715 0.03359036 0.03352147
 0.0334509 0.03337656 0.03330095 0.03322678 0.03315545 0.03309031 0.03302833 0.03296912 0.03290809 0.03284187
 0.03277289 0.03269985 0.03263229 0.03257222 0.03252437 0.0324907 0.03246216 0.03243847 0.03240489 0.03236097
 0.0323013 0.03222721 0.03214741 0.03206401 0.03199182 0.03193055 0.03188848 0.03186088 0.03184316 0.03182908
 0.03180705 0.03177646 0.03173084 0.03167698 0.03161733 0.03155764 0.03150231 0.03144939 0.03139951 0.03134863
 0.03129538 0.03124163 0.03118741 0.03113544 0.03108622 0.03103411 0.03097875 0.03091114 0.03083197 0.03074282
 0.03064613 0.0305547 0.03046894 0.03039794 0.03033799 0.03028592 0.03023865 0.03018942 0.03013986 0.03008896
 0.03003911 0.02999257 0.02994761 0.02990437 0.02985969 0.02981216 0.02976194 0.02970858 0.02965425 0.02959911
 0.029545 0.02949199 0.02944352 0.02939977 0.02936487 0.02933836 0.02931851 0.02930339 0.02928297 0.02925587
 0.0292116 0.02915273 0.029078 0.02899401 0.02890907 0.02882919 0.02876442 0.02871384 0.02868176 0.02865908
 0.02864346 0.0286249 0.02859878 0.02856404 0.02851829 0.02847111 0.02842307 0.02838545 0.02835947 0.02834664
 0.02834671 0.02834763 0.0283482 0.02833194 0.02829947 0.02824377 0.02816909 0.0280837 0.02799313 0.02791299
 0.02784521 0.02780044 0.02777463 0.02776878 0.02777527 0.02778971 0.02780524 0.02781767 0.02782286 0.02781869
 0.02780313 0.02777523 0.02773521 0.02768254 0.02762159 0.02755236 0.02748482 0.02741953 0.02736752 0.02732851
 0.02730509 0.02729491 0.02728795 0.02728204 0.02726434 0.02723659 0.02719525 0.02714513 0.02709201 0.02703842
 0.02698981 0.02694451 0.02690312 0.02686348 0.0268246 0.02678548 0.02674574 0.02670425 0.02666058 0.02661488
 0.02656679 0.0265198 0.02647412 0.0264332 0.0263971 0.02636364 0.0263324 0.02629831 0.02626166 0.02622092
 0.02617725 0.02613354 0.02609032 0.02605054 0.02601316 0.02597824 0.02594389 0.025908 0.02586987 0.02582771
 0.02578366 0.02573775 0.0256939 0.02565344 0.02561859 0.0255905 0.02556738 0.02554952 0.02553169 0.02551357
 0.02548926 0.02545849 0.02541807 0.02536846 0.02531237 0.02525115 0.02519285 0.02513847 0.02509609 0.02506445
 0.02504576 0.02503582 0.02502955 0.02502339 0.02501045 0.02499343 0.02497074 0.02495008 0.02493575 0.02492907
 0.02493376 0.02493807 0.02494075 0.02492839 0.02489792 0.02485012 0.0247842 0.02471409 0.02464048 0.02457589
 0.02452021 0.02447703 0.02444546 0.02442316 0.02440897 0.02439814 0.02438966 0.02437842 0.02436576 0.02435067
 0.02433699 0.02432903 0.0243273 0.02433579 0.02434614 0.02435628 0.02435589 0.02433948 0.0243087 0.02426111
 0.02421097 0.02415993 0.02411891 0.02408952 0.02406833 0.02405511 0.02403958 0.02402172 0.02399771 0.02396887
 0.02394016 0.02391268 0.02389304 0.02388027 0.02387625 0.02387786 0.02388133 0.02388399 0.02388102 0.02387301
 0.02385827 0.02384008 0.02381964 0.0237992 0.02377991 0.02376225 0.02374637 0.02373322 0.02372301 0.02371573
 0.02371154 0.02370728 0.02370276 0.02369346 0.02367924 0.02365736 0.02362749 0.02358668 0.02353378 0.02346359
 0.02337497 0.02326294 0.02312693 0.02296454 0.02277399 0.02255375 0.02229879 0.0220062 0.02166858 0.02128171
 0.02084032 0.02034077 0.01978484 0.01917063 0.01850962 0.01780085 0.01707224 0.01632447 0.01560611 0.01491993
 0.01432395 0.01382018 0.01344901 0.01321073 0.01312669 0.01319886 0.01344921 0.01387017 0.01447093 0.01520468
 0.01601413 0.01683309 0.01756413 0.01818395 0.01864015 0.0189472 0.01909906 0.01911297 0.0189904 0.01875735
 0.01840998 0.01802476 0.01760524 0.01726986 0.01703176 0.01693422 0.0169792 0.01710127 0.01729579 0.01748867
 0.01768122 0.01784152 0.01797623 0.01808953 0.01818922 0.01829599 0.01841098 0.01854645 0.01869679 0.01885938
 0.01903279 0.01921394 0.01940662 0.01961372 0.01983132 0.02006097 0.02028861 0.02051159 0.02071808 0.02090544
 0.02107068 0.02121303 0.02133557 0.02143847 0.02152919 0.02160833 0.02168543 0.02176045 0.02183874 0.02191859
 0.021997 0.02207268 0.02214033 0.02220192 0.02225791 0.02231107 0.02236623 0.02242016 0.02247357 0.02251808
 0.02254818 0.02256358 0.02255998 0.02255243 0.02254272 0.02254804 0.02257247 0.02261683 0.02268247 0.02275382
 0.02283009 0.02289417 0.02294585 0.02297712 0.02298936 0.02298563 0.02296834 0.02294744 0.02292421 0.02290737
 0.02289463 0.02288667 0.02287982 0.02286967 0.02285563 0.02283496 0.02281088 0.02278392 0.02275827 0.02273537
 0.0227186 0.0227091 0.02270827 0.02271676 0.02273283 0.02275649 0.02278439 0.02281636 0.02284983 0.02288461
 0.02291783 0.02294908 0.02297425 0.02299354 0.02300504 0.02301028 0.02301164 0.02301089 0.02301221 0.02301568
 0.02302336 0.02303374 0.02304645 0.02305971 0.02307234 0.02308379 0.02309343 0.02310192 0.02310954 0.0231156
 0.02312029 0.02312086 0.02311703 0.02310714 0.02309108 0.02307024 0.0230448 0.02301698 0.02298702 0.02295701
 0.02292774 0.02290287 0.02288354 0.02287461 0.02287581 0.02288971 0.02291331 0.02294514 0.02297986 0.02301339
 0.02304029 0.02305598 0.02305983 0.02304915 0.02303101 0.02300593 0.0229836 0.02296607 0.02295638 0.02295551
 0.02295723 0.02296122 0.02295884 0.02295008 0.02293242 0.02290699 0.02287925 0.0228502 0.02282685 0.02280816
 0.02279538 0.0227865 0.02277807 0.02277043 0.02276209 0.02275543 0.0227526 0.02275286 0.02275741 0.02276144
 0.02276351 0.02275974 0.02274847 0.02272978 0.02270305 0.02267182 0.02263608 0.02260251 0.02257147 0.02254939
 0.02253609 0.02253062 0.02253182 0.02253138 0.02252938 0.02252097 0.02250859 0.022496 0.0224844 0.02247871
 0.02247575 0.02247408 0.02246993 0.02245861 0.02244187 0.02241822 0.02239432 0.02237247 0.0223568 0.02234961
 0.02234806 0.02235239 0.02235699 0.02236116 0.02236308 0.02236258 0.02236119 0.02235893 0.0223565 0.02235363
 0.02234873 0.02234184 0.0223322 0.02232021 0.02230667 0.02229142 0.02227476 0.02225581 0.0222334 0.02220763
 0.02217736 0.02214558 0.02211287 0.02208439 0.02206246 0.02204938 0.02204726 0.02205104 0.02206087 0.02206737
 0.02206952 0.02206153 0.02204295 0.02201609 0.02198143 0.02194657 0.02191199 0.02188483 0.02186451 0.02185315
 0.02184863 0.02184684 0.02184585 0.02184012 0.02182986 0.0218126 0.02179078 0.02176554 0.0217389 0.02171238
 0.02168683 0.0216629 0.02164103 0.02162156 0.02160407 0.02158892 0.02157294 0.02155599 0.02153374 0.0215059
 0.02147177 0.02143176 0.021392 0.02135336 0.02132505 0.02130659 0.02130206 0.02130848 0.02132081 0.02133566
 0.0213444 0.02134641 0.02133668 0.02131838 0.02129194 0.02126205 0.02123145 0.02120335 0.02118014 0.02116113
 0.02114721 0.02113389 0.0211207 0.02110319 0.02108065 0.02105284 0.02101965 0.02098555 0.02095085 0.02092136
 0.02089693 0.02087989 0.02086892 0.02086053 0.02085293 0.02083949 0.02082024 0.02079137 0.02075586 0.02071529
 0.02067376 0.02063555 0.02060223 0.02057673 0.0205561 0.0205406 0.02052433 0.02050583 0.02048076 0.02044752
 0.02040832 0.02036272 0.02031933 0.02027863 0.020248 0.02022735 0.02021537 0.02021102 0.02020651 0.02020166
 0.02019116 0.02017668 0.02015981 0.02014202 0.02012722 0.0201143 0.02010384 0.02009343 0.020081 0.02006567
 0.02004622 0.02002303 0.01999614 0.01996525 0.01993017 0.01989119 0.01984783 0.01980395 0.01975978 0.01972027
 0.01968581 0.01965677 0.01963291 0.01960955 0.01958653 0.01956004 0.01953118 0.01950215 0.01947451 0.01945403
 0.01944023 0.01943583 0.01943746 0.01944221 0.01944688 0.01944718 0.01944325 0.01943362 0.01942047 0.01940443
 0.01938683 0.01936814 0.0193491 0.0193298 0.01931135 0.01929385 0.01927849 0.01926534 0.01925524 0.01924818
 0.01924418 0.01924279 0.01924093 0.01923787 0.0192285 0.01921359 0.01919205 0.01916628 0.01914063 0.01911544
 0.01909381 0.0190727 0.01905011 0.01902509 0.01899485 0.01896536 0.01893759 0.0189198 0.01891522 0.01892496
 0.01895091 0.01898419 0.01902441 0.01906004 0.01909022 0.01910991 0.01911926 0.01912227 0.01911961 0.01911831
 0.0191181 0.0191222 0.01912868 0.01913442 0.01913705 0.01913041 0.0191144 0.01908492 0.01904713 0.01900262
 0.01896054 0.01892718 0.01890711 0.01890583 0.01891573 0.018937 0.01895661 0.0189718 0.01897662 0.0189695
 0.01895428 0.01893104 0.0189063 0.01888023 0.01885525 0.01883098 0.0188056 0.01877885 0.0187486 0.01871522
 0.01867815 0.01863878 0.01859849 0.01856091 0.01853049 0.01851208 0.01851307 0.01853114 0.01856995 0.0186156
 0.01866372 0.01870182 0.01872344 0.01873232 0.01872666 0.01872144 0.01871834 0.01872652 0.01874696 0.01877596
 0.0188131 0.01884947 0.01888472 0.01891203 0.01893165 0.01894085 0.01894035 0.01893046 0.01891241 0.01888818
 0.01886005 0.01883089 0.01880497 0.01878692 0.01877999 0.01878912 0.01880987 0.01884334 0.01887774 0.01890999
 0.01893143 0.01893904 0.01893418 0.018916 0.01889364 0.01886758 0.01884776 0.01883435 0.01882935 0.01883145
 0.0188313 0.01882779 0.01880956 0.01877972 0.01873913 0.01869564 0.01866511 0.01865136 0.01866957 0.01870969
 0.01876989 0.01883479 0.01889271 0.01893942 0.01896805 0.01898793 0.01900006 0.01901408 0.01903355 0.01905381
 0.01907561 0.01908464 0.01907985 0.01905414 0.01900764 0.0189462 0.01887129 0.01879629 0.01872354 0.01867053
 0.0186382 0.01864037 0.01867125 0.01872775 0.01880051 0.01887511 0.01894747 0.01900868 0.01905806 0.01909305
 0.01911272 0.01911494 0.01910409 0.01907898 0.01905357 0.01902977 0.01902159 0.0190317 0.01906096 0.01910992
 0.01916867 0.01923672 0.01930432 0.01937145 0.01943357 0.01949104 0.01954339 0.01959015 0.01963015 0.01966196
 0.01968098 0.01968978 0.01968754 0.0196837 0.01968704 0.01970327 0.01974199 0.01979317 0.0198561 0.01991641
 0.01996784 0.02001072 0.02004272 0.02007566 0.0201112 0.02015334 0.02020292 0.02024868 0.02029015 0.0203174
 0.02033231 0.02034526 0.0203604 0.02040421 0.02047447 0.02058173 0.02071426 0.02085333 0.02099196 0.02111056
 0.02121331 0.021297 0.02136758 0.02142936 0.02148162 0.0215254 0.02155797 0.02157725 0.0215885 0.02159042
 0.02160027 0.02161872 0.02167217 0.02176297 0.02190129 0.02208648 0.0222904 0.02251087 0.0227152 0.02290668
 0.02308267 0.02324879 0.0234208 0.02360037 0.02379943 0.02401445 0.02424689 0.02448916 0.02473555 0.02497748
 0.02520513 0.0254227 0.02562392 0.02583771 0.02607007 0.02635028 0.02669015 0.0270747 0.02750582 0.02794488
 0.02838857 0.02882481 0.02925326 0.02967652 0.03009374 0.03049658 0.03088617 0.03126008 0.03162691 0.03201075
 0.03241861 0.03288224 0.03338743 0.03393155 0.03448968 0.03503263 0.03555742 0.03605003 0.03652511 0.03698607
 0.03744417 0.03790364 0.03837 0.0388416 0.03934243 0.03987084 0.04049141 0.04120964 0.04206223 0.04304749
 0.04406512 0.04510788 0.04606065 0.04693818 0.04774977 0.04851471 0.04929696 0.05010226 0.05097182 0.05190591
 0.05291534 0.05401796 0.05522373 0.05658153 0.05812701 0.0598926 0.06192768 0.06414063 0.06653495 0.06892684
 0.07127447 0.07348303 0.07552782 0.0774272 0.07917856 0.08084725 0.08243802 0.08406217 0.0857305 0.08760256
 0.08966225 0.09194364 0.09436829 0.0966965 0.0989143 0.1008501 0.1025954 0.1042128 0.1057677 0.1073597
 0.1089856 0.1106751 0.1124047 0.1141658 0.1159592 0.1177898 0.1196283 0.1214752 0.123269 0.1249974
 0.1266607 0.1282572 0.1298162 0.1313372 0.1327668 0.1340982 0.1352408 0.1362021 0.1369693 0.1375604
 0.1380262 0.1383728 0.1386398 0.1388191 0.1389107 0.1389212 0.1388499 0.1387248 0.1385623 0.1383893
 0.1382263 0.1380719 0.1379359 0.137784 0.1376129 0.1373832 0.1370881 0.1367097 0.1362441 0.1357241
 0.1351518 0.1345891 0.1340341 0.1334929 0.132957 0.1323845 0.1317734 0.1310911 0.1303496 0.1295526
 0.1287258 0.1279099 0.1271191 0.1263905 0.1257045 0.1250617 0.1244336 0.1238004 0.1231688 0.1225301
 0.1219274 0.12137 0.1208801 0.1204654 0.1201053 0.1197992 0.1195181 0.1192606 0.1190139 0.1187788
 0.1185592 0.1183565 0.1181808 0.1180329 0.117921 0.1178442 0.1178055 0.1178022 0.1178312 0.1178918
 0.1179806 0.1181032 0.1182615 0.1184621 0.1187095 0.1190042 0.1193472 0.1197378 0.1201758 0.1206614
 0.1211961 0.121766 0.1223709 0.1229833 0.1236023 0.1242195 0.1248373 0.1254804 0.1261466 0.1268428
 0.1275534 0.128229 0.1288641 0.129417 0.1299043 0.1303346 0.1307186 0.1310746 0.1313953 0.1316803
 0.1319252 0.132124 0.1322886 0.1324181 0.1325389 0.1326551 0.1327969 0.1329736 0.1331626 0.1333651
 0.1335135 0.1336049 0.1336078 0.1335232 0.1333506 0.1330911 0.1327498 0.132326 0.1318232 0.1312334
 0.130546 0.1297415 0.1287772 0.1276659 0.1263779 0.1250159 0.1236516 0.1223347 0.1211318 0.1199645
 0.1188178 0.1176375 0.116399 0.1151329 0.1138382 0.1125631 0.1113138 0.1100829 0.1088701 0.107638
 0.1063881 0.105121 0.1038457 0.102613 0.1014263 0.1003296 0.09930774 0.09835178 0.09743979 0.09653383
 0.09562153 0.09467737 0.09369136 0.0926554 0.09154098 0.09033152 0.08900888 0.0875363 0.08603496 0.08451096
 0.08315343 0.0820093 0.08103807 0.08024637 0.07947951 0.0787302 0.07792482 0.07706842 0.07619479 0.07531173
 0.07448359 0.07370195 0.07297093 0.07228232 0.07161146 0.07097603 0.0703889 0.06987666 0.06947961 0.06919245
 0.06902935 0.06896201 0.06897859 0.06906297 0.06920467 0.06940664 0.06966472 0.07000082 0.07041448 0.07095012
 0.07161261 0.07242259 0.07338045 0.07439288 0.07545128 0.07641957 0.07730485 0.07807609 0.07874824 0.07935905
 0.07990835 0.08041438 0.08087114 0.08126954 0.08162639 0.08194783 0.08227482 0.08264658 0.08306655 0.08356387
 0.08406467 0.08454666 0.08496798 0.08530576 0.08559397 0.08583325 0.08606476 0.08629335 0.08652946 0.08677373
 0.08701073 0.08723963 0.08744558 0.08763012 0.08779351 0.08793955 0.0880807 0.08822067 0.08837476 0.08854261
 0.08873012 0.08893642 0.08915947 0.08940874 0.08968866 0.09001334 0.09039371 0.09082863 0.0913237 0.09185866
 0.09242994 0.09302115 0.0936278 0.09425335 0.09489781 0.09556607 0.09625827 0.09694649 0.09762742 0.09825055
 0.09881571 0.09929558 0.09969405 0.1000115 0.1002484 0.1004075 0.1004844 0.1004729 0.1003697 0.1001672
 0.09986944 0.09947584 0.09899528 0.09843221 0.09779271 0.09707907 0.09629773 0.09544694 0.09455147 0.09361165
 0.09267247 0.0917385 0.09083663 0.08996849 0.08912251 0.08829763 0.08747505 0.08665784 0.08585349 0.08506791
 0.08432832 0.08363272 0.08299343 0.08239731 0.08182967 0.08127701 0.08071737 0.08014665 0.0795523 0.07894243
 0.07831601 0.07768828 0.07706418 0.07645562 0.07586758 0.07529976 0.0747539 0.07421931 0.07369513 0.07317292
 0.07265217 0.07214158 0.07164291 0.07118177 0.0707594 0.07039741 0.07009279 0.06984732 0.06965528 0.06950474
 0.0693903 0.06929749 0.06922474 0.06916322 0.06911802 0.0690902 0.06908456 0.06910656 0.06914905 0.06921244
 0.06928214 0.06935368 0.06942252 0.06948571 0.06955466 0.06963 0.0697239 0.06983713 0.06996757 0.07011457
 0.07026768 0.0704279 0.07059478 0.07077265 0.07097702 0.07121087 0.0714917 0.07181328 0.07217693 0.07256573
 0.07296322 0.07334959 0.07370495 0.07401404 0.07426387 0.07444529 0.07455213 0.0745804 0.07452738 0.07439519
 0.07418243 0.07390138 0.07355186 0.07316006 0.07272739 0.07228742 0.07184129 0.07141224 0.07099912 0.07060652
 0.0702332 0.06987639 0.0695374 0.06921803 0.06891982 0.06864691 0.06839804 0.06817365 0.0679715 0.06778938
 0.06762773 0.06748582 0.06736576 0.06726902 0.0671934 0.06714017 0.06709879 0.0670686 0.06703504 0.06699641
 0.06694548 0.06688168 0.06680971 0.06673017 0.06665291 0.06657808 0.06651177 0.06645326 0.06640298 0.06636055
 0.06632449 0.0662966 0.06627821 0.06627394 0.06628964 0.06632867 0.06639721 0.0664914 0.06661225 0.06675027
 0.06690186 0.06706148 0.06722596 0.06739888 0.06758018 0.06777492 0.06798424 0.06820357 0.06843282 0.06865513
 0.06886956 0.06905825 0.0692219 0.06935541 0.06946134 0.06954718 0.06961314 0.06966473 0.06969792 0.06970794
 0.06969235 0.06964425 0.06956933 0.06946839 0.06935156 0.06922559 0.06909399 0.0689616 0.06882036 0.06866992
 0.06849904 0.06830506 0.06808593 0.06784042 0.06757773 0.06729832 0.06701323 0.06672283 0.06643368 0.06614624
 0.06586631 0.06559525 0.06534158 0.0651057 0.06489385 0.06470332 0.06453311 0.06437836 0.06423297 0.06409326
 0.06395341 0.06381427 0.06367339 0.06353722 0.06340707 0.0632905 0.06319009 0.06310867 0.06304777 0.06300357
 0.06297618 0.06295782 0.06294803 0.0629397 0.06293295 0.06292838 0.06292766 0.06294178 0.06297278 0.06303445
 0.06312726 0.06325945 0.06343065 0.06364411 0.06389887 0.06419586 0.06453153 0.06490378 0.06530817 0.06574089
 0.06620187 0.06668967 0.0672075 0.06775629 0.06833656 0.06894888 0.06959081 0.07026248 0.07095836 0.07167824
 0.07241089 0.07315566 0.07390074 0.07464684 0.07539293 0.07614066 0.07689716 0.07766081 0.07843254 0.07920668
 0.0799741 0.08072931 0.08146141 0.08216903 0.08284613 0.08349725 0.08412255 0.08472918 0.08532099 0.08589858
 0.08646413 0.08700987 0.08753423 0.08803498 0.08851059 0.08897401 0.08942585 0.0898826 0.09034466 0.09081826
 0.09130291 0.09179743 0.09230262 0.0928202 0.093353 0.09390941 0.09449102 0.09510674 0.09575066 0.0964221
 0.09710629 0.09779084 0.09846397 0.09911297 0.09974084 0.1003445 0.1009345 0.1015139 0.1020869 0.1026554
 0.103216 0.1037689 0.1043069 0.1048297 0.1053287 0.1058039 0.1062536 0.1066791 0.1070894 0.107484
 0.1078667 0.1082336 0.1085751 0.1088923 0.1091802 0.1094487 0.1097086 0.109966 0.1102322 0.1105023
 0.1107767 0.1110503 0.11132 0.1115873 0.1118522 0.1121175 0.1123842 0.1126504 0.1129168 0.113175
 0.1134246 0.1136563 0.1138703 0.1140684 0.1142521 0.1144346 0.1146148 0.1147972 0.114977 0.1151433
 0.1152941 0.1154198 0.1155233 0.1156054 0.1156655 0.1157054 0.1157176 0.115699 0.1156408 0.1155384
 0.1153884 0.1151872 0.1149425 0.114653 0.1143388 0.1140018 0.113661 0.1133178 0.1129767 0.1126377
 0.1123006 0.111967 0.1116479 0.1113442 0.1110684 0.1108163 0.110584 0.1103649 0.1101434 0.1099177
 0.1096777 0.1094282 0.1091695 0.1089077 0.1086478 0.1083888 0.1081335 0.1078719 0.107602 0.1073157
 0.10701 0.1066895 0.1063539 0.1060145 0.105672 0.1053342 0.1050013 0.1046781 0.1043644 0.1040623
 0.1037697 0.103479 0.1031872 0.1028815 0.1025628 0.1022264 0.1018772 0.1015201 0.1011589 0.100799
 0.1004409 0.1000872 0.09973443 0.0993823 0.09902518 0.09866 0.09829012 0.0979135 0.09754896 0.09719831
 0.09687755 0.09658835 0.09632502 0.09608682 0.09585702 0.09563583 0.09541731 0.09520331 0.09499978 0.0948059
 0.09462466 0.09444924 0.09427033 0.0940764 0.09384879 0.09357934 0.09325186 0.09287038 0.0924309 0.09194539
 0.0914183 0.09085699 0.09026441 0.08964463 0.08899748 0.08833469 0.08765681 0.08698156 0.0863103 0.08565408
 0.08501299 0.08438499 0.08376844 0.08315012 0.08252812 0.08188629 0.08122562 0.08053937 0.07983219 0.07910997
 0.07837605 0.07763733 0.07689527 0.07615198 0.075413 0.07468133 0.07396446 0.07326782 0.07258946 0.07193134
 0.071283 0.07064234 0.07000418 0.06936657 0.0687376 0.06811733 0.06752381 0.06695796 0.06643682 0.06595916
 0.06552403 0.06512648 0.06474359 0.06437236 0.06399056 0.06360254 0.06320628 0.06280643 0.06241044 0.06201546
 0.06162089 0.06122565 0.06082535 0.06043233 0.06004908 0.05969255 0.05937 0.0590835 0.05883697 0.05861412
 0.05841407 0.05821762 0.05802306 0.05782418 0.05762114 0.05742296 0.05723078 0.05705816 0.0569055 0.05678208
 0.05668683 0.05662242 0.05658546 0.05657174 0.05657546 0.05658681 0.05660263 0.05661528 0.05662782 0.05663998
 0.05665505 0.0566754 0.05669909 0.05672585 0.05675459 0.05678448 0.05681881 0.05685823 0.05690195 0.05695023
 0.05699464 0.05703495 0.05706772 0.05709432 0.05712518 0.05716154 0.05721638 0.05728595 0.05736775 0.05745383
 0.05752588 0.05758226 0.05760895 0.05761908 0.05761823 0.05762358 0.05765095 0.05770038 0.0577792 0.05786988
 0.05796888 0.05806132 0.05814281 0.05820979 0.05826089 0.0582986 0.05832274 0.05834183 0.05835646 0.05838009
 0.05841278 0.05846068 0.05852286 0.05859677 0.05868483 0.05879186 0.05892295 0.059093 0.05929871 0.05954561
 0.05981804 0.06010351 0.0603883 0.06065642 0.06091213 0.06115111 0.061389 0.06163149 0.06188141 0.06214341
 0.06239709 0.0626411 0.06285226 0.06302799 0.06316977 0.06327822 0.0633769 0.06346679 0.06356696 0.06367563
 0.06379452 0.06392131 0.06405006 0.06417949 0.06430463 0.06442377 0.06453245 0.06462959 0.06471163 0.06478129
 0.06483828 0.06488881 0.06493522 0.06498346 0.06503605 0.06509545 0.06516321 0.06523652 0.06531575 0.06539302
 0.06546781 0.06553195 0.0655852 0.06562788 0.06566125 0.06569723 0.06573676 0.06579234 0.06586058 0.06593887
 0.06602114 0.06609182 0.06615188 0.06619227 0.06622694 0.0662639 0.06632216 0.06641753 0.06655973 0.06675982
 0.06701054 0.06731453 0.06765142 0.06801883 0.06839339 0.06877216 0.06913554 0.06948181 0.06979621 0.07007819
 0.07032491 0.07053833 0.07073594 0.07092045 0.0711158 0.07131977 0.07153851 0.07176741 0.07199857 0.0722322
 0.07246681 0.07269913 0.07293037 0.07314193 0.07332261 0.07345513 0.07352342 0.07353903 0.07349768 0.07343345
 0.07335236 0.07328159 0.07322673 0.07319364 0.07318394 0.07318495 0.07319598 0.0731994 0.07319586 0.07318404
 0.07316692 0.07316061 0.07316348 0.07318115 0.07320522 0.07321934 0.07322061 0.07319412 0.0731505 0.07309286
 0.07303746 0.07299652 0.07298063 0.07300047 0.07305067 0.07313547 0.07323059 0.07333187 0.0734193 0.07348723
 0.07354585 0.07359505 0.07365523 0.07372703 0.07380562 0.07389002 0.07396599 0.07403687 0.07411244 0.07419664
 0.07430914 0.07444683 0.07461275 0.0748022 0.0750089 0.0752314 0.07546706 0.07571199 0.075964 0.07621596
 0.07646491 0.07670235 0.07692574 0.07712563 0.07729785 0.07744636 0.07756843 0.07769364 0.07782395 0.07798747
 0.07818527 0.07841431 0.0786728 0.07894079 0.07921749 0.0794889 0.07975509 0.08000802 0.0802503 0.0804817
 0.08070961 0.0809468 0.08119319 0.08145839 0.08172473 0.08198425 0.08221779 0.08241262 0.08256318 0.08266425
 0.08271785 0.08272135 0.08269006 0.08262287 0.08255818 0.0824993 0.08247244 0.0824785 0.08249667 0.08252542
 0.08253719 0.08253852 0.08254857 0.08257747 0.08267085 0.0828279 0.0830736 0.08339148 0.08377244 0.08418813
 0.08460584 0.08500574 0.08535782 0.08567302 0.08594678 0.08620133 0.08645129 0.08667282 0.08686573 0.08699181
 0.08703883 0.08704198 0.08700162 0.08697684 0.0869704 0.08700648 0.08708243 0.08717918 0.08729004 0.08736855
 0.08741295 0.08738843 0.08730774 0.08718001 0.08702222 0.08686898 0.08671721 0.0865779 0.08644056 0.08629152
 0.08615582 0.08603735 0.08597629 0.08599491 0.08608178 0.08624465 0.08642969 0.08662885 0.08681469 0.08698288
 0.08713995 0.08728604 0.08742053 0.08754268 0.08764335 0.08772237 0.08777622 0.08780165 0.08778664 0.08772679
 0.08760148 0.08742107 0.08718762 0.08692516 0.08666069 0.08640955 0.08619223 0.08601297 0.08588061 0.08578912
 0.0857411 0.08571686 0.08570978 0.08572082 0.08574572 0.08581918 0.08594486 0.08613311 0.08638436 0.08666744
 0.08698162 0.08731079 0.08765425 0.08800445 0.08835187 0.08865651 0.08891844 0.08910978 0.08925622 0.08938655
 0.08951935 0.08969269 0.08989364 0.09012612 0.09037079 0.09061924 0.09085661 0.09108014 0.09126123 0.09139147
 0.09145809 0.09145145 0.09142137 0.09136958 0.0913679 0.09142001 0.09153794 0.09171686 0.09190178 0.09208688
 0.09220771 0.09227066 0.0922559 0.09218974 0.09211962 0.09207288 0.0921251 0.09225755 0.09249303 0.09276295
 0.09302077 0.09322387 0.09332408 0.09335677 0.09331771 0.09327027 0.09323329 0.09322337 0.09325206 0.09327074
 0.09327742 0.09320864 0.09306103 0.09283908 0.0925496 0.09228104 0.09203783 0.09189732 0.09184349 0.09186339
 0.09193605 0.09200297 0.09206196 0.09208242 0.09207259 0.09203088 0.09196301 0.09187309 0.09176424 0.09164174
 0.09149691 0.09132963 0.09112398 0.09087259 0.09058531 0.09026004 0.0899285 0.08959441 0.08926594 0.08894371
 0.08861023 0.08826524 0.08790167 0.08751994 0.08711886 0.08669893 0.08625578 0.0858021 0.08536296 0.08495512
 0.08462689 0.08435871 0.08415737 0.08397105 0.08375864 0.08349531 0.08314808 0.08274256 0.08227558 0.08179443
 0.08130728 0.08086196 0.08046696 0.08015459 0.07993093 0.07978029 0.07970204</values></Ydata></AB><ScSm><Ydata ylabel="Single channel"><values byteorder="INTEL" format="FLOAT32" numvalues="1814"> 0.06081021 0.06081565 0.06087617 0.06100889 0.06118711 0.06135862 0.06148112 0.0615472 0.0615701 0.06155147
 0.06149192 0.06143543 0.06146196 0.06161084 0.06182683 0.0619962 0.06203898 0.06198097 0.06193922 0.06200581
 0.06212536 0.06211325 0.06183007 0.06133901 0.06086328 0.06058139 0.06051721 0.06066699 0.06110585 0.06178027
 0.06227721 0.06211891 0.06136138 0.06062086 0.06039028 0.06056749 0.06074266 0.06067256 0.06035526 0.0599391
 0.05976734 0.06028409 0.06159534 0.06311056 0.06375787 0.06266005 0.05975833 0.05601155 0.05304658 0.05228873
 0.05395636 0.05676768 0.05890241 0.05945546 0.05887307 0.05803411 0.05730367 0.05664568 0.0562329 0.05647609
 0.05745343 0.05853321 0.05870491 0.05744337 0.05533419 0.05365711 0.05321951 0.05385026 0.05508962 0.05669078
 0.05792333 0.05716615 0.05350064 0.04874408 0.04664767 0.04933047 0.05501745 0.05977733 0.06102317 0.05896384
 0.05546338 0.05249292 0.0513894 0.05249511 0.05509145 0.05799658 0.06028689 0.06134104 0.06067262 0.05834711
 0.05540714 0.05337496 0.05331426 0.05540553 0.05890914 0.06223687 0.06366993 0.06262145 0.06002741 0.05735618
 0.05563938 0.05546228 0.05710102 0.06023893 0.06395409 0.06725506 0.06948452 0.07038182 0.07013676 0.0692712
 0.06824115 0.06735875 0.0670725 0.06769414 0.06866365 0.06875718 0.06742097 0.06551325 0.06442089 0.06462325
 0.06530821 0.06535918 0.06448616 0.0630493 0.0609539 0.05761489 0.05329241 0.04946728 0.04736301 0.0470077
 0.04810598 0.05051669 0.05321808 0.05424259 0.05282689 0.05079406 0.05074798 0.05329292 0.05671442 0.05906965
 0.05998533 0.06052694 0.06182061 0.06390352 0.06558207 0.06533436 0.06281808 0.0597278 0.0586063 0.06035045
 0.06334133 0.06543077 0.0662086 0.06678599 0.06785225 0.06860977 0.06760313 0.06444626 0.06076726 0.05921141
 0.06113913 0.0652648 0.06858836 0.068621 0.06506117 0.05986318 0.05570849 0.05415216 0.05519971 0.05831599
 0.06302144 0.06836449 0.07267915 0.07451644 0.07370065 0.07124481 0.06819464 0.06466371 0.06038096 0.05629056
 0.05475426 0.0573237 0.06276132 0.06806891 0.07116359 0.07192425 0.07103435 0.06870028 0.06483247 0.06026921
 0.05718757 0.05742048 0.06025409 0.06282292 0.06310958 0.06178905 0.06076495 0.06079108 0.0611831 0.06127666
 0.06137571 0.06222795 0.06395274 0.06575669 0.06670411 0.06657059 0.06587784 0.06528173 0.06497602 0.06455654
 0.06358841 0.06247424 0.06240664 0.06406783 0.0666946 0.06886117 0.06990778 0.07018371 0.07010222 0.06941673
 0.0675892 0.06481801 0.0624527 0.0619944 0.06364539 0.06618458 0.06823511 0.06925014 0.06938161 0.0689877
 0.06839137 0.06777177 0.06721276 0.06693098 0.0672265 0.06805681 0.06893282 0.06940868 0.06945127 0.06922635
 0.06877919 0.06808615 0.06727811 0.06665751 0.06648528 0.06678343 0.06735606 0.06796417 0.06842045 0.06857093
 0.06834662 0.0678668 0.06736434 0.06697614 0.06670429 0.0665684 0.06664875 0.06694239 0.06729367 0.06752636
 0.06758545 0.06751817 0.06737385 0.06716648 0.06690977 0.0666571 0.06650063 0.06651083 0.06665583 0.0668153
 0.06691124 0.06698228 0.06707797 0.06713767 0.06705695 0.06684165 0.06661691 0.06649342 0.06647944 0.06651324
 0.06652485 0.0664482 0.06622016 0.06583722 0.06542744 0.06520148 0.06528264 0.06561425 0.06604607 0.06644917
 0.06673419 0.06685362 0.06683906 0.06677621 0.06670515 0.06658664 0.0663861 0.06615869 0.06603381 0.06611404
 0.06638046 0.06670152 0.06694296 0.06705452 0.06706229 0.06703186 0.06704251 0.06712897 0.06722842 0.06723866
 0.06714307 0.0670353 0.06701169 0.06707127 0.06712856 0.06711143 0.06704098 0.067008 0.06706967 0.06719171
 0.06730213 0.06737465 0.06743909 0.06752285 0.06759714 0.06759116 0.06747203 0.06729995 0.06717338 0.06712612
 0.06711825 0.06712236 0.06716545 0.06727065 0.06739883 0.06747891 0.06748403 0.0674542 0.06743877 0.06743275
 0.06738748 0.06727721 0.0671335 0.06701289 0.06694815 0.06693348 0.06694053 0.0669401 0.06691474 0.06685986
 0.06677973 0.06668318 0.06657788 0.0664714 0.06638535 0.06635702 0.06640179 0.06647229 0.06648044 0.06637692
 0.06620084 0.06604098 0.06595112 0.0659094 0.06585656 0.06575999 0.06563449 0.06551395 0.06542071 0.06535867
 0.06531744 0.06528142 0.06525157 0.06526054 0.0653448 0.06548902 0.06561631 0.06565554 0.06561108 0.06554983
 0.06552967 0.0655583 0.06561129 0.06566684 0.06572527 0.06580606 0.06591771 0.06602867 0.06609204 0.06610572
 0.06612223 0.06619168 0.0663205 0.06648552 0.06665356 0.06678355 0.06684855 0.06687043 0.06690654 0.06699006
 0.0671025 0.06721031 0.06730655 0.06740583 0.06751735 0.06764172 0.06778742 0.06797272 0.06820582 0.06846771
 0.06871603 0.06891061 0.06904771 0.0691739 0.06935421 0.0696158 0.06992453 0.07021885 0.07046291 0.07066802
 0.07086835 0.07108038 0.07129265 0.07149889 0.07172555 0.07200601 0.07233518 0.07267286 0.07298982 0.0732899
 0.0735881 0.07388704 0.07418068 0.07447194 0.07478051 0.07512651 0.07550004 0.07585497 0.07614775 0.076381
 0.07660037 0.07685504 0.07716388 0.07750104 0.07780363 0.07801837 0.07816233 0.07831856 0.0785486 0.07882625
 0.07908405 0.07930841 0.07955213 0.07985465 0.08018622 0.0804847 0.08072598 0.08094071 0.08117083 0.08142252
 0.08166087 0.08184622 0.08197524 0.08208376 0.08221062 0.08237216 0.08257695 0.08284123 0.08316447 0.0835021
 0.08379108 0.08400154 0.08414974 0.08427143 0.08439839 0.08454601 0.08470415 0.08484885 0.08497287 0.08508866
 0.0851981 0.08528914 0.08537257 0.08548978 0.08566681 0.08588872 0.08613466 0.08640867 0.08671296 0.08701814
 0.08729532 0.08756553 0.08787806 0.08823358 0.08856239 0.08879703 0.08894002 0.0890401 0.08913216 0.08923507
 0.08938459 0.08961992 0.08993743 0.0902904 0.09063679 0.09096566 0.09127899 0.09156983 0.09182339 0.09202839
 0.0921848 0.092305 0.09241003 0.09252699 0.09268619 0.09290418 0.09316102 0.0934064 0.09359813 0.09372336
 0.09377915 0.09375975 0.09368311 0.09360613 0.09357814 0.09357997 0.09353174 0.09336164 0.09305176 0.09262103
 0.09208871 0.09146848 0.09079019 0.09011444 0.08951876 0.08906646 0.08879074 0.08870965 0.08884461 0.08920361
 0.08974312 0.0903631 0.0909477 0.09139992 0.09164029 0.09160712 0.09128713 0.0907363 0.09005009 0.08931535
 0.08859178 0.08791392 0.08729079 0.08672221 0.08624357 0.0859528 0.08597834 0.08641717 0.08729483 0.08855499
 0.09006527 0.09164637 0.09313139 0.09442582 0.09552447 0.09647568 0.09733176 0.0981293 0.09889375 0.09963535
 0.1003381 0.1009746 0.1015397 0.1020539 0.1025322 0.1029637 0.1033256 0.1036045 0.1038069 0.1039568
 0.10408 0.1041833 0.1042586 0.1043094 0.1043541 0.1043939 0.1043929 0.1042988 0.1040778 0.1037321
 0.1033074 0.1029048 0.1026811 0.1028158 0.103437 0.1045473 0.1060105 0.1076188 0.1091803 0.1105584
 0.1116758 0.1125213 0.1131505 0.1136498 0.1140881 0.1144998 0.1148978 0.1152844 0.1156566 0.1160149
 0.1163669 0.1167218 0.1170851 0.1174558 0.1178217 0.1181631 0.1184719 0.1187671 0.1190829 0.1194383
 0.1198186 0.12019 0.1205349 0.1208676 0.1212069 0.1215435 0.1218496 0.1221191 0.1223776 0.1226573
 0.1229747 0.1233272 0.1236897 0.1240216 0.1242962 0.1245266 0.1247509 0.1249955 0.1252599 0.125533
 0.1258075 0.1260817 0.1263557 0.1266343 0.1269258 0.127229 0.1275222 0.1277762 0.1279851 0.1281759
 0.1283817 0.1286097 0.128842 0.1290629 0.1292793 0.1295156 0.1297918 0.1301024 0.1304154 0.130693
 0.1309187 0.1311068 0.1312877 0.131485 0.1317047 0.1319412 0.1321862 0.1324333 0.1326771 0.132916
 0.1331544 0.1333983 0.1336463 0.1338895 0.1341214 0.1343479 0.1345814 0.1348276 0.1350823 0.1353422
 0.1356116 0.1358922 0.1361702 0.1364226 0.136638 0.136825 0.1370016 0.13718 0.1373658 0.1375651
 0.1377852 0.138025 0.1382711 0.1385087 0.1387341 0.1389548 0.1391788 0.139408 0.1396412 0.1398783
 0.1401209 0.1403701 0.1406227 0.1408698 0.141103 0.1413226 0.1415372 0.141754 0.1419711 0.1421823
 0.1423854 0.1425845 0.1427858 0.1429929 0.1432066 0.1434263 0.1436483 0.1438656 0.1440742 0.14428
 0.1444933 0.1447157 0.1449391 0.1451587 0.1453788 0.1456045 0.1458324 0.1460549 0.1462701 0.1464836
 0.1467006 0.1469192 0.1471352 0.1473484 0.1475605 0.1477717 0.1479841 0.1482039 0.1484329 0.1486623
 0.1488798 0.1490828 0.1492799 0.1494823 0.1496945 0.1499128 0.1501308 0.1503459 0.1505602 0.1507779
 0.1510027 0.1512347 0.1514668 0.1516897 0.1519011 0.1521066 0.1523134 0.1525277 0.152754 0.1529914
 0.1532322 0.1534667 0.1536882 0.1538969 0.1540997 0.1543027 0.154503 0.1546954 0.1548821 0.1550697
 0.1552601 0.1554534 0.155653 0.1558598 0.1560698 0.156281 0.1564943 0.1567102 0.1569277 0.157146
 0.1573619 0.1575726 0.1577816 0.1579939 0.158209 0.1584242 0.1586391 0.1588545 0.1590716 0.1592941
 0.1595236 0.1597571 0.1599911 0.1602217 0.160441 0.1606472 0.1608509 0.1610593 0.1612654 0.1614656
 0.1616725 0.1618973 0.1621346 0.1623704 0.1625959 0.1628096 0.1630179 0.1632285 0.163441 0.1636497
 0.1638513 0.1640469 0.1642436 0.1644551 0.1646859 0.1649201 0.1651402 0.1653499 0.1655627 0.1657826
 0.1660078 0.1662349 0.1664564 0.1666688 0.1668796 0.1670918 0.1672997 0.1675031 0.1677054 0.1678907
 0.1680135 0.167968 0.1674964 0.1660878 0.1629648 0.1572362 0.1482495 0.1360017 0.1212871 0.1054156
 0.08972704 0.07524146 0.06256114 0.05195142 0.04347147 0.03705968 0.03258877 0.0299536 0.02915779 0.03040552
 0.03421124 0.04110118 0.05045453 0.05946938 0.06424996 0.06288318 0.05726533 0.05136657 0.04792727 0.0471388
 0.04783465 0.0490237 0.05039288 0.05212136 0.05451838 0.05767138 0.06142931 0.06578533 0.07106404 0.07750627
 0.08477132 0.09207976 0.09888543 0.105304 0.1118465 0.1188036 0.1259413 0.1327319 0.1387747 0.1439939
 0.1485579 0.1526971 0.1565732 0.160255 0.1637604 0.1670683 0.1700619 0.1725013 0.1741317 0.1748762
 0.1749332 0.174674 0.1744284 0.1743527 0.1744619 0.1747277 0.1751277 0.1756434 0.1762556 0.1769443
 0.177684 0.1784463 0.1792071 0.1799487 0.1806575 0.1813262 0.1819503 0.1825234 0.1830421 0.1835136
 0.1839492 0.184355 0.1847345 0.1850929 0.1854339 0.1857596 0.186075 0.1863852 0.1866867 0.1869661
 0.187209 0.1874124 0.187591 0.1877704 0.1879688 0.1881842 0.1884021 0.1886102 0.1888063 0.1889989
 0.189201 0.1894166 0.1896356 0.1898451 0.1900444 0.190241 0.1904393 0.1906381 0.1908349 0.1910278
 0.1912171 0.1914091 0.1916097 0.1918143 0.1920105 0.1921939 0.1923745 0.1925642 0.1927615 0.1929542
 0.1931387 0.1933291 0.1935394 0.1937638 0.1939857 0.1941997 0.1944106 0.1946196 0.1948258 0.1950333
 0.1952409 0.195433 0.1955962 0.1957417 0.1959036 0.1961111 0.1963587 0.1966071 0.1968192 0.1969941
 0.1971605 0.1973438 0.1975469 0.1977535 0.1979488 0.198143 0.1983653 0.1986251 0.1988981 0.1991602
 0.1994111 0.1996553 0.1998906 0.2001218 0.2003551 0.2005724 0.2007449 0.2008798 0.2010366 0.2012822
 0.2016258 0.2020013 0.2023259 0.2025755 0.2027875 0.2030088 0.2032636 0.2035354 0.203745 0.2038056
 0.203759 0.2037989 0.2040893 0.2045975 0.2051542 0.2056294 0.2060038 0.2063147 0.2065898 0.2068224
 0.2069786 0.2070336 0.2070301 0.2070999 0.2073771 0.2078574 0.2083865 0.208818 0.2091312 0.2093739
 0.2095793 0.2097641 0.2098971 0.2098477 0.209523 0.2091165 0.2090593 0.2096005 0.2105232 0.2113751
 0.2119155 0.212236 0.2125041 0.2127583 0.2129614 0.2130372 0.2127651 0.211906 0.2106689 0.2098444
 0.2101515 0.2115105 0.2131713 0.2144624 0.2152195 0.2156197 0.2158786 0.2161029 0.2162153 0.2159707
 0.2152263 0.214298 0.2138846 0.2144288 0.2156204 0.216728 0.2173459 0.2176096 0.2178089 0.2180613
 0.2182343 0.2179005 0.2165779 0.2144417 0.2126887 0.2126973 0.2146798 0.217427 0.2195059 0.2204932
 0.2208694 0.2209661 0.2204767 0.2190152 0.2167037 0.2141108 0.2120681 0.211569 0.2131202 0.2159029
 0.2182256 0.2191958 0.2194811 0.2201989 0.2215744 0.2229416 0.2236112 0.2234086 0.2225533 0.2212709
 0.219682 0.2181613 0.2175638 0.2186209 0.2210536 0.2236626 0.2254401 0.2263376 0.2267472 0.2263293
 0.2237747 0.2183774 0.2120046 0.2085855 0.2106492 0.2166836 0.2227603 0.2263939 0.2279067 0.2286019
 0.2290139 0.2287506 0.2267127 0.2216943 0.2142802 0.208043 0.207123 0.2121269 0.219442 0.2246147
 0.2253882 0.2219358 0.216053 0.210627 0.2084651 0.2105927 0.2157988 0.2218356 0.2267699 0.2295147
 0.2298213 0.2281752 0.225752 0.2241263 0.224136 0.2246402 0.2233783 0.2198248 0.2160726 0.2137683
 0.2115671 0.2076228 0.2036358 0.2037309 0.2090917 0.2159796 0.2199339 0.2202927 0.2193948 0.2183249
 0.2150585 0.2073722 0.1970422 0.1899369 0.1908846 0.1986656 0.2071021 0.211105 0.2107197 0.2093274
 0.2091261 0.2088929 0.2057248 0.198831 0.1914564 0.1881644 0.1899902 0.1935067 0.1948807 0.1929529
 0.18792 0.1800723 0.1719474 0.1691346 0.1755646 0.1886857 0.2014577 0.2081519 0.2064579 0.1962191
 0.1801911 0.1656696 0.1609564 0.1679548 0.1798758 0.1874808 0.1864212 0.1780394 0.1654151 0.1512203
 0.1389163 0.1331517 0.1369752 0.1487376 0.1622032 0.1697047 0.1663789 0.1538961 0.1406935 0.1359102
 0.1411378 0.1493745 0.1528856 0.1502141 0.1450902 0.1415575 0.1415992 0.1448833 0.1491545 0.1523198
 0.1541181 0.153836 0.1480504 0.1347841 0.1191248 0.1099089 0.110528 0.1171665 0.125895 0.1361768
 0.1462515 0.1507341 0.1466847 0.1392058 0.1371188 0.1436086 0.1534823 0.1595 0.1595415 0.157011
 0.1555579 0.1551537 0.1539537 0.152589 0.154296 0.1604656 0.1682088 0.1735745 0.1756575 0.1762429
 0.1767817 0.1772859 0.1773529 0.1768364 0.1757885 0.1745499 0.1736391 0.1731638 0.1727211 0.1720028
 0.1707719 0.1679524 0.1618704 0.152629 0.1436136 0.1388358 0.1387118 0.1403072 0.1417022 0.1431315
 0.1429424 0.1364346 0.1220589 0.1065147 0.09987067 0.1058408 0.1190372 0.1311324 0.1372379 0.1363169
 0.128693 0.1162266 0.1043604 0.1004349 0.1076985 0.1221887 0.1369834 0.1481597 0.1552061 0.1577221
 0.1547749 0.1473537 0.1393304 0.1352606 0.137637 0.1457807 0.1560153 0.1625522 0.1603176 0.1500326
 0.1405491 0.1423192 0.1563535 0.1724579 0.1806816 0.1814272 0.1813761 0.1830961 0.1837756 0.1826
 0.1836919 0.1904542 0.2005346 0.2081226 0.2090386 0.2023771 0.1899568 0.1767343 0.1695262 0.1715606
 0.1788255 0.1844387 0.1853169 0.1818178 0.1736826 0.161661 0.1517687 0.1516996 0.1619184 0.1746111
 0.1825641 0.1857406 0.188048 0.1905916 0.1903369 0.1847248 0.1759513 0.1696131 0.1691675 0.1729
 0.1768044 0.1787953 0.1787549 0.1761591 0.1703991 0.163438 0.1598267 0.1627628 0.1707881 0.1791548
 0.1840685 0.185067 0.1839028 0.1822874 0.1807407 0.1787307 0.1758175 0.173137 0.1731826 0.1771193
 0.1828902 0.1873105 0.1897099 0.1921541 0.1961918 0.2007019 0.2032423 0.2027098 0.2003959 0.1988747
 0.199945 0.2031955 0.2062991 0.2069952 0.2052403 0.2034483 0.2042615 0.2080193 0.2127143 0.2162682
 0.2182277 0.2193191 0.2202132 0.2209481 0.2209135 0.2193139 0.2163035 0.213657 0.2135235 0.2162966
 0.2202323 0.2232398 0.2245623 0.2246817 0.2242006 0.2232333 0.2217188 0.2199461 0.2185602 0.218075
 0.2185152 0.2195425 0.2207789 0.2219582 0.2229354 0.2236888 0.2242777 0.2247485 0.2251128 0.2253991
 0.2256398 0.2258013 0.2258222 0.2257517 0.2257673 0.2259918 0.2263465 0.2266388 0.22674 0.2266057
 0.2261793 0.2253989 0.2243032 0.2230226 0.2216302 0.2200953 0.2184748 0.2171168 0.2165572 0.2171239
 0.2186402 0.220538 0.2222502 0.2234902 0.2242454 0.2246369 0.2248176 0.2249188 0.2250096 0.2250889
 0.2251272 0.225116 0.225075 0.2250229 0.2249616 0.2248958 0.2248501 0.224847 0.2248707 0.2248666
 0.2247774 0.2245769 0.2242794 0.2239248 0.2235448 0.2231311 0.2226368 0.2220176 0.221275 0.2204606
 0.2196398 0.2188476 0.2180687 0.2172517 0.2163493 0.2153443 0.2142306 0.2129798 0.2115681 0.2100503
 0.2085592 0.2071987 0.2059608 0.2047629 0.2035278 0.2022107 0.2007947 0.1993013 0.1977855 0.196294
 0.1948316 0.1933715 0.1918858 0.1903643 0.1888125 0.1872346 0.1856199 0.1839531 0.1822373 0.1804937
 0.1787235 0.1768673 0.1748139 0.172452 0.1697096 0.1665528 0.1629792 0.1590388 0.1548488 0.1505713
 0.146372 0.1423884 0.1387204 0.1354405 0.1326126 0.1302914 0.1285058 0.1272607 0.12656 0.1264133
 0.1268171 0.1277388 0.1291151 0.1308573 0.1328615 0.1350131 0.1371835 0.1392471 0.1411319 0.1428547
 0.1444855 0.1460729 0.147608 0.1490535 0.1503909 0.1516275 0.1527637 0.1537774 0.1546534 0.155409
 0.1560724 0.1566532 0.1571522 0.1575869 0.1579873 0.1583727 0.1587426 0.1590895 0.1594174 0.1597474
 0.1601039 0.1604998 0.1609384 0.1614215 0.1619484 0.162516 0.1631232 0.163768 0.1644435 0.165146
 0.1658827 0.1666659 0.1675096 0.1684355 0.1694641 0.1705969 0.1718159 0.1730948 0.1743938 0.1756469
 0.1767754 0.1777247 0.1784897 0.1791044 0.179608 0.1800255 0.1803783 0.1806922 0.1809769 0.1812129
 0.1813747 0.1814604 0.1814916 0.1814973 0.1815007 0.1815078 0.1815087 0.1815003 0.1814964 0.1815052
 0.1815117 0.1814953 0.1814559 0.1814086 0.181361 0.1813008 0.1812082 0.1810795 0.1809308 0.1807747
 0.1806033 0.1803977 0.1801381 0.1797989 0.1793528 0.1787898 0.1781193 0.1773492 0.1764761 0.1754976
 0.1744209 0.1732546 0.1720007 0.1706592 0.1692386 0.1677482 0.1661765 0.164496 0.1627084 0.1608759
 0.1590888 0.1574098 0.1558598 0.1544337 0.1531089 0.1518508 0.1506343 0.1494608 0.1483468 0.1473013
 0.1463157 0.1453728 0.1444621 0.1435876 0.1427648 0.1420155 0.1413569 0.1407859 0.1402775 0.1398128
 0.1393923 0.139016 0.1386736 0.1383717 0.1381432 0.138002 0.1379052 0.1377826 0.1375999 0.1373805
 0.1371733 0.137005 0.1368671 0.1367417 0.136621 0.1364881 0.1362949 0.1359719 0.1354464 0.1346551
 0.1335673 0.1322089 0.130656 0.1290121 0.1273971 0.1259278 0.124679 0.1236692 0.1228827 0.1222826
 0.1218104 0.1214108 0.1210679 0.1208112 0.1206835 0.1206854 0.1207335 0.1207067 0.1205717 0.1204394
 0.1204629 0.1207086 0.121137 0.1216573 0.122173 0.1226132 0.1229513 0.1231942 0.1233615 0.1234743
 0.1235374 0.1235303 0.1234375 0.1232767 0.1230754 0.1228389 0.1225548 0.1222079 0.1217875 0.1212967
 0.1207429 0.1201162 0.1194052 0.1186187 0.1177519 0.1167694 0.1156991 0.1147168 0.1140698 0.1139142
 0.114229 0.1148487 0.1155844 0.1163409 0.1170739 0.1176341 0.117815 0.1176831 0.117736 0.118536
 0.1201627 0.1221196 0.1237788 0.1248271 0.1252812 0.1252369 0.1247461 0.1238472 0.1225536 0.1208413
 0.1187402 0.1163778 0.113883 0.1113512 0.1089145 0.1067193 0.1048431 0.1033053 0.1020967 0.1012287
 0.1007898 0.1004767 0.09876547 0.09370451 0.08595281 0.0801506 0.08103776 0.08812298 0.09600589 0.1000707
 0.1001683 0.09874855 0.09752043 0.09674818 0.09633037 0.0963661 0.09696536 0.09802314 0.09920469 0.1001446
 0.1006976 0.1009179 0.1007924 0.1000377 0.09806468 0.09418051 0.08814314 0.08066434 0.07317217 0.06696802
 0.0626355 0.06006329 0.05873914 0.05805441 0.0576049 0.05736096 0.05755612 0.05840497 0.05992623 0.06200223
 0.0645076 0.06726779 0.06994712 0.0721816 0.07386991 0.07518123 0.07625324 0.07703584 0.07743736 0.07746227
 0.07717638 0.07665564 0.07599783 0.07530059 0.07458213 0.07376339 0.07279392 0.07180119 0.07103702 0.07063775
 0.0705114 0.07048812 0.07048183 0.07047735 0.07046975 0.07045855 0.07044332 0.07043503 0.07050232 0.07073702
 0.07112993 0.07154867 0.07186455 0.07205161 0.07216185 0.07222179 0.07213955 0.07177851 0.07120071 0.07070007
 0.07042229 0.07009733 0.06939194 0.06842817 0.06770438 0.06754607 0.06782767 0.06819656 0.06839398 0.06836458
 0.06823109 0.0682375 0.06858566 0.06919015</values></Ydata></ScSm><ScRf><Ydata ylabel="Single channel"><values byteorder="INTEL" format="FLOAT32" numvalues="1820"> 0.06066321 0.06081617 0.06091435 0.06095786 0.06096546 0.06097624 0.0610373 0.06117272 0.06136159 0.06154795
 0.06168047 0.06174718 0.06176356 0.06173564 0.06166758 0.06160812 0.06164137 0.06180356 0.06203014 0.0622025
 0.06224478 0.06218749 0.062146 0.06220816 0.06231681 0.06228719 0.06198176 0.06146997 0.06098206 0.06069714
 0.06063569 0.06079514 0.06125489 0.06195702 0.06247231 0.06231008 0.06153138 0.06077022 0.06053076 0.06070669
 0.06087886 0.06080101 0.06047314 0.06004427 0.05985951 0.06037141 0.06169486 0.06323449 0.06389683 0.06278267
 0.05983084 0.05602133 0.05301145 0.05224675 0.05394338 0.05679738 0.05896411 0.05953174 0.05895924 0.0581382
 0.0574283 0.05677477 0.05634071 0.05654987 0.05750401 0.05858006 0.05875154 0.05747265 0.05532813 0.0536151
 0.05315592 0.05378343 0.05503801 0.0566686 0.05792626 0.0571635 0.05345608 0.04865368 0.04655508 0.04929649
 0.05506933 0.05988599 0.06112792 0.05901773 0.05545902 0.05245548 0.05135233 0.05248047 0.05510666 0.0580409
 0.0603526 0.06140899 0.0607189 0.05836257 0.05540647 0.05338346 0.05335199 0.05548386 0.05902758 0.06237414
 0.06378779 0.06268862 0.06003906 0.05732953 0.05559905 0.05543363 0.05710923 0.06030493 0.06408849 0.06745242
 0.06972034 0.07062076 0.07035424 0.06946912 0.06843928 0.06757298 0.06730453 0.06793562 0.0689009 0.068974
 0.06760567 0.06566649 0.06455401 0.06474678 0.06542261 0.0654581 0.06456661 0.06311075 0.06098538 0.05759616
 0.0532191 0.04936618 0.04727207 0.04695222 0.04810439 0.05058929 0.05336493 0.05442253 0.05298323 0.05090304
 0.05083054 0.05338323 0.05682842 0.05920172 0.06012581 0.06068101 0.06201187 0.0641536 0.06587952 0.0656279
 0.06305508 0.05990671 0.05878235 0.0605819 0.06363907 0.06576964 0.06657586 0.0671996 0.0683312 0.06913982
 0.06814203 0.06496585 0.06128804 0.05978908 0.06181493 0.06603062 0.06939128 0.06939126 0.06574881 0.06047127
 0.05629366 0.05478565 0.05593655 0.05920468 0.0641173 0.06970775 0.07426123 0.07627383 0.07554175 0.07309043
 0.07000205 0.06641321 0.06205913 0.05792226 0.05644929 0.0592449 0.06501961 0.07066071 0.07400878 0.07493576
 0.07413755 0.07180633 0.06783712 0.0631274 0.06000318 0.0604143 0.06358741 0.06645993 0.06688453 0.06559029
 0.06461509 0.06476571 0.06531019 0.06554084 0.06579415 0.06688172 0.06892598 0.07105337 0.07223502 0.07221785
 0.07157159 0.0710289 0.07082057 0.07050589 0.06959899 0.06854127 0.06864795 0.07066101 0.07372099 0.07624839
 0.07752903 0.07797162 0.07804184 0.07744625 0.07555278 0.07256939 0.07002843 0.06964906 0.07167396 0.07471454
 0.07719496 0.07848831 0.07877481 0.07846978 0.07793836 0.07737993 0.07689518 0.07674009 0.07725424 0.07837349
 0.07952608 0.08020446 0.08038191 0.08025278 0.07986196 0.07917799 0.07836129 0.0777753 0.07772373 0.07822202
 0.0790378 0.07990016 0.08059473 0.08092754 0.08079682 0.0803396 0.07984945 0.07950962 0.07932919 0.0793246
 0.07957882 0.08007712 0.08063042 0.08103316 0.08122292 0.08125331 0.08118345 0.08103859 0.08084382 0.08066525
 0.08060969 0.08075002 0.08103137 0.08130726 0.08151084 0.08172188 0.08200048 0.08223505 0.08225857 0.08207206
 0.08185434 0.08176693 0.08182488 0.08194612 0.08204468 0.08204392 0.0818641 0.08149269 0.08108047 0.08088552
 0.08106845 0.0815789 0.08224493 0.08289424 0.08338393 0.08363251 0.08367991 0.08364546 0.08359209 0.08348322
 0.08328488 0.08306554 0.08297843 0.0831477 0.08355656 0.08404884 0.08445246 0.08468873 0.0847773 0.08480282
 0.08488084 0.08506874 0.08528303 0.0853768 0.08532059 0.08524312 0.08527423 0.08539785 0.08548407 0.08544427
 0.08533569 0.08530541 0.08543512 0.085665 0.08587936 0.08603734 0.08619367 0.0864013 0.08661383 0.08670457
 0.08660159 0.08638634 0.08621483 0.08615376 0.08615482 0.08618418 0.08628999 0.08650608 0.08675541 0.08691175
 0.08693992 0.08692653 0.08696493 0.08704209 0.08706135 0.08695916 0.08677314 0.08660121 0.08652055 0.08654547
 0.08663273 0.08671142 0.08672279 0.08665381 0.08653814 0.08642136 0.08632797 0.08627155 0.08628868 0.08642726
 0.08667405 0.08690964 0.08697867 0.08682717 0.08656174 0.08635645 0.08629473 0.08630478 0.08624789 0.08605672
 0.08578175 0.08552147 0.08533265 0.08520703 0.08510804 0.08501658 0.08495429 0.08497143 0.08509345 0.0852615
 0.08534491 0.08524745 0.08500117 0.08473386 0.08455279 0.08448008 0.0844758 0.08448635 0.08448526 0.0844969
 0.08456002 0.08465035 0.08468072 0.08460551 0.08448449 0.0844204 0.08447352 0.08464304 0.08486982 0.0850421
 0.08506466 0.08495662 0.08483966 0.08481145 0.08486655 0.08494838 0.08503013 0.08511928 0.08521809 0.0853175
 0.08542502 0.08557338 0.08579051 0.08606191 0.08632565 0.08651391 0.08661398 0.08669239 0.08684643 0.08712158
 0.08747396 0.08781143 0.08806848 0.08824866 0.08840307 0.08857137 0.08875184 0.08893505 0.08914548 0.08941992
 0.08975322 0.09009757 0.09041509 0.09070539 0.09098427 0.09126015 0.09153699 0.09183022 0.0921725 0.0925885
 0.09304705 0.09345386 0.09372441 0.09386657 0.09397751 0.09416661 0.09448276 0.09488032 0.09523629 0.09544288
 0.09551893 0.0956008 0.09579186 0.09605601 0.09629831 0.09651503 0.09680253 0.09722084 0.09770016 0.09810346
 0.09835867 0.09851278 0.09866475 0.0988581 0.09904691 0.09916832 0.0992315 0.09930795 0.09944109 0.0996117
 0.09980667 0.1000697 0.1004404 0.1008744 0.101272 0.1015701 0.1017745 0.1019201 0.1020343 0.1021254
 0.1021825 0.1022007 0.1022139 0.1022747 0.102385 0.1024846 0.1025311 0.1025571 0.1026265 0.102768
 0.1029776 0.1032491 0.1035621 0.1038662 0.1041273 0.104385 0.1047131 0.1051049 0.1054443 0.1056261
 0.105669 0.1056712 0.1056876 0.1057124 0.105762 0.1058985 0.1061555 0.1064931 0.1068484 0.1071976
 0.107549 0.1078997 0.1082155 0.1084455 0.1085559 0.1085605 0.1085225 0.1085257 0.1086367 0.1088752
 0.1092017 0.1095385 0.1098182 0.1100098 0.1101005 0.110087 0.110014 0.1099891 0.1101011 0.1103163
 0.1104896 0.1104861 0.1102701 0.1098805 0.1093601 0.1087376 0.1080581 0.1073988 0.1068404 0.1064311
 0.1061899 0.1061432 0.1063376 0.1067909 0.1074368 0.1081451 0.1087994 0.1093264 0.109652 0.1096825
 0.1093723 0.1087841 0.1080536 0.1073058 0.1066147 0.1060008 0.1054337 0.1048723 0.1043492 0.1040124
 0.1040551 0.1046012 0.1056434 0.107049 0.1086006 0.1100674 0.1112957 0.1122643 0.1130543 0.1137623
 0.1144398 0.1151047 0.1157729 0.1164454 0.11708 0.1176214 0.1180672 0.1184719 0.1188806 0.1192871
 0.1196546 0.1199542 0.1201861 0.1203844 0.1205847 0.1207701 0.1208744 0.1208575 0.1207553 0.1206335
 0.1205139 0.1203597 0.1201127 0.1197403 0.1192784 0.1188567 0.1186709 0.1188956 0.1195874 0.1206531
 0.1219192 0.1232371 0.1245183 0.1256822 0.1266293 0.1272991 0.1277311 0.1280329 0.1282995 0.1285752
 0.1288687 0.1291741 0.1294795 0.1297713 0.1300434 0.1303079 0.1305974 0.1309373 0.1313059 0.1316406
 0.1319001 0.1321161 0.132369 0.1327091 0.1331083 0.1334909 0.1338162 0.134114 0.1344281 0.1347427
 0.1349998 0.1351816 0.1353416 0.135551 0.1358421 0.1361988 0.1365705 0.1368926 0.1371284 0.1372997
 0.1374624 0.1376535 0.1378734 0.1381122 0.1383663 0.1386306 0.1388939 0.1391557 0.1394328 0.1397347
 0.1400325 0.1402727 0.1404332 0.1405538 0.1406993 0.1408982 0.1411264 0.1413458 0.1415491 0.1417693
 0.1420456 0.1423753 0.142702 0.1429592 0.1431262 0.1432404 0.1433589 0.1435159 0.1437127 0.1439327
 0.1441575 0.1443733 0.1445743 0.1447671 0.1449671 0.1451842 0.1454136 0.1456407 0.1458532 0.1460488
 0.146236 0.1464271 0.1466331 0.1468649 0.1471323 0.1474296 0.1477225 0.1479678 0.1481481 0.148283
 0.1484058 0.1485399 0.1486942 0.1488696 0.1490628 0.1492687 0.1494796 0.1496869 0.1498854 0.1500772
 0.1502689 0.1504678 0.1506769 0.1508926 0.1511093 0.1513302 0.1515637 0.151807 0.1520406 0.1522473
 0.1524301 0.1526083 0.1527988 0.1530041 0.1532122 0.1534083 0.1535911 0.1537731 0.1539656 0.1541674
 0.1543695 0.1545661 0.1547558 0.154938 0.1551135 0.1552871 0.155467 0.1556586 0.1558606 0.1560683
 0.1562775 0.1564841 0.1566842 0.1568793 0.1570744 0.1572703 0.157465 0.1576627 0.1578703 0.1580845
 0.1582935 0.1584903 0.1586786 0.1588656 0.1590569 0.1592537 0.1594524 0.1596485 0.1598431 0.1600437
 0.1602584 0.1604864 0.1607143 0.1609251 0.1611152 0.1612993 0.1614948 0.1617077 0.1619331 0.162163
 0.1623906 0.1626138 0.1628334 0.163048 0.1632556 0.1634592 0.163666 0.1638786 0.1640896 0.1642876
 0.1644668 0.1646325 0.1647968 0.1649666 0.1651405 0.1653165 0.1654964 0.1656813 0.1658714 0.1660689
 0.1662719 0.1664744 0.1666737 0.1668735 0.1670744 0.1672724 0.1674668 0.1676602 0.1678548 0.168054
 0.1682617 0.1684763 0.1686921 0.1689047 0.1691118 0.1693145 0.1695212 0.1697391 0.1699614 0.1701753
 0.1703798 0.1705839 0.1707933 0.1710084 0.1712266 0.17144 0.1716423 0.1718374 0.1720332 0.1722335
 0.1724413 0.1726569 0.1728725 0.1730821 0.1732914 0.1735054 0.1737185 0.1739266 0.1741344 0.1743443
 0.1745541 0.1747643 0.1749751 0.175186 0.1754026 0.175631 0.1758646 0.1760915 0.1763099 0.1765215
 0.1767251 0.1769252 0.1771269 0.1773147 0.1774408 0.1773886 0.1768794 0.1753694 0.1720334 0.1659248
 0.1563533 0.1433227 0.1276817 0.1108202 0.09415763 0.07877657 0.06531969 0.05407189 0.04509757 0.03833047
 0.03363051 0.03087581 0.03006046 0.03139826 0.03543571 0.04272691 0.05260853 0.06211707 0.06714185 0.0656696
 0.05971029 0.0534654 0.04983591 0.04902326 0.04978649 0.05106698 0.05252603 0.05435285 0.05688079 0.06020886
 0.06417997 0.06878781 0.07437697 0.0812019 0.0888997 0.09664305 0.1038513 0.1106435 0.1175601 0.1249148
 0.1324663 0.1396561 0.1460554 0.151585 0.1564277 0.1608216 0.1649223 0.1687975 0.1724855 0.1759908
 0.1791951 0.1818248 0.1835855 0.184383 0.184432 0.1841405 0.1838699 0.1837843 0.1838896 0.1841516
 0.1845515 0.1850777 0.1857165 0.1864498 0.1872488 0.1880784 0.1889091 0.189717 0.1904816 0.1911927
 0.1918509 0.1924573 0.193012 0.1935203 0.1939902 0.1944262 0.1948326 0.195214 0.1955698 0.1958996
 0.1962106 0.196512 0.1968044 0.1970807 0.1973346 0.1975661 0.1977837 0.198 0.1982193 0.1984355
 0.1986442 0.1988494 0.1990547 0.1992601 0.1994655 0.1996718 0.1998774 0.2000805 0.2002814 0.2004815
 0.2006838 0.2008918 0.2011032 0.2013066 0.2014946 0.2016727 0.2018531 0.2020417 0.2022356 0.2024283
 0.2026168 0.2028065 0.2030036 0.2032029 0.2033947 0.2035828 0.2037829 0.2040011 0.2042291 0.2044579
 0.2046833 0.2049031 0.2051183 0.2053341 0.2055466 0.2057386 0.2058971 0.2060338 0.2061822 0.2063721
 0.2066041 0.2068477 0.2070697 0.2072616 0.2074372 0.2076133 0.2077964 0.2079824 0.2081678 0.2083659
 0.2085984 0.2088639 0.2091328 0.2093844 0.2096237 0.2098587 0.2100882 0.2103167 0.2105451 0.2107474
 0.2108923 0.2109985 0.2111442 0.2114051 0.211779 0.212178 0.2125057 0.2127413 0.2129359 0.2131475
 0.2134017 0.2136735 0.2138717 0.2139045 0.2138234 0.2138416 0.2141344 0.21466 0.2152276 0.2156947
 0.2160479 0.2163393 0.2166049 0.2168334 0.2169777 0.2170027 0.2169562 0.2169914 0.2172611 0.2177584
 0.2183077 0.2187468 0.2190579 0.2192988 0.2195039 0.2196841 0.219803 0.2197239 0.2193489 0.2188815
 0.2187796 0.2193125 0.2202538 0.221122 0.2216595 0.2219674 0.2222319 0.222497 0.2227141 0.2227919
 0.2224965 0.2215819 0.2202701 0.2193894 0.2196937 0.2211017 0.2228306 0.2241781 0.2249663 0.2253712
 0.2256175 0.2258265 0.2259225 0.2256433 0.2248357 0.2238415 0.2234085 0.2240031 0.2252863 0.2264729
 0.2271292 0.2274035 0.2276115 0.2278811 0.2280655 0.2277044 0.2262882 0.2240129 0.2221536 0.2221644
 0.2242552 0.2271381 0.2293022 0.2303108 0.2306775 0.2307534 0.2302151 0.228656 0.226204 0.2234589
 0.2213031 0.2207907 0.2224504 0.2253997 0.2278436 0.2288522 0.229149 0.229919 0.2313917 0.2328552
 0.2335763 0.2333668 0.2324577 0.2310909 0.2294033 0.227802 0.2271917 0.2283296 0.2309002 0.2336313
 0.2354697 0.2363816 0.2367952 0.2363591 0.2336875 0.228024 0.2213281 0.2177387 0.2199221 0.2262851
 0.2326866 0.2365095 0.2381037 0.2388503 0.239301 0.2390191 0.2368427 0.2315263 0.223712 0.2171645
 0.2162247 0.2215136 0.2292275 0.234689 0.2355278 0.2319183 0.2257465 0.2200574 0.2178105 0.2200801
 0.2255871 0.2319663 0.2371873 0.2401095 0.240467 0.2387583 0.2362192 0.2345276 0.2345831 0.2351753
 0.2339055 0.2302183 0.2263255 0.2239594 0.221693 0.2175769 0.2134145 0.2135749 0.2193154 0.2266799
 0.2309431 0.2313996 0.2305158 0.2294326 0.2260179 0.2179445 0.2071109 0.1997256 0.2008821 0.2092705
 0.2183448 0.2227324 0.2225011 0.221236 0.2212569 0.2212502 0.2181115 0.2109954 0.2033913 0.200202
 0.202529 0.2066823 0.2085466 0.2068665 0.2018217 0.1937113 0.1853005 0.1826655 0.1900755 0.2047668
 0.2190995 0.2268432 0.2254589 0.2147344 0.1976722 0.1823298 0.1779046 0.186489 0.2005174 0.20972
 0.209276 0.200675 0.1873246 0.1722224 0.1593602 0.1541717 0.1602875 0.1758499 0.1935069 0.2040434
 0.2014812 0.1877614 0.1732067 0.1690947 0.1773612 0.1892341 0.1950473 0.1930118 0.1878455 0.1847193
 0.1862823 0.1921604 0.1993429 0.205023 0.2088431 0.2096973 0.2027014 0.1850603 0.16384 0.1513082
 0.1521925 0.1612639 0.173149 0.1871568 0.2008766 0.2068635 0.2010324 0.1903906 0.1870686 0.1954404
 0.2083774 0.2159679 0.2153317 0.2111503 0.2084515 0.2072569 0.2050733 0.2026853 0.2043823 0.2120425
 0.2218699 0.2286334 0.2311099 0.2316373 0.2321343 0.2326371 0.2326345 0.2319396 0.2306126 0.2290943
 0.2280763 0.227718 0.2274947 0.2269986 0.2259125 0.2227769 0.2152992 0.2035674 0.1921077 0.1862987
 0.1866675 0.1892443 0.1914696 0.1936925 0.1936677 0.1850046 0.1656056 0.1445947 0.1356812 0.1439139
 0.1619201 0.1783116 0.186411 0.1848278 0.1740547 0.1566643 0.140018 0.1339603 0.1427925 0.1611491
 0.1797348 0.1933297 0.2013694 0.2035017 0.1986215 0.1880528 0.1768136 0.1707403 0.1729358 0.1824143
 0.1944342 0.2017156 0.1980013 0.184275 0.1715003 0.1725232 0.1885907 0.207268 0.2164185 0.2164941
 0.2155925 0.2168731 0.2170005 0.214992 0.2157536 0.2233546 0.2350476 0.2439843 0.2452303 0.2377059
 0.2235475 0.2086089 0.2009386 0.2042897 0.2137884 0.2211821 0.222797 0.219052 0.2095994 0.195372
 0.183736 0.1840586 0.1968623 0.2126054 0.2225283 0.2266323 0.2296943 0.2330368 0.2329197 0.2262034
 0.2155947 0.2079787 0.2076148 0.2124179 0.2175027 0.2203421 0.2207871 0.2181366 0.2115757 0.2035155
 0.1996271 0.2039048 0.2145023 0.225427 0.2318782 0.233247 0.2317149 0.2294254 0.2270447 0.2239326
 0.2195678 0.215398 0.2145618 0.2185363 0.2247865 0.2293738 0.2314702 0.2336332 0.2377936 0.2425998
 0.2450615 0.2438071 0.2403818 0.237894 0.2385175 0.2417673 0.2448663 0.2451204 0.2424824 0.239836
 0.2403394 0.2444166 0.2497023 0.2537303 0.2559367 0.2571555 0.2581827 0.2590778 0.2591116 0.2573162
 0.2538574 0.2508385 0.2508075 0.254228 0.2590369 0.2627802 0.2646023 0.2651041 0.2649812 0.2642984
 0.2628972 0.2610566 0.2595089 0.2588527 0.2591208 0.259936 0.2609048 0.2617835 0.2624522 0.2628979
 0.2631876 0.2633823 0.2635056 0.2635911 0.2636695 0.2637011 0.2636191 0.2634767 0.2634573 0.2636718
 0.2640117 0.2642614 0.2642919 0.2640649 0.2635157 0.2625706 0.2612821 0.2598218 0.2582909 0.2566469
 0.2549312 0.253534 0.2530868 0.2539852 0.2560162 0.2584823 0.260682 0.262267 0.2632371 0.2637431
 0.2639499 0.2639963 0.2639763 0.2639192 0.2638056 0.2636104 0.2633308 0.2629827 0.2625872 0.2621737
 0.2617865 0.2614664 0.2612147 0.2609804 0.2606902 0.260293 0.2597872 0.2592162 0.2586316 0.2580429
 0.2574041 0.2566567 0.2557858 0.2548368 0.2538879 0.2530043 0.2521984 0.2514296 0.2506493 0.2498361
 0.248971 0.2480048 0.246905 0.2457396 0.2446642 0.2437955 0.2431131 0.2424973 0.2418343 0.2410686
 0.2401915 0.2392252 0.2382089 0.2371694 0.2360994 0.2349745 0.2337784 0.232503 0.2311415 0.2296951
 0.2281743 0.2265906 0.2249594 0.2233056 0.2216354 0.2198925 0.2179508 0.2156547 0.212867 0.2095032
 0.2055549 0.2011008 0.1962962 0.1913413 0.1864359 0.181746 0.1774022 0.1735141 0.1701713 0.1674345
 0.1653426 0.1639286 0.1632202 0.1632296 0.1639467 0.1653327 0.1673119 0.169769 0.172559 0.1755211
 0.1784908 0.1813214 0.1839228 0.1862969 0.1885178 0.1906489 0.1926762 0.1945341 0.1961777 0.1976057
 0.1988287 0.1998505 0.2006838 0.201361 0.2019218 0.202398 0.2028097 0.2031687 0.2034824 0.203757
 0.203997 0.2042072 0.2043943 0.2045681 0.2047447 0.2049462 0.2051952 0.2055075 0.2058903 0.2063414
 0.2068439 0.2073718 0.2079093 0.2084644 0.2090607 0.2097183 0.2104491 0.2112686 0.212207 0.2132975
 0.2145457 0.2159109 0.2173159 0.2186689 0.219882 0.2208886 0.2216545 0.2221718 0.2224486 0.2225136
 0.2224182 0.2222136 0.2219235 0.2215473 0.2210872 0.2205617 0.2199937 0.2193932 0.218759 0.2180884
 0.2173842 0.2166604 0.2159435 0.2152589 0.2146069 0.2139631 0.2133088 0.212652 0.2120147 0.2114135
 0.2108529 0.2103233 0.2098006 0.2092604 0.2086924 0.208089 0.2074255 0.2066699 0.2058145 0.2048828
 0.2038936 0.2028302 0.2016563 0.2003587 0.1989603 0.1974935 0.1959751 0.1944069 0.1927859 0.1910999
 0.18932 0.1874165 0.1853974 0.1833315 0.1813198 0.1794379 0.177708 0.1761134 0.1746246 0.1732176
 0.1718801 0.170605 0.1693804 0.1681998 0.1670757 0.1660254 0.1650456 0.1641169 0.1632334 0.1624126
 0.1616777 0.1610365 0.1604782 0.1599889 0.1595678 0.1592245 0.1589676 0.1588054 0.1587443 0.1587676
 0.1588246 0.1588558 0.1588276 0.158742 0.1586256 0.1585106 0.1584165 0.1583469 0.1582946 0.1582313
 0.1580927 0.1577898 0.1572331 0.1563524 0.1551218 0.1535813 0.1518236 0.1499653 0.1481362 0.1464627
 0.1450332 0.143884 0.1430102 0.1423628 0.1418535 0.1414114 0.1410411 0.1408132 0.1407996 0.1409967
 0.1412828 0.1414866 0.1415437 0.1415659 0.1417312 0.1421394 0.142772 0.143529 0.1442864 0.1449565
 0.1454999 0.145892 0.1461234 0.1462273 0.1462522 0.1462103 0.1460933 0.1459082 0.145668 0.1453784
 0.1450427 0.1446461 0.1441525 0.1435487 0.1428571 0.1420961 0.1412735 0.1403969 0.1394311 0.1383094
 0.1370735 0.1359525 0.1352353 0.1350944 0.1355177 0.1363316 0.1373149 0.1383458 0.1393661 0.1401898
 0.1405582 0.1405361 0.1407044 0.1417395 0.1437713 0.1462404 0.1483941 0.1498331 0.1505565 0.1506675
 0.1502299 0.1493079 0.1479231 0.1460177 0.1435936 0.1407922 0.1377728 0.1346724 0.1316939 0.129041
 0.1267864 0.1249294 0.1234826 0.1225079 0.1221343 0.1219718 0.120113 0.1141289 0.104812 0.09784151
 0.0990026 0.1076801 0.117296 0.1222607 0.122418 0.1207389 0.119264 0.1182862 0.1176988 0.1176627
 0.1183218 0.1195363 0.1209242 0.1220896 0.122853 0.1232281 0.1231667 0.1223238 0.1199763 0.1152662
 0.1078921 0.09871715 0.08948465 0.08180647 0.07642614 0.07322197 0.07157004 0.07072246 0.07017386 0.06988734
 0.07016577 0.07127836 0.07323543 0.07588696 0.07907476 0.08255865 0.0859092 0.08870525 0.09085539 0.09256589
 0.0939877 0.09504127 0.09558626 0.09561506 0.0952455 0.09462526 0.09388292 0.09309569 0.09223814 0.09120552
 0.08998483 0.088796 0.08795006 0.08754733 0.08742077 0.08737673 0.08735713 0.08736037 0.08734863 0.08727822
 0.08715353 0.08705038 0.08710504 0.08741651 0.0879261 0.08844504 0.08881394 0.08900641 0.08909096 0.08909437
 0.08889098 0.08831926 0.08747902 0.08673871 0.08626561 0.08572306 0.08470391 0.08336082 0.08232575 0.08202605
 0.08229757 0.08265946 0.08276362 0.0825559 0.08222111 0.08209001 0.08242819 0.08312564 0.08368018 0.08366144
</values></Ydata></ScRf><Data_Parameters_AB><parameter name="DPF">1</parameter><parameter name="NPT">3497</parameter><parameter name="FXV">3996</parameter><parameter name="LXV">500</parameter><parameter name="CSF">1</parameter><parameter name="MXY">0.138921171426773</parameter><parameter name="MNY">-0.000904026965145022</parameter><parameter name="DAT">02/06/2022</parameter><parameter name="TIM">12:21:45.674 (GMT+2)</parameter><parameter name="DXU">WN</parameter></Data_Parameters_AB><AB__Qtest><MainReport name="Quality Test Report"><Header><Line><Legend>Test result ok/not ok [1/0]: </Legend><Value>0</Value></Line><Line><Legend>Method file: </Legend><Value>C:\Users\Public\Documents\Bruker\OPUS_8.2.28\QT\IRBT_v3_default.QT</Value></Line></Header><Matrix><Line><Legend></Legend><Legend>min</Legend><Legend>max</Legend><Legend>measured</Legend></Line><Line><Value>Absorption (X-Range 1):</Value><Value>0.400000</Value><Value>2.000000</Value><Value>0.120409</Value></Line><Line><Value>Noise (X-Range 4):</Value><Value></Value><Value>0.000300</Value><Value>0.000045</Value></Line><Line><Value>Signal/Noise (X-Range 2):</Value><Value>200.000000</Value><Value></Value><Value>67.426130</Value></Line><Line><Value>Signal/Noise (X-Range 3):</Value><Value>40.000000</Value><Value></Value><Value>33.521737</Value></Line><Line><Value>Water vapour (X-Range 5):</Value><Value></Value><Value>0.000300</Value><Value>0.000093</Value></Line><Line><Value>Signal/Water (X-Range 2):</Value><Value>100.000000</Value><Value></Value><Value>32.577778</Value></Line><Line><Value>Signal/Water (X-Range 3):</Value><Value>20.000000</Value><Value></Value><Value>16.196447</Value></Line><Line><Value>Fringes (X-Range 6):</Value><Value></Value><Value>0.000100</Value><Value>0.000072</Value></Line></Matrix></MainReport></AB__Qtest><Data_Parameters_ScSm><parameter name="DPF">1</parameter><parameter name="NPT">1814</parameter><parameter name="FXV">3996.33169228125</parameter><parameter name="LXV">499.541461535156</parameter><parameter name="CSF">1</parameter><parameter name="MXY">0.229821264743805</parameter><parameter name="MNY">0.0291577875614166</parameter><parameter name="DAT">02/06/2022</parameter><parameter name="TIM">12:21:45.674 (GMT+2)</parameter><parameter name="DXU">WN</parameter></Data_Parameters_ScSm><Data_Parameters_ScRf><parameter name="DPF">1</parameter><parameter name="NPT">1820</parameter><parameter name="FXV">4004.04661832813</parameter><parameter name="LXV">495.683998511719</parameter><parameter name="CSF">1</parameter><parameter name="MXY">0.26510414481163</parameter><parameter name="MNY">0.0300604570657015</parameter><parameter name="DAT">02/06/2022</parameter><parameter name="TIM">12:21:19.246 (GMT+2)</parameter><parameter name="DXU">WN</parameter></Data_Parameters_ScRf><Optic_Parameters_Rf><parameter name="APR">0</parameter><parameter name="APT">Open</parameter><parameter name="BMS">KBr</parameter><parameter name="DTC">RT-DLaTGS_IR-Biotyper [Microplate reader]</parameter><parameter name="HPF">0</parameter><parameter name="LPF">10.0</parameter><parameter name="LPV">4000</parameter><parameter name="PGR">0</parameter><parameter name="RCH">Module port</parameter><parameter name="RDX">0</parameter><parameter name="SRC">MIR</parameter><parameter name="VEL">10.0</parameter><parameter name="SON">Off</parameter></Optic_Parameters_Rf><Acquisition_Parameters_Rf><parameter name="ADT">1</parameter><parameter name="AQM">DD</parameter><parameter name="CFE">0</parameter><parameter name="COR">0</parameter><parameter name="DEL">0</parameter><parameter name="DLY">0</parameter><parameter name="HFW">8000</parameter><parameter name="LFW">0</parameter><parameter name="NSR">32</parameter><parameter name="PLF">AB</parameter><parameter name="RES">6</parameter><parameter name="RGN">-1</parameter><parameter name="STR">0</parameter><parameter name="TCL">MakeCompatibleScalar (0, {WSV=1.000000, ARV=0});</parameter><parameter name="TDL">37</parameter><parameter name="RPO">0</parameter></Acquisition_Parameters_Rf><FT_-_Parameters_Rf><parameter name="APF">B3</parameter><parameter name="HFQ">500</parameter><parameter name="LFQ">4000</parameter><parameter name="NLI">0</parameter><parameter name="PHR">24</parameter><parameter name="PHZ">ML</parameter><parameter name="SPZ">NO</parameter><parameter name="ZFF">1</parameter></FT_-_Parameters_Rf><Optic_Parameters_><parameter name="APR">0</parameter><parameter name="APT">Open</parameter><parameter name="BMS">KBr</parameter><parameter name="CHN">Module port</parameter><parameter name="DTC">RT-DLaTGS_IR-Biotyper [Microplate reader]</parameter><parameter name="HPF">0</parameter><parameter name="LPF">10.0</parameter><parameter name="LPV">4000</parameter><parameter name="PGN">0</parameter><parameter name="RDX">0</parameter><parameter name="SRC">MIR</parameter><parameter name="VEL">10.0</parameter><parameter name="SON">Off</parameter></Optic_Parameters_><FT_-_Parameters_><parameter name="APF">B3</parameter><parameter name="HFQ">500</parameter><parameter name="LFQ">4000</parameter><parameter name="NLI">0</parameter><parameter name="PHR">24</parameter><parameter name="PHZ">ML</parameter><parameter name="SPZ">NO</parameter><parameter name="ZFF">1</parameter></FT_-_Parameters_><Acquisition_Parameters_><parameter name="ADT">1</parameter><parameter name="AQM">DD</parameter><parameter name="CFE">0</parameter><parameter name="COR">0</parameter><parameter name="DEL">0</parameter><parameter name="DLY">0</parameter><parameter name="HFW">8000</parameter><parameter name="LFW">0</parameter><parameter name="NSS">32</parameter><parameter name="PLF">AB</parameter><parameter name="RES">6</parameter><parameter name="SOT">0</parameter><parameter name="TCL">MakeCompatibleScalar (0, {WSV=1.000000, ARV=0});</parameter><parameter name="TDL">37</parameter><parameter name="SPO">0</parameter><parameter name="SGN">-1</parameter></Acquisition_Parameters_><Instrument_Parameters_Rf><parameter name="HFL">15800.168544</parameter><parameter name="LFL">0</parameter><parameter name="LWN">15800.168544</parameter><parameter name="ABP">32197</parameter><parameter name="SSP">1</parameter><parameter name="ARG">2</parameter><parameter name="ASG">2</parameter><parameter name="ASS">32</parameter><parameter name="GFW">16</parameter><parameter name="GBW">16</parameter><parameter name="BFW">0</parameter><parameter name="BBW">0</parameter><parameter name="PKA">7267</parameter><parameter name="PKL">4996</parameter><parameter name="PRA">7449</parameter><parameter name="PRL">5001</parameter><parameter name="P2A">1</parameter><parameter name="P2L">1</parameter><parameter name="P2R">1</parameter><parameter name="P2K">1</parameter><parameter name="DAQ">0</parameter><parameter name="AG2">1</parameter><parameter name="SSM">1</parameter><parameter name="RSN">26169</parameter><parameter name="CRR">0</parameter><parameter name="SRT">1654172479.247</parameter><parameter name="DUR">19.6379852294922</parameter><parameter name="TSC">28.9</parameter><parameter name="MVD">0.289555668830872</parameter><parameter name="AN1">0.225815202707443</parameter><parameter name="AN2">0</parameter><parameter name="VSN">2.485 Apr  4 2017</parameter><parameter name="SRN">0085</parameter><parameter name="CAM">0</parameter><parameter name="INS">IR-Biotyper</parameter><parameter name="FOC">69</parameter><parameter name="RDY">1</parameter><parameter name="ARS">32</parameter></Instrument_Parameters_Rf><Sample_Parameters_><parameter name="BLD"></parameter><parameter name="CNM">Admin</parameter><parameter name="CPY"></parameter><parameter name="DPM"></parameter><parameter name="EXP">IRBT_v3_32Scans.XPM</parameter><parameter name="LCT"></parameter><parameter name="SFM">Microplate, HTS-XT</parameter><parameter name="SNM">220602-1054_SMP28F (D_2)_F10_bab9c54a-737c-4905-90d5-9b66886931dc.0</parameter><parameter name="XPP">C:\Users\Public\Documents\Bruker\OPUS_8.2.28\XPM</parameter><parameter name="IST">OK</parameter><parameter name="CPG">1252</parameter><parameter name="UID">126dd5bd-ce73-4352-970b-500daf99c1f6</parameter></Sample_Parameters_><Instrument_Parameters_><parameter name="HFL">15800.168544</parameter><parameter name="LFL">0</parameter><parameter name="LWN">15800.168544</parameter><parameter name="ABP">32197</parameter><parameter name="SSP">1</parameter><parameter name="ASG">2</parameter><parameter name="ARG">2</parameter><parameter name="ASS">32</parameter><parameter name="GFW">16</parameter><parameter name="GBW">16</parameter><parameter name="BFW">0</parameter><parameter name="BBW">0</parameter><parameter name="PKA">6401</parameter><parameter name="PKL">4988</parameter><parameter name="PRA">6680</parameter><parameter name="PRL">4993</parameter><parameter name="P2A">1</parameter><parameter name="P2L">1</parameter><parameter name="P2R">1</parameter><parameter name="P2K">1</parameter><parameter name="DAQ">0</parameter><parameter name="AG2">1</parameter><parameter name="SSM">1</parameter><parameter name="RSN">13710</parameter><parameter name="CRR">0</parameter><parameter name="SRT">1654172505.675</parameter><parameter name="DUR">19.6369934082031</parameter><parameter name="TSC">28.9</parameter><parameter name="MVD">4.92246770858765</parameter><parameter name="AN1">0.225832020624938</parameter><parameter name="AN2">0</parameter><parameter name="VSN">2.485 Apr  4 2017</parameter><parameter name="SRN">0085</parameter><parameter name="CAM">0</parameter><parameter name="INS">IR-Biotyper</parameter><parameter name="FOC">69</parameter><parameter name="RDY">1</parameter></Instrument_Parameters_><History/></OPUSDataFile>
