<?xml version="1.0" encoding="UTF-8" ?>
<OPUSDataFile><AB><Ydata ylabel="Absorbance Units"><values byteorder="INTEL" format="FLOAT32" numvalues="3497"> -0.04488694 -0.04494473 -0.04499563 -0.04504085 -0.0450617 -0.04505727 -0.04502648 -0.04497106 -0.04491252 -0.04485326
 -0.04482005 -0.04480962 -0.04482681 -0.04486264 -0.04489799 -0.04492803 -0.04493394 -0.04492198 -0.04489006 -0.04485076
 -0.04481346 -0.04478547 -0.04477574 -0.0447771 -0.04479169 -0.0448 -0.04479782 -0.04477045 -0.04471292 -0.0446336
 -0.04453148 -0.04443459 -0.04434442 -0.04428599 -0.04425909 -0.04426795 -0.04430967 -0.04437036 -0.04444636 -0.04451774
 -0.04458217 -0.04462378 -0.04464338 -0.0446336 -0.04460089 -0.04454767 -0.0444856 -0.04442407 -0.04437213 -0.0443393
 -0.04432122 -0.044321 -0.04432154 -0.0443189 -0.04430249 -0.04426784 -0.04422731 -0.04418089 -0.04415081 -0.04413833
 -0.04414959 -0.04418321 -0.04422214 -0.04426435 -0.04428811 -0.04429514 -0.04427896 -0.04424468 -0.04420063 -0.04415213
 -0.04411178 -0.04408203 -0.04407248 -0.0440773 -0.04409803 -0.04411911 -0.04413305 -0.04412732 -0.04409222 -0.04403662
 -0.0439573 -0.04388368 -0.04381945 -0.04379008 -0.04379943 -0.04384968 -0.04394123 -0.04405084 -0.04417627 -0.04428114
 -0.04436399 -0.04439526 -0.04437955 -0.04431509 -0.04421309 -0.04409971 -0.04398234 -0.04388702 -0.04381038 -0.04376063
 -0.04372644 -0.0437025 -0.04367647 -0.04363812 -0.04358824 -0.04352105 -0.04345669 -0.04339908 -0.04336385 -0.04335711
 -0.04336423 -0.04338565 -0.04338967 -0.04337437 -0.04333244 -0.04326594 -0.0432044 -0.04315021 -0.04313518 -0.0431549
 -0.04321226 -0.04329692 -0.04338538 -0.04347008 -0.04352468 -0.04355517 -0.04355704 -0.04354121 -0.04351775 -0.04348488
 -0.04344334 -0.04339373 -0.04333047 -0.04328119 -0.04325012 -0.04326804 -0.04334489 -0.04346887 -0.04364442 -0.04379697
 -0.04392267 -0.04392174 -0.04379704 -0.04357273 -0.04326636 -0.04301148 -0.04280194 -0.04268567 -0.04264494 -0.04265773
 -0.04271679 -0.04280165 -0.0429057 -0.04301837 -0.04312054 -0.04319565 -0.04322324 -0.04317971 -0.04308366 -0.04292804
 -0.04277021 -0.04262425 -0.04252641 -0.04248894 -0.04250007 -0.04256156 -0.04263832 -0.04272836 -0.04280521 -0.04286846
 -0.04290944 -0.04292837 -0.04292264 -0.04289129 -0.042828 -0.04273423 -0.04260679 -0.04245659 -0.04229789 -0.04214748
 -0.04203298 -0.04195866 -0.04194193 -0.04196606 -0.04202942 -0.04210644 -0.0421866 -0.04225461 -0.04230254 -0.04233418
 -0.04234862 -0.04235405 -0.04235218 -0.04233585 -0.04230474 -0.04224978 -0.04217155 -0.04207877 -0.0419729 -0.04186821
 -0.04176442 -0.04166697 -0.04157696 -0.04149915 -0.0414365 -0.04139763 -0.04138076 -0.04139014 -0.04141433 -0.04144788
 -0.04147339 -0.0414794 -0.04145524 -0.04139045 -0.04129627 -0.04116878 -0.0410451 -0.04093007 -0.04085789 -0.04083483
 -0.04085556 -0.04092056 -0.04099201 -0.0410682 -0.04111565 -0.04113669 -0.04112942 -0.04109983 -0.04107156 -0.04104552
 -0.04103809 -0.04104224 -0.04105306 -0.04106426 -0.04106296 -0.04105558 -0.04103915 -0.04103347 -0.04105031 -0.04109912
 -0.04119295 -0.04130652 -0.04144049 -0.04154733 -0.04161726 -0.04162981 -0.04157913 -0.04148836 -0.04135858 -0.04120879
 -0.04104001 -0.04086719 -0.04069411 -0.04055669 -0.04045435 -0.04040838 -0.04040616 -0.0404278 -0.04045761 -0.04045465
 -0.04042119 -0.04033601 -0.04022888 -0.04011956 -0.04002573 -0.03996894 -0.03993591 -0.03992801 -0.03992461 -0.03991949
 -0.03990365 -0.03987298 -0.0398347 -0.03978848 -0.03974908 -0.03971745 -0.03970296 -0.03970574 -0.0397287 -0.03977043
 -0.03982493 -0.03988634 -0.03992873 -0.03994567 -0.03990098 -0.0398069 -0.03966444 -0.03949788 -0.03934286 -0.0392012
 -0.03909065 -0.03899407 -0.03890508 -0.03881408 -0.03871194 -0.03861014 -0.03850846 -0.03842575 -0.03836676 -0.03833476
 -0.03833275 -0.03833731 -0.03834767 -0.03831851 -0.03824867 -0.03811286 -0.03791951 -0.03771729 -0.03751583 -0.03738577
 -0.0373181 -0.03732632 -0.03739473 -0.03750192 -0.03763461 -0.03777142 -0.03789289 -0.03797757 -0.03800503 -0.03795119
 -0.0378276 -0.03762701 -0.03738987 -0.0371275 -0.03685997 -0.03659381 -0.03633031 -0.03606931 -0.03582183 -0.03558845
 -0.03538226 -0.03520343 -0.03505382 -0.03493254 -0.03483475 -0.03475859 -0.03469447 -0.03463984 -0.0345822 -0.03452202
 -0.03445405 -0.0343805 -0.03430545 -0.03422043 -0.03412187 -0.03399482 -0.03382273 -0.03362036 -0.03338462 -0.0331523
 -0.03293739 -0.03274203 -0.03257144 -0.03240344 -0.03223533 -0.03205843 -0.03187146 -0.03169046 -0.03151661 -0.03137461
 -0.03126345 -0.03119058 -0.03114753 -0.03110584 -0.03105168 -0.03092683 -0.03073809 -0.03045984 -0.03013328 -0.0298052
 -0.02949538 -0.02924635 -0.02903652 -0.02886569 -0.02870953 -0.02855459 -0.02839892 -0.02823756 -0.02808206 -0.02793527
 -0.02779608 -0.027666 -0.02752849 -0.02738264 -0.02721119 -0.02701382 -0.02678666 -0.02653181 -0.02626328 -0.02598382
 -0.02571289 -0.02545076 -0.02520802 -0.02498378 -0.02478156 -0.02459952 -0.02443783 -0.02429155 -0.02415688 -0.02402841
 -0.02390175 -0.0237739 -0.02364452 -0.02350416 -0.02335241 -0.02316995 -0.02295111 -0.02269554 -0.02239905 -0.02210275
 -0.02180899 -0.0215572 -0.02134759 -0.02117254 -0.02102857 -0.02088398 -0.02073873 -0.0205748 -0.02039712 -0.02021005
 -0.02001839 -0.01983439 -0.0196576 -0.01949428 -0.01933705 -0.01918309 -0.01902066 -0.0188404 -0.01863922 -0.01840924
 -0.01816866 -0.01791954 -0.01768492 -0.01747107 -0.01728266 -0.01712263 -0.0169747 -0.01683829 -0.01668866 -0.01652493
 -0.01633282 -0.01611425 -0.01587756 -0.01562644 -0.01538225 -0.01514532 -0.01492906 -0.01472846 -0.01454065 -0.01436005
 -0.01417722 -0.01399108 -0.01379608 -0.01359668 -0.01339326 -0.01319275 -0.01299817 -0.01281443 -0.01264416 -0.01248703
 -0.01234405 -0.01221001 -0.0120848 -0.01196043 -0.01183649 -0.01170236 -0.01155756 -0.01139382 -0.01121213 -0.0110161
 -0.01080869 -0.01060594 -0.01040828 -0.01022706 -0.01005691 -0.009892629 -0.00972985 -0.009557509 -0.009382357 -0.009205234
 -0.009037433 -0.008890096 -0.00875734 -0.008644043 -0.008523762 -0.008389041 -0.008223505 -0.008018796 -0.007792606 -0.007544649
 -0.007305671 -0.007078313 -0.006872826 -0.006689164 -0.006517362 -0.006356998 -0.006200159 -0.006047859 -0.005901237 -0.005760082
 -0.005625219 -0.005493924 -0.005360904 -0.005224879 -0.005079804 -0.004931669 -0.004782333 -0.004642221 -0.004520901 -0.00441697
 -0.004336681 -0.004257974 -0.004175943 -0.00407138 -0.003935886 -0.003783032 -0.003611593 -0.003454272 -0.003314031 -0.003198765
 -0.003107897 -0.003014374 -0.002916779 -0.00278939 -0.002636368 -0.00246291 -0.002274864 -0.002093725 -0.001918574 -0.001758549
 -0.001608751 -0.00146402 -0.001326822 -0.001195683 -0.001079653 -0.0009866445 -0.0009142913 -0.0008673409 -0.0008263448 -0.000786426
 -0.0007327929 -0.0006594058 -0.0005727777 -0.0004724099 -0.0003710092 -0.0002698575 -0.0001686999 -6.739947E-05 4.048349E-05 0.0001545202
 0.0002731971 0.0003959362 0.0005184976 0.0006422625 0.0007696357 0.0009009617 0.001039354 0.001181246 0.001323078 0.001461564
 0.001591259 0.00171354 0.001827773 0.001935473 0.002038864 0.002132 0.002214304 0.002276956 0.002316649 0.002336455
 0.002334822 0.00233029 0.002324022 0.002333568 0.002359459 0.002402739 0.002462566 0.002531055 0.002608812 0.002694826
 0.00279009 0.002898685 0.003017379 0.003142592 0.003268526 0.003384266 0.003489587 0.003578431 0.003658157 0.003732445
 0.003805236 0.003882265 0.003952931 0.004016201 0.004057742 0.0040719 0.004065102 0.004035065 0.004012114 0.003998504
 0.004016318 0.004065907 0.004133326 0.004215935 0.004282052 0.004332619 0.004354076 0.004352547 0.004339277 0.004319991
 0.004311957 0.004317676 0.004348657 0.004403271 0.004486287 0.004588141 0.004705974 0.004824651 0.004935669 0.00503247
 0.005109181 0.005173621 0.005226517 0.005274546 0.005319855 0.00535525 0.005380413 0.005386918 0.005374666 0.005351132
 0.005317593 0.00529028 0.005268279 0.005255975 0.005250567 0.005244075 0.005238307 0.005231607 0.00523064 0.005246182
 0.00527772 0.005332622 0.005396327 0.005461973 0.005515213 0.005544198 0.005554418 0.005542258 0.005528574 0.005517676
 0.005521839 0.005545029 0.005577793 0.005620212 0.005653111 0.00567563 0.005676329 0.005655901 0.005616099 0.005559243
 0.005496955 0.005432497 0.005382162 0.005347607 0.005342006 0.005360583 0.005404661 0.005461711 0.005520373 0.005568855
 0.005593086 0.00559515 0.005569044 0.005532806 0.00548987 0.005459454 0.005447643 0.005458046 0.005493154 0.005542085
 0.005604106 0.005671322 0.005743495 0.005825524 0.005917378 0.006022499 0.00613717 0.00624483 0.006340401 0.006396251
 0.006416441 0.006391847 0.006339533 0.006279913 0.006228753 0.006213879 0.006230713 0.006289844 0.006365504 0.00644976
 0.006516076 0.006552367 0.006550719 0.006504602 0.006428671 0.006322798 0.006211097 0.0060957 0.005991285 0.005898475
 0.005815908 0.005743204 0.005675337 0.005613334 0.005559936 0.005516626 0.005490331 0.005480132 0.005488774 0.005511334
 0.005543892 0.00557598 0.005597211 0.0055943 0.005553156 0.005471047 0.005338652 0.005174412 0.004979989 0.004781993
 0.004587715 0.004407777 0.004245918 0.004095379 0.003955898 0.003821623 0.003692328 0.003569865 0.003454464 0.003348925
 0.00325364 0.003172008 0.003104487 0.00305601 0.003023015 0.003002524 0.002985082 0.002954665 0.002905884 0.002823545
 0.002717116 0.002585424 0.002448622 0.002315848 0.002202892 0.002118602 0.002064219 0.002044195 0.002041444 0.002056184
 0.002056959 0.002041223 0.001982978 0.001881039 0.001737351 0.001554308 0.001359232 0.001154293 0.0009658845 0.0007926493
 0.0006437928 0.0005174 0.0004134981 0.000331343 0.0002711256 0.0002286938 0.0002021258 0.0001806331 0.0001566698 0.0001197757
 6.091548E-05 -1.824185E-05 -0.0001220988 -0.0002331123 -0.000349066 -0.0004505173 -0.000532891 -0.0005957417 -0.0006375284 -0.0006788545
 -0.0007207489 -0.0007816785 -0.0008609442 -0.0009562243 -0.001065622 -0.001176764 -0.001290483 -0.001403642 -0.001516787 -0.001631523
 -0.001743122 -0.001844708 -0.001933207 -0.001999077 -0.002052625 -0.002096264 -0.002146179 -0.002213777 -0.002299164 -0.00240812
 -0.002522496 -0.002639079 -0.00274424 -0.002834038 -0.00291306 -0.002980916 -0.00304973 -0.003120109 -0.003198409 -0.003284333
 -0.003376395 -0.003473688 -0.003570385 -0.003666071 -0.003755421 -0.003840487 -0.003922667 -0.00400552 -0.004096021 -0.004194261
 -0.004304662 -0.004421106 -0.004541855 -0.004657113 -0.004762194 -0.0048477 -0.004908747 -0.004942458 -0.004944608 -0.004930098
 -0.004898331 -0.004880128 -0.004878281 -0.004914836 -0.004990983 -0.005098978 -0.005236814 -0.005377424 -0.005519751 -0.005643233
 -0.005750194 -0.005837055 -0.005908005 -0.005970512 -0.006028325 -0.00609163 -0.006159561 -0.006237116 -0.00631594 -0.006391279
 -0.006456754 -0.006504151 -0.006544492 -0.006577285 -0.00662424 -0.006692732 -0.006784371 -0.006904007 -0.007020389 -0.007131745
 -0.007202867 -0.007231822 -0.007216463 -0.007159399 -0.007093062 -0.007020567 -0.006977747 -0.006962321 -0.00698676 -0.007043944
 -0.007123526 -0.007220112 -0.007318684 -0.007421869 -0.00752559 -0.007637388 -0.007763833 -0.00790336 -0.008061026 -0.008218317
 -0.008371284 -0.008498886 -0.008592999 -0.008654084 -0.008678733 -0.008689266 -0.00868732 -0.008692073 -0.008704654 -0.0087245
 -0.008750827 -0.008772807 -0.008790365 -0.008797544 -0.008795387 -0.00878427 -0.00876549 -0.008741586 -0.008715051 -0.008690465
 -0.008671125 -0.008662553 -0.0086665 -0.008685938 -0.008721923 -0.008774949 -0.008848636 -0.008944732 -0.009064369 -0.00921057
 -0.00936982 -0.009542284 -0.009702332 -0.009847248 -0.009962439 -0.01004691 -0.01011327 -0.01016317 -0.01022281 -0.01029196
 -0.01038383 -0.01049375 -0.01061278 -0.01073498 -0.01084142 -0.01092982 -0.01098639 -0.01101597 -0.01101638 -0.01100006
 -0.01097457 -0.01095388 -0.01094866 -0.01096267 -0.01100209 -0.011056 -0.01112377 -0.01119096 -0.01125421 -0.01131154
 -0.01136173 -0.01141553 -0.0114735 -0.01154149 -0.01161863 -0.01169355 -0.01176497 -0.01181739 -0.01185434 -0.01187889
 -0.01189868 -0.01193542 -0.01198972 -0.01207637 -0.0121819 -0.01229829 -0.01240868 -0.01249454 -0.01255405 -0.01257772
 -0.01258114 -0.01256741 -0.01255168 -0.01253997 -0.01253218 -0.01253017 -0.01252384 -0.01251188 -0.01249288 -0.0124666
 -0.01244866 -0.01244017 -0.01246101 -0.01250979 -0.01258935 -0.01269419 -0.01280595 -0.01291948 -0.01301176 -0.01308398
 -0.01312615 -0.013146 -0.01314844 -0.01314051 -0.01313129 -0.01311869 -0.01310572 -0.01308274 -0.01304588 -0.01299196
 -0.01291684 -0.01283427 -0.01274495 -0.01266763 -0.01260525 -0.01255768 -0.01252527 -0.01248342 -0.01243069 -0.01234019
 -0.01221364 -0.01204683 -0.01184613 -0.01163234 -0.01141157 -0.0112104 -0.01102881 -0.01088041 -0.01075827 -0.01066031
 -0.01057793 -0.0105035 -0.01043128 -0.01035632 -0.01027485 -0.01018453 -0.01008268 -0.009967464 -0.009841476 -0.009703955
 -0.009564241 -0.00942295 -0.009290271 -0.009166848 -0.009059185 -0.008967597 -0.008897567 -0.00884942 -0.00882897 -0.008834711
 -0.008865781 -0.008916748 -0.008974957 -0.009033049 -0.009072228 -0.009089468 -0.00907135 -0.009025111 -0.008949756 -0.008860442
 -0.008765426 -0.008675132 -0.008597821 -0.008528174 -0.00846819 -0.008401973 -0.008327013 -0.008232747 -0.00811714 -0.00798228
 -0.00782805 -0.007665856 -0.007496763 -0.007338598 -0.007193064 -0.007081042 -0.007001974 -0.006967138 -0.006970038 -0.00700118
 -0.007052075 -0.007101453 -0.007150482 -0.007188427 -0.007230041 -0.00728233 -0.007362539 -0.007483379 -0.007651635 -0.007874708
 -0.008146438 -0.00846825 -0.008825503 -0.009217425 -0.00962265 -0.01003961 -0.01044393 -0.01083402 -0.01119181 -0.01151709
 -0.01180537 -0.0120577 -0.01227876 -0.01246955 -0.01263593 -0.01277939 -0.01290586 -0.01301827 -0.0131246 -0.01322639
 -0.01332967 -0.01343169 -0.01353219 -0.01362844 -0.01371744 -0.01380255 -0.01388397 -0.01396663 -0.01405313 -0.01413991
 -0.01422784 -0.0143056 -0.01437232 -0.01441703 -0.01443897 -0.01443193 -0.01439605 -0.01433277 -0.01424444 -0.01414656
 -0.01404371 -0.01396259 -0.01390545 -0.01389364 -0.01392203 -0.01399381 -0.01409649 -0.01421783 -0.0143428 -0.01445495
 -0.01454372 -0.01459676 -0.01461559 -0.0145955 -0.01455066 -0.01448283 -0.01440877 -0.01433183 -0.01426167 -0.01419981
 -0.01415015 -0.01411287 -0.01409663 -0.01410253 -0.01415108 -0.01424375 -0.01440303 -0.01462527 -0.01491161 -0.01524942
 -0.01560765 -0.01597328 -0.01630559 -0.01660652 -0.01685804 -0.01707831 -0.0172765 -0.01746847 -0.01766933 -0.01787633
 -0.01809468 -0.0183072 -0.01851091 -0.01868931 -0.01883815 -0.01895299 -0.01903183 -0.01908499 -0.0191128 -0.01913402
 -0.0191495 -0.01917469 -0.01920935 -0.01925953 -0.019324 -0.01940184 -0.01949057 -0.01958417 -0.01967855 -0.01976346
 -0.01983653 -0.0198889 -0.01992518 -0.01994461 -0.01995733 -0.01996921 -0.01998713 -0.02001701 -0.02005484 -0.02010232
 -0.02014648 -0.02018531 -0.02020864 -0.02021417 -0.02020596 -0.02018385 -0.02016401 -0.02014708 -0.02014455 -0.02015532
 -0.02017652 -0.02020651 -0.02023647 -0.02026696 -0.02029485 -0.0203217 -0.02034925 -0.02037792 -0.02040881 -0.02044245
 -0.02047939 -0.02052088 -0.02056868 -0.02062031 -0.02067661 -0.02072919 -0.02077613 -0.02081003 -0.02082819 -0.02083342
 -0.02082492 -0.02081464 -0.0208033 -0.02080085 -0.02080736 -0.02082277 -0.02084597 -0.02086866 -0.02089006 -0.02090212
 -0.02090584 -0.0208992 -0.02088514 -0.02086763 -0.02085049 -0.02084025 -0.02083936 -0.02085347 -0.02087943 -0.02091895
 -0.02096161 -0.02100407 -0.02103613 -0.02105267 -0.02105578 -0.02104351 -0.02102994 -0.02101654 -0.02101327 -0.02102119
 -0.02103698 -0.02106028 -0.02108278 -0.02110478 -0.02112511 -0.02114423 -0.02116414 -0.02118354 -0.02119998 -0.02121195
 -0.02121462 -0.02120956 -0.02119604 -0.02117822 -0.02115955 -0.0211431 -0.02113186 -0.021127 -0.02112997 -0.02114003
 -0.02115753 -0.02118022 -0.0212078 -0.02123817 -0.02127098 -0.021306 -0.02134326 -0.02138195 -0.02142182 -0.021457
 -0.02148682 -0.02150242 -0.02150459 -0.02149066 -0.02146472 -0.02143627 -0.02140987 -0.02140025 -0.02140542 -0.02143113
 -0.02146744 -0.02150768 -0.02154304 -0.02156407 -0.02157322 -0.02156777 -0.0215577 -0.0215458 -0.02153726 -0.02153418
 -0.02153469 -0.02153881 -0.02154481 -0.02155253 -0.02156252 -0.02157467 -0.0215865 -0.02159736 -0.02160055 -0.02159583
 -0.02157781 -0.0215483 -0.02150882 -0.02146317 -0.02141888 -0.02137979 -0.02135456 -0.02134397 -0.02135288 -0.02137717
 -0.02141672 -0.02146414 -0.02151679 -0.02156717 -0.02161276 -0.02164785 -0.02167076 -0.02167934 -0.02167266 -0.02165447
 -0.02162474 -0.02159303 -0.0215599 -0.02153585 -0.02152097 -0.02152084 -0.02153438 -0.02156027 -0.02159639 -0.02163633
 -0.02167787 -0.02171344 -0.0217426 -0.02176077 -0.0217708 -0.0217729 -0.02177232 -0.02177268 -0.02177687 -0.02178831
 -0.02180286 -0.02182106 -0.02183378 -0.02183887 -0.02183254 -0.02181293 -0.02178981 -0.02176349 -0.02174972 -0.02174889
 -0.02176429 -0.02179407 -0.02182373 -0.02185171 -0.02186187 -0.02185689 -0.02183534 -0.02180232 -0.02176749 -0.02173363
 -0.02170886 -0.02169331 -0.02168999 -0.02169805 -0.02171874 -0.02174778 -0.02178499 -0.02182125 -0.02185408 -0.02187584
 -0.02188369 -0.02187918 -0.02186149 -0.02183946 -0.02181366 -0.02179176 -0.02177405 -0.0217629 -0.02175789 -0.02175658
 -0.0217582 -0.02175775 -0.02175504 -0.02174634 -0.02173313 -0.02171619 -0.021698 -0.02168248 -0.02167087 -0.02166641
 -0.02166743 -0.02167405 -0.02168382 -0.02169534 -0.02170834 -0.02172261 -0.02173751 -0.02175358 -0.02176571 -0.02177356
 -0.02177074 -0.02175646 -0.02173305 -0.02170086 -0.02167127 -0.02164454 -0.0216284 -0.02162125 -0.02161973 -0.02162226
 -0.02162197 -0.02161944 -0.02161249 -0.0216025 -0.02159059 -0.02157755 -0.02156406 -0.02155222 -0.02154312 -0.02153999
 -0.02154504 -0.02155817 -0.02158079 -0.02160752 -0.02163802 -0.02166488 -0.02168722 -0.02169879 -0.02169896 -0.02168517
 -0.02165748 -0.02162029 -0.02157467 -0.02153238 -0.02149428 -0.02147149 -0.02146226 -0.02146822 -0.02148477 -0.02150341
 -0.02152059 -0.02152649 -0.02152289 -0.02150673 -0.0214844 -0.02145897 -0.02143623 -0.02142017 -0.02141174 -0.02141283
 -0.02141959 -0.02143219 -0.02144332 -0.02145226 -0.02145157 -0.02144047 -0.02141664 -0.02138012 -0.02133653 -0.02128652
 -0.02123851 -0.02119279 -0.02115526 -0.02112568 -0.02110662 -0.02109722 -0.02109769 -0.0211053 -0.02111672 -0.02112853
 -0.02113545 -0.02113775 -0.02113296 -0.02112579 -0.02111791 -0.02111257 -0.02111205 -0.02111361 -0.02111739 -0.02111871
 -0.02111668 -0.02111077 -0.02110068 -0.02109023 -0.02107956 -0.02107155 -0.02106586 -0.02106055 -0.02105497 -0.02104449
 -0.0210298 -0.02101004 -0.02098745 -0.02096645 -0.02094827 -0.02093767 -0.02093176 -0.02093 -0.02092784 -0.02092094
 -0.02090992 -0.02089245 -0.02087605 -0.02086279 -0.02085766 -0.02086337 -0.02087458 -0.02089149 -0.02090386 -0.02091067
 -0.02090904 -0.02089896 -0.02088663 -0.02087236 -0.02086201 -0.02085492 -0.0208509 -0.02084901 -0.02084601 -0.02084194
 -0.02083511 -0.02082639 -0.02081634 -0.02080566 -0.02079544 -0.02078535 -0.02077583 -0.02076528 -0.02075318 -0.02073774
 -0.02071792 -0.02069435 -0.02066647 -0.02063823 -0.02060997 -0.02058595 -0.02056668 -0.02055258 -0.02054361 -0.02053576
 -0.02052888 -0.02051966 -0.02050867 -0.02049703 -0.02048539 -0.02047676 -0.02047049 -0.02046676 -0.02046433 -0.02046087
 -0.02045705 -0.02045236 -0.02044868 -0.02044785 -0.02044878 -0.02045234 -0.02045361 -0.02045109 -0.02044138 -0.02042269
 -0.02039803 -0.02036716 -0.02033676 -0.02030745 -0.02028245 -0.02026187 -0.0202436 -0.02022743 -0.02021033 -0.02019259
 -0.02017409 -0.02015554 -0.02013907 -0.0201252 -0.02011631 -0.02011193 -0.02011316 -0.02011717 -0.02012218 -0.0201237
 -0.02011733 -0.02010247 -0.02007598 -0.02004525 -0.02001153 -0.01998328 -0.01996358 -0.01995184 -0.01994923 -0.01994655
 -0.01994309 -0.01993205 -0.01991316 -0.01988904 -0.01986049 -0.0198368 -0.01981858 -0.01981431 -0.01982288 -0.01984585
 -0.01988038 -0.01992062 -0.01996565 -0.02000996 -0.0200583 -0.0201124 -0.02018008 -0.02026922 -0.020379 -0.02051466
 -0.0206598 -0.02081161 -0.0209501 -0.02106858 -0.02116444 -0.02123481 -0.02129439 -0.02134435 -0.02139392 -0.02144349
 -0.02148539 -0.02151973 -0.02154472 -0.02156251 -0.02158765 -0.02161479 -0.02163818 -0.02164172 -0.02158089 -0.02145994
 -0.02125533 -0.02100604 -0.02074467 -0.02050174 -0.02031428 -0.02018275 -0.02011901 -0.02010889 -0.02015235 -0.02022712
 -0.02033102 -0.02043135 -0.02052324 -0.02058214 -0.0206039 -0.02060037 -0.02057213 -0.02054232 -0.02051044 -0.02047719
 -0.02044094 -0.02039166 -0.02033136 -0.02026033 -0.02018395 -0.02011528 -0.02005599 -0.02001699 -0.01999063 -0.01997482
 -0.0199564 -0.01992456 -0.01987188 -0.0197893 -0.01968352 -0.01955278 -0.01941354 -0.01926857 -0.01913377 -0.01901202
 -0.01891225 -0.01883594 -0.01878219 -0.01875096 -0.01873179 -0.01872386 -0.01871411 -0.01870247 -0.01868154 -0.01865228
 -0.01861372 -0.01856744 -0.01851608 -0.01846173 -0.01840867 -0.01835863 -0.01831516 -0.01827885 -0.01825139 -0.01823229
 -0.01822207 -0.01821885 -0.01822291 -0.01822907 -0.01823671 -0.01823887 -0.01823411 -0.01822045 -0.01819718 -0.01816975
 -0.01813843 -0.01811016 -0.01808499 -0.01806538 -0.01805092 -0.01804048 -0.01803385 -0.01802987 -0.01802831 -0.01802851
 -0.0180291 -0.01802792 -0.01802306 -0.01801123 -0.01799238 -0.01796472 -0.01793113 -0.01789218 -0.01785197 -0.017812
 -0.01777513 -0.01774229 -0.01771522 -0.01769431 -0.01768054 -0.01767418 -0.01767363 -0.01767879 -0.01768492 -0.01769173
 -0.01769436 -0.0176927 -0.01768357 -0.01766709 -0.0176416 -0.01760806 -0.01756718 -0.01752155 -0.01747544 -0.01743134
 -0.01739424 -0.01736373 -0.01734167 -0.01732515 -0.01731308 -0.01730336 -0.01729487 -0.01728709 -0.01727981 -0.01727229
 -0.01726459 -0.01725463 -0.01724227 -0.01722508 -0.01720292 -0.01717474 -0.01714069 -0.01710215 -0.01705948 -0.0170155
 -0.01697047 -0.01692654 -0.01688436 -0.01684617 -0.01681337 -0.01678945 -0.01677461 -0.01677152 -0.01677652 -0.01678863
 -0.01680148 -0.01681135 -0.0168143 -0.01680724 -0.01679205 -0.01676791 -0.01674089 -0.01671159 -0.01668637 -0.01666608
 -0.01665279 -0.01664668 -0.01664307 -0.01664155 -0.01663485 -0.01662326 -0.01660448 -0.01658007 -0.01655465 -0.01652923
 -0.01650926 -0.0164932 -0.0164813 -0.01647097 -0.01645868 -0.01644471 -0.01642729 -0.01641002 -0.01639446 -0.01638312
 -0.01637822 -0.0163767 -0.01637873 -0.01637858 -0.01637507 -0.01636666 -0.01635274 -0.0163378 -0.01632204 -0.01630992
 -0.0163012 -0.01629385 -0.01628699 -0.01627373 -0.0162544 -0.01622573 -0.01619046 -0.01615329 -0.0161172 -0.01609011
 -0.01607121 -0.01606377 -0.01606279 -0.01606572 -0.01606735 -0.01606364 -0.0160534 -0.01603439 -0.01601066 -0.01598213
 -0.01595593 -0.01593311 -0.01591926 -0.01591543 -0.01591995 -0.01593282 -0.01594546 -0.01595743 -0.01596063 -0.01595561
 -0.0159415 -0.01591974 -0.01589536 -0.01586911 -0.01584563 -0.01582425 -0.01580611 -0.01578986 -0.01577432 -0.01575864
 -0.01574152 -0.01572345 -0.01570392 -0.01568507 -0.01566739 -0.0156533 -0.01564385 -0.01563867 -0.01563833 -0.01563866
 -0.01563943 -0.0156355 -0.01562653 -0.01561105 -0.01558931 -0.01556501 -0.01553878 -0.01551653 -0.01549831 -0.01548766
 -0.01548353 -0.01548548 -0.01549143 -0.01549788 -0.0155029 -0.01550249 -0.01549682 -0.01548381 -0.01546719 -0.01544783
 -0.01543114 -0.01541991 -0.0154152 -0.0154189 -0.01542485 -0.01543266 -0.01543451 -0.01542925 -0.01541546 -0.01539292
 -0.01536624 -0.01533566 -0.01530565 -0.01527613 -0.01524857 -0.01522309 -0.01520074 -0.01518224 -0.01516983 -0.01516416
 -0.01516788 -0.01517987 -0.01520088 -0.01522662 -0.0152548 -0.01527889 -0.01529437 -0.01529803 -0.01528623 -0.01526392
 -0.01523067 -0.01519649 -0.01516307 -0.01513699 -0.01511958 -0.01510892 -0.01510506 -0.01509988 -0.01509305 -0.01507802
 -0.01505561 -0.01502764 -0.01499586 -0.01496853 -0.01494554 -0.0149317 -0.01492372 -0.01491802 -0.014912 -0.01490011
 -0.0148839 -0.01486238 -0.01483874 -0.01481479 -0.01479175 -0.01477046 -0.01475148 -0.01473495 -0.01472204 -0.01471327
 -0.01470747 -0.01470489 -0.01470061 -0.01469433 -0.01468277 -0.01466609 -0.01464695 -0.01462596 -0.01460884 -0.01459539
 -0.01458822 -0.01458589 -0.01458604 -0.01458758 -0.01458716 -0.01458523 -0.01458097 -0.01457512 -0.01456827 -0.01456023
 -0.01455079 -0.01454072 -0.01452986 -0.01452076 -0.01451458 -0.01451045 -0.01450922 -0.01450363 -0.01449302 -0.0144714
 -0.0144382 -0.01439767 -0.01435038 -0.01430693 -0.01426752 -0.01423901 -0.0142202 -0.01421039 -0.0142075 -0.01420604
 -0.01420386 -0.01419422 -0.01417709 -0.01414833 -0.01411281 -0.01407193 -0.01403403 -0.01400462 -0.01398822 -0.01398972
 -0.01400318 -0.01402948 -0.01405508 -0.01407774 -0.01408746 -0.01408212 -0.01406456 -0.01403465 -0.01400411 -0.01397334
 -0.01395003 -0.01393329 -0.01392077 -0.01391111 -0.01389711 -0.01387918 -0.0138541 -0.01382431 -0.01379278 -0.01376133
 -0.01373421 -0.01370989 -0.01368878 -0.01366824 -0.01364594 -0.01362338 -0.01359964 -0.01358065 -0.01356835 -0.01356448
 -0.0135707 -0.01357985 -0.01359159 -0.01359715 -0.01359584 -0.01358582 -0.01356729 -0.01354461 -0.01351801 -0.01349132
 -0.01346411 -0.0134365 -0.01340818 -0.01337786 -0.01334672 -0.01331594 -0.01328763 -0.0132654 -0.01324915 -0.01324112
 -0.01323707 -0.01323548 -0.01323161 -0.01322244 -0.01320825 -0.01318785 -0.0131658 -0.01314277 -0.01312194 -0.01310395
 -0.01308807 -0.01307433 -0.01306012 -0.01304534 -0.01302815 -0.01300874 -0.01298758 -0.01296499 -0.01294283 -0.01292069
 -0.0128987 -0.01287553 -0.01284868 -0.01281746 -0.01277915 -0.01273604 -0.01268838 -0.0126408 -0.01259633 -0.01255753
 -0.01252696 -0.01250227 -0.01248379 -0.01246678 -0.01245023 -0.01243212 -0.01241182 -0.01239153 -0.01237132 -0.01235448
 -0.01234106 -0.01233197 -0.01232692 -0.01232416 -0.01232315 -0.01232076 -0.0123165 -0.01230709 -0.0122931 -0.0122736
 -0.01225054 -0.01222599 -0.01220169 -0.01218044 -0.01216161 -0.01214625 -0.01213116 -0.01211555 -0.01209557 -0.01206958
 -0.01203715 -0.01199725 -0.01195492 -0.01191044 -0.0118699 -0.01183383 -0.01180304 -0.01177748 -0.01175437 -0.01173409
 -0.0117181 -0.0117072 -0.01170663 -0.01171492 -0.01173211 -0.01175328 -0.01176904 -0.0117762 -0.01176506 -0.01173933
 -0.01169818 -0.01164803 -0.01159296 -0.01153626 -0.01148028 -0.01142664 -0.0113759 -0.0113306 -0.01129124 -0.01125981
 -0.01123683 -0.01122123 -0.01121308 -0.01120816 -0.01120618 -0.01120194 -0.01119512 -0.01118073 -0.01115876 -0.01112584
 -0.01108367 -0.01103457 -0.01098184 -0.01093341 -0.01089004 -0.01085698 -0.01083114 -0.0108117 -0.01079549 -0.01078021
 -0.01076416 -0.0107464 -0.01072469 -0.01069844 -0.01066491 -0.01062299 -0.01057422 -0.01051824 -0.01046104 -0.01040304
 -0.01034891 -0.01029881 -0.0102544 -0.0102157 -0.01018376 -0.01015828 -0.01013889 -0.01012438 -0.01011127 -0.0100981
 -0.01008044 -0.0100574 -0.01002557 -0.009985865 -0.00993669 -0.009883066 -0.009826831 -0.009774937 -0.00973176 -0.009697817
 -0.00967558 -0.009656892 -0.009640872 -0.009619093 -0.009589946 -0.009552969 -0.009507864 -0.009459409 -0.009407721 -0.009353956
 -0.009297776 -0.009236491 -0.009170416 -0.009098996 -0.009023963 -0.00895 -0.008878484 -0.008814857 -0.0087582 -0.00871021
 -0.008667641 -0.00862838 -0.008588874 -0.008545785 -0.00849858 -0.0084454 -0.008389967 -0.008332846 -0.008277936 -0.008226662
 -0.008177917 -0.008132406 -0.008081841 -0.008025711 -0.007956007 -0.007872683 -0.007779633 -0.0076777 -0.007576318 -0.007474913
 -0.007375938 -0.007277943 -0.00717758 -0.007074786 -0.006967243 -0.006856987 -0.006745568 -0.00663552 -0.006530345 -0.00642985
 -0.006336342 -0.00624408 -0.006152154 -0.006051609 -0.005938516 -0.005812192 -0.005670252 -0.005524374 -0.005376015 -0.005231262
 -0.005091027 -0.004949291 -0.004805889 -0.004658809 -0.004508734 -0.004362184 -0.004217832 -0.004074213 -0.003926772 -0.00375943
 -0.003573327 -0.003359007 -0.003130044 -0.002902045 -0.002683597 -0.002492568 -0.002319752 -0.002164587 -0.002017443 -0.001872122
 -0.001729627 -0.001588999 -0.001452798 -0.001323867 -0.001188463 -0.001047585 -0.0008657353 -0.0006399518 -0.0003498339 4.024471E-06
 0.0003786904 0.0007707855 0.001128942 0.001458779 0.001760168 0.002040334 0.002321419 0.002605298 0.00290619 0.00322348
 0.00356097 0.003921064 0.004305644 0.004722088 0.005176286 0.005671679 0.006216317 0.006790659 0.007394697 0.007991152
 0.008571876 0.009114759 0.009614345 0.01007294 0.01048954 0.01088412 0.01125824 0.01164958 0.01206119 0.01254161
 0.01308432 0.01369111 0.01433827 0.01494794 0.01551901 0.01600403 0.01643171 0.01682444 0.0172021 0.01759549
 0.01800515 0.01844214 0.01889712 0.01936902 0.01984775 0.02033192 0.02080512 0.02126406 0.02169495 0.02209386
 0.02246903 0.02282049 0.0231629 0.02349655 0.02381523 0.02411776 0.02438899 0.02463088 0.02484491 0.02503439
 0.02521261 0.02537575 0.02552415 0.02564844 0.02573206 0.02577799 0.02578037 0.02575247 0.02570082 0.0256379
 0.0255711 0.0255078 0.02545302 0.02540433 0.02536248 0.02532166 0.02528092 0.02523862 0.02519441 0.02515095
 0.02510834 0.02506782 0.02502909 0.02498963 0.02494892 0.02490308 0.024852 0.02479256 0.02472661 0.02465533
 0.02458348 0.02451861 0.02446369 0.02442535 0.024402 0.02439404 0.02440126 0.0244226 0.02446236 0.02452192
 0.02460338 0.024708 0.02483313 0.02497859 0.0251422 0.02532376 0.02552191 0.02573657 0.0259659 0.0262101
 0.02647028 0.02674692 0.02704357 0.02735914 0.0276929 0.02804166 0.02839844 0.02876074 0.02912112 0.02948089
 0.02983691 0.03019653 0.03056256 0.03094525 0.03135111 0.0317828 0.03224484 0.03272646 0.03322782 0.03372977
 0.03423022 0.03471103 0.03517031 0.03560003 0.03600002 0.03638096 0.03674448 0.03711343 0.03748557 0.03786386
 0.03823925 0.03858219 0.03889092 0.03914511 0.03935242 0.03951755 0.03964178 0.03972926 0.03977656 0.03978107
 0.03974504 0.0396706 0.03955311 0.03939615 0.0391728 0.03887625 0.03849433 0.03801686 0.03750849 0.03697376
 0.03646391 0.03598082 0.03550178 0.03502501 0.03452359 0.03399948 0.03344983 0.03287652 0.03228753 0.03167551
 0.03103332 0.03034119 0.02955841 0.02869456 0.02772032 0.02672541 0.02577052 0.02490184 0.02417892 0.02353444
 0.02295905 0.02239237 0.02181318 0.02122181 0.02061314 0.02001557 0.01943176 0.01887052 0.01833216 0.01780476
 0.01728846 0.0167802 0.01628248 0.01580819 0.0153571 0.01493676 0.01454206 0.01416508 0.01380256 0.01344546
 0.01309421 0.01274689 0.01240154 0.01205825 0.01170839 0.01134724 0.01097028 0.01056798 0.01017201 0.009784628
 0.009451171 0.009183298 0.008968228 0.008807286 0.008662181 0.008531058 0.008392199 0.008245758 0.008086282 0.007914991
 0.007734948 0.007547861 0.007359567 0.007174126 0.007002015 0.006849594 0.006732935 0.006650769 0.006611078 0.006600556
 0.006611683 0.006635198 0.006662473 0.006696803 0.006736347 0.006790303 0.006859456 0.006955986 0.007080339 0.007253399
 0.007477054 0.007768529 0.008128466 0.0085286 0.008964787 0.00937763 0.009767939 0.01010949 0.01040727 0.01066559
 0.01088518 0.01106919 0.01121816 0.01133054 0.01141748 0.01148525 0.01155866 0.0116591 0.01179953 0.01200184
 0.01223198 0.01248479 0.01272339 0.01293364 0.01312055 0.01328112 0.01343898 0.01359627 0.01376637 0.01394998
 0.01413841 0.01433079 0.01451278 0.01468614 0.01485235 0.01501612 0.01519456 0.01539021 0.01561944 0.01587714
 0.01616332 0.01647045 0.01678881 0.017118 0.01745427 0.01780002 0.01815614 0.01852221 0.01889797 0.01928421
 0.01968011 0.02009221 0.02052107 0.0209746 0.02145436 0.02195445 0.02247453 0.02298416 0.02348147 0.02393373
 0.0243423 0.02469889 0.02500508 0.02526412 0.02547169 0.02562068 0.02570371 0.02570437 0.02562238 0.02544849
 0.02519294 0.0248599 0.02446005 0.02400105 0.02348525 0.02291458 0.02229118 0.02161211 0.02090013 0.02015516
 0.01942046 0.01870031 0.01802195 0.01738702 0.0167884 0.01622501 0.01568046 0.01515572 0.01464813 0.01416015
 0.01369974 0.01326695 0.01286643 0.01249572 0.01215324 0.01183592 0.01154037 0.01126247 0.01099838 0.01074409
 0.010496 0.01025391 0.0100166 0.009786487 0.009564587 0.009349189 0.009140887 0.008932188 0.00872247 0.008505344
 0.008280421 0.008051049 0.007818316 0.007597309 0.007389394 0.007211141 0.007061348 0.006945217 0.006859336 0.006798124
 0.006759323 0.006736462 0.006729479 0.006736367 0.006756 0.006788302 0.006827733 0.006872141 0.00691459 0.00695184
 0.00698086 0.007000285 0.007009198 0.007007634 0.006992187 0.006962495 0.006916428 0.006853831 0.006778927 0.006692098
 0.006599451 0.00650119 0.006400899 0.006299767 0.006203118 0.006113912 0.006042215 0.005989122 0.005962386 0.005957752
 0.005974568 0.006005137 0.006043565 0.006083351 0.00611934 0.006148437 0.006168237 0.006178217 0.006177492 0.006167968
 0.006149276 0.006127285 0.006102338 0.006081813 0.006066178 0.006055797 0.006049937 0.006037972 0.006019209 0.005982744
 0.005931145 0.005867302 0.005795579 0.005728865 0.005667586 0.00561952 0.005580008 0.005546819 0.005515419 0.005481252
 0.005442273 0.005396411 0.005341962 0.005277453 0.005203675 0.005119073 0.005032857 0.004945371 0.004870961 0.004811412
 0.004772455 0.004754603 0.004749012 0.004754978 0.004759976 0.004764632 0.004766293 0.004766996 0.004773187 0.004785615
 0.004809928 0.004844432 0.004889121 0.004941413 0.004998736 0.005057855 0.005115899 0.005168948 0.005213841 0.005249199
 0.005272623 0.005289086 0.005298482 0.005309964 0.005324928 0.005350458 0.005387692 0.005437572 0.00550028 0.005569739
 0.005645306 0.00571623 0.005782047 0.005833846 0.005872825 0.005898389 0.005912699 0.005921176 0.005924292 0.005925856
 0.00592404 0.005918037 0.005906589 0.005887845 0.005862972 0.005831942 0.005796528 0.005757636 0.005715381 0.00567015
 0.005620709 0.00556688 0.005507933 0.005443716 0.005374525 0.00530036 0.005222184 0.00514012 0.005056223 0.004970658
 0.004885637 0.004800963 0.004717122 0.004633688 0.004549555 0.004465124 0.00438047 0.004296363 0.004213867 0.004133172
 0.004054727 0.003978727 0.003904837 0.003835277 0.003770429 0.003713697 0.003666342 0.003628965 0.003602392 0.003582774
 0.003570197 0.003556582 0.00354147 0.003516443 0.00348148 0.003435058 0.003378556 0.003320219 0.003261666 0.003214025
 0.003176829 0.003154831 0.003146071 0.003149061 0.003162812 0.003185308 0.003216782 0.003256865 0.003305603 0.003362989
 0.003428851 0.003503084 0.003585742 0.003676872 0.003776272 0.003884019 0.003999224 0.004121884 0.004250296 0.004384357
 0.004522583 0.00466502 0.004812307 0.004964785 0.005125265 0.005293686 0.005471484 0.00565797 0.005852167 0.006053343
 0.006260318 0.006471114 0.006684009 0.006894028 0.007096787 0.007287658 0.007461495 0.007620619 0.007763467 0.007898401
 0.00802737 0.008156411 0.008287625 0.008419028 0.008551048 0.008676228 0.008794077 0.008900836 0.00899696 0.009090341
 0.009182642 0.009289932 0.009412016 0.009558097 0.009723847 0.009903172 0.01009113 0.01027511 0.01045513 0.01062444
 0.01078976 0.01095352 0.0111247 0.01131017 0.01151215 0.01173544 0.01196993 0.01221495 0.01245596 0.01268942
 0.0129118 0.01312157 0.01332661 0.01352738 0.01372885 0.01393092 0.01413103 0.01432908 0.01452324 0.01471371
 0.01490108 0.01508409 0.01525956 0.01542671 0.01558135 0.0157269 0.01586501 0.01600163 0.0161429 0.01629137
 0.01645162 0.01661951 0.01679546 0.0169713 0.0171448 0.01731082 0.01746734 0.0176171 0.01775983 0.01790246
 0.01804545 0.01819351 0.01834683 0.01850892 0.01867997 0.01886363 0.01905918 0.01926641 0.01948302 0.01970322
 0.01992421 0.02013886 0.02034369 0.02053191 0.02070004 0.02084179 0.02095853 0.0210476 0.02111735 0.0211705
 0.02121369 0.02125005 0.02127924 0.02130148 0.02131694 0.02132501 0.02133355 0.02134298 0.02136244 0.02139215
 0.02143565 0.02149265 0.02156297 0.02164597 0.02173985 0.02184204 0.02194579 0.02204652 0.02213267 0.02220141
 0.02224321 0.0222608 0.0222522 0.02222413 0.02217998 0.02212503 0.02206224 0.02199451 0.02192274 0.02185077
 0.02177932 0.02171177 0.02164903 0.02158799 0.02152861 0.02146418 0.02139466 0.02132001 0.02124088 0.02116323
 0.02108578 0.02100715 0.02092371 0.02082389 0.02070742 0.0205661 0.02040725 0.02023621 0.0200616 0.01989558
 0.01973486 0.01958498 0.01942657 0.0192537 0.01904815 0.01880023 0.01851648 0.01819352 0.01786038 0.01752006
 0.01719417 0.01688493 0.01658885 0.01630533 0.01601951 0.01573141 0.01543437 0.01512993 0.01482102 0.01450932
 0.01420086 0.0138968 0.01360251 0.01331745 0.01304353 0.01277848 0.01252048 0.01226913 0.01202314 0.01178444
 0.01155441 0.01133085 0.01111436 0.01089787 0.01067968 0.01045777 0.01023091 0.01000723 0.009787217 0.009578097
 0.009379736 0.009186131 0.008996109 0.008796323 0.008588389 0.008370409 0.008148783 0.007940653 0.007750487 0.007597754
 0.007476117 0.007387533 0.007318316 0.007255645 0.007192883 0.007119885 0.007042474 0.006960491 0.006880768 0.006806115
 0.006736613 0.006672852 0.006613225 0.0065575 0.006505966 0.006458783 0.006411732 0.006364375 0.006306121 0.006237121
 0.006152533 0.006055548 0.005957212 0.005861613 0.005787428 0.005733405 0.005707797 0.00570292 0.005711956 0.005728401
 0.005742581 0.005754889 0.005762158 0.005768308 0.005774278 0.005783263 0.00579635 0.005815859 0.005843144 0.005874827
 0.005911486 0.005941199 0.005963036 0.005970494 0.005963868 0.005955946 0.005947859 0.005956686 0.005979117 0.006010174
 0.006043843 0.00605823 0.006054466 0.006021615 0.005970342 0.005910249 0.005851075 0.005807042 0.005778252 0.005770643
 0.005775951 0.005792822 0.005811057 0.00582727 0.005835118 0.005831791 0.005820322 0.005799628 0.005784097 0.005774466
 0.005788624 0.005827072 0.005894421 0.005988426 0.006092146 0.006202628 0.006295783 0.006373805 0.006429186 0.00646879
 0.006503948 0.006536389 0.00657557 0.006614265 0.006648778 0.006673501 0.006680953 0.006677863 0.006663785 0.006651507
 0.006645373 0.00665124 0.006671975 0.0067038 0.006746854 0.006795004 0.006847784 0.006901308 0.006955446 0.007009098
 0.007062499 0.007117147 0.007173415 0.007234393 0.007299126 0.007367463 0.007435849 0.007497319 0.007548638 0.007580845
 0.007596938 0.007594464 0.007583572 0.007569137 0.007562389 0.007569693 0.007597306 0.007649317 0.007724349 0.007824525
 0.007936844 0.008061199 0.008174789 0.00827581 0.008348505 0.008392662 0.008416444 0.00842189 0.008431732 0.008445597
 0.008474638 0.008514904 0.008559437 0.008607171 0.008650964 0.008695615 0.008745409 0.008802936 0.008874558 0.008954003
 0.009039876 0.009123686 0.009199837 0.009268592 0.009327656 0.009384735 0.009441271 0.009501627 0.009567074 0.009634919
 0.009705139 0.009773269 0.009839122 0.009900465 0.009957265 0.01000816 0.01005337 0.01009257 0.01012738 0.01016234
 0.01019928 0.01024582 0.01029844 0.01035759 0.01041337 0.0104551 0.01047926 0.0104754 0.01046008 0.01043523
 0.01042694 0.01044563 0.0104996 0.01059591 0.0107145 0.01085545 0.01098492 0.01110028 0.01117559 0.01121003
 0.0112038 0.01116012 0.01110965 0.01105545 0.01103121 0.01103173 0.01105999 0.01110647 0.01114982 0.01119166
 0.01122225 0.01125426 0.01129923 0.01135924 0.01144398 0.01153598 0.01163001 0.01171028 0.01176764 0.01180761
 0.01182819 0.01184627 0.01186438 0.01188991 0.01192412 0.01196166 0.01200234 0.01204217 0.01208203 0.01212944
 0.01218537 0.0122603 0.01235098 0.01245442 0.01256318 0.01265946 0.01274016 0.0127902 0.01281805 0.01282472
 0.0128245 0.01282907 0.01284282 0.01287458 0.01290956 0.0129465 0.01296498 0.0129579 0.01292706 0.01286884
 0.01281434 0.01276543 0.01275373 0.01278036 0.01284482 0.01294434 0.01305054 0.01316149 0.01325123 0.01332285
 0.01337139 0.01340335 0.01342984 0.01345625 0.0134964 0.01354962 0.01362136 0.01370605 0.01380083 0.0139034
 0.01401086 0.01412681 0.01425327 0.01438655 0.01452908 0.01465963 0.01477614 0.0148569 0.01489871 0.01490946
 0.01488999 0.01487958 0.01488035 0.01493018 0.01502568 0.01517155 0.0153584 0.01555933 0.01576616 0.01594752
 0.01610185 0.0162118 0.01628346 0.01631424 0.01631822 0.01630361 0.01628395 0.01627097 0.01625999 0.0162545
 0.01623589 0.0161983 0.01614233 0.01606441 0.01599375 0.01593268 0.01590102 0.01589939 0.01591088 0.01593373
 0.01594153 0.01593696 0.01591899 0.01589468 0.01588668 0.01589893 0.01595436 0.01604479 0.01617191 0.01631565
 0.01645424 0.01657777 0.01666504 0.01673819 0.01679751 0.01688304 0.01701585 0.01718667 0.01740684 0.01760251
 0.01776189 0.01785533 0.01787666 0.01785596 0.01779486 0.0177429 0.0177029 0.01772544 0.01780673 0.0179585
 0.01816408 0.01837599 0.01857897 0.01871205 0.01877956 0.01875703 0.01866658 0.01851932 0.01834352 0.01816068
 0.01799743 0.0178742 0.01779865 0.0177835 0.01780205 0.01785343 0.0178978 0.01792722 0.01793235 0.01790997
 0.01788718 0.01786528 0.0178679 0.0178934 0.01793152 0.01797768 0.01799981 0.0179988 0.01795717 0.01788641
 0.01780407 0.01771842 0.01765626 0.01760264 0.01755129 0.01748935 0.01739545 0.01729691 0.01720155 0.01713361
 0.01711326 0.01710596 0.01710954 0.01708068 0.01700715 0.01690864 0.01678381 0.01668588 0.01661742 0.0165995
 0.01663092 0.01670367 0.01681644 0.0169592 0.0171302 0.0173183 0.01752253 0.01773503 0.01795626 0.01818639
 0.01841771 0.01864515 0.01885252 0.0190251 0.01915616 0.01923594 0.01927245 0.01926545 0.01922624 0.01915559
 0.01907168 0.01897565 0.0188951 0.01883346 0.01879763 0.01878795 0.01877229 0.01874915 0.01868771 0.01859379
 0.01848312 0.01836511 0.01828316 0.01823576 0.01824441 0.01829478 0.01837402 0.01846926 0.01855898 0.01864383
 0.01871623 0.01878399 0.01885089 0.01891657 0.01898297 0.0190429 0.01909398 0.01913718 0.01917177 0.01920453
 0.01923676 0.01926204 0.01928 0.01926637 0.01921987 0.01911645 0.01895839 0.01874328 0.01848014 0.01819728
 0.01790515 0.01764449 0.01741374 0.0172316 0.01708404 0.01696057 0.01685601 0.01675886 0.01668173 0.0166296
 0.01660733 0.01662302 0.01665408 0.0166986 0.01672721 0.01673379 0.01670969 0.01665243 0.01657508 0.01647827
 0.01637849 0.01627506 0.01616415 0.01604232 0.01588399 0.01569303 0.01546272 0.01521389 0.01499233 0.01481311
 0.01473239 0.01472326 0.01478441 0.01486725 0.01492735 0.01495426 0.01492107 0.01486618 0.01479554 0.01474968
 0.0147424 0.01478246 0.01487553 0.01500481 0.01517027 0.01534146 0.01551667</values></Ydata></AB><ScSm><Ydata ylabel="Single channel"><values byteorder="INTEL" format="FLOAT32" numvalues="1814"> 0.06748696 0.06749295 0.06756076 0.06771009 0.06791276 0.06810952 0.06825042 0.06832471 0.06834665 0.0683213
 0.0682546 0.06819773 0.0682352 0.0684016 0.0686296 0.06879629 0.0688224 0.06874213 0.06868377 0.06874757
 0.06887424 0.06886075 0.06855076 0.06801225 0.06749289 0.06719031 0.06712824 0.06729861 0.06778179 0.06851958
 0.06906049 0.06888126 0.06804284 0.06722102 0.0669581 0.06714381 0.06732916 0.06724758 0.06689689 0.06643686
 0.0662386 0.06678809 0.06820902 0.06986408 0.07058056 0.06938925 0.06621587 0.06210686 0.05884659 0.0580014
 0.05981635 0.06289224 0.06523503 0.06584753 0.0652139 0.06429891 0.06350547 0.0627881 0.06232375 0.06255914
 0.06359409 0.06475661 0.06494621 0.06357447 0.06126369 0.05940946 0.05890848 0.05959013 0.06095502 0.0627235
 0.06408523 0.06325901 0.05923423 0.05400104 0.05168072 0.05461428 0.06086431 0.06611012 0.06749803 0.06524989
 0.0614133 0.0581533 0.05693379 0.05812815 0.06095424 0.06412616 0.06663365 0.06778844 0.06705351 0.06450677
 0.06129429 0.05907361 0.05899705 0.06126444 0.06507969 0.06871073 0.07027069 0.06911242 0.06626444 0.06333849
 0.06146007 0.06126307 0.06305028 0.06648182 0.07055181 0.07417119 0.0766155 0.07759784 0.07732634 0.07637346
 0.07523914 0.07426269 0.07393086 0.07458702 0.0756299 0.07573055 0.07427998 0.07220386 0.07100973 0.07122372
 0.07196584 0.07201986 0.07106628 0.06949332 0.06719465 0.06353353 0.05880124 0.05462188 0.05233114 0.05195326
 0.05316443 0.05581862 0.05880431 0.05996068 0.05843283 0.05620059 0.05611582 0.05885866 0.06257367 0.06514063
 0.06613992 0.06672606 0.06813428 0.07041517 0.07226263 0.07200159 0.06925196 0.06587061 0.06464152 0.0665442
 0.0698095 0.07209444 0.0729536 0.07359721 0.07477242 0.07560691 0.07451695 0.0710886 0.06709962 0.0654263
 0.06754026 0.07203835 0.07565969 0.07569927 0.07182875 0.06617849 0.06167436 0.06001078 0.06118869 0.06462313
 0.06979647 0.07567815 0.08045412 0.08253665 0.08171765 0.07909031 0.07579922 0.07197702 0.06732972 0.06289443
 0.06127314 0.0641813 0.07025783 0.07619412 0.07968957 0.08060966 0.07970521 0.07719273 0.07296249 0.06795058
 0.06459749 0.06495824 0.06823152 0.07120353 0.07161123 0.07021172 0.06914356 0.06925735 0.06978601 0.06998071
 0.070182 0.07123378 0.07327344 0.07540629 0.07657105 0.076506 0.0757987 0.07520059 0.07494183 0.07456185
 0.07355522 0.07237384 0.07237983 0.07435739 0.077438 0.07999204 0.08126608 0.08166601 0.081671 0.08099145
 0.07898945 0.0758771 0.0732127 0.07274784 0.07473511 0.07776558 0.08023448 0.0814973 0.08172937 0.08135103
 0.08074147 0.08011363 0.07956843 0.07935084 0.07979342 0.08083712 0.08192097 0.08254293 0.08267121 0.08248922
 0.08203562 0.08128253 0.08039811 0.07975043 0.07964374 0.08009186 0.08085696 0.08166 0.08228495 0.08254906
 0.08236395 0.08186492 0.08132964 0.08092944 0.08067605 0.0805952 0.08077586 0.08120512 0.0816942 0.08203755
 0.08217363 0.0821566 0.08204338 0.08185584 0.0816177 0.08139311 0.0812843 0.0813648 0.08159086 0.08182529
 0.08199297 0.08215489 0.08236623 0.08253297 0.08250827 0.08229297 0.08204977 0.08193128 0.08195799 0.08205131
 0.082118 0.08207725 0.08185911 0.08146155 0.08103061 0.08080897 0.08094661 0.08139319 0.08198521 0.08256351
 0.08299753 0.08320991 0.0832344 0.08317998 0.08310376 0.08297151 0.08275554 0.08252633 0.08243056 0.08258079
 0.08295183 0.08338998 0.08373772 0.08393419 0.08400597 0.08402699 0.08409363 0.08425267 0.08442786 0.08448917
 0.08441627 0.08433184 0.08435453 0.0844662 0.08454466 0.08450798 0.08440946 0.08438223 0.0844947 0.08468729
 0.08485904 0.08498327 0.0851149 0.08529872 0.08548766 0.08556486 0.08546568 0.08526599 0.0851097 0.0850583
 0.08506648 0.08509912 0.08519351 0.08537742 0.08558603 0.08571383 0.08573256 0.08571783 0.08575135 0.08582188
 0.08584304 0.08575754 0.0855991 0.08545437 0.0853879 0.08540664 0.08547133 0.08552603 0.08552754 0.08546564
 0.08536285 0.08525214 0.08515525 0.0850898 0.08509272 0.08520621 0.08541355 0.08560328 0.08563684 0.0854715
 0.08520733 0.08499943 0.08492111 0.08491394 0.08486418 0.08471467 0.08449952 0.08429064 0.08413328 0.08402858
 0.08395343 0.08388841 0.0838419 0.08385432 0.0839587 0.08411919 0.08422643 0.08418625 0.08401274 0.08381238
 0.08368336 0.08364953 0.08367519 0.08371153 0.08373814 0.08378077 0.08387305 0.08398977 0.08405414 0.0840293
 0.08396667 0.08394948 0.08402595 0.08419922 0.08442585 0.08461302 0.08467633 0.08462802 0.0845709 0.08458986
 0.0846808 0.08479255 0.08489837 0.08500479 0.0851206 0.08524865 0.08540194 0.08560352 0.08586232 0.0861543
 0.08642846 0.08663595 0.08676909 0.08688223 0.08706091 0.08735129 0.08771831 0.08807822 0.08837191 0.08860491
 0.08882143 0.08904875 0.08927763 0.08950032 0.08974619 0.09005454 0.09042032 0.09079546 0.09114331 0.09146842
 0.09179202 0.09212197 0.092455 0.09279785 0.09317549 0.09360601 0.09406069 0.09446308 0.09475049 0.09493612
 0.09510209 0.09533919 0.09569011 0.09611658 0.09650673 0.09675509 0.09687015 0.09697735 0.097186 0.09747954
 0.09777115 0.09803876 0.09835021 0.09875572 0.09920388 0.09958801 0.09985503 0.1000497 0.1002561 0.1005067
 0.100755 0.1009372 0.1010512 0.1011565 0.1013018 0.1014874 0.1017134 0.1020159 0.1024157 0.1028567
 0.1032422 0.1035237 0.1037217 0.1038775 0.1040163 0.1041448 0.1042553 0.1043425 0.1044267 0.1045389
 0.1046711 0.1047766 0.1048376 0.1049002 0.1050209 0.1052114 0.1054562 0.1057506 0.1060851 0.1064198
 0.1067198 0.1070137 0.1073651 0.107771 0.1081306 0.1083485 0.1084365 0.1084772 0.1085227 0.1085804
 0.1086762 0.1088629 0.1091557 0.1095091 0.1098709 0.1102269 0.1105838 0.1109328 0.1112433 0.1114774
 0.1116112 0.1116551 0.1116609 0.1117017 0.1118372 0.1120829 0.1124002 0.1127184 0.1129779 0.1131522
 0.1132302 0.1132091 0.113126 0.1130685 0.1131061 0.1132077 0.1132554 0.1131471 0.1128607 0.1124236
 0.1118579 0.1111787 0.1104293 0.1096926 0.1090593 0.1085889 0.108307 0.1082389 0.1084252 0.10888
 0.1095378 0.1102662 0.110938 0.1114643 0.1117643 0.1117529 0.1113971 0.1107631 0.1099806 0.10917
 0.1084058 0.1077132 0.1070718 0.1064546 0.1059046 0.1055684 0.1056313 0.1062139 0.1073155 0.1088143
 0.1105019 0.1121491 0.1135939 0.1147949 0.1158063 0.1167015 0.1175243 0.1182992 0.1190552 0.1198069
 0.1205249 0.12116 0.1217021 0.1221896 0.1226588 0.1231045 0.1234937 0.1237999 0.1240277 0.1242146
 0.1243948 0.1245532 0.1246383 0.124632 0.1245785 0.1245245 0.1244553 0.1243086 0.1240319 0.12362
 0.1231292 0.1226899 0.1224926 0.1227238 0.1234713 0.1246698 0.12614 0.1276904 0.1291834 0.1305208
 0.1316174 0.1324299 0.1329975 0.133417 0.1337766 0.1341224 0.134471 0.1348256 0.1351813 0.1355313
 0.135874 0.136216 0.1365704 0.1369461 0.1373273 0.1376754 0.1379667 0.1382275 0.1385184 0.1388772
 0.1392802 0.1396679 0.1400112 0.1403387 0.1406841 0.1410263 0.1413114 0.1415272 0.1417239 0.1419632
 0.1422742 0.1426498 0.143049 0.1434068 0.1436776 0.1438764 0.1440601 0.1442695 0.1445065 0.144758
 0.1450188 0.1452879 0.1455618 0.1458432 0.1461459 0.1464739 0.1467976 0.1470665 0.1472571 0.1474023
 0.1475639 0.1477769 0.1480244 0.1482647 0.1484801 0.1486978 0.1489622 0.1492813 0.1496071 0.1498756
 0.1500637 0.1502044 0.1503495 0.1505295 0.1507441 0.1509784 0.1512171 0.1514497 0.1516737 0.1518943
 0.1521187 0.1523483 0.1525784 0.1528036 0.1530224 0.1532394 0.1534624 0.1536946 0.1539349 0.1541868
 0.1544598 0.1547509 0.1550323 0.1552711 0.1554595 0.1556173 0.1557689 0.1559271 0.1560971 0.1562813
 0.1564795 0.1566883 0.1569041 0.1571249 0.1573505 0.15758 0.1578102 0.1580372 0.1582602 0.1584826
 0.1587094 0.1589445 0.1591874 0.1594302 0.1596615 0.159876 0.1600783 0.1602777 0.1604808 0.1606871
 0.1608884 0.161078 0.1612625 0.161457 0.1616678 0.1618856 0.1620968 0.1622965 0.1624896 0.1626845
 0.1628856 0.1630898 0.1632919 0.1634928 0.1636978 0.1639078 0.1641171 0.1643205 0.1645201 0.1647236
 0.1649355 0.1651501 0.1653577 0.1655588 0.1657634 0.1659762 0.1661891 0.1663923 0.166586 0.1667797
 0.1669822 0.1671948 0.1674116 0.1676267 0.1678374 0.1680418 0.1682379 0.1684289 0.1686235 0.1688303
 0.1690524 0.1692859 0.16952 0.1697431 0.1699525 0.1701546 0.1703574 0.1705665 0.1707843 0.1710073
 0.1712281 0.1714437 0.171658 0.1718729 0.172083 0.1722797 0.1724599 0.1726295 0.1728007 0.1729816
 0.1731726 0.1733692 0.1735659 0.1737563 0.173941 0.1741309 0.1743342 0.1745438 0.1747473 0.174943
 0.1751389 0.1753416 0.1755505 0.1757587 0.1759613 0.1761635 0.1763736 0.176589 0.1768012 0.1770109
 0.1772256 0.1774471 0.1776707 0.1778907 0.1781019 0.1783041 0.1785045 0.178707 0.1789082 0.1791075
 0.1793119 0.1795243 0.1797411 0.179959 0.180176 0.1803905 0.1806044 0.1808187 0.1810263 0.1812243
 0.1814259 0.1816428 0.1818681 0.1820891 0.1823021 0.1825096 0.1827169 0.1829303 0.1831477 0.1833588
 0.1835613 0.1837626 0.1839673 0.1841785 0.1843999 0.1846242 0.1848376 0.1850415 0.1852447 0.1854328
 0.1855551 0.1854955 0.1849765 0.1834486 0.1800689 0.1738607 0.1640967 0.1507543 0.1346847 0.11731
 0.100091 0.08414321 0.07013483 0.05837719 0.04896209 0.04184167 0.0368815 0.03396301 0.03309038 0.03449378
 0.0387413 0.04640191 0.05677247 0.0667491 0.07203119 0.07051002 0.0642809 0.05773286 0.05390657 0.05302966
 0.05381577 0.05515385 0.05668071 0.05859443 0.06124941 0.06474495 0.0688988 0.07368618 0.07946211 0.08650111
 0.09443976 0.1024307 0.1098779 0.1168998 0.1240394 0.1316032 0.1393397 0.1466885 0.1532266 0.1588776
 0.1638196 0.1682903 0.1724559 0.1763964 0.180149 0.1837047 0.1869357 0.1895726 0.1913335 0.1921348
 0.1921913 0.1919033 0.1916249 0.1915223 0.1916109 0.1918631 0.1922606 0.1927904 0.1934377 0.1941804
 0.1949826 0.1958065 0.1966295 0.1974372 0.1982096 0.1989284 0.1995882 0.2001911 0.200739 0.2012367
 0.2016923 0.2021132 0.2025065 0.2028795 0.2032352 0.203573 0.2038925 0.2041923 0.2044683 0.2047212
 0.2049592 0.2051904 0.2054165 0.2056357 0.2058456 0.2060444 0.2062356 0.2064272 0.206626 0.2068323
 0.2070405 0.2072431 0.2074379 0.2076311 0.2078287 0.2080255 0.2082108 0.2083862 0.2085645 0.2087543
 0.2089531 0.209153 0.2093479 0.2095358 0.2097197 0.209903 0.2100871 0.2102747 0.2104692 0.2106682
 0.2108648 0.2110603 0.211262 0.2114693 0.2116757 0.2118836 0.2121024 0.2123318 0.2125609 0.2127794
 0.2129785 0.2131493 0.2132921 0.2134255 0.2135776 0.2137655 0.2139813 0.2141996 0.2144032 0.2145965
 0.2147918 0.2149911 0.2151852 0.2153647 0.2155335 0.2157186 0.2159529 0.2162337 0.2165173 0.2167693
 0.2169944 0.2172115 0.2174287 0.2176504 0.2178754 0.2180792 0.2182323 0.2183474 0.2184914 0.2187347
 0.2190853 0.2194761 0.2198248 0.2201026 0.2203335 0.2205523 0.2207861 0.2210325 0.2212209 0.2212582
 0.2211752 0.2211679 0.2214201 0.2219198 0.2224955 0.2229902 0.2233597 0.2236436 0.2238892 0.2240994
 0.2242316 0.2242513 0.224206 0.2242439 0.2245127 0.2250088 0.2255644 0.2260152 0.2263304 0.2265597
 0.2267433 0.2269011 0.2269985 0.2268967 0.2265014 0.226022 0.2259163 0.2264482 0.2273899 0.2282639
 0.2288151 0.2291393 0.2294136 0.2296773 0.2298862 0.2299534 0.2296406 0.2286937 0.2273385 0.2264215
 0.2267111 0.2281238 0.2298663 0.2312274 0.2320236 0.2324245 0.2326555 0.2328504 0.2329474 0.2326804
 0.2318767 0.2308666 0.230407 0.2309768 0.2322368 0.2333956 0.2340225 0.2342738 0.2344655 0.2347193
 0.2348868 0.2345114 0.2330839 0.2307946 0.2289155 0.2289065 0.230987 0.2338732 0.2360508 0.2370761
 0.2374573 0.2375406 0.236998 0.2354172 0.2329217 0.2301129 0.227888 0.2273255 0.2289713 0.2319373
 0.234403 0.2354137 0.2356882 0.2364248 0.2378684 0.2393132 0.2400241 0.2398086 0.2388919 0.2375111
 0.2358002 0.2341686 0.2335299 0.234652 0.2372226 0.2399602 0.2418005 0.2427053 0.2431026 0.2426389
 0.2399295 0.2342247 0.227494 0.2238837 0.2260586 0.2324134 0.238795 0.2425878 0.2441545 0.244885
 0.2453305 0.2450512 0.2428751 0.2375338 0.2296519 0.2230125 0.2220063 0.2272876 0.2350366 0.2405311
 0.2413686 0.2377193 0.2314802 0.2257141 0.2234005 0.2256283 0.2311194 0.2374992 0.2427239 0.2456402
 0.2459755 0.244231 0.2416477 0.239906 0.2399117 0.2404641 0.2391655 0.2354504 0.2315207 0.229103
 0.2267653 0.2225592 0.2183052 0.2183941 0.2240882 0.2314181 0.2356473 0.2360739 0.2351737 0.2340826
 0.2306429 0.2225013 0.2115567 0.204049 0.2051066 0.2134266 0.2224388 0.2267421 0.2264016 0.2250214
 0.224935 0.2248277 0.2215952 0.2143956 0.2067091 0.2034154 0.2056008 0.2095841 0.211275 0.2094406
 0.2042672 0.1960401 0.1874992 0.1846937 0.1918768 0.2062953 0.2203505 0.2278661 0.2263487 0.2156049
 0.198594 0.1832461 0.1786187 0.1867821 0.2003039 0.2090915 0.2084069 0.1997042 0.1863154 0.1711824
 0.1582338 0.1527832 0.1583343 0.1730343 0.189742 0.1995711 0.19678 0.1832404 0.1688628 0.1644692
 0.1719318 0.1828714 0.1880507 0.1857603 0.1805007 0.1771801 0.1782852 0.1834561 0.1898734 0.1949002
 0.1981863 0.1987053 0.1919225 0.1752513 0.1553036 0.1435472 0.1443977 0.1529405 0.1641013 0.1771975
 0.1899947 0.1955866 0.190179 0.1802921 0.1772225 0.1850532 0.1971554 0.2043009 0.2037959 0.199973
 0.1974876 0.1963595 0.1942941 0.1920441 0.1935941 0.2006589 0.2096755 0.2157745 0.2178416 0.2180726
 0.2182513 0.2184005 0.2180462 0.2170313 0.2154289 0.2136509 0.2123235 0.2115762 0.2109245 0.2100086
 0.2085558 0.2052583 0.1980661 0.1870876 0.1764244 0.170929 0.1710693 0.1732561 0.1751781 0.1771564
 0.1771641 0.1694154 0.1520067 0.1331997 0.1254155 0.1332328 0.149972 0.1652975 0.1731193 0.1721157
 0.1626609 0.1470705 0.132152 0.1270758 0.1358806 0.1535882 0.1715343 0.1848402 0.1929491 0.1954773
 0.1913404 0.1817673 0.1715017 0.166095 0.1685306 0.1779008 0.1896932 0.1969388 0.1936172 0.1806452
 0.1685611 0.1697604 0.1854759 0.2037174 0.2127507 0.212997 0.2122893 0.2137008 0.2140078 0.2122322
 0.2130875 0.2205001 0.2318212 0.2404307 0.2415493 0.2341293 0.2202407 0.2055406 0.1978007 0.2006613
 0.2094597 0.2162737 0.2175806 0.2137958 0.2045873 0.1908228 0.1795316 0.1796856 0.1918002 0.2067403
 0.2160974 0.2198467 0.2225575 0.225525 0.2252135 0.2186357 0.2083515 0.2008973 0.2003171 0.2046185
 0.2091422 0.2114789 0.2115004 0.208575 0.201962 0.1939438 0.1898487 0.1934206 0.2029382 0.2128205
 0.2186178 0.2198012 0.2184348 0.2165192 0.214655 0.2122194 0.2087025 0.2054336 0.2053232 0.2097297
 0.2162507 0.221168 0.223695 0.2262397 0.2306218 0.2355621 0.2382346 0.2373499 0.2343885 0.232318
 0.2332137 0.2366101 0.239848 0.2403444 0.2380484 0.235718 0.2363793 0.2404364 0.2456145 0.2495463
 0.2517001 0.2528857 0.2538677 0.2547076 0.2547229 0.2530061 0.249727 0.2469033 0.2469712 0.2503642
 0.2550966 0.2588124 0.2606798 0.2612495 0.2611661 0.2604905 0.2590876 0.2572471 0.2556934 0.2550197
 0.2552673 0.2560705 0.2570384 0.2579293 0.2586331 0.259143 0.2595092 0.2597651 0.2599256 0.2600416
 0.2601669 0.2602702 0.2602776 0.2602261 0.2602804 0.2605405 0.2609019 0.2611618 0.2612002 0.2609783
 0.2604279 0.2594758 0.2581754 0.2566915 0.2551166 0.2534119 0.2516387 0.250203 0.2497275 0.2505808
 0.2525291 0.2548828 0.2569699 0.2584701 0.2593918 0.2598821 0.2601029 0.2601921 0.2602317 0.2602284
 0.2601472 0.2599722 0.2597271 0.2594478 0.2591554 0.258866 0.2586079 0.2584075 0.2582533 0.2580886
 0.2578495 0.2575102 0.257093 0.2566438 0.2561908 0.2557147 0.2551556 0.2544582 0.2536202 0.252702
 0.2517933 0.2509612 0.25021 0.2494848 0.2487197 0.2478803 0.2469498 0.2458962 0.2447035 0.2434431
 0.242263 0.2412722 0.2404499 0.2396821 0.2388579 0.2379169 0.236846 0.2356698 0.2344358 0.2331816
 0.2319159 0.230632 0.2293217 0.227969 0.226547 0.2250368 0.2234417 0.2217807 0.2200769 0.2183471
 0.2165812 0.2147174 0.2126438 0.2102276 0.2073456 0.2039068 0.1998848 0.1953503 0.1904722 0.1854693
 0.1805474 0.1758616 0.1715207 0.1676127 0.1642222 0.1614266 0.1592813 0.1578113 0.1570186 0.1568986
 0.1574475 0.1586469 0.1604352 0.1626972 0.1652819 0.1680268 0.1707688 0.1733578 0.1756987 0.1777937
 0.1797264 0.1815777 0.1833553 0.1850101 0.1865022 0.1878256 0.1889789 0.189948 0.1907291 0.1913481
 0.1918452 0.1922503 0.1925816 0.1928596 0.1931095 0.193347 0.1935702 0.1937739 0.193969 0.1941787
 0.1944193 0.1946926 0.1949987 0.1953494 0.1957673 0.1962689 0.1968477 0.1974795 0.1981453 0.1988417
 0.1995691 0.2003336 0.2011708 0.2021461 0.2033104 0.2046621 0.2061581 0.2077461 0.2093708 0.2109587
 0.2124183 0.2136666 0.2146598 0.2154007 0.2159212 0.2162589 0.2164448 0.2165022 0.2164499 0.2163029
 0.2160698 0.2157583 0.2153873 0.2149817 0.2145439 0.2140432 0.213457 0.2128149 0.2121784 0.2115797
 0.211002 0.210421 0.2098421 0.2092887 0.2087695 0.2082724 0.2077825 0.2072911 0.2067874 0.2062586
 0.2057016 0.2051197 0.2044989 0.2038044 0.2030071 0.2020996 0.201083 0.1999597 0.1987439 0.1974554
 0.1960981 0.1946639 0.1931583 0.1916041 0.1900133 0.1883674 0.1866263 0.1847572 0.1827726 0.1807494
 0.1787958 0.1769852 0.1753204 0.1737538 0.1722395 0.1707714 0.1693777 0.1680757 0.1668457 0.1656595
 0.1645172 0.1634366 0.1624211 0.1614614 0.1605587 0.1597285 0.1589839 0.1583247 0.1577427 0.1572328
 0.156795 0.1564287 0.1561387 0.1559471 0.1558751 0.1558999 0.1559478 0.1559424 0.1558495 0.155684
 0.1554928 0.1553243 0.1551968 0.1551009 0.1550239 0.1549442 0.154798 0.1544825 0.153899 0.1529894
 0.1517477 0.1502161 0.14847 0.1466112 0.1447703 0.1430828 0.1416434 0.1404937 0.1396352 0.1390178
 0.1385389 0.138114 0.1377488 0.1375173 0.1374819 0.1376267 0.1378381 0.1379686 0.1379714 0.1379616
 0.1381097 0.1384993 0.1390973 0.1398066 0.1405167 0.1411385 0.1416179 0.141933 0.1421037 0.1421906
 0.1422372 0.1422235 0.1421097 0.1418954 0.1416051 0.1412558 0.140861 0.1404277 0.1399438 0.1393902
 0.1387504 0.138005 0.1371596 0.1362548 0.1352963 0.1342279 0.1330576 0.1319662 0.1312225 0.1310164
 0.1313697 0.1321337 0.1330846 0.1340719 0.1350178 0.1357559 0.1360635 0.1360092 0.1361371 0.1370881
 0.1389943 0.1413256 0.1433518 0.1446749 0.1452937 0.1453254 0.1448518 0.143945 0.1426298 0.1408455
 0.1385747 0.1359359 0.1330799 0.1301345 0.1272804 0.124716 0.1225478 0.1208044 0.1194752 0.1185625
 0.1181574 0.117912 0.1160574 0.1102955 0.1013509 0.09460673 0.09559707 0.1037858 0.1129243 0.1176547
 0.1177779 0.1161018 0.1145994 0.1136098 0.1130693 0.1131193 0.1138545 0.1150965 0.116443 0.1175069
 0.1181559 0.1184606 0.11839 0.1175763 0.1152885 0.1107085 0.103583 0.09476183 0.08590695 0.07854891
 0.07340797 0.07037932 0.0688509 0.06807868 0.06756914 0.06729362 0.06754975 0.0686082 0.0704933 0.07305227
 0.07610264 0.07939974 0.08254851 0.08516536 0.08716747 0.08875407 0.09007825 0.09107176 0.09159812 0.09163842
 0.09129399 0.0907049 0.09000063 0.0892569 0.08844058 0.08743639 0.0862193 0.08500448 0.08412272 0.08371224
 0.08362209 0.08362748 0.08362266 0.08359613 0.08355224 0.08350171 0.08346599 0.083489 0.08365748 0.08404264
 0.08459121 0.08513194 0.08551037 0.08569384 0.08575621 0.08574957 0.08557098 0.08505496 0.0842745 0.08357242
 0.08311577 0.08260149 0.08166168 0.08044084 0.07950705 0.07923783 0.07949516 0.0798659 0.08003139 0.07990866
 0.07963518 0.07950866 0.07978822 0.08039666</values></Ydata></ScSm><ScRf><Ydata ylabel="Single channel"><values byteorder="INTEL" format="FLOAT32" numvalues="1820"> 0.06056887 0.06073989 0.06084467 0.06087731 0.06086307 0.06085313 0.06090305 0.06103882 0.06123531 0.0614282
 0.06155944 0.0616183 0.06162936 0.06160766 0.06155731 0.06151518 0.06155062 0.0616974 0.06190534 0.06207212
 0.06212272 0.06207401 0.06202924 0.06207708 0.06217176 0.0621414 0.0618541 0.06137442 0.06092142 0.06066382
 0.06061526 0.06076925 0.06120723 0.06188288 0.06238317 0.06222448 0.06145895 0.06070594 0.06046576 0.06064121
 0.06082125 0.06075685 0.06044063 0.06001939 0.05983844 0.06034569 0.0616504 0.06316227 0.06380649 0.06270514
 0.05980572 0.05607376 0.05313154 0.05238944 0.05405655 0.05685764 0.05898658 0.05954693 0.05898502 0.0581744
 0.0574698 0.05682217 0.05639786 0.05661498 0.05756719 0.05863316 0.05880157 0.05754016 0.05542759 0.05374027
 0.0532888 0.05391202 0.05515769 0.05677266 0.05801004 0.05724126 0.05356035 0.04880455 0.04673093 0.04944559
 0.05515686 0.05992739 0.06117398 0.05911126 0.05560894 0.05264418 0.05155441 0.05267202 0.05526552 0.05814949
 0.06040766 0.06143122 0.06074829 0.05843543 0.05553181 0.05354015 0.0535045 0.05559888 0.05908611 0.06238244
 0.06377943 0.06270696 0.06011107 0.05745333 0.05575039 0.05557972 0.05722035 0.0603621 0.06408688 0.06740209
 0.06964432 0.07054546 0.07029328 0.06941772 0.06838822 0.06752254 0.06725796 0.0678867 0.06884206 0.0689156
 0.06757413 0.06567835 0.06459889 0.06480105 0.06547621 0.0655221 0.06465584 0.06322814 0.06112897 0.05777301
 0.05344009 0.04962872 0.04755825 0.04724141 0.04837818 0.05083168 0.05357633 0.05463353 0.05323515 0.05120619
 0.05115099 0.05367569 0.05707576 0.05941907 0.06033275 0.06087587 0.06217273 0.06426257 0.06594798 0.06569853
 0.06317331 0.06008274 0.05898187 0.0607603 0.06378382 0.06590202 0.06671396 0.06733292 0.06843738 0.06921794
 0.06822146 0.06508195 0.06144926 0.05996506 0.06195669 0.06610748 0.06941599 0.06941456 0.06582749 0.06063322
 0.0565265 0.05505324 0.05619925 0.05942359 0.06425437 0.0697405 0.07420104 0.07616411 0.07543553 0.07302889
 0.07000851 0.06649935 0.06222784 0.05815729 0.05670425 0.05945727 0.06514732 0.07070575 0.07400522 0.07492101
 0.07413664 0.07183619 0.0679149 0.06326466 0.06018762 0.06060641 0.06375078 0.06659599 0.06702649 0.06576191
 0.06480734 0.06495601 0.06549044 0.06571664 0.06596322 0.06702616 0.06902986 0.0711225 0.072295 0.07229462
 0.07167511 0.07115115 0.07094638 0.0706284 0.0697244 0.06867304 0.06876776 0.07073671 0.07373685 0.07621989
 0.07748426 0.07792576 0.0779963 0.07740907 0.07554927 0.07262328 0.07013172 0.0697585 0.07174195 0.07472043
 0.07714771 0.07841087 0.07869183 0.07840225 0.07790012 0.07737617 0.07691985 0.07677202 0.0772635 0.07834263
 0.07946441 0.08013567 0.08031981 0.08019352 0.07979724 0.07910891 0.07829872 0.07772978 0.07769619 0.07820223
 0.07901026 0.07985286 0.08052616 0.08084674 0.08071627 0.08026859 0.07979441 0.07947481 0.07931173 0.07931146
 0.07955486 0.08003537 0.08057219 0.08096206 0.08114411 0.08117588 0.08111689 0.08098372 0.08078923 0.08059566
 0.08051953 0.08064848 0.08093237 0.08121478 0.08141574 0.08161272 0.0818765 0.08210911 0.08214901 0.08199063
 0.08179944 0.08172642 0.08178393 0.08189359 0.08197618 0.08196291 0.08178109 0.08142045 0.08102646 0.0808455
 0.08102699 0.08151872 0.08215912 0.08279031 0.08327733 0.08353725 0.08360328 0.08358571 0.08353768 0.08341824
 0.08320116 0.08296955 0.0828827 0.0830549 0.08345623 0.08393174 0.08432493 0.08456998 0.08468373 0.0847367
 0.08483164 0.08502029 0.08521873 0.08528475 0.08520134 0.08511261 0.08515313 0.08529523 0.08539422 0.08535892
 0.08525299 0.08522563 0.08535581 0.08558533 0.08580395 0.08597013 0.08613153 0.08633764 0.0865456 0.08663273
 0.08652825 0.08631429 0.08614746 0.08609262 0.0860986 0.0861304 0.0862352 0.08644412 0.08667874 0.08681703
 0.08683151 0.08681382 0.08685677 0.08694337 0.08697293 0.0868793 0.08669841 0.0865276 0.08644527 0.08646784
 0.08655311 0.08662935 0.0866368 0.0865629 0.08644389 0.08632898 0.08624454 0.08620167 0.08623244 0.08638237
 0.0866355 0.08686538 0.0869114 0.08672748 0.08643813 0.08622727 0.08617304 0.08619556 0.08615499 0.08598381
 0.08572584 0.08547115 0.08527632 0.08514217 0.08504231 0.08495934 0.08490656 0.08492565 0.08504367 0.08521005
 0.08529682 0.0852021 0.08495319 0.08467887 0.08448808 0.08440144 0.08437891 0.0843722 0.0843628 0.08437929
 0.08445802 0.08456858 0.08461823 0.08455791 0.08444464 0.08438018 0.08442844 0.08459577 0.0848271 0.085007
 0.08503251 0.0849175 0.0847845 0.08473723 0.08477817 0.08485603 0.08494295 0.08504043 0.08514526 0.08524848
 0.08536194 0.08552098 0.0857491 0.0860237 0.0862803 0.08645766 0.08654972 0.08661915 0.08675369 0.08699948
 0.08732839 0.08766344 0.08793777 0.0881408 0.08831313 0.08849458 0.08868706 0.08888084 0.08909675 0.08936907
 0.08969384 0.09002772 0.09033798 0.09062695 0.09090929 0.09119011 0.0914716 0.09177076 0.09212232 0.092548
 0.09300862 0.0934051 0.09365829 0.09378676 0.09389228 0.09408025 0.09439471 0.09479032 0.09514724 0.09535893
 0.09544209 0.09552855 0.09571817 0.09597606 0.09621356 0.09643225 0.09672613 0.09714637 0.09761681 0.09800377
 0.0982459 0.09839801 0.09855667 0.09875584 0.09894186 0.09905155 0.09909949 0.09916435 0.09929577 0.09947729
 0.09969321 0.0999788 0.1003628 0.100795 0.1011802 0.1014675 0.1016714 0.1018253 0.1019494 0.1020479
 0.1021096 0.1021279 0.1021341 0.1021798 0.1022696 0.102348 0.1023762 0.1023893 0.1024523 0.1025949
 0.1028148 0.1031055 0.1034426 0.1037682 0.1040408 0.1042964 0.10461 0.1049814 0.1053041 0.1054812
 0.1055338 0.1055544 0.1055884 0.1056219 0.1056694 0.1057974 0.1060467 0.1063821 0.1067401 0.1070912
 0.1074396 0.1077847 0.1080977 0.1083284 0.1084367 0.1084321 0.1083837 0.1083852 0.1085025 0.1087424
 0.1090554 0.1093721 0.1096443 0.1098504 0.1099681 0.1099776 0.1099147 0.1098858 0.1099819 0.1101746
 0.1103277 0.1103145 0.1101004 0.1097178 0.1092012 0.1085754 0.1078885 0.1072247 0.1066705 0.1062761
 0.1060577 0.1060343 0.1062406 0.1066862 0.1073093 0.1079952 0.1086403 0.1091714 0.1095049 0.1095391
 0.1092269 0.1086352 0.1079056 0.1071659 0.1064877 0.1058854 0.1053228 0.1047553 0.1042178 0.1038667
 0.1039059 0.1044607 0.105514 0.106922 0.108466 0.1099223 0.1111448 0.1121143 0.1129079 0.1136158
 0.114286 0.1149388 0.1155962 0.1162654 0.1169084 0.1174709 0.1179447 0.1183712 0.1187825 0.1191684
 0.1194999 0.1197624 0.1199718 0.1201706 0.1203895 0.1205963 0.1207124 0.1206984 0.1205984 0.1204799
 0.1203584 0.1201949 0.1199418 0.1195796 0.1191445 0.1187511 0.1185787 0.1187986 0.1194749 0.1205224
 0.1217692 0.1230676 0.124333 0.1254891 0.1264338 0.1270997 0.1275219 0.1278124 0.1280755 0.1283621
 0.1286782 0.1290072 0.1293279 0.1296273 0.1299057 0.1301783 0.1304719 0.1308052 0.1311598 0.1314841
 0.1317435 0.1319656 0.1322224 0.1325621 0.1329583 0.1333376 0.1336601 0.1339562 0.1342679 0.1345783
 0.1348334 0.13502 0.1351843 0.1353829 0.1356464 0.1359783 0.1363489 0.1366943 0.1369583 0.1371441
 0.1373062 0.137493 0.1377153 0.1379619 0.1382212 0.138481 0.1387301 0.1389732 0.1392375 0.1395416
 0.139857 0.1401202 0.1402971 0.1404218 0.1405621 0.1407529 0.1409764 0.1411969 0.1414032 0.1416205
 0.1418835 0.142193 0.1425001 0.142744 0.1429055 0.1430185 0.1431332 0.1432797 0.1434651 0.1436852
 0.1439267 0.1441652 0.1443789 0.1445687 0.1447577 0.1449655 0.1451888 0.1454101 0.1456199 0.1458238
 0.1460309 0.1462443 0.1464663 0.1467084 0.1469854 0.1472908 0.1475857 0.1478246 0.1479934 0.1481157
 0.1482259 0.1483483 0.1484966 0.1486768 0.148884 0.1491035 0.149319 0.1495219 0.1497145 0.1499057
 0.1501035 0.1503102 0.1505218 0.1507321 0.1509396 0.1511521 0.1513813 0.1516249 0.1518608 0.1520654
 0.1522398 0.1524111 0.1526051 0.1528211 0.1530358 0.1532297 0.1534039 0.1535726 0.1537481 0.1539348
 0.1541317 0.1543334 0.1545338 0.1547312 0.1549265 0.1551203 0.1553141 0.1555133 0.1557206 0.1559296
 0.1561301 0.1563182 0.1564997 0.1566833 0.1568744 0.1570743 0.1572817 0.1574941 0.1577071 0.1579159
 0.1581176 0.1583122 0.1585028 0.1586958 0.1588975 0.1591046 0.1593056 0.1594937 0.1596735 0.1598534
 0.1600405 0.1602411 0.1604571 0.1606809 0.1609012 0.1611141 0.1613243 0.161536 0.161749 0.1619589
 0.1621618 0.1623591 0.1625579 0.1627651 0.1629839 0.1632147 0.1634538 0.1636916 0.1639145 0.1641109
 0.164279 0.1644321 0.1645916 0.1647682 0.1649552 0.1651426 0.1653277 0.165511 0.1656939 0.1658824
 0.1660806 0.1662846 0.1664886 0.166691 0.166892 0.1670911 0.1672915 0.1674962 0.167702 0.1679029
 0.1680984 0.1682922 0.16849 0.1686965 0.1689112 0.169128 0.1693431 0.1695556 0.1697629 0.1699636
 0.1701622 0.1703628 0.1705646 0.1707704 0.1709862 0.1712095 0.1714307 0.1716459 0.1718585 0.1720712
 0.1722841 0.1724939 0.1726941 0.1728858 0.1730814 0.1732884 0.1735013 0.1737157 0.173934 0.1741553
 0.1743752 0.1745951 0.1748156 0.1750308 0.1752384 0.175442 0.1756422 0.1758416 0.1760503 0.1762722
 0.1764977 0.1767174 0.1769258 0.1771082 0.1772288 0.1771863 0.1767117 0.1752664 0.172033 0.1660791
 0.1567221 0.1439496 0.1285708 0.1119364 0.09544732 0.08018693 0.06680343 0.05558689 0.04661121 0.03982408
 0.03509765 0.03231747 0.03148346 0.03281747 0.03687472 0.04421141 0.05415332 0.06371625 0.06877229 0.06730478
 0.06133137 0.05506295 0.05140864 0.05057786 0.05133479 0.05261971 0.05409028 0.05593503 0.05848579 0.06183236
 0.06580423 0.0703892 0.07593717 0.08271252 0.09036033 0.09805743 0.1052217 0.1119627 0.1188062 0.1260577
 0.1334845 0.1405519 0.1468512 0.1523018 0.1570672 0.1613708 0.1653709 0.1691462 0.1727399 0.1761541
 0.1792706 0.1818237 0.1835331 0.1843142 0.1843746 0.1841002 0.1838327 0.183737 0.1838344 0.184101
 0.1845147 0.1850551 0.1857025 0.186432 0.1872073 0.1879947 0.1887797 0.1895564 0.1903106 0.1910271
 0.1916981 0.1923156 0.1928709 0.1933661 0.1938136 0.1942252 0.1946096 0.1949752 0.1953283 0.1956723
 0.1960085 0.1963331 0.1966375 0.196918 0.1971773 0.1974161 0.1976328 0.1978328 0.1980281 0.1982276
 0.1984329 0.1986421 0.1988507 0.1990553 0.199258 0.1994628 0.1996706 0.1998789 0.2000847 0.2002838
 0.200474 0.2006584 0.2008425 0.201029 0.2012193 0.2014157 0.2016154 0.2018099 0.2019953 0.2021786
 0.2023723 0.2025829 0.2028031 0.203015 0.2032082 0.2033944 0.2035943 0.2038123 0.2040361 0.2042556
 0.2044697 0.2046804 0.2048913 0.2051055 0.2053155 0.2055035 0.2056613 0.2058055 0.2059664 0.2061637
 0.2063895 0.2066152 0.2068195 0.2070065 0.2071952 0.2073959 0.2076024 0.207799 0.2079792 0.2081633
 0.2083853 0.2086509 0.2089275 0.2091842 0.2094185 0.2096367 0.2098427 0.2100509 0.2102738 0.2104909
 0.2106665 0.2108051 0.2109683 0.2112215 0.2115676 0.2119369 0.2122515 0.2124947 0.212707 0.2129322
 0.213189 0.213457 0.2136552 0.2136961 0.2136231 0.2136362 0.2139087 0.2144144 0.2149802 0.2154637
 0.2158343 0.2161302 0.2163902 0.2166131 0.216756 0.2167832 0.2167427 0.2167858 0.2170611 0.2175603
 0.2181111 0.2185506 0.2188544 0.2190774 0.2192598 0.2194197 0.2195232 0.2194348 0.2190582 0.218597
 0.2185066 0.2190528 0.2200081 0.2208923 0.2214461 0.2217648 0.2220323 0.2223013 0.2225355 0.2226398
 0.2223613 0.2214396 0.2201026 0.2191956 0.2194818 0.2208771 0.2225935 0.2239293 0.224711 0.2251163
 0.2253682 0.2255886 0.2257083 0.2254704 0.2247139 0.2237571 0.2233218 0.2238681 0.2250791 0.2262041
 0.2268292 0.2270987 0.2273118 0.2275864 0.2277801 0.2274456 0.2260804 0.223866 0.2220457 0.2220475
 0.2240862 0.2269087 0.2290396 0.230049 0.2304342 0.2305346 0.2300306 0.2285188 0.2261193 0.2234217
 0.2213016 0.2208022 0.2224426 0.2253529 0.2277672 0.2287666 0.2290537 0.2297896 0.2312065 0.2326168
 0.2333094 0.233104 0.2322258 0.2309057 0.2292673 0.2277014 0.2270956 0.2282041 0.2307323 0.2334363
 0.235272 0.2361899 0.2366039 0.236174 0.2335488 0.2279897 0.2214188 0.2178947 0.2200297 0.2262606
 0.2325308 0.236282 0.23786 0.2386118 0.2390696 0.2388067 0.2366891 0.2314912 0.2238304 0.2173976
 0.2164661 0.2216603 0.2292472 0.2346251 0.2354583 0.231918 0.2258594 0.2202752 0.218071 0.2203017
 0.2257132 0.2319842 0.2371157 0.2399817 0.2403233 0.2386411 0.2361546 0.234506 0.2345684 0.2351505
 0.2339033 0.230288 0.2264746 0.224154 0.2219175 0.2178556 0.2137534 0.2139106 0.2195582 0.2267998
 0.2309907 0.2314493 0.2306125 0.2295974 0.2262803 0.2183421 0.2076454 0.2003278 0.2014396 0.2097041
 0.2186573 0.2229848 0.2227508 0.2215003 0.2215242 0.2215199 0.2184251 0.2114175 0.2039432 0.20082
 0.2031104 0.2071751 0.2089798 0.2073027 0.2023122 0.1942908 0.1859749 0.183374 0.1906947 0.2051906
 0.2193186 0.2269445 0.225573 0.2149915 0.1981601 0.1830332 0.1786852 0.1871711 0.2010195 0.2101056
 0.2096813 0.2012031 0.1880054 0.1730417 0.1602869 0.1551466 0.1612128 0.1766281 0.1941094 0.204545
 0.2020255 0.1884719 0.1740943 0.1700425 0.1782181 0.1899366 0.1956494 0.1936107 0.1885002 0.1854223
 0.1869774 0.1927877 0.1998836 0.2054973 0.2092714 0.2101015 0.2031526 0.1856674 0.1646569 0.1522829
 0.1532281 0.1622846 0.1740838 0.187922 0.201446 0.2073362 0.2015669 0.1910508 0.1877626 0.1960249
 0.2088068 0.2163266 0.2157307 0.2116165 0.2089311 0.2077089 0.2055223 0.2031671 0.2048663 0.2124446
 0.222136 0.2287824 0.2311937 0.2316887 0.232161 0.2326407 0.2326184 0.2319063 0.2305624 0.229023
 0.227977 0.2275931 0.2273628 0.2268787 0.2258061 0.2226872 0.2152686 0.2036689 0.192378 0.186696
 0.1871139 0.1896953 0.1919212 0.1941475 0.1941456 0.1855808 0.1663812 0.1455931 0.1367959 0.1449831
 0.1628464 0.1791053 0.187147 0.1855938 0.1749278 0.1576895 0.1411741 0.1351581 0.1439333 0.1621872
 0.1806756 0.1941881 0.2021635 0.2042843 0.1994817 0.1890662 0.177994 0.1720337 0.1742445 0.1836321
 0.1954969 0.2026524 0.1989285 0.1852989 0.1725972 0.1735369 0.1893812 0.2078543 0.2169409 0.2170507
 0.2161671 0.2174256 0.2175581 0.2156002 0.2163752 0.223877 0.2353886 0.2441628 0.2453465 0.2378898
 0.2239102 0.2091782 0.2016183 0.2049214 0.2142785 0.2215519 0.2231198 0.2193965 0.2100381 0.1959676
 0.1844676 0.1847992 0.1974756 0.2130523 0.2228558 0.2268834 0.2298669 0.233129 0.2329878 0.226349
 0.2158851 0.2083901 0.2080635 0.212837 0.2178713 0.2206576 0.2210515 0.2183812 0.2118642 0.203887
 0.2000389 0.2042502 0.2146954 0.2254679 0.2318387 0.2332047 0.2317079 0.2294576 0.2271174 0.2240636
 0.2197787 0.2156801 0.2148578 0.2187742 0.22494 0.2294752 0.2315536 0.2336766 0.2377369 0.2424184
 0.2448117 0.2435922 0.2402754 0.2378928 0.2385606 0.2417977 0.2448792 0.2451562 0.2425725 0.239952
 0.2404027 0.2443599 0.2495174 0.2534587 0.2556306 0.2568498 0.2578878 0.2587911 0.2588466 0.2571215
 0.2537848 0.2508806 0.2508807 0.2542313 0.2589252 0.2625796 0.2643673 0.2648748 0.2647736 0.2641167
 0.2627398 0.2609123 0.259356 0.2586698 0.2588996 0.2596869 0.2606503 0.261545 0.2622369 0.2626977
 0.2629882 0.2631738 0.263286 0.2633659 0.2634504 0.2634978 0.2634268 0.2632761 0.2632325 0.2634285
 0.2637713 0.2640383 0.2640823 0.2638594 0.2633156 0.262389 0.2611309 0.2596973 0.2581681 0.2564902
 0.25472 0.2532784 0.2528164 0.2537234 0.2557662 0.2582346 0.2604251 0.2619938 0.2629487 0.2634516
 0.2636751 0.2637553 0.2637704 0.2637288 0.2635999 0.2633685 0.2630563 0.2626981 0.2623158 0.261928
 0.261568 0.261267 0.2610142 0.2607501 0.260411 0.259974 0.2594636 0.2589272 0.2583986 0.2578667
 0.2572732 0.2565544 0.2556907 0.254726 0.2537488 0.2528454 0.2520439 0.2512985 0.2505381 0.2497226
 0.2488337 0.2478386 0.2467205 0.245551 0.2444788 0.2436119 0.242926 0.2423034 0.2416333 0.2408598
 0.2399717 0.2389908 0.2379604 0.2369098 0.2358308 0.2347008 0.2335133 0.2322693 0.2309549 0.2295484
 0.22804 0.2264432 0.2247974 0.2231491 0.2215019 0.2197761 0.2178293 0.2155141 0.2127172 0.2093674
 0.205444 0.2010005 0.1961828 0.1912083 0.1863008 0.1816283 0.1773011 0.1734085 0.1700397 0.1672713
 0.1651578 0.1637332 0.1630153 0.1630087 0.1637067 0.1650794 0.1670557 0.169519 0.1723222 0.1753036
 0.178299 0.1811576 0.1837783 0.1861519 0.1883501 0.1904406 0.1924166 0.1942239 0.195834 0.197254
 0.198484 0.1995099 0.2003401 0.2010168 0.2015886 0.2020863 0.2025241 0.202908 0.2032394 0.2035158
 0.203735 0.2039057 0.2040528 0.2042085 0.2043975 0.2046276 0.2048943 0.2051997 0.2055674 0.206023
 0.2065548 0.2071156 0.2076738 0.2082435 0.2088534 0.2095109 0.2102152 0.2109944 0.2119062 0.2129966
 0.214259 0.2156352 0.2170432 0.2183954 0.2196032 0.2205944 0.2213357 0.2218343 0.2221187 0.2222259
 0.2221917 0.2220367 0.2217674 0.2213947 0.2209414 0.2204273 0.2198609 0.2192458 0.2185857 0.2178861
 0.2171601 0.2164318 0.2157246 0.2150446 0.2143801 0.2137202 0.2130725 0.2124583 0.2118862 0.2113358
 0.2107749 0.2101888 0.2095892 0.208997 0.2084206 0.2078431 0.2072264 0.2065289 0.2057274 0.2048211
 0.2038159 0.2027085 0.2014944 0.2001842 0.1988026 0.1973657 0.1958671 0.1942928 0.192642 0.1909225
 0.1891266 0.1872303 0.1852331 0.183194 0.1812103 0.1793606 0.1776685 0.1761107 0.174645 0.1732391
 0.1718873 0.1706 0.1693768 0.1682018 0.1670643 0.1659694 0.1649285 0.1639519 0.1630515 0.1622394
 0.1615205 0.1608893 0.1603361 0.1598577 0.1594577 0.1591333 0.1588773 0.158699 0.1586211 0.1586383
 0.1586968 0.158732 0.1587088 0.1586252 0.1584991 0.1583599 0.1582369 0.1581489 0.1580967 0.158048
 0.15793 0.1576457 0.1571029 0.1562334 0.1550162 0.1534917 0.1517463 0.14989 0.1480536 0.1463705
 0.1449348 0.1437879 0.1429322 0.1423233 0.1418646 0.1414658 0.1411127 0.1408704 0.1408222 0.1409881
 0.1412667 0.1414857 0.1415577 0.1415701 0.1416992 0.1420668 0.1426769 0.1434302 0.1441858 0.1448438
 0.1453693 0.1457495 0.1459827 0.1461064 0.1461682 0.146167 0.1460718 0.1458775 0.1456055 0.1452819
 0.1449316 0.1445543 0.1441116 0.1435657 0.1429086 0.1421461 0.1412956 0.1403831 0.1393886 0.1382544
 0.1370229 0.1359145 0.1352043 0.1350566 0.1354663 0.1362768 0.1372736 0.138321 0.1393451 0.1401678
 0.1405543 0.140578 0.1407968 0.1418498 0.1438487 0.1462532 0.1483528 0.1497808 0.1505388 0.1507083
 0.1503269 0.1494448 0.148091 0.1462274 0.1438619 0.1411164 0.1381265 0.1350249 0.1320301 0.1293674
 0.1271289 0.1253188 0.1239281 0.122985 0.1226069 0.1224266 0.1205715 0.114627 0.1053631 0.09841418
 0.09953739 0.1081347 0.1176682 0.1225689 0.1226782 0.1209713 0.1195069 0.1185823 0.1180663 0.1180868
 0.118769 0.1199712 0.1213171 0.1224215 0.1231236 0.1234549 0.1233709 0.122513 0.120141 0.1153899
 0.1079647 0.09874336 0.08948292 0.08179781 0.07642519 0.07324085 0.07162295 0.07081393 0.07028219 0.06997235
 0.0702024 0.07128174 0.07324891 0.07594348 0.07917216 0.08267532 0.08603723 0.08885577 0.09103277 0.09275376
 0.0941648 0.09519695 0.09571661 0.09571992 0.09533501 0.0947136 0.09396733 0.09315461 0.09225596 0.09118539
 0.08993012 0.08869787 0.08781191 0.08741075 0.0873424 0.08737301 0.0873872 0.08737299 0.08733906 0.08729172
 0.08723626 0.08720227 0.08728105 0.08757077 0.08804789 0.08854681 0.08889541 0.08905099 0.08909927 0.08909991
 0.08892985 0.08839417 0.08756092 0.08679515 0.08628117 0.08570076 0.08465654 0.08330135 0.08226334 0.08197026
 0.08226316 0.08266388 0.08282033 0.08267047 0.08238874 0.08229307 0.08264188 0.08333689 0.08390319 0.0839255
</values></Ydata></ScRf><Data_Parameters_AB><parameter name="DPF">1</parameter><parameter name="NPT">3497</parameter><parameter name="FXV">3996</parameter><parameter name="LXV">500</parameter><parameter name="CSF">1</parameter><parameter name="MXY">0.0397810712456703</parameter><parameter name="MNY">-0.0450617037713528</parameter><parameter name="DAT">30/05/2022</parameter><parameter name="TIM">12:23:49.331 (GMT+2)</parameter><parameter name="DXU">WN</parameter></Data_Parameters_AB><AB__Qtest><MainReport name="Quality Test Report"><Header><Line><Legend>Test result ok/not ok [1/0]: </Legend><Value>0</Value></Line><Line><Legend>Method file: </Legend><Value>C:\Users\Public\Documents\Bruker\OPUS_8.2.28\QT\IRBT_v3_default.QT</Value></Line></Header><Matrix><Line><Legend></Legend><Legend>min</Legend><Legend>max</Legend><Legend>measured</Legend></Line><Line><Value>Absorption (X-Range 1):</Value><Value>0.400000</Value><Value>2.000000</Value><Value>0.043833</Value></Line><Line><Value>Noise (X-Range 4):</Value><Value></Value><Value>0.000300</Value><Value>0.000056</Value></Line><Line><Value>Signal/Noise (X-Range 2):</Value><Value>200.000000</Value><Value></Value><Value>11.148047</Value></Line><Line><Value>Signal/Noise (X-Range 3):</Value><Value>40.000000</Value><Value></Value><Value>9.707532</Value></Line><Line><Value>Water vapour (X-Range 5):</Value><Value></Value><Value>0.000300</Value><Value>0.000025</Value></Line><Line><Value>Signal/Water (X-Range 2):</Value><Value>100.000000</Value><Value></Value><Value>25.344922</Value></Line><Line><Value>Signal/Water (X-Range 3):</Value><Value>20.000000</Value><Value></Value><Value>22.069933</Value></Line><Line><Value>Fringes (X-Range 6):</Value><Value></Value><Value>0.000100</Value><Value>0.000049</Value></Line></Matrix></MainReport></AB__Qtest><Data_Parameters_ScSm><parameter name="DPF">1</parameter><parameter name="NPT">1814</parameter><parameter name="FXV">3996.33169228125</parameter><parameter name="LXV">499.541461535156</parameter><parameter name="CSF">1</parameter><parameter name="MXY">0.261249542236328</parameter><parameter name="MNY">0.0330903828144073</parameter><parameter name="DAT">30/05/2022</parameter><parameter name="TIM">12:23:49.331 (GMT+2)</parameter><parameter name="DXU">WN</parameter></Data_Parameters_ScSm><Data_Parameters_ScRf><parameter name="DPF">1</parameter><parameter name="NPT">1820</parameter><parameter name="FXV">4004.04661832813</parameter><parameter name="LXV">495.683998511719</parameter><parameter name="CSF">1</parameter><parameter name="MXY">0.264874815940857</parameter><parameter name="MNY">0.031483456492424</parameter><parameter name="DAT">30/05/2022</parameter><parameter name="TIM">12:23:22.551 (GMT+2)</parameter><parameter name="DXU">WN</parameter></Data_Parameters_ScRf><Optic_Parameters_Rf><parameter name="APR">0</parameter><parameter name="APT">Open</parameter><parameter name="BMS">KBr</parameter><parameter name="DTC">RT-DLaTGS_IR-Biotyper [Microplate reader]</parameter><parameter name="HPF">0</parameter><parameter name="LPF">10.0</parameter><parameter name="LPV">4000</parameter><parameter name="PGR">0</parameter><parameter name="RCH">Module port</parameter><parameter name="RDX">0</parameter><parameter name="SRC">MIR</parameter><parameter name="VEL">10.0</parameter><parameter name="SON">Off</parameter></Optic_Parameters_Rf><Acquisition_Parameters_Rf><parameter name="ADT">1</parameter><parameter name="AQM">DD</parameter><parameter name="CFE">0</parameter><parameter name="COR">0</parameter><parameter name="DEL">0</parameter><parameter name="DLY">0</parameter><parameter name="HFW">8000</parameter><parameter name="LFW">0</parameter><parameter name="NSR">32</parameter><parameter name="PLF">AB</parameter><parameter name="RES">6</parameter><parameter name="RGN">-1</parameter><parameter name="STR">0</parameter><parameter name="TCL">MakeCompatibleScalar (0, {WSV=1.000000, ARV=0});</parameter><parameter name="TDL">37</parameter><parameter name="RPO">0</parameter></Acquisition_Parameters_Rf><FT_-_Parameters_Rf><parameter name="APF">B3</parameter><parameter name="HFQ">500</parameter><parameter name="LFQ">4000</parameter><parameter name="NLI">0</parameter><parameter name="PHR">24</parameter><parameter name="PHZ">ML</parameter><parameter name="SPZ">NO</parameter><parameter name="ZFF">1</parameter></FT_-_Parameters_Rf><Optic_Parameters_><parameter name="APR">0</parameter><parameter name="APT">Open</parameter><parameter name="BMS">KBr</parameter><parameter name="CHN">Module port</parameter><parameter name="DTC">RT-DLaTGS_IR-Biotyper [Microplate reader]</parameter><parameter name="HPF">0</parameter><parameter name="LPF">10.0</parameter><parameter name="LPV">4000</parameter><parameter name="PGN">0</parameter><parameter name="RDX">0</parameter><parameter name="SRC">MIR</parameter><parameter name="VEL">10.0</parameter><parameter name="SON">Off</parameter></Optic_Parameters_><FT_-_Parameters_><parameter name="APF">B3</parameter><parameter name="HFQ">500</parameter><parameter name="LFQ">4000</parameter><parameter name="NLI">0</parameter><parameter name="PHR">24</parameter><parameter name="PHZ">ML</parameter><parameter name="SPZ">NO</parameter><parameter name="ZFF">1</parameter></FT_-_Parameters_><Acquisition_Parameters_><parameter name="ADT">1</parameter><parameter name="AQM">DD</parameter><parameter name="CFE">0</parameter><parameter name="COR">0</parameter><parameter name="DEL">0</parameter><parameter name="DLY">0</parameter><parameter name="HFW">8000</parameter><parameter name="LFW">0</parameter><parameter name="NSS">32</parameter><parameter name="PLF">AB</parameter><parameter name="RES">6</parameter><parameter name="SOT">0</parameter><parameter name="TCL">MakeCompatibleScalar (0, {WSV=1.000000, ARV=0});</parameter><parameter name="TDL">37</parameter><parameter name="SPO">0</parameter><parameter name="SGN">-1</parameter></Acquisition_Parameters_><Instrument_Parameters_Rf><parameter name="HFL">15800.168544</parameter><parameter name="LFL">0</parameter><parameter name="LWN">15800.168544</parameter><parameter name="ABP">32197</parameter><parameter name="SSP">1</parameter><parameter name="ARG">2</parameter><parameter name="ASG">2</parameter><parameter name="ASS">32</parameter><parameter name="GFW">16</parameter><parameter name="GBW">16</parameter><parameter name="BFW">0</parameter><parameter name="BBW">0</parameter><parameter name="PKA">7280</parameter><parameter name="PKL">4996</parameter><parameter name="PRA">7457</parameter><parameter name="PRL">5001</parameter><parameter name="P2A">1</parameter><parameter name="P2L">1</parameter><parameter name="P2R">1</parameter><parameter name="P2K">1</parameter><parameter name="DAQ">0</parameter><parameter name="AG2">1</parameter><parameter name="SSM">1</parameter><parameter name="RSN">25330</parameter><parameter name="CRR">0</parameter><parameter name="SRT">1653913402.551</parameter><parameter name="DUR">19.6369934082031</parameter><parameter name="TSC">28.2</parameter><parameter name="MVD">0.345712095499039</parameter><parameter name="AN1">0.225810231779592</parameter><parameter name="AN2">0</parameter><parameter name="VSN">2.485 Apr  4 2017</parameter><parameter name="SRN">0085</parameter><parameter name="CAM">0</parameter><parameter name="INS">IR-Biotyper</parameter><parameter name="FOC">69</parameter><parameter name="RDY">1</parameter><parameter name="ARS">32</parameter></Instrument_Parameters_Rf><Sample_Parameters_><parameter name="BLD"></parameter><parameter name="CNM">Admin</parameter><parameter name="CPY"></parameter><parameter name="DPM"></parameter><parameter name="EXP">IRBT_v3_32Scans.XPM</parameter><parameter name="LCT"></parameter><parameter name="SFM">Microplate, HTS-XT</parameter><parameter name="SNM">220530-1021_SPB34F (D_2_2)_H11_88c61ca2-ab92-4dbc-ac53-b9864ddba65b.0</parameter><parameter name="XPP">C:\Users\Public\Documents\Bruker\OPUS_8.2.28\XPM</parameter><parameter name="IST">OK</parameter><parameter name="CPG">1252</parameter><parameter name="UID">6d64617a-545f-4144-a595-c10cf75441f9</parameter></Sample_Parameters_><Instrument_Parameters_><parameter name="HFL">15800.168544</parameter><parameter name="LFL">0</parameter><parameter name="LWN">15800.168544</parameter><parameter name="ABP">32197</parameter><parameter name="SSP">1</parameter><parameter name="ASG">2</parameter><parameter name="ARG">2</parameter><parameter name="ASS">32</parameter><parameter name="GFW">16</parameter><parameter name="GBW">16</parameter><parameter name="BFW">0</parameter><parameter name="BBW">0</parameter><parameter name="PKA">7356</parameter><parameter name="PKL">4988</parameter><parameter name="PRA">7642</parameter><parameter name="PRL">5002</parameter><parameter name="P2A">1</parameter><parameter name="P2L">1</parameter><parameter name="P2R">1</parameter><parameter name="P2K">1</parameter><parameter name="DAQ">0</parameter><parameter name="AG2">1</parameter><parameter name="SSM">1</parameter><parameter name="RSN">13291</parameter><parameter name="CRR">0</parameter><parameter name="SRT">1653913429.331</parameter><parameter name="DUR">19.6369934082031</parameter><parameter name="TSC">28.2</parameter><parameter name="MVD">0.240405082702637</parameter><parameter name="AN1">0.225808800920035</parameter><parameter name="AN2">0</parameter><parameter name="VSN">2.485 Apr  4 2017</parameter><parameter name="SRN">0085</parameter><parameter name="CAM">0</parameter><parameter name="INS">IR-Biotyper</parameter><parameter name="FOC">69</parameter><parameter name="RDY">1</parameter></Instrument_Parameters_><History/></OPUSDataFile>
