<?xml version="1.0" encoding="UTF-8" ?>
<OPUSDataFile><AB><Ydata ylabel="Absorbance Units"><values byteorder="INTEL" format="FLOAT32" numvalues="3497"> -0.08425639 -0.08427016 -0.08427902 -0.08428498 -0.08425669 -0.08419263 -0.08409267 -0.08395963 -0.08382887 -0.08370374
 -0.08362408 -0.08358548 -0.08359661 -0.08364496 -0.08370583 -0.08377026 -0.08381028 -0.08383004 -0.0838218 -0.08379673
 -0.08376133 -0.08372268 -0.08368658 -0.08365517 -0.08363026 -0.08361334 -0.08360538 -0.08360529 -0.08361341 -0.08362576
 -0.08364195 -0.08365977 -0.08367907 -0.08369876 -0.08371846 -0.08373278 -0.08374166 -0.08374112 -0.08373319 -0.08372308
 -0.08371246 -0.08370902 -0.08371037 -0.08371618 -0.08372355 -0.08372741 -0.08373136 -0.08373564 -0.08374657 -0.08376943
 -0.08380095 -0.08384375 -0.0838822 -0.08391318 -0.08392394 -0.08391023 -0.08387872 -0.08382855 -0.08378243 -0.08374161
 -0.08372401 -0.08372898 -0.08375242 -0.08379132 -0.08382508 -0.08385304 -0.08386072 -0.08385215 -0.08382928 -0.08379726
 -0.08376542 -0.08373701 -0.08372026 -0.08371355 -0.08372073 -0.08373118 -0.08374216 -0.0837383 -0.08371166 -0.08366016
 -0.08357827 -0.08348706 -0.08338742 -0.083309 -0.08325487 -0.08324432 -0.08327865 -0.08335886 -0.08348335 -0.08363191
 -0.08379947 -0.08394505 -0.08406448 -0.08411638 -0.08410968 -0.08404145 -0.0839308 -0.08380966 -0.08368684 -0.0835874
 -0.08350582 -0.08344633 -0.08340041 -0.08336315 -0.08333383 -0.08330984 -0.08329775 -0.08329955 -0.08331586 -0.083349
 -0.08338378 -0.08341968 -0.08343391 -0.08342507 -0.08338637 -0.08331964 -0.08324956 -0.08318033 -0.0831522 -0.0831638
 -0.08323631 -0.0833553 -0.08350006 -0.08364908 -0.08375242 -0.08381007 -0.08379477 -0.08373671 -0.08365242 -0.08356185
 -0.08348469 -0.08341449 -0.08335026 -0.08329688 -0.08325088 -0.08324237 -0.08327688 -0.08336972 -0.08352738 -0.08370116
 -0.08388921 -0.08396785 -0.08393593 -0.0837464 -0.08342198 -0.08309136 -0.08276328 -0.08254231 -0.08241272 -0.08238835
 -0.08245113 -0.08258075 -0.08275399 -0.08293926 -0.08311076 -0.08323492 -0.08330572 -0.08330392 -0.08325733 -0.08317009
 -0.08307431 -0.08298153 -0.08289734 -0.08282494 -0.08275931 -0.08269934 -0.08265349 -0.08262212 -0.08262043 -0.08264825
 -0.08270602 -0.0827902 -0.08287939 -0.08296816 -0.08302451 -0.08304588 -0.08300669 -0.08291509 -0.08276811 -0.0825889
 -0.08240116 -0.08222999 -0.08210649 -0.08203569 -0.08203362 -0.08208067 -0.08217625 -0.08228936 -0.08241315 -0.08252023
 -0.08260502 -0.0826506 -0.08265437 -0.08260915 -0.08251415 -0.08237936 -0.08220626 -0.08202074 -0.08182382 -0.08163489
 -0.08145356 -0.08128721 -0.0811383 -0.08101644 -0.08092446 -0.08087447 -0.08085962 -0.0808801 -0.08091831 -0.08096039
 -0.0809919 -0.08099836 -0.0809816 -0.08093651 -0.08087849 -0.08080931 -0.08074785 -0.08069764 -0.08067103 -0.08067062
 -0.08069221 -0.08073591 -0.08078178 -0.08082857 -0.08085295 -0.08085574 -0.08082885 -0.08077807 -0.08072124 -0.08066415
 -0.08063266 -0.08062402 -0.08064774 -0.0806925 -0.08074799 -0.08080617 -0.08085237 -0.08089746 -0.08093999 -0.08100366
 -0.08109988 -0.08123443 -0.08141702 -0.0816161 -0.08183137 -0.08201087 -0.08214927 -0.08220787 -0.08218379 -0.08205758
 -0.08183104 -0.08153038 -0.08116669 -0.08083084 -0.08052861 -0.08033691 -0.08024149 -0.08024997 -0.08033341 -0.08044684
 -0.08056218 -0.08061902 -0.08062649 -0.08056453 -0.08047222 -0.0803699 -0.08027495 -0.08020378 -0.08014284 -0.08009407
 -0.08003085 -0.07994767 -0.07983344 -0.07968364 -0.07952544 -0.07935988 -0.07923216 -0.07914343 -0.07911595 -0.07914513
 -0.07921273 -0.07930775 -0.07937635 -0.07941125 -0.07935755 -0.07923507 -0.07904933 -0.07883305 -0.0786354 -0.07845965
 -0.07833058 -0.07822622 -0.0781415 -0.07805413 -0.07795105 -0.0778309 -0.07768656 -0.07754325 -0.07740337 -0.07729432
 -0.07722134 -0.07718086 -0.0771739 -0.07715181 -0.07711191 -0.07699843 -0.07681776 -0.07658624 -0.07631885 -0.07608949
 -0.07589857 -0.07578719 -0.07574303 -0.0757652 -0.07583532 -0.07593624 -0.07603567 -0.07610242 -0.07610686 -0.07601281
 -0.07584177 -0.07558735 -0.07530113 -0.07500218 -0.07469332 -0.0743805 -0.07404053 -0.07366877 -0.07327951 -0.07287285
 -0.07248487 -0.07211698 -0.07179324 -0.07151362 -0.07129042 -0.07112135 -0.07100658 -0.07093765 -0.07089318 -0.0708638
 -0.07082125 -0.07076409 -0.07068174 -0.07056756 -0.07041699 -0.07020999 -0.06992625 -0.06957889 -0.06915785 -0.06872328
 -0.06829256 -0.06789494 -0.06754284 -0.06721934 -0.06692436 -0.06663675 -0.06635466 -0.06607796 -0.06580751 -0.06556413
 -0.06534833 -0.06517789 -0.06504469 -0.06492963 -0.06481323 -0.06462816 -0.0643727 -0.06399679 -0.06354843 -0.0630689
 -0.06259882 -0.06219897 -0.06185764 -0.06159072 -0.06135946 -0.06115256 -0.06093604 -0.06069493 -0.06042588 -0.06012348
 -0.05980777 -0.05948148 -0.05914927 -0.05881229 -0.05844743 -0.05805387 -0.0576143 -0.05713288 -0.05663294 -0.05612123
 -0.05564093 -0.05519116 -0.05479341 -0.05443934 -0.05412438 -0.05383837 -0.05356622 -0.05330124 -0.0530305 -0.05275689
 -0.05247814 -0.05219973 -0.05192781 -0.05164777 -0.05136099 -0.05103245 -0.05065319 -0.05021522 -0.04971122 -0.04919817
 -0.0486789 -0.04821935 -0.04782061 -0.0474892 -0.04721992 -0.04697511 -0.04675069 -0.04650753 -0.04624866 -0.04595956
 -0.04565176 -0.0453403 -0.0450344 -0.04475719 -0.04449908 -0.04426575 -0.04402651 -0.04376372 -0.04345585 -0.04308122
 -0.04266427 -0.04220304 -0.04174412 -0.04129766 -0.04088477 -0.04051111 -0.04016706 -0.0398528 -0.03954471 -0.03924166
 -0.03892315 -0.03858934 -0.03823188 -0.03785206 -0.0374502 -0.03702866 -0.03659202 -0.03614704 -0.03570703 -0.03528164
 -0.03489145 -0.03453536 -0.03422422 -0.03393943 -0.03367355 -0.03340806 -0.03313021 -0.03284154 -0.03253744 -0.03223513
 -0.03193779 -0.03165468 -0.03138908 -0.03112701 -0.03086801 -0.03058984 -0.03029203 -0.02997164 -0.02963151 -0.02929439
 -0.02896214 -0.02865739 -0.02837487 -0.02811247 -0.02786145 -0.02760258 -0.02733342 -0.02704004 -0.02673082 -0.02640747
 -0.02608156 -0.0257626 -0.02545244 -0.02515681 -0.02486404 -0.0245725 -0.02426927 -0.02395045 -0.02361515 -0.02326191
 -0.02290045 -0.02253119 -0.02216645 -0.0218069 -0.02146424 -0.02113869 -0.02083805 -0.02056082 -0.02030516 -0.02006803
 -0.01983992 -0.01961843 -0.01939375 -0.01916655 -0.0189325 -0.01869629 -0.01846031 -0.01822994 -0.01801108 -0.01780077
 -0.01760134 -0.01740021 -0.01719314 -0.01697548 -0.01674322 -0.01651078 -0.0162796 -0.01606087 -0.01585645 -0.01564893
 -0.01543711 -0.01519134 -0.01491315 -0.01460123 -0.01426294 -0.01393212 -0.01361347 -0.01334155 -0.01310906 -0.01292036
 -0.01276084 -0.01261073 -0.01246386 -0.01230377 -0.01214012 -0.01197403 -0.01181586 -0.01167368 -0.01154097 -0.01141924
 -0.01129267 -0.01115745 -0.01100814 -0.01084256 -0.01066858 -0.01048645 -0.01030682 -0.01013008 -0.009961807 -0.009800847
 -0.009640618 -0.009477669 -0.009291476 -0.009081268 -0.008830227 -0.008548591 -0.008245775 -0.007939293 -0.007659074 -0.007412248
 -0.00722069 -0.007071986 -0.006966481 -0.006885052 -0.006818143 -0.006757026 -0.006696659 -0.006635598 -0.006573812 -0.006504351
 -0.006426622 -0.006332177 -0.006219888 -0.006094408 -0.005956128 -0.005817419 -0.005677619 -0.005535758 -0.005389977 -0.005228527
 -0.005055011 -0.004872152 -0.004688863 -0.004526703 -0.004386238 -0.004282298 -0.00419825 -0.004125169 -0.004043009 -0.003931961
 -0.003792926 -0.0036157 -0.003428279 -0.003235494 -0.003067851 -0.002935259 -0.002839314 -0.002784059 -0.002741634 -0.002710146
 -0.002668237 -0.00261551 -0.002563611 -0.002514196 -0.002489383 -0.002486358 -0.002503971 -0.002536185 -0.002562617 -0.002582644
 -0.002583935 -0.00257153 -0.002547799 -0.002516219 -0.002481772 -0.002444305 -0.002405593 -0.002363508 -0.002318666 -0.002264532
 -0.00219999 -0.002116068 -0.002008942 -0.001883425 -0.001737168 -0.001598543 -0.001469071 -0.001382714 -0.001340686 -0.001349299
 -0.001405435 -0.001481145 -0.00157381 -0.001654213 -0.001726059 -0.001786484 -0.001837992 -0.001887797 -0.001928035 -0.001949667
 -0.001948134 -0.001909248 -0.001851507 -0.00178055 -0.001721185 -0.001692237 -0.00168581 -0.001708944 -0.001723734 -0.001721841
 -0.001684334 -0.001603688 -0.001506273 -0.001392588 -0.001305554 -0.001247076 -0.001240196 -0.001283442 -0.001372662 -0.001503067
 -0.001650742 -0.001808325 -0.00194041 -0.002042647 -0.002084908 -0.002076806 -0.002014185 -0.001922459 -0.001824415 -0.001743194
 -0.001705912 -0.001710664 -0.001768362 -0.001852443 -0.001957939 -0.002058094 -0.002145679 -0.002208208 -0.002243105 -0.002243493
 -0.002208776 -0.002130328 -0.002007883 -0.001843083 -0.001638358 -0.001417237 -0.001185111 -0.0009812672 -0.0008100775 -0.0007081134
 -0.0006715354 -0.0007153433 -0.0008197936 -0.0009674884 -0.001127103 -0.001259129 -0.001346403 -0.001356181 -0.00131253 -0.001210331
 -0.001105838 -0.001014994 -0.000983946 -0.001029569 -0.001154128 -0.001364161 -0.001619943 -0.001919795 -0.002212751 -0.002496285
 -0.002737201 -0.002935783 -0.003082882 -0.003180381 -0.003232323 -0.003241179 -0.003215153 -0.00315961 -0.003087318 -0.003009115
 -0.002943933 -0.002906888 -0.002920178 -0.002994236 -0.003147269 -0.003369601 -0.003667994 -0.004005162 -0.004374147 -0.00472898
 -0.005057015 -0.005336409 -0.005559493 -0.005741061 -0.005880684 -0.006010395 -0.006131799 -0.006269624 -0.006423321 -0.006597017
 -0.006786604 -0.006973017 -0.007152233 -0.007297962 -0.007416152 -0.007502882 -0.007575588 -0.007659396 -0.007765853 -0.007922053
 -0.008115228 -0.008349988 -0.008594788 -0.008836545 -0.009047999 -0.009214757 -0.009332688 -0.00939418 -0.009425063 -0.009424892
 -0.009441458 -0.009478673 -0.009574911 -0.009731919 -0.009946467 -0.01021512 -0.0104985 -0.01079363 -0.01106284 -0.01130899
 -0.01152117 -0.01170474 -0.01186652 -0.01200936 -0.01214044 -0.01226124 -0.01237525 -0.01248534 -0.01259407 -0.01270513
 -0.01282101 -0.01294377 -0.01307513 -0.01321373 -0.01336019 -0.01350933 -0.01366037 -0.01381009 -0.01395769 -0.01410871
 -0.01426348 -0.01443372 -0.01461936 -0.0148244 -0.01504632 -0.01527385 -0.01550385 -0.01571904 -0.01592012 -0.01609911
 -0.01626062 -0.01640787 -0.01654602 -0.01668162 -0.01681861 -0.01696213 -0.01711339 -0.01727529 -0.01744393 -0.01761912
 -0.01779498 -0.01796949 -0.01814254 -0.01831338 -0.01848679 -0.01866338 -0.0188424 -0.0190238 -0.01920054 -0.01937257
 -0.01953706 -0.01969489 -0.01984978 -0.02000212 -0.02015505 -0.02030881 -0.02046497 -0.0206247 -0.02079139 -0.02096323
 -0.02114136 -0.02131834 -0.02148991 -0.0216475 -0.02178533 -0.02189941 -0.02198637 -0.02204786 -0.02208164 -0.02210122
 -0.02210591 -0.02212578 -0.0221629 -0.02224948 -0.02238726 -0.02258334 -0.0228351 -0.02311375 -0.02341366 -0.02368736
 -0.0239334 -0.02411745 -0.02425083 -0.02433822 -0.02440121 -0.0244775 -0.02457757 -0.02473463 -0.02492858 -0.02515936
 -0.02539274 -0.02560752 -0.02579442 -0.0259408 -0.02606757 -0.02617826 -0.02628556 -0.02639487 -0.02648823 -0.02656496
 -0.02660224 -0.02659886 -0.02656056 -0.02649012 -0.02642356 -0.0263647 -0.02635528 -0.02639411 -0.02650246 -0.02666973
 -0.02688454 -0.02713103 -0.02737709 -0.0276173 -0.02782902 -0.02802566 -0.02821008 -0.02839502 -0.02859335 -0.02879158
 -0.02899074 -0.02916438 -0.02930276 -0.02940858 -0.02947727 -0.02954462 -0.02961395 -0.02970704 -0.02982523 -0.02994632
 -0.03006814 -0.03015468 -0.03020815 -0.03022161 -0.03020246 -0.0301734 -0.03013908 -0.03012296 -0.03012271 -0.03014561
 -0.03018623 -0.03023987 -0.03030632 -0.0303811 -0.03047445 -0.0305897 -0.03073837 -0.03092875 -0.03115253 -0.03141373
 -0.03167816 -0.03194201 -0.03217178 -0.03236238 -0.03251338 -0.03262445 -0.03272862 -0.03282779 -0.03295661 -0.03311302
 -0.03330418 -0.03352293 -0.03374804 -0.03397317 -0.03417131 -0.0343435 -0.03447764 -0.03458181 -0.03465977 -0.03472086
 -0.03477328 -0.03482415 -0.03487973 -0.03494253 -0.03501618 -0.03509513 -0.03517946 -0.03525963 -0.03533282 -0.03540232
 -0.03546687 -0.03554945 -0.03565133 -0.03579016 -0.03596448 -0.03615785 -0.03636578 -0.03655016 -0.0367128 -0.0368372
 -0.03693406 -0.03702186 -0.03710671 -0.03721064 -0.03732536 -0.03745045 -0.0375757 -0.03768983 -0.03779647 -0.03789357
 -0.03798936 -0.03808971 -0.03818548 -0.03827806 -0.03834439 -0.03837978 -0.03837647 -0.03833119 -0.03826842 -0.03818927
 -0.03813525 -0.03810775 -0.03813566 -0.03821611 -0.03834784 -0.03852348 -0.0387167 -0.03891949 -0.0390994 -0.03925238
 -0.03935616 -0.03941307 -0.03941507 -0.0393723 -0.03928752 -0.03917798 -0.03905244 -0.03892769 -0.0388126 -0.03871397
 -0.03863619 -0.03857587 -0.03853374 -0.03850195 -0.03848056 -0.03845451 -0.03842307 -0.03835833 -0.038259 -0.03809878
 -0.03788059 -0.03760706 -0.03728703 -0.0369547 -0.03661701 -0.03631017 -0.03603155 -0.03579435 -0.03559002 -0.035413
 -0.03525808 -0.03511864 -0.03499383 -0.0348827 -0.03478055 -0.03468714 -0.03459136 -0.03449 -0.03437704 -0.03424897
 -0.03411808 -0.03398423 -0.03387183 -0.03378239 -0.03372933 -0.03371191 -0.0337199 -0.03375131 -0.03378743 -0.03382906
 -0.03386967 -0.03391032 -0.0339526 -0.03399144 -0.03401957 -0.03403075 -0.03401108 -0.03396818 -0.03389953 -0.03382654
 -0.03376159 -0.03371572 -0.03370098 -0.03369977 -0.03371255 -0.03370892 -0.03368294 -0.03362039 -0.03351781 -0.03338471
 -0.03322126 -0.03304977 -0.03287194 -0.03271698 -0.03258719 -0.03251344 -0.03249467 -0.03254645 -0.0326597 -0.03282129
 -0.03301885 -0.03322321 -0.0334316 -0.03362513 -0.03381731 -0.03400975 -0.03422543 -0.03447697 -0.0347831 -0.03515615
 -0.03559693 -0.0361123 -0.03667657 -0.03729003 -0.0379059 -0.0385202 -0.03908829 -0.03960697 -0.0400582 -0.04044271
 -0.04077253 -0.04105015 -0.04129831 -0.04151767 -0.04172255 -0.04191252 -0.04209278 -0.04226488 -0.04243345 -0.04260094
 -0.04277313 -0.04294843 -0.04312884 -0.04330793 -0.04348323 -0.04364748 -0.04379767 -0.0439276 -0.04403515 -0.04411628
 -0.04416944 -0.0441964 -0.04419682 -0.04417706 -0.04413753 -0.04408034 -0.04400568 -0.04391474 -0.0438103 -0.04371042
 -0.04362154 -0.04358034 -0.04358817 -0.04367166 -0.04381779 -0.04401935 -0.04425438 -0.0444931 -0.04472007 -0.04490998
 -0.04506292 -0.0451693 -0.04524296 -0.04528556 -0.04531547 -0.04533793 -0.045365 -0.04540019 -0.04544576 -0.04550231
 -0.04557004 -0.04564882 -0.04574725 -0.04586621 -0.04602242 -0.04621667 -0.04646414 -0.04676215 -0.04711113 -0.04750143
 -0.04791038 -0.04832469 -0.04870841 -0.04905838 -0.04935138 -0.04960377 -0.04981857 -0.05002075 -0.05022741 -0.05044927
 -0.05069824 -0.0509624 -0.05124297 -0.05151734 -0.05178181 -0.05201953 -0.05222757 -0.05240302 -0.05254528 -0.05266329
 -0.05275771 -0.05284089 -0.05291336 -0.05298458 -0.05305466 -0.05312941 -0.05320799 -0.05329214 -0.0533788 -0.05346334
 -0.0535432 -0.05361165 -0.05367238 -0.05372458 -0.05377736 -0.05383678 -0.05390598 -0.05399043 -0.05407899 -0.05417141
 -0.05424914 -0.05430809 -0.05434037 -0.05434311 -0.05432971 -0.05430057 -0.05428002 -0.05426881 -0.05428007 -0.05431173
 -0.05435471 -0.05440671 -0.05445183 -0.0544928 -0.05452778 -0.0545626 -0.05460839 -0.05466566 -0.05474194 -0.05482896
 -0.05492312 -0.05501403 -0.05509389 -0.05515813 -0.05520158 -0.05522901 -0.05523925 -0.05524477 -0.05524701 -0.05525984
 -0.05528551 -0.05532765 -0.05538696 -0.05545311 -0.05552543 -0.05559092 -0.0556499 -0.05569864 -0.05573826 -0.05577163
 -0.05579881 -0.05582117 -0.05583866 -0.05585102 -0.05586029 -0.05586879 -0.05587879 -0.05589438 -0.05591258 -0.05593446
 -0.05595082 -0.05595798 -0.05594974 -0.0559211 -0.05588183 -0.05583078 -0.05579165 -0.05576721 -0.055773 -0.05581091
 -0.05586897 -0.05594594 -0.05601397 -0.0560731 -0.05610979 -0.05612823 -0.05613944 -0.05614673 -0.05616675 -0.05619612
 -0.05623794 -0.05628376 -0.05632357 -0.05635178 -0.05635761 -0.05634595 -0.05631359 -0.05627703 -0.05624113 -0.05622358
 -0.05623199 -0.05626915 -0.05633928 -0.0564252 -0.05652643 -0.05661804 -0.05669814 -0.05675299 -0.05678257 -0.05679167
 -0.05678204 -0.0567697 -0.0567556 -0.05675307 -0.05676039 -0.05678018 -0.05680916 -0.0568423 -0.05687732 -0.05690847
 -0.05693649 -0.05695964 -0.05698053 -0.05700054 -0.05702072 -0.05704269 -0.05706324 -0.05708215 -0.05709476 -0.05709946
 -0.05709745 -0.05708793 -0.05708064 -0.05707616 -0.05708444 -0.0571056 -0.0571389 -0.05718267 -0.05722313 -0.05725888
 -0.05727496 -0.05727415 -0.05725508 -0.0572247 -0.057196 -0.05717325 -0.05716966 -0.05718042 -0.05720692 -0.0572402
 -0.05727359 -0.05730595 -0.05733367 -0.05736379 -0.05739829 -0.05743967 -0.05749012 -0.05754114 -0.05759215 -0.05763436
 -0.05766683 -0.0576911 -0.05770747 -0.05772444 -0.05774208 -0.05776505 -0.0577921 -0.05782041 -0.05784812 -0.05786831
 -0.05788021 -0.05787822 -0.05786454 -0.05783844 -0.0578062 -0.0577728 -0.05774491 -0.05772952 -0.0577259 -0.05773754
 -0.05775369 -0.05777235 -0.05778284 -0.0577815 -0.05776996 -0.05774706 -0.0577249 -0.05770429 -0.05769485 -0.05769677
 -0.05770951 -0.05773233 -0.05775856 -0.05778789 -0.05781524 -0.05784112 -0.0578645 -0.05788585 -0.05790597 -0.05792423
 -0.05794043 -0.05795304 -0.05796024 -0.05796202 -0.05795693 -0.05794855 -0.05793752 -0.05792918 -0.05792544 -0.05792901
 -0.05794146 -0.0579594 -0.05798301 -0.05800505 -0.05802497 -0.05803748 -0.05804244 -0.05804026 -0.05803138 -0.05801995
 -0.05800617 -0.05799328 -0.05798094 -0.05796973 -0.05795953 -0.05795023 -0.05794221 -0.05793589 -0.05793167 -0.05793007
 -0.05793133 -0.05793595 -0.05794336 -0.0579537 -0.05796541 -0.05797831 -0.05798984 -0.05799947 -0.05800537 -0.05800718
 -0.05800445 -0.05799706 -0.05798589 -0.05797098 -0.05795375 -0.0579342 -0.05791318 -0.05789068 -0.05786686 -0.05784221
 -0.05781792 -0.05779519 -0.05777708 -0.05776406 -0.05775862 -0.05775915 -0.05776533 -0.05777457 -0.05778496 -0.05779514
 -0.05780402 -0.05781108 -0.0578161 -0.05781803 -0.05781673 -0.05781076 -0.05779988 -0.05778367 -0.05776203 -0.05773571
 -0.05770478 -0.05767144 -0.05763602 -0.05760249 -0.05757128 -0.05754698 -0.05752907 -0.05751889 -0.05751472 -0.05751395
 -0.05751458 -0.05751238 -0.05750705 -0.05749631 -0.05748194 -0.05746426 -0.0574454 -0.05742669 -0.05740831 -0.05739083
 -0.05737275 -0.05735369 -0.05733342 -0.0573117 -0.05729016 -0.05726898 -0.0572487 -0.05722928 -0.05720869 -0.05718712
 -0.05716503 -0.05714354 -0.05712846 -0.05712037 -0.05712499 -0.05714002 -0.05716433 -0.05719344 -0.05722053 -0.05724224
 -0.05725241 -0.05725059 -0.05723402 -0.0572054 -0.05716461 -0.05711671 -0.05706254 -0.05700904 -0.05695722 -0.05691533
 -0.05688456 -0.05687103 -0.05687565 -0.05689519 -0.05692922 -0.0569626 -0.05699458 -0.05701085 -0.0570134 -0.0570041
 -0.05698647 -0.05697358 -0.05696468 -0.05696574 -0.05697164 -0.0569769 -0.05697907 -0.05697258 -0.05695987 -0.05694099
 -0.05691814 -0.05689253 -0.05686487 -0.05683516 -0.05680602 -0.05677802 -0.05675289 -0.05673147 -0.05670974 -0.05668753
 -0.05665937 -0.05662511 -0.05658692 -0.05654556 -0.05650937 -0.05647846 -0.05645822 -0.05644718 -0.05644367 -0.05644591
 -0.05644916 -0.05645286 -0.0564543 -0.05645305 -0.05644836 -0.05643783 -0.05641989 -0.0563918 -0.0563507 -0.05629967
 -0.0562375 -0.05617472 -0.05611288 -0.05606292 -0.05602704 -0.05600788 -0.0560063 -0.05601435 -0.05603151 -0.05604354
 -0.05604986 -0.05603902 -0.0560122 -0.05596865 -0.05591132 -0.05584918 -0.05578442 -0.05572632 -0.05567499 -0.0556346
 -0.0556045 -0.05558567 -0.05557681 -0.05557798 -0.05558574 -0.05559902 -0.05561316 -0.05562642 -0.0556359 -0.05564059
 -0.05563943 -0.05563204 -0.05561883 -0.05559969 -0.05557788 -0.05555361 -0.05553149 -0.05551145 -0.05549444 -0.05547968
 -0.05546354 -0.05544562 -0.05542233 -0.05539449 -0.05536193 -0.05532591 -0.05528841 -0.05524985 -0.05521167 -0.05517314
 -0.05513407 -0.05509414 -0.0550526 -0.05501143 -0.05497097 -0.05493354 -0.05489998 -0.05487007 -0.05484404 -0.05482006
 -0.05479793 -0.0547775 -0.05475876 -0.05474249 -0.05472864 -0.05471684 -0.05470733 -0.05470096 -0.05469871 -0.05470398
 -0.0547181 -0.05474542 -0.05478707 -0.05484608 -0.05492456 -0.05502527 -0.0551512 -0.05530552 -0.05548929 -0.0557048
 -0.0559484 -0.05622052 -0.05651252 -0.05682287 -0.05714362 -0.05747317 -0.05780918 -0.05815151 -0.0584968 -0.05884462
 -0.05917026 -0.05947026 -0.05969748 -0.05985002 -0.05989224 -0.05982706 -0.05964532 -0.05935079 -0.05893883 -0.05843398
 -0.05786036 -0.05727015 -0.05672977 -0.05626804 -0.05593341 -0.05571326 -0.05561669 -0.05561553 -0.05570557 -0.05585034
 -0.05604557 -0.05623895 -0.05642352 -0.05655213 -0.05661794 -0.05662573 -0.05657575 -0.05650585 -0.05641698 -0.05633164
 -0.056248 -0.05616801 -0.05608914 -0.05600357 -0.05591108 -0.05580593 -0.0556927 -0.05557663 -0.0554599 -0.05534972
 -0.0552376 -0.05512041 -0.05498802 -0.05483129 -0.05465668 -0.05446162 -0.05426581 -0.05407348 -0.05389774 -0.05374224
 -0.05360524 -0.05348746 -0.05337768 -0.05327533 -0.05316897 -0.0530588 -0.05294306 -0.05282356 -0.05270963 -0.05260246
 -0.05251174 -0.05243592 -0.05237682 -0.05233112 -0.05229457 -0.05226421 -0.05223548 -0.05220567 -0.05217138 -0.05213091
 -0.05208185 -0.05202616 -0.05196331 -0.05189828 -0.05183217 -0.05176817 -0.05170729 -0.05164805 -0.05159051 -0.05153162
 -0.05147123 -0.05140959 -0.05134705 -0.051288 -0.05123269 -0.05118519 -0.05114461 -0.0511104 -0.05108095 -0.05105238
 -0.05102367 -0.05099142 -0.05095549 -0.05091425 -0.05086867 -0.0508182 -0.05076641 -0.05071463 -0.05066695 -0.05062586
 -0.05059033 -0.05056135 -0.05053287 -0.05050405 -0.05047083 -0.05043253 -0.05039019 -0.05034384 -0.05029609 -0.05024719
 -0.05020084 -0.05015749 -0.05012214 -0.05009424 -0.05007552 -0.05006297 -0.05005071 -0.05003558 -0.05000911 -0.04997184
 -0.04992009 -0.04985854 -0.04978878 -0.0497173 -0.04964767 -0.04958495 -0.04953226 -0.04948982 -0.04945908 -0.04943474
 -0.04941647 -0.0493979 -0.04937829 -0.04935498 -0.04932778 -0.04929745 -0.04926415 -0.04923008 -0.04919546 -0.04916301
 -0.04913225 -0.04910351 -0.04907495 -0.04904228 -0.0490043 -0.04895598 -0.04890024 -0.04883707 -0.04877334 -0.04871442
 -0.04866483 -0.04862974 -0.048606 -0.04859479 -0.04858745 -0.04858204 -0.0485726 -0.04855725 -0.04853773 -0.0485137
 -0.04849223 -0.04847372 -0.04846402 -0.04846286 -0.04846882 -0.04848025 -0.04848666 -0.04848625 -0.04846594 -0.0484273
 -0.04836575 -0.04828808 -0.0482025 -0.04811689 -0.04804424 -0.04798661 -0.04795182 -0.04793274 -0.04792915 -0.04792897
 -0.04792746 -0.04791759 -0.04789523 -0.04786553 -0.04782774 -0.04779455 -0.04776738 -0.04775186 -0.04774842 -0.04774936
 -0.04775403 -0.0477515 -0.04774227 -0.04772376 -0.04769737 -0.04766713 -0.04763324 -0.04759831 -0.04756171 -0.04752325
 -0.04748326 -0.04744167 -0.04739998 -0.04735901 -0.04732093 -0.04728706 -0.04725906 -0.04723839 -0.04722338 -0.04721477
 -0.04720582 -0.04719574 -0.04717802 -0.04715154 -0.04711761 -0.04707621 -0.04703512 -0.04699454 -0.04695891 -0.04692728
 -0.04689585 -0.04686381 -0.04682546 -0.04678224 -0.04673432 -0.04668456 -0.04663814 -0.04659617 -0.04656257 -0.0465356
 -0.04651525 -0.04649942 -0.04648673 -0.04647664 -0.0464687 -0.04646266 -0.0464588 -0.04645457 -0.04644996 -0.0464401
 -0.04642446 -0.04640002 -0.04636655 -0.04632623 -0.04627946 -0.04623214 -0.04618459 -0.04614165 -0.04610314 -0.04607083
 -0.04604455 -0.04602493 -0.04601147 -0.04600428 -0.04600112 -0.04600006 -0.04599724 -0.04598884 -0.04597264 -0.04594545
 -0.04591 -0.04586586 -0.04581891 -0.04577054 -0.04572492 -0.04568323 -0.04564574 -0.04561267 -0.04558304 -0.0455568
 -0.04553388 -0.04551418 -0.04549635 -0.0454799 -0.04546074 -0.04543869 -0.04541031 -0.04537696 -0.04533995 -0.04530137
 -0.04526561 -0.04523335 -0.04520768 -0.04518675 -0.04517049 -0.04515587 -0.04514126 -0.04512435 -0.04510368 -0.04507885
 -0.04504918 -0.04501629 -0.04498012 -0.04494378 -0.04490754 -0.04487482 -0.04484589 -0.04482177 -0.04480231 -0.04478505
 -0.04476975 -0.04475365 -0.044737 -0.04471951 -0.04470117 -0.04468225 -0.04466157 -0.04463697 -0.04460812 -0.04457301
 -0.04453405 -0.04449239 -0.04445065 -0.04441113 -0.04437353 -0.04433835 -0.04430459 -0.04427179 -0.04424081 -0.04421185
 -0.04418466 -0.04415952 -0.04413214 -0.04410226 -0.04406605 -0.04402366 -0.04397756 -0.04392853 -0.04388351 -0.04384248
 -0.04380951 -0.04378309 -0.04376137 -0.04374313 -0.04372498 -0.04370762 -0.04369049 -0.04367473 -0.04366175 -0.04365023
 -0.04364017 -0.04362909 -0.04361571 -0.04359973 -0.04358085 -0.04355923 -0.04353523 -0.04350609 -0.04347155 -0.04342923
 -0.04337884 -0.04332511 -0.04326851 -0.04321823 -0.04317409 -0.04313988 -0.04311376 -0.04309042 -0.04306843 -0.04304059
 -0.04300844 -0.04297085 -0.04293123 -0.04289379 -0.04285963 -0.04283208 -0.04280803 -0.04278699 -0.04276475 -0.04273926
 -0.04270905 -0.04267317 -0.04263202 -0.04258532 -0.042535 -0.04248098 -0.0424279 -0.04237603 -0.04232962 -0.04228862
 -0.0422516 -0.04221782 -0.04218112 -0.04214137 -0.04209439 -0.04204152 -0.04198391 -0.04192348 -0.04186416 -0.04180723
 -0.04175609 -0.04171061 -0.04167239 -0.04163919 -0.04161057 -0.04158313 -0.04155542 -0.04152527 -0.04149161 -0.04145427
 -0.0414129 -0.04136884 -0.0413221 -0.04127486 -0.04122728 -0.04118036 -0.04113402 -0.04108636 -0.04103729 -0.04098481
 -0.04092972 -0.04087412 -0.04081914 -0.04076935 -0.04072426 -0.04068575 -0.04065123 -0.04061842 -0.04058459 -0.04054616
 -0.04050288 -0.04045262 -0.04039948 -0.04034392 -0.04029227 -0.04024681 -0.0402095 -0.04018184 -0.04015901 -0.04014096
 -0.04011995 -0.04009544 -0.04006259 -0.04002142 -0.03997285 -0.03991756 -0.03986084 -0.03980334 -0.03975072 -0.03970297
 -0.03966332 -0.03963067 -0.03960506 -0.03958396 -0.03956464 -0.03954381 -0.03951738 -0.03948419 -0.03944138 -0.03939263
 -0.03933845 -0.03928326 -0.03922893 -0.03917534 -0.03912309 -0.03906911 -0.03901297 -0.0389541 -0.03889235 -0.03883005
 -0.03876729 -0.03870567 -0.03864514 -0.03858607 -0.03852842 -0.03847216 -0.03841757 -0.03836518 -0.03831557 -0.03827044
 -0.03822912 -0.03819266 -0.0381566 -0.03811799 -0.03807126 -0.03801084 -0.03793821 -0.03785102 -0.03775861 -0.03766336
 -0.03757116 -0.03748429 -0.03740022 -0.03731889 -0.03723773 -0.03715636 -0.03707993 -0.03700879 -0.036951 -0.03690614
 -0.03687545 -0.0368566 -0.03684071 -0.03682496 -0.03679608 -0.03675485 -0.03669464 -0.03662247 -0.03654439 -0.0364674
 -0.03640162 -0.03634554 -0.03630251 -0.03626496 -0.03623087 -0.03619292 -0.03614834 -0.03609423 -0.036029 -0.03595559
 -0.03587367 -0.03579129 -0.0357089 -0.03563536 -0.03557088 -0.03551839 -0.03547673 -0.03543853 -0.0354018 -0.03535307
 -0.03529301 -0.03521488 -0.03512437 -0.0350294 -0.03493389 -0.03484752 -0.03476836 -0.03469782 -0.03463406 -0.03457577
 -0.03452379 -0.03447945 -0.03443823 -0.03440085 -0.03435461 -0.03429693 -0.0342205 -0.03412289 -0.03401354 -0.03389274
 -0.0337751 -0.03366106 -0.03355616 -0.03345996 -0.03337127 -0.03328984 -0.03321409 -0.03314404 -0.03307907 -0.03301898
 -0.03296374 -0.03291142 -0.03286027 -0.03280627 -0.0327446 -0.0326741 -0.03259109 -0.03250112 -0.03240582 -0.03230935
 -0.03221472 -0.03211666 -0.03201473 -0.03190341 -0.03178079 -0.03165562 -0.03152812 -0.03141383 -0.03131303 -0.03122623
 -0.03115121 -0.03106902 -0.03097843 -0.03086133 -0.03072332 -0.03057019 -0.03040984 -0.03026257 -0.03012724 -0.03001276
 -0.02990999 -0.02981331 -0.02971589 -0.02960986 -0.02949812 -0.02937912 -0.02926019 -0.02914446 -0.02903107 -0.02892234
 -0.0288036 -0.02867404 -0.02851407 -0.02832147 -0.02810073 -0.02785308 -0.0276165 -0.027392 -0.02720666 -0.02705495
 -0.02692682 -0.02681447 -0.0266894 -0.02654908 -0.02637259 -0.02616736 -0.0259327 -0.02568245 -0.0254296 -0.02518353
 -0.0249568 -0.02474422 -0.02455001 -0.02435364 -0.02415011 -0.02392259 -0.02366411 -0.02338325 -0.02307942 -0.02276951
 -0.02245505 -0.02213944 -0.02182299 -0.02151079 -0.02120409 -0.02091821 -0.02065071 -0.02040183 -0.02016131 -0.01989797
 -0.01960646 -0.01925377 -0.01885928 -0.01843323 -0.01800145 -0.01759874 -0.01722109 -0.01687937 -0.01655394 -0.01623699
 -0.01592031 -0.01559865 -0.01527484 -0.01495084 -0.01461609 -0.0142727 -0.01387932 -0.01343274 -0.01290401 -0.01229376
 -0.01165463 -0.01099107 -0.01036942 -0.009782326 -0.009229064 -0.008701046 -0.008170608 -0.007637983 -0.007091173 -0.006531403
 -0.005959972 -0.005364639 -0.004739491 -0.004057411 -0.003296833 -0.00244603 -0.001481632 -0.0004525201 0.0006389943 0.001713648
 0.002751321 0.003721896 0.004615912 0.005448635 0.006219765 0.006958165 0.007665906 0.008389937 0.009134738 0.009967654
 0.01088078 0.01188322 0.01294075 0.0139447 0.01489183 0.01571128 0.01644506 0.01712588 0.01778129 0.01845625
 0.01914585 0.01986123 0.02058907 0.02132363 0.02206424 0.02281203 0.02355535 0.02429405 0.02500537 0.02568434
 0.02633515 0.02695751 0.02756391 0.02815412 0.02870295 0.02920777 0.02963067 0.02997569 0.03024133 0.03043628
 0.03058697 0.03069759 0.03079058 0.03086336 0.03091982 0.03096189 0.03099046 0.03101467 0.03104301 0.03107449
 0.03111432 0.03114544 0.03116346 0.03115591 0.03111704 0.03105471 0.03096758 0.03087877 0.03078998 0.0307194
 0.0306674 0.03062237 0.03058273 0.03052723 0.0304578 0.03037254 0.03027552 0.03017757 0.03008306 0.03000658
 0.02994955 0.02992158 0.02991842 0.02993756 0.02998051 0.03004324 0.03014276 0.03028671 0.03048499 0.03074819
 0.03105219 0.03139442 0.03174989 0.03211186 0.03249281 0.03289263 0.03333507 0.03382095 0.03434935 0.03491853
 0.03550971 0.03612288 0.03674822 0.03738752 0.03804194 0.03871166 0.03939747 0.04009921 0.04081688 0.04155044
 0.04230058 0.04306478 0.04384251 0.04462831 0.04541976 0.04621195 0.04700194 0.04779089 0.04857782 0.04936936
 0.05016729 0.05096799 0.05177213 0.05255959 0.05332949 0.05407084 0.05478495 0.05548429 0.05616674 0.0568313
 0.05746769 0.05803942 0.05854588 0.05896552 0.05930855 0.05958456 0.05979197 0.05993415 0.06000393 0.0599957
 0.05990987 0.05975103 0.0594973 0.0591525 0.0586501 0.0579693 0.05710166 0.05602567 0.05490895 0.05376568
 0.05268812 0.05167934 0.05065959 0.04962602 0.04851995 0.04734923 0.0461265 0.04485714 0.04357271 0.04225596
 0.04089416 0.03944639 0.03783 0.03606255 0.03408632 0.03207017 0.03012612 0.02834646 0.02684191 0.02550352
 0.02431836 0.02319006 0.02208573 0.02100212 0.01993217 0.01890469 0.01792296 0.01698249 0.0160829 0.01519655
 0.01432358 0.01345515 0.01259517 0.01176069 0.01095364 0.01019065 0.009468151 0.008787073 0.008141656 0.007524479
 0.006928836 0.006346336 0.005768368 0.005187381 0.004593879 0.003977542 0.003347434 0.002693909 0.002076423 0.001506964
 0.001028821 0.0006584159 0.0003444062 8.479917E-05 -0.0001809133 -0.0004556021 -0.0007523996 -0.001068956 -0.001382281 -0.00169102
 -0.001974817 -0.002237567 -0.002483999 -0.002712692 -0.002926728 -0.003113428 -0.003253351 -0.003340503 -0.003355201 -0.00331467
 -0.003223552 -0.003102778 -0.002966233 -0.002818385 -0.002665922 -0.002498852 -0.002318725 -0.002101864 -0.00184785 -0.001514818
 -0.001098847 -0.0005691664 7.539204E-05 0.000784074 0.00155009 0.002274518 0.002959496 0.003566118 0.004102512 0.00457786
 0.004992425 0.005349665 0.005651286 0.005894577 0.00610062 0.006284489 0.006483193 0.006734274 0.007042679 0.00743479
 0.007850482 0.008272462 0.00866472 0.009007904 0.009330792 0.009633786 0.00995339 0.01029421 0.01066056 0.01105268
 0.01144499 0.01183663 0.01220811 0.01256314 0.01291084 0.01325902 0.01363918 0.01405602 0.01453962 0.01508058
 0.01567871 0.01632039 0.01698617 0.01768099 0.01840151 0.01915705 0.01995734 0.02078604 0.02164391 0.02249678
 0.02333426 0.0241475 0.02492947 0.02571373 0.02650226 0.02733107 0.028202 0.02908864 0.02998547 0.03081445
 0.03157392 0.0322144 0.03274016 0.03314259 0.03341994 0.03356578 0.03357252 0.03342371 0.03311845 0.03264559
 0.03201874 0.03124173 0.03033561 0.02931146 0.0281859 0.02696546 0.02566637 0.02428782 0.02287257 0.02142208
 0.02000823 0.01863838 0.01735587 0.01616331 0.0150433 0.01399364 0.01297968 0.01200366 0.01106014 0.0101555
 0.009311531 0.008527453 0.007815395 0.007164117 0.006561143 0.0059966 0.005452684 0.004930159 0.004423017 0.003937233
 0.003476177 0.003037766 0.002623972 0.002223374 0.001833504 0.001446533 0.001060206 0.0006753877 0.0002914328 -8.313818E-05
 -0.0004478909 -0.0007862354 -0.001097327 -0.001365 -0.001590706 -0.001774511 -0.001919149 -0.002035582 -0.00212264 -0.002183148
 -0.002214635 -0.002212391 -0.002180114 -0.002118319 -0.002036183 -0.001940663 -0.001839202 -0.001737438 -0.001639813 -0.001548279
 -0.001468795 -0.0014023 -0.001357329 -0.00133504 -0.00134376 -0.001384653 -0.00145992 -0.001569773 -0.001705486 -0.001866119
 -0.002037079 -0.002217507 -0.00239545 -0.002569732 -0.002730387 -0.002875365 -0.002994271 -0.003087305 -0.003148733 -0.003183583
 -0.003194786 -0.003188419 -0.003171074 -0.003143575 -0.003108884 -0.003063456 -0.003005881 -0.002936532 -0.002853558 -0.002767142
 -0.002677682 -0.002600477 -0.002537151 -0.002497314 -0.002481647 -0.002487375 -0.002513709 -0.002548885 -0.002592016 -0.002631299
 -0.002667509 -0.002696497 -0.002721051 -0.002745624 -0.002772879 -0.002810027 -0.002856252 -0.002914199 -0.002980032 -0.003051546
 -0.003125811 -0.00320048 -0.003274589 -0.003347636 -0.003417687 -0.003484363 -0.003545273 -0.003599732 -0.003648059 -0.003690028
 -0.003728803 -0.003764559 -0.003799662 -0.00383404 -0.003867183 -0.003898547 -0.003924449 -0.003944457 -0.00395463 -0.003955746
 -0.003947587 -0.003931387 -0.003910129 -0.003881808 -0.003846114 -0.003798485 -0.003734407 -0.003653267 -0.003552055 -0.0034367
 -0.003308106 -0.003173782 -0.003035624 -0.002899349 -0.002765976 -0.00264049 -0.002523619 -0.002417068 -0.002321017 -0.002231745
 -0.002149127 -0.002070177 -0.001995755 -0.001929936 -0.001873725 -0.00183412 -0.001809193 -0.001798592 -0.00179795 -0.001799092
 -0.001800585 -0.00179579 -0.001790027 -0.001784687 -0.001786891 -0.00180219 -0.001830548 -0.001874276 -0.001927344 -0.001988367
 -0.002054207 -0.002123641 -0.002198874 -0.00228003 -0.002368842 -0.002465456 -0.002568025 -0.002676301 -0.002786325 -0.002897639
 -0.003005256 -0.00310903 -0.003205306 -0.003295183 -0.003379361 -0.003459406 -0.003538786 -0.003617225 -0.003695828 -0.003773809
 -0.003850426 -0.003926596 -0.004002773 -0.004079205 -0.004156928 -0.004232215 -0.004304394 -0.004369987 -0.004427676 -0.004480059
 -0.004527005 -0.004574465 -0.004622848 -0.004673241 -0.004725191 -0.004771177 -0.004810389 -0.004833066 -0.004840246 -0.004830014
 -0.004805458 -0.004773594 -0.004736292 -0.004700784 -0.004665489 -0.004632114 -0.004596441 -0.004556733 -0.004505773 -0.004440227
 -0.004350614 -0.004231891 -0.004080758 -0.003893466 -0.003679613 -0.003439425 -0.003187207 -0.002924889 -0.002657428 -0.002385363
 -0.002103828 -0.001812613 -0.00150728 -0.001188631 -0.0008595636 -0.0005219267 -0.0001846674 0.0001513269 0.0004783428 0.000798696
 0.00111285 0.00142338 0.00173542 0.002045119 0.002352547 0.00264892 0.002928566 0.003187809 0.003422022 0.003638074
 0.003835583 0.004027527 0.004215748 0.004412048 0.004618354 0.004837037 0.005068564 0.00530272 0.005538904 0.005765052
 0.005982247 0.00619163 0.006396104 0.006607942 0.006828846 0.007069763 0.00733013 0.007614508 0.00792018 0.008246506
 0.008588374 0.008941473 0.00930139 0.009663537 0.01002865 0.0103956 0.01076743 0.01114542 0.01152824 0.01191667
 0.0123036 0.01268882 0.01306123 0.0134201 0.01375801 0.01407544 0.01438098 0.01467676 0.01498336 0.01529975
 0.01563438 0.01598141 0.01632903 0.01667434 0.01700536 0.017325 0.01763256 0.01792971 0.01821797 0.01849745
 0.01876758 0.0190322 0.01929271 0.01955193 0.01981137 0.02006995 0.02032716 0.02058606 0.02084674 0.02111448
 0.02138983 0.02166762 0.02194735 0.02221861 0.02248189 0.02273599 0.02298195 0.02322447 0.0234619 0.02369253
 0.02391346 0.02411825 0.02430584 0.02447179 0.02461742 0.02474199 0.02484822 0.02493798 0.02501152 0.0250703
 0.02511009 0.02512925 0.02512816 0.02510475 0.02507329 0.02503467 0.02500548 0.02498706 0.02498223 0.02499079
 0.02500749 0.02503227 0.02506276 0.02509865 0.02513744 0.02517832 0.02521711 0.02525485 0.02529175 0.02532843
 0.02536752 0.02540408 0.02543537 0.02545528 0.02545865 0.02544434 0.02541053 0.02535811 0.02528695 0.02519813
 0.02509124 0.02497115 0.0248381 0.02469863 0.02455326 0.02440474 0.02425314 0.02409898 0.0239419 0.02377984
 0.02361168 0.02343051 0.02323784 0.02303247 0.02282062 0.02261475 0.02241571 0.02223361 0.02205567 0.02187509
 0.02167771 0.02145075 0.02119363 0.02090242 0.02058208 0.02023421 0.01985779 0.0194526 0.01901909 0.01855633
 0.01807522 0.01757626 0.01707521 0.01657266 0.01607837 0.01559156 0.0151108 0.01463468 0.01415544 0.01367439
 0.01319007 0.01270693 0.01223357 0.0117709 0.01132513 0.01089131 0.01046622 0.01004867 0.00963475 0.009232577
 0.008844136 0.008477944 0.008137749 0.007824197 0.007539133 0.007274528 0.007030616 0.006790767 0.006553952 0.006303474
 0.006039149 0.005761784 0.005473711 0.005194025 0.004924407 0.004682961 0.004468185 0.004285426 0.004131931 0.004005275
 0.003902509 0.003818869 0.0037521 0.003698343 0.003656999 0.003627897 0.003606404 0.003593051 0.003573708 0.003544646
 0.003494408 0.00341819 0.003322903 0.003207722 0.003090767 0.002973277 0.002868051 0.002775512 0.002700601 0.002642962
 0.002602604 0.002578184 0.002563838 0.002558439 0.002555261 0.002555176 0.002556812 0.002561051 0.002568874 0.002579843
 0.002593424 0.002610741 0.002632416 0.002659102 0.002692281 0.002727739 0.002764146 0.00280009 0.002833633 0.002874247
 0.0029228 0.00298771 0.003070121 0.003162247 0.003263412 0.003357122 0.003443193 0.003512844 0.003567106 0.003606059
 0.003630404 0.003641987 0.003641404 0.003630002 0.0036099 0.003583299 0.003555417 0.003530997 0.003516595 0.003518967
 0.003537747 0.003576904 0.003624379 0.003678127 0.003725042 0.003760915 0.003785854 0.003798173 0.003811427 0.003826235
 0.003859554 0.003912157 0.003996915 0.004113229 0.004262949 0.004442648 0.004638503 0.004845949 0.005043807 0.005231477
 0.005396183 0.005543387 0.005674781 0.00579684 0.005917188 0.00603725 0.006160713 0.006285511 0.006410574 0.006538279
 0.00666861 0.006806443 0.006954507 0.007104969 0.007259072 0.007390887 0.007498611 0.007560736 0.007577029 0.007556445
 0.007502586 0.007450924 0.007404139 0.007395179 0.007420308 0.007487523 0.007587589 0.007705663 0.00783539 0.007959803
 0.008081728 0.008197033 0.008312243 0.008432223 0.008555513 0.008684638 0.008809329 0.008927094 0.009029644 0.009113885
 0.009181223 0.009230439 0.009273209 0.009309955 0.009358595 0.009419926 0.009506464 0.009617184 0.009748608 0.009898119
 0.01005122 0.01020696 0.01035437 0.01049541 0.01062851 0.01075668 0.01088351 0.01101115 0.01114344 0.01127993
 0.01142231 0.01156672 0.01171193 0.01185446 0.01199243 0.01212656 0.01225642 0.01238489 0.01251275 0.01263776
 0.01276006 0.01287175 0.01297258 0.01306009 0.01313547 0.01320943 0.01328246 0.0133642 0.01345039 0.01353276
 0.01360814 0.01366247 0.01370426 0.01373808 0.01377648 0.01383664 0.01391647 0.0140219 0.01414101 0.01426792
 0.01440119 0.01453842 0.01468395 0.01484025 0.01499815 0.01515774 0.01530218 0.01542989 0.01553469 0.01561647
 0.01567934 0.01572432 0.0157617 0.01579364 0.01583638 0.0158909 0.01597037 0.01607061 0.01618998 0.01632258
 0.01645879 0.01659596 0.01672753 0.01685427 0.01697363 0.01709099 0.01720674 0.0173312 0.01746849 0.01762199
 0.01779564 0.01797477 0.01815946 0.01832361 0.01846519 0.01856393 0.01861919 0.01863275 0.01860764 0.01857385
 0.01853464 0.0185249 0.01853963 0.01858294 0.01864528 0.01870539 0.0187653 0.01881612 0.0188699 0.01893795
 0.01902199 0.01912935 0.0192498 0.01938014 0.01951306 0.01964602 0.01977275 0.01989261 0.01999444 0.02007592
 0.02013547 0.020172 0.02020092 0.02022306 0.02025619 0.02030063 0.02036661 0.02045288 0.02056022 0.02068417
 0.02081093 0.02093775 0.02104885 0.02115214 0.02125147 0.02135719 0.02148514 0.0216297 0.02179471 0.02196355
 0.02212812 0.02228095 0.02241596 0.02253924 0.02264957 0.02276209 0.0228784 0.02301345 0.02316951 0.02333968
 0.02352331 0.02369057 0.02384127 0.02396113 0.0240551 0.02414208 0.02422537 0.02432705 0.02444346 0.02457762
 0.02472456 0.02487906 0.0250351 0.02518582 0.02532339 0.02543755 0.02553312 0.0256065 0.02567657 0.02575092
 0.02583291 0.02592794 0.02601491 0.02609146 0.0261421 0.02616467 0.02616105 0.02613137 0.0260834 0.0260193
 0.02596332 0.02592008 0.02592976 0.02598892 0.02611168 0.02628276 0.02647546 0.026679 0.0268637 0.02703032
 0.02716892 0.02728228 0.0273671 0.02743415 0.02748092 0.02754357 0.02763202 0.02778026 0.02800534 0.02827963
 0.02860412 0.02893073 0.02925491 0.02955348 0.0298251 0.03005414 0.03024074 0.03038033 0.03047466 0.03053174
 0.03055062 0.03053069 0.03047401 0.03038046 0.03026342 0.03014497 0.03002988 0.02993738 0.02984925 0.02975672
 0.02965005 0.02951551 0.02937481 0.02923008 0.0291098 0.02902179 0.02897873 0.02898525 0.02903373 0.02912574
 0.02922374 0.02932565 0.0293792 0.02938406 0.02931866 0.02918776 0.02900625 0.02877745 0.02851711 0.02823249
 0.02794003 0.02766376 0.02744864 0.02730912 0.02729071 0.02735646 0.02750158 0.02766597 0.02781546 0.02792137
 0.02796113 0.02794782 0.02787342 0.02779468 0.02771608 0.02770559 0.02777289 0.0279102 0.02811698 0.02831417
 0.02850116 0.02864574 0.02875578 0.02886356 0.02896628 0.02907185 0.02917202 0.02924509 0.02930284 0.02935181
 0.02941008 0.0295052 0.02963165 0.02979888 0.02998231 0.03017384 0.03034778 0.03049375 0.03059453 0.03064099
 0.03064334 0.0305986 0.03054495 0.03048576 0.03044576 0.03042627 0.03042006 0.03042663 0.03043807 0.03045473
 0.03047613 0.03050021 0.03051744 0.03053067 0.03053908 0.03055271 0.03059179 0.03064976 0.0307328 0.03081563
 0.03087669 0.03091352 0.03091267 0.03090232 0.03089008 0.03089469 0.03092405 0.03097627 0.03105361 0.03114179
 0.03124151 0.03131345 0.0313555 0.03132391 0.03122039 0.03105254 0.03082837 0.03059979 0.03036816 0.03016665
 0.02998934 0.02983722 0.02970886 0.02960285 0.02951771 0.02945335 0.02940227 0.02935857 0.02931765 0.02927581
 0.02923023 0.0291813 0.0291176 0.02903709 0.02892809 0.02878752 0.02861574 0.02841162 0.02818856 0.02794724
 0.02771783 0.02750208 0.02733245 0.0272061 0.02712397 0.02707972 0.02704883 0.02703328 0.02702631 0.02703017
 0.02705268 0.0270749 0.02707925 0.02704888 0.02695511 0.02682348 0.02665432 0.02649173 0.0263565 0.0262558
 0.02620033 0.02615908 0.02612942 0.0260812 0.02601027 0.0259132 0.02578963</values></Ydata></AB><ScSm><Ydata ylabel="Single channel"><values byteorder="INTEL" format="FLOAT32" numvalues="1814"> 0.07383716 0.07383946 0.07390744 0.07406177 0.07427345 0.07448002 0.07462849 0.07470734 0.07473044 0.0747017
 0.07462874 0.07456817 0.07460878 0.07478574 0.07503068 0.07521863 0.07526566 0.0752026 0.07515983 0.07523973
 0.07537695 0.07535707 0.07501881 0.07443929 0.07388368 0.07356106 0.07349518 0.0736794 0.07420479 0.07500917
 0.07559858 0.07540128 0.07448592 0.07359255 0.07331278 0.07352373 0.07373254 0.0736463 0.07326347 0.07276253
 0.07255165 0.07315821 0.07471042 0.07650936 0.07727928 0.07597089 0.07250955 0.06803724 0.06449549 0.06358653
 0.06557363 0.06892905 0.07147861 0.07213807 0.07144048 0.07044186 0.06958266 0.06881212 0.06832071 0.068592
 0.06973092 0.07100219 0.07120621 0.0697052 0.06718245 0.06516118 0.06461571 0.06535625 0.06683926 0.06876339
 0.07024466 0.06933749 0.06494176 0.05923498 0.05671237 0.05991556 0.06672134 0.07242379 0.07392742 0.07148124
 0.06730898 0.06376055 0.06243343 0.06374285 0.06683655 0.07030358 0.07303612 0.07428788 0.07348225 0.07070842
 0.06721436 0.06480411 0.06473055 0.06720716 0.0713629 0.07531165 0.07700313 0.07573783 0.0726375 0.06945492
 0.06741232 0.06719851 0.06914334 0.07287639 0.07730132 0.081232 0.0838816 0.08494193 0.08464278 0.08360581
 0.08237204 0.08131382 0.08096963 0.08171442 0.08288008 0.08300292 0.08141533 0.07913344 0.07780951 0.07802427
 0.07882498 0.07888991 0.07786686 0.07616632 0.07366055 0.06965737 0.06448984 0.05993986 0.05745642 0.05704863
 0.05835585 0.06122657 0.06446208 0.06571657 0.06406271 0.06165562 0.06159149 0.06459655 0.06864284 0.07142809
 0.07250883 0.07314798 0.07468335 0.07716034 0.07915676 0.07885607 0.0758499 0.07216197 0.07082386 0.07289737
 0.07644692 0.07891865 0.07983597 0.08052392 0.08179271 0.08268736 0.08148541 0.07773931 0.07338282 0.07154644
 0.07383583 0.0787247 0.08265862 0.08268837 0.07845549 0.07227909 0.06734678 0.06551003 0.06677388 0.07049388
 0.07609204 0.08243957 0.08757047 0.08977739 0.08885304 0.08598869 0.08241209 0.07825117 0.07318782 0.06835666
 0.06657657 0.06969154 0.07621811 0.08258102 0.08630352 0.08724715 0.08622591 0.08347802 0.07888925 0.07346615
 0.06982872 0.07018046 0.07365546 0.07679997 0.0771884 0.0756397 0.07444815 0.07451893 0.07502641 0.07517408
 0.07533483 0.07641306 0.07855 0.08078369 0.08197991 0.08186135 0.08105483 0.08036029 0.08002517 0.07956322
 0.07843614 0.07711954 0.07705919 0.07909282 0.08230555 0.08497123 0.08628573 0.08666824 0.08662005 0.08584259
 0.08367675 0.08035284 0.0775063 0.07696913 0.07899886 0.08211535 0.0846404 0.08590389 0.08609025 0.08563806
 0.08494204 0.08422028 0.08357535 0.08327243 0.08367549 0.08472665 0.08582348 0.08642253 0.08648987 0.08623338
 0.08570804 0.08488318 0.08392137 0.08319683 0.08302759 0.08343407 0.08417317 0.08495568 0.08555443 0.0857741
 0.08552061 0.08494075 0.08433305 0.08387905 0.08358368 0.08346283 0.08360459 0.08399991 0.0844592 0.08477155
 0.08487315 0.08482097 0.08467357 0.08444954 0.08416899 0.08389722 0.08374216 0.08378313 0.08397762 0.08418261
 0.08431478 0.08443265 0.0845968 0.08472055 0.08466121 0.0844195 0.08415362 0.08400987 0.08400699 0.08407167
 0.08411585 0.08405538 0.08381062 0.08337507 0.08290272 0.08264877 0.0827646 0.08318745 0.08374331 0.08427837
 0.08467633 0.0848664 0.08487792 0.08481419 0.08473128 0.08459385 0.0843688 0.08412161 0.08400203 0.08413154
 0.08448933 0.08491747 0.08525371 0.08543783 0.08549687 0.08549906 0.08553401 0.08565012 0.0857819 0.08581122
 0.0857224 0.08563405 0.08565859 0.08577573 0.08586297 0.08583459 0.0857393 0.08571263 0.0858319 0.08604268
 0.08623803 0.08637749 0.08650407 0.08666049 0.08680989 0.08685373 0.08674312 0.08655556 0.08642244 0.08639235
 0.0864189 0.0864718 0.08658637 0.08678374 0.08699989 0.08713567 0.08716056 0.08713856 0.08714622 0.08718288
 0.08717981 0.08709165 0.08695318 0.08684181 0.08680646 0.08683996 0.08690026 0.08694273 0.08694045 0.08689103
 0.08681175 0.08672452 0.08664092 0.08657011 0.08654445 0.08661275 0.08677695 0.08694503 0.08698624 0.08685125
 0.08662474 0.08644593 0.08637965 0.08637023 0.08631615 0.08617578 0.08599278 0.08583377 0.08572618 0.08565481
 0.0855923 0.08552399 0.08546494 0.08546469 0.08556902 0.08575231 0.08590552 0.08592507 0.08581152 0.08566008
 0.08556356 0.08554791 0.08558586 0.08563968 0.08569473 0.08577065 0.08588807 0.08601701 0.08608995 0.08608294
 0.08605157 0.08607376 0.08618807 0.08638825 0.08662823 0.08682512 0.08691105 0.08690538 0.08690085 0.08696548
 0.0870881 0.08722527 0.0873619 0.0875072 0.08766153 0.08781826 0.08799008 0.08820994 0.08849811 0.08883326
 0.08915821 0.08941753 0.08960252 0.08976716 0.08999161 0.09031712 0.09071188 0.09110077 0.09142853 0.09169809
 0.09195155 0.09221825 0.09249178 0.09276424 0.09306183 0.09341931 0.09382811 0.09423956 0.09462056 0.09498116
 0.09534674 0.0957252 0.0961093 0.09649865 0.09691066 0.09736213 0.0978344 0.09826706 0.09860702 0.09886478
 0.09911098 0.0994197 0.09981664 0.1002598 0.1006568 0.1009314 0.1011049 0.1012896 0.1015708 0.1019153
 0.1022335 0.1025114 0.1028272 0.1032379 0.1036967 0.104105 0.1044192 0.1046831 0.1049662 0.1052846
 0.1055858 0.1058097 0.1059591 0.1060968 0.1062763 0.106504 0.1067786 0.1071244 0.1075504 0.1080016
 0.1083961 0.1086982 0.1089287 0.1091197 0.1092919 0.1094596 0.1096248 0.1097788 0.1099265 0.1100867
 0.1102534 0.1103915 0.1104941 0.1106098 0.1107888 0.1110326 0.1113217 0.1116552 0.1120269 0.1123956
 0.1127257 0.1130498 0.1134351 0.1138796 0.1142846 0.1145569 0.1147041 0.1147968 0.1148786 0.1149627
 0.1150896 0.1153221 0.1156751 0.1160939 0.1165125 0.116905 0.1172766 0.1176282 0.1179412 0.1181872
 0.1183501 0.1184435 0.11851 0.1186045 0.1187715 0.1190236 0.1193289 0.1196279 0.1198705 0.1200321
 0.1200984 0.1200652 0.1199701 0.119898 0.1199124 0.1199798 0.1199862 0.1198342 0.1195039 0.1190225
 0.1184094 0.1176764 0.1168678 0.1160721 0.115387 0.1148809 0.1145904 0.1145458 0.1147792 0.115289
 0.1160002 0.1167779 0.1174899 0.1180398 0.1183443 0.1183247 0.1179562 0.117308 0.1165071 0.115669
 0.1148669 0.1141321 0.1134584 0.1128372 0.1123238 0.1120629 0.1122259 0.1129194 0.1141418 0.115784
 0.1176485 0.1194982 0.1211437 0.1225166 0.1236632 0.1246686 0.1255917 0.126464 0.1273137 0.1281533
 0.1289536 0.1296676 0.1302856 0.1308421 0.1313677 0.1318553 0.1322739 0.1325989 0.1328339 0.1330152
 0.1331824 0.1333356 0.1334395 0.1334791 0.1334842 0.1334834 0.1334547 0.1333394 0.1330905 0.1327046
 0.1322398 0.1318323 0.1316839 0.1319918 0.1328478 0.1341831 0.1358122 0.137532 0.1391845 0.1406502
 0.1418401 0.1427283 0.1433755 0.143886 0.1443426 0.1447834 0.1452193 0.1456478 0.1460578 0.1464424
 0.1468105 0.1471826 0.147576 0.1479916 0.1484073 0.1487893 0.1491227 0.1494338 0.1497746 0.1501755
 0.1506137 0.1510351 0.1514136 0.1517762 0.1521566 0.1525397 0.1528788 0.1531594 0.1534173 0.1536997
 0.1540342 0.1544263 0.1548512 0.1552508 0.155573 0.1558206 0.1560444 0.1562889 0.1565605 0.1568464
 0.1571396 0.1574391 0.1577403 0.1580413 0.1583526 0.1586832 0.1590151 0.1593079 0.1595399 0.1597348
 0.1599386 0.1601765 0.1604364 0.1606911 0.1609314 0.1611797 0.1614688 0.1618031 0.1621454 0.1624468
 0.1626873 0.1628853 0.1630752 0.1632817 0.1635126 0.1637646 0.1640275 0.1642871 0.1645332 0.1647702
 0.1650136 0.1652727 0.1655396 0.1657978 0.1660396 0.1662726 0.1665118 0.1667657 0.1670332 0.1673137
 0.1676137 0.1679349 0.1682557 0.1685408 0.1687713 0.1689602 0.1691367 0.1693234 0.1695279 0.1697471
 0.1699766 0.1702163 0.170468 0.1707278 0.1709844 0.1712267 0.1714522 0.1716693 0.1718922 0.1721311
 0.1723857 0.1726484 0.1729125 0.1731729 0.1734238 0.1736608 0.173887 0.1741107 0.1743374 0.1745645
 0.1747841 0.1749909 0.1751891 0.1753906 0.1756054 0.1758355 0.1760758 0.1763179 0.1765544 0.1767829
 0.1770057 0.1772261 0.1774453 0.1776645 0.1778855 0.1781092 0.1783355 0.1785637 0.1787929 0.1790218
 0.1792504 0.1794791 0.1797079 0.179936 0.1801614 0.1803808 0.1805926 0.1807993 0.1810077 0.1812239
 0.1814483 0.1816745 0.1818959 0.1821135 0.1823322 0.1825509 0.1827641 0.1829717 0.1831801 0.1833955
 0.1836205 0.1838543 0.1840925 0.1843273 0.1845552 0.184779 0.1850054 0.1852402 0.1854833 0.1857273
 0.185965 0.1861971 0.186427 0.1866538 0.1868765 0.1870973 0.1873149 0.1875227 0.1877155 0.1878937
 0.1880622 0.1882308 0.18841 0.1886042 0.1888135 0.1890383 0.1892733 0.1895049 0.1897245 0.1899359
 0.1901458 0.1903587 0.1905796 0.1908095 0.1910398 0.1912634 0.1914818 0.1916979 0.1919121 0.1921279
 0.1923494 0.1925751 0.1928027 0.1930313 0.1932572 0.193477 0.1936933 0.1939075 0.1941165 0.1943254
 0.1945468 0.1947832 0.1950231 0.1952562 0.1954771 0.1956847 0.1958875 0.1960981 0.1963159 0.1965332
 0.1967519 0.1969782 0.1972101 0.1974438 0.19768 0.1979152 0.1981454 0.1983739 0.1986032 0.198828
 0.1990471 0.1992645 0.1994786 0.1996869 0.199896 0.2001085 0.2003188 0.2005291 0.2007437 0.2009431
 0.2010722 0.2010049 0.2004381 0.1987735 0.1951008 0.1883729 0.1778137 0.1633993 0.146039 0.1272579
 0.1086353 0.09138986 0.07625339 0.06355902 0.05339418 0.04569847 0.04032667 0.03715716 0.03620186 0.0377133
 0.04230435 0.0505871 0.06179972 0.07258599 0.07829446 0.07664242 0.06989429 0.0627986 0.05864704 0.05768605
 0.05852362 0.05996258 0.06161585 0.06369172 0.06655754 0.07031524 0.07478046 0.07993937 0.08617458 0.09377675
 0.1023522 0.1109845 0.1190236 0.1265941 0.1342844 0.1424294 0.1507592 0.1586707 0.1657075 0.1717821
 0.1770828 0.1818686 0.186325 0.1905394 0.1945513 0.1983545 0.2018156 0.2046404 0.2065165 0.2073511
 0.2073826 0.2070474 0.2067255 0.2065931 0.2066666 0.2069185 0.2073322 0.2078949 0.2085853 0.2093695
 0.2102057 0.2110607 0.211917 0.21276 0.2135691 0.2143278 0.2150283 0.2156651 0.2162369 0.2167533
 0.2172281 0.2176678 0.2180751 0.2184557 0.2188176 0.2191688 0.219513 0.2198438 0.220148 0.2204185
 0.2206574 0.2208702 0.2210649 0.2212551 0.2214528 0.22166 0.2218717 0.2220829 0.2222909 0.222497
 0.2227074 0.2229239 0.2231372 0.2233351 0.2235148 0.2236846 0.2238566 0.2240412 0.2242394 0.2244409
 0.2246352 0.2248231 0.2250117 0.2252034 0.2253961 0.2255884 0.2257814 0.225976 0.2261702 0.2263585
 0.22654 0.2267256 0.2269289 0.2271493 0.2273733 0.2275907 0.2277994 0.2280017 0.2282044 0.2284131
 0.2286173 0.2287933 0.228933 0.2290629 0.229225 0.2294402 0.2296891 0.2299308 0.2301423 0.2303351
 0.2305292 0.2307253 0.2309087 0.2310693 0.2312155 0.2313787 0.2315946 0.2318636 0.2321456 0.2324035
 0.2326339 0.2328506 0.2330671 0.2332976 0.2335401 0.2337577 0.2339112 0.2340159 0.2341478 0.2343822
 0.2347258 0.235105 0.235434 0.23569 0.2359113 0.2361423 0.2364047 0.2366789 0.2368759 0.236897
 0.236789 0.2367743 0.2370479 0.2375802 0.2381741 0.2386665 0.2390289 0.2393161 0.2395758 0.2397985
 0.23993 0.2399333 0.2398629 0.239879 0.2401387 0.2406384 0.2412036 0.2416657 0.2419933 0.2422329
 0.2424212 0.2425814 0.2426807 0.242569 0.2421384 0.2416079 0.2414676 0.2420047 0.2429828 0.2438976
 0.2444755 0.2448103 0.2450835 0.2453383 0.2455345 0.2455832 0.2452266 0.2441897 0.2427158 0.2417119
 0.2419976 0.2434801 0.2453091 0.246725 0.2475369 0.2479352 0.2481624 0.2483495 0.2484192 0.2480944
 0.2472087 0.2461167 0.245608 0.2461807 0.2474803 0.2486783 0.249317 0.2495552 0.249728 0.2499719
 0.2501332 0.2497214 0.2481869 0.2457258 0.2436909 0.2436424 0.2458242 0.2488718 0.2511646 0.2522233
 0.2525936 0.2526549 0.2520605 0.2503648 0.2476935 0.2446905 0.2423147 0.2417066 0.243434 0.24655
 0.2491305 0.2501697 0.2504277 0.2511691 0.2526529 0.2541366 0.2548501 0.254595 0.2536069 0.2521269
 0.250288 0.2485197 0.2477884 0.2489122 0.2515715 0.2544184 0.2563248 0.2572446 0.2576317 0.2571172
 0.254231 0.2481666 0.2410003 0.2371268 0.2393802 0.2460707 0.252802 0.2567964 0.2584219 0.2591392
 0.2595398 0.2591817 0.2568428 0.2511793 0.2428329 0.2357834 0.234663 0.2401699 0.2482811 0.2540188
 0.2548552 0.2509785 0.2443872 0.2382921 0.2358169 0.2381119 0.2438437 0.2505141 0.2559619 0.2589694
 0.2592616 0.257383 0.2546409 0.2527851 0.252748 0.2532635 0.2518213 0.2478347 0.2436219 0.2410077
 0.2385007 0.2340528 0.2295524 0.2295861 0.2354777 0.2430798 0.2474354 0.2478047 0.2467778 0.2455492
 0.2418663 0.2332656 0.2217273 0.2137716 0.2147638 0.223357 0.2326997 0.2371439 0.2367324 0.2352055
 0.234998 0.2347584 0.2312733 0.2236724 0.2155662 0.2120167 0.2141528 0.2181526 0.2197655 0.2177137
 0.2122072 0.2035556 0.1945864 0.1915367 0.1987925 0.2135125 0.2278531 0.235436 0.2336884 0.222424
 0.2047084 0.1887075 0.1837213 0.1918615 0.2054927 0.2142699 0.2133525 0.2042452 0.190362 0.1747004
 0.1612493 0.1553984 0.1606897 0.1752319 0.1917968 0.2014228 0.1983455 0.1844646 0.1697405 0.1650326
 0.1722213 0.182911 0.1878462 0.1853196 0.1798467 0.1763262 0.1772042 0.1821003 0.1882255 0.19298
 0.1960253 0.196373 0.1895785 0.1730932 0.1534138 0.1418253 0.14267 0.1510927 0.1620798 0.1749639
 0.1875691 0.1931066 0.1878189 0.1780947 0.1750546 0.1827462 0.1946626 0.2017081 0.2012095 0.1974275
 0.1949557 0.1938151 0.1917228 0.1893875 0.1907295 0.1974718 0.2061375 0.2119245 0.2137099 0.2136509
 0.2135206 0.2133566 0.2126953 0.2113802 0.2094808 0.2074006 0.2057596 0.204699 0.2037559 0.202574
 0.2008778 0.1974134 0.1902361 0.1794675 0.1690316 0.1635662 0.1635277 0.1654921 0.1672436 0.1690866
 0.1690979 0.1617659 0.1452834 0.1275508 0.120434 0.1283014 0.1447682 0.1599489 0.1679819 0.1675217
 0.1588346 0.1441195 0.1300334 0.125605 0.1348428 0.1528673 0.1711372 0.1848213 0.1933333 0.1962417
 0.1924327 0.183126 0.1730789 0.1678839 0.1705739 0.1802624 0.1924057 0.1999538 0.1967946 0.1838356
 0.1717536 0.1731355 0.1892487 0.2079241 0.2172383 0.2176151 0.2170102 0.2185391 0.2189134 0.2171368
 0.2180115 0.2255396 0.237024 0.2457225 0.2467711 0.2391033 0.2248153 0.2096466 0.2015003 0.2041035
 0.2127558 0.2194332 0.2205647 0.2165773 0.2071385 0.1931058 0.181554 0.1815383 0.1935939 0.2085085
 0.21779 0.2214016 0.2239472 0.2267398 0.2262334 0.2194346 0.2089107 0.2012002 0.2003378 0.2043183
 0.2084736 0.2103978 0.2099999 0.2067162 0.1998459 0.1916201 0.1872497 0.1904106 0.1994466 0.2089282
 0.214525 0.2157359 0.2145938 0.213062 0.2117081 0.2098715 0.2069989 0.2043772 0.2048846 0.2098667
 0.2169244 0.2223453 0.2253479 0.2283446 0.2331499 0.2384645 0.2414455 0.2408058 0.2380439 0.236154
 0.2372426 0.2408604 0.2443243 0.2450024 0.2428192 0.2405597 0.2412999 0.2454656 0.2507525 0.2547425
 0.256883 0.258009 0.2589253 0.259708 0.2596623 0.2578668 0.2545055 0.2516436 0.2517668 0.2553089
 0.2602267 0.2640951 0.2660514 0.266658 0.2665842 0.265906 0.2644882 0.2626116 0.2609949 0.2602391
 0.2604065 0.2611541 0.2620991 0.2629864 0.2636808 0.2641636 0.2644984 0.2647422 0.2649213 0.2650799
 0.2652562 0.2654028 0.2654347 0.2653911 0.2654504 0.2657236 0.2661034 0.2663803 0.2664351 0.2662306
 0.2656907 0.2647303 0.2633979 0.261859 0.2602062 0.2584004 0.2565038 0.254931 0.2543287 0.2550998
 0.2570313 0.2594192 0.2615561 0.2630945 0.2640383 0.2645345 0.2647369 0.2647814 0.2647744 0.2647595
 0.2647135 0.2645968 0.2644009 0.2641465 0.2638584 0.2635657 0.2633082 0.2631118 0.2629562 0.2627836
 0.2625423 0.2622153 0.2618209 0.2613915 0.2609437 0.2604562 0.2598797 0.2591743 0.2583409 0.2574255
 0.2564989 0.2556218 0.2548105 0.2540286 0.2532177 0.2523377 0.2513628 0.2502505 0.2489706 0.2475872
 0.2462586 0.2451072 0.2441151 0.2431692 0.2421691 0.2410662 0.2398491 0.2385396 0.2371827 0.2358123
 0.234436 0.2330512 0.2316509 0.2302092 0.2286826 0.2270424 0.2252975 0.2234862 0.2216501 0.2198091
 0.2179399 0.2159611 0.2137457 0.2111598 0.2080954 0.2044811 0.2003006 0.1956259 0.1906223 0.1855038
 0.180475 0.1756966 0.1712773 0.1672916 0.1638115 0.1609168 0.1586742 0.1571201 0.1562654 0.1561036
 0.1566126 0.1577543 0.159463 0.1616271 0.164097 0.1667152 0.1693314 0.1718096 0.174064 0.1761052
 0.1780201 0.1798801 0.1816706 0.1833219 0.1847943 0.1861049 0.1872721 0.1882743 0.189085 0.1897222
 0.1902368 0.1906718 0.1910477 0.1913709 0.1916411 0.1918618 0.1920492 0.1922271 0.19242 0.1926534
 0.1929462 0.193298 0.1936955 0.1941324 0.1946194 0.1951729 0.195796 0.1964681 0.1971616 0.1978747
 0.1986367 0.1994808 0.2004325 0.201524 0.2027917 0.2042513 0.2058845 0.2076422 0.2094474 0.2112064
 0.2128331 0.2142622 0.21545 0.2163795 0.2170652 0.2175416 0.2178456 0.2180041 0.2180289 0.2179269
 0.2177201 0.2174434 0.2171207 0.2167542 0.2163339 0.215845 0.2152744 0.2146328 0.2139599 0.2132968
 0.2126619 0.2120603 0.2114969 0.2109706 0.2104667 0.2099612 0.2094352 0.2088875 0.2083311 0.2077733
 0.2072069 0.2066149 0.2059676 0.2052252 0.2043672 0.2034088 0.2023659 0.2012227 0.1999607 0.1986003
 0.1971844 0.1957332 0.1942337 0.1926649 0.1910227 0.1893163 0.1875411 0.1856662 0.1836752 0.1816196
 0.1796053 0.1777198 0.175984 0.174366 0.1728204 0.1713195 0.1698656 0.1684751 0.1671543 0.1658962
 0.1646944 0.163551 0.1624694 0.1614474 0.1604809 0.159582 0.1587851 0.1581197 0.1575752 0.1571085
 0.1566827 0.1562904 0.1559527 0.1557074 0.15558 0.1555465 0.1555386 0.1554935 0.1553888 0.1552347
 0.1550547 0.1548719 0.1546992 0.1545424 0.1544042 0.1542652 0.1540603 0.1536905 0.1530644 0.1521285
 0.1508752 0.1493375 0.1475794 0.1456985 0.1438296 0.1421126 0.1406375 0.1394343 0.138505 0.1378257
 0.1373236 0.1369056 0.1365351 0.1362643 0.1361747 0.1362764 0.1364602 0.1365719 0.1365593 0.1365278
 0.1366413 0.1369881 0.1375421 0.1382027 0.1388555 0.1394213 0.1398654 0.140172 0.1403397 0.1403937
 0.1403635 0.1402528 0.140062 0.1398152 0.1395347 0.1392173 0.1388533 0.1384342 0.1379419 0.1373613
 0.1366932 0.1359376 0.1350923 0.134166 0.1331508 0.1320169 0.1308061 0.1297104 0.1289879 0.1288022
 0.1291438 0.1298555 0.1307371 0.1316614 0.132553 0.1332453 0.1335273 0.1334718 0.133603 0.1345265
 0.136352 0.1385701 0.1405007 0.1417748 0.1423796 0.1424136 0.1419513 0.141052 0.1397274 0.1379275
 0.1356553 0.1330273 0.1301808 0.1272493 0.1244327 0.1219365 0.1198479 0.1181545 0.1168161 0.1158532
 0.1154018 0.1151417 0.1133258 0.1076917 0.09894474 0.09233326 0.09324257 0.101143 0.1099541 0.1144871
 0.1145887 0.1130058 0.1116264 0.1107276 0.1102106 0.1102093 0.1108497 0.1120123 0.1133388 0.1144391
 0.1151384 0.1154592 0.1153593 0.1145191 0.1122795 0.107852 0.1009594 0.09241802 0.08385734 0.07675232
 0.07176355 0.06877914 0.06724115 0.06646636 0.06597663 0.06571071 0.0659295 0.06690727 0.06870335 0.07118483
 0.07416143 0.07738271 0.08046121 0.0830166 0.08495997 0.08648515 0.08774632 0.08868718 0.08919202 0.0892496
 0.08894104 0.08837596 0.08766799 0.08689974 0.08606619 0.08508185 0.08391698 0.08274754 0.08187945 0.08146578
 0.08138004 0.08140372 0.08142364 0.08141489 0.08136955 0.08130047 0.08124182 0.08124354 0.0813943 0.08176952
 0.08230545 0.08280665 0.08311968 0.08324903 0.08329909 0.08332063 0.08319868 0.08275907 0.08206107 0.08143304
 0.08103849 0.08057425 0.07966354 0.07844064 0.07747799 0.07717441 0.07741217 0.07777674 0.07793321 0.07779749
 0.07752897 0.07744452 0.07780078 0.07850038</values></Ydata></ScSm><ScRf><Ydata ylabel="Single channel"><values byteorder="INTEL" format="FLOAT32" numvalues="1820"> 0.06055112 0.06069889 0.06078872 0.06082184 0.06081695 0.06081536 0.06087131 0.06101565 0.06122428 0.06142793
 0.06156329 0.0616183 0.06162012 0.06158859 0.06153301 0.06149314 0.06153604 0.06168818 0.061892 0.06204475
 0.06207914 0.06202189 0.06198137 0.06204467 0.06215949 0.06214593 0.06186706 0.0613873 0.06092806 0.06066013
 0.06059886 0.06073968 0.06116575 0.06183304 0.06233191 0.06217971 0.06142412 0.06067804 0.06043977 0.06061471
 0.0607946 0.06073158 0.06041905 0.06000363 0.05982823 0.06033744 0.06164018 0.06315067 0.06379991 0.06271018
 0.05982157 0.05609179 0.05314295 0.05239166 0.05405178 0.0568485 0.05897494 0.05953322 0.05896654 0.05814756
 0.05743709 0.05679301 0.05637956 0.05660588 0.05756149 0.05862795 0.05879529 0.05752907 0.05541077 0.05372521
 0.05328429 0.05391588 0.05515758 0.05676073 0.05799275 0.05723266 0.0535682 0.04882434 0.04675122 0.04945631
 0.05515272 0.05990752 0.06114268 0.05907881 0.05558619 0.05263204 0.0515406 0.05264229 0.05521938 0.05810226
 0.06037605 0.06141872 0.06074571 0.05843234 0.05552354 0.05352533 0.05348196 0.05556913 0.05905248 0.06234799
 0.06374393 0.06266879 0.06007189 0.05742019 0.05573175 0.05557806 0.05722904 0.06037063 0.06408806 0.06739274
 0.06962258 0.07051191 0.07025425 0.06938192 0.06835863 0.06749494 0.06722902 0.06786112 0.06882893 0.06891856
 0.06758727 0.0656915 0.06460528 0.06479972 0.06546949 0.06551291 0.06464692 0.06322227 0.06112866 0.05777894
 0.05344886 0.04963268 0.04754952 0.04721794 0.0483463 0.05080266 0.0535595 0.05463125 0.05324288 0.05121615
 0.05115566 0.05366962 0.0570567 0.05938989 0.06030282 0.06085838 0.0621764 0.06428367 0.06597271 0.06571633
 0.06318703 0.0601036 0.05901502 0.06079789 0.06381121 0.06590891 0.0667004 0.06730749 0.06841137 0.06920043
 0.06821598 0.0650842 0.06144947 0.05995706 0.0619458 0.0661059 0.0694299 0.06943928 0.06585504 0.06065989
 0.05655125 0.05507317 0.05621072 0.05942627 0.06425145 0.06973524 0.07419574 0.07616151 0.07543758 0.07303233
 0.07000551 0.06648608 0.06221124 0.05814992 0.05671299 0.05947826 0.06517018 0.07072017 0.07400545 0.07490838
 0.07411975 0.07182705 0.06792161 0.06328584 0.0602146 0.06063075 0.06376754 0.06660037 0.06701264 0.0657296
 0.06476545 0.06491436 0.06545124 0.06567943 0.06593522 0.06701981 0.06904913 0.07115685 0.07232884 0.07231976
 0.07169257 0.07116417 0.07095516 0.07063176 0.06972355 0.06867184 0.06877008 0.07074438 0.07374902 0.07623249
 0.07749137 0.07792327 0.07798426 0.07739019 0.07552713 0.07260284 0.07011795 0.0697518 0.07173705 0.07471254
 0.0771372 0.07839923 0.07867626 0.07837887 0.07787165 0.07735278 0.07691126 0.07677943 0.07727874 0.07835346
 0.07946149 0.08011612 0.08028646 0.08015303 0.0797592 0.07908382 0.07829101 0.07773081 0.07768698 0.07816732
 0.07894914 0.07977694 0.08044697 0.08076994 0.08064421 0.08020241 0.07973302 0.07941719 0.07926168 0.07927624
 0.07953723 0.08002931 0.08056761 0.08095264 0.08113028 0.0811619 0.08110556 0.08097491 0.0807832 0.080594
 0.08052004 0.08064222 0.08091161 0.08118373 0.08138912 0.08160238 0.08188128 0.08211769 0.08214952 0.08197718
 0.08177277 0.08169177 0.08174814 0.08186171 0.08194973 0.08194108 0.08176261 0.08140293 0.08100507 0.08081526
 0.08098751 0.0814754 0.08211883 0.0827556 0.08324341 0.08349385 0.08354078 0.08350225 0.08344314 0.08333139
 0.08313937 0.08293709 0.08286928 0.08304858 0.0834558 0.08394217 0.08434297 0.08458105 0.08467442 0.08470547
 0.08478601 0.08496898 0.08516967 0.08524638 0.08517961 0.08510499 0.08514862 0.085283 0.08537234 0.08533363
 0.08523067 0.08520687 0.08533607 0.08555928 0.08576879 0.08592582 0.08607844 0.0862762 0.08647953 0.08657043
 0.08647646 0.08627099 0.0861049 0.08604681 0.08605248 0.08608833 0.08619886 0.08641379 0.08665463 0.08679827
 0.08681559 0.08679748 0.08683587 0.08691345 0.08693186 0.08682936 0.08664465 0.08647482 0.08639711 0.0864262
 0.0865166 0.08659378 0.08659939 0.08652481 0.08640641 0.08628829 0.08619367 0.08613772 0.08615842 0.08630222
 0.08655293 0.08678875 0.08685165 0.08668552 0.08639991 0.08617891 0.08611733 0.08614694 0.08612095 0.08595763
 0.08569466 0.08542529 0.08521283 0.08506584 0.08496375 0.08488856 0.08484729 0.08487566 0.08499821 0.08516441
 0.08524796 0.08514979 0.08490021 0.08463117 0.08445346 0.08438419 0.08437459 0.08437039 0.08435516 0.08436261
 0.08443066 0.08452815 0.08456379 0.08449157 0.08437115 0.08430633 0.08436073 0.08453505 0.08476724 0.08494267
 0.08496808 0.08486481 0.08475123 0.0847199 0.08476691 0.0848439 0.08492952 0.08502845 0.08513695 0.08524439
 0.08536065 0.08551823 0.08574024 0.08600818 0.08626282 0.08644278 0.0865377 0.08660881 0.08674634 0.08699517
 0.08732031 0.08764166 0.0878997 0.08809461 0.08826942 0.08845698 0.08865178 0.08884323 0.08905688 0.08933069
 0.08965819 0.08999014 0.09029236 0.09057271 0.09085287 0.09114152 0.09143985 0.09175746 0.09211643 0.09253241
 0.09297717 0.09336992 0.09363544 0.09377876 0.09389036 0.09407823 0.09439157 0.09478035 0.0951179 0.09530318
 0.09536858 0.09545581 0.0956606 0.09593785 0.09619236 0.09642316 0.09672105 0.09713465 0.09759063 0.09796216
 0.09819254 0.09833812 0.0984977 0.09870696 0.09890829 0.09903084 0.09908649 0.09915716 0.09929322 0.09947348
 0.09967918 0.0999499 0.1003216 0.1007473 0.1011296 0.1014141 0.1016143 0.1017653 0.1018886 0.1019874
 0.1020509 0.1020765 0.1020977 0.1021613 0.102263 0.1023439 0.1023694 0.1023804 0.102444 0.1025868
 0.1028005 0.1030767 0.1033961 0.1037096 0.1039797 0.1042401 0.1045615 0.1049392 0.1052635 0.1054349
 0.1054756 0.1054829 0.1055088 0.1055456 0.1056104 0.1057648 0.1060363 0.1063746 0.1067113 0.1070301
 0.1073564 0.1076989 0.1080201 0.1082577 0.1083719 0.1083782 0.1083434 0.1083516 0.1084671 0.1087073
 0.1090325 0.1093664 0.1096418 0.1098257 0.1099067 0.109888 0.1098186 0.1098015 0.109917 0.1101292
 0.110299 0.1103004 0.1101031 0.1097403 0.1092396 0.1086154 0.1079143 0.1072292 0.1066566 0.1062497
 0.106022 0.1059907 0.1061941 0.106647 0.1072855 0.1079855 0.108635 0.1091588 0.1094748 0.1094849
 0.1091495 0.1085461 0.1078207 0.1070945 0.1064273 0.1058278 0.105264 0.1047012 0.1041805 0.1038534
 0.1039089 0.1044616 0.1054977 0.1068865 0.1084184 0.1098668 0.1110788 0.1120363 0.1128264 0.1135468
 0.1142419 0.1149198 0.115592 0.1162639 0.1169027 0.1174594 0.1179249 0.1183386 0.1187381 0.1191251
 0.1194771 0.119771 0.1200042 0.120207 0.1204119 0.1205978 0.1206942 0.1206633 0.1205493 0.1204237
 0.1203049 0.1201506 0.1199054 0.1195448 0.1191064 0.118709 0.1185329 0.1187467 0.1194156 0.1204618
 0.1217198 0.1230359 0.124313 0.1254705 0.1264147 0.1270865 0.1275193 0.1278156 0.1280739 0.1283483
 0.1286528 0.1289766 0.1292966 0.1295964 0.1298774 0.1301569 0.1304574 0.1307874 0.1311243 0.131425
 0.1316696 0.1318928 0.1321618 0.1325138 0.1329153 0.1332931 0.1336104 0.1339011 0.1342117 0.1345287
 0.1347963 0.1349945 0.1351661 0.1353704 0.1356416 0.135981 0.1363519 0.1366871 0.1369355 0.1371107
 0.1372715 0.1374612 0.1376824 0.1379221 0.1381735 0.1384312 0.1386857 0.1389381 0.1392104 0.13952
 0.139841 0.1401108 0.1402921 0.1404184 0.1405609 0.1407558 0.1409786 0.1411859 0.1413692 0.1415659
 0.1418211 0.1421361 0.1424557 0.1427108 0.1428768 0.1429889 0.1431064 0.1432677 0.1434739 0.1437031
 0.1439307 0.1441419 0.1443359 0.1445248 0.1447241 0.1449385 0.1451587 0.145374 0.1455836 0.1457932
 0.1460046 0.146214 0.1464219 0.1466446 0.1469053 0.1472041 0.1475018 0.147749 0.1479315 0.1480754
 0.1482113 0.148351 0.1484973 0.1486568 0.1488363 0.1490344 0.1492428 0.149453 0.1496593 0.1498617
 0.1500651 0.1502748 0.1504907 0.1507072 0.1509214 0.1511406 0.1513738 0.1516163 0.1518486 0.1520551
 0.152239 0.1524157 0.1525964 0.1527803 0.1529595 0.1531307 0.153301 0.1534816 0.1536765 0.1538791
 0.1540804 0.1542767 0.1544707 0.154667 0.1548673 0.1550691 0.1552695 0.1554685 0.1556678 0.1558672
 0.1560654 0.1562612 0.1564542 0.156646 0.1568398 0.157039 0.1572444 0.1574542 0.1576648 0.1578724
 0.1580749 0.1582721 0.1584651 0.1586559 0.158847 0.1590377 0.1592256 0.1594132 0.1596063 0.1598059
 0.1600079 0.1602113 0.1604185 0.1606295 0.1608403 0.1610496 0.1612581 0.1614666 0.1616752 0.1618843
 0.162096 0.1623144 0.1625414 0.1627708 0.1629943 0.1632121 0.1634291 0.1636433 0.1638454 0.1640305
 0.1642014 0.1643658 0.1645315 0.1647033 0.1648825 0.1650696 0.1652629 0.1654539 0.1656341 0.1658082
 0.1659918 0.1661912 0.1663949 0.1665877 0.1667688 0.1669528 0.1671535 0.1673704 0.167592 0.1678101
 0.1680221 0.1682281 0.1684334 0.1686481 0.1688726 0.1690943 0.1693041 0.1695046 0.1697004 0.1698934
 0.1700889 0.1702936 0.1705107 0.170741 0.1709802 0.1712135 0.1714261 0.1716198 0.1718098 0.1720107
 0.17223 0.1724639 0.1726968 0.1729146 0.1731178 0.173314 0.1735076 0.173704 0.173909 0.1741222
 0.1743392 0.1745585 0.1747759 0.1749857 0.1751923 0.1754043 0.1756198 0.175833 0.1760471 0.1762651
 0.1764827 0.1766991 0.1769139 0.1771101 0.1772412 0.1771966 0.176708 0.1752481 0.1720124 0.1660721
 0.1567377 0.1439873 0.128625 0.1120006 0.09551522 0.08025377 0.06686907 0.05565535 0.04668363 0.0398942
 0.03515837 0.03237189 0.03154537 0.03290041 0.03698269 0.04433838 0.05428725 0.06384382 0.06888451 0.06740022
 0.06141377 0.05513675 0.0514773 0.05064356 0.05139811 0.05268142 0.05415305 0.05600002 0.05854841 0.06188594
 0.06584832 0.07042959 0.07597792 0.082752 0.09039479 0.09808526 0.1052456 0.1119916 0.1188529 0.126128
 0.1335686 0.140628 0.1468977 0.1523051 0.1570251 0.1612953 0.1652851 0.1690712 0.1726812 0.1761044
 0.1792234 0.1817808 0.1834977 0.1842847 0.1843472 0.1840746 0.1838118 0.183722 0.1838228 0.1840886
 0.1844979 0.1850312 0.1856698 0.1863925 0.1871689 0.1879685 0.1887716 0.189559 0.1903048 0.1909931
 0.1916294 0.1922247 0.1927829 0.1933039 0.1937851 0.1942203 0.1946095 0.1949655 0.195306 0.195643
 0.1959788 0.196304 0.1966029 0.1968695 0.1971145 0.1973507 0.1975804 0.1977988 0.198003 0.1981974
 0.1983925 0.1985953 0.1988015 0.1990015 0.1991914 0.1993766 0.1995671 0.1997738 0.1999984 0.2002266
 0.2004387 0.200629 0.2008087 0.2009928 0.2011879 0.2013884 0.2015802 0.2017562 0.201926 0.202106
 0.2023009 0.2025048 0.2027111 0.2029153 0.2031157 0.203318 0.2035291 0.203744 0.2039532 0.2041589
 0.2043704 0.2045885 0.2048068 0.2050237 0.2052364 0.2054325 0.2056028 0.2057595 0.2059329 0.2061429
 0.2063774 0.2066013 0.2067952 0.2069738 0.2071636 0.2073703 0.2075771 0.2077648 0.2079326 0.2081052
 0.2083138 0.2085603 0.2088156 0.2090585 0.2092938 0.2095304 0.2097694 0.2100151 0.2102641 0.2104846
 0.2106416 0.2107519 0.2108909 0.211132 0.2114772 0.2118506 0.212169 0.2124143 0.2126284 0.2128573
 0.2131224 0.2134036 0.2136149 0.2136613 0.2135828 0.2135847 0.2138472 0.2143446 0.2148996 0.2153698
 0.2157323 0.2160316 0.2163033 0.2165378 0.2166877 0.2167183 0.2166796 0.2167236 0.2169983 0.2174962
 0.2180473 0.2184925 0.2188075 0.2190415 0.2192277 0.2193846 0.2194846 0.2193974 0.2190269 0.2185713
 0.2184787 0.219013 0.2199521 0.2208239 0.2213748 0.2217002 0.2219779 0.222247 0.2224602 0.2225299
 0.2222281 0.2213148 0.2200152 0.219151 0.219462 0.2208567 0.2225568 0.2238759 0.2246519 0.2250647
 0.2253303 0.2255583 0.2256699 0.2254109 0.2246343 0.2236703 0.2232423 0.2238041 0.2250322 0.2261691
 0.2267969 0.2270631 0.2272753 0.2275528 0.2277468 0.2274083 0.2260443 0.2238431 0.22204 0.2220492
 0.2240809 0.2268865 0.2289963 0.2299875 0.2303668 0.2304778 0.2299937 0.228496 0.2260933 0.2233749
 0.2212256 0.2206993 0.222321 0.2252212 0.2276331 0.2286363 0.2289294 0.2296699 0.2310908 0.2325104
 0.2332232 0.2330467 0.2321943 0.2308832 0.2292361 0.2276591 0.2270547 0.2281741 0.2307084 0.2334089
 0.2352431 0.2361715 0.2366009 0.2361769 0.2335484 0.227994 0.2214468 0.2179528 0.2201 0.2263133
 0.2325465 0.236258 0.2378032 0.2385335 0.2389883 0.2387441 0.2366575 0.231484 0.2238299 0.2173874
 0.2164374 0.2216105 0.2291788 0.2345454 0.235376 0.2318404 0.2257921 0.2202208 0.2180279 0.2202657
 0.2256814 0.2319551 0.2370867 0.2399486 0.2402852 0.2386007 0.2361139 0.2344614 0.2345162 0.2350944
 0.2338549 0.230259 0.2264675 0.2241617 0.2219298 0.2178667 0.2137634 0.2139205 0.2195638 0.2267931
 0.2309677 0.231412 0.2305638 0.229537 0.2262101 0.2182744 0.2076018 0.2003242 0.2014698 0.2097386
 0.2186655 0.2229582 0.2227056 0.2214598 0.2215037 0.2215237 0.2184496 0.2114536 0.2039805 0.2008553
 0.2031518 0.2072347 0.2090595 0.2073891 0.2023871 0.1943465 0.1860168 0.1834092 0.1907209 0.2051994
 0.219308 0.2269258 0.225564 0.2150033 0.1981895 0.1830661 0.1787045 0.1871651 0.2009911 0.210075
 0.2096707 0.2012157 0.1880254 0.1730556 0.1602968 0.1551571 0.161214 0.1766041 0.1940631 0.204505
 0.2020223 0.1885109 0.1741579 0.1701106 0.1782817 0.1899934 0.1956978 0.1936509 0.1885342 0.1854492
 0.1869911 0.1927834 0.1998671 0.2054833 0.2092708 0.2101129 0.203166 0.1856752 0.1646559 0.1522727
 0.1532127 0.1622768 0.1740999 0.1879702 0.2015222 0.2074324 0.2016764 0.1911621 0.1878538 0.1960708
 0.2087937 0.2162607 0.215635 0.2115212 0.2088596 0.2076657 0.2054945 0.2031375 0.2048248 0.2123887
 0.222069 0.2287141 0.2311379 0.2316527 0.232138 0.2326156 0.2325805 0.2318577 0.2305166 0.228996
 0.2279735 0.2275971 0.2273446 0.2268184 0.2257174 0.2226148 0.2152548 0.2037183 0.1924568 0.1867651
 0.1871579 0.1897193 0.1919303 0.1941383 0.194117 0.1855426 0.1663499 0.1455823 0.1368112 0.1450206
 0.1628931 0.1791457 0.1871764 0.1856244 0.1749799 0.1577742 0.1412831 0.1352654 0.1440073 0.1622088
 0.1806509 0.1941438 0.2021292 0.2042788 0.1995109 0.1891253 0.1780676 0.1721007 0.1742886 0.18365
 0.1954955 0.2026421 0.1989221 0.1853116 0.17264 0.1736053 0.1894523 0.2079 0.2169462 0.2170212
 0.2161225 0.2173866 0.2175327 0.2155787 0.2163406 0.2238232 0.2353283 0.2441168 0.2453294 0.2379064
 0.2239568 0.2092414 0.2016785 0.2049648 0.2143067 0.2215758 0.223147 0.2194268 0.2100709 0.1960049
 0.1845045 0.1848162 0.1974508 0.2129847 0.2227706 0.22681 0.2298135 0.233082 0.2329319 0.2262833
 0.2158205 0.2083354 0.2080169 0.2127917 0.2178291 0.2206318 0.2210526 0.2184016 0.2118807 0.2038784
 0.1999961 0.2041744 0.2145916 0.2253433 0.2317028 0.2330703 0.231593 0.2293804 0.2270827 0.2240564
 0.2197749 0.215663 0.2148219 0.2187221 0.2248803 0.2294182 0.2315041 0.2336344 0.2377035 0.2423959
 0.2447935 0.2435675 0.2402418 0.2378552 0.2385164 0.2417347 0.2447912 0.2450544 0.2424805 0.2398924
 0.2403829 0.2443658 0.2495229 0.253446 0.2555975 0.2568001 0.2578244 0.258719 0.2587744 0.257055
 0.2537236 0.2508222 0.2508243 0.2541761 0.2588676 0.2625125 0.264282 0.2647643 0.2646367 0.2639608
 0.2625786 0.2607602 0.2592249 0.2585694 0.2588349 0.2596476 0.2606059 0.261461 0.2621039 0.2625412
 0.2628437 0.2630551 0.2631836 0.2632687 0.2633587 0.2634171 0.2633645 0.2632448 0.2632409 0.2634626
 0.2637968 0.2640311 0.2640488 0.2638214 0.2632821 0.262346 0.2610548 0.2595775 0.2580209 0.2563511
 0.2546166 0.2532097 0.2527592 0.2536561 0.2556863 0.2581573 0.2603701 0.2619689 0.2629426 0.2634417
 0.2636416 0.2636922 0.2636878 0.2636496 0.2635496 0.263361 0.2630837 0.2627349 0.2623362 0.2619202
 0.2615358 0.2612197 0.260959 0.2606933 0.2603627 0.2599481 0.2594689 0.2589557 0.2584239 0.2578602
 0.2572242 0.2564718 0.2555919 0.2546287 0.2536681 0.2527891 0.2520096 0.2512757 0.2505129 0.2496805
 0.2487651 0.2477461 0.2466195 0.2454591 0.244403 0.2435436 0.2428519 0.2422239 0.2415671 0.2408252
 0.2399671 0.2389992 0.2379692 0.2369212 0.2358553 0.2347456 0.2335727 0.2323222 0.230977 0.2295319
 0.2280007 0.2264033 0.2247612 0.2230987 0.2214166 0.2196536 0.2176871 0.2153732 0.2125837 0.2092287
 0.2052868 0.2008335 0.1960337 0.1910945 0.1862095 0.1815369 0.1772059 0.1733246 0.169978 0.167231
 0.1651381 0.1637402 0.1630553 0.1630805 0.1638014 0.1651857 0.1671661 0.1696319 0.1724343 0.175402
 0.1783637 0.1811733 0.1837453 0.1860852 0.1882713 0.1903698 0.1923641 0.1941847 0.1957904 0.1971917
 0.1984079 0.1994379 0.200281 0.2009624 0.2015285 0.2020203 0.2024547 0.2028315 0.2031511 0.2034192
 0.2036417 0.2038274 0.2039962 0.2041755 0.2043871 0.204639 0.2049279 0.2052521 0.2056236 0.2060551
 0.2065389 0.2070552 0.2075998 0.2081845 0.208812 0.2094775 0.2101966 0.2110086 0.21195 0.2130368
 0.2142672 0.2156162 0.21702 0.2183791 0.2195918 0.2205922 0.2213556 0.2218771 0.2221638 0.2222469
 0.2221809 0.2220132 0.2217602 0.2214149 0.2209694 0.2204304 0.2198251 0.2191909 0.218551 0.217899
 0.2172146 0.2164954 0.2157707 0.2150768 0.2144218 0.2137823 0.2131396 0.2125023 0.2118864 0.2112909
 0.2107057 0.2101287 0.2095616 0.2089994 0.2084326 0.2078459 0.2072087 0.2064835 0.2056512 0.2047197
 0.2037022 0.2025974 0.2013997 0.2001169 0.198766 0.1973532 0.1958657 0.1942868 0.1926165 0.1908726
 0.189066 0.1871831 0.1852099 0.183179 0.1811748 0.1792839 0.177547 0.1759567 0.1744845 0.1731022
 0.1717883 0.1705264 0.1693054 0.1681253 0.1669964 0.1659283 0.1649233 0.1639821 0.1631074 0.162301
 0.1615646 0.1609013 0.1603144 0.1598076 0.1593865 0.1590505 0.1587951 0.1586321 0.1585834 0.1586346
 0.1587164 0.1587504 0.1587008 0.1585785 0.1584228 0.15828 0.1581793 0.1581209 0.1580879 0.1580459
 0.1579272 0.1576371 0.1570885 0.1562273 0.1550396 0.1535528 0.1518326 0.1499823 0.1481379 0.146435
 0.1449651 0.1437721 0.1428676 0.1422158 0.141727 0.1413181 0.1409791 0.1407688 0.1407568 0.1409492
 0.1412369 0.1414506 0.1415166 0.1415362 0.1416841 0.1420653 0.142673 0.143418 0.144177 0.1448525
 0.1453974 0.1457929 0.1460443 0.1461923 0.1462735 0.1462746 0.1461645 0.1459438 0.1456395 0.1452854
 0.1449113 0.1445099 0.1440343 0.1434613 0.1428114 0.1420931 0.1412917 0.1404045 0.1394137 0.1382748
 0.13703 0.1358973 0.1351671 0.1350223 0.135452 0.1362751 0.1372649 0.1382983 0.1393189 0.1401503
 0.1405471 0.1405711 0.1407793 0.1418279 0.1438519 0.1463082 0.148446 0.1498584 0.1505548 0.1506658
 0.1502714 0.1494226 0.1481145 0.1462758 0.1439125 0.1411724 0.1382081 0.135139 0.1321602 0.1294931
 0.1272415 0.1254203 0.1240262 0.1230889 0.1227179 0.1225365 0.1206717 0.1147119 0.1054194 0.09842144
 0.09949353 0.108077 0.1176587 0.1226561 0.1228685 0.1212263 0.1197613 0.118773 0.1181617 0.118099
 0.1187378 0.1199308 0.1212777 0.1223806 0.1230857 0.1234345 0.1233753 0.1225276 0.1201348 0.1153364
 0.1078616 0.09861512 0.08936833 0.08173332 0.07642855 0.07330014 0.07170378 0.07088578 0.07034127 0.07003808
 0.0702932 0.0713972 0.07337366 0.07606354 0.07928089 0.08276182 0.08607852 0.08883351 0.09095758 0.09266205
 0.09409062 0.09515569 0.09571366 0.09575754 0.09540331 0.09478854 0.0940311 0.09321356 0.09232888 0.09127876
 0.09003374 0.08879867 0.0878997 0.08747548 0.08738193 0.08740468 0.08743926 0.08745977 0.087447 0.08738661
 0.08728607 0.08720616 0.08727926 0.08760992 0.08813046 0.08863003 0.0889423 0.08906391 0.08910036 0.08910223
 0.08893739 0.08841062 0.08758584 0.08682441 0.08632211 0.08577705 0.08478722 0.0834781 0.08245359 0.08213881
 0.0823874 0.08273503 0.0828402 0.08264992 0.08234475 0.08224221 0.08259358 0.08329061 0.08385175 0.08386306
</values></Ydata></ScRf><Data_Parameters_AB><parameter name="DPF">1</parameter><parameter name="NPT">3497</parameter><parameter name="FXV">3996</parameter><parameter name="LXV">500</parameter><parameter name="CSF">1</parameter><parameter name="MXY">0.0600039288401604</parameter><parameter name="MNY">-0.0842849761247635</parameter><parameter name="DAT">30/05/2022</parameter><parameter name="TIM">12:16:23.971 (GMT+2)</parameter><parameter name="DXU">WN</parameter></Data_Parameters_AB><AB__Qtest><MainReport name="Quality Test Report"><Header><Line><Legend>Test result ok/not ok [1/0]: </Legend><Value>0</Value></Line><Line><Legend>Method file: </Legend><Value>C:\Users\Public\Documents\Bruker\OPUS_8.2.28\QT\IRBT_v3_default.QT</Value></Line></Header><Matrix><Line><Legend></Legend><Legend>min</Legend><Legend>max</Legend><Legend>measured</Legend></Line><Line><Value>Absorption (X-Range 1):</Value><Value>0.400000</Value><Value>2.000000</Value><Value>0.085043</Value></Line><Line><Value>Noise (X-Range 4):</Value><Value></Value><Value>0.000300</Value><Value>0.000035</Value></Line><Line><Value>Signal/Noise (X-Range 2):</Value><Value>200.000000</Value><Value></Value><Value>31.039129</Value></Line><Line><Value>Signal/Noise (X-Range 3):</Value><Value>40.000000</Value><Value></Value><Value>24.708179</Value></Line><Line><Value>Water vapour (X-Range 5):</Value><Value></Value><Value>0.000300</Value><Value>0.000030</Value></Line><Line><Value>Signal/Water (X-Range 2):</Value><Value>100.000000</Value><Value></Value><Value>36.651116</Value></Line><Line><Value>Signal/Water (X-Range 3):</Value><Value>20.000000</Value><Value></Value><Value>29.175507</Value></Line><Line><Value>Fringes (X-Range 6):</Value><Value></Value><Value>0.000100</Value><Value>0.000063</Value></Line></Matrix></MainReport></AB__Qtest><Data_Parameters_ScSm><parameter name="DPF">1</parameter><parameter name="NPT">1814</parameter><parameter name="FXV">3996.33169228125</parameter><parameter name="LXV">499.541461535156</parameter><parameter name="CSF">1</parameter><parameter name="MXY">0.266658008098602</parameter><parameter name="MNY">0.0362018644809723</parameter><parameter name="DAT">30/05/2022</parameter><parameter name="TIM">12:16:23.971 (GMT+2)</parameter><parameter name="DXU">WN</parameter></Data_Parameters_ScSm><Data_Parameters_ScRf><parameter name="DPF">1</parameter><parameter name="NPT">1820</parameter><parameter name="FXV">4004.04661832813</parameter><parameter name="LXV">495.683998511719</parameter><parameter name="CSF">1</parameter><parameter name="MXY">0.264764308929443</parameter><parameter name="MNY">0.0315453708171844</parameter><parameter name="DAT">30/05/2022</parameter><parameter name="TIM">12:15:57.651 (GMT+2)</parameter><parameter name="DXU">WN</parameter></Data_Parameters_ScRf><Optic_Parameters_Rf><parameter name="APR">0</parameter><parameter name="APT">Open</parameter><parameter name="BMS">KBr</parameter><parameter name="DTC">RT-DLaTGS_IR-Biotyper [Microplate reader]</parameter><parameter name="HPF">0</parameter><parameter name="LPF">10.0</parameter><parameter name="LPV">4000</parameter><parameter name="PGR">0</parameter><parameter name="RCH">Module port</parameter><parameter name="RDX">0</parameter><parameter name="SRC">MIR</parameter><parameter name="VEL">10.0</parameter><parameter name="SON">Off</parameter></Optic_Parameters_Rf><Acquisition_Parameters_Rf><parameter name="ADT">1</parameter><parameter name="AQM">DD</parameter><parameter name="CFE">0</parameter><parameter name="COR">0</parameter><parameter name="DEL">0</parameter><parameter name="DLY">0</parameter><parameter name="HFW">8000</parameter><parameter name="LFW">0</parameter><parameter name="NSR">32</parameter><parameter name="PLF">AB</parameter><parameter name="RES">6</parameter><parameter name="RGN">-1</parameter><parameter name="STR">0</parameter><parameter name="TCL">MakeCompatibleScalar (0, {WSV=1.000000, ARV=0});</parameter><parameter name="TDL">37</parameter><parameter name="RPO">0</parameter></Acquisition_Parameters_Rf><FT_-_Parameters_Rf><parameter name="APF">B3</parameter><parameter name="HFQ">500</parameter><parameter name="LFQ">4000</parameter><parameter name="NLI">0</parameter><parameter name="PHR">24</parameter><parameter name="PHZ">ML</parameter><parameter name="SPZ">NO</parameter><parameter name="ZFF">1</parameter></FT_-_Parameters_Rf><Optic_Parameters_><parameter name="APR">0</parameter><parameter name="APT">Open</parameter><parameter name="BMS">KBr</parameter><parameter name="CHN">Module port</parameter><parameter name="DTC">RT-DLaTGS_IR-Biotyper [Microplate reader]</parameter><parameter name="HPF">0</parameter><parameter name="LPF">10.0</parameter><parameter name="LPV">4000</parameter><parameter name="PGN">0</parameter><parameter name="RDX">0</parameter><parameter name="SRC">MIR</parameter><parameter name="VEL">10.0</parameter><parameter name="SON">Off</parameter></Optic_Parameters_><FT_-_Parameters_><parameter name="APF">B3</parameter><parameter name="HFQ">500</parameter><parameter name="LFQ">4000</parameter><parameter name="NLI">0</parameter><parameter name="PHR">24</parameter><parameter name="PHZ">ML</parameter><parameter name="SPZ">NO</parameter><parameter name="ZFF">1</parameter></FT_-_Parameters_><Acquisition_Parameters_><parameter name="ADT">1</parameter><parameter name="AQM">DD</parameter><parameter name="CFE">0</parameter><parameter name="COR">0</parameter><parameter name="DEL">0</parameter><parameter name="DLY">0</parameter><parameter name="HFW">8000</parameter><parameter name="LFW">0</parameter><parameter name="NSS">32</parameter><parameter name="PLF">AB</parameter><parameter name="RES">6</parameter><parameter name="SOT">0</parameter><parameter name="TCL">MakeCompatibleScalar (0, {WSV=1.000000, ARV=0});</parameter><parameter name="TDL">37</parameter><parameter name="SPO">0</parameter><parameter name="SGN">-1</parameter></Acquisition_Parameters_><Instrument_Parameters_Rf><parameter name="HFL">15800.168544</parameter><parameter name="LFL">0</parameter><parameter name="LWN">15800.168544</parameter><parameter name="ABP">32197</parameter><parameter name="SSP">1</parameter><parameter name="ARG">2</parameter><parameter name="ASG">2</parameter><parameter name="ASS">32</parameter><parameter name="GFW">16</parameter><parameter name="GBW">16</parameter><parameter name="BFW">0</parameter><parameter name="BBW">0</parameter><parameter name="PKA">7284</parameter><parameter name="PKL">4996</parameter><parameter name="PRA">7456</parameter><parameter name="PRL">5001</parameter><parameter name="P2A">1</parameter><parameter name="P2L">1</parameter><parameter name="P2R">1</parameter><parameter name="P2K">1</parameter><parameter name="DAQ">0</parameter><parameter name="AG2">1</parameter><parameter name="SSM">1</parameter><parameter name="RSN">25314</parameter><parameter name="CRR">0</parameter><parameter name="SRT">1653912957.651</parameter><parameter name="DUR">19.6379852294922</parameter><parameter name="TSC">28.2</parameter><parameter name="MVD">0.880494117736816</parameter><parameter name="AN1">0.225817636186328</parameter><parameter name="AN2">0</parameter><parameter name="VSN">2.485 Apr  4 2017</parameter><parameter name="SRN">0085</parameter><parameter name="CAM">0</parameter><parameter name="INS">IR-Biotyper</parameter><parameter name="FOC">69</parameter><parameter name="RDY">1</parameter><parameter name="ARS">32</parameter></Instrument_Parameters_Rf><Sample_Parameters_><parameter name="BLD"></parameter><parameter name="CNM">Admin</parameter><parameter name="CPY"></parameter><parameter name="DPM"></parameter><parameter name="EXP">IRBT_v3_32Scans.XPM</parameter><parameter name="LCT"></parameter><parameter name="SFM">Microplate, HTS-XT</parameter><parameter name="SNM">220530-1021_SPB34F (D_2_2)_H10_0eade2a1-9b9f-4ace-b7d4-08e6275f9eb8.0</parameter><parameter name="XPP">C:\Users\Public\Documents\Bruker\OPUS_8.2.28\XPM</parameter><parameter name="IST">OK</parameter><parameter name="CPG">1252</parameter><parameter name="UID">a54ea8df-85ce-4a11-91d1-83f73bfb50e5</parameter></Sample_Parameters_><Instrument_Parameters_><parameter name="HFL">15800.168544</parameter><parameter name="LFL">0</parameter><parameter name="LWN">15800.168544</parameter><parameter name="ABP">32197</parameter><parameter name="SSP">1</parameter><parameter name="ASG">2</parameter><parameter name="ARG">2</parameter><parameter name="ASS">32</parameter><parameter name="GFW">16</parameter><parameter name="GBW">16</parameter><parameter name="BFW">0</parameter><parameter name="BBW">0</parameter><parameter name="PKA">7703</parameter><parameter name="PKL">4988</parameter><parameter name="PRA">8020</parameter><parameter name="PRL">4993</parameter><parameter name="P2A">1</parameter><parameter name="P2L">1</parameter><parameter name="P2R">1</parameter><parameter name="P2K">1</parameter><parameter name="DAQ">0</parameter><parameter name="AG2">1</parameter><parameter name="SSM">1</parameter><parameter name="RSN">13283</parameter><parameter name="CRR">0</parameter><parameter name="SRT">1653912983.972</parameter><parameter name="DUR">19.6379852294922</parameter><parameter name="TSC">28.2</parameter><parameter name="MVD">2.50294065475464</parameter><parameter name="AN1">0.22579561913665</parameter><parameter name="AN2">0</parameter><parameter name="VSN">2.485 Apr  4 2017</parameter><parameter name="SRN">0085</parameter><parameter name="CAM">0</parameter><parameter name="INS">IR-Biotyper</parameter><parameter name="FOC">69</parameter><parameter name="RDY">1</parameter></Instrument_Parameters_><History/></OPUSDataFile>
