<?xml version="1.0" encoding="UTF-8" ?>
<OPUSDataFile><AB><Ydata ylabel="Absorbance Units"><values byteorder="INTEL" format="FLOAT32" numvalues="3497"> -0.07997883 -0.07997321 -0.07997473 -0.07998414 -0.07998984 -0.07999127 -0.07998476 -0.07997057 -0.07995089 -0.0799265
 -0.07990289 -0.07988054 -0.07986458 -0.07985363 -0.07984701 -0.07984345 -0.07984 -0.07983783 -0.07983759 -0.07983902
 -0.07984386 -0.0798457 -0.07984158 -0.079827 -0.07979759 -0.07976086 -0.07971658 -0.07967819 -0.07964817 -0.07963198
 -0.07963074 -0.07964143 -0.07966393 -0.07969 -0.07971866 -0.07973508 -0.07973853 -0.0797151 -0.07966864 -0.07960348
 -0.07952777 -0.0794635 -0.07941413 -0.0793977 -0.07940675 -0.07944174 -0.07948937 -0.07953968 -0.07958288 -0.07961069
 -0.07962005 -0.07960753 -0.07957514 -0.07952213 -0.07945412 -0.07937138 -0.07928196 -0.07918624 -0.0790959 -0.0790116
 -0.07894851 -0.07890704 -0.07889745 -0.07891738 -0.0789592 -0.07901798 -0.0790716 -0.07911813 -0.07914021 -0.07914278
 -0.07912435 -0.07909516 -0.07906611 -0.07904505 -0.07904452 -0.0790587 -0.07909166 -0.07912225 -0.07914392 -0.07914005
 -0.07910204 -0.07903942 -0.07895012 -0.07886235 -0.07877857 -0.07872039 -0.0786892 -0.07868591 -0.0787093 -0.07874312
 -0.0787854 -0.07881541 -0.07883333 -0.07882807 -0.07880255 -0.07875789 -0.0786976 -0.07862724 -0.0785511 -0.07847565
 -0.07840542 -0.07834751 -0.07829931 -0.0782638 -0.07822817 -0.07818784 -0.07813549 -0.07806511 -0.07799225 -0.0779171
 -0.07786418 -0.077837 -0.07783801 -0.07786769 -0.07790272 -0.07794223 -0.07796798 -0.07798227 -0.07799048 -0.07799531
 -0.07801094 -0.0780351 -0.07807069 -0.07811124 -0.07814629 -0.07817379 -0.07818496 -0.07818685 -0.07818276 -0.07817693
 -0.07817484 -0.0781698 -0.07815987 -0.07814223 -0.0781126 -0.07808772 -0.07806832 -0.07807913 -0.07812426 -0.07820238
 -0.07831418 -0.07838992 -0.07842575 -0.07834271 -0.07815363 -0.07790143 -0.07760248 -0.07734367 -0.07712447 -0.07698751
 -0.07692418 -0.07694353 -0.07702442 -0.07715137 -0.07729014 -0.07740711 -0.07748304 -0.07749001 -0.07745207 -0.07736868
 -0.07727714 -0.07719025 -0.07711385 -0.07705233 -0.07699309 -0.07693446 -0.07687759 -0.07682236 -0.07678242 -0.0767578
 -0.0767516 -0.07676116 -0.0767707 -0.07677783 -0.07676341 -0.07673059 -0.07667676 -0.07660801 -0.0765346 -0.07645803
 -0.07638439 -0.0763128 -0.07624318 -0.07617892 -0.07612094 -0.0760752 -0.07604494 -0.0760306 -0.07603481 -0.07604632
 -0.07606439 -0.07607425 -0.07607378 -0.07605972 -0.07603168 -0.07599489 -0.07594933 -0.07589514 -0.07583153 -0.07575242
 -0.07565892 -0.07555065 -0.07543232 -0.07531535 -0.07520396 -0.0751128 -0.07503781 -0.07498243 -0.07493425 -0.07488286
 -0.07482374 -0.07474709 -0.0746685 -0.07459096 -0.07453094 -0.07449695 -0.07447906 -0.07447843 -0.07447296 -0.07445922
 -0.07443728 -0.07440672 -0.0743863 -0.07437638 -0.07438561 -0.0744113 -0.07443945 -0.0744673 -0.07447511 -0.07446552
 -0.07443445 -0.0743876 -0.07433359 -0.0742752 -0.07421935 -0.07416661 -0.07411744 -0.07407922 -0.07405368 -0.07405601
 -0.07409474 -0.07417066 -0.07429244 -0.07442088 -0.07455353 -0.07463737 -0.07466388 -0.07463033 -0.07453565 -0.07440541
 -0.07423989 -0.07404196 -0.07381327 -0.07356348 -0.07330059 -0.07306239 -0.07285382 -0.07271009 -0.07262364 -0.07260303
 -0.07262356 -0.07265892 -0.07268839 -0.07267892 -0.07264179 -0.07257137 -0.07249203 -0.07241322 -0.07234776 -0.07230309
 -0.0722738 -0.07226212 -0.07224716 -0.07222714 -0.07218303 -0.0721132 -0.07201994 -0.0719045 -0.07179053 -0.0716797
 -0.0715977 -0.07153992 -0.07150592 -0.07148139 -0.07142568 -0.07133597 -0.07117993 -0.07098357 -0.07076706 -0.07055035
 -0.07036389 -0.07019709 -0.0700559 -0.06991449 -0.06976204 -0.06958775 -0.06938285 -0.06916329 -0.06892969 -0.06870215
 -0.06848393 -0.06827722 -0.06808273 -0.06788421 -0.06768101 -0.0674589 -0.06722004 -0.06697398 -0.06672277 -0.06648108
 -0.0662461 -0.06601654 -0.06579227 -0.06557121 -0.06535742 -0.06515726 -0.0649675 -0.06479192 -0.06461254 -0.06442104
 -0.06419969 -0.06393784 -0.06363188 -0.06327885 -0.06287799 -0.06242783 -0.0619343 -0.06139645 -0.0608362 -0.06025481
 -0.0596721 -0.05908884 -0.05851704 -0.05795759 -0.05742376 -0.05691466 -0.05643635 -0.05598186 -0.05553517 -0.05509146
 -0.05463121 -0.05416138 -0.05368446 -0.05320264 -0.05272566 -0.0522312 -0.05170877 -0.05114057 -0.05050896 -0.04983854
 -0.04913135 -0.04841562 -0.04769868 -0.04698549 -0.04627764 -0.0455737 -0.04487352 -0.04418193 -0.04349951 -0.04283871
 -0.04219936 -0.04158938 -0.0410021 -0.040417 -0.03982087 -0.03916172 -0.03844487 -0.03764605 -0.03680161 -0.03595268
 -0.03511526 -0.03432478 -0.03356377 -0.03283102 -0.03211184 -0.03139773 -0.03068833 -0.02998222 -0.02927951 -0.02858137
 -0.0278787 -0.02717152 -0.02644295 -0.02569207 -0.02489758 -0.02405914 -0.02317164 -0.02223906 -0.02128946 -0.02032729
 -0.01938764 -0.01846931 -0.0175872 -0.01673755 -0.01592199 -0.01513263 -0.01436297 -0.01359768 -0.0128197 -0.01202237
 -0.01119244 -0.01034393 -0.009480953 -0.008609972 -0.00773779 -0.006845135 -0.00592791 -0.004980579 -0.003998161 -0.003021841
 -0.002053906 -0.001135045 -0.0002655773 0.0005597617 0.001344879 0.002122224 0.002895032 0.003695935 0.004522188 0.005386569
 0.006276268 0.007172929 0.008066543 0.008930729 0.009777579 0.0106042 0.01143799 0.01229829 0.01319275 0.01413507
 0.01510158 0.01608848 0.01707501 0.01805557 0.01902465 0.01998105 0.02092102 0.02184406 0.02275197 0.02364523
 0.02453633 0.02542612 0.02632719 0.02723892 0.02816556 0.02910521 0.03005553 0.03101311 0.03197069 0.03292514
 0.03386801 0.03480162 0.035724 0.03664162 0.03755793 0.03847794 0.03940551 0.04033997 0.04128404 0.04222538
 0.04316343 0.0440791 0.04496888 0.04583104 0.04666432 0.04749547 0.04832581 0.04918122 0.0500599 0.05095852
 0.05187333 0.05278496 0.05369323 0.0545873 0.05546986 0.05634043 0.05720323 0.05806372 0.05892485 0.0597935
 0.06066376 0.06153534 0.06239756 0.06324374 0.06407504 0.06488906 0.0656957 0.06649759 0.06729451 0.06808702
 0.06887057 0.0696445 0.07041644 0.07118677 0.07196346 0.07274558 0.07352804 0.0743106 0.07508902 0.07586484
 0.07664186 0.07741812 0.07819262 0.07896041 0.07971378 0.08045077 0.08116607 0.08186161 0.08253512 0.08319556
 0.08384305 0.08449809 0.08516703 0.08586325 0.08659424 0.08734205 0.08810681 0.08885769 0.08959185 0.09030163
 0.09098711 0.09166023 0.09232116 0.0929763 0.09362455 0.09426345 0.09489331 0.09551276 0.09612507 0.09673488
 0.09734801 0.09797569 0.09861789 0.09928343 0.09995504 0.1006259 0.101276 0.1018901 0.102475 0.1030261
 0.1035689 0.10411 0.104655 0.1052073 0.1057506 0.1062835 0.1068006 0.1073021 0.1078052 0.108311
 0.1088381 0.109385 0.1099551 0.1105442 0.1111423 0.1117452 0.1123391 0.1129237 0.1134927 0.1140477
 0.1145896 0.1151155 0.1156243 0.116111 0.1165711 0.117009 0.1174235 0.1178257 0.1182172 0.1186079
 0.1189987 0.1194002 0.1198133 0.1202448 0.1206948 0.1211538 0.1216203 0.1220767 0.1225244 0.1229611
 0.12339 0.1238207 0.1242513 0.1246827 0.1251106 0.1255273 0.1259354 0.1263335 0.126728 0.1271246
 0.127521 0.1279213 0.1283082 0.1286785 0.1290127 0.1293031 0.1295563 0.1297687 0.1299829 0.1302019
 0.1304587 0.1307536 0.1310574 0.1313649 0.1316116 0.1318012 0.1319115 0.1319595 0.131985 0.1320027
 0.1320647 0.1321704 0.1323441 0.1325711 0.1328476 0.1331545 0.1334758 0.1338055 0.1341319 0.1344745
 0.1348367 0.1352369 0.1356866 0.1361536 0.1366406 0.1370674 0.1374275 0.1376649 0.1377782 0.1377942
 0.1377201 0.1376373 0.1375474 0.1375038 0.1374955 0.1375145 0.1375568 0.1376044 0.137674 0.1377842
 0.1379435 0.1381785 0.1384559 0.1387664 0.1390627 0.1393123 0.1395183 0.1396658 0.1398094 0.1399583
 0.140154 0.1404079 0.1407023 0.141039 0.1413555 0.1416484 0.1418531 0.1419703 0.1419769 0.1418851
 0.1417383 0.1415568 0.141428 0.1413622 0.1414301 0.1416129 0.141923 0.1423125 0.1427418 0.1431609
 0.1435175 0.1438023 0.1439871 0.1441176 0.1441979 0.1442879 0.1444029 0.144571 0.144799 0.1450937
 0.1454556 0.1459002 0.1464279 0.1470434 0.1477407 0.1484656 0.1492029 0.1498456 0.1503864 0.1507369
 0.1509192 0.1509252 0.1508089 0.1506407 0.1504754 0.1504027 0.1504288 0.1506019 0.1508561 0.1511841
 0.1514826 0.1517169 0.1518161 0.151751 0.1515297 0.1511426 0.1506675 0.1501085 0.1495565 0.1490158
 0.1485359 0.1481156 0.1477577 0.1474594 0.1472075 0.1470012 0.1468324 0.1466967 0.1465863 0.1464845
 0.14637 0.1462102 0.1459664 0.1456068 0.1450895 0.1444239 0.1435896 0.1426568 0.1416362 0.1406182
 0.1396259 0.13871 0.1378835 0.1371477 0.1365048 0.1359305 0.1354231 0.134936 0.1344658 0.1339547
 0.1334066 0.1328055 0.1321678 0.1315418 0.1309336 0.1303902 0.1298841 0.1293971 0.1288948 0.1283237
 0.1276965 0.1269915 0.1262753 0.125571 0.1249437 0.1244272 0.1240266 0.1237596 0.1235576 0.123419
 0.1232395 0.1230098 0.1226592 0.1221844 0.1215994 0.1209111 0.1201988 0.1194683 0.1187931 0.1181675
 0.1176131 0.1171173 0.116663 0.1162419 0.1158334 0.1154361 0.1150415 0.1146488 0.1142564 0.1138591
 0.1134547 0.113037 0.1126025 0.112152 0.1116837 0.1112065 0.1107207 0.1102362 0.1097538 0.1092804
 0.1088163 0.1083644 0.1079242 0.10749 0.1070603 0.1066231 0.106179 0.1057226 0.1052584 0.1047943
 0.1043316 0.1038785 0.1034271 0.1029733 0.1025072 0.102018 0.1015076 0.1009711 0.100423 0.0998669
 0.09931599 0.09877537 0.09824487 0.09772601 0.09720955 0.09669465 0.09617671 0.09565553 0.09513551 0.09461683
 0.09410363 0.09359487 0.09308693 0.09257835 0.09206171 0.09153774 0.0910037 0.09046281 0.08991851 0.08937456
 0.08883544 0.0883064 0.08778962 0.08729916 0.08683892 0.08643339 0.08609423 0.08582745 0.08564608 0.08549538
 0.08537624 0.08518425 0.08490954 0.08448252 0.08389944 0.08319629 0.08238165 0.08157036 0.08076996 0.08008593
 0.07951041 0.07907912 0.07876516 0.07853109 0.07833954 0.07811386 0.07783379 0.07743704 0.0769519 0.07636923
 0.07575402 0.07513919 0.07456353 0.07405651 0.07359621 0.07318394 0.07278866 0.07240022 0.07204372 0.07171801
 0.07148714 0.07135448 0.07133859 0.07143288 0.07156218 0.07171215 0.07175816 0.07169937 0.0714572 0.07106099
 0.07053285 0.06991711 0.06929884 0.06869461 0.06816497 0.06768191 0.06724382 0.06682201 0.06639128 0.06597126
 0.06555942 0.06519385 0.06489026 0.06463385 0.06442991 0.06421737 0.06398939 0.06372455 0.06342135 0.06313067
 0.06285532 0.06264856 0.06250449 0.06241608 0.06237347 0.06233576 0.06230329 0.06225584 0.06219956 0.06213928
 0.06206976 0.06199286 0.0618853 0.06173349 0.06150782 0.06118681 0.06076092 0.06021243 0.05958254 0.05886761
 0.05816032 0.05747214 0.0568906 0.05642898 0.05609106 0.05587785 0.05569575 0.05553846 0.05529517 0.05497053
 0.05453054 0.05399587 0.05342167 0.0528257 0.05228197 0.0517862 0.05136863 0.05100729 0.05068949 0.05039478
 0.05010226 0.04980222 0.04948234 0.04914551 0.04878655 0.04842592 0.04806581 0.04773331 0.04743632 0.04716779
 0.04693111 0.04666961 0.04638023 0.04601408 0.04557373 0.0450844 0.04455516 0.04405887 0.04359192 0.04318526
 0.04281772 0.04245136 0.0420756 0.04164775 0.04118839 0.04070147 0.04021662 0.03976264 0.03934544 0.03897881
 0.03865058 0.03835686 0.03809785 0.03787053 0.03769037 0.03756091 0.03748318 0.03746011 0.03745764 0.03747416
 0.03745108 0.03738581 0.03722822 0.03698145 0.03663541 0.03620328 0.03572414 0.03521691 0.03474657 0.0343252
 0.03400543 0.03378148 0.03367123 0.03365256 0.03371553 0.03383614 0.03399802 0.03418874 0.03439966 0.03462731
 0.03487016 0.0351224 0.03538296 0.03564651 0.0359109 0.03619218 0.03649087 0.03685141 0.03727586 0.03780531
 0.03843531 0.03916145 0.03997109 0.04081474 0.04168329 0.0425266 0.04334944 0.04413567 0.04489752 0.04564454
 0.04638207 0.04711931 0.04785266 0.0485822 0.04930568 0.05002172 0.05073153 0.05143715 0.05212921 0.05280973
 0.05344684 0.05403907 0.05454233 0.0549539 0.05524408 0.05541318 0.05546219 0.05539451 0.05523177 0.05497773
 0.05465522 0.0542719 0.05385274 0.05341659 0.053003 0.0526359 0.05236135 0.0521866 0.05213831 0.05219721
 0.05236264 0.05260633 0.05291684 0.05327738 0.05368086 0.05412203 0.05459896 0.05511023 0.05565585 0.05623193
 0.05683853 0.05745286 0.05807173 0.05864117 0.05915653 0.0595573 0.05984751 0.06000638 0.06004931 0.06000551
 0.05988474 0.05972522 0.05950812 0.05923662 0.05885949 0.05834173 0.05762526 0.05666383 0.05543724 0.05391435
 0.0521464 0.05012665 0.04797487 0.04570229 0.04345389 0.04124527 0.03918589 0.03728401 0.03557291 0.03405064
 0.03268416 0.03146869 0.03035581 0.02934545 0.02841329 0.02755874 0.02677239 0.02604311 0.0253491 0.02467625
 0.02399434 0.02330885 0.02260767 0.02192068 0.02125998 0.02065419 0.02012004 0.01966225 0.01928701 0.01898358
 0.01875058 0.01858226 0.01847716 0.01844107 0.01847431 0.01858142 0.01876094 0.01899082 0.01926272 0.01951108
 0.01972392 0.01981583 0.01978718 0.01958772 0.01924298 0.01876816 0.01820539 0.01761027 0.01701892 0.01648218
 0.01601379 0.01563895 0.01534743 0.01514323 0.01500464 0.01492668 0.01489354 0.0149017 0.01494337 0.01501971
 0.01510082 0.01518624 0.01518612 0.01509314 0.01477098 0.01421651 0.01333121 0.01213862 0.01066683 0.008969421
 0.007195691 0.00539492 0.003732556 0.002208035 0.0008991174 -0.0002478431 -0.00124933 -0.002162869 -0.003032779 -0.003873329
 -0.004705734 -0.005508036 -0.00627838 -0.006996758 -0.007657729 -0.008259877 -0.008801555 -0.009293643 -0.00973652 -0.01014825
 -0.01052997 -0.01090309 -0.01126796 -0.01163831 -0.01201167 -0.0123863 -0.01275739 -0.01311155 -0.01344526 -0.01374422
 -0.01401197 -0.01424367 -0.0144542 -0.01465203 -0.01485767 -0.01508741 -0.01534779 -0.01565075 -0.01597378 -0.01631689
 -0.01664082 -0.0169376 -0.01718592 -0.01737971 -0.01753899 -0.01766409 -0.01779755 -0.0179406 -0.01811473 -0.0183164
 -0.018529 -0.01874951 -0.01895356 -0.01914768 -0.01933556 -0.01952787 -0.01974906 -0.01999734 -0.02028465 -0.02059373
 -0.02091499 -0.02122982 -0.02152379 -0.02178761 -0.02201325 -0.02220043 -0.02234496 -0.02246135 -0.02254841 -0.02263993
 -0.02273912 -0.02287683 -0.02305603 -0.02327247 -0.02352465 -0.02377812 -0.02403163 -0.02425862 -0.02446264 -0.02464451
 -0.02480817 -0.02496572 -0.02511667 -0.02526583 -0.02541127 -0.02555166 -0.0256877 -0.02581988 -0.02594786 -0.02607311
 -0.02618947 -0.02629481 -0.02638395 -0.02645241 -0.02651071 -0.02655755 -0.02661971 -0.02670022 -0.02681821 -0.02697586
 -0.02716258 -0.02737702 -0.02758888 -0.02779737 -0.02798172 -0.02814497 -0.02828892 -0.0284173 -0.02854212 -0.02866337
 -0.02878784 -0.02891102 -0.0290299 -0.02914028 -0.02923516 -0.02931916 -0.02938962 -0.02946374 -0.02954719 -0.02965644
 -0.02979989 -0.02997405 -0.0301823 -0.03040111 -0.03062839 -0.03084305 -0.03104308 -0.03122753 -0.03139677 -0.03156249
 -0.03172483 -0.03189056 -0.03205816 -0.03222415 -0.03238797 -0.03254556 -0.03269881 -0.03284958 -0.03299928 -0.03315137
 -0.0333041 -0.03345704 -0.03360858 -0.03375665 -0.03390368 -0.03405011 -0.03419837 -0.03435026 -0.03450203 -0.03465378
 -0.03479848 -0.03493494 -0.03506225 -0.03518002 -0.0352954 -0.03540868 -0.03552568 -0.03564542 -0.03576286 -0.03587591
 -0.03597153 -0.03605085 -0.03610804 -0.03615067 -0.03618956 -0.03623344 -0.03629993 -0.03638969 -0.03651147 -0.03665723
 -0.03682488 -0.03700595 -0.03719626 -0.03739056 -0.03758701 -0.03778037 -0.03796971 -0.03814917 -0.03831765 -0.03847399
 -0.03861781 -0.03875467 -0.03888492 -0.03901589 -0.03914749 -0.03928235 -0.03941934 -0.0395546 -0.03968726 -0.03981231
 -0.03993084 -0.04004233 -0.04014882 -0.04025303 -0.04035587 -0.04045904 -0.04056323 -0.04066903 -0.04077787 -0.04089116
 -0.04100706 -0.04112623 -0.04124232 -0.04135385 -0.0414585 -0.04155497 -0.041651 -0.04174693 -0.04185227 -0.0419672
 -0.04209169 -0.04222476 -0.04235808 -0.04249109 -0.04261651 -0.04273545 -0.04284696 -0.04295335 -0.04305879 -0.04316474
 -0.04327541 -0.04338997 -0.04350942 -0.04363169 -0.04375513 -0.04388043 -0.04400719 -0.04413756 -0.04427296 -0.04441062
 -0.04455099 -0.0446864 -0.04481576 -0.04493526 -0.04504424 -0.0451475 -0.04524533 -0.04534431 -0.04544439 -0.04554759
 -0.04565375 -0.04576304 -0.04587588 -0.04599417 -0.04611712 -0.046245 -0.04637448 -0.04650093 -0.0466224 -0.04673404
 -0.04683938 -0.04693871 -0.04703734 -0.04713907 -0.04724176 -0.0473468 -0.04744532 -0.04753511 -0.04761365 -0.04767917
 -0.04774247 -0.04780404 -0.0478777 -0.04796387 -0.04806526 -0.04818077 -0.04830181 -0.04842745 -0.04854858 -0.0486655
 -0.04877431 -0.04887589 -0.04896978 -0.04905776 -0.04914144 -0.04922432 -0.04931046 -0.04940187 -0.04950228 -0.04960823
 -0.04971959 -0.04983111 -0.04994056 -0.05004751 -0.05015127 -0.05025393 -0.05035612 -0.05045531 -0.05055147 -0.05063977
 -0.05072014 -0.0507937 -0.05086125 -0.05093075 -0.05100248 -0.05108248 -0.05116923 -0.05126157 -0.05135748 -0.05145203
 -0.05154473 -0.05163229 -0.05171655 -0.05179762 -0.05187887 -0.05196263 -0.05205113 -0.05214658 -0.05224748 -0.05235462
 -0.0524624 -0.05256987 -0.0526724 -0.05276882 -0.05286053 -0.05294736 -0.05303549 -0.05312517 -0.05321949 -0.05331798
 -0.05341724 -0.05351685 -0.05361248 -0.05370487 -0.05379416 -0.05388087 -0.0539664 -0.05405041 -0.05413252 -0.05421394
 -0.05429499 -0.05437911 -0.05446919 -0.05456585 -0.05467119 -0.05478044 -0.05489261 -0.05500343 -0.0551113 -0.05521706
 -0.05532046 -0.05542409 -0.05552829 -0.05563213 -0.05573549 -0.05583417 -0.05592806 -0.05601418 -0.05609337 -0.05616771
 -0.05623897 -0.05631382 -0.05639317 -0.05648294 -0.05658118 -0.05668838 -0.05680018 -0.05691244 -0.05702184 -0.05712429
 -0.05722 -0.05730753 -0.05738989 -0.05746748 -0.05754397 -0.05762016 -0.05769882 -0.05778039 -0.05786696 -0.0579588
 -0.05805643 -0.05815985 -0.0582667 -0.05837652 -0.05848374 -0.05858796 -0.05868403 -0.05877229 -0.05885067 -0.05892065
 -0.05898378 -0.05904278 -0.05910185 -0.05916408 -0.05923478 -0.05931372 -0.05940364 -0.0594991 -0.05959855 -0.05969644
 -0.05978993 -0.05987924 -0.05996347 -0.06004643 -0.06012862 -0.06021202 -0.06029691 -0.06038289 -0.06046995 -0.06055724
 -0.06064459 -0.06072994 -0.06081302 -0.06089122 -0.06096489 -0.06103374 -0.06109849 -0.06116072 -0.06122049 -0.06127841
 -0.06133479 -0.06138944 -0.06144488 -0.06150245 -0.06156522 -0.06163561 -0.06171298 -0.06179855 -0.06188698 -0.0619776
 -0.06206447 -0.06214637 -0.06222203 -0.06229101 -0.06235787 -0.06242286 -0.06249125 -0.06256294 -0.06263878 -0.06271803
 -0.06279717 -0.06287581 -0.06295061 -0.06302221 -0.06309016 -0.06315587 -0.06322118 -0.0632873 -0.06335659 -0.06342842
 -0.06350357 -0.0635794 -0.06365479 -0.06372777 -0.06379716 -0.0638634 -0.06392641 -0.06398674 -0.06404462 -0.0640986
 -0.0641484 -0.06419562 -0.06424042 -0.0642916 -0.06434964 -0.06442327 -0.06451138 -0.06461287 -0.06472564 -0.06484149
 -0.06496129 -0.06508167 -0.06520768 -0.06534513 -0.06549906 -0.06567702 -0.06588158 -0.06611567 -0.06638437 -0.06668846
 -0.06704082 -0.06744567 -0.06791322 -0.06844892 -0.06904422 -0.06970096 -0.07039161 -0.07111496 -0.07183432 -0.07254744
 -0.07320142 -0.07379209 -0.07425372 -0.07458651 -0.07475386 -0.07476593 -0.07463769 -0.07437671 -0.07400344 -0.07353015
 -0.07297297 -0.07237332 -0.0717767 -0.0712264 -0.0707701 -0.07042495 -0.07021221 -0.07013381 -0.07019772 -0.07038924
 -0.07071547 -0.07111143 -0.07157594 -0.07199609 -0.07236046 -0.07261176 -0.0727472 -0.0728058 -0.07279103 -0.0727552
 -0.07269743 -0.07264002 -0.07257877 -0.07251149 -0.07243489 -0.07233874 -0.07222638 -0.07209685 -0.07195858 -0.07182189
 -0.07168777 -0.07156245 -0.07143731 -0.07130834 -0.07117347 -0.07102799 -0.07088629 -0.0707502 -0.07063498 -0.0705448
 -0.07047556 -0.07042837 -0.07038007 -0.07032949 -0.07025857 -0.07016873 -0.07007072 -0.06996849 -0.06989126 -0.06983806
 -0.06982333 -0.06983861 -0.06987204 -0.06991613 -0.06995215 -0.06998132 -0.06999692 -0.07000516 -0.07000911 -0.07001197
 -0.07001657 -0.07002282 -0.07003096 -0.07004193 -0.07005604 -0.07007379 -0.07009571 -0.07011843 -0.07014167 -0.07016245
 -0.07018058 -0.07020091 -0.07022405 -0.07025988 -0.07030803 -0.07037261 -0.07045073 -0.07053494 -0.07062218 -0.07070092
 -0.0707716 -0.07082909 -0.07087693 -0.07091697 -0.07095249 -0.07098671 -0.07102104 -0.07105715 -0.07109515 -0.07113562
 -0.0711775 -0.07122088 -0.07126335 -0.07130447 -0.07134299 -0.07137855 -0.0714132 -0.07144701 -0.07148361 -0.07152298
 -0.0715663 -0.07161286 -0.07165913 -0.07170448 -0.07174424 -0.07177962 -0.07181052 -0.07183974 -0.07187215 -0.07190847
 -0.07195264 -0.07200059 -0.07205119 -0.07209846 -0.07213841 -0.07216937 -0.07218885 -0.07220124 -0.07220645 -0.07221212
 -0.07221927 -0.07223457 -0.0722589 -0.07229482 -0.07234251 -0.07239918 -0.07246435 -0.07253139 -0.07259973 -0.07266258
 -0.07272005 -0.07276861 -0.07280957 -0.0728441 -0.07287391 -0.07290247 -0.0729305 -0.07296041 -0.07299156 -0.07302415
 -0.07305772 -0.07309187 -0.07312693 -0.07316276 -0.07320048 -0.07324021 -0.07328346 -0.07333057 -0.07338203 -0.07343817
 -0.07349607 -0.07355561 -0.0736117 -0.07366427 -0.07371112 -0.0737529 -0.07379244 -0.07383028 -0.07387011 -0.07391127
 -0.07395407 -0.07399751 -0.0740395 -0.07408106 -0.07412177 -0.07416494 -0.07421303 -0.0742685 -0.07433439 -0.07440785
 -0.07448951 -0.07457215 -0.07465427 -0.0747298 -0.07479715 -0.07485565 -0.07490476 -0.07494905 -0.07498872 -0.07503081
 -0.07507545 -0.07512638 -0.0751827 -0.07524086 -0.07529982 -0.07535314 -0.07540214 -0.07544634 -0.0754885 -0.07553376
 -0.07558183 -0.07563527 -0.07569052 -0.07574495 -0.07579792 -0.07584728 -0.07589733 -0.07594944 -0.07600587 -0.07606846
 -0.07613252 -0.07619783 -0.07625841 -0.07631328 -0.07636317 -0.07640802 -0.07645436 -0.07650237 -0.07655631 -0.07661533
 -0.07667626 -0.07673807 -0.07679454 -0.07684675 -0.0768934 -0.07693796 -0.0769858 -0.07703904 -0.07710344 -0.07717615
 -0.07725785 -0.07734212 -0.07742546 -0.07750411 -0.07757505 -0.07764037 -0.07769981 -0.07775691 -0.07781263 -0.07786605
 -0.0779173 -0.07796326 -0.07800372 -0.07804014 -0.07807286 -0.07810786 -0.07814515 -0.07818817 -0.07823609 -0.07828736
 -0.07834149 -0.07839616 -0.07845227 -0.07851027 -0.07857125 -0.07863694 -0.07870717 -0.07878284 -0.07886185 -0.07894399
 -0.07902495 -0.07910334 -0.07917484 -0.07923772 -0.07929131 -0.07933447 -0.07937308 -0.07940725 -0.07944671 -0.07949206
 -0.07954913 -0.07961762 -0.07969356 -0.07977573 -0.07985383 -0.07992775 -0.07999085 -0.08004543 -0.08009377 -0.08013826
 -0.08018461 -0.0802326 -0.08028466 -0.08033862 -0.08039352 -0.08044741 -0.08049865 -0.08054723 -0.08059225 -0.08063624
 -0.08067919 -0.08072586 -0.08077703 -0.08083612 -0.0809039 -0.08097884 -0.08106096 -0.08114486 -0.08123025 -0.08131184
 -0.08138971 -0.08146156 -0.08152802 -0.08159024 -0.08164898 -0.08170677 -0.08176418 -0.08182355 -0.08188467 -0.08194852
 -0.08201391 -0.08208057 -0.0821463 -0.08220989 -0.0822695 -0.08232374 -0.08237338 -0.08241788 -0.08246084 -0.08250259
 -0.08254752 -0.08259622 -0.08265067 -0.08271106 -0.08277618 -0.08284585 -0.08291692 -0.0829891 -0.08305918 -0.08312675
 -0.08318853 -0.08324432 -0.08329128 -0.08333096 -0.08336373 -0.08339365 -0.08342576 -0.0834631 -0.08351111 -0.08356731
 -0.08363283 -0.08370114 -0.08376989 -0.08383456 -0.0838929 -0.0839458 -0.08399262 -0.08403787 -0.08408187 -0.08412935
 -0.08418065 -0.08423717 -0.0842987 -0.08436137 -0.08442467 -0.08448304 -0.08453667 -0.0845831 -0.08462328 -0.08465831
 -0.08468951 -0.08471955 -0.0847499 -0.08478354 -0.08482103 -0.08486445 -0.0849118 -0.08496306 -0.08501435 -0.08506411
 -0.08510965 -0.08514972 -0.085184 -0.08521206 -0.08523554 -0.08525448 -0.08527128 -0.0852861 -0.08530047 -0.08531445
 -0.08532875 -0.08534362 -0.08536106 -0.08538136 -0.0854072 -0.08543771 -0.08547235 -0.08550926 -0.08554453 -0.08557779
 -0.08560618 -0.08563253 -0.08565799 -0.08568587 -0.08571922 -0.08575719 -0.0858014 -0.08584514 -0.08588739 -0.08592027
 -0.08594151 -0.08595102 -0.08594787 -0.08594084 -0.08593041 -0.08592474 -0.08592393 -0.08592879 -0.08593894 -0.08595176
 -0.08596735 -0.08598474 -0.08600415 -0.08602567 -0.08604954 -0.08607609 -0.08610603 -0.08614083 -0.08617966 -0.08622359
 -0.0862674 -0.08630882 -0.08634208 -0.08636305 -0.08637358 -0.08637182 -0.08636817 -0.08636399 -0.08636864 -0.08638392
 -0.08640895 -0.086444 -0.08647751 -0.08650897 -0.08652827 -0.08653644 -0.08653601 -0.08652915 -0.08652682 -0.08652909
 -0.08654259 -0.08656456 -0.08659346 -0.08662554 -0.08665562 -0.08668046 -0.0866949 -0.08669905 -0.08668999 -0.08667443
 -0.08665378 -0.08663607 -0.08662469 -0.08662012 -0.08662391 -0.086629 -0.08663491 -0.08663455 -0.08662731 -0.08661144
 -0.08658714 -0.08655864 -0.08652675 -0.08649961 -0.08647755 -0.0864671 -0.08646658 -0.08647538 -0.08649022 -0.08650476
 -0.08651656 -0.08651956 -0.08651374 -0.08649627 -0.08647013 -0.08643541 -0.08639782 -0.08635961 -0.08632521 -0.0862969
 -0.08627427 -0.08625791 -0.08624466 -0.08623427 -0.08622355 -0.08621223 -0.08619876 -0.08618329 -0.08616925 -0.08615739
 -0.08615576 -0.08616374 -0.08618437 -0.08621345 -0.08624173 -0.08626376 -0.08626344 -0.08624182 -0.08619097 -0.0861216
 -0.08603983 -0.08595691 -0.0858827 -0.08581977 -0.0857733 -0.08573552 -0.08570593 -0.08567426 -0.08563759 -0.08559521
 -0.08554589 -0.08549868 -0.08545408 -0.08542012 -0.08539694 -0.08538498 -0.08538317 -0.08538403 -0.08538512 -0.08537126
 -0.08534174 -0.0852844 -0.08520566 -0.08511117 -0.08500917 -0.08491445 -0.08482739 -0.08475397 -0.08469107 -0.08463786
 -0.08459368 -0.08455889 -0.08452983 -0.08450734 -0.08447927 -0.08444383 -0.0843895 -0.08431382 -0.08421864 -0.08410355
 -0.08398232 -0.08385562 -0.08373678 -0.08362548 -0.08352552 -0.083435 -0.08334714 -0.08326136 -0.08317132 -0.08308011
 -0.08299122 -0.08290593 -0.08282959 -0.08275583 -0.08268072 -0.08259884 -0.08250318 -0.0823996 -0.08228841 -0.0821772
 -0.08206977 -0.08196335 -0.08185846 -0.08174885 -0.08163335 -0.08151259 -0.08138644 -0.08125856 -0.08112884 -0.08099347
 -0.0808511 -0.08068834 -0.0805051 -0.08029137 -0.08005302 -0.0798012 -0.07954238 -0.07929739 -0.07906157 -0.07883918
 -0.07861872 -0.07838892 -0.07814779 -0.07788724 -0.07762054 -0.07735126 -0.07709126 -0.0768469 -0.07661492 -0.07639807
 -0.07617725 -0.07595206 -0.07569077 -0.0753906 -0.07503777 -0.07463309 -0.07421301 -0.07378013 -0.07337572 -0.072994
 -0.07263116 -0.07227799 -0.07190433 -0.07150842 -0.0710707 -0.07059785 -0.07009004 -0.06955624 -0.06900469 -0.06844268
 -0.06787969 -0.06731115 -0.06674209 -0.06614731 -0.06551962 -0.06484303 -0.06410736 -0.06334321 -0.06255224 -0.06176978
 -0.06099971 -0.06023594 -0.05947813 -0.0587146 -0.05794698 -0.05718782 -0.05643498 -0.05568968 -0.0549387 -0.05414197
 -0.05329302 -0.05235003 -0.05133886 -0.0502755 -0.04919026 -0.04812656 -0.04707523 -0.04604605 -0.04501553 -0.04397183
 -0.0429129 -0.04183473 -0.04074488 -0.03965118 -0.0385161 -0.03734372 -0.03602253 -0.03454299 -0.03284727 -0.03093812
 -0.02897872 -0.02697943 -0.02511356 -0.02335727 -0.02168657 -0.02007586 -0.01843182 -0.01675497 -0.01500339 -0.01318265
 -0.01129667 -0.009311026 -0.007213051 -0.004913712 -0.002348387 0.0005375462 0.003825788 0.007371789 0.01117932 0.01497056
 0.01868083 0.0221756 0.02541832 0.02844393 0.03124894 0.03393941 0.03652326 0.03918645 0.04194718 0.04507427
 0.04853953 0.05239567 0.05650881 0.06046667 0.06424645 0.06755484 0.0705519 0.07334869 0.07606436 0.07887641
 0.08178718 0.08485597 0.08804277 0.0913391 0.09472902 0.09821903 0.1017345 0.1052688 0.1087145 0.1120474
 0.1152886 0.1184372 0.1215403 0.1245958 0.1274636 0.1301306 0.1324031 0.1343012 0.1358173 0.1369879
 0.1379302 0.1386432 0.1391861 0.1395323 0.1396507 0.1395713 0.1393 0.1389031 0.1384283 0.1379182
 0.13741 0.1369013 0.1364054 0.1358808 0.1353226 0.1346874 0.1339673 0.1331465 0.1322212 0.131227
 0.1301661 0.1290968 0.1280166 0.1269261 0.125817 0.1246463 0.1234144 0.1220948 0.1207076 0.1192748
 0.1178343 0.1164506 0.1151488 0.1139808 0.1129476 0.1120614 0.1113327 0.110767 0.1103811 0.1101882
 0.1101654 0.1103133 0.1105898 0.1109859 0.1115017 0.1121354 0.1129122 0.113833 0.1148989 0.1161071
 0.1174314 0.1188691 0.1203944 0.1220056 0.1236845 0.1254303 0.1272306 0.1290893 0.1310061 0.1329877
 0.1350413 0.1371695 0.1393771 0.141662 0.1440256 0.1464617 0.1489698 0.1515399 0.1541725 0.1568443
 0.1595563 0.1622541 0.1649339 0.1675414 0.170075 0.1725642 0.1750168 0.1775369 0.1801091 0.1827234
 0.1853267 0.1877282 0.1899269 0.1918133 0.1934454 0.1948781 0.1961154 0.1971938 0.198068 0.1987076
 0.1991119 0.1992742 0.1991957 0.1988958 0.1982767 0.197319 0.1959518 0.1941353 0.1920856 0.1898175
 0.1875084 0.1851645 0.1826841 0.1800606 0.1771859 0.1740712 0.1707212 0.1671478 0.1634094 0.1594694
 0.1553038 0.1508061 0.1457625 0.1402244 0.1340331 0.1276802 0.1214953 0.1157432 0.1107477 0.1061795
 0.1019947 0.09791448 0.09383646 0.08979031 0.08575813 0.08187213 0.07814744 0.07458223 0.07117577 0.06782307
 0.06452319 0.06122569 0.05794584 0.05473954 0.05161976 0.04866633 0.04586385 0.04322292 0.04071098 0.03828235
 0.03591591 0.03357642 0.03124123 0.02889966 0.02648188 0.02395497 0.02125219 0.01829401 0.01528098 0.01221047
 0.009459782 0.007115901 0.005144789 0.003563586 0.002091354 0.0007149031 -0.0007169471 -0.002196554 -0.003685636 -0.005170096
 -0.006546898 -0.007827626 -0.008997993 -0.01007354 -0.01109274 -0.01203666 -0.01289804 -0.0136431 -0.01422441 -0.01464672
 -0.01489153 -0.01499396 -0.01496871 -0.01483508 -0.01460701 -0.01427524 -0.01384687 -0.01327358 -0.0125577 -0.011589
 -0.01035757 -0.008776821 -0.006843692 -0.004721498 -0.002432145 -0.0002953542 0.001696254 0.003416315 0.004897569 0.006189211
 0.007302199 0.008283031 0.009135364 0.009869383 0.01052996 0.01115358 0.01182291 0.0126264 0.01356188 0.01468592
 0.01584167 0.01697946 0.01801731 0.01890809 0.01972744 0.02047716 0.02124922 0.02205437 0.02291868 0.02384364
 0.02478735 0.02574729 0.02667709 0.0275836 0.02847624 0.02937411 0.03034644 0.03140835 0.03263663 0.03401491
 0.03555371 0.03722697 0.03899971 0.04088642 0.04288511 0.04501726 0.04730628 0.04971586 0.05224638 0.05482946
 0.05744206 0.06007874 0.06272674 0.06546643 0.0683054 0.07129149 0.07442698 0.07757071 0.08070657 0.08358874
 0.08621825 0.08847605 0.09037691 0.09191824 0.0930906 0.09387634 0.09424894 0.09415279 0.09358583 0.09251367
 0.09097582 0.08898372 0.08659546 0.08384153 0.08076929 0.07739826 0.07377013 0.06988405 0.06584397 0.0616507
 0.05750197 0.05341587 0.04954125 0.04588686 0.04243194 0.03916993 0.03600537 0.03294241 0.02995388 0.02705748
 0.02430633 0.02170168 0.01928023 0.01701721 0.01489044 0.0128746 0.01093167 0.009050282 0.007209248 0.005406674
 0.003635279 0.001899939 0.0001997049 -0.001455386 -0.003062154 -0.004618702 -0.006122447 -0.007588643 -0.009018548 -0.01042471
 -0.01180793 -0.01314541 -0.01443326 -0.01561321 -0.01668327 -0.01759885 -0.01836767 -0.01899254 -0.01948391 -0.01986832
 -0.02015037 -0.02034935 -0.02046594 -0.02050593 -0.02047542 -0.02037537 -0.0202287 -0.02004123 -0.01985397 -0.01968027
 -0.01955951 -0.01950463 -0.01953351 -0.01965228 -0.01985782 -0.02015122 -0.02051705 -0.02095452 -0.02144162 -0.02197678
 -0.02253513 -0.02311393 -0.02368542 -0.02424496 -0.02476108 -0.02523087 -0.02562973 -0.02596213 -0.02622279 -0.02642158
 -0.02656776 -0.02666868 -0.02673331 -0.02676482 -0.02676645 -0.02674221 -0.02669294 -0.02662677 -0.02654417 -0.02645989
 -0.02637523 -0.02630908 -0.02626342 -0.02625115 -0.02627316 -0.0263284 -0.02641636 -0.0265295 -0.02666743 -0.02682457
 -0.02700001 -0.02718779 -0.02738632 -0.02758778 -0.0277937 -0.02800186 -0.02821771 -0.02844699 -0.02869289 -0.0289615
 -0.02924858 -0.02955486 -0.029871 -0.03019433 -0.03051539 -0.03083146 -0.03113619 -0.03142817 -0.031704 -0.03196323
 -0.03220335 -0.03242421 -0.03262312 -0.03280008 -0.03295457 -0.03308678 -0.03319804 -0.03328787 -0.03335578 -0.03340007
 -0.03341668 -0.03340354 -0.03335563 -0.03327101 -0.03314524 -0.03297803 -0.03276651 -0.03251505 -0.03222355 -0.03190215
 -0.03155336 -0.03118994 -0.03081495 -0.03043999 -0.03006721 -0.02970511 -0.02935476 -0.02902096 -0.02870407 -0.02840713
 -0.02813034 -0.02787668 -0.02764628 -0.02744154 -0.02726231 -0.02710923 -0.02698228 -0.02688142 -0.02680741 -0.02676098
 -0.02674442 -0.02675968 -0.0268116 -0.026904 -0.02704257 -0.02723204 -0.02747368 -0.02777051 -0.02811604 -0.02851043
 -0.0289417 -0.02940872 -0.02989702 -0.03040517 -0.03092073 -0.03144281 -0.03196745 -0.03249484 -0.03302807 -0.03356716
 -0.03411375 -0.03466731 -0.03522595 -0.03579077 -0.03636369 -0.03694571 -0.0375414 -0.03814566 -0.03875616 -0.0393624
 -0.03995478 -0.04052688 -0.04107085 -0.04159004 -0.04208285 -0.04255805 -0.04301734 -0.04346846 -0.04391318 -0.04435474
 -0.04479402 -0.04522824 -0.04565736 -0.0460737 -0.04647674 -0.0468575 -0.04721563 -0.04754418 -0.04784345 -0.04811083
 -0.04834665 -0.04855088 -0.04872248 -0.04886018 -0.04896164 -0.04902346 -0.04904415 -0.04902152 -0.04895433 -0.04884233
 -0.04868114 -0.04846977 -0.04820191 -0.04787536 -0.04748785 -0.04703797 -0.04652968 -0.04596256 -0.04534761 -0.04468524
 -0.04399763 -0.04328663 -0.04258464 -0.04189335 -0.04124121 -0.04062602 -0.04005649 -0.0395249 -0.03901735 -0.03852422
 -0.03802142 -0.03750552 -0.03696002 -0.03639332 -0.03580474 -0.0352096 -0.0346159 -0.03403651 -0.03347804 -0.03294887
 -0.0324523 -0.03199375 -0.03157551 -0.03119442 -0.03085152 -0.03053016 -0.03022958 -0.0299246 -0.02961379 -0.02927166
 -0.02889739 -0.02847232 -0.02799774 -0.02746807 -0.02688658 -0.02625893 -0.02558752 -0.02487922 -0.02413506 -0.02335821
 -0.02255147 -0.02171748 -0.02086065 -0.01998367 -0.01909132 -0.01818445 -0.01727309 -0.01635807 -0.01545693 -0.01457231
 -0.0137201 -0.01290264 -0.01212628 -0.01139169 -0.0106968 -0.01004104 -0.009414382 -0.008815427 -0.008229162 -0.007655435
 -0.007085275 -0.006520223 -0.005960506 -0.005405791 -0.004855838 -0.004309352 -0.003763756 -0.003220769 -0.002682192 -0.002145588
 -0.001613176 -0.001071069 -0.0005147129 6.820585E-05 0.0006836574 0.001329398 0.002006363 0.002708124 0.003433665 0.004183462
 0.004957499 0.005756434 0.006579853 0.007420223 0.008275677 0.009130253 0.009980455 0.01080428 0.01159775 0.01233953
 0.01302655 0.01364506 0.01418948 0.01464952 0.01501501 0.01527297 0.01541935 0.01544381 0.01536135 0.0151714
 0.01490464 0.01456685 0.01419248 0.01378751 0.01338201 0.01297996 0.01260127 0.01224757 0.0119288 0.01164538
 0.01140454 0.01120615 0.01105424 0.01094598 0.01087274 0.01082977 0.01079967 0.01078008 0.01075916 0.01073496
 0.01070202 0.01065426 0.01058535 0.0104886 0.01035792 0.01019069 0.009984657 0.009738066 0.009449954 0.009119671
 0.008746266 0.008334324 0.007883964 0.007401823 0.006888267 0.006350436 0.00578917 0.005220807 0.004647266 0.004091908
 0.003553965 0.003044358 0.002557428 0.002084519 0.001618037 0.001141145 0.000645515 0.0001143175 -0.0004595085 -0.001089188
 -0.001774139 -0.002518138 -0.003317346 -0.004168275 -0.005079534 -0.006050562 -0.007100618 -0.008234301 -0.009457767 -0.01077415
 -0.01216569 -0.01363188 -0.01514197 -0.01669413 -0.01825483 -0.01982194 -0.02136386 -0.02287898 -0.02434354 -0.02575709
 -0.02710594 -0.0283913 -0.02960809 -0.03076061 -0.03185181 -0.03288697 -0.03387233 -0.03480983 -0.03570209 -0.03655088
 -0.0373562 -0.03812471 -0.0388588 -0.03956078 -0.04023299 -0.04086539 -0.04145689 -0.04200108 -0.0424969 -0.04295787
 -0.04338492 -0.04379793 -0.04419622 -0.04458398 -0.04495816 -0.04530769 -0.04563032 -0.04591305 -0.0461577 -0.04635954
 -0.04652672 -0.04666641 -0.04679011 -0.04691149 -0.04703575 -0.04717157 -0.047315 -0.04746634 -0.04762154 -0.04777868
 -0.04793914 -0.04810262 -0.04827229 -0.04844861 -0.04863282 -0.04882524 -0.04902136 -0.04922055 -0.04940793 -0.04958222
 -0.0497254 -0.04983841 -0.04991494 -0.04995854 -0.04997599 -0.04997013 -0.04995016 -0.04991588 -0.04987176 -0.04981395
 -0.04974146 -0.04964768 -0.04952737 -0.04937879 -0.04919763 -0.04899342 -0.04876688 -0.04853187 -0.04829145 -0.04805308
 -0.04781816 -0.04758938 -0.04736694 -0.04715497 -0.04695377 -0.04676931 -0.04660219 -0.04645999 -0.04634354 -0.04626152
 -0.04621272 -0.0461997 -0.04621727 -0.04625738 -0.04631378 -0.04637465 -0.04643628 -0.04649112 -0.0465375 -0.04657212
 -0.046595 -0.04660531 -0.0466039 -0.04659177 -0.04656523 -0.04652504 -0.04645963 -0.04636826 -0.04623635 -0.04606275
 -0.04583803 -0.04556212 -0.04523797 -0.04486785 -0.04447155 -0.04405277 -0.04363969 -0.04323287 -0.04285006 -0.04248625
 -0.04214077 -0.04180651 -0.04147366 -0.04113669 -0.04078663 -0.04042149 -0.04003557 -0.03963513 -0.03921922 -0.03880292
 -0.03839001 -0.03799386 -0.03761853 -0.03726699 -0.03694051 -0.03663589 -0.03635298 -0.03608953 -0.03584535 -0.03561752
 -0.03540534 -0.0352014 -0.03500478 -0.03480696 -0.0346081 -0.0344044 -0.03419614 -0.0339833 -0.03376272 -0.0335306
 -0.03328284 -0.03301194 -0.03272258 -0.03241327 -0.03209699 -0.03178065 -0.03146741 -0.0311624 -0.03085186 -0.03053336
 -0.03019875 -0.02984472 -0.02948639 -0.02912432 -0.02877937 -0.02845216 -0.02814559 -0.02785828 -0.02757911 -0.02730673
 -0.02702957 -0.02674596 -0.02644548 -0.02612601 -0.02577668 -0.02540092 -0.02499589 -0.02457433 -0.02414638 -0.02372549
 -0.02332625 -0.02294713 -0.02259443 -0.02225024 -0.02191104 -0.0215595 -0.02119024 -0.02080034 -0.02038777 -0.01996116
 -0.01952059 -0.01908153 -0.01864498 -0.01823318 -0.01784679 -0.01750274 -0.01719758 -0.01692469 -0.01667809 -0.01643459
 -0.01619444 -0.01594473 -0.01569398 -0.01544974 -0.01521656 -0.01500625 -0.01480606 -0.01461506 -0.01440783 -0.01417122
 -0.01389293 -0.01356117 -0.0131966 -0.01279899 -0.01240262 -0.01201317 -0.01164289 -0.01129393 -0.01095662 -0.01063059
 -0.01031083 -0.009997495 -0.009691808 -0.009391572 -0.009086573 -0.008774276 -0.008439395 -0.008085879 -0.007712347 -0.007329047
 -0.006948594 -0.00658305 -0.006248829 -0.005953726 -0.005711977 -0.005512564 -0.005359901 -0.005219157 -0.005081183 -0.004916078
 -0.004712189 -0.004475783 -0.004203818 -0.003927378 -0.003648849 -0.003388847 -0.003147986 -0.002920006 -0.002703186 -0.002476919
 -0.002242467 -0.001992907 -0.001735866 -0.001492497 -0.001266537 -0.001081384 -0.0009232431 -0.0007845145 -0.0006454312 -0.0004795407
 -0.0002859666 -5.313533E-05 0.0002052815 0.0004847449 0.0007782161 0.001083137 0.001392904 0.001707722 0.002010367 0.002298214
 0.002561614 0.002798758 0.003020366 0.00322705 0.003434294 0.003643047 0.003867326 0.004109281 0.004388511 0.004704173
 0.005067063 0.005467902 0.005893212 0.006332716 0.006763461 0.007185562 0.00758806 0.007982183 0.008371435 0.008768638
 0.009183442 0.00961327 0.01006295 0.01051045 0.01095083 0.0113733 0.01177242 0.01217344 0.01257769 0.01301207
 0.01347748 0.0139642 0.01447058 0.01497465 0.01547792 0.01597858 0.0164762 0.01697204 0.01745652 0.01791088
 0.01832413 0.01866991 0.0189477 0.0191435 0.01927197 0.01933478 0.01935947 0.01935867 0.01935529 0.019362
 0.01937918 0.01940926 0.01944729 0.0194905 0.01955686 0.01964741 0.01978231 0.01996217 0.02017175 0.02040816
 0.02063414 0.02084957 0.02103187 0.02118825 0.02132575 0.02146077 0.02163214 0.02185173 0.02216355 0.02254508
 0.02299492 0.02347339 0.02394186 0.02440782 0.0248541 0.02533834 0.02588865 0.02648845 0.02715508 0.02776619
 0.02829989 0.02872748 0.02904042 0.02930487 0.02952388 0.02974695 0.02997309 0.03020974 0.03045051 0.0306673
 0.03085187 0.03095962 0.030993 0.03093074 0.03079124 0.03059404 0.03035206 0.03008918 0.02980274 0.0294944
 0.02917273 0.02883821 0.02851352 0.02820801 0.02792905 0.02768026 0.02746167 0.02727231 0.02712575 0.02702434
 0.02695854 0.02692744 0.02686927 0.02678071 0.02660101 0.02633497 0.02597547 0.02553299 0.02503616 0.02449717
 0.02395281 0.02342062 0.02294469 0.02253187 0.0222141 0.02196584 0.02178217 0.02162774 0.02148182 0.02132835
 0.02115551 0.0209652 0.02075184 0.02054297 0.0203398 0.0201826 0.02007704 0.02001667 0.02000119 0.01999144
 0.01999057 0.02002256 0.02009672 0.02028558 0.02057853 0.02098451 0.02147374 0.02198058 0.02249089 0.02294953
 0.02336602 0.02372901 0.02405368 0.02434845 0.02462257 0.02488548 0.0251317 0.02536271 0.02556597 0.02573552
 0.02588221 0.02600491 0.02613113 0.02626495 0.02639821 0.02653049 0.02662109 0.02667039 0.02667026 0.02662602
 0.02656581 0.02648925 0.02640817 0.02632252 0.0262321 0.02615212 0.0261066 0.02610707 0.02618282 0.02631536
 0.02650601 0.0267174 0.02693303 0.0271181 0.02725623 0.02732953 0.02732567 0.02726712 0.0271525 0.02702804
 0.02689928 0.02677602 0.02665894 0.02652427 0.02637343 0.02621607 0.02605854 0.02594647 0.02587659 0.02586574
 0.02589805 0.02594577 0.0259949 0.02600966 0.02598643 0.02590304 0.02577503 0.02560195 0.02541558 0.02523574
 0.02507069 0.02493406 0.02479674 0.02465247 0.02448852 0.02429912 0.02410439 0.02390764 0.02369482 0.02346525
 0.02316009 0.0227798 0.02231156 0.02176609 0.02120197 0.02062424 0.02008394 0.01957367 0.01909688 0.01865649
 0.01825224 0.01790616 0.01764576 0.0174779 0.01743039 0.01745679 0.01755101 0.01763335 0.01766823 0.01762798
 0.01748497 0.01731481 0.01712179 0.01699857 0.01695974 0.01698072 0.0170608</values></Ydata></AB><ScSm><Ydata ylabel="Single channel"><values byteorder="INTEL" format="FLOAT32" numvalues="1814"> 0.07306665 0.07306425 0.07313146 0.073291 0.07351026 0.07371986 0.07386243 0.07393014 0.07394632 0.0739207
 0.07385635 0.07380031 0.07383721 0.07400547 0.07424115 0.07442106 0.07446261 0.07439843 0.07435763 0.07443754
 0.07456902 0.07453957 0.0741937 0.0736127 0.07306141 0.07274486 0.07268122 0.07285902 0.07336774 0.07414959
 0.07472169 0.0745241 0.0736267 0.07275617 0.07248715 0.07269087 0.07288145 0.0727765 0.07238218 0.07188123
 0.07168044 0.07229738 0.07384726 0.07562767 0.07637519 0.07505989 0.07161819 0.06718663 0.06368779 0.06280132
 0.06477724 0.06809576 0.07060922 0.07125588 0.07056589 0.06957467 0.06871147 0.06793416 0.067444 0.06772028
 0.06885494 0.07010955 0.07029831 0.06880169 0.0663061 0.06431767 0.0637902 0.06452951 0.0660004 0.06790542
 0.06936166 0.06844171 0.06407569 0.05844147 0.05598201 0.05917753 0.06590024 0.07150315 0.07295493 0.07052301
 0.06640586 0.06291445 0.06161495 0.0629091 0.06595321 0.06935853 0.07203679 0.07325299 0.07243845 0.06968538
 0.0662321 0.06386223 0.063809 0.06627263 0.07037798 0.07425416 0.07588853 0.0746156 0.07155544 0.06842785
 0.066425 0.06622577 0.06815829 0.07185 0.07620936 0.08006741 0.08265987 0.08369384 0.08339731 0.08237511
 0.08115378 0.08010364 0.07975981 0.08048398 0.08160719 0.08169618 0.08011849 0.07788803 0.07661735 0.0768501
 0.07763165 0.07766756 0.07663068 0.07493567 0.07245363 0.06850195 0.06341416 0.05894175 0.05649983 0.05609883
 0.05739756 0.06024402 0.06343347 0.06464487 0.06298561 0.06060299 0.06054608 0.06351233 0.06749403 0.0702284
 0.07128718 0.07191506 0.07342218 0.07584341 0.07777449 0.07743864 0.07445827 0.07083797 0.06954192 0.07158225
 0.07504593 0.07743988 0.07831252 0.07896535 0.08018538 0.08102894 0.07980778 0.0760971 0.07180913 0.07000741
 0.07223555 0.0769712 0.08073565 0.08067173 0.07646422 0.07039845 0.06557742 0.06377824 0.06498012 0.06854694
 0.07391801 0.07999605 0.08487085 0.08689269 0.08587532 0.08298529 0.07941709 0.07530102 0.07033813 0.06561999
 0.06383784 0.0667312 0.07285459 0.07878556 0.08217821 0.08292504 0.08181398 0.07907392 0.07459959 0.06935
 0.06580086 0.06601629 0.06915849 0.07196949 0.07218497 0.07059418 0.06935059 0.06928893 0.06962807 0.06962344
 0.06962015 0.07045438 0.0722574 0.07414569 0.07508166 0.07481818 0.07393043 0.07313905 0.07266016 0.07205902
 0.07086622 0.06952193 0.06931997 0.0709892 0.07368769 0.07587121 0.07684078 0.07698499 0.07675092 0.07587393
 0.07377766 0.07067285 0.06800169 0.06736768 0.06897911 0.07151935 0.07351673 0.07440355 0.07436334 0.07378802
 0.07301679 0.07223134 0.07151501 0.07108754 0.07124706 0.07193679 0.07265544 0.07296105 0.07282965 0.07242775
 0.07179842 0.07092382 0.06994613 0.06917429 0.0688616 0.06901266 0.0694254 0.06987675 0.07019482 0.07021646
 0.06985148 0.06921455 0.06855479 0.0680288 0.06764571 0.06741354 0.06739055 0.06756182 0.06777789 0.06787332
 0.06779723 0.06759919 0.06733356 0.067017 0.06666023 0.06630908 0.06604455 0.06592673 0.06592451 0.06593297
 0.0658965 0.06586921 0.06589712 0.06589647 0.06573755 0.06541817 0.06507228 0.06482272 0.06468685 0.06460904
 0.06452128 0.06435788 0.06405985 0.06362602 0.0631724 0.06288636 0.06287819 0.06310139 0.06342717 0.06373799
 0.06394061 0.06398018 0.06388593 0.06374304 0.06359155 0.0633987 0.0631391 0.06286424 0.0626855 0.06269297
 0.06287411 0.06311278 0.06328446 0.06333998 0.06330002 0.06322075 0.06317548 0.06320365 0.06325446 0.06323367
 0.06311975 0.06299087 0.0629309 0.0629425 0.06295697 0.06291401 0.06282946 0.06277829 0.06280674 0.06288324
 0.06294698 0.06297823 0.06300181 0.06303752 0.06306252 0.06302603 0.06290957 0.06276484 0.06266654 0.06263393
 0.06263197 0.06264074 0.06268044 0.06276235 0.0628504 0.06289009 0.06286468 0.06280947 0.06276542 0.06272849
 0.06266201 0.06255482 0.06244241 0.06236609 0.0623314 0.06231179 0.0622777 0.06221714 0.06213607 0.06204453
 0.06194506 0.06183404 0.06170791 0.06156913 0.06143757 0.06135066 0.06132973 0.06134172 0.06131608 0.06121133
 0.06105425 0.06090686 0.06080338 0.06072725 0.06064655 0.06055768 0.06048566 0.06045077 0.0604498 0.06046628
 0.06048302 0.06048851 0.0604914 0.06053075 0.06064954 0.06084468 0.06105502 0.06121305 0.06130553 0.06137478
 0.06146784 0.06159611 0.06174135 0.0618869 0.06203895 0.06221838 0.06242799 0.06263404 0.0627968 0.06291831
 0.0630392 0.06319064 0.06337272 0.06357559 0.06378816 0.0639836 0.06413296 0.06424457 0.06436335 0.06451989
 0.0647013 0.06488113 0.06505637 0.0652407 0.06543791 0.06564128 0.06585507 0.06610104 0.06639771 0.06673501
 0.06707075 0.06735715 0.06758236 0.06778887 0.06804192 0.06837404 0.0687613 0.06915072 0.06950482 0.06982384
 0.0701328 0.07045005 0.07077311 0.07109959 0.0714487 0.07184288 0.07227333 0.07270514 0.07311595 0.073512
 0.07390834 0.07431039 0.07471532 0.07511909 0.07552113 0.07592686 0.07634102 0.07675538 0.07715167 0.07752118
 0.07787673 0.07824326 0.07863791 0.07905132 0.07944402 0.07977551 0.08005182 0.08033058 0.08065972 0.08102211
 0.08136369 0.08166716 0.08196807 0.08229929 0.08265053 0.08299385 0.08332516 0.08366342 0.08402001 0.08438046
 0.08471096 0.08498062 0.08518705 0.0853638 0.08555583 0.08578994 0.08607513 0.08641665 0.08680577 0.08720121
 0.08754744 0.08781641 0.08801964 0.08818873 0.08836162 0.0885738 0.08883642 0.08912454 0.08939987 0.08963715
 0.08982736 0.08998118 0.09014049 0.09035757 0.09064533 0.09097111 0.09131034 0.09167714 0.09208418 0.09250335
 0.09289894 0.09328254 0.09369747 0.09414756 0.09457461 0.09491952 0.0951795 0.09538937 0.09557649 0.09576523
 0.09600222 0.0963333 0.09675381 0.09720946 0.09764737 0.09804793 0.09841243 0.09874244 0.09903482 0.09928565
 0.09949592 0.09967691 0.09984834 0.1000311 0.1002416 0.1004842 0.1007408 0.1009726 0.1011416 0.1012256
 0.1012094 0.1010861 0.1008818 0.1006599 0.1004707 0.1002952 0.1000568 0.099687 0.09916566 0.09850646
 0.09772891 0.0968578 0.09593958 0.09504775 0.0942677 0.09367329 0.09331547 0.09323034 0.0934439 0.09394722
 0.09466283 0.09545355 0.09617662 0.09672201 0.09700363 0.09695204 0.09655003 0.09586549 0.09502173 0.09413306
 0.09327313 0.09248182 0.09177501 0.09116026 0.09067668 0.09042572 0.09054799 0.0911627 0.09232037 0.09398074
 0.09600429 0.09817321 0.1002617 0.1021217 0.1037171 0.105088 0.1062937 0.1073878 0.1084169 0.1094079
 0.110354 0.1112295 0.112021 0.112732 0.1133637 0.1139051 0.1143405 0.1146575 0.1148567 0.1149664
 0.1150378 0.1151155 0.1152198 0.115359 0.1155366 0.1157315 0.1158836 0.1159154 0.1157725 0.1154496
 0.1150045 0.1145722 0.1143662 0.1146361 0.1155668 0.1171688 0.1192459 0.121485 0.1235998 0.1254204
 0.1268949 0.1280503 0.1289576 0.129702 0.1303548 0.1309596 0.1315368 0.1320946 0.1326357 0.1331591
 0.1336615 0.134144 0.134617 0.1350935 0.1355732 0.1360413 0.1364885 0.1369264 0.1373779 0.1378523
 0.1383367 0.13881 0.1392668 0.1397204 0.1401791 0.1406268 0.1410405 0.1414219 0.1417988 0.1421974
 0.1426248 0.1430718 0.1435172 0.1439345 0.1443103 0.1446552 0.1449905 0.1453284 0.1456711 0.1460203
 0.1463779 0.14674 0.1470994 0.1474557 0.1478176 0.1481886 0.1485526 0.1488842 0.1491763 0.1494514
 0.1497403 0.1500539 0.1503791 0.150696 0.1509995 0.1513078 0.1516477 0.1520263 0.1524183 0.1527854
 0.1531071 0.1533936 0.1536731 0.1539705 0.1542929 0.1546302 0.1549667 0.1552934 0.1556109 0.1559264
 0.1562483 0.1565804 0.1569172 0.1572475 0.1575648 0.1578737 0.158186 0.1585084 0.1588395 0.1591776
 0.1595255 0.1598826 0.1602357 0.1605656 0.1608638 0.161138 0.1614034 0.1616736 0.1619588 0.162263
 0.1625831 0.1629104 0.1632368 0.1635578 0.1638737 0.1641874 0.1645005 0.1648118 0.1651197 0.1654263
 0.1657366 0.1660544 0.1663803 0.1667107 0.1670396 0.1673584 0.1676611 0.1679508 0.1682401 0.1685388
 0.1688431 0.1691422 0.1694348 0.1697299 0.1700341 0.1703443 0.1706532 0.170957 0.1712581 0.1715631
 0.1718741 0.1721851 0.1724887 0.1727857 0.1730829 0.1733832 0.173684 0.1739828 0.1742805 0.1745793
 0.174879 0.1751768 0.1754721 0.1757689 0.1760717 0.1763789 0.1766848 0.176985 0.177278 0.1775655
 0.1778532 0.1781464 0.1784456 0.1787497 0.1790593 0.1793713 0.179677 0.1799714 0.1802584 0.1805475
 0.1808486 0.1811667 0.1814944 0.1818152 0.1821212 0.1824212 0.182728 0.1830447 0.1833639 0.1836779
 0.183987 0.1842987 0.1846159 0.1849312 0.1852368 0.1855316 0.1858173 0.1860949 0.1863691 0.1866463
 0.1869279 0.1872126 0.187502 0.187797 0.1880949 0.1883933 0.1886925 0.1889935 0.1892993 0.1896128
 0.1899309 0.190247 0.1905597 0.190871 0.1911806 0.1914874 0.1917917 0.1920936 0.1923963 0.1927068
 0.1930263 0.1933468 0.1936645 0.1939835 0.1943035 0.1946204 0.1949349 0.1952481 0.1955556 0.1958592
 0.19617 0.1964918 0.1968168 0.1971392 0.1974578 0.19777 0.1980749 0.1983764 0.1986759 0.1989729
 0.1992711 0.1995718 0.1998716 0.2001737 0.2004847 0.2007996 0.2011115 0.2014259 0.2017485 0.2020714
 0.2023843 0.2026865 0.2029815 0.2032777 0.2035864 0.2039053 0.2042191 0.2045238 0.2048236 0.2051027
 0.2053084 0.2053144 0.204815 0.2032053 0.1995579 0.1927983 0.1821253 0.1675058 0.1498599 0.1307389
 0.111758 0.0941705 0.07872932 0.06577241 0.055387 0.04751737 0.04202472 0.03878931 0.03782409 0.03939503
 0.04414703 0.05271753 0.06430852 0.07544 0.08131669 0.07961136 0.07268424 0.06542872 0.06121229 0.06026468
 0.06114564 0.06263348 0.06434826 0.06651814 0.06952135 0.07345124 0.07810839 0.08347959 0.08996464 0.09786379
 0.1067697 0.1157391 0.1241019 0.1319788 0.1399712 0.1484351 0.1571106 0.1653777 0.1727448 0.1791021
 0.1846464 0.1896609 0.194344 0.1987803 0.2030041 0.2070074 0.2106521 0.2136366 0.2156468 0.2165956
 0.2167267 0.2164801 0.2162411 0.2161953 0.216368 0.216733 0.2172626 0.2179292 0.2187094 0.2195835
 0.2205237 0.2214964 0.2224753 0.2234389 0.2243597 0.2252153 0.2260004 0.2267227 0.2273917 0.2280141
 0.2285925 0.229129 0.2296312 0.230109 0.2305665 0.2310044 0.2314279 0.2318411 0.2322381 0.2326095
 0.232953 0.2332729 0.2335753 0.2338675 0.2341546 0.2344374 0.2347176 0.2350018 0.2352953 0.2355963
 0.2358984 0.2361951 0.2364837 0.2367683 0.2370555 0.2373458 0.2376344 0.2379216 0.238213 0.2385089
 0.2388034 0.2390926 0.2393782 0.2396638 0.239951 0.2402382 0.2405239 0.2408121 0.2411098 0.2414139
 0.2417145 0.2420113 0.2423152 0.2426285 0.2429408 0.2432449 0.2435435 0.2438418 0.2441457 0.244459
 0.2447713 0.2450594 0.2453124 0.245552 0.2458191 0.2461383 0.2464942 0.2468455 0.2471663 0.2474641
 0.2477558 0.2480425 0.2483157 0.2485715 0.2488197 0.249092 0.2494246 0.2498155 0.250218 0.2505957
 0.2509537 0.2513065 0.2516539 0.2519957 0.2523314 0.252636 0.2528812 0.2530876 0.2533349 0.2537009
 0.2541881 0.2547113 0.2551723 0.2555453 0.2558745 0.2562121 0.2565858 0.2569785 0.2572949 0.2574244
 0.2574131 0.257502 0.2579039 0.2585858 0.2593329 0.259972 0.2604764 0.260903 0.261294 0.2616342
 0.2618681 0.2619623 0.2619817 0.2621047 0.2625046 0.2631727 0.2639064 0.2645093 0.2649446 0.2652731
 0.2655481 0.2658031 0.2660026 0.265978 0.2656067 0.2651283 0.2650833 0.2657846 0.2669614 0.2680494
 0.2687544 0.2691999 0.2695976 0.2699882 0.2703126 0.2704659 0.2701678 0.2691205 0.267592 0.2665795
 0.266986 0.2687084 0.2708061 0.2724407 0.273407 0.2739197 0.2742459 0.2745288 0.2746846 0.2744087
 0.2735159 0.2723977 0.2719268 0.272651 0.2741747 0.2755789 0.2763566 0.276686 0.2769438 0.2772847
 0.2775353 0.2771515 0.2755329 0.2729037 0.2707537 0.2707912 0.2732747 0.2767028 0.2793015 0.280547
 0.2810281 0.2811485 0.2805332 0.2787137 0.2758403 0.272612 0.2700686 0.269463 0.2714289 0.274929
 0.2778389 0.2790447 0.2793877 0.2802694 0.2819773 0.2836877 0.2845423 0.2843124 0.2832521 0.2816327
 0.2796145 0.2776875 0.2769322 0.2782563 0.2812956 0.2845445 0.2867472 0.2878483 0.2883402 0.2878056
 0.2846203 0.2779053 0.2699775 0.2657174 0.2682608 0.2757183 0.2832105 0.2876706 0.2895194 0.2903734
 0.2908784 0.2905319 0.2879627 0.2816719 0.272387 0.2645554 0.2633409 0.2695156 0.2785876 0.2849972
 0.2859196 0.281575 0.2742146 0.2674342 0.2647087 0.2672919 0.2736785 0.2810977 0.2871674 0.2905304
 0.2908573 0.2887453 0.2856627 0.2835696 0.2835058 0.2840557 0.282417 0.2779392 0.2732142 0.2702702
 0.2674249 0.2623892 0.2572831 0.2572255 0.2636821 0.2720228 0.2767248 0.2769674 0.2756462 0.2741101
 0.2698657 0.2601779 0.2472472 0.2382967 0.2392431 0.248564 0.2586654 0.2633069 0.2625524 0.2605476
 0.2599717 0.2593206 0.2550728 0.246309 0.2369985 0.232662 0.2345148 0.2383781 0.2396179 0.2368644
 0.2303872 0.2205414 0.2103577 0.2065135 0.2136743 0.2287396 0.2432909 0.2505518 0.2478706 0.2351501
 0.2156675 0.1979521 0.1916561 0.1989537 0.2119333 0.219897 0.217864 0.2074432 0.1922144 0.1752421
 0.1604427 0.1530219 0.1563246 0.1684302 0.1823883 0.1897701 0.1852889 0.1707908 0.1554418 0.1491435
 0.153649 0.1614563 0.1642634 0.1604979 0.15413 0.1494066 0.1483364 0.150553 0.153778 0.1558867
 0.1566229 0.1553957 0.148961 0.1354048 0.1197009 0.1105284 0.1112152 0.1179478 0.1267715 0.13712
 0.1472834 0.1519728 0.1482599 0.1411539 0.139401 0.1462122 0.1564638 0.1629342 0.1634552 0.1613669
 0.1602761 0.1601211 0.1590115 0.1575427 0.1589656 0.1647123 0.1718961 0.1765224 0.1776568 0.1771007
 0.1763465 0.1754585 0.1740925 0.1721457 0.1696777 0.1670049 0.1646133 0.1626042 0.1606099 0.1583689
 0.1557108 0.1517458 0.1450692 0.1357985 0.1268567 0.1217157 0.1207718 0.1215015 0.1222079 0.1230862
 0.1227888 0.1173513 0.105442 0.09275666 0.08789799 0.09407817 0.1067327 0.1187197 0.1257367 0.1266692
 0.1215087 0.1117521 0.1025089 0.100939 0.110343 0.126943 0.1439655 0.1575029 0.1668952 0.1714695
 0.1700495 0.1636117 0.1563284 0.1532262 0.1571631 0.1675034 0.1802064 0.1887401 0.1872612 0.1765129
 0.1666576 0.1697913 0.1870886 0.2066777 0.2169622 0.2184452 0.2189752 0.2215523 0.2228372 0.2218467
 0.2234395 0.2316376 0.2436621 0.2526377 0.2536109 0.2454915 0.2303938 0.2141134 0.2046559 0.2058969
 0.2133023 0.2189612 0.2193236 0.2148031 0.2050595 0.1908565 0.1790315 0.1784317 0.1896419 0.2037086
 0.2123206 0.2153803 0.2173322 0.2194796 0.2184533 0.2113906 0.2007169 0.1926361 0.1909621 0.1937488
 0.1965197 0.1969907 0.1951461 0.1905797 0.1827288 0.1736481 0.1680439 0.1692266 0.1757656 0.1829227
 0.1869806 0.1876235 0.1867265 0.1860144 0.1859244 0.1858023 0.1850843 0.1848366 0.1875677 0.1944202
 0.203135 0.2102666 0.2151085 0.2199297 0.226411 0.2332703 0.237749 0.2385851 0.2372432 0.2366996
 0.2390835 0.2439693 0.2486713 0.2505373 0.249475 0.2482662 0.2499831 0.2550159 0.2609977 0.2654709
 0.2678966 0.2691477 0.2700658 0.2707776 0.2706527 0.26882 0.2655004 0.2628161 0.2633174 0.2674421
 0.2730527 0.2775805 0.2800554 0.2810131 0.2811508 0.2805752 0.2791711 0.277253 0.2755883 0.2748113
 0.2749924 0.2757913 0.2768337 0.2778631 0.2787302 0.2793987 0.2799218 0.2803575 0.2807466 0.2811489
 0.2816026 0.2820445 0.2823733 0.2826188 0.2829569 0.283499 0.2841331 0.2846341 0.2848626 0.284768
 0.2842661 0.2832609 0.2817917 0.2800247 0.278064 0.2758909 0.2736014 0.2716566 0.2707471 0.2712923
 0.2730634 0.275329 0.2773618 0.2788033 0.2796512 0.280063 0.2802273 0.2803211 0.2804701 0.2807098
 0.2809989 0.2812819 0.2815395 0.2817811 0.2820175 0.2822628 0.282549 0.2829075 0.2833306 0.2837672
 0.284152 0.2844351 0.2846033 0.2846857 0.2847252 0.2847268 0.284638 0.2843909 0.2839622 0.2833958
 0.2827768 0.282179 0.2816156 0.281028 0.2803292 0.2794596 0.2783884 0.2770789 0.2755116 0.2737623
 0.2719999 0.2703576 0.2688334 0.2673427 0.2658264 0.2642714 0.2626693 0.2610037 0.2592692 0.2574758
 0.2556395 0.2537773 0.2519027 0.2500187 0.2481182 0.2461874 0.2442078 0.2421601 0.2400308 0.2378089
 0.2354642 0.2329228 0.2300705 0.2267882 0.2229855 0.2186109 0.2136645 0.2082293 0.2024837 0.1966631
 0.1909952 0.185653 0.1807452 0.17634 0.1724968 0.1692765 0.1667301 0.164893 0.1637847 0.1633984
 0.1636956 0.1646184 0.1660905 0.1679982 0.1701875 0.1724927 0.1747632 0.1768784 0.1787781 0.1804962
 0.1821444 0.1838309 0.1855874 0.1873706 0.1891179 0.1907812 0.1923117 0.1936536 0.1947759 0.1956915
 0.196432 0.197022 0.1974859 0.1978579 0.1981755 0.198471 0.1987678 0.1990803 0.1994248 0.1998319
 0.2003331 0.2009382 0.2016384 0.2024271 0.2032999 0.2042426 0.2052301 0.2062428 0.2072863 0.2083959
 0.2096139 0.2109689 0.2124943 0.2142566 0.2163326 0.2187538 0.221484 0.2244346 0.2274789 0.2304636
 0.233235 0.2356705 0.2377037 0.2393358 0.2406197 0.2416225 0.2423963 0.2429698 0.2433519 0.2435497
 0.2435892 0.2435096 0.2433331 0.2430582 0.2426805 0.2422022 0.2416328 0.2409991 0.2403457 0.2397092
 0.2391014 0.238524 0.237985 0.2374911 0.2370344 0.2365897 0.2361237 0.2356106 0.2350387 0.2344057
 0.2337148 0.2329701 0.2321569 0.2312331 0.2301596 0.2289357 0.2275863 0.2261288 0.2245719 0.2229324
 0.2212365 0.2195096 0.2177682 0.2160124 0.2142261 0.2123828 0.2104458 0.2083733 0.2061568 0.203856
 0.2015728 0.1993847 0.1973093 0.1953233 0.1933975 0.1915253 0.1897231 0.1880053 0.1863649 0.1847848
 0.1832539 0.1817672 0.1803287 0.1789595 0.1776913 0.1765482 0.1755418 0.1746705 0.1739163 0.173252
 0.1726585 0.1721292 0.1716671 0.171285 0.1709961 0.1707878 0.1706121 0.1704088 0.1701383 0.1698015
 0.1694361 0.1690842 0.1687595 0.168453 0.1681513 0.1678226 0.1673946 0.1667719 0.1658735 0.1646513
 0.1630978 0.1612509 0.1591823 0.1569891 0.1548027 0.1527734 0.1510181 0.1495868 0.1484711 0.1476133
 0.1469219 0.1463275 0.1458307 0.1454823 0.145321 0.1453208 0.1453699 0.1453243 0.1451349 0.1449188
 0.1448689 0.1450952 0.1455588 0.1461241 0.1466549 0.1470857 0.147418 0.1476601 0.1477986 0.1478222
 0.1477333 0.147536 0.1472436 0.146884 0.1464731 0.1460073 0.1454895 0.1449266 0.144305 0.1436018
 0.1428083 0.1419217 0.1409431 0.1398832 0.1387336 0.1374641 0.1361174 0.1348838 0.1340194 0.1336931
 0.1339035 0.1344915 0.1352465 0.1360399 0.1368006 0.137354 0.1374744 0.1372427 0.1372114 0.1379945
 0.1396766 0.1417227 0.143457 0.14453 0.1449366 0.1447726 0.1441224 0.1430734 0.1416581 0.1398208
 0.1375442 0.1349329 0.1321173 0.1292059 0.126359 0.1237611 0.1215192 0.1196727 0.118228 0.1172054
 0.1166895 0.1163074 0.1143089 0.108464 0.09949785 0.09266692 0.09338831 0.101176 0.1099508 0.1144729
 0.1145417 0.1129089 0.1115036 0.1106324 0.1101926 0.110298 0.1110598 0.1123468 0.1137819 0.1149567
 0.1156964 0.1160365 0.1159438 0.1151056 0.1128816 0.1085058 0.1016976 0.09323655 0.0847165 0.07761793
 0.07264243 0.06970826 0.06824625 0.06754094 0.0670983 0.06686372 0.06710708 0.06810357 0.06990962 0.07238629
 0.07533555 0.07850974 0.08154228 0.08407582 0.08602439 0.08756468 0.08883096 0.08975343 0.09020676 0.09017852
 0.08977071 0.08913211 0.08840086 0.08764297 0.08681586 0.08582035 0.08464651 0.08348653 0.08263074 0.08220445
 0.08207861 0.08206329 0.0820765 0.08210033 0.08211014 0.08209465 0.08206709 0.08206116 0.08215965 0.08245492
 0.08292342 0.08340845 0.08376309 0.08396317 0.08407833 0.08414496 0.08404985 0.08362113 0.08292717 0.08232607
 0.08201391 0.08168517 0.08092541 0.07983629 0.07898393 0.0787633 0.07903832 0.07938778 0.07950926 0.07936715
 0.07913212 0.07907847 0.07941242 0.08003604</values></Ydata></ScSm><ScRf><Ydata ylabel="Single channel"><values byteorder="INTEL" format="FLOAT32" numvalues="1820"> 0.06046055 0.06062483 0.06073362 0.06077813 0.0607767 0.06077598 0.0608298 0.06096227 0.06114826 0.06132893
 0.06145363 0.06151336 0.0615281 0.06150752 0.06145383 0.06140621 0.06143902 0.06158755 0.06179526 0.06195259
 0.06198741 0.06192822 0.06188697 0.06195233 0.06207307 0.06206839 0.06179538 0.06131199 0.06084159 0.06056522
 0.06050651 0.06065938 0.06109804 0.06177183 0.06227432 0.06213222 0.06139546 0.06066556 0.06042684 0.06058376
 0.06074002 0.06065922 0.06033735 0.05991825 0.05974241 0.06025287 0.06155618 0.06306444 0.06371018 0.06262162
 0.05974513 0.05603853 0.05311558 0.05238084 0.05404202 0.05682918 0.0589459 0.05949996 0.05893314 0.05811664
 0.05741343 0.05678152 0.05637806 0.05660247 0.05754143 0.05858564 0.05874173 0.05748556 0.0553909 0.05372246
 0.05328036 0.05389904 0.0551284 0.05672266 0.05794616 0.05718089 0.05352211 0.04879411 0.04673459 0.04943965
 0.05512547 0.05987303 0.06111289 0.05906128 0.05558021 0.05263465 0.05154952 0.05265205 0.05522043 0.0580876
 0.06034626 0.06137958 0.0607039 0.05839529 0.05549992 0.05352067 0.05349112 0.05557496 0.05903666 0.06230684
 0.06369337 0.06263214 0.0600621 0.05743291 0.05575237 0.05559192 0.05722557 0.06034195 0.0640288 0.06730461
 0.06951877 0.07041392 0.07018048 0.06933708 0.06833249 0.06746983 0.06718947 0.06780047 0.06875108 0.06883451
 0.06750806 0.06562221 0.06454401 0.06474152 0.06541193 0.06545864 0.06460033 0.0631839 0.06109526 0.05775037
 0.05343244 0.04963744 0.04757657 0.04725808 0.04838704 0.05083703 0.05358972 0.05466537 0.05328736 0.05127074
 0.05121507 0.05372934 0.05711639 0.05944999 0.0603574 0.06089281 0.06217566 0.06424591 0.06591418 0.06566124
 0.06315176 0.06008884 0.05901001 0.06078992 0.06379291 0.0658799 0.0666641 0.06726739 0.06836964 0.06915978
 0.06818316 0.06506987 0.06145912 0.05997989 0.06195742 0.06608869 0.06939055 0.06940241 0.06583959 0.06066432
 0.05656078 0.05507631 0.05620501 0.05941045 0.06421863 0.06967779 0.07411488 0.07606931 0.07535034 0.07296391
 0.06996475 0.066476 0.06222713 0.0581781 0.05673383 0.05947475 0.06513666 0.07066355 0.07393838 0.07484236
 0.07406333 0.07178706 0.06790377 0.06329247 0.06023974 0.06065916 0.0637849 0.06660698 0.06702262 0.06575341
 0.06479777 0.06494167 0.06546603 0.06568155 0.06592298 0.06698727 0.06899419 0.07108805 0.07226102 0.0722637
 0.07164988 0.07113092 0.07092834 0.07061239 0.06971481 0.06867308 0.06877136 0.07072851 0.07370208 0.07615389
 0.07739339 0.0778216 0.07788916 0.07730581 0.07545593 0.07254721 0.07007644 0.06971639 0.07169717 0.07466106
 0.07707214 0.07832225 0.07859193 0.0782932 0.07778867 0.07727248 0.07683134 0.07669695 0.07718993 0.07825631
 0.07936088 0.08002441 0.08021542 0.08010389 0.07972127 0.07904348 0.07824312 0.07768127 0.07764342 0.07812835
 0.07890558 0.07972454 0.08039416 0.08073007 0.08062062 0.08018459 0.07970741 0.07937775 0.0792086 0.07920887
 0.07945361 0.07993233 0.08046702 0.08085871 0.08104706 0.08108731 0.08103627 0.08090865 0.08071718 0.08052424
 0.08044422 0.08056237 0.080832 0.08110564 0.0813088 0.08151479 0.08178487 0.08201396 0.08203984 0.08186337
 0.08166063 0.08158937 0.08165839 0.08177958 0.08186828 0.08185783 0.08167796 0.08131659 0.08091794 0.08073334
 0.08091798 0.08141607 0.08205514 0.08267294 0.08314282 0.08339199 0.0834543 0.08343537 0.08338952 0.08328159
 0.08308554 0.08287634 0.08280528 0.08298591 0.08339179 0.0838688 0.08425793 0.08449279 0.08459416 0.08463703
 0.08472549 0.08491229 0.08511665 0.08519618 0.08512478 0.08503585 0.08506414 0.08519328 0.08528773 0.08525422
 0.08514775 0.08511199 0.08522727 0.08544151 0.08565156 0.08582056 0.0859948 0.08621569 0.08643065 0.08651391
 0.08640041 0.08618028 0.08601321 0.08596204 0.0859726 0.08600792 0.08611462 0.08632508 0.08656342 0.08670871
 0.08673099 0.08671667 0.08675466 0.08682953 0.08684684 0.08674577 0.0865625 0.0863921 0.086312 0.08633813
 0.08642686 0.08650628 0.08651954 0.08645643 0.08635063 0.08624472 0.08615948 0.08610626 0.08612305 0.08626225
 0.08651124 0.08674373 0.08679764 0.08662249 0.08633564 0.08611709 0.08604948 0.08606254 0.08602287 0.08586079
 0.08561056 0.08535413 0.08515106 0.08501363 0.08492047 0.08484612 0.08479507 0.08481064 0.08492484 0.08508533
 0.08516082 0.08505352 0.08479859 0.08452821 0.08435056 0.08428556 0.08429077 0.08431006 0.08431351 0.08432235
 0.0843766 0.08445984 0.08449355 0.08443252 0.08432845 0.08427712 0.08433793 0.08451046 0.08473474 0.08490153
 0.08492209 0.08481732 0.08470252 0.08466922 0.08471373 0.08478576 0.08486305 0.08495485 0.08506256 0.08517207
 0.08528312 0.0854234 0.08562236 0.08587371 0.08612815 0.08632632 0.08644915 0.08654295 0.08668809 0.08693221
 0.08724928 0.08756451 0.08781852 0.08801017 0.0881823 0.08836959 0.08857028 0.08877531 0.08900522 0.08929047
 0.08962233 0.08995429 0.09025314 0.09052533 0.0907937 0.09107122 0.09136197 0.09167594 0.0920359 0.09245665
 0.09290347 0.09328625 0.09352855 0.09364696 0.0937461 0.09393768 0.09426491 0.09467317 0.0950356 0.09524575
 0.09532262 0.09539962 0.09558026 0.09583487 0.09607594 0.09630086 0.09659939 0.09702232 0.09749493 0.0978824
 0.09812035 0.09826377 0.09841517 0.0986153 0.09881231 0.0989392 0.09900443 0.09907998 0.09920999 0.09937859
 0.09957833 0.09985358 0.1002347 0.1006667 0.1010508 0.1013373 0.1015423 0.1016961 0.1018128 0.1018953
 0.1019393 0.1019494 0.1019628 0.1020279 0.1021405 0.1022367 0.1022741 0.1022881 0.1023466 0.1024809
 0.1026872 0.1029598 0.1032813 0.1036015 0.1038789 0.1041446 0.1044714 0.1048588 0.1051956 0.105377
 0.1054233 0.1054349 0.1054637 0.1054972 0.1055489 0.1056843 0.1059391 0.1062712 0.1066155 0.10695
 0.1072893 0.1076365 0.1079584 0.1081987 0.1083148 0.108314 0.1082611 0.1082484 0.1083486 0.10858
 0.1088999 0.1092338 0.1095215 0.1097315 0.109841 0.1098379 0.1097651 0.1097306 0.1098241 0.1100169
 0.1101753 0.1101732 0.1099735 0.109603 0.1090937 0.1084711 0.1077841 0.1071155 0.1065534 0.1061545
 0.1059399 0.1059266 0.106146 0.1066073 0.1072454 0.107935 0.1085657 0.1090725 0.1093893 0.1094251
 0.1091285 0.1085529 0.1078279 0.1070794 0.1063854 0.1057695 0.1052023 0.1046423 0.1041224 0.1037912
 0.1038427 0.1043974 0.1054402 0.1068334 0.1083644 0.1098126 0.1110315 0.1120006 0.1127974 0.1135103
 0.1141818 0.1148288 0.1154787 0.1161471 0.1167975 0.1173672 0.1178379 0.118249 0.1186419 0.1190183
 0.1193547 0.119633 0.1198592 0.1200651 0.120278 0.1204737 0.1205841 0.120572 0.1204754 0.1203604
 0.1202474 0.1200968 0.11985 0.1194792 0.119025 0.1186155 0.1184386 0.1186619 0.1193418 0.1203912
 0.1216418 0.1229452 0.1242097 0.1253556 0.126289 0.1269536 0.1273868 0.1276919 0.1279638 0.1282503
 0.128561 0.1288848 0.1292018 0.1294971 0.1297714 0.1300431 0.1303391 0.1306725 0.1310196 0.1313313
 0.1315826 0.1318078 0.1320738 0.1324163 0.1328039 0.1331722 0.1334937 0.1337993 0.1341212 0.1344355
 0.134689 0.134874 0.1350421 0.1352519 0.1355296 0.1358705 0.1362385 0.1365701 0.1368176 0.1369951
 0.1371599 0.1373524 0.137573 0.1378089 0.1380563 0.1383129 0.1385715 0.138832 0.1391107 0.1394185
 0.1397289 0.1399872 0.1401643 0.1402926 0.1404348 0.1406244 0.140846 0.141066 0.1412724 0.1414889
 0.1417501 0.1420586 0.1423669 0.1426143 0.1427827 0.1429079 0.1430416 0.1432093 0.1434051 0.1436119
 0.1438195 0.1440238 0.1442221 0.1444166 0.1446169 0.1448292 0.145046 0.1452535 0.1454496 0.1456472
 0.1458583 0.1460815 0.1463094 0.1465473 0.1468133 0.1471108 0.1474083 0.1476603 0.1478473 0.1479857
 0.1481034 0.1482227 0.1483608 0.1485293 0.1487268 0.1489392 0.1491502 0.149353 0.1495531 0.1497591
 0.1499725 0.1501872 0.1503986 0.1506063 0.1508124 0.1510224 0.1512447 0.1514796 0.1517126 0.1519249
 0.152111 0.1522842 0.1524649 0.1526622 0.1528661 0.1530603 0.1532428 0.1534251 0.1536128 0.1538002
 0.1539841 0.1541706 0.1543671 0.154574 0.1547853 0.1549926 0.1551887 0.1553721 0.1555503 0.1557345
 0.1559294 0.1561289 0.1563253 0.1565217 0.1567294 0.15695 0.1571698 0.1573754 0.1575674 0.1577554
 0.1579464 0.1581418 0.1583401 0.1585383 0.1587327 0.158922 0.1591102 0.1593044 0.1595069 0.1597128
 0.1599173 0.1601218 0.160328 0.1605339 0.1607409 0.160956 0.1611803 0.1614037 0.1616171 0.1618218
 0.162024 0.1622276 0.1624339 0.1626427 0.162853 0.1630636 0.1632733 0.1634802 0.1636826 0.1638793
 0.1640701 0.1642556 0.1644374 0.1646142 0.1647846 0.1649537 0.1651298 0.1653135 0.1654993 0.1656862
 0.16588 0.1660852 0.1663005 0.1665182 0.1667272 0.1669233 0.1671152 0.167314 0.1675215 0.1677326
 0.1679418 0.1681446 0.1683407 0.1685354 0.1687332 0.1689351 0.1691451 0.169369 0.1696028 0.1698336
 0.1700517 0.1702552 0.1704485 0.1706431 0.17085 0.1710675 0.1712858 0.1715002 0.171711 0.1719189
 0.1721268 0.1723383 0.1725519 0.1727661 0.1729828 0.1731979 0.1734021 0.1735978 0.1737984 0.1740089
 0.1742254 0.1744467 0.1746707 0.1748893 0.175099 0.1753039 0.1755072 0.175712 0.1759238 0.1761403
 0.176353 0.1765623 0.1767721 0.1769679 0.1771061 0.1770749 0.1765983 0.1751437 0.1719162 0.1660056
 0.1567295 0.1440549 0.1287704 0.1122165 0.09578817 0.08056274 0.06718951 0.05596802 0.04698078 0.04017967
 0.03544252 0.03266303 0.03184338 0.03319835 0.03727494 0.04462648 0.05457784 0.06414191 0.06918977 0.06770951
 0.06172616 0.05545425 0.05180001 0.05096582 0.05171132 0.05298183 0.05444695 0.05630146 0.0588712 0.06223625
 0.06622216 0.07081535 0.07636099 0.0831188 0.0907356 0.09839644 0.1055297 0.1122544 0.1190983 0.1263555
 0.1337749 0.1408103 0.1470568 0.152447 0.1571579 0.1614234 0.1654054 0.1691744 0.1727577 0.1761476
 0.1792308 0.1817548 0.1834454 0.1842144 0.1842648 0.1839849 0.1837217 0.1836404 0.1837563 0.1840383
 0.1844578 0.1849903 0.1856171 0.1863253 0.1870933 0.1878898 0.1886874 0.1894661 0.1902087 0.1909029
 0.191543 0.1921257 0.1926532 0.1931382 0.1935965 0.1940356 0.1944558 0.1948527 0.195218 0.1955478
 0.195851 0.1961419 0.1964268 0.1967031 0.1969661 0.1972118 0.1974407 0.1976587 0.1978711 0.198078
 0.1982791 0.198477 0.1986756 0.1988779 0.1990865 0.199299 0.1995085 0.1997124 0.1999162 0.200124
 0.2003301 0.2005266 0.2007111 0.2008876 0.2010639 0.2012483 0.2014446 0.2016483 0.2018497 0.2020418
 0.2022296 0.2024268 0.2026383 0.2028517 0.2030552 0.203256 0.2034663 0.2036811 0.2038866 0.2040837
 0.2042846 0.2044932 0.204704 0.2049139 0.2051199 0.2053126 0.2054832 0.2056375 0.2057984 0.2059898
 0.2062129 0.2064432 0.2066572 0.2068554 0.2070527 0.2072549 0.2074521 0.2076314 0.2077955 0.2079737
 0.2082 0.208471 0.2087439 0.2089874 0.20921 0.2094332 0.209666 0.2099107 0.2101569 0.2103673
 0.2105086 0.2106053 0.2107415 0.2109925 0.2113546 0.2117452 0.2120785 0.212337 0.2125631 0.2128012
 0.2130699 0.213346 0.2135441 0.2135745 0.213485 0.2134846 0.2137536 0.2142618 0.2148259 0.2152976
 0.2156534 0.215943 0.216207 0.2164375 0.2165883 0.2166253 0.2165938 0.2166375 0.2169016 0.2173845
 0.2179248 0.218367 0.2186854 0.2189264 0.2191196 0.2192798 0.2193795 0.2192936 0.2189319 0.2184919
 0.2184113 0.218939 0.2198491 0.2206836 0.2212106 0.2215361 0.2218313 0.2221229 0.2223547 0.2224361
 0.2221404 0.2212317 0.2199373 0.2190784 0.2193939 0.2207945 0.2225042 0.2238323 0.2246063 0.2249984
 0.2252301 0.2254284 0.225529 0.2252759 0.2245081 0.2235467 0.223121 0.2236959 0.2249485 0.2261097
 0.2267486 0.2270096 0.227206 0.2274667 0.2276489 0.2273053 0.2259407 0.2237411 0.2219406 0.2219537
 0.2239909 0.2268027 0.2289164 0.2299033 0.2302667 0.2303553 0.2298561 0.2283639 0.2259904 0.2233149
 0.2212045 0.2206988 0.2223202 0.2252067 0.2276001 0.2285844 0.2288608 0.229591 0.2310139 0.2324467
 0.2331704 0.2329852 0.2321032 0.230763 0.2291109 0.2275536 0.2269707 0.2280933 0.2306124 0.2332925
 0.2351098 0.2360247 0.2364437 0.2360172 0.2333986 0.2278652 0.2213415 0.2178614 0.2200061 0.2262051
 0.232424 0.2361304 0.2376803 0.2384213 0.238887 0.2386481 0.2365626 0.2313986 0.223771 0.2173623
 0.2164332 0.2216055 0.2291572 0.234501 0.235312 0.2317705 0.2257366 0.2201936 0.2180244 0.2202628
 0.2256504 0.2318826 0.2369872 0.2398548 0.2402215 0.2385691 0.2361006 0.2344519 0.2345019 0.2350727
 0.233828 0.2302291 0.2264318 0.224117 0.2218859 0.2178461 0.2137777 0.2139497 0.2195697 0.226756
 0.2309022 0.2313458 0.2305113 0.2294978 0.2261867 0.2182794 0.2076452 0.2003984 0.2015498 0.2097997
 0.2187003 0.2229779 0.2227236 0.2214739 0.2214972 0.2214892 0.2184087 0.2114465 0.2040332 0.2009578
 0.2032667 0.2073233 0.2091056 0.2074072 0.2024124 0.1944098 0.18612 0.1835195 0.1907924 0.2052064
 0.2192609 0.2268587 0.2255113 0.2149906 0.1982322 0.1831603 0.1788205 0.1872657 0.2010629 0.2101338
 0.2097386 0.2013037 0.1881385 0.1732023 0.1604816 0.1553653 0.161413 0.1767622 0.1941691 0.2045716
 0.2020761 0.1885782 0.1742479 0.1702076 0.1783571 0.1900319 0.195711 0.1936663 0.1885737 0.1855148
 0.1870651 0.1928434 0.1999035 0.2055002 0.2092737 0.2101071 0.2031691 0.1857163 0.1647525 0.1524136
 0.1533679 0.1624128 0.1741841 0.1879779 0.2014584 0.2073418 0.2016186 0.1911698 0.1879169 0.1961565
 0.2088785 0.2163427 0.2157224 0.211611 0.2089334 0.2077098 0.2055178 0.2031621 0.2048605 0.2124258
 0.2220944 0.2287242 0.2311335 0.2316321 0.232101 0.232568 0.2325315 0.231814 0.23048 0.2289637
 0.2279399 0.227558 0.2273004 0.2267698 0.2256576 0.2225339 0.2151561 0.203625 0.1923935 0.1867375
 0.1871569 0.1897385 0.1919681 0.1941926 0.1941924 0.1856597 0.1665311 0.1458217 0.137069 0.1452499
 0.1630723 0.1792865 0.1873072 0.1857707 0.1751587 0.1579966 0.1415469 0.1355461 0.1442699 0.1624327
 0.1808357 0.1942948 0.2022538 0.2043957 0.1996433 0.1892817 0.1782417 0.1722886 0.1744943 0.183872
 0.1957248 0.2028771 0.1991778 0.1856016 0.1729476 0.1738806 0.1896481 0.2080109 0.2170058 0.2170653
 0.2161694 0.2174529 0.2176434 0.2157425 0.2165231 0.223965 0.2353968 0.2441352 0.245355 0.237987
 0.2241055 0.2094387 0.2018852 0.2051371 0.2144126 0.2216089 0.2231303 0.2194068 0.2100991 0.1961067
 0.1846582 0.1849681 0.1975583 0.213044 0.2228032 0.2268309 0.2298217 0.2330771 0.232928 0.2263008
 0.2158667 0.208397 0.2080727 0.2128301 0.2178521 0.2206457 0.2210616 0.2184129 0.211911 0.2039475
 0.2001109 0.2043183 0.214731 0.2254478 0.2317636 0.2331023 0.231617 0.2294041 0.2271053 0.224088
 0.2198381 0.2157655 0.2149389 0.2188175 0.2249414 0.229463 0.2315567 0.2337023 0.2377783 0.24247
 0.2448708 0.2436543 0.2403283 0.2379122 0.2385143 0.2416691 0.2446913 0.2449671 0.2424387 0.2398919
 0.2403927 0.2443615 0.2495042 0.2534208 0.2555635 0.2567514 0.2577646 0.2586585 0.2587198 0.2570089
 0.2536879 0.250793 0.2507883 0.2541201 0.258792 0.26243 0.2642033 0.2646877 0.2645526 0.2638662
 0.262487 0.2606922 0.2591887 0.2585519 0.2588143 0.2596142 0.2605701 0.2614408 0.2621009 0.2625301
 0.2627937 0.262964 0.2630807 0.26318 0.2632811 0.2633319 0.2632618 0.2631244 0.263101 0.2633038
 0.2636346 0.2638902 0.2639432 0.2637451 0.2632207 0.262293 0.2610124 0.2595446 0.2579892 0.2563166
 0.2545878 0.2531985 0.2527661 0.2536673 0.2556822 0.2581218 0.2602972 0.2618646 0.2628177 0.2633023
 0.2634911 0.2635399 0.2635486 0.26353 0.2634376 0.2632331 0.2629263 0.26256 0.2621725 0.2617865
 0.2614261 0.2611168 0.2608541 0.2605853 0.2602434 0.2597996 0.2592802 0.2587397 0.2582155 0.2576923
 0.2571037 0.2563808 0.2555085 0.2545432 0.253581 0.2527024 0.2519241 0.2511942 0.2504397 0.2496174
 0.2487071 0.2476802 0.2465289 0.2453341 0.2442514 0.2433913 0.2427282 0.2421392 0.2415045 0.240756
 0.2398737 0.2388809 0.2378319 0.2367711 0.235701 0.2345962 0.2334322 0.2321887 0.2308466 0.2293997
 0.2278634 0.2262683 0.2246496 0.2230302 0.2213881 0.2196379 0.217652 0.2153031 0.2124881 0.2091376
 0.2052313 0.2008213 0.196043 0.1910963 0.1861951 0.181518 0.1771943 0.1733191 0.1699689 0.1672085
 0.1650944 0.1636704 0.162959 0.1629622 0.1636686 0.1650468 0.1670266 0.1694919 0.1722922 0.1752637
 0.1782436 0.1810827 0.1836794 0.1860265 0.1882051 0.1902952 0.1922914 0.1941256 0.1957512 0.1971714
 0.1983985 0.1994308 0.2002739 0.2009615 0.2015399 0.2020399 0.202469 0.2028293 0.2031343 0.2034006
 0.2036313 0.2038206 0.2039753 0.2041214 0.204289 0.2044947 0.2047406 0.205033 0.2053962 0.2058539
 0.2063965 0.2069834 0.2075804 0.2081796 0.2087885 0.2094254 0.2101264 0.210939 0.2118988 0.2130168
 0.2142794 0.2156492 0.2170627 0.218433 0.219664 0.2206738 0.2214158 0.2218874 0.222125 0.2221849
 0.2221118 0.2219202 0.221614 0.2212173 0.2207654 0.2202708 0.21972 0.2191057 0.2184457 0.2177664
 0.2170799 0.2163847 0.2156806 0.214977 0.2142867 0.2136194 0.2129807 0.2123715 0.2117827 0.2112007
 0.2106221 0.2100542 0.2094956 0.2089295 0.2083402 0.2077236 0.207074 0.2063701 0.2055838 0.2046977
 0.2037075 0.2026132 0.2014162 0.200124 0.19875 0.1973043 0.1957887 0.1942038 0.192555 0.1908461
 0.1890627 0.1871758 0.1851794 0.1831256 0.1811113 0.1792227 0.1774964 0.1759232 0.1744695 0.1730973
 0.1717791 0.1705036 0.1692703 0.1680849 0.1669567 0.1658905 0.1648817 0.1639267 0.1630332 0.1622179
 0.1614958 0.1608695 0.1603277 0.1598563 0.1594494 0.1591067 0.158833 0.1586487 0.1585778 0.1586043
 0.1586632 0.1586902 0.158665 0.1585993 0.1585102 0.1584111 0.158311 0.1582164 0.1581313 0.1580422
 0.1578952 0.1575975 0.1570447 0.1561587 0.1549262 0.1534054 0.1516887 0.1498735 0.148074 0.1464144
 0.1449811 0.1438065 0.1428952 0.142222 0.1417134 0.1412896 0.1409384 0.1407249 0.1407254 0.1409372
 0.1412323 0.1414301 0.1414652 0.14146 0.1416087 0.1420202 0.142671 0.1434465 0.1442105 0.1448737
 0.145405 0.1457894 0.1460229 0.1461412 0.1461892 0.1461687 0.1460572 0.1458573 0.1455915 0.1452791
 0.1449274 0.1445148 0.1440026 0.143389 0.1427099 0.1419772 0.141176 0.1403047 0.1393442 0.1382433
 0.1370337 0.1359182 0.1351735 0.1349886 0.1353858 0.1362153 0.1372443 0.1383108 0.1393305 0.1401382
 0.1405227 0.1405653 0.1408058 0.1418625 0.1438529 0.1462609 0.1483812 0.1498254 0.1505797 0.1507352
 0.1503443 0.1494547 0.1480838 0.1461937 0.1438125 0.1410883 0.1381636 0.1351477 0.1322258 0.1296088
 0.1273908 0.1255751 0.124149 0.1231499 0.1227177 0.1225063 0.12065 0.1147189 0.1054507 0.09845659
 0.09950897 0.108055 0.1175928 0.1225531 0.1227504 0.1211284 0.1197215 0.1188152 0.1182848 0.1182811
 0.118953 0.1201639 0.1215201 0.1226125 0.1232686 0.1235305 0.1233763 0.1224619 0.120046 0.1152628
 0.1078286 0.09862721 0.08940127 0.08174981 0.07641309 0.07327087 0.07168677 0.07089003 0.07035966 0.07005346
 0.07027606 0.07131285 0.07320445 0.07582255 0.07900636 0.08250453 0.08588517 0.08872494 0.09092008 0.09266567
 0.09411311 0.09518471 0.09573591 0.09575933 0.09538245 0.09475707 0.09400125 0.09318079 0.09227194 0.09117982
 0.08989922 0.08865933 0.08779095 0.0874155 0.08736102 0.08739115 0.0874 0.08738209 0.08734329 0.08728021
 0.08719353 0.08712774 0.08720196 0.08752266 0.08803888 0.08855132 0.08888617 0.08902767 0.08908063 0.08909672
 0.0889371 0.0884093 0.08759777 0.08687085 0.08639717 0.08584904 0.08483496 0.08350072 0.08244299 0.08207702
 0.08228495 0.08264287 0.08280215 0.08265898 0.08236158 0.08224179 0.08257572 0.08325365 0.08377897 0.08374377
</values></Ydata></ScRf><Data_Parameters_AB><parameter name="DPF">1</parameter><parameter name="NPT">3497</parameter><parameter name="FXV">3996</parameter><parameter name="LXV">500</parameter><parameter name="CSF">1</parameter><parameter name="MXY">0.199274152517319</parameter><parameter name="MNY">-0.086699053645134</parameter><parameter name="DAT">30/05/2022</parameter><parameter name="TIM">11:51:46.436 (GMT+2)</parameter><parameter name="DXU">WN</parameter></Data_Parameters_AB><AB__Qtest><MainReport name="Quality Test Report"><Header><Line><Legend>Test result ok/not ok [1/0]: </Legend><Value>0</Value></Line><Line><Legend>Method file: </Legend><Value>C:\Users\Public\Documents\Bruker\OPUS_8.2.28\QT\IRBT_v3_default.QT</Value></Line></Header><Matrix><Line><Legend></Legend><Legend>min</Legend><Legend>max</Legend><Legend>measured</Legend></Line><Line><Value>Absorption (X-Range 1):</Value><Value>0.400000</Value><Value>2.000000</Value><Value>0.226350</Value></Line><Line><Value>Noise (X-Range 4):</Value><Value></Value><Value>0.000300</Value><Value>0.000046</Value></Line><Line><Value>Signal/Noise (X-Range 2):</Value><Value>200.000000</Value><Value></Value><Value>109.573171</Value></Line><Line><Value>Signal/Noise (X-Range 3):</Value><Value>40.000000</Value><Value></Value><Value>52.773127</Value></Line><Line><Value>Water vapour (X-Range 5):</Value><Value></Value><Value>0.000300</Value><Value>0.000055</Value></Line><Line><Value>Signal/Water (X-Range 2):</Value><Value>100.000000</Value><Value></Value><Value>92.456262</Value></Line><Line><Value>Signal/Water (X-Range 3):</Value><Value>20.000000</Value><Value></Value><Value>44.529204</Value></Line><Line><Value>Fringes (X-Range 6):</Value><Value></Value><Value>0.000100</Value><Value>0.000059</Value></Line></Matrix></MainReport></AB__Qtest><Data_Parameters_ScSm><parameter name="DPF">1</parameter><parameter name="NPT">1814</parameter><parameter name="FXV">3996.33169228125</parameter><parameter name="LXV">499.541461535156</parameter><parameter name="CSF">1</parameter><parameter name="MXY">0.290878415107727</parameter><parameter name="MNY">0.0378240905702114</parameter><parameter name="DAT">30/05/2022</parameter><parameter name="TIM">11:51:46.436 (GMT+2)</parameter><parameter name="DXU">WN</parameter></Data_Parameters_ScSm><Data_Parameters_ScRf><parameter name="DPF">1</parameter><parameter name="NPT">1820</parameter><parameter name="FXV">4004.04661832813</parameter><parameter name="LXV">495.683998511719</parameter><parameter name="CSF">1</parameter><parameter name="MXY">0.264687716960907</parameter><parameter name="MNY">0.0318433791399002</parameter><parameter name="DAT">30/05/2022</parameter><parameter name="TIM">11:51:20.584 (GMT+2)</parameter><parameter name="DXU">WN</parameter></Data_Parameters_ScRf><Optic_Parameters_Rf><parameter name="APR">0</parameter><parameter name="APT">Open</parameter><parameter name="BMS">KBr</parameter><parameter name="DTC">RT-DLaTGS_IR-Biotyper [Microplate reader]</parameter><parameter name="HPF">0</parameter><parameter name="LPF">10.0</parameter><parameter name="LPV">4000</parameter><parameter name="PGR">0</parameter><parameter name="RCH">Module port</parameter><parameter name="RDX">0</parameter><parameter name="SRC">MIR</parameter><parameter name="VEL">10.0</parameter><parameter name="SON">Off</parameter></Optic_Parameters_Rf><Acquisition_Parameters_Rf><parameter name="ADT">1</parameter><parameter name="AQM">DD</parameter><parameter name="CFE">0</parameter><parameter name="COR">0</parameter><parameter name="DEL">0</parameter><parameter name="DLY">0</parameter><parameter name="HFW">8000</parameter><parameter name="LFW">0</parameter><parameter name="NSR">32</parameter><parameter name="PLF">AB</parameter><parameter name="RES">6</parameter><parameter name="RGN">-1</parameter><parameter name="STR">0</parameter><parameter name="TCL">MakeCompatibleScalar (0, {WSV=1.000000, ARV=0});</parameter><parameter name="TDL">37</parameter><parameter name="RPO">0</parameter></Acquisition_Parameters_Rf><FT_-_Parameters_Rf><parameter name="APF">B3</parameter><parameter name="HFQ">500</parameter><parameter name="LFQ">4000</parameter><parameter name="NLI">0</parameter><parameter name="PHR">24</parameter><parameter name="PHZ">ML</parameter><parameter name="SPZ">NO</parameter><parameter name="ZFF">1</parameter></FT_-_Parameters_Rf><Optic_Parameters_><parameter name="APR">0</parameter><parameter name="APT">Open</parameter><parameter name="BMS">KBr</parameter><parameter name="CHN">Module port</parameter><parameter name="DTC">RT-DLaTGS_IR-Biotyper [Microplate reader]</parameter><parameter name="HPF">0</parameter><parameter name="LPF">10.0</parameter><parameter name="LPV">4000</parameter><parameter name="PGN">0</parameter><parameter name="RDX">0</parameter><parameter name="SRC">MIR</parameter><parameter name="VEL">10.0</parameter><parameter name="SON">Off</parameter></Optic_Parameters_><FT_-_Parameters_><parameter name="APF">B3</parameter><parameter name="HFQ">500</parameter><parameter name="LFQ">4000</parameter><parameter name="NLI">0</parameter><parameter name="PHR">24</parameter><parameter name="PHZ">ML</parameter><parameter name="SPZ">NO</parameter><parameter name="ZFF">1</parameter></FT_-_Parameters_><Acquisition_Parameters_><parameter name="ADT">1</parameter><parameter name="AQM">DD</parameter><parameter name="CFE">0</parameter><parameter name="COR">0</parameter><parameter name="DEL">0</parameter><parameter name="DLY">0</parameter><parameter name="HFW">8000</parameter><parameter name="LFW">0</parameter><parameter name="NSS">32</parameter><parameter name="PLF">AB</parameter><parameter name="RES">6</parameter><parameter name="SOT">0</parameter><parameter name="TCL">MakeCompatibleScalar (0, {WSV=1.000000, ARV=0});</parameter><parameter name="TDL">37</parameter><parameter name="SPO">0</parameter><parameter name="SGN">-1</parameter></Acquisition_Parameters_><Instrument_Parameters_Rf><parameter name="HFL">15800.168544</parameter><parameter name="LFL">0</parameter><parameter name="LWN">15800.168544</parameter><parameter name="ABP">32197</parameter><parameter name="SSP">1</parameter><parameter name="ARG">2</parameter><parameter name="ASG">2</parameter><parameter name="ASS">32</parameter><parameter name="GFW">16</parameter><parameter name="GBW">16</parameter><parameter name="BFW">0</parameter><parameter name="BBW">0</parameter><parameter name="PKA">7294</parameter><parameter name="PKL">4996</parameter><parameter name="PRA">7463</parameter><parameter name="PRL">5001</parameter><parameter name="P2A">1</parameter><parameter name="P2L">1</parameter><parameter name="P2R">1</parameter><parameter name="P2K">1</parameter><parameter name="DAQ">0</parameter><parameter name="AG2">1</parameter><parameter name="SSM">1</parameter><parameter name="RSN">25260</parameter><parameter name="CRR">0</parameter><parameter name="SRT">1653911480.584</parameter><parameter name="DUR">19.6379852294922</parameter><parameter name="TSC">28.1</parameter><parameter name="MVD">0.19747868180275</parameter><parameter name="AN1">0.225827452804915</parameter><parameter name="AN2">0</parameter><parameter name="VSN">2.485 Apr  4 2017</parameter><parameter name="SRN">0085</parameter><parameter name="CAM">0</parameter><parameter name="INS">IR-Biotyper</parameter><parameter name="FOC">69</parameter><parameter name="RDY">1</parameter><parameter name="ARS">32</parameter></Instrument_Parameters_Rf><Sample_Parameters_><parameter name="BLD"></parameter><parameter name="CNM">Admin</parameter><parameter name="CPY"></parameter><parameter name="DPM"></parameter><parameter name="EXP">IRBT_v3_32Scans.XPM</parameter><parameter name="LCT"></parameter><parameter name="SFM">Microplate, HTS-XT</parameter><parameter name="SNM">220530-1021_SPB34F (D_2)_E7_92988e73-651c-44e8-9512-591e663df094.0</parameter><parameter name="XPP">C:\Users\Public\Documents\Bruker\OPUS_8.2.28\XPM</parameter><parameter name="IST">OK</parameter><parameter name="CPG">1252</parameter><parameter name="UID">5fb9e76d-9c54-4450-b74e-5d2777aceebe</parameter></Sample_Parameters_><Instrument_Parameters_><parameter name="HFL">15800.168544</parameter><parameter name="LFL">0</parameter><parameter name="LWN">15800.168544</parameter><parameter name="ABP">32197</parameter><parameter name="SSP">1</parameter><parameter name="ASG">2</parameter><parameter name="ARG">2</parameter><parameter name="ASS">32</parameter><parameter name="GFW">16</parameter><parameter name="GBW">16</parameter><parameter name="BFW">0</parameter><parameter name="BBW">0</parameter><parameter name="PKA">7647</parameter><parameter name="PKL">4988</parameter><parameter name="PRA">7928</parameter><parameter name="PRL">4993</parameter><parameter name="P2A">1</parameter><parameter name="P2L">1</parameter><parameter name="P2R">1</parameter><parameter name="P2K">1</parameter><parameter name="DAQ">0</parameter><parameter name="AG2">1</parameter><parameter name="SSM">1</parameter><parameter name="RSN">13256</parameter><parameter name="CRR">0</parameter><parameter name="SRT">1653911506.436</parameter><parameter name="DUR">19.6379852294922</parameter><parameter name="TSC">28.1</parameter><parameter name="MVD">0.191754445433617</parameter><parameter name="AN1">0.225813021066358</parameter><parameter name="AN2">0</parameter><parameter name="VSN">2.485 Apr  4 2017</parameter><parameter name="SRN">0085</parameter><parameter name="CAM">0</parameter><parameter name="INS">IR-Biotyper</parameter><parameter name="FOC">69</parameter><parameter name="RDY">1</parameter></Instrument_Parameters_><History/></OPUSDataFile>
