<?xml version="1.0" encoding="UTF-8" ?>
<OPUSDataFile><AB><Ydata ylabel="Absorbance Units"><values byteorder="INTEL" format="FLOAT32" numvalues="3497"> -0.07899669 -0.07896324 -0.07892791 -0.07889075 -0.07885157 -0.07881035 -0.0787596 -0.07869989 -0.07863536 -0.07856867
 -0.07851766 -0.07848327 -0.07847988 -0.07850283 -0.07854927 -0.07861246 -0.07867946 -0.07874851 -0.07881185 -0.07887229
 -0.07893058 -0.07898574 -0.07903918 -0.07908338 -0.07911621 -0.07913114 -0.0791253 -0.07909998 -0.07905378 -0.07899801
 -0.07893297 -0.07887714 -0.07883155 -0.07881097 -0.07881468 -0.07883792 -0.07887772 -0.07891303 -0.078944 -0.07895808
 -0.0789618 -0.07896446 -0.07897089 -0.07899601 -0.07903343 -0.07908347 -0.07913424 -0.07917489 -0.07920345 -0.07921407
 -0.07921498 -0.07920901 -0.07919758 -0.07918263 -0.07915732 -0.07911952 -0.07907394 -0.07901955 -0.0789801 -0.07895686
 -0.07896993 -0.07901828 -0.07909334 -0.07919101 -0.07928123 -0.07936393 -0.07942115 -0.07945953 -0.07948639 -0.07950628
 -0.0795318 -0.07955956 -0.07959115 -0.07962067 -0.07964321 -0.07965734 -0.07966037 -0.07965458 -0.07964033 -0.07961909
 -0.0795911 -0.07955817 -0.07951979 -0.0794833 -0.07944872 -0.07943035 -0.07942898 -0.0794617 -0.07952867 -0.07963806
 -0.07978563 -0.07995305 -0.08013009 -0.08026783 -0.08036404 -0.08038241 -0.08034217 -0.08025714 -0.08014928 -0.0800527
 -0.0799701 -0.07991914 -0.07988187 -0.07985476 -0.07981706 -0.07975609 -0.07967769 -0.07957559 -0.07948801 -0.07941924
 -0.07940595 -0.07945433 -0.079559 -0.07972023 -0.07988952 -0.08006468 -0.08020303 -0.08030804 -0.08037892 -0.08042242
 -0.0804639 -0.08050507 -0.08056521 -0.08063679 -0.08071727 -0.08079565 -0.08085696 -0.08089772 -0.08090885 -0.08089472
 -0.08085454 -0.08079537 -0.08071675 -0.08063646 -0.08055473 -0.08050707 -0.0804977 -0.08056519 -0.08071658 -0.08094655
 -0.08125618 -0.08151435 -0.08171303 -0.08169206 -0.08147474 -0.08113045 -0.08069065 -0.08031724 -0.08000612 -0.07983019
 -0.07976771 -0.07982042 -0.07995267 -0.08012793 -0.08030637 -0.0804392 -0.08051875 -0.08051763 -0.08047693 -0.080405
 -0.08033995 -0.08029852 -0.08027291 -0.08026589 -0.08025416 -0.08023439 -0.08020601 -0.08016864 -0.08013909 -0.08011759
 -0.08011101 -0.08011741 -0.08012745 -0.08013975 -0.08014373 -0.08014037 -0.08012744 -0.08010483 -0.08007171 -0.08002691
 -0.07996711 -0.07989646 -0.07981489 -0.0797338 -0.07965776 -0.07960148 -0.07957148 -0.07957771 -0.07962629 -0.0797097
 -0.07983045 -0.07996008 -0.080097 -0.08020637 -0.08028595 -0.0803123 -0.08028554 -0.08020482 -0.08007318 -0.07990904
 -0.07971647 -0.07951952 -0.07932261 -0.0791484 -0.07900026 -0.0788959 -0.07883185 -0.07881475 -0.07882853 -0.07886461
 -0.07890233 -0.07892571 -0.07892936 -0.07890412 -0.078865 -0.07881303 -0.07876693 -0.07873062 -0.0787119 -0.07871245
 -0.07873069 -0.07876669 -0.07881398 -0.0788719 -0.0789291 -0.07898455 -0.07902521 -0.07905181 -0.07905878 -0.07905065
 -0.07903545 -0.07901863 -0.07901502 -0.07902346 -0.07905118 -0.07908718 -0.07912327 -0.07915553 -0.07917317 -0.07919876
 -0.07923666 -0.07931404 -0.07944529 -0.07961362 -0.07982515 -0.08001222 -0.08016855 -0.08024167 -0.08022744 -0.08011813
 -0.07991508 -0.07963902 -0.07929684 -0.07894456 -0.07859018 -0.07829662 -0.07806394 -0.07792684 -0.07787515 -0.07791421
 -0.07801388 -0.07814327 -0.0782676 -0.07833958 -0.07836379 -0.07832363 -0.07825308 -0.0781628 -0.07807455 -0.07800017
 -0.07793009 -0.07786656 -0.07778329 -0.07767634 -0.07754233 -0.07738025 -0.07722002 -0.07706343 -0.07694419 -0.07686112
 -0.07682542 -0.07682873 -0.07684622 -0.0768652 -0.07683423 -0.07675996 -0.07662408 -0.07645477 -0.07628465 -0.07612047
 -0.07598642 -0.07585824 -0.07572945 -0.075576 -0.07538166 -0.07515375 -0.07488673 -0.07461348 -0.07433911 -0.07408711
 -0.07386263 -0.07365733 -0.07347167 -0.07326638 -0.07303982 -0.07275787 -0.07242586 -0.07206567 -0.07168527 -0.07133187
 -0.07100207 -0.07071017 -0.0704515 -0.07022407 -0.07002469 -0.06985446 -0.06969339 -0.06953142 -0.06933097 -0.0690637
 -0.06871741 -0.06827392 -0.06775977 -0.06717924 -0.06655131 -0.06587964 -0.06517798 -0.06444689 -0.06371203 -0.06297527
 -0.0622479 -0.06152997 -0.06081881 -0.06011591 -0.05943124 -0.05876719 -0.05814148 -0.0575503 -0.05699387 -0.05646442
 -0.05594973 -0.05543906 -0.05492235 -0.05436673 -0.05374456 -0.0530178 -0.05213659 -0.05115101 -0.05005507 -0.04895839
 -0.04790022 -0.04690223 -0.04598068 -0.04509413 -0.04423919 -0.04338868 -0.04254008 -0.04169438 -0.04085225 -0.04003075
 -0.03922886 -0.03845366 -0.03769099 -0.03689017 -0.03602753 -0.03499506 -0.03382206 -0.03248895 -0.03109344 -0.02976988
 -0.02854065 -0.02749571 -0.02655445 -0.02569679 -0.02484157 -0.02394175 -0.02298336 -0.02194461 -0.02087376 -0.01977729
 -0.01868837 -0.01761567 -0.01653337 -0.01544093 -0.01429026 -0.01308097 -0.01181231 -0.01049226 -0.00918418 -0.007891539
 -0.006666949 -0.005498857 -0.0043828 -0.003306088 -0.002242384 -0.001185458 -0.0001169229 0.0009664924 0.00207824 0.003204808
 0.004345573 0.005474569 0.006572042 0.007657333 0.008720703 0.009841396 0.01103697 0.01233826 0.01376162 0.01520223
 0.01665484 0.01800318 0.01924607 0.0203927 0.02145221 0.02250261 0.02354498 0.02462896 0.02574085 0.02686995
 0.02799884 0.02908316 0.03012976 0.03111682 0.03209278 0.03308913 0.0341594 0.03536206 0.03666985 0.03810338
 0.03955388 0.04099051 0.04235322 0.04361745 0.04480871 0.04592556 0.04700964 0.04806374 0.04911805 0.05017386
 0.05125216 0.05235204 0.05347592 0.05462186 0.05578088 0.05695565 0.05815005 0.0593649 0.06060942 0.06186758
 0.06312504 0.06435915 0.06553915 0.06666699 0.06772839 0.06875362 0.06975169 0.07074852 0.07175773 0.07277286
 0.07379704 0.07480607 0.07579529 0.07676854 0.07772455 0.07870597 0.07971455 0.08078299 0.08190711 0.08306809
 0.08425806 0.08543067 0.0865846 0.087691 0.08875555 0.08977475 0.09075676 0.09171066 0.09264378 0.0935671
 0.09448164 0.09539159 0.09629469 0.09718872 0.09808075 0.09897092 0.0998726 0.100789 0.1017252 0.1026826
 0.1036593 0.1046554 0.1056651 0.1066878 0.1077014 0.1087035 0.1096619 0.1105782 0.1114404 0.1122564
 0.1130416 0.1138045 0.1145686 0.1153398 0.1161374 0.1169593 0.1178144 0.1186866 0.1195687 0.1204463
 0.1213074 0.1221598 0.1230037 0.1238463 0.1246926 0.1255224 0.1263333 0.1271137 0.1278611 0.1286108
 0.1293648 0.1301618 0.130998 0.1318583 0.1327344 0.1335783 0.1343899 0.1351416 0.1358433 0.1364999
 0.1371246 0.1377379 0.1383479 0.138973 0.1396058 0.1402491 0.1408874 0.1415116 0.1421218 0.1427137
 0.1433024 0.1438912 0.1444852 0.1450863 0.1456894 0.1462941 0.146903 0.1475161 0.1481402 0.1487751
 0.1494228 0.1500847 0.1507689 0.1514763 0.1522179 0.1529846 0.1537666 0.154547 0.1552968 0.1560092
 0.1566642 0.1572703 0.1578267 0.1583436 0.1588264 0.1592778 0.1596991 0.1600949 0.1604637 0.1608262
 0.1611834 0.1615667 0.161979 0.1624336 0.1629304 0.1634503 0.163992 0.1645356 0.1650844 0.1656465
 0.1662221 0.1668208 0.1674297 0.1680267 0.1686022 0.1691252 0.1696156 0.1700757 0.1705426 0.171048
 0.1715961 0.1722089 0.1728318 0.1734572 0.1740167 0.1744885 0.1748685 0.1751464 0.1753966 0.1756237
 0.1758929 0.1762054 0.1765346 0.1768742 0.1771484 0.1773624 0.1774976 0.1775752 0.1776524 0.1777429
 0.1779082 0.178138 0.1784478 0.178812 0.1792114 0.1796248 0.1800275 0.1804248 0.180805 0.181209
 0.1816461 0.1821547 0.1827537 0.183409 0.1841276 0.1847932 0.185398 0.185837 0.1861071 0.1862188
 0.1861837 0.1861178 0.1860287 0.1860193 0.1860765 0.1862117 0.1864113 0.1866454 0.1869239 0.18725
 0.1876283 0.1880787 0.1885581 0.18905 0.1894967 0.1898552 0.1901363 0.1903204 0.1904943 0.190672
 0.1909274 0.1912789 0.1917115 0.192229 0.1927407 0.1932419 0.1936371 0.1939273 0.1940805 0.1941119
 0.1940753 0.1939937 0.1939676 0.1940064 0.1941866 0.1944853 0.1949123 0.1954137 0.1959431 0.1964473
 0.1968677 0.1972013 0.1974188 0.1975809 0.1976961 0.1978362 0.1980212 0.1982778 0.198614 0.199024
 0.1995072 0.2000708 0.2007149 0.2014489 0.2022673 0.2031221 0.203995 0.2047677 0.2054264 0.2058554
 0.2060773 0.2060681 0.2058964 0.205645 0.2053897 0.2052487 0.2052355 0.2054182 0.2057111 0.2061065
 0.2064671 0.2067449 0.206855 0.2067577 0.2064879 0.2060361 0.205522 0.2049542 0.2044298 0.2039531
 0.2035332 0.2031662 0.2028122 0.2024718 0.2021265 0.201784 0.2014608 0.2011585 0.2008947 0.200651
 0.200417 0.2001506 0.1998097 0.1993476 0.1987108 0.1978991 0.1968813 0.1957363 0.1944721 0.1932054
 0.1919637 0.1908227 0.1898011 0.1889033 0.1881336 0.1874454 0.1868359 0.186229 0.1856212 0.1849445
 0.184207 0.1834104 0.182576 0.1817793 0.1810244 0.18037 0.1797789 0.1792243 0.1786604 0.1780183
 0.1773038 0.1764834 0.175628 0.1747565 0.1739534 0.1732562 0.1726944 0.1722933 0.1719904 0.1717888
 0.1715616 0.1712985 0.1708994 0.1703597 0.1696859 0.1688866 0.1680575 0.1672066 0.1664287 0.1657183
 0.165109 0.1645856 0.1641324 0.1637321 0.1633534 0.1629802 0.1625834 0.1621567 0.1616822 0.1611739
 0.16063 0.1600804 0.1595341 0.159016 0.1585358 0.1580935 0.1576931 0.1573098 0.1569426 0.1565583
 0.1561553 0.1557133 0.155233 0.1547175 0.1541707 0.1536151 0.1530552 0.1525188 0.1520053 0.1515301
 0.1510824 0.1506551 0.1502307 0.1497872 0.1493148 0.1487954 0.1482394 0.147644 0.1470325 0.1464128
 0.1457984 0.1451963 0.1445981 0.1440043 0.1433993 0.142781 0.1421472 0.1414979 0.1408457 0.1401914
 0.139547 0.1389119 0.1382888 0.1376763 0.137072 0.1364746 0.1358808 0.1352898 0.1346987 0.1341086
 0.1335184 0.1329328 0.1323522 0.1317885 0.1312444 0.1307416 0.1302883 0.1298985 0.1295838 0.1293114
 0.1290853 0.1288165 0.1284983 0.1280492 0.1274648 0.1267487 0.1259087 0.1250404 0.124155 0.1233698
 0.1226814 0.1221501 0.1217461 0.1214394 0.1211825 0.1208852 0.1205229 0.1200196 0.119415 0.118702
 0.1179637 0.1172448 0.1165881 0.11603 0.1155351 0.1151027 0.1146906 0.1142854 0.1139168 0.1135836
 0.1133571 0.1132409 0.1132481 0.1133711 0.1135228 0.1136895 0.1137436 0.113686 0.1134424 0.1130418
 0.1125067 0.1118808 0.1112461 0.1106231 0.1100745 0.1095784 0.1091393 0.1087289 0.1083254 0.1079417
 0.1075742 0.1072539 0.1069942 0.1067773 0.106607 0.1064241 0.1062214 0.105985 0.1057138 0.1054696
 0.1052556 0.1051312 0.1050885 0.1051132 0.1051911 0.1052622 0.1053241 0.1053385 0.1053176 0.1052648
 0.1051902 0.1051123 0.1050191 0.1049157 0.1047623 0.1045418 0.1042156 0.1037566 0.1031844 0.1024853
 0.1017592 0.1010148 0.1003675 0.09983282 0.09943652 0.09918101 0.09897321 0.0988056 0.09855133 0.09821382
 0.09774283 0.09716068 0.09651878 0.09583928 0.09520488 0.0946143 0.09410761 0.0936612 0.09326492 0.09289406
 0.09252399 0.09214615 0.09174584 0.09133507 0.09091182 0.09050187 0.09011211 0.08975624 0.08944247 0.08913878
 0.08884567 0.08849581 0.08808531 0.08758267 0.08699211 0.08636665 0.08571477 0.08512137 0.08457763 0.0841025
 0.08366936 0.08321975 0.08274405 0.08218936 0.08158623 0.08094469 0.08030715 0.07971507 0.07918048 0.07872493
 0.07833415 0.07800516 0.07773554 0.07752151 0.07737815 0.07730954 0.07731143 0.07738716 0.07748641 0.07760669
 0.07766987 0.07767302 0.07755706 0.07732705 0.07697997 0.07653116 0.0760324 0.07550129 0.07500669 0.0745569
 0.07419829 0.07392702 0.07375757 0.07368021 0.07369236 0.07378406 0.07395031 0.07418051 0.07447164 0.07480822
 0.07518719 0.0755905 0.07601339 0.07645331 0.07690661 0.077411 0.07796811 0.0786498 0.07945857 0.08044726
 0.08160832 0.08292459 0.08437865 0.08589664 0.08746663 0.08901973 0.09055942 0.09205908 0.09353053 0.09497698
 0.09640981 0.09783723 0.09927361 0.1007262 0.1022149 0.1037498 0.1053394 0.1069939 0.108684 0.110413
 0.1121088 0.1137671 0.115301 0.1167052 0.1179197 0.1189436 0.1197594 0.1203692 0.1207761 0.1209829
 0.1209943 0.1208276 0.1205141 0.1201046 0.1196893 0.1193353 0.1191622 0.1191972 0.119516 0.1200764
 0.1208825 0.1218665 0.1229996 0.1242537 0.1256118 0.1270865 0.1286785 0.1303944 0.1322375 0.134181
 0.1362239 0.1383092 0.140433 0.1425248 0.1445824 0.1465518 0.148439 0.1502367 0.1519563 0.153628
 0.1552453 0.1568286 0.1583194 0.1596863 0.1607879 0.1615311 0.1617032 0.1611669 0.1597563 0.15734
 0.1539873 0.1496365 0.1446659 0.1390974 0.1334578 0.1278014 0.1225326 0.1176817 0.1133794 0.1096207
 0.1063212 0.1034657 0.1009149 0.09866286 0.09661708 0.09477293 0.09307846 0.09151659 0.09003683 0.08861965
 0.0872166 0.08583213 0.08444618 0.08309336 0.08178513 0.08055914 0.07943455 0.07842655 0.07754402 0.07678546
 0.07615089 0.07564439 0.07526524 0.07503125 0.07494355 0.07501579 0.07524599 0.07560523 0.07608076 0.07657535
 0.07706954 0.07743097 0.07765712 0.07766239 0.07748336 0.07713311 0.07667962 0.0762054 0.07577793 0.07548054
 0.07535658 0.07545403 0.07579094 0.07638501 0.07724167 0.07836518 0.07975928 0.08142866 0.08335616 0.08555132
 0.08788382 0.0903517 0.09257855 0.09453171 0.09560767 0.09578217 0.09455224 0.0919977 0.0881165 0.08311439
 0.07750324 0.07149124 0.06570037 0.0601991 0.05534764 0.05105803 0.04738891 0.04419639 0.04141007 0.03893178
 0.03670209 0.03468485 0.03285988 0.03121153 0.02973666 0.02841072 0.0272324 0.02616517 0.02520689 0.02431782
 0.02349619 0.02271067 0.02196105 0.02123061 0.02052025 0.01982368 0.01914364 0.01848269 0.01784659 0.01724765
 0.01668797 0.01617987 0.01570907 0.01527207 0.01484131 0.01439805 0.013929 0.01341771 0.01288787 0.01233823
 0.01181387 0.01132391 0.01089195 0.01052479 0.01019951 0.00991565 0.009626438 0.009330504 0.00900415 0.008650767
 0.008285135 0.007909612 0.007544875 0.007183855 0.006819018 0.006440859 0.006024571 0.005574993 0.005083166 0.004570959
 0.004052678 0.003551007 0.003084325 0.002663424 0.002298903 0.001986881 0.001731874 0.001510604 0.00132315 0.001126478
 0.0009161701 0.0006555049 0.0003409722 -2.408747E-05 -0.0004378992 -0.0008605027 -0.001289413 -0.001686416 -0.002053772 -0.002380053
 -0.00267014 -0.002931224 -0.003167161 -0.003387505 -0.003596652 -0.003803497 -0.004012428 -0.004231861 -0.004459105 -0.004697936
 -0.004933947 -0.00516235 -0.005370939 -0.005551591 -0.005716553 -0.005863316 -0.006027651 -0.006213597 -0.006446027 -0.006727831
 -0.007042763 -0.007388975 -0.007725043 -0.008050585 -0.008341768 -0.008604393 -0.008850477 -0.009085769 -0.009334963 -0.009593873
 -0.009869432 -0.01014717 -0.01041072 -0.01064993 -0.01084467 -0.0110074 -0.01113392 -0.01125844 -0.01139372 -0.01156682
 -0.01179195 -0.01206386 -0.0123869 -0.01273204 -0.01309663 -0.01345646 -0.0138094 -0.01414814 -0.01447262 -0.01478463
 -0.01508447 -0.01537493 -0.01565645 -0.01593245 -0.01620308 -0.016471 -0.01673502 -0.01699427 -0.01724721 -0.01749071
 -0.01772597 -0.01795208 -0.01817326 -0.01839198 -0.01861093 -0.01883285 -0.01905467 -0.01927642 -0.0194934 -0.01970408
 -0.01990973 -0.02010984 -0.02031106 -0.02051386 -0.02072204 -0.02093548 -0.02114926 -0.02136228 -0.02156337 -0.02175195
 -0.02191843 -0.02206543 -0.02219355 -0.02230989 -0.02242755 -0.02255386 -0.02270515 -0.02288192 -0.02309211 -0.02332831
 -0.02358899 -0.02386487 -0.02415188 -0.02444279 -0.02473514 -0.02502256 -0.02530355 -0.02557351 -0.0258314 -0.02607777
 -0.0263124 -0.02654149 -0.02676536 -0.02699023 -0.02721591 -0.02744381 -0.02767284 -0.02789867 -0.0281207 -0.02833425
 -0.02854108 -0.02874204 -0.0289399 -0.02913945 -0.02934051 -0.02954544 -0.02975081 -0.02995492 -0.03015573 -0.03035144
 -0.03054313 -0.03073074 -0.03091537 -0.03109726 -0.03127678 -0.03145371 -0.03163121 -0.03180934 -0.03199445 -0.03218674
 -0.03238917 -0.03260093 -0.03281673 -0.03303525 -0.03324717 -0.03345311 -0.03364922 -0.03383882 -0.03402655 -0.03421534
 -0.03441211 -0.03461546 -0.0348276 -0.03504314 -0.03525932 -0.03547185 -0.03567727 -0.03587696 -0.03606983 -0.03626186
 -0.0364541 -0.03665088 -0.03685348 -0.03705843 -0.0372658 -0.03746617 -0.03765911 -0.03783735 -0.03800147 -0.03815312
 -0.03829403 -0.0384329 -0.03857132 -0.03871894 -0.03887535 -0.03904527 -0.03922505 -0.03941206 -0.03960176 -0.03978791
 -0.03997079 -0.04014753 -0.04032376 -0.04050182 -0.04068394 -0.04087278 -0.04106167 -0.04125004 -0.04143025 -0.0416006
 -0.04176236 -0.04191525 -0.04206755 -0.04221959 -0.04237677 -0.04253872 -0.04270467 -0.04287399 -0.04304344 -0.04321261
 -0.0433787 -0.0435414 -0.04369847 -0.04385064 -0.0439977 -0.04414123 -0.04428302 -0.04442294 -0.04456235 -0.04469745
 -0.0448266 -0.044948 -0.04505939 -0.04516684 -0.04527047 -0.04538022 -0.0454977 -0.04562699 -0.04576882 -0.04591815
 -0.04607465 -0.04623052 -0.04638571 -0.0465363 -0.04668303 -0.04682728 -0.04696981 -0.04711423 -0.04725955 -0.04740625
 -0.0475511 -0.0476895 -0.04781972 -0.04793665 -0.04804537 -0.04814611 -0.04824909 -0.04835942 -0.04848262 -0.04862307
 -0.04877537 -0.04894027 -0.04910561 -0.04927007 -0.04942318 -0.0495638 -0.04968894 -0.04979859 -0.04989807 -0.04998826
 -0.05007969 -0.05017292 -0.05027675 -0.05038998 -0.05051387 -0.05064612 -0.0507821 -0.05092151 -0.05106125 -0.05120378
 -0.05135082 -0.05150315 -0.05166318 -0.0518262 -0.05199114 -0.05215217 -0.0523065 -0.05245411 -0.05259398 -0.05273043
 -0.05286401 -0.05299707 -0.0531299 -0.05326252 -0.05339498 -0.05352882 -0.05366424 -0.05380407 -0.05394775 -0.05409448
 -0.05424278 -0.05438757 -0.05452804 -0.05465926 -0.05478324 -0.05489978 -0.05501372 -0.05512957 -0.05525155 -0.05538481
 -0.05552842 -0.05568459 -0.05584625 -0.05601227 -0.05617398 -0.05632915 -0.05647344 -0.05660532 -0.05672826 -0.05684209
 -0.05695654 -0.0570721 -0.05719647 -0.0573291 -0.05746778 -0.05761085 -0.05774833 -0.05788009 -0.05799959 -0.0581098
 -0.0582137 -0.05831437 -0.05841826 -0.05852546 -0.05863868 -0.05875637 -0.05887799 -0.05900318 -0.05913166 -0.05926336
 -0.05939884 -0.05953499 -0.05967168 -0.05980388 -0.05993081 -0.06004976 -0.06016034 -0.06026258 -0.06035649 -0.06044376
 -0.06052476 -0.06060378 -0.06068153 -0.06076451 -0.06085224 -0.0609475 -0.06104748 -0.06114748 -0.06124536 -0.06133471
 -0.06141809 -0.06149489 -0.06157041 -0.06164858 -0.0617317 -0.06182265 -0.06191919 -0.06202142 -0.06212607 -0.06223245
 -0.06233838 -0.06244337 -0.06254695 -0.06264898 -0.06275059 -0.06285182 -0.06295295 -0.06305372 -0.0631516 -0.06324634
 -0.06333493 -0.06341815 -0.06349675 -0.06357166 -0.06364571 -0.06371836 -0.0637901 -0.06386001 -0.06392655 -0.06399145
 -0.06405476 -0.0641204 -0.06419062 -0.06426671 -0.06435052 -0.06443793 -0.06452888 -0.06461684 -0.06470075 -0.06477714
 -0.06484538 -0.0649077 -0.06496426 -0.06502288 -0.06508412 -0.06515707 -0.06524182 -0.06534378 -0.06546227 -0.0655975
 -0.06574968 -0.06591855 -0.06610663 -0.06631688 -0.06655338 -0.06682088 -0.06712413 -0.06746714 -0.0678557 -0.06829285
 -0.06878527 -0.06933659 -0.06994724 -0.07061981 -0.07134243 -0.07211508 -0.07291758 -0.07374855 -0.07458846 -0.07543612
 -0.07626794 -0.07707991 -0.07782554 -0.0784929 -0.07899667 -0.07932159 -0.07936544 -0.07913619 -0.07857959 -0.07776618
 -0.07676236 -0.07567724 -0.07465626 -0.07375558 -0.07306996 -0.07258917 -0.07233568 -0.0722743 -0.0724045 -0.07266793
 -0.07306176 -0.07348318 -0.07391971 -0.07427321 -0.07452986 -0.07469522 -0.07476947 -0.07481166 -0.0748216 -0.07481379
 -0.07478463 -0.07472047 -0.07462205 -0.0744843 -0.07431101 -0.0741072 -0.07387849 -0.07363553 -0.07338267 -0.07313029
 -0.07287513 -0.07261832 -0.07235502 -0.07207985 -0.07180212 -0.07152095 -0.07125796 -0.07101833 -0.07081507 -0.07065266
 -0.07052282 -0.07042602 -0.0703409 -0.07026634 -0.0701871 -0.07010387 -0.07002005 -0.06993735 -0.06986797 -0.06981062
 -0.06976801 -0.06973651 -0.06970885 -0.0696834 -0.06965386 -0.06962154 -0.0695856 -0.0695472 -0.06950686 -0.06946569
 -0.06942396 -0.06938396 -0.06934685 -0.06931268 -0.06928221 -0.06925184 -0.06922091 -0.06918872 -0.06915479 -0.06912511
 -0.06909999 -0.06908634 -0.06908411 -0.06909481 -0.06911775 -0.06915001 -0.06919067 -0.06923538 -0.0692829 -0.06932835
 -0.06937061 -0.06940539 -0.06943331 -0.06945273 -0.06946672 -0.06947689 -0.06948628 -0.06949742 -0.06951005 -0.06952544
 -0.06953909 -0.06955037 -0.06955461 -0.06955065 -0.06953826 -0.06951708 -0.06949092 -0.06945997 -0.06942892 -0.06939808
 -0.06937249 -0.0693524 -0.06934238 -0.06934165 -0.06935048 -0.06936675 -0.06938567 -0.06940559 -0.06942135 -0.06943323
 -0.0694396 -0.06944104 -0.06943762 -0.06942932 -0.06941575 -0.06939837 -0.06937716 -0.06935535 -0.06933377 -0.06931437
 -0.06929789 -0.06928267 -0.06926869 -0.06925327 -0.06923625 -0.06921714 -0.06919604 -0.06917421 -0.06915169 -0.0691293
 -0.06910686 -0.06908395 -0.06906088 -0.06903794 -0.06901595 -0.06899654 -0.0689798 -0.068967 -0.06895635 -0.0689472
 -0.06893697 -0.06892393 -0.06890713 -0.06888523 -0.06886077 -0.06883366 -0.06880864 -0.06878637 -0.06877059 -0.06876187
 -0.06876089 -0.06876775 -0.06878011 -0.06879762 -0.06881522 -0.06883228 -0.06884211 -0.06884484 -0.06883661 -0.06881981
 -0.0687976 -0.06877342 -0.06875487 -0.06874258 -0.06874131 -0.06874727 -0.06875966 -0.0687732 -0.06878451 -0.06879133
 -0.06879137 -0.06878719 -0.06877874 -0.0687699 -0.06876155 -0.06875423 -0.06874823 -0.06874147 -0.06873385 -0.06872707
 -0.0687215 -0.0687234 -0.06873245 -0.06875079 -0.06877632 -0.0688024 -0.06882755 -0.0688439 -0.06885353 -0.06885581
 -0.06885455 -0.06885418 -0.0688564 -0.06886466 -0.06887739 -0.06889503 -0.06891467 -0.06893541 -0.0689548 -0.06897186
 -0.06898645 -0.06899819 -0.0690089 -0.06901876 -0.06902871 -0.06903882 -0.06904668 -0.06905206 -0.06905076 -0.06904299
 -0.06902753 -0.06900588 -0.06898276 -0.0689598 -0.06894401 -0.06893457 -0.06893383 -0.06893906 -0.0689473 -0.06895857
 -0.06897093 -0.06898822 -0.06901278 -0.06904475 -0.06908652 -0.06912933 -0.06917198 -0.06920448 -0.06922412 -0.06923129
 -0.06922503 -0.06921621 -0.06920541 -0.06920428 -0.06921297 -0.06923562 -0.06927111 -0.06931472 -0.06936476 -0.06941216
 -0.06945653 -0.06949159 -0.06951936 -0.06954008 -0.0695566 -0.06957293 -0.06958938 -0.06960827 -0.06962671 -0.06964347
 -0.06965715 -0.0696658 -0.06967403 -0.06968214 -0.06969679 -0.06971969 -0.06975119 -0.06979186 -0.06983589 -0.06988294
 -0.06993033 -0.06997821 -0.07002895 -0.07008206 -0.07013597 -0.07018877 -0.07023174 -0.07026485 -0.07028202 -0.070288
 -0.07028737 -0.0702863 -0.0702948 -0.07031415 -0.07035015 -0.07039768 -0.07045616 -0.0705186 -0.070582 -0.07064253
 -0.0706983 -0.07074928 -0.07079503 -0.07083717 -0.07087575 -0.07091274 -0.07094826 -0.07098391 -0.07101973 -0.07105643
 -0.07109401 -0.07113276 -0.07117268 -0.07121401 -0.07125641 -0.07129955 -0.07134224 -0.07138223 -0.07141881 -0.07144962
 -0.07147627 -0.07149863 -0.07152048 -0.07154363 -0.07157165 -0.07160645 -0.07164954 -0.07170224 -0.07176215 -0.07182987
 -0.07189759 -0.071965 -0.0720207 -0.07206394 -0.07208861 -0.07209517 -0.07209066 -0.07207689 -0.07207002 -0.07207045
 -0.07208953 -0.072124 -0.07217188 -0.07222868 -0.07228501 -0.07233969 -0.07238689 -0.07242876 -0.07246527 -0.07249817
 -0.07252867 -0.07255699 -0.07258324 -0.0726084 -0.07263267 -0.07265714 -0.07268233 -0.07270658 -0.07272992 -0.07274918
 -0.07276411 -0.07277423 -0.07277969 -0.07278331 -0.07278524 -0.07278779 -0.07279105 -0.07279637 -0.07280424 -0.07281668
 -0.07283417 -0.07285896 -0.07288993 -0.07292723 -0.07296795 -0.07300973 -0.07305034 -0.0730875 -0.07312129 -0.07315136
 -0.07317773 -0.0732009 -0.07321788 -0.07322826 -0.07322939 -0.07322058 -0.07320453 -0.07318129 -0.07315765 -0.07313386
 -0.07311466 -0.0730997 -0.07308904 -0.07308211 -0.07307646 -0.0730723 -0.07306854 -0.07306647 -0.0730681 -0.07307394
 -0.07308652 -0.07310256 -0.07312086 -0.07313602 -0.07314409 -0.07314318 -0.0731307 -0.0731101 -0.07308172 -0.07304918
 -0.07301334 -0.07297523 -0.07293491 -0.07289407 -0.07285274 -0.0728155 -0.07278256 -0.07275809 -0.07274168 -0.07273299
 -0.07273073 -0.07272926 -0.072728 -0.07272178 -0.07271251 -0.07270092 -0.07268997 -0.07268478 -0.07268405 -0.07268992
 -0.07269564 -0.07269776 -0.07269132 -0.07267194 -0.07264372 -0.07260597 -0.0725676 -0.07253036 -0.07249855 -0.07247331
 -0.07245159 -0.0724333 -0.07241391 -0.07239341 -0.07237236 -0.0723514 -0.07233588 -0.0723257 -0.07232381 -0.07232866
 -0.07233795 -0.07234939 -0.07235828 -0.07236166 -0.07235415 -0.0723331 -0.07229275 -0.07223709 -0.07216449 -0.07208773
 -0.07201151 -0.07194562 -0.07189518 -0.07185788 -0.07183485 -0.07181781 -0.07180593 -0.07179335 -0.07177958 -0.07176094
 -0.0717373 -0.0717068 -0.07166986 -0.07162856 -0.0715835 -0.07153831 -0.07149312 -0.0714498 -0.07140882 -0.07137176
 -0.07133921 -0.0713134 -0.07129215 -0.07127517 -0.07125767 -0.07123658 -0.07120889 -0.07117205 -0.07112695 -0.07107274
 -0.0710137 -0.07094997 -0.07088841 -0.07082991 -0.07077843 -0.07073444 -0.07069514 -0.07066045 -0.07062858 -0.07060038
 -0.07058239 -0.07057457 -0.07058191 -0.07060013 -0.07062086 -0.07063857 -0.07063726 -0.07061815 -0.07057427 -0.07051446
 -0.07044427 -0.07037073 -0.07030072 -0.07023463 -0.07017475 -0.07011788 -0.07006333 -0.07000948 -0.06995552 -0.06990331
 -0.06985296 -0.06980607 -0.06976282 -0.06972246 -0.06968501 -0.06965151 -0.06962183 -0.06959647 -0.06957319 -0.06954262
 -0.0695024 -0.06943877 -0.06935627 -0.06925573 -0.06914559 -0.0690382 -0.06893688 -0.06884898 -0.06877512 -0.06871777
 -0.0686765 -0.06865402 -0.06863999 -0.06863461 -0.06861642 -0.06858125 -0.06851487 -0.06841367 -0.06828381 -0.06812503
 -0.06795566 -0.0677767 -0.06760739 -0.06744809 -0.06731133 -0.06719497 -0.06709689 -0.0670132 -0.06693135 -0.06684992
 -0.06676022 -0.06666258 -0.0665544 -0.06643505 -0.06630158 -0.06615864 -0.06600617 -0.06585579 -0.06571402 -0.06558246
 -0.06546585 -0.06534819 -0.06522752 -0.0650886 -0.06492791 -0.06475093 -0.06455744 -0.06436495 -0.06417388 -0.0639886
 -0.06380661 -0.063609 -0.06339323 -0.06313438 -0.06283886 -0.06250971 -0.06215969 -0.06181777 -0.06148548 -0.06117992
 -0.06089009 -0.06061142 -0.0603354 -0.06005314 -0.05976742 -0.05947676 -0.05918705 -0.05890066 -0.05861758 -0.05833997
 -0.0580559 -0.05776621 -0.05743993 -0.05707478 -0.05664795 -0.0561598 -0.05563772 -0.0550845 -0.05453913 -0.05399602
 -0.05345104 -0.05289502 -0.05229749 -0.05165742 -0.05095667 -0.05020214 -0.04939521 -0.04854402 -0.04765732 -0.04673881
 -0.04579872 -0.04481923 -0.0438018 -0.0427029 -0.04150468 -0.04020132 -0.03877694 -0.03731282 -0.03581687 -0.0343562
 -0.03293886 -0.03154272 -0.03016688 -0.02878769 -0.0274097 -0.02606846 -0.02476208 -0.02350978 -0.02228641 -0.02102579
 -0.01971147 -0.01826149 -0.01671836 -0.01510238 -0.01346583 -0.0118834 -0.01033226 -0.008826485 -0.00731399 -0.005768618
 -0.004179101 -0.002534635 -0.000846135 0.0008753182 0.002687312 0.004586024 0.006721993 0.009110809 0.01176781 0.01468507
 0.01754117 0.02032497 0.02278466 0.02496517 0.0269505 0.02878162 0.03062852 0.03249402 0.03446056 0.03652676
 0.03870477 0.04104997 0.04359242 0.04646337 0.0497636 0.05356456 0.05798818 0.06279635 0.06798835 0.07313137
 0.07812185 0.08276302 0.08699906 0.09089633 0.09445053 0.09783276 0.1010554 0.1044034 0.1079024 0.1119428
 0.1164777 0.1215533 0.1269722 0.1321055 0.136933 0.1410401 0.144672 0.1480151 0.1512436 0.1546273
 0.1581625 0.1619366 0.1658761 0.1699632 0.1741588 0.1784645 0.1827712 0.1870664 0.1912039 0.1951497
 0.1989396 0.2025726 0.2061277 0.2096032 0.212825 0.2157766 0.2182112 0.2201614 0.2216492 0.2227357
 0.2236396 0.2243501 0.2249733 0.2254158 0.225554 0.2254143 0.2249464 0.2242889 0.2235349 0.2227372
 0.2219621 0.2211504 0.220299 0.2193438 0.2182657 0.2170545 0.2157043 0.2142338 0.2126437 0.2109596
 0.2091826 0.2073243 0.2053826 0.2033415 0.2011985 0.1989308 0.1965413 0.194021 0.1913886 0.1886681
 0.1859013 0.1831559 0.1804696 0.1779101 0.1754802 0.1732016 0.1710695 0.1690793 0.167255 0.1656014
 0.1641448 0.1628961 0.1618425 0.1609844 0.1603012 0.1597901 0.1594586 0.1593071 0.1593523 0.1595932
 0.1600268 0.1606497 0.1614436 0.1624053 0.1635167 0.1647747 0.1661638 0.1676828 0.1693219 0.1710849
 0.1729714 0.1749876 0.1771376 0.1794263 0.1818548 0.1844345 0.1871664 0.190074 0.1931659 0.1964395
 0.1999046 0.203475 0.2071474 0.2107947 0.2144113 0.2179466 0.2214004 0.2247725 0.2280337 0.2310393
 0.233747 0.2359124 0.2375911 0.2387627 0.2395461 0.2401261 0.240539 0.2409101 0.2411805 0.2413377
 0.2413575 0.2412017 0.2409513 0.2406072 0.2403202 0.2401281 0.2401128 0.2403198 0.2405254 0.2407193
 0.2406316 0.2402511 0.2395723 0.2386034 0.2374297 0.2360549 0.2345404 0.2328857 0.2311279 0.2292499
 0.227256 0.2250698 0.2225932 0.2197259 0.2162727 0.2123475 0.2079378 0.2032698 0.1984888 0.1935924
 0.1886047 0.1835173 0.1783018 0.1731388 0.1680452 0.163204 0.1586398 0.1543361 0.1502916 0.1463878
 0.1426246 0.1389585 0.1354004 0.1319916 0.1287281 0.1256271 0.1226569 0.1197583 0.1169008 0.1140071
 0.1110769 0.1080809 0.105029 0.1019308 0.09875517 0.09548897 0.09210714 0.08855208 0.08503199 0.08156018
 0.07844849 0.07577614 0.07346207 0.07151567 0.06967961 0.06794184 0.06619368 0.06444264 0.06274001 0.06109523
 0.05958845 0.05821262 0.056979 0.05589256 0.05495965 0.05421276 0.05370834 0.05345957 0.05351397 0.05383513
 0.05441237 0.05521031 0.05620569 0.05738779 0.0587473 0.06028346 0.06198552 0.06390621 0.06603957 0.06853835
 0.07142054 0.07473475 0.07848074 0.08225446 0.08602318 0.08925492 0.09197984 0.09409042 0.09564438 0.09678434
 0.09753025 0.09798504 0.09817519 0.09816024 0.09803 0.09788346 0.09784553 0.09806738 0.09852674 0.09930471
 0.1001458 0.1009656 0.1016377 0.1020877 0.1024353 0.102684 0.1029736 0.1033209 0.103757 0.1042837
 0.1048311 0.1053959 0.1059154 0.1063999 0.1068708 0.1073491 0.1079219 0.1085934 0.1094302 0.1103911
 0.1114402 0.1125426 0.1136267 0.1147351 0.1158692 0.1170956 0.1184608 0.1199627 0.1216222 0.1233725
 0.1251999 0.1270643 0.1289532 0.1308878 0.1328708 0.1348944 0.1369578 0.1389227 0.1407783 0.1423443
 0.1436252 0.144554 0.1451437 0.1454087 0.1453465 0.1449593 0.1442386 0.1431655 0.1417514 0.1399941
 0.1379284 0.1355766 0.1329752 0.1301477 0.1271187 0.1238968 0.1205173 0.1169771 0.1133731 0.1097098
 0.1061391 0.1026766 0.09941476 0.09635916 0.09348738 0.09079584 0.08823022 0.08579355 0.08347668 0.08128592
 0.07924398 0.07734213 0.07557785 0.07392431 0.07234058 0.07079766 0.06924692 0.06767364 0.06604569 0.06437718
 0.0626596 0.06093713 0.05922201 0.05755436 0.05595144 0.05440625 0.05292474 0.0514582 0.05000227 0.04852315
 0.04701872 0.0455239 0.04404485 0.04267303 0.0414117 0.04033032 0.0394192 0.03868172 0.03810537 0.0376623
 0.03734533 0.03713139 0.03701515 0.03698334 0.03702909 0.03714629 0.03731979 0.03754551 0.03779254 0.03805233
 0.03828853 0.03849095 0.03863615 0.03871887 0.03872744 0.03866044 0.03850746 0.03826782 0.03793902 0.03752276
 0.03703906 0.03649395 0.03593123 0.03536036 0.03483775 0.03437072 0.03400705 0.03374321 0.03359786 0.03355591
 0.03360962 0.03373937 0.03392985 0.03415944 0.0344147 0.03467466 0.03492825 0.03516562 0.03538083 0.0355784
 0.03575819 0.03592523 0.03608044 0.03622091 0.03634652 0.03645427 0.0365444 0.03661985 0.03668091 0.03673137
 0.03677052 0.03679836 0.03681275 0.03680908 0.03678435 0.03673097 0.03664845 0.03653169 0.0363861 0.03621343
 0.0360211 0.03581333 0.0355958 0.03537019 0.03514566 0.03492306 0.03471824 0.03453359 0.03438212 0.03426582
 0.0341863 0.03414377 0.03413291 0.03415347 0.03420118 0.03427597 0.03437514 0.03449894 0.03464598 0.03481833
 0.03501907 0.03525319 0.03553005 0.0358542 0.03623604 0.03667345 0.03717029 0.03771643 0.03830779 0.0389351
 0.03959319 0.0402801 0.04099491 0.041735 0.04250136 0.04328073 0.04407264 0.04485721 0.04563325 0.04638435
 0.0471099 0.04779866 0.04845031 0.04905715 0.04961879 0.05013033 0.05058992 0.05099172 0.05133155 0.05159986
 0.05179334 0.05190343 0.05193154 0.05187502 0.05173925 0.05152639 0.05124097 0.05088602 0.05046054 0.04996554
 0.04939549 0.04874893 0.04802648 0.04722669 0.04636823 0.04545194 0.04450853 0.04353922 0.04256713 0.04159136
 0.04061761 0.03964413 0.03866724 0.0376863 0.03669798 0.03570231 0.03469799 0.0336846 0.03266108 0.03162731
 0.03058192 0.02952806 0.02846534 0.02740305 0.02634359 0.02529825 0.02427118 0.02326533 0.02228297 0.02131595
 0.02036374 0.01941835 0.01847911 0.01755212 0.01663877 0.01576188 0.01492408 0.01415442 0.01345348 0.01284014
 0.01231071 0.01186618 0.01150098 0.01120535 0.01097692 0.01080745 0.01070093 0.01065567 0.0106831 0.01078687
 0.01098418 0.01128181 0.01169424 0.01222823 0.0128833 0.01366306 0.01454594 0.01553192 0.01658213 0.01769444
 0.01882313 0.01996608 0.02108493 0.02217969 0.02323058 0.02424061 0.0252093 0.02614287 0.02705476 0.02795482
 0.0288658 0.02979578 0.03076668 0.03177278 0.03282196 0.03388948 0.03496714 0.03602218 0.03704076 0.03799803
 0.03888385 0.03968924 0.04040939 0.04105302 0.0416191 0.0421318 0.04259225 0.04303582 0.04346506 0.04392411
 0.04441644 0.04498805 0.04563996 0.04640249 0.04727101 0.04824992 0.04933189 0.05050637 0.05176686 0.05310294
 0.05450533 0.05596564 0.05746818 0.05900373 0.06055425 0.06211138 0.06366035 0.06519594 0.06670833 0.0681951
 0.0696502 0.07107279 0.07245825 0.07380623 0.07511464 0.07638378 0.07761991 0.07882378 0.08000523 0.08116216
 0.08229236 0.08339095 0.08444274 0.08544774 0.08639721 0.08729759 0.08815357 0.08897018 0.08975345 0.09050588
 0.09122926 0.09192941 0.09260785 0.09327355 0.0939277 0.09458396 0.09524244 0.09592988 0.09664784 0.09743186
 0.09828436 0.09923195 0.100275 0.1014188 0.1026589 0.1039699 0.1053384 0.1067003 0.1080349 0.1092558
 0.1103478 0.1112413 0.1119368 0.112404 0.1126571 0.1126949 0.1125407 0.112204 0.1117155 0.1110857
 0.1103522 0.1095228 0.1086458 0.1077274 0.1068259 0.1059475 0.1051438 0.1044189 0.1038008 0.1032901
 0.1028905 0.1025993 0.1024002 0.1022861 0.1022217 0.1021979 0.1021726 0.1021411 0.1020749 0.1019741
 0.1018275 0.1016381 0.1014035 0.1011314 0.1008253 0.1004935 0.100142 0.09976783 0.09937321 0.09894464
 0.09848004 0.09796935 0.09741085 0.09680218 0.09614294 0.0954363 0.09468289 0.09389528 0.09307472 0.09223779
 0.09138265 0.09051174 0.08961935 0.08869099 0.08772258 0.08669905 0.08562085 0.08448165 0.08328569 0.08203405
 0.08073214 0.07938546 0.07799071 0.07655171 0.07504833 0.07347636 0.07181676 0.07006247 0.06822111 0.0662908
 0.06430094 0.06225321 0.06017632 0.05807171 0.05596351 0.05385379 0.05176893 0.04971189 0.04770859 0.04576224
 0.04389464 0.04210798 0.04041818 0.03882117 0.03732091 0.03590469 0.03456386 0.03328417 0.03205506 0.03086546
 0.02970995 0.02857548 0.0274587 0.02634419 0.0252285 0.02410181 0.02296189 0.02180945 0.02064384 0.01948189
 0.01832543 0.01721317 0.01614852 0.01517742 0.01429908 0.01353646 0.01288234 0.01232926 0.01186871 0.01148209
 0.01116126 0.01089006 0.01065731 0.01044883 0.0102528 0.01005817 0.009857228 0.009645437 0.009413882 0.009161666
 0.00887044 0.008538158 0.008141099 0.007675563 0.007130888 0.006505064 0.005820173 0.005078531 0.004332929 0.003586906
 0.002893553 0.002252127 0.001687974 0.00119739 0.0007826756 0.0004415176 0.0001716465 -3.105799E-05 -0.0001709606 -0.0002572008
 -0.0002996883 -0.000304767 -0.0002808749 -0.0002252017 -0.0001379867 -1.800622E-05 0.0001376281 0.0003165682 0.0005183826 0.0007234135
 0.0009288092 0.00112494 0.001310435 0.001492898 0.001672893 0.00186434 0.002066794 0.002283152 0.002510982 0.002740065
 0.002970129 0.00319395 0.00341529 0.003639591 0.003866142 0.004100478 0.004328496 0.004542216 0.004720034 0.004844473
 0.004906407 0.004892882 0.004820689 0.004688241 0.004530109 0.004351702 0.004184393 0.004032746 0.003915856 0.00383529
 0.003807356 0.003833026 0.003931325 0.004101801 0.004350838 0.004673657 0.005052587 0.005481742 0.005933542 0.006408191
 0.006891664 0.00739007 0.007907089 0.00844479 0.009010495 0.0095918 0.01018683 0.0107713 0.01133503 0.01185729
 0.01232846 0.01274327 0.01309755 0.01340008 0.01365015 0.01386754 0.01405307 0.01423645 0.01441917 0.01462865
 0.01486414 0.01513176 0.01542751 0.01573591 0.01605422 0.01636534 0.01667129 0.01696751 0.01725819 0.01754799
 0.01783788 0.01813216 0.0184253 0.01871624 0.01899574 0.0192588 0.01950171 0.01972109 0.01992184 0.02010403
 0.02027409 0.02043282 0.02058442 0.02072905 0.02087466 0.02102181 0.02118341 0.02135949 0.0215565 0.02177252
 0.02200157 0.02224212 0.02248482 0.02273311 0.02298778 0.02325676 0.0235522 0.02387775 0.02424445 0.02464323
 0.02507417 0.02551924 0.0259709 0.02641417 0.02684233 0.02724949 0.02763201 0.02799581 0.02833964 0.02868392
 0.02902977 0.029401 0.02979849 0.03023021 0.03069511 0.03118688 0.03170429 0.03224051 0.03279069 0.03334003
 0.03387663 0.03436798 0.03480883 0.03517167 0.03547461 0.03572093 0.03594168 0.03615978 0.03639246 0.03665594
 0.03694698 0.03726865 0.03761162 0.03797445 0.03835052 0.03873941 0.03913107 0.03952506 0.03990495 0.04027009
 0.04061216 0.04093307 0.04124762 0.04155827 0.04188712 0.04223016 0.04258667 0.04295148 0.04330957 0.04366839
 0.04403138 0.0444086 0.04481776 0.04524468 0.0456902 0.04612331 0.04652617 0.04689215 0.04720967 0.04750694
 0.04778669 0.04807961 0.04839155 0.04872992 0.04909673 0.04947504 0.04986383 0.05023671 0.05059364 0.05092242
 0.05122714 0.05152171 0.05181022 0.0521137 0.05243113 0.05277086 0.05312924 0.05350471 0.05389341 0.05429092
 0.05469469 0.05509945 0.05551181 0.05593234 0.05637179 0.0568376 0.05731812 0.05781617 0.05829563 0.05875155
 0.05916097 0.05952026 0.05984219 0.06012772 0.06041005 0.06069187 0.06101183 0.0613725 0.0618086 0.06231858
 0.0629172 0.06359839 0.06435695 0.06518674 0.06607947 0.06702287 0.06800622 0.06900599 0.07000493 0.07097957
 0.07191712 0.07279365 0.07360423 0.07430808 0.07489539 0.07533824 0.07562451 0.07580047 0.0758655 0.0759249
 0.07598392 0.07612528 0.07634794 0.07667288 0.07709234 0.07758042 0.07812633 0.07868258 0.07924241 0.07976672
 0.08025817 0.08070538 0.08110908 0.0814698 0.08177593 0.08201884 0.08219233 0.08228638 0.08231787 0.08228686
 0.08222303 0.08213092 0.08204227 0.08196071 0.08191973 0.08192275 0.08198773 0.0821154 0.08229822 0.08253542
 0.08281683 0.08314171 0.08350343 0.08389667 0.0843 0.0847105 0.08510876 0.08550122 0.08589202 0.08627924
 0.08666327 0.08703904 0.08738892 0.08775908 0.0881523 0.08866691 0.08935604 0.090193 0.09121007 0.09219067
 0.09310088 0.09384845 0.09441631 0.09486885 0.09520882 0.09549101 0.09571536 0.09589895 0.09603959 0.09613667
 0.09618554 0.09616933 0.09608809 0.09592871 0.09570589 0.09543588 0.0951319 0.09481632 0.0944892 0.09415349
 0.09382058 0.09349287 0.09319412 0.09293653 0.09271807 0.09254307 0.09238986 0.09225383 0.09213753 0.09204041
 0.09197534 0.0919426 0.09191499 0.09188827 0.09180429 0.09166211 0.09142312 0.09109699 0.09068968 0.09022368
 0.08974946 0.08928904 0.08890738 0.08858942 0.08835363 0.08814956 0.08794159 0.08770785 0.08742109 0.08710139
 0.08674958 0.08638501 0.08600879 0.08565383 0.08532126 0.08506888 0.08490369 0.08483751 0.08487083 0.08495278
 0.08508258 0.08523586 0.08541643 0.08563841 0.08589499 0.08617025 0.08645622 0.08672096 0.08697635 0.08722754
 0.08748485 0.08776886 0.08806206 0.08836029 0.0886404 0.08888616 0.08909626 0.08926436 0.08940417 0.08951703
 0.08961833 0.08971148 0.0897994 0.0898841 0.0899419 0.08997159 0.08995167 0.08988474 0.0897958 0.08969003
 0.08961257 0.08955974 0.08954259 0.08955529 0.08958811 0.08964198 0.08971736 0.08980688 0.08990508 0.08999867
 0.09007104 0.0901309 0.09017721 0.0902236 0.09028094 0.09032856 0.09036484 0.09036441 0.09031951 0.09024538
 0.09014206 0.09003434 0.08992351 0.08980329 0.08967299 0.08951905 0.08934532 0.08916572 0.08898778 0.08884685
 0.08874345 0.08870379 0.08870565 0.08873224 0.0887446 0.08868769 0.08855303 0.08830426 0.08798596 0.0876122
 0.08721781 0.08682741 0.08641737 0.08598597 0.08551228 0.08498584 0.08445133 0.08391 0.08342862 0.08301087
 0.08266776 0.08239389 0.08212437 0.08184876 0.08146826 0.0809872 0.08035484 0.07961145 0.07882045 0.07802909
 0.07735624 0.07678735 0.07636469 0.07602333 0.07572117 0.07542771 0.07510701 0.07478024 0.07444774 0.07412821
 0.07382912 0.07354588 0.07328015 0.07301649 0.07275437 0.072469 0.07215893</values></Ydata></AB><ScSm><Ydata ylabel="Single channel"><values byteorder="INTEL" format="FLOAT32" numvalues="1814"> 0.07282872 0.07283721 0.07291202 0.07307386 0.07329084 0.073499 0.07364751 0.0737301 0.07376516 0.07375562
 0.07370244 0.07365631 0.07370543 0.07388671 0.07413177 0.07431521 0.07435568 0.07428897 0.07424881 0.07433614
 0.07448068 0.07446499 0.07413064 0.07355945 0.07301626 0.07270534 0.07264702 0.0728339 0.07335551 0.07414971
 0.07473013 0.07453685 0.07364198 0.07277627 0.07251996 0.07274726 0.07296882 0.07289294 0.07251537 0.07201393
 0.07180117 0.07240933 0.0739657 0.07576609 0.07653359 0.07522799 0.07178981 0.06736805 0.06389106 0.06303099
 0.06502624 0.06835265 0.07086639 0.07151071 0.07081798 0.06982411 0.06895998 0.06818688 0.06770976 0.0680085
 0.06917106 0.07045234 0.0706597 0.06916925 0.06666993 0.06467734 0.06415351 0.06490317 0.06638491 0.06829911
 0.06976429 0.06885099 0.06448523 0.05884717 0.05638989 0.05960204 0.06635422 0.0719884 0.07346009 0.07102902
 0.06689635 0.06338599 0.06208014 0.06338868 0.06646305 0.06990272 0.07260968 0.0738429 0.07302951 0.07026246
 0.06678943 0.06440751 0.06435895 0.06684535 0.07098576 0.07489669 0.07655153 0.0752807 0.07221368 0.06908326
 0.06708722 0.06690173 0.06884964 0.07255572 0.07693048 0.08080816 0.08342253 0.08447373 0.08418592 0.08316682
 0.08194658 0.08089632 0.08055407 0.08128768 0.08242742 0.08252676 0.08094104 0.07869111 0.07741229 0.07766275
 0.0784791 0.07854603 0.07752375 0.07582587 0.07332328 0.06933302 0.06419885 0.05969204 0.05723788 0.05683884
 0.05814406 0.06100287 0.06421025 0.0654314 0.06376448 0.06137362 0.06133542 0.06434986 0.06838161 0.07114166
 0.07220169 0.07282522 0.0743385 0.07677853 0.07873001 0.07839821 0.07539496 0.07173736 0.07042168 0.07248209
 0.0759934 0.07843006 0.07932235 0.07997865 0.08119807 0.08203615 0.08079305 0.07703495 0.07268208 0.07082601
 0.0730385 0.0777978 0.0815957 0.08154084 0.07730146 0.07116807 0.0662654 0.06439579 0.06554949 0.06908421
 0.07442947 0.08048144 0.08532164 0.08729316 0.08621407 0.08326435 0.07964863 0.07549761 0.07050119 0.06572941
 0.06385724 0.0666322 0.07263602 0.07846746 0.08178253 0.08246419 0.08129457 0.07850861 0.07400584 0.06872102
 0.06508203 0.06513915 0.06811032 0.07080914 0.07097812 0.06934991 0.06803147 0.06786471 0.06809984 0.06799985
 0.06788731 0.06858006 0.070223 0.07196626 0.07279302 0.07244945 0.07148835 0.07061395 0.07005097 0.0693942
 0.06818199 0.0668045 0.06648691 0.06795196 0.0704263 0.07243304 0.07328057 0.07333036 0.07302637 0.07213762
 0.07011056 0.06711063 0.06447531 0.063733 0.06512167 0.06742735 0.06925766 0.07005487 0.06997165 0.06936912
 0.06857238 0.06776245 0.06701738 0.06653506 0.06659801 0.0671711 0.06779575 0.06804782 0.0678888 0.06747289
 0.06684864 0.0659983 0.06504224 0.06426226 0.06390446 0.06398851 0.06433048 0.06471488 0.06497489 0.06496101
 0.06459571 0.06398606 0.063356 0.06284104 0.06244335 0.06217096 0.06208656 0.06218938 0.06235069 0.06241874
 0.06234007 0.06214833 0.06188025 0.06154683 0.06116796 0.06080017 0.06052403 0.06039494 0.0603837 0.06038614
 0.06033289 0.06026153 0.06022513 0.06017227 0.06000046 0.05970438 0.05939212 0.05916412 0.05903321 0.05895181
 0.05886187 0.05870553 0.05842776 0.05802145 0.05758607 0.05729412 0.05725365 0.05742366 0.0576809 0.05791911
 0.05806534 0.05807803 0.05797903 0.05783847 0.05769459 0.05752249 0.05729465 0.05704603 0.0568708 0.05685337
 0.05698671 0.05716606 0.05728083 0.05729552 0.05723567 0.05714425 0.05707012 0.05704268 0.05703162 0.05697431
 0.05685799 0.05674031 0.05668262 0.05668595 0.05669399 0.0566514 0.05656457 0.05649731 0.05649638 0.05654053
 0.05657731 0.05658495 0.05657707 0.0565635 0.0565262 0.05643622 0.05629515 0.05615088 0.05605312 0.05600093
 0.0559596 0.0559201 0.05590858 0.05593785 0.05597858 0.05598642 0.05594496 0.05587538 0.05580448 0.05573008
 0.0556296 0.05550059 0.05537383 0.05528115 0.05522455 0.05518095 0.05512618 0.05505078 0.05495933 0.0548583
 0.05474732 0.05462238 0.05448277 0.05433439 0.05419469 0.05409185 0.05404305 0.05402815 0.05399824 0.05391923
 0.05380199 0.05368463 0.05359012 0.0535094 0.05342624 0.0533461 0.05329003 0.05326767 0.05327029 0.05328596
 0.05330741 0.05332955 0.05335793 0.05342022 0.05355 0.05374788 0.05396879 0.05415949 0.05430552 0.05443318
 0.05457094 0.05472201 0.05487433 0.05502522 0.05519067 0.05539011 0.05561839 0.05583737 0.05601036 0.05614455
 0.05628234 0.05645197 0.05664725 0.0568519 0.05705498 0.05724064 0.05739313 0.05752253 0.05766216 0.05782944
 0.05800635 0.05816907 0.05832147 0.05848595 0.05867244 0.05887356 0.05908684 0.05932475 0.05959781 0.05989511
 0.06018531 0.06043711 0.06064553 0.06084391 0.06108356 0.06139239 0.06175222 0.06211688 0.06245042 0.06274986
 0.06303663 0.06332933 0.06363013 0.06394093 0.06428063 0.06466773 0.06508934 0.06550726 0.06589714 0.0662678
 0.06664081 0.0670253 0.06741631 0.06780818 0.06820377 0.06860927 0.0690206 0.06941991 0.0697918 0.07014091
 0.07048742 0.07084892 0.07122979 0.07161836 0.07198703 0.07230921 0.0725918 0.07287934 0.07320708 0.07355624
 0.07387704 0.07415262 0.07441796 0.07471213 0.0750341 0.07535595 0.07566351 0.07596871 0.07628689 0.07661091
 0.07690881 0.07714733 0.07732345 0.07747279 0.07764147 0.07785307 0.07810779 0.07840045 0.07871944 0.0790344
 0.07930855 0.07952682 0.07969957 0.07984591 0.0799906 0.08016634 0.08039373 0.08065877 0.08092396 0.0811561
 0.08134012 0.08148742 0.08164321 0.08186092 0.0821514 0.08247678 0.08280692 0.08315521 0.0835398 0.08393808
 0.08431301 0.08467077 0.08505539 0.08548252 0.085908 0.08627339 0.0865604 0.08678937 0.08699109 0.08720269
 0.08747106 0.08782612 0.08825047 0.08869199 0.08910471 0.08946913 0.08978391 0.09005341 0.09028329 0.0904807
 0.09065692 0.09082714 0.0910047 0.09119889 0.09141838 0.09166405 0.09191139 0.09211222 0.09222462 0.09223397
 0.09214008 0.09194173 0.09164875 0.09129515 0.090914 0.09049793 0.09000045 0.08938034 0.08863273 0.08777549
 0.08682074 0.08577299 0.08465366 0.08352056 0.08245969 0.08155768 0.08088216 0.08048441 0.0804048 0.08065404
 0.08117771 0.08184355 0.08247234 0.08289072 0.08297478 0.08267377 0.08201396 0.08107816 0.07996801 0.07877399
 0.07756747 0.07639927 0.07529366 0.07425772 0.07331893 0.07255787 0.07209903 0.07207854 0.07262964 0.07386883
 0.07583313 0.07839106 0.08123336 0.08399622 0.08642769 0.08845848 0.09014947 0.09160191 0.09290329 0.0941083
 0.09523689 0.09628981 0.09726823 0.09817266 0.09898917 0.09969021 0.1002482 0.100642 0.1008632 0.1009327
 0.1009063 0.1008541 0.1008341 0.1008797 0.1009861 0.1010933 0.1010939 0.100875 0.1003607 0.0995286
 0.09841532 0.09714213 0.09597097 0.09534089 0.09577145 0.09759261 0.1006787 0.1044562 0.1082186 0.1114727
 0.1140534 0.1160241 0.1175357 0.1187413 0.119757 0.1206524 0.121465 0.1222171 0.1229227 0.1235905
 0.1242299 0.12485 0.1254564 0.1260486 0.1266223 0.1271731 0.1277039 0.1282285 0.1287646 0.1293186
 0.1298775 0.1304199 0.130938 0.1314473 0.1319665 0.1324915 0.1329987 0.1334759 0.133936 0.1344026
 0.1348895 0.1353927 0.1358929 0.1363663 0.1368032 0.1372153 0.1376213 0.1380273 0.138429 0.1388239
 0.1392173 0.1396157 0.1400208 0.1404323 0.1408502 0.1412708 0.141681 0.1420661 0.1424249 0.1427724
 0.1431259 0.1434911 0.1438622 0.1442309 0.1445952 0.1449648 0.1453561 0.1457766 0.1462114 0.1466316
 0.1470187 0.1473786 0.1477333 0.1481013 0.148488 0.148889 0.1492942 0.1496909 0.1500718 0.1504421
 0.1508133 0.1511899 0.1515663 0.1519357 0.1522978 0.1526578 0.1530201 0.1533853 0.1537521 0.1541224
 0.1545008 0.1548875 0.1552728 0.155642 0.1559888 0.1563217 0.1566566 0.1570037 0.1573618 0.1577232
 0.1580827 0.1584425 0.1588092 0.159186 0.1595676 0.1599438 0.1603095 0.1606686 0.1610281 0.16139
 0.1617549 0.1621271 0.1625101 0.1628974 0.1632756 0.1636377 0.163989 0.1643397 0.1646951 0.1650536
 0.1654103 0.1657628 0.1661156 0.1664734 0.1668333 0.1671883 0.1675363 0.1678827 0.1682327 0.1685859
 0.1689368 0.1692792 0.1696129 0.1699456 0.170286 0.1706353 0.1709886 0.1713431 0.1716997 0.1720573
 0.172411 0.172757 0.1730988 0.1734434 0.1737918 0.1741357 0.1744685 0.174793 0.1751177 0.1754495
 0.1757894 0.1761324 0.1764699 0.1767974 0.1771188 0.1774403 0.1777649 0.1780934 0.1784257 0.1787615
 0.1791044 0.1794588 0.1798198 0.1801711 0.1805015 0.1808176 0.1811387 0.1814806 0.1818441 0.1822149
 0.1825752 0.182917 0.1832437 0.1835636 0.1838838 0.1842057 0.1845247 0.1848391 0.1851557 0.1854801
 0.1858081 0.1861359 0.1864671 0.1868024 0.1871355 0.1874631 0.1877896 0.188121 0.1884602 0.1888049
 0.1891468 0.1894811 0.1898159 0.1901617 0.1905157 0.1908656 0.1912051 0.1915371 0.1918724 0.1922228
 0.1925876 0.1929503 0.1932984 0.1936365 0.1939753 0.1943192 0.1946678 0.1950196 0.1953732 0.1957294
 0.1960857 0.1964296 0.1967512 0.1970574 0.1973624 0.1976741 0.1979952 0.1983233 0.1986475 0.1989625
 0.1992796 0.199609 0.199945 0.2002812 0.2006205 0.2009625 0.2013022 0.2016409 0.2019801 0.2023144
 0.2026411 0.2029621 0.2032744 0.2035765 0.2038768 0.2041815 0.2044892 0.2048031 0.2051239 0.2054245
 0.2056412 0.2056448 0.2051376 0.2035277 0.1998954 0.1931625 0.1825187 0.1679255 0.1503023 0.1311994
 0.1122267 0.09463254 0.07917239 0.06619255 0.05578687 0.04790198 0.04240241 0.03917381 0.03822794 0.03981703
 0.0445699 0.05312306 0.06469628 0.07582833 0.0817225 0.0800295 0.0730897 0.06579947 0.06154829 0.06058557
 0.06147224 0.06297042 0.06468152 0.06682962 0.06980547 0.07371464 0.07835391 0.08369802 0.0901451 0.09800604
 0.1068819 0.1158288 0.1241744 0.1320406 0.1400275 0.1484795 0.1571212 0.1653301 0.1726326 0.178939
 0.1844473 0.1894256 0.1940636 0.1984511 0.2026309 0.2065978 0.2102135 0.2131728 0.2151522 0.2160569
 0.2161371 0.2158477 0.2155805 0.2155104 0.2156482 0.2159658 0.2164481 0.2170793 0.2178346 0.2186815
 0.2195803 0.2204939 0.2214006 0.2222896 0.2231486 0.2239632 0.2247214 0.2254141 0.2260405 0.2266099
 0.2271323 0.227613 0.2280598 0.2284837 0.2288895 0.2292768 0.2296483 0.2300047 0.2303369 0.2306351
 0.2309037 0.2311563 0.2314042 0.2316517 0.2318966 0.2321341 0.2323647 0.2325976 0.2328414 0.2330945
 0.2333461 0.2335853 0.2338095 0.2340272 0.2342489 0.2344745 0.2346969 0.234916 0.2351387 0.2353657
 0.235592 0.2358154 0.236038 0.2362605 0.2364849 0.2367169 0.2369591 0.2372064 0.2374505 0.2376849
 0.2379115 0.2381448 0.2383985 0.2386675 0.2389353 0.2391966 0.2394574 0.2397185 0.239974 0.2402201
 0.2404516 0.2406597 0.2408461 0.2410329 0.2412511 0.2415171 0.2418166 0.2421121 0.242377 0.2426189
 0.2428615 0.2431127 0.2433623 0.2436006 0.2438323 0.2440801 0.2443682 0.244693 0.2450224 0.2453334
 0.2456307 0.2459237 0.2462166 0.246519 0.2468314 0.2471214 0.2473526 0.2475415 0.2477627 0.2480874
 0.2485155 0.2489692 0.2493652 0.2496925 0.2500013 0.2503373 0.2507123 0.2510933 0.2513805 0.2514706
 0.2514187 0.2514696 0.2518364 0.2524869 0.253206 0.2538156 0.2542825 0.254661 0.2550004 0.2552995
 0.2555122 0.2555999 0.2556093 0.2557 0.2560374 0.2566242 0.2572827 0.2578391 0.2582615 0.2585955
 0.2588734 0.259115 0.259285 0.2592274 0.2588309 0.2583312 0.2582518 0.2588984 0.2600157 0.2610603
 0.2617359 0.2621435 0.2624821 0.262804 0.2630696 0.2631842 0.2628725 0.2618384 0.2603337 0.2593192
 0.2596717 0.2612993 0.263295 0.2648435 0.2657408 0.2661964 0.2664768 0.266726 0.2668591 0.2665716
 0.2656784 0.2645586 0.2640559 0.264696 0.2660972 0.2673861 0.2680932 0.2683949 0.2686371 0.2689463
 0.2691489 0.268729 0.2671158 0.2645288 0.2624074 0.2624035 0.2647662 0.2680404 0.2705069 0.2716601
 0.2720786 0.272166 0.2715611 0.2697951 0.2669947 0.2638305 0.2613136 0.2606642 0.2625054 0.2658443
 0.2686301 0.2697802 0.2700986 0.2709305 0.2725452 0.2741449 0.2749069 0.2746207 0.2735426 0.2719464
 0.2699919 0.2681423 0.2674227 0.2686966 0.2716098 0.2747121 0.2767975 0.2778187 0.2782555 0.2777104
 0.274622 0.2681426 0.2605003 0.2563962 0.2588551 0.2660545 0.2732791 0.2775609 0.2793089 0.2800996
 0.2805681 0.2802239 0.2777321 0.2716463 0.2626758 0.2551105 0.2539228 0.2598562 0.2685875 0.2747675
 0.2756769 0.2715173 0.2644342 0.257877 0.2552046 0.2576466 0.2637582 0.2708632 0.2766653 0.2798631
 0.28014 0.2780662 0.2750542 0.2729955 0.272896 0.2733967 0.2717975 0.2674594 0.2628626 0.2599597
 0.2571503 0.252248 0.2472849 0.2471637 0.2532867 0.2612211 0.2656797 0.2658741 0.2645684 0.2630446
 0.2589107 0.2495521 0.2370803 0.2284064 0.229187 0.2379656 0.2474779 0.2517432 0.2508019 0.2486033
 0.2477105 0.2467055 0.2422459 0.2334427 0.2240332 0.2192531 0.2203073 0.2232976 0.2238554 0.2206954
 0.2141263 0.2045249 0.1946721 0.1906848 0.1968414 0.2102655 0.2231655 0.2292807 0.226221 0.2139937
 0.1956381 0.1788837 0.1724655 0.1784023 0.1896204 0.1964874 0.1944739 0.1849732 0.1711545 0.1557059
 0.142053 0.1347798 0.136857 0.1466396 0.1580941 0.1639295 0.1595871 0.1466196 0.1328406 0.1267475
 0.129948 0.1361263 0.1381722 0.1346502 0.1288869 0.1244857 0.1231456 0.1245755 0.1269052 0.1283651
 0.1287294 0.1275633 0.1222591 0.1111903 0.09832163 0.09075861 0.09132591 0.09694378 0.1043232 0.1129786
 0.121552 0.125706 0.1229565 0.1173795 0.1162627 0.1223925 0.1315741 0.1377321 0.138953 0.1379995
 0.1379243 0.1386617 0.1385609 0.1381383 0.1402576 0.1461998 0.1534228 0.1583669 0.160157 0.1603529
 0.1602637 0.1599366 0.1590528 0.1575217 0.15542 0.1530613 0.1508973 0.1490111 0.1470348 0.1446778
 0.1417601 0.1375283 0.130837 0.1219311 0.1135529 0.1088815 0.1082547 0.1093007 0.1103462 0.1114587
 0.1113953 0.1065701 0.09570815 0.08385125 0.07875469 0.08341427 0.09381999 0.103585 0.1088668 0.1087541
 0.1033815 0.09412515 0.08533096 0.08306089 0.09021316 0.1037872 0.1181569 0.1299112 0.1382924 0.142613
 0.1418485 0.1367872 0.1308949 0.1284044 0.1317951 0.1406433 0.1516383 0.159287 0.1585602 0.1499324
 0.1419234 0.1448534 0.1598568 0.1768925 0.1860014 0.1875013 0.1880766 0.1903403 0.1914326 0.1904324
 0.1914286 0.1978531 0.2073396 0.2140228 0.2137408 0.2057083 0.1918318 0.1769832 0.1678383 0.1677472
 0.1731637 0.1776518 0.178212 0.1750339 0.1676653 0.156548 0.1471858 0.1469116 0.1563765 0.168303
 0.1757867 0.1786581 0.180582 0.1826824 0.1821718 0.1766202 0.1680073 0.1615492 0.1605387 0.1634186
 0.1664016 0.1674681 0.1665246 0.1632011 0.1570345 0.1498238 0.1456732 0.1474997 0.1540942 0.1613134
 0.1658322 0.1672591 0.1671425 0.1669579 0.1670966 0.1670077 0.1662269 0.1657338 0.1677864 0.1734388
 0.1807189 0.1865631 0.1903093 0.1939623 0.1990576 0.2045295 0.2080044 0.2084241 0.2071 0.2066037
 0.2087115 0.2129836 0.2170783 0.2187374 0.2179227 0.2170462 0.2187344 0.2232812 0.228603 0.2325601
 0.2347006 0.2358047 0.2366035 0.2371812 0.2369636 0.2351881 0.2320664 0.2294843 0.2297106 0.2331655
 0.2379981 0.2419487 0.2441241 0.244934 0.2449466 0.2442508 0.2427753 0.2408416 0.2391661 0.2383238
 0.238355 0.2389173 0.2396522 0.2403374 0.2408623 0.2412151 0.2414556 0.2416429 0.2418153 0.2420225
 0.2422931 0.242568 0.2427549 0.2428711 0.243055 0.2433877 0.2437628 0.243986 0.2439471 0.2436191
 0.2429421 0.2418327 0.2403131 0.2385205 0.2365521 0.2344001 0.2321343 0.2301185 0.2289231 0.2289197
 0.2299506 0.2314229 0.2327272 0.2335603 0.2339326 0.2340026 0.2339508 0.2339244 0.2340068 0.234209
 0.2345031 0.2348711 0.2353208 0.2358581 0.2364595 0.2370917 0.2377532 0.2384727 0.2392604 0.24008
 0.2408737 0.2416063 0.2422827 0.2429309 0.2435644 0.2441562 0.2446506 0.2449995 0.2451899 0.2452428
 0.2451946 0.2450742 0.2448793 0.2445726 0.2441097 0.2434675 0.2426224 0.2415105 0.2400653 0.2383193
 0.2364256 0.2345456 0.2327416 0.2309939 0.2292722 0.2275534 0.2258054 0.2239953 0.2221089 0.2201495
 0.2181313 0.2160843 0.2140519 0.2120762 0.2101782 0.2083469 0.2065408 0.2047042 0.2027856 0.2007405
 0.1985191 0.1960513 0.1932493 0.1900307 0.1863396 0.1821551 0.1775021 0.1724732 0.1672294 0.161964
 0.1568561 0.1520425 0.1476145 0.1436383 0.1401804 0.1373077 0.1350591 0.1334341 0.1324141 0.1319848
 0.1321348 0.1328366 0.1340203 0.1355578 0.1372791 0.1390101 0.1406063 0.1419855 0.143166 0.1442723
 0.1454668 0.1468503 0.1484163 0.1500911 0.1517982 0.1534774 0.1550577 0.1564519 0.1575967 0.1584847
 0.1591501 0.1596425 0.160019 0.1603396 0.1606509 0.1609794 0.1613348 0.1617128 0.1621075 0.1625311
 0.1630148 0.1635893 0.1642714 0.1650648 0.1659648 0.1669617 0.1680467 0.1692161 0.1704753 0.1718399
 0.1733243 0.1749362 0.1766976 0.1786629 0.1808891 0.1833893 0.186128 0.1890411 0.1920382 0.1949977
 0.1977873 0.2002951 0.2024523 0.2042432 0.2057018 0.2068927 0.2078885 0.2087532 0.2095279 0.2102326
 0.2108756 0.2114421 0.2118793 0.2121214 0.2121391 0.2119512 0.2116011 0.2111449 0.210648 0.2101626
 0.2097131 0.2093173 0.2090115 0.2088403 0.2088197 0.2089078 0.2090133 0.2090441 0.2089514 0.2087288
 0.2083843 0.207922 0.2073347 0.2065994 0.2056924 0.2046193 0.203415 0.2021141 0.2007313 0.1992689
 0.1977305 0.1961235 0.1944522 0.1927092 0.1908841 0.1889837 0.1870346 0.1850665 0.1831092 0.1812045
 0.1793956 0.1776958 0.1760736 0.1744728 0.1728487 0.1711965 0.1695499 0.1679435 0.1663814 0.1648509
 0.163355 0.1619161 0.1605559 0.1592909 0.158143 0.1571388 0.156287 0.1555596 0.1549038 0.1542802
 0.1536849 0.1531326 0.1526422 0.1522446 0.1519718 0.1518146 0.1517107 0.1515918 0.1514313 0.1512404
 0.1510386 0.1508339 0.1506224 0.1504019 0.1501769 0.1499356 0.1496189 0.1491266 0.1483621 0.1472721
 0.1458613 0.1441826 0.1423154 0.1403534 0.138405 0.1365775 0.1349459 0.1335471 0.1323972 0.1314907
 0.1307869 0.1302301 0.1297915 0.129484 0.1293349 0.1293308 0.1293766 0.1293395 0.1291739 0.1289831
 0.1289274 0.1290931 0.1294552 0.1299195 0.1303698 0.1307139 0.1309181 0.1310016 0.1310051 0.1309616
 0.1308694 0.1306909 0.130398 0.1300122 0.1295806 0.1291302 0.128652 0.1281098 0.1274662 0.1267231
 0.1259164 0.1250623 0.1241402 0.1231262 0.1220012 0.1207559 0.1194588 0.1183 0.117502 0.1171806
 0.1172895 0.1176568 0.1180909 0.1184977 0.1188563 0.1190584 0.118932 0.1185602 0.1184551 0.1191917
 0.1208364 0.1228419 0.1245176 0.1255127 0.1258463 0.1256467 0.1250076 0.124004 0.122673 0.1209956
 0.1189849 0.1167335 0.1143306 0.1118436 0.1094014 0.10717 0.1052447 0.1036431 0.1023496 0.1013866
 0.1008622 0.1004893 0.09876427 0.09373893 0.08600032 0.08005104 0.08055961 0.08713697 0.09458647 0.09842347
 0.09847991 0.09710644 0.09593555 0.09521566 0.09486221 0.09497817 0.09565116 0.09675806 0.09797843 0.09897587
 0.09961115 0.09991646 0.09985337 0.09913138 0.09718172 0.09335362 0.0874362 0.0801212 0.07277558 0.0666611
 0.06238243 0.05987798 0.05865798 0.05809312 0.05774091 0.05754945 0.05776531 0.05864326 0.06023255 0.0624023
 0.06498088 0.06776317 0.07042817 0.07264771 0.07433558 0.07564977 0.07671601 0.07748136 0.0778503 0.07783018
 0.07751635 0.0770219 0.07643859 0.07580666 0.07509236 0.07422087 0.07319238 0.0721861 0.07147062 0.07115421
 0.0710949 0.07109404 0.07107744 0.07105437 0.07102494 0.07098606 0.07095614 0.07097521 0.07110982 0.07141218
 0.07184173 0.07227771 0.07262211 0.07285541 0.07301143 0.07310823 0.07306695 0.07276187 0.07224223 0.07177621
 0.07150042 0.07116687 0.07047418 0.06955065 0.06887209 0.06874663 0.06905644 0.06946044 0.06969254 0.06968333
 0.06955588 0.06956603 0.06992659 0.07056234</values></Ydata></ScSm><ScRf><Ydata ylabel="Single channel"><values byteorder="INTEL" format="FLOAT32" numvalues="1820"> 0.06046388 0.06060626 0.06068659 0.06071367 0.06071491 0.06073108 0.06080355 0.06094993 0.06114676 0.06133807
 0.06147218 0.06153698 0.06155065 0.06152404 0.06146278 0.06140877 0.06143606 0.06157959 0.06178651 0.06195213
 0.06200292 0.06195921 0.06192539 0.06198847 0.06210039 0.0620854 0.06180522 0.06132024 0.06085372 0.06058501
 0.06053445 0.06069218 0.06113157 0.06180392 0.06230161 0.06214606 0.0613878 0.06064147 0.06040557 0.06058307
 0.06076151 0.0606911 0.0603685 0.05994599 0.05976891 0.06027947 0.061583 0.06309244 0.06374046 0.06265272
 0.05977194 0.05605555 0.05312184 0.05238186 0.05404463 0.05683414 0.05894781 0.05949566 0.05892742 0.05811736
 0.05742272 0.05679346 0.05638315 0.05659336 0.05751754 0.05855448 0.05871355 0.05746438 0.05537137 0.0536975
 0.05325049 0.05387267 0.05511405 0.05672298 0.05795832 0.05719828 0.05353449 0.04879144 0.04671593 0.04941734
 0.05511581 0.05988224 0.06113423 0.05908509 0.05560333 0.05265977 0.05157834 0.05268161 0.05524607 0.0581077
 0.06036341 0.06139813 0.06072753 0.05842562 0.05553493 0.05355473 0.05351892 0.05559637 0.05905715 0.06233344
 0.06373015 0.0626775 0.06010909 0.05747296 0.05578011 0.05560727 0.0572323 0.06034593 0.06403705 0.0673234
 0.06954998 0.07045172 0.07021202 0.06935064 0.06832819 0.0674611 0.06719047 0.06781226 0.06876251 0.06883468
 0.06749538 0.06560336 0.06452888 0.06473871 0.06542388 0.0654787 0.06461725 0.06319234 0.06110109 0.05776308
 0.05345284 0.04965591 0.04758419 0.04725597 0.04838284 0.05083559 0.05359148 0.05467081 0.05329722 0.05128178
 0.05122075 0.05372586 0.05710497 0.05943338 0.06033875 0.06087841 0.06217366 0.06425931 0.06593715 0.06568456
 0.06317013 0.06010114 0.05901454 0.06078326 0.06377524 0.06585851 0.06664859 0.06726098 0.06836739 0.06915554
 0.06817539 0.06505967 0.0614461 0.05996306 0.06193878 0.06607313 0.0693818 0.06940012 0.06584016 0.06066419
 0.0565596 0.05507725 0.05621116 0.05942014 0.06422505 0.06967424 0.07410053 0.07604978 0.07533248 0.07294931
 0.06994869 0.06645418 0.06220413 0.05816621 0.05674081 0.05949474 0.06515643 0.07067521 0.07394224 0.07484007
 0.07405441 0.07177246 0.06788754 0.06327814 0.06022781 0.06064893 0.06377567 0.0665971 0.06701051 0.06574082
 0.06479073 0.06494629 0.06548361 0.06570785 0.06595144 0.06701241 0.06901256 0.07109828 0.07226413 0.0722623
 0.07164527 0.07112138 0.07091133 0.07058879 0.06968945 0.06865095 0.06875471 0.07071835 0.07370093 0.07616466
 0.07741523 0.0778487 0.07791544 0.07733096 0.07548583 0.07258672 0.07012221 0.06975842 0.07172791 0.07468206
 0.07709131 0.07834633 0.07862212 0.07832604 0.07781986 0.07730159 0.07686295 0.07673554 0.0772343 0.07830001
 0.07939665 0.08004594 0.08021802 0.08008853 0.07969659 0.07902002 0.07822607 0.07767192 0.07764567 0.07814837
 0.07894309 0.07976713 0.08042359 0.08073533 0.08060548 0.08016223 0.07968851 0.07936452 0.07919891 0.07920277
 0.07945392 0.07993969 0.08047627 0.08086106 0.08103602 0.08106291 0.08100429 0.08087729 0.08069432 0.08051551
 0.08045071 0.08057987 0.08085404 0.08112799 0.08133017 0.08153406 0.08180012 0.08202586 0.08205283 0.0818793
 0.08167247 0.08158641 0.08163809 0.08175023 0.0818403 0.08183714 0.08166757 0.08131793 0.0809281 0.08074488
 0.0809247 0.08141844 0.0820591 0.08268434 0.08316229 0.08341435 0.08347242 0.08344507 0.08339116 0.08327894
 0.08308311 0.08287549 0.08280194 0.08297431 0.08337166 0.08384697 0.08424143 0.08448184 0.0845831 0.08462164
 0.08470799 0.08489878 0.08511095 0.08519736 0.08513023 0.08504379 0.08507343 0.08520339 0.08529994 0.08527163
 0.08517413 0.08515032 0.0852775 0.0854984 0.08570638 0.08586609 0.08602849 0.08623971 0.08645108 0.08653724
 0.08642706 0.08620282 0.08602353 0.08595958 0.0859644 0.08600344 0.08612112 0.08634429 0.08658935 0.08672986
 0.086737 0.08670519 0.08673345 0.08681199 0.08684305 0.08675596 0.08657962 0.08640967 0.08632909 0.08635814
 0.08645223 0.08653322 0.08653763 0.08645543 0.08632841 0.08620833 0.08611979 0.08607154 0.0860956 0.08623949
 0.0864912 0.08672872 0.08679062 0.08662131 0.08633484 0.08611537 0.08605063 0.08606668 0.08602074 0.08584298
 0.08558284 0.08533756 0.08516166 0.08504455 0.08494881 0.08485491 0.08478387 0.0847882 0.0848996 0.08506303
 0.08514468 0.08504464 0.08479826 0.08453976 0.08437604 0.08431994 0.08432095 0.0843219 0.08430266 0.08429915
 0.08435905 0.0844603 0.08451209 0.08446044 0.08435431 0.08429082 0.08433487 0.08449431 0.08471398 0.08488241
 0.08490607 0.08480451 0.08469428 0.0846674 0.08471932 0.08479859 0.08487923 0.08496344 0.08504969 0.08513476
 0.08523942 0.08540314 0.08564363 0.08592847 0.08618928 0.08636688 0.08645722 0.08652565 0.0866661 0.08692733
 0.08727185 0.08760917 0.08787076 0.0880569 0.08821698 0.08839004 0.08857485 0.08876294 0.08897841 0.08925517
 0.0895836 0.08991288 0.0902075 0.09047669 0.09074765 0.09103318 0.09133127 0.09164636 0.09200285 0.09242299
 0.09287766 0.09327533 0.09353292 0.09366007 0.09375905 0.09394468 0.09426425 0.09466256 0.09500928 0.0952003
 0.09526536 0.09534714 0.09554577 0.09581809 0.09606625 0.09628867 0.09658359 0.09700953 0.09749357 0.09789552
 0.09814069 0.09827769 0.09841406 0.09860292 0.09879896 0.09893104 0.09900133 0.09908152 0.09921905 0.09939829
 0.09960779 0.09988814 0.1002696 0.1006988 0.1010764 0.1013509 0.1015416 0.1016895 0.1018176 0.1019245
 0.1019916 0.1020112 0.10202 0.1020757 0.102184 0.1022842 0.1023296 0.1023499 0.1024098 0.1025392
 0.102734 0.1029908 0.1032958 0.1036023 0.1038718 0.1041358 0.1044622 0.1048444 0.1051722 0.105349
 0.1053994 0.1054188 0.1054544 0.1054919 0.1055431 0.1056704 0.1059135 0.1062391 0.1065857 0.1069274
 0.1072753 0.1076309 0.107957 0.1081929 0.1083007 0.1083001 0.1082619 0.108269 0.1083809 0.1086127
 0.1089282 0.1092579 0.1095388 0.1097364 0.109832 0.1098208 0.1097479 0.1097169 0.109811 0.1099999
 0.1101521 0.1101458 0.1099464 0.1095812 0.1090803 0.1084677 0.1077921 0.1071362 0.106585 0.1061884
 0.1059624 0.1059265 0.1061223 0.1065693 0.1072065 0.1079061 0.1085511 0.1090681 0.1093843 0.1094095
 0.1091005 0.1085206 0.1078031 0.1070682 0.1063847 0.1057697 0.1051955 0.1046289 0.1041085 0.1037794
 0.1038266 0.1043685 0.1053992 0.1067909 0.1083299 0.1097859 0.1110075 0.1119779 0.112778 0.113495
 0.1141697 0.1148196 0.1154709 0.1161359 0.1167779 0.1173406 0.117813 0.1182356 0.1186435 0.1190311
 0.1193712 0.119646 0.1198641 0.1200617 0.1202702 0.1204671 0.1205821 0.1205748 0.1204815 0.1203672
 0.1202492 0.1200881 0.1198333 0.1194667 0.1190291 0.1186357 0.1184615 0.1186726 0.1193356 0.1203754
 0.1216297 0.1229488 0.1242357 0.1254043 0.1263533 0.1270201 0.1274423 0.1277323 0.1279957 0.1282824
 0.1285948 0.128915 0.1292244 0.1295147 0.1297896 0.1300648 0.1303626 0.1306941 0.1310363 0.1313419
 0.1315881 0.1318115 0.1320815 0.1324342 0.1328347 0.1332125 0.1335348 0.1338327 0.1341453 0.1344554
 0.1347092 0.1348908 0.1350488 0.135249 0.1355289 0.1358844 0.1362697 0.1366113 0.1368573 0.1370225
 0.1371693 0.1373469 0.1375632 0.1378059 0.1380653 0.1383327 0.1385968 0.1388575 0.1391334 0.1394387
 0.1397489 0.1400086 0.1401877 0.1403183 0.1404633 0.1406537 0.1408678 0.1410684 0.1412508 0.141454
 0.1417224 0.142053 0.1423832 0.1426429 0.1428136 0.1429338 0.1430545 0.1432037 0.1433855 0.1435919
 0.1438087 0.144021 0.1442237 0.1444262 0.1446387 0.144859 0.1450767 0.145288 0.1454985 0.1457124
 0.1459263 0.1461365 0.1463483 0.1465769 0.1468375 0.1471263 0.1474119 0.1476544 0.1478375 0.1479778
 0.1481052 0.1482418 0.1483961 0.1485674 0.1487504 0.1489401 0.1491352 0.1493375 0.1495474 0.1497609
 0.1499707 0.1501729 0.1503718 0.1505741 0.1507843 0.1510058 0.1512406 0.1514816 0.1517125 0.1519191
 0.1521032 0.1522814 0.1524703 0.1526722 0.1528741 0.1530638 0.153244 0.1534276 0.1536203 0.1538153
 0.1540032 0.1541829 0.1543632 0.1545554 0.154763 0.1549779 0.1551875 0.1553858 0.1555755 0.1557641
 0.1559587 0.1561595 0.1563599 0.1565544 0.1567464 0.1569428 0.1571458 0.1573518 0.1575548 0.1577486
 0.1579314 0.1581101 0.1582956 0.1584933 0.158701 0.1589134 0.1591284 0.1593453 0.1595602 0.1597652
 0.159957 0.1601423 0.1603308 0.1605274 0.1607331 0.1609475 0.1611669 0.1613857 0.1616005 0.1618105
 0.1620154 0.162218 0.1624245 0.1626387 0.1628593 0.1630838 0.1633081 0.1635252 0.1637296 0.163922
 0.1641052 0.1642817 0.1644539 0.1646241 0.1647955 0.1649744 0.1651655 0.1653643 0.1655614 0.1657535
 0.1659423 0.1661296 0.1663201 0.1665194 0.1667271 0.1669365 0.1671434 0.1673458 0.1675398 0.167725
 0.1679093 0.1681029 0.1683109 0.168531 0.1687522 0.1689638 0.1691688 0.1693795 0.1695991 0.1698201
 0.1700377 0.1702519 0.1704624 0.1706705 0.1708784 0.1710825 0.1712788 0.1714734 0.1716762 0.1718874
 0.1721004 0.1723102 0.1725162 0.1727237 0.1729406 0.1731649 0.1733849 0.1735972 0.1738094 0.1740247
 0.1742398 0.1744545 0.17467 0.1748853 0.175102 0.1753201 0.1755328 0.1757384 0.1759463 0.176159
 0.1763679 0.1765723 0.1767783 0.1769723 0.1771054 0.1770629 0.1765774 0.1751269 0.1719138 0.166015
 0.1567412 0.1440652 0.1287832 0.1122349 0.09581043 0.08058669 0.06721749 0.05600472 0.04702727 0.04022954
 0.03548341 0.03268399 0.03184381 0.03318931 0.03726962 0.0446298 0.0545862 0.0641498 0.06919415 0.06771165
 0.0617326 0.05547262 0.05183068 0.05100089 0.05174387 0.05301124 0.05447369 0.05632341 0.05888878 0.06225531
 0.06624798 0.07084799 0.07639879 0.08316265 0.09078752 0.0984567 0.105597 0.1123248 0.1191629 0.1264014
 0.1337937 0.1408058 0.1470422 0.1524349 0.1571532 0.161424 0.1654066 0.1691735 0.1727601 0.1761666
 0.1792759 0.1818191 0.1835098 0.1842645 0.1843013 0.1840166 0.1837533 0.1836684 0.1837722 0.1840348
 0.1844362 0.184962 0.1855977 0.1863235 0.1871068 0.1879104 0.1887084 0.1894833 0.1902179 0.1909005
 0.1915301 0.1921089 0.1926394 0.1931294 0.1935873 0.1940154 0.1944144 0.19479 0.1951484 0.1954935
 0.1958283 0.1961517 0.1964546 0.1967291 0.1969776 0.1972088 0.1974306 0.1976501 0.1978717 0.1980942
 0.1983142 0.1985315 0.1987467 0.198957 0.1991573 0.1993468 0.1995346 0.199733 0.199943 0.2001489
 0.2003366 0.2005121 0.2006935 0.2008883 0.2010888 0.2012868 0.2014824 0.2016788 0.2018748 0.2020655
 0.202251 0.2024396 0.2026371 0.2028369 0.2030295 0.2032194 0.2034194 0.2036306 0.2038441 0.2040564
 0.2042699 0.2044837 0.2046972 0.2049134 0.2051291 0.2053274 0.205497 0.2056539 0.2058312 0.2060449
 0.2062755 0.2064893 0.2066786 0.2068685 0.20708 0.2073023 0.2075073 0.2076798 0.207833 0.2080026
 0.20822 0.2084799 0.2087454 0.208993 0.2092317 0.2094732 0.2097135 0.2099485 0.2101769 0.2103803
 0.2105322 0.2106438 0.2107829 0.2110257 0.2113806 0.2117674 0.2120911 0.2123308 0.2125369 0.2127635
 0.2130305 0.2133113 0.2135186 0.2135611 0.213483 0.2134907 0.2137644 0.2142765 0.2148459 0.2153268
 0.2156954 0.2159953 0.2162592 0.216477 0.2166053 0.2166152 0.2165607 0.2165969 0.2168745 0.217382
 0.21794 0.2183821 0.2186878 0.2189167 0.2191087 0.2192792 0.2193942 0.2193201 0.218961 0.2185141
 0.2184249 0.2189575 0.2198964 0.2207775 0.2213456 0.2216832 0.221954 0.2221982 0.2223841 0.2224401
 0.2221412 0.2212389 0.2199464 0.2190808 0.2193875 0.2207843 0.2224934 0.2238174 0.2245834 0.2249731
 0.2252127 0.2254193 0.2255173 0.2252573 0.2244978 0.2235662 0.2231704 0.2237472 0.2249716 0.226102
 0.2267328 0.2270056 0.2272144 0.2274775 0.2276572 0.2273133 0.2259517 0.2237575 0.2219641 0.2219825
 0.2240184 0.2268249 0.2289378 0.2299332 0.2303082 0.2304031 0.2299023 0.2284042 0.2260228 0.2233385
 0.2212221 0.2207186 0.2223508 0.2252518 0.2276602 0.228658 0.2289408 0.2296607 0.2310537 0.2324469
 0.2331387 0.2329425 0.2320711 0.2307522 0.2291175 0.2275653 0.2269783 0.2280994 0.2306289 0.2333281
 0.2351593 0.2360732 0.2364812 0.2360473 0.2334321 0.2279094 0.2213956 0.2179191 0.2200602 0.2262528
 0.2324674 0.2361716 0.2377164 0.2384461 0.2388977 0.2386505 0.2365678 0.231415 0.2237974 0.2173887
 0.2164499 0.2216123 0.2291649 0.2345227 0.2353525 0.2318221 0.2257841 0.2202261 0.218044 0.2202831
 0.2256845 0.2319276 0.2370223 0.2398556 0.24018 0.2385021 0.2360382 0.234415 0.2344874 0.2350623
 0.2338095 0.2302054 0.2264115 0.2241012 0.2218671 0.2178157 0.2137333 0.2139 0.2195329 0.2267481
 0.2309228 0.2313765 0.2305303 0.2294982 0.2261783 0.218274 0.207639 0.2003714 0.201487 0.2097123
 0.2186224 0.2229389 0.2227243 0.2214919 0.2215122 0.2214985 0.2184196 0.2114606 0.2040433 0.2009576
 0.2032598 0.2073209 0.209116 0.2074267 0.2024285 0.1944138 0.1861183 0.1835304 0.1908311 0.2052698
 0.2193275 0.2269039 0.2255282 0.2149963 0.1982552 0.1832175 0.1789038 0.1873477 0.2011146 0.2101431
 0.2097169 0.2012755 0.1881229 0.1732014 0.1604871 0.1553725 0.1614236 0.1767753 0.194176 0.2045653
 0.2020627 0.1885733 0.1742606 0.1702318 0.1783817 0.1900551 0.1957385 0.1936967 0.188595 0.1855192
 0.1870604 0.192843 0.1999088 0.2055019 0.2092692 0.2101108 0.2032026 0.1857888 0.1648524 0.1525191
 0.1534641 0.1624998 0.1742707 0.1880702 0.2015519 0.2074204 0.2016602 0.1911585 0.187855 0.196067
 0.2087936 0.2162866 0.2157021 0.2116224 0.2089726 0.2077713 0.2055835 0.2032029 0.204858 0.21239
 0.2220534 0.2286987 0.2311257 0.2316359 0.2321139 0.2325887 0.2325518 0.2318207 0.230468 0.2289423
 0.2279276 0.2275703 0.2273401 0.2268223 0.2256974 0.2225415 0.2151338 0.2035933 0.1923743 0.1867405
 0.1871791 0.1897704 0.1920002 0.1942148 0.1941922 0.1856275 0.1664691 0.1457462 0.1369995 0.1451975
 0.163037 0.1792624 0.1872887 0.1857539 0.1751393 0.1579685 0.1415095 0.1355117 0.1442573 0.1624489
 0.1808691 0.194329 0.2022838 0.2044291 0.1996939 0.1893615 0.1783518 0.1724153 0.1746171 0.1839776
 0.1958102 0.202944 0.1992295 0.1856443 0.1729895 0.1739295 0.1897121 0.208097 0.2171114 0.2171718
 0.2162504 0.2174922 0.2176449 0.2157242 0.2165033 0.2239523 0.2353881 0.2441207 0.2453277 0.2379505
 0.2240722 0.2094156 0.2018633 0.205101 0.2143652 0.2215762 0.2231335 0.2194357 0.2101219 0.1961043
 0.1846382 0.1849473 0.1975414 0.21302 0.2227569 0.2267549 0.229722 0.2329685 0.2328254 0.2262135
 0.2157985 0.2083486 0.2080407 0.2128054 0.2178205 0.2205958 0.2209976 0.2183565 0.2118824 0.2039412
 0.2000963 0.2042693 0.2146539 0.2253758 0.2317248 0.2330984 0.2316312 0.2294218 0.2271206 0.2240979
 0.2198409 0.2157642 0.2149383 0.2188135 0.2249208 0.2294144 0.231481 0.233612 0.2376888 0.242392
 0.2448082 0.2436075 0.2402979 0.2378992 0.2385182 0.2416863 0.2447147 0.2449896 0.2424584 0.2399133
 0.2404184 0.2443849 0.2495171 0.2534274 0.25558 0.2567902 0.2578217 0.2587186 0.2587703 0.2570466
 0.2537147 0.250809 0.2507895 0.254102 0.258757 0.2623927 0.2641866 0.2647107 0.2646229 0.2639791
 0.2626263 0.2608317 0.2593032 0.2586329 0.2588718 0.2596599 0.2606035 0.2614551 0.2621 0.2625323
 0.2628152 0.2629989 0.2631047 0.2631767 0.2632591 0.2633108 0.2632506 0.2631221 0.2631125 0.2633401
 0.2636952 0.2639574 0.2639982 0.263782 0.2632421 0.2622989 0.2610026 0.2595274 0.2579787 0.2563186
 0.2545931 0.2531906 0.2527345 0.2536176 0.2556359 0.2581031 0.2603149 0.2619099 0.2628801 0.2633815
 0.2635869 0.2636377 0.2636241 0.2635719 0.2634633 0.2632777 0.2630127 0.2626764 0.2622824 0.2618597
 0.2614564 0.261116 0.2608409 0.2605825 0.2602745 0.2598761 0.2593923 0.258862 0.2583238 0.2577786
 0.257178 0.2564575 0.2555899 0.2546128 0.2536148 0.2526879 0.2518681 0.251114 0.2503532 0.2495422
 0.2486609 0.2476732 0.2465543 0.2453716 0.2442809 0.2434019 0.2427177 0.2421141 0.2414817 0.2407578
 0.2399118 0.2389466 0.2379062 0.2368453 0.2357788 0.2346778 0.2335048 0.2322421 0.2308897 0.2294529
 0.2279354 0.226347 0.2247169 0.2230819 0.2214377 0.2197035 0.2177446 0.2154252 0.2126332 0.2092855
 0.205352 0.2008942 0.1960717 0.1910986 0.1861825 0.1814914 0.1771543 0.173274 0.1699358 0.1672097
 0.1651452 0.1637648 0.1630692 0.1630573 0.1637327 0.1650823 0.1670465 0.1695103 0.1723183 0.1752976
 0.1782776 0.1811105 0.1837046 0.1860593 0.1882483 0.1903396 0.1923282 0.194159 0.1957927 0.1972239
 0.198451 0.1994676 0.2002873 0.200955 0.2015242 0.2020278 0.2024714 0.20285 0.2031657 0.2034286
 0.20365 0.203841 0.2040135 0.2041805 0.2043584 0.2045661 0.2048181 0.2051237 0.2054971 0.2059512
 0.2064744 0.2070311 0.2075959 0.2081741 0.2087873 0.2094554 0.2101976 0.2110367 0.2119951 0.2130887
 0.2143169 0.2156512 0.2170304 0.218368 0.2195721 0.2205727 0.2213357 0.2218545 0.22214 0.2222246
 0.2221574 0.2219773 0.2216972 0.2213186 0.2208521 0.2203164 0.2197301 0.2191096 0.2184646 0.2177952
 0.2171004 0.2163914 0.2156881 0.2150028 0.2143351 0.2136811 0.2130419 0.2124194 0.2118109 0.2112131
 0.2106265 0.2100514 0.2094839 0.2089215 0.2083641 0.2077992 0.207189 0.2064873 0.2056699 0.2047429
 0.2037194 0.2025994 0.20138 0.2000745 0.1987076 0.1972898 0.1958079 0.1942444 0.1925977 0.1908762
 0.1890735 0.1871673 0.1851618 0.1831243 0.1811565 0.1793242 0.177627 0.1760327 0.1745204 0.1730889
 0.1717404 0.1704663 0.1692504 0.1680872 0.1669864 0.1659505 0.1649588 0.1639915 0.1630601 0.1622039
 0.1614609 0.1608429 0.1603308 0.1598909 0.1594969 0.1591409 0.1588377 0.158628 0.1585505 0.1585881
 0.1586602 0.1586873 0.1586464 0.1585581 0.1584492 0.1583391 0.1582402 0.1581575 0.1580875 0.1580064
 0.1578571 0.1575555 0.1570138 0.1561626 0.1549751 0.1534793 0.1517473 0.1498856 0.148035 0.1463387
 0.1448868 0.1437114 0.1428197 0.1421824 0.1417108 0.1413146 0.1409849 0.1407907 0.1407988 0.1409988
 0.1412773 0.1414803 0.1415448 0.1415646 0.1417078 0.1420873 0.1427009 0.1434431 0.1441695 0.1447881
 0.1452836 0.1456611 0.1459179 0.1460727 0.1461545 0.14616 0.1460689 0.1458857 0.1456323 0.1453259
 0.144975 0.144565 0.1440634 0.1434671 0.1428077 0.1420962 0.1413161 0.140454 0.139475 0.1383263
 0.137059 0.1359055 0.1351607 0.1350049 0.1354267 0.1362468 0.1372377 0.1382749 0.1393054 0.1401568
 0.1405791 0.1406264 0.1408504 0.1419016 0.1439107 0.1463461 0.148486 0.1499398 0.1506923 0.1508262
 0.1503952 0.1494685 0.1480843 0.1461989 0.1438163 0.141071 0.1381127 0.1350646 0.1321205 0.1294978
 0.127302 0.1255412 0.1241863 0.1232408 0.1228184 0.1225759 0.1206753 0.1147173 0.1054505 0.09847282
 0.09953751 0.1080859 0.1176233 0.1225856 0.1227824 0.1211493 0.11972 0.1187891 0.1182436 0.1182362
 0.1189042 0.1201016 0.1214449 0.1225467 0.1232391 0.1235436 0.1234139 0.122501 0.1200737 0.115274
 0.1078207 0.09860445 0.08937936 0.08174407 0.07642282 0.07328364 0.07169563 0.07089359 0.07034835 0.07001658
 0.07022988 0.07130504 0.07327735 0.07597665 0.07920325 0.08269799 0.08604916 0.08886132 0.09104256 0.09277192
 0.0941771 0.09518465 0.09568529 0.09569992 0.09534793 0.09475113 0.09400851 0.09319025 0.09228858 0.09121899
 0.08997336 0.08876927 0.08792703 0.08756386 0.08750889 0.08752878 0.08751898 0.08747213 0.08739686 0.08730577
 0.08721829 0.08717616 0.08727315 0.08759998 0.08812169 0.08866414 0.08904926 0.08922502 0.08926503 0.08922614
 0.08900131 0.08842404 0.08758654 0.08686064 0.0864164 0.08590494 0.08489458 0.0835187 0.08241402 0.08203977
 0.08227007 0.08264198 0.08279939 0.08266783 0.08240822 0.08232253 0.08265124 0.08328796 0.083775 0.08373545
</values></Ydata></ScRf><Data_Parameters_AB><parameter name="DPF">1</parameter><parameter name="NPT">3497</parameter><parameter name="FXV">3996</parameter><parameter name="LXV">500</parameter><parameter name="CSF">1</parameter><parameter name="MXY">0.241357505321503</parameter><parameter name="MNY">-0.0817130282521248</parameter><parameter name="DAT">30/05/2022</parameter><parameter name="TIM">11:50:52.270 (GMT+2)</parameter><parameter name="DXU">WN</parameter></Data_Parameters_AB><AB__Qtest><MainReport name="Quality Test Report"><Header><Line><Legend>Test result ok/not ok [1/0]: </Legend><Value>0</Value></Line><Line><Legend>Method file: </Legend><Value>C:\Users\Public\Documents\Bruker\OPUS_8.2.28\QT\IRBT_v3_default.QT</Value></Line></Header><Matrix><Line><Legend></Legend><Legend>min</Legend><Legend>max</Legend><Legend>measured</Legend></Line><Line><Value>Absorption (X-Range 1):</Value><Value>0.400000</Value><Value>2.000000</Value><Value>0.298783</Value></Line><Line><Value>Noise (X-Range 4):</Value><Value></Value><Value>0.000300</Value><Value>0.000057</Value></Line><Line><Value>Signal/Noise (X-Range 2):</Value><Value>200.000000</Value><Value></Value><Value>130.284987</Value></Line><Line><Value>Signal/Noise (X-Range 3):</Value><Value>40.000000</Value><Value></Value><Value>63.283625</Value></Line><Line><Value>Water vapour (X-Range 5):</Value><Value></Value><Value>0.000300</Value><Value>0.000049</Value></Line><Line><Value>Signal/Water (X-Range 2):</Value><Value>100.000000</Value><Value></Value><Value>150.589816</Value></Line><Line><Value>Signal/Water (X-Range 3):</Value><Value>20.000000</Value><Value></Value><Value>73.146337</Value></Line><Line><Value>Fringes (X-Range 6):</Value><Value></Value><Value>0.000100</Value><Value>0.000080</Value></Line></Matrix></MainReport></AB__Qtest><Data_Parameters_ScSm><parameter name="DPF">1</parameter><parameter name="NPT">1814</parameter><parameter name="FXV">3996.33169228125</parameter><parameter name="LXV">499.541461535156</parameter><parameter name="CSF">1</parameter><parameter name="MXY">0.280568063259125</parameter><parameter name="MNY">0.0382279381155968</parameter><parameter name="DAT">30/05/2022</parameter><parameter name="TIM">11:50:52.270 (GMT+2)</parameter><parameter name="DXU">WN</parameter></Data_Parameters_ScSm><Data_Parameters_ScRf><parameter name="DPF">1</parameter><parameter name="NPT">1820</parameter><parameter name="FXV">4004.04661832813</parameter><parameter name="LXV">495.683998511719</parameter><parameter name="CSF">1</parameter><parameter name="MXY">0.26471072435379</parameter><parameter name="MNY">0.0318438075482845</parameter><parameter name="DAT">30/05/2022</parameter><parameter name="TIM">11:50:26.420 (GMT+2)</parameter><parameter name="DXU">WN</parameter></Data_Parameters_ScRf><Optic_Parameters_Rf><parameter name="APR">0</parameter><parameter name="APT">Open</parameter><parameter name="BMS">KBr</parameter><parameter name="DTC">RT-DLaTGS_IR-Biotyper [Microplate reader]</parameter><parameter name="HPF">0</parameter><parameter name="LPF">10.0</parameter><parameter name="LPV">4000</parameter><parameter name="PGR">0</parameter><parameter name="RCH">Module port</parameter><parameter name="RDX">0</parameter><parameter name="SRC">MIR</parameter><parameter name="VEL">10.0</parameter><parameter name="SON">Off</parameter></Optic_Parameters_Rf><Acquisition_Parameters_Rf><parameter name="ADT">1</parameter><parameter name="AQM">DD</parameter><parameter name="CFE">0</parameter><parameter name="COR">0</parameter><parameter name="DEL">0</parameter><parameter name="DLY">0</parameter><parameter name="HFW">8000</parameter><parameter name="LFW">0</parameter><parameter name="NSR">32</parameter><parameter name="PLF">AB</parameter><parameter name="RES">6</parameter><parameter name="RGN">-1</parameter><parameter name="STR">0</parameter><parameter name="TCL">MakeCompatibleScalar (0, {WSV=1.000000, ARV=0});</parameter><parameter name="TDL">37</parameter><parameter name="RPO">0</parameter></Acquisition_Parameters_Rf><FT_-_Parameters_Rf><parameter name="APF">B3</parameter><parameter name="HFQ">500</parameter><parameter name="LFQ">4000</parameter><parameter name="NLI">0</parameter><parameter name="PHR">24</parameter><parameter name="PHZ">ML</parameter><parameter name="SPZ">NO</parameter><parameter name="ZFF">1</parameter></FT_-_Parameters_Rf><Optic_Parameters_><parameter name="APR">0</parameter><parameter name="APT">Open</parameter><parameter name="BMS">KBr</parameter><parameter name="CHN">Module port</parameter><parameter name="DTC">RT-DLaTGS_IR-Biotyper [Microplate reader]</parameter><parameter name="HPF">0</parameter><parameter name="LPF">10.0</parameter><parameter name="LPV">4000</parameter><parameter name="PGN">0</parameter><parameter name="RDX">0</parameter><parameter name="SRC">MIR</parameter><parameter name="VEL">10.0</parameter><parameter name="SON">Off</parameter></Optic_Parameters_><FT_-_Parameters_><parameter name="APF">B3</parameter><parameter name="HFQ">500</parameter><parameter name="LFQ">4000</parameter><parameter name="NLI">0</parameter><parameter name="PHR">24</parameter><parameter name="PHZ">ML</parameter><parameter name="SPZ">NO</parameter><parameter name="ZFF">1</parameter></FT_-_Parameters_><Acquisition_Parameters_><parameter name="ADT">1</parameter><parameter name="AQM">DD</parameter><parameter name="CFE">0</parameter><parameter name="COR">0</parameter><parameter name="DEL">0</parameter><parameter name="DLY">0</parameter><parameter name="HFW">8000</parameter><parameter name="LFW">0</parameter><parameter name="NSS">32</parameter><parameter name="PLF">AB</parameter><parameter name="RES">6</parameter><parameter name="SOT">0</parameter><parameter name="TCL">MakeCompatibleScalar (0, {WSV=1.000000, ARV=0});</parameter><parameter name="TDL">37</parameter><parameter name="SPO">0</parameter><parameter name="SGN">-1</parameter></Acquisition_Parameters_><Instrument_Parameters_Rf><parameter name="HFL">15800.168544</parameter><parameter name="LFL">0</parameter><parameter name="LWN">15800.168544</parameter><parameter name="ABP">32197</parameter><parameter name="SSP">1</parameter><parameter name="ARG">2</parameter><parameter name="ASG">2</parameter><parameter name="ASS">32</parameter><parameter name="GFW">16</parameter><parameter name="GBW">16</parameter><parameter name="BFW">0</parameter><parameter name="BBW">0</parameter><parameter name="PKA">7297</parameter><parameter name="PKL">4996</parameter><parameter name="PRA">7463</parameter><parameter name="PRL">5001</parameter><parameter name="P2A">1</parameter><parameter name="P2L">1</parameter><parameter name="P2R">1</parameter><parameter name="P2K">1</parameter><parameter name="DAQ">0</parameter><parameter name="AG2">1</parameter><parameter name="SSM">1</parameter><parameter name="RSN">25258</parameter><parameter name="CRR">0</parameter><parameter name="SRT">1653911426.42</parameter><parameter name="DUR">19.6369934082031</parameter><parameter name="TSC">28.1</parameter><parameter name="MVD">0.381842523813248</parameter><parameter name="AN1">0.225797143661118</parameter><parameter name="AN2">0</parameter><parameter name="VSN">2.485 Apr  4 2017</parameter><parameter name="SRN">0085</parameter><parameter name="CAM">0</parameter><parameter name="INS">IR-Biotyper</parameter><parameter name="FOC">69</parameter><parameter name="RDY">1</parameter><parameter name="ARS">32</parameter></Instrument_Parameters_Rf><Sample_Parameters_><parameter name="BLD"></parameter><parameter name="CNM">Admin</parameter><parameter name="CPY"></parameter><parameter name="DPM"></parameter><parameter name="EXP">IRBT_v3_32Scans.XPM</parameter><parameter name="LCT"></parameter><parameter name="SFM">Microplate, HTS-XT</parameter><parameter name="SNM">220530-1021_SPB34F (D_1)_D7_31605e06-875b-42d4-b271-bf76200505d8.0</parameter><parameter name="XPP">C:\Users\Public\Documents\Bruker\OPUS_8.2.28\XPM</parameter><parameter name="IST">OK</parameter><parameter name="CPG">1252</parameter><parameter name="UID">6576227f-15e9-44d1-83bd-4be6e47bb9f9</parameter></Sample_Parameters_><Instrument_Parameters_><parameter name="HFL">15800.168544</parameter><parameter name="LFL">0</parameter><parameter name="LWN">15800.168544</parameter><parameter name="ABP">32197</parameter><parameter name="SSP">1</parameter><parameter name="ASG">2</parameter><parameter name="ARG">2</parameter><parameter name="ASS">32</parameter><parameter name="GFW">16</parameter><parameter name="GBW">16</parameter><parameter name="BFW">0</parameter><parameter name="BBW">0</parameter><parameter name="PKA">7093</parameter><parameter name="PKL">4988</parameter><parameter name="PRA">7420</parameter><parameter name="PRL">4993</parameter><parameter name="P2A">1</parameter><parameter name="P2L">1</parameter><parameter name="P2R">1</parameter><parameter name="P2K">1</parameter><parameter name="DAQ">0</parameter><parameter name="AG2">1</parameter><parameter name="SSM">1</parameter><parameter name="RSN">13255</parameter><parameter name="CRR">0</parameter><parameter name="SRT">1653911452.271</parameter><parameter name="DUR">19.6369934082031</parameter><parameter name="TSC">28.1</parameter><parameter name="MVD">0.409521281719208</parameter><parameter name="AN1">0.225803957340482</parameter><parameter name="AN2">0</parameter><parameter name="VSN">2.485 Apr  4 2017</parameter><parameter name="SRN">0085</parameter><parameter name="CAM">0</parameter><parameter name="INS">IR-Biotyper</parameter><parameter name="FOC">69</parameter><parameter name="RDY">1</parameter></Instrument_Parameters_><History/></OPUSDataFile>
