<?xml version="1.0" encoding="UTF-8" ?>
<OPUSDataFile><AB><Ydata ylabel="Absorbance Units"><values byteorder="INTEL" format="FLOAT32" numvalues="3497"> -0.08640238 -0.08643794 -0.08645317 -0.08644821 -0.08641901 -0.0863654 -0.08630771 -0.08624704 -0.0862033 -0.0861751
 -0.08616532 -0.08617068 -0.0861811 -0.0861948 -0.08620205 -0.08620426 -0.08619883 -0.08618925 -0.08617844 -0.08616893
 -0.08616387 -0.08616356 -0.08616916 -0.08617956 -0.08619475 -0.08621319 -0.08623498 -0.08625628 -0.08627686 -0.08629097
 -0.08629789 -0.08629585 -0.08628473 -0.08626888 -0.08624858 -0.08622862 -0.08620849 -0.0861876 -0.08616544 -0.08613906
 -0.08611017 -0.08608013 -0.08605337 -0.08603758 -0.08603612 -0.08605737 -0.08609779 -0.08616029 -0.08623116 -0.08630604
 -0.08636701 -0.08640628 -0.08641418 -0.08638436 -0.08632686 -0.08624005 -0.08615142 -0.08606303 -0.0860015 -0.08596845
 -0.08596931 -0.08600257 -0.08604888 -0.08610592 -0.08614886 -0.08617952 -0.08619069 -0.08618692 -0.08617584 -0.08615949
 -0.08614481 -0.08613184 -0.08612326 -0.08611856 -0.08611985 -0.0861209 -0.08612093 -0.08610732 -0.08607408 -0.0860182
 -0.08593432 -0.0858422 -0.08574217 -0.08566575 -0.08561602 -0.08561552 -0.08566571 -0.08577035 -0.08592778 -0.08611812
 -0.08633547 -0.08653504 -0.0867104 -0.08680997 -0.08684094 -0.08678926 -0.08667813 -0.08653954 -0.08639134 -0.08626903
 -0.08617364 -0.08612076 -0.08609544 -0.08609618 -0.08610092 -0.08609965 -0.08608468 -0.08604895 -0.08600888 -0.08596537
 -0.08593792 -0.08592966 -0.08593743 -0.08596125 -0.08598278 -0.08600205 -0.08601543 -0.08602586 -0.08605103 -0.08609149
 -0.08616158 -0.08625317 -0.08635609 -0.0864571 -0.08652707 -0.08656431 -0.08655111 -0.08650326 -0.08642832 -0.08633683
 -0.08623856 -0.0861313 -0.08601292 -0.08589555 -0.08577685 -0.08569405 -0.08565198 -0.08568557 -0.08580183 -0.08598718
 -0.08624206 -0.08644921 -0.08660249 -0.0865764 -0.08639046 -0.08610783 -0.08575208 -0.08544989 -0.08519787 -0.08505171
 -0.0849968 -0.08503846 -0.08514942 -0.08530581 -0.08546867 -0.08559734 -0.0856721 -0.08566181 -0.08559521 -0.08547156
 -0.08533762 -0.08520728 -0.08510008 -0.08502266 -0.08497304 -0.08495154 -0.08495724 -0.08499011 -0.08504852 -0.08513156
 -0.0852259 -0.08532866 -0.08541464 -0.08548137 -0.08550463 -0.08548681 -0.08541945 -0.08531132 -0.0851716 -0.08501301
 -0.0848527 -0.084704 -0.08458327 -0.08449844 -0.08445958 -0.08446509 -0.08451892 -0.08460808 -0.08473239 -0.08486881
 -0.08501488 -0.08514427 -0.08525442 -0.08532212 -0.08534574 -0.08531241 -0.08522289 -0.08508724 -0.08490882 -0.08471432
 -0.08450644 -0.08430939 -0.08412446 -0.08396697 -0.08383701 -0.08374306 -0.08368053 -0.08364964 -0.08363881 -0.08363932
 -0.08364028 -0.08363108 -0.08361363 -0.08358441 -0.0835553 -0.08352917 -0.08351262 -0.08350819 -0.08351181 -0.08352349
 -0.08353774 -0.08355419 -0.08356966 -0.08358376 -0.08359035 -0.08358864 -0.08356927 -0.0835337 -0.08348101 -0.08341672
 -0.08335382 -0.08329771 -0.08326481 -0.08325464 -0.08327407 -0.0833182 -0.0833838 -0.08347158 -0.08357877 -0.08371527
 -0.08388672 -0.08409037 -0.08433376 -0.08457451 -0.08481047 -0.08497943 -0.08507296 -0.08506841 -0.0849634 -0.0847725
 -0.08449776 -0.0841723 -0.08380293 -0.08345222 -0.08312603 -0.08288321 -0.08272002 -0.08266062 -0.08268889 -0.0827949
 -0.08294465 -0.083093 -0.08321445 -0.08326327 -0.08325731 -0.08319107 -0.08309576 -0.08298448 -0.08287024 -0.08276043
 -0.08265298 -0.08254844 -0.08244451 -0.08234023 -0.08224305 -0.08215322 -0.08208357 -0.08203463 -0.08201712 -0.08202967
 -0.08207112 -0.08213374 -0.08218837 -0.0822235 -0.08218741 -0.08209052 -0.08191997 -0.08171014 -0.08150312 -0.0813112
 -0.08116633 -0.08104753 -0.08095353 -0.08085696 -0.0807425 -0.08060965 -0.08045033 -0.08029525 -0.08014805 -0.08003674
 -0.07996692 -0.07993305 -0.07993597 -0.07993058 -0.07991427 -0.07983431 -0.07969506 -0.07950029 -0.07926194 -0.0790336
 -0.07881704 -0.07864495 -0.07851173 -0.07842226 -0.07837061 -0.07835501 -0.07835964 -0.07837494 -0.07837403 -0.07833634
 -0.07825212 -0.07810847 -0.07792132 -0.07769441 -0.07743134 -0.07713429 -0.07679674 -0.07641657 -0.07600752 -0.07556995
 -0.07512989 -0.07468868 -0.07426967 -0.07387462 -0.07352809 -0.0732301 -0.07299747 -0.07282169 -0.07269047 -0.07259168
 -0.07249481 -0.07239953 -0.07229313 -0.07217836 -0.07206067 -0.0719186 -0.07174359 -0.0715091 -0.07119305 -0.07081919
 -0.07038499 -0.06993772 -0.06948666 -0.06905687 -0.06865303 -0.06828066 -0.06794057 -0.06762908 -0.06734605 -0.06708853
 -0.06685663 -0.06665251 -0.06647206 -0.06630383 -0.06613375 -0.06591553 -0.06564444 -0.06527819 -0.0648509 -0.06438759
 -0.06392257 -0.063503 -0.06312282 -0.06279704 -0.06249452 -0.06220644 -0.06190611 -0.06157978 -0.06123538 -0.06086913
 -0.06051321 -0.06017251 -0.0598535 -0.05955805 -0.05924897 -0.05892433 -0.05854432 -0.05811245 -0.05763634 -0.05712388
 -0.05661394 -0.05610868 -0.05563409 -0.05518799 -0.05477871 -0.05440238 -0.05405969 -0.05374036 -0.05343676 -0.05313702
 -0.05283041 -0.05251469 -0.05218726 -0.05184501 -0.05148958 -0.05110297 -0.05068121 -0.05021596 -0.04970217 -0.04917498
 -0.04863582 -0.04813549 -0.04767542 -0.04727494 -0.04693133 -0.04663375 -0.04637701 -0.04613443 -0.04590026 -0.045643
 -0.04536432 -0.04504992 -0.04471112 -0.04435794 -0.0439969 -0.04364198 -0.04328119 -0.04291284 -0.04251992 -0.0420898
 -0.0416325 -0.04114367 -0.04065803 -0.04018137 -0.03973969 -0.03933861 -0.03897501 -0.03864988 -0.0383331 -0.03802302
 -0.03768681 -0.03732542 -0.03693115 -0.0365078 -0.03606856 -0.03561451 -0.0351551 -0.03469028 -0.03422186 -0.03375607
 -0.03330119 -0.03286429 -0.03245742 -0.03207596 -0.03172254 -0.03138473 -0.03105726 -0.03073358 -0.03040976 -0.03008783
 -0.02976777 -0.02945076 -0.02913773 -0.0288212 -0.02850098 -0.02816287 -0.02780629 -0.02742097 -0.02700813 -0.02657189
 -0.02611631 -0.0256613 -0.02521076 -0.02478746 -0.02438972 -0.02402705 -0.02369076 -0.02337318 -0.02306683 -0.02275968
 -0.02245521 -0.0221511 -0.02185538 -0.02157396 -0.02130012 -0.02103607 -0.02076015 -0.02046782 -0.02014771 -0.01979591
 -0.01942648 -0.01903976 -0.01865876 -0.01828421 -0.01792474 -0.01757883 -0.0172373 -0.01689899 -0.01655247 -0.01620073
 -0.01584544 -0.01549243 -0.01515489 -0.01483414 -0.01453991 -0.01426428 -0.01400479 -0.01374962 -0.01349019 -0.01321969
 -0.0129316 -0.01262886 -0.01230903 -0.01198567 -0.01166001 -0.01134945 -0.01105711 -0.01078683 -0.01053982 -0.01029963
 -0.01006537 -0.009817924 -0.00955822 -0.009285453 -0.009003103 -0.008727075 -0.008459202 -0.008214317 -0.007989372 -0.007786566
 -0.007599246 -0.007418986 -0.007241392 -0.007057779 -0.006870934 -0.006679456 -0.006488944 -0.006302678 -0.006119991 -0.005942234
 -0.005763681 -0.005583476 -0.005397023 -0.005203753 -0.004999465 -0.004783726 -0.004554818 -0.004312969 -0.004067518 -0.003819583
 -0.003584554 -0.003360487 -0.003147772 -0.002940783 -0.002721531 -0.002489535 -0.002231869 -0.00195921 -0.001679393 -0.001406342
 -0.001157604 -0.0009378509 -0.0007576359 -0.0006094794 -0.0004937447 -0.0003986696 -0.0003207773 -0.0002518747 -0.0001899627 -0.0001290103
 -6.843886E-05 -2.227604E-07 7.625873E-05 0.0001676539 0.0002741822 0.0003967952 0.0005351768 0.0006871139 0.0008519993 0.001026767
 0.001209144 0.001391372 0.001570155 0.001733735 0.001883841 0.002015486 0.002138467 0.002260018 0.002389444 0.002537722
 0.002700917 0.002883582 0.003065968 0.003244286 0.003396784 0.003516531 0.003601043 0.003646907 0.003676399 0.003690768
 0.003713126 0.003744076 0.003779593 0.003817861 0.003838346 0.003843028 0.003829155 0.003803574 0.003786951 0.003781441
 0.003804307 0.003847137 0.00390667 0.0039709 0.004025791 0.004066475 0.004082248 0.004083115 0.004066887 0.004059462
 0.004067283 0.004115211 0.004213211 0.004353765 0.004541229 0.004728105 0.004911595 0.005041622 0.005116353 0.005126392
 0.005075156 0.004992207 0.004880189 0.004768003 0.004654078 0.004546535 0.004447535 0.004362825 0.004301446 0.004281354
 0.004301632 0.004375014 0.004475604 0.004592832 0.004695002 0.004759957 0.004787104 0.004765591 0.004729956 0.004684728
 0.004662966 0.004672269 0.004710398 0.004779209 0.004844871 0.004905624 0.004926099 0.004906951 0.00483919 0.0047287
 0.004598921 0.004457133 0.004339315 0.00424659 0.004201123 0.00419447 0.004226132 0.004281207 0.00434606 0.004404944
 0.004442215 0.004450854 0.004420015 0.004362243 0.004275954 0.004188549 0.00410532 0.004047363 0.004019107 0.004025106
 0.004066173 0.004142843 0.004255161 0.004404893 0.004590224 0.00479577 0.005015342 0.005208924 0.00537246 0.005468509
 0.005505114 0.005477516 0.005404376 0.005310362 0.005211652 0.005136382 0.005085254 0.005071445 0.005077158 0.005100029
 0.005114086 0.005110169 0.005071896 0.004991946 0.004874965 0.004719033 0.004544097 0.004351367 0.004161034 0.003974104
 0.003802392 0.003646033 0.003510486 0.003395875 0.003305903 0.003240575 0.003203092 0.003190591 0.003201323 0.003225303
 0.003250172 0.003258928 0.003229777 0.003150518 0.003002188 0.002791941 0.002513734 0.002194656 0.001839994 0.001480779
 0.001124209 0.0007932358 0.000492028 0.0002347812 2.356675E-05 -0.0001409791 -0.0002590808 -0.0003544225 -0.0004295963 -0.0005221975
 -0.0006314102 -0.0007748902 -0.0009450357 -0.00112551 -0.001311964 -0.001482948 -0.00164795 -0.001810377 -0.001984156 -0.002188696
 -0.00242205 -0.002694221 -0.002982172 -0.00328007 -0.003558718 -0.003806645 -0.004007237 -0.004151774 -0.004249653 -0.004297812
 -0.004333546 -0.004358803 -0.004419593 -0.004518201 -0.004677144 -0.004894106 -0.005152314 -0.005445815 -0.005733781 -0.006013262
 -0.00625108 -0.006452358 -0.006610108 -0.006735644 -0.006842669 -0.006941237 -0.007047551 -0.007165896 -0.007304828 -0.007463837
 -0.007645928 -0.007845164 -0.008061942 -0.008283213 -0.008506698 -0.008719506 -0.008918568 -0.009103364 -0.009273075 -0.009437298
 -0.009596488 -0.00975659 -0.009917488 -0.01007917 -0.01024197 -0.01040775 -0.0105773 -0.01075489 -0.01093983 -0.01113301
 -0.01133264 -0.01153628 -0.01174277 -0.01194989 -0.01215744 -0.01236459 -0.01257143 -0.01277786 -0.01298366 -0.01318886
 -0.01339258 -0.01359448 -0.01379489 -0.01399349 -0.01419343 -0.01439501 -0.01459994 -0.01480827 -0.01501587 -0.01522265
 -0.01542583 -0.01562659 -0.01583034 -0.0160379 -0.01625628 -0.01648256 -0.01671444 -0.01694701 -0.01717094 -0.01738487
 -0.01758289 -0.01776802 -0.01794133 -0.01810335 -0.01825641 -0.01839354 -0.01851277 -0.01860859 -0.01867605 -0.01873101
 -0.01877195 -0.01883857 -0.01893417 -0.01909119 -0.01931135 -0.01958534 -0.01990938 -0.02023491 -0.02055767 -0.02082639
 -0.02104436 -0.02119166 -0.02128275 -0.02133743 -0.02137601 -0.0214406 -0.02154027 -0.0217072 -0.02192372 -0.02219179
 -0.02247726 -0.02276156 -0.02302695 -0.02325955 -0.02346853 -0.02365401 -0.02382365 -0.02398119 -0.0241099 -0.02420909
 -0.0242565 -0.02425095 -0.02419939 -0.02410516 -0.02401123 -0.02392239 -0.02388985 -0.02391201 -0.02401409 -0.02418357
 -0.02440617 -0.02466548 -0.02492678 -0.02518613 -0.0254221 -0.02564772 -0.02586709 -0.02608861 -0.02632315 -0.02655429
 -0.0267804 -0.02697897 -0.02714047 -0.02727242 -0.02737181 -0.02747088 -0.02757303 -0.02769201 -0.02782873 -0.02796359
 -0.02809536 -0.02820189 -0.02828499 -0.02834399 -0.02838181 -0.02840857 -0.02842523 -0.0284382 -0.02844943 -0.02846388
 -0.02848554 -0.02852057 -0.02857211 -0.02864374 -0.02873977 -0.0288623 -0.02901817 -0.02921213 -0.02944046 -0.02970735
 -0.02998475 -0.03027089 -0.03052817 -0.03075173 -0.03093076 -0.03106433 -0.03118256 -0.03128798 -0.03142321 -0.03158671
 -0.03179307 -0.03203369 -0.03228606 -0.03254192 -0.03276851 -0.03296709 -0.03312268 -0.03324607 -0.03334248 -0.03342505
 -0.03350566 -0.03359294 -0.03369625 -0.0338134 -0.03394851 -0.03408508 -0.0342209 -0.03433689 -0.03442757 -0.0344969
 -0.03454286 -0.03459734 -0.03466205 -0.03476559 -0.03490706 -0.03508006 -0.03528022 -0.03547608 -0.03566788 -0.03583755
 -0.03599294 -0.03614445 -0.03629767 -0.03646966 -0.03665421 -0.03685281 -0.03705281 -0.03724428 -0.03741963 -0.03757157
 -0.03769859 -0.03779894 -0.0378711 -0.03791433 -0.03792795 -0.0379106 -0.03787044 -0.03780711 -0.0377406 -0.03767196
 -0.03762924 -0.03761369 -0.03764967 -0.03773519 -0.0378728 -0.03805448 -0.03825337 -0.03846057 -0.03863948 -0.03878979
 -0.03889274 -0.03895638 -0.03898297 -0.03897938 -0.03895215 -0.0389047 -0.03883921 -0.03876257 -0.03867663 -0.03859131
 -0.03851005 -0.03843587 -0.03837072 -0.03830807 -0.03824785 -0.03817995 -0.03810382 -0.03800594 -0.03788541 -0.03772579
 -0.03752762 -0.03728374 -0.03699977 -0.03669115 -0.03636666 -0.03605627 -0.03576375 -0.03551135 -0.03529243 -0.03510951
 -0.03495055 -0.03480663 -0.0346691 -0.03453019 -0.0343876 -0.03423873 -0.0340835 -0.03392101 -0.03375375 -0.03358081
 -0.03341289 -0.03325011 -0.03311208 -0.03299993 -0.03293008 -0.03290243 -0.03291773 -0.03297416 -0.03306052 -0.03317504
 -0.03330646 -0.03345145 -0.03359884 -0.03373953 -0.03385371 -0.03393271 -0.03395406 -0.03392695 -0.03384522 -0.03373935
 -0.03362427 -0.03352369 -0.03345567 -0.03340826 -0.03338574 -0.03335305 -0.03330418 -0.03321929 -0.0330939 -0.03293954
 -0.03275643 -0.03257134 -0.03238586 -0.03222767 -0.03209835 -0.0320226 -0.03199993 -0.03204376 -0.03214846 -0.03230816
 -0.03251416 -0.03274848 -0.03300599 -0.03327242 -0.03354894 -0.03383013 -0.03412402 -0.03443158 -0.03476714 -0.03513552
 -0.03555078 -0.03601948 -0.03653969 -0.03711528 -0.03771937 -0.03835126 -0.03896909 -0.03957025 -0.04012262 -0.04062599
 -0.04107537 -0.04147325 -0.04183433 -0.04215975 -0.04246198 -0.04273999 -0.042996 -0.04323195 -0.04345079 -0.04365815
 -0.04386315 -0.04406637 -0.04427401 -0.04447629 -0.04467008 -0.04484483 -0.04499447 -0.04511788 -0.04521281 -0.04528439
 -0.04533333 -0.04536277 -0.0453735 -0.04536304 -0.0453313 -0.04527465 -0.04519363 -0.04509633 -0.04498655 -0.04489373
 -0.04482256 -0.04480978 -0.04485221 -0.04496404 -0.04513102 -0.04533612 -0.04556314 -0.04578463 -0.04599269 -0.04617029
 -0.04631889 -0.04643356 -0.04652189 -0.04658467 -0.04663271 -0.04666882 -0.04670148 -0.04673291 -0.04676548 -0.04679944
 -0.04683789 -0.04688077 -0.04694448 -0.04703068 -0.04717024 -0.0473646 -0.04764144 -0.04799536 -0.04842395 -0.04891132
 -0.04941661 -0.04992349 -0.05038012 -0.0507888 -0.05112599 -0.05141585 -0.05166995 -0.05191212 -0.05216304 -0.05242417
 -0.05270368 -0.05298616 -0.05326897 -0.05353986 -0.05379555 -0.0540338 -0.05425402 -0.05445575 -0.054639 -0.05480076
 -0.054941 -0.05505862 -0.05515471 -0.05523613 -0.05530485 -0.05537298 -0.05544073 -0.05551585 -0.05559514 -0.05567636
 -0.05575667 -0.05582988 -0.05589955 -0.05596494 -0.05603501 -0.05611578 -0.0562102 -0.05632401 -0.05644437 -0.05657111
 -0.0566821 -0.05677275 -0.05683155 -0.05685495 -0.05685613 -0.05683534 -0.05682021 -0.05681163 -0.05682531 -0.05685922
 -0.05690549 -0.05696202 -0.05701401 -0.05706492 -0.05711541 -0.05717198 -0.05724894 -0.0573451 -0.05746838 -0.05760495
 -0.05774697 -0.0578783 -0.05798551 -0.0580644 -0.05810769 -0.05812548 -0.05811759 -0.05810101 -0.05807813 -0.05806552
 -0.05806562 -0.05808641 -0.05812889 -0.05818704 -0.05826024 -0.05833501 -0.05841132 -0.05848234 -0.05854942 -0.05861532
 -0.05867972 -0.0587444 -0.05880544 -0.05885637 -0.05889397 -0.05890992 -0.05890717 -0.05888378 -0.05884849 -0.05880562
 -0.05876303 -0.05872534 -0.05869554 -0.05867517 -0.05866626 -0.05866905 -0.05868763 -0.05872292 -0.05877356 -0.05883987
 -0.05890793 -0.0589769 -0.05902961 -0.05906676 -0.05908488 -0.05908737 -0.05908699 -0.05908633 -0.05910015 -0.0591264
 -0.05916968 -0.05922302 -0.05928012 -0.05933282 -0.05937077 -0.05939178 -0.05938921 -0.05937178 -0.05933985 -0.05930799
 -0.0592803 -0.05926724 -0.05927189 -0.059297 -0.05934384 -0.05940733 -0.0594875 -0.05957062 -0.05965583 -0.05972587
 -0.05978085 -0.05981278 -0.05982463 -0.05982468 -0.0598164 -0.05981448 -0.05981895 -0.05983769 -0.0598668 -0.05990458
 -0.05994682 -0.05998831 -0.06002896 -0.06006629 -0.06010435 -0.06014456 -0.06018882 -0.06023922 -0.06029003 -0.06034098
 -0.06038398 -0.06041753 -0.06044121 -0.06045465 -0.06046584 -0.06047509 -0.06048813 -0.06050397 -0.06051744 -0.06052691
 -0.06052141 -0.06050253 -0.06046728 -0.06042234 -0.06037898 -0.06034271 -0.06032768 -0.06033028 -0.06035415 -0.06038852
 -0.06042701 -0.06046401 -0.06049403 -0.06052109 -0.06054502 -0.0605711 -0.06060076 -0.06063469 -0.0606732 -0.06071589
 -0.06076279 -0.06081292 -0.06086607 -0.06091688 -0.06096479 -0.06100247 -0.0610304 -0.06104645 -0.06105223 -0.0610514
 -0.06104482 -0.06103587 -0.06102481 -0.06101289 -0.06100155 -0.060992 -0.06098698 -0.06098891 -0.06099844 -0.0610173
 -0.06104196 -0.0610723 -0.06110261 -0.06113159 -0.06115631 -0.06117586 -0.06119286 -0.06120732 -0.06122546 -0.06124749
 -0.06127687 -0.06131285 -0.06135103 -0.06138983 -0.06141936 -0.06143928 -0.06144251 -0.06143205 -0.06140967 -0.06138032
 -0.06135161 -0.06132663 -0.06131177 -0.06130578 -0.06131036 -0.06132138 -0.06133775 -0.06135504 -0.06137187 -0.0613847
 -0.06139252 -0.06139383 -0.06138809 -0.06137704 -0.06136065 -0.06134373 -0.06132654 -0.0613138 -0.06130542 -0.06130273
 -0.06130511 -0.06131042 -0.0613181 -0.06132527 -0.06133219 -0.0613378 -0.06134317 -0.06134932 -0.06135714 -0.06136841
 -0.06138169 -0.06139744 -0.06141127 -0.06142118 -0.06142461 -0.06141921 -0.06140959 -0.0613958 -0.06138521 -0.06137926
 -0.06137806 -0.06138198 -0.06138392 -0.06138361 -0.06137767 -0.06136674 -0.06135571 -0.06134491 -0.06133897 -0.06133673
 -0.06133693 -0.06133876 -0.06133959 -0.06134015 -0.06134055 -0.06134095 -0.06134205 -0.06134222 -0.06134051 -0.06133589
 -0.06132708 -0.06131601 -0.06130242 -0.06129088 -0.06128225 -0.06127997 -0.061285 -0.06129578 -0.06131251 -0.06132799
 -0.06134188 -0.06134766 -0.0613458 -0.06133771 -0.06132469 -0.06131415 -0.06130608 -0.0613049 -0.06130837 -0.06131418
 -0.06131977 -0.06132045 -0.06131482 -0.06129953 -0.06127492 -0.06123941 -0.0611966 -0.06114654 -0.06109695 -0.06104986
 -0.06101254 -0.06098749 -0.06097508 -0.06097642 -0.06098375 -0.06099672 -0.06100573 -0.06101038 -0.06100611 -0.0609934
 -0.06097489 -0.06095142 -0.06092871 -0.0609065 -0.06088729 -0.06086969 -0.0608518 -0.0608333 -0.06081213 -0.0607908
 -0.06077076 -0.060755 -0.0607463 -0.06074541 -0.06075374 -0.06076978 -0.06079399 -0.06082197 -0.06085372 -0.06088081
 -0.06090234 -0.06091017 -0.06090327 -0.06088265 -0.06084855 -0.06081256 -0.06077544 -0.0607494 -0.06073369 -0.06073184
 -0.06074088 -0.06075418 -0.06076806 -0.06077127 -0.0607628 -0.06073491 -0.06069238 -0.06063586 -0.06057409 -0.06051316
 -0.06045939 -0.06041793 -0.06038927 -0.0603753 -0.06037203 -0.06037942 -0.06039128 -0.06040708 -0.06041947 -0.06042775
 -0.06042819 -0.06042069 -0.06040746 -0.06038869 -0.06036758 -0.06034355 -0.06031532 -0.06028232 -0.06024132 -0.06019401
 -0.06014163 -0.06008791 -0.0600391 -0.05999712 -0.05996739 -0.0599468 -0.05993602 -0.05992787 -0.05991917 -0.05990451
 -0.05988044 -0.05984899 -0.05980896 -0.05976913 -0.05973047 -0.05970043 -0.05968003 -0.05966763 -0.05966307 -0.05965799
 -0.05965227 -0.05964139 -0.05962657 -0.05961194 -0.05959806 -0.05958967 -0.05958473 -0.05958153 -0.05957733 -0.05956683
 -0.05954981 -0.05952371 -0.05949019 -0.05944942 -0.05940368 -0.05935335 -0.0593029 -0.05925328 -0.0592104 -0.05917601
 -0.05915229 -0.0591405 -0.05913519 -0.05913632 -0.05913385 -0.05912726 -0.05910933 -0.05908041 -0.05904147 -0.05899387
 -0.05894528 -0.05889633 -0.05885345 -0.05881561 -0.05878347 -0.0587566 -0.05873407 -0.0587173 -0.05870783 -0.05870548
 -0.05871182 -0.05872212 -0.05873511 -0.05874463 -0.05874816 -0.05874268 -0.0587265 -0.05870179 -0.05866806 -0.05863247
 -0.05859548 -0.05856502 -0.05854144 -0.05852618 -0.05851885 -0.05851522 -0.05851572 -0.05851991 -0.05852984 -0.05855194
 -0.05858784 -0.05864421 -0.05872176 -0.05882388 -0.05895241 -0.0591104 -0.05929939 -0.05952282 -0.05977643 -0.06005992
 -0.06036589 -0.06069013 -0.06103547 -0.06139981 -0.06179905 -0.06223607 -0.06271602 -0.06324153 -0.0637819 -0.06433526
 -0.06484249 -0.06530029 -0.06565361 -0.06590079 -0.06600462 -0.06596451 -0.06575477 -0.06538479 -0.06484999 -0.06419217
 -0.06346478 -0.06272443 -0.06205656 -0.06147938 -0.06103796 -0.06071559 -0.06051586 -0.06041871 -0.0604204 -0.06049664
 -0.06064728 -0.06082095 -0.06101337 -0.06115899 -0.06124957 -0.06127557 -0.06123658 -0.0611758 -0.06109464 -0.06102234
 -0.0609569 -0.06090243 -0.06085651 -0.06081463 -0.06077278 -0.06072021 -0.06065333 -0.06056075 -0.06044407 -0.06030004
 -0.06013323 -0.05994601 -0.05974182 -0.05952189 -0.05929238 -0.05905409 -0.05881838 -0.05858745 -0.05837232 -0.05817541
 -0.05799962 -0.05784601 -0.05770602 -0.0575792 -0.05745054 -0.05731994 -0.05718071 -0.05703506 -0.05689192 -0.05675311
 -0.05663089 -0.05652247 -0.05642831 -0.05634324 -0.05625846 -0.056173 -0.05608078 -0.05598745 -0.05589486 -0.05580922
 -0.0557353 -0.05567261 -0.05562316 -0.05558012 -0.05554251 -0.0555037 -0.05546216 -0.05541684 -0.05536727 -0.05531752
 -0.05526779 -0.05522296 -0.05518308 -0.05515045 -0.05512433 -0.05510188 -0.05508165 -0.05505668 -0.05502693 -0.05498763
 -0.05494247 -0.05489475 -0.05484897 -0.05481262 -0.0547845 -0.05476757 -0.05475489 -0.05474379 -0.05472865 -0.05470625
 -0.05467651 -0.05463836 -0.05459529 -0.05454739 -0.05449973 -0.05445271 -0.05441147 -0.05437631 -0.05434717 -0.05432359
 -0.05429941 -0.05427427 -0.05424272 -0.05420533 -0.05416141 -0.05411117 -0.05405483 -0.05399229 -0.05392229 -0.0538481
 -0.05377122 -0.05369936 -0.05363919 -0.05359488 -0.05357252 -0.05356535 -0.05357368 -0.05358503 -0.05359611 -0.05360034
 -0.0535956 -0.05358374 -0.05356473 -0.05354085 -0.05351222 -0.05347812 -0.05343858 -0.05339349 -0.05334342 -0.05329166
 -0.05323864 -0.05318774 -0.05313893 -0.05309362 -0.05305208 -0.0530152 -0.05298353 -0.05295825 -0.05293897 -0.05292629
 -0.05291798 -0.05291348 -0.05290917 -0.05290356 -0.05289448 -0.05288056 -0.05286418 -0.0528452 -0.05282869 -0.05281535
 -0.05280572 -0.05279989 -0.05279136 -0.05277997 -0.05276118 -0.05273618 -0.05270986 -0.05268357 -0.05266584 -0.05265466
 -0.0526505 -0.05264826 -0.05263935 -0.05262125 -0.05258593 -0.05253835 -0.05247834 -0.05241534 -0.05235473 -0.05230138
 -0.05225949 -0.05222557 -0.05219993 -0.05217691 -0.05215525 -0.05213435 -0.05211385 -0.05209686 -0.05208355 -0.05207351
 -0.05206634 -0.05205616 -0.05204242 -0.0520184 -0.05198478 -0.05193981 -0.05188609 -0.0518287 -0.05177036 -0.05171833
 -0.05167262 -0.05163679 -0.0516077 -0.05158399 -0.05156312 -0.05154272 -0.05152381 -0.05150602 -0.05149155 -0.05148124
 -0.05147453 -0.0514718 -0.05146958 -0.05146765 -0.05146199 -0.05145233 -0.05143541 -0.05141126 -0.05137938 -0.05134051
 -0.05129888 -0.05125563 -0.05121774 -0.0511848 -0.05116007 -0.0511407 -0.05112353 -0.05110573 -0.05108191 -0.05105307
 -0.05101738 -0.05097916 -0.05094038 -0.050904 -0.05087218 -0.05084362 -0.05081867 -0.05079411 -0.05076927 -0.05074329
 -0.05071588 -0.0506887 -0.05066182 -0.05063621 -0.05061179 -0.05058747 -0.05056317 -0.05053774 -0.05051131 -0.05048387
 -0.05045529 -0.05042508 -0.05039339 -0.05035944 -0.05032571 -0.05029443 -0.05026883 -0.05025344 -0.05024619 -0.0502488
 -0.05025291 -0.05025574 -0.0502511 -0.05023585 -0.05021225 -0.05017965 -0.05014495 -0.0501087 -0.05007707 -0.05005043
 -0.05003273 -0.05002379 -0.05002217 -0.05002666 -0.05002863 -0.05002729 -0.05001405 -0.04999108 -0.04995906 -0.04992158
 -0.04988576 -0.04985218 -0.04982537 -0.04980171 -0.04978017 -0.04975614 -0.04972642 -0.04968926 -0.04964228 -0.04958947
 -0.04953051 -0.04947379 -0.04942054 -0.04937764 -0.04934621 -0.04932708 -0.04932043 -0.04932225 -0.04933216 -0.04934351
 -0.04935561 -0.04936049 -0.04935796 -0.04934232 -0.04931531 -0.04927783 -0.04923315 -0.04918729 -0.04914257 -0.04910477
 -0.04907314 -0.0490497 -0.04903082 -0.04901531 -0.04899918 -0.04898025 -0.04895775 -0.04893048 -0.04890167 -0.04887161
 -0.04884343 -0.04881772 -0.04879373 -0.04877149 -0.04874847 -0.0487247 -0.04870002 -0.04867468 -0.04865043 -0.04862717
 -0.04860555 -0.04858501 -0.04856415 -0.04854312 -0.04852127 -0.04849963 -0.04847959 -0.0484607 -0.04844404 -0.04842561
 -0.04840359 -0.04837444 -0.04833522 -0.04828892 -0.04823484 -0.04818102 -0.04812894 -0.04808291 -0.04804393 -0.04800962
 -0.04797991 -0.04795155 -0.04792451 -0.04789892 -0.04787465 -0.04785118 -0.04782758 -0.04779968 -0.04776723 -0.04772662
 -0.04768015 -0.04762967 -0.04757878 -0.04753328 -0.04749367 -0.04746325 -0.04743854 -0.04741853 -0.04739987 -0.04738062
 -0.04736026 -0.04733833 -0.04731463 -0.04728914 -0.04726093 -0.04722972 -0.04719681 -0.04716221 -0.04712932 -0.04709816
 -0.04706914 -0.04704179 -0.04701284 -0.04698225 -0.04694792 -0.04691081 -0.04687231 -0.04683363 -0.04679777 -0.04676484
 -0.0467366 -0.04671137 -0.04668873 -0.04666582 -0.04664088 -0.04661196 -0.04657758 -0.04653805 -0.04649306 -0.04644363
 -0.04638976 -0.0463331 -0.04627361 -0.04621506 -0.04615768 -0.04610573 -0.0460592 -0.04601807 -0.04598176 -0.0459461
 -0.04591091 -0.04587312 -0.04583356 -0.0457929 -0.04575195 -0.04571282 -0.04567493 -0.04563895 -0.04560249 -0.04556372
 -0.04552083 -0.04547123 -0.04541754 -0.04535944 -0.0453026 -0.04524891 -0.04520012 -0.04515748 -0.04511696 -0.0450783
 -0.04503749 -0.04499416 -0.04494847 -0.04490061 -0.04485501 -0.04481205 -0.04477728 -0.04475 -0.0447313 -0.04471804
 -0.04470257 -0.04468167 -0.04464449 -0.04459316 -0.0445242 -0.04444573 -0.04436346 -0.0442844 -0.04421543 -0.04415656
 -0.04411023 -0.04407145 -0.04403966 -0.04400903 -0.04397846 -0.04394381 -0.04390439 -0.04385879 -0.04380681 -0.04374994
 -0.04368833 -0.04362464 -0.04355916 -0.04349531 -0.04343334 -0.04337622 -0.04332382 -0.04327731 -0.04323639 -0.04320116
 -0.04317112 -0.04314645 -0.0431244 -0.04310355 -0.04307873 -0.04304604 -0.04300325 -0.04294715 -0.04288278 -0.04281023
 -0.04273738 -0.04266586 -0.04259986 -0.04254033 -0.04248658 -0.04243872 -0.04239322 -0.04234998 -0.04230736 -0.04226579
 -0.04222836 -0.04219491 -0.04216764 -0.04214362 -0.04211651 -0.0420825 -0.04202965 -0.04196072 -0.04187223 -0.04177425
 -0.04167516 -0.04158083 -0.04149906 -0.04142607 -0.04136282 -0.04130229 -0.04124229 -0.04117973 -0.04111303 -0.04104505
 -0.04097565 -0.04091054 -0.04085012 -0.04079855 -0.04075586 -0.04072179 -0.0406955 -0.04067076 -0.04064554 -0.0406076
 -0.04055586 -0.04047925 -0.04038221 -0.04026657 -0.04014042 -0.04001534 -0.0398967 -0.03979395 -0.03970806 -0.03964345
 -0.03959553 -0.03956551 -0.03954044 -0.03951806 -0.03948259 -0.03942968 -0.03935563 -0.03925817 -0.03915034 -0.03903278
 -0.03891932 -0.03881032 -0.03870941 -0.03861614 -0.03852883 -0.03844701 -0.03836808 -0.03829115 -0.03821242 -0.03813136
 -0.03804471 -0.03795364 -0.03785794 -0.03776007 -0.03766179 -0.03756626 -0.03747582 -0.03739296 -0.03732009 -0.03725531
 -0.03719949 -0.03714585 -0.03709315 -0.03703693 -0.0369759 -0.03691407 -0.03685159 -0.03679363 -0.03674001 -0.03668381
 -0.03662318 -0.03653882 -0.03643068 -0.03628558 -0.03611048 -0.03591785 -0.03571573 -0.03552814 -0.03535281 -0.03519853
 -0.03505559 -0.03491727 -0.03477813 -0.03463025 -0.03447997 -0.03432684 -0.03418225 -0.03405053 -0.0339345 -0.03383737
 -0.03374713 -0.03366404 -0.03356397 -0.03344496 -0.03329389 -0.03311112 -0.03291687 -0.03271314 -0.0325273 -0.03235658
 -0.0322037 -0.03206252 -0.03191625 -0.03176149 -0.03158178 -0.03138131 -0.03115686 -0.03091937 -0.03067763 -0.03044125
 -0.03022149 -0.03001482 -0.02982631 -0.02963497 -0.02943633 -0.02921038 -0.02894912 -0.02866214 -0.02834814 -0.02803271
 -0.027718 -0.02741307 -0.0271181 -0.02682988 -0.02654832 -0.02627266 -0.02600142 -0.02572948 -0.02545107 -0.02514594
 -0.02481107 -0.02442542 -0.02400297 -0.02355177 -0.02309174 -0.02264896 -0.02222297 -0.02182357 -0.02143777 -0.02106107
 -0.02068739 -0.02031349 -0.01993914 -0.01956636 -0.0191796 -0.0187801 -0.0183248 -0.01780993 -0.01721444 -0.01653941
 -0.01584807 -0.01514398 -0.01449011 -0.01387689 -0.01329086 -0.01272311 -0.0121375 -0.01153703 -0.01091029 -0.01026355
 -0.009605615 -0.008927239 -0.008229538 -0.007481919 -0.00666362 -0.005755802 -0.004731074 -0.003637444 -0.002474884 -0.001329421
 -0.000222584 0.0008129298 0.001766612 0.002657879 0.003486673 0.00428515 0.005055474 0.005844261 0.006655999 0.007557704
 0.008542052 0.009621312 0.01076077 0.01185284 0.01289155 0.0138007 0.01462113 0.01538108 0.01610971 0.01685134
 0.01760484 0.01838328 0.01917762 0.01998465 0.02080584 0.02164424 0.02248549 0.02332992 0.02414774 0.02493313
 0.02568478 0.02640162 0.02709842 0.02777516 0.02841415 0.0290127 0.02953579 0.02998539 0.03035198 0.03064113
 0.03086425 0.03102686 0.03114411 0.03122349 0.0312825 0.03132444 0.03135948 0.03138625 0.03140565 0.03141979
 0.03143029 0.03143675 0.03144113 0.03143412 0.03141442 0.03137262 0.03130611 0.0312194 0.03111169 0.03100804
 0.03090968 0.03083907 0.03079435 0.03076605 0.03075054 0.03072409 0.03068683 0.03062443 0.03054429 0.0304525
 0.03036191 0.03029539 0.03025677 0.03026023 0.03029942 0.03037112 0.03048028 0.03062569 0.03082284 0.03107913
 0.0313921 0.03176475 0.03217851 0.03263038 0.03311519 0.03363199 0.03418492 0.03477403 0.03539499 0.03604729
 0.03672361 0.03742471 0.0381509 0.03890295 0.03968358 0.04049271 0.04133124 0.04219938 0.04309899 0.04402674
 0.04498157 0.04595554 0.04694223 0.04793837 0.04893921 0.04995028 0.05097242 0.05201043 0.053067 0.054136
 0.05521884 0.05629331 0.05735821 0.05838645 0.05937696 0.06032623 0.06123649 0.06213257 0.06301191 0.06387843
 0.06471895 0.06549001 0.0661893 0.06678782 0.06729631 0.06772208 0.06806417 0.06832545 0.06850012 0.06858367
 0.06857666 0.06848644 0.06828158 0.06796659 0.06745183 0.06671004 0.06572494 0.06446756 0.06315374 0.06180121
 0.06053763 0.05936733 0.05819161 0.05700602 0.05572834 0.05436745 0.05292928 0.05142136 0.04987991 0.04828617
 0.04662785 0.04485833 0.0428811 0.04072556 0.03833152 0.03590936 0.03360697 0.03152096 0.02978324 0.0282408
 0.02686912 0.02554434 0.02422145 0.02290657 0.02159101 0.02032646 0.01911874 0.0179669 0.01687061 0.01578465
 0.01470871 0.01362105 0.01252966 0.01146572 0.0104373 0.009491437 0.008621034 0.00783697 0.007120707 0.006448895
 0.005807356 0.005172692 0.004536719 0.003888989 0.003217187 0.002511373 0.001768744 0.0009729065 0.0001881478 -0.0005792068
 -0.001245612 -0.001788274 -0.002240577 -0.002600847 -0.002947466 -0.003284113 -0.003640831 -0.004014832 -0.004383456 -0.004744035
 -0.005067992 -0.005361251 -0.005629885 -0.00587754 -0.006119936 -0.006346047 -0.006547712 -0.006709407 -0.006807925 -0.006844679
 -0.00681034 -0.006719964 -0.006578093 -0.006398758 -0.006187622 -0.005953949 -0.005703022 -0.005427677 -0.005131722 -0.004772693
 -0.004348075 -0.003806269 -0.003145069 -0.002397625 -0.001572035 -0.0007773878 -1.3858E-05 0.0006606037 0.001255693 0.001775647
 0.002223945 0.002609776 0.002934733 0.003199595 0.003421235 0.003610194 0.003804263 0.004035892 0.004326131 0.004707919
 0.005134232 0.005597899 0.006050311 0.006472054 0.006874301 0.007254024 0.007642626 0.00804344 0.008466684 0.008912905
 0.009365145 0.009822762 0.01027091 0.0107136 0.01116364 0.01162947 0.01214779 0.01272117 0.01337957 0.01410601
 0.0148885 0.01570744 0.01653035 0.01736549 0.01820618 0.01907169 0.01997455 0.02091143 0.02188723 0.02288079
 0.02388578 0.02489954 0.02591782 0.02696721 0.02805049 0.02917911 0.03035356 0.0315157 0.03265968 0.03369481
 0.03462144 0.03539608 0.03602261 0.03649466 0.03680789 0.03694994 0.03691395 0.03668042 0.03625424 0.03562936
 0.03482431 0.033849 0.03272474 0.03146444 0.03008363 0.0285884 0.02699607 0.02530537 0.02356349 0.02177153
 0.02001259 0.0182945 0.01667671 0.01516275 0.01374884 0.01243303 0.0111877 0.010014 0.008904742 0.007863436
 0.006900849 0.006014215 0.005205045 0.004462931 0.003772778 0.00312401 0.002498485 0.001891989 0.001294063 0.0007090177
 0.0001354388 -0.0004183448 -0.000948681 -0.001454078 -0.001931675 -0.002392162 -0.002836159 -0.003277496 -0.003718189 -0.004158805
 -0.004599486 -0.005018076 -0.005412732 -0.005752572 -0.006038441 -0.006258413 -0.006417325 -0.006526048 -0.006588332 -0.006618448
 -0.00661762 -0.006593973 -0.006547799 -0.006482263 -0.006397774 -0.006293957 -0.00617661 -0.006045629 -0.005917071 -0.005795204
 -0.005698034 -0.005631287 -0.00560278 -0.005615148 -0.005667248 -0.005759357 -0.005888219 -0.006053672 -0.006250525 -0.006478056
 -0.006726237 -0.006993054 -0.007262463 -0.007530696 -0.007776159 -0.007995388 -0.008167921 -0.00829614 -0.008372948 -0.008407135
 -0.008405655 -0.00837658 -0.008329088 -0.008265847 -0.008190555 -0.008104184 -0.008006841 -0.007903301 -0.007793671 -0.007687344
 -0.007585254 -0.007498507 -0.007428375 -0.007381242 -0.007357573 -0.007354589 -0.007371731 -0.007400508 -0.007440401 -0.007484159
 -0.007531491 -0.007577525 -0.007622165 -0.007662087 -0.007699071 -0.00773361 -0.007770068 -0.007813375 -0.007867594 -0.007938242
 -0.008025198 -0.008130979 -0.008250371 -0.008382884 -0.00852046 -0.008661184 -0.00879865 -0.008931346 -0.009057075 -0.009175443
 -0.009285909 -0.009388443 -0.00947986 -0.009559826 -0.00962284 -0.009668711 -0.009693211 -0.009696947 -0.009679343 -0.009642292
 -0.009589651 -0.009524027 -0.009451374 -0.009373735 -0.009296055 -0.009218483 -0.009143145 -0.009068248 -0.008994208 -0.008916299
 -0.008833475 -0.008739459 -0.008631744 -0.008510093 -0.008372512 -0.008231834 -0.008088561 -0.007960732 -0.007849505 -0.007761636
 -0.007696473 -0.007644838 -0.007605321 -0.007563798 -0.0075209 -0.007470785 -0.007416498 -0.007362672 -0.007311662 -0.00727
 -0.007237602 -0.007216887 -0.007207267 -0.007208766 -0.007221704 -0.007246385 -0.007282544 -0.00733009 -0.007388984 -0.007458631
 -0.007542282 -0.007640382 -0.007755752 -0.007889307 -0.008035417 -0.008193891 -0.008351794 -0.00850861 -0.008654614 -0.00879021
 -0.008913161 -0.009024267 -0.009125265 -0.009216794 -0.009301049 -0.009378939 -0.009452827 -0.00952379 -0.00959387 -0.009664188
 -0.009736396 -0.009810878 -0.009888852 -0.009968212 -0.01004885 -0.01012713 -0.01020174 -0.01027206 -0.0103374 -0.01040075
 -0.01046236 -0.01052485 -0.01058846 -0.01065109 -0.01071238 -0.01076621 -0.01081223 -0.01084484 -0.01086455 -0.01087034
 -0.01086301 -0.01084462 -0.01081445 -0.01077227 -0.01071699 -0.0106462 -0.01056218 -0.01046517 -0.01036002 -0.01025036
 -0.01013641 -0.01002064 -0.009895662 -0.009760854 -0.009605953 -0.009428971 -0.009223857 -0.008989194 -0.008728165 -0.008440719
 -0.008139825 -0.007826319 -0.007515435 -0.007207281 -0.006910546 -0.006623655 -0.006346032 -0.006074141 -0.005799313 -0.005517425
 -0.005215862 -0.004896278 -0.004552601 -0.004196875 -0.003835973 -0.003483306 -0.003150293 -0.002838201 -0.002551575 -0.002282649
 -0.002029924 -0.001788833 -0.001558253 -0.001336523 -0.001123642 -0.0009151991 -0.0007109789 -0.0005044451 -0.000295168 -7.577599E-05
 0.0001544442 0.0004045338 0.00067412 0.0009676202 0.001281937 0.001611401 0.001953107 0.002298721 0.002648327 0.002998755
 0.003350733 0.003704015 0.004058753 0.004414374 0.004773261 0.005136033 0.005505381 0.005882952 0.006266164 0.006655667
 0.00704297 0.007427407 0.007800317 0.008161017 0.008507241 0.008839392 0.009165788 0.009486966 0.009812159 0.01013863
 0.01046066 0.01077425 0.01106376 0.01133227 0.01157598 0.01180454 0.01202881 0.01225506 0.01249304 0.01274359
 0.01301018 0.01329109 0.01358793 0.01389242 0.01420336 0.01451042 0.01481015 0.01510597 0.01539703 0.01569758
 0.01600871 0.01633271 0.01666895 0.01700357 0.01733589 0.01765362 0.01795873 0.01825202 0.01853732 0.0188257
 0.01911849 0.01942624 0.01974062 0.02005857 0.02036289 0.02063705 0.02087086 0.02105049 0.02118312 0.02126699
 0.02131598 0.02133341 0.02132975 0.02130678 0.02127521 0.02123614 0.02120017 0.02116812 0.02114465 0.02112997
 0.02112696 0.02113596 0.02116171 0.02120332 0.0212602 0.02132977 0.02140477 0.02148347 0.0215599 0.02163173
 0.02169484 0.021744 0.02177281 0.02177925 0.02175913 0.02171638 0.02165201 0.02156772 0.02146446 0.0213413
 0.02119707 0.02103914 0.02086772 0.02069417 0.02051945 0.02034478 0.02016993 0.01998825 0.01979998 0.01960345
 0.0194004 0.01919688 0.01899513 0.01880456 0.01862571 0.01846609 0.01831939 0.01818274 0.01804374 0.01788985
 0.01771428 0.0175076 0.0172734 0.01701175 0.0167235 0.01641077 0.01606407 0.01568206 0.01525671 0.01478608
 0.01427416 0.01372074 0.01314132 0.01253692 0.01192766 0.011314 0.01070935 0.01011217 0.009522317 0.008939574
 0.008361517 0.007792876 0.007241259 0.006711138 0.006213459 0.005744671 0.005306932 0.004891212 0.00449238 0.004104521
 0.00372282 0.003348874 0.002981109 0.002627512 0.002289717 0.001971524 0.001674945 0.0013871 0.00110748 0.0008166603
 0.0005143986 0.0002006673 -0.0001218886 -0.0004316273 -0.00072717 -0.0009900806 -0.001223075 -0.001424033 -0.001596645 -0.001747034
 -0.001877451 -0.001993862 -0.002095814 -0.002185593 -0.002260138 -0.002316127 -0.002358634 -0.00238521 -0.002416403 -0.002457345
 -0.002524885 -0.002626193 -0.002750019 -0.00289743 -0.003041098 -0.003179018 -0.003295689 -0.003390733 -0.003462598 -0.003511361
 -0.003536291 -0.003537834 -0.003516194 -0.003474503 -0.003420892 -0.003359991 -0.003304634 -0.003257396 -0.003228269 -0.003214196
 -0.003217792 -0.003229359 -0.00324448 -0.003252529 -0.003247138 -0.003224899 -0.003182878 -0.003123644 -0.003047208 -0.002956111
 -0.0028506 -0.002732764 -0.002602596 -0.002465854 -0.00232316 -0.002188227 -0.002062887 -0.001968889 -0.001906854 -0.001893783
 -0.001923624 -0.001989912 -0.002081807 -0.002173907 -0.002262236 -0.002328966 -0.002379488 -0.002413666 -0.002433641 -0.002442677
 -0.002435061 -0.00240804 -0.002361432 -0.002292738 -0.002212303 -0.002121718 -0.002029162 -0.001936565 -0.00184137 -0.001743621
 -0.00163804 -0.001524578 -0.001404863 -0.00127956 -0.001155536 -0.001032505 -0.0009132826 -0.0007959978 -0.0006758892 -0.0005532512
 -0.0004250297 -0.0002957927 -0.0001710511 -5.291754E-05 5.202373E-05 0.0001515868 0.0002479055 0.000351033 0.0004675115 0.0005972169
 0.0007427009 0.0008958967 0.001055539 0.001216039 0.001376414 0.001534779 0.001691047 0.001841076 0.001984546 0.002114068
 0.002229481 0.002325639 0.002403789 0.002466375 0.002515963 0.002561628 0.002604463 0.002651606 0.002701329 0.002753947
 0.00280842 0.002862809 0.002919859 0.002980708 0.003047881 0.003123557 0.003206016 0.003295387 0.00338888 0.003485502
 0.00358639 0.003691552 0.00380257 0.003919833 0.004037894 0.004156404 0.004266461 0.004368838 0.004465479 0.004560071
 0.004671588 0.004802028 0.004969935 0.005168809 0.005396573 0.005640897 0.005883476 0.006116029 0.006322719 0.006503722
 0.006653432 0.006777789 0.006877009 0.006960649 0.007030963 0.007098122 0.007164661 0.007236457 0.007314889 0.007400296
 0.007492892 0.007590758 0.007693761 0.007798751 0.007905368 0.00800886 0.008109217 0.008203172 0.008292387 0.008379135
 0.008467389 0.008566082 0.00867875 0.008816442 0.008974198 0.009154347 0.009341586 0.009526388 0.00969754 0.009844981
 0.009973358 0.01008091 0.01017859 0.01026797 0.01035926 0.01045305 0.01056548 0.01069798 0.0108617 0.01105651
 0.01126161 0.01147349 0.0116486 0.01178767 0.0118683 0.01189998 0.01189806 0.01187547 0.01186572 0.01187816
 0.01194302 0.01205634 0.01223117 0.01244182 0.01267801 0.01290826 0.01311217 0.01328321 0.0134115 0.01351496
 0.01359596 0.01366761 0.01373297 0.01379037 0.01384 0.0138776 0.01390303 0.01391697 0.01392016 0.01391947
 0.01391697 0.01392661 0.01394998 0.01400031 0.01407574 0.01417945 0.01430723 0.01445546 0.01461749 0.01478742
 0.01495401 0.01510851 0.01524105 0.01534331 0.01541626 0.01545655 0.01547603 0.01547514 0.01547214 0.01546875
 0.01548536 0.01552407 0.01559327 0.01569309 0.01581044 0.01594411 0.01607644 0.01620838 0.01633574 0.01646001
 0.01658416 0.01670812 0.01683272 0.01695871 0.01708729 0.01721976 0.0173571 0.01750272 0.01765785 0.01782996
 0.01802555 0.01823917 0.01847663 0.01870224 0.01891005 0.01906799 0.01916633 0.01922625 0.01924719 0.01927862
 0.01932262 0.01939485 0.0194934 0.01960267 0.01972296 0.01984767 0.01997971 0.02012688 0.02028703 0.02046152
 0.02064182 0.02081675 0.02097736 0.02110816 0.02121088 0.02127813 0.02132692 0.0213641 0.02140074 0.02144635
 0.02148499 0.02151483 0.02152135 0.02149871 0.02147024 0.02143672 0.02143042 0.02145266 0.02150372 0.02158292
 0.02168208 0.02180284 0.0219529 0.02212841 0.02232356 0.02252762 0.02271172 0.02287525 0.02300184 0.02310282
 0.0231838 0.02325507 0.02332159 0.02340429 0.02350885 0.02367295 0.02391857 0.02423166 0.02462559 0.02500478
 0.02535488 0.02562881 0.02581872 0.02594342 0.0260038 0.02603099 0.02602801 0.02603894 0.02606514 0.02614233
 0.02625909 0.02639863 0.02654551 0.0266529 0.02672425 0.02674196 0.02672078 0.02667335 0.02659999 0.02650704
 0.02638507 0.02622831 0.02604025 0.02581658 0.02558099 0.0253347 0.0251156 0.02492962 0.02480136 0.02473577
 0.02470836 0.02471774 0.02471136 0.02468925 0.02463363 0.02455051 0.02446535 0.02437925 0.02431178 0.0242545
 0.02419904 0.02413554 0.02404621 0.02392203 0.02374404 0.02351612 0.02322486 0.02291171 0.0225905 0.02230612
 0.02208433 0.02191655 0.02180743 0.0217309 0.02167996 0.02166974 0.02170057 0.02179411 0.02195125 0.02215355
 0.02239863 0.02265364 0.02291636 0.02315807 0.02337748 0.02354963 0.02368668 0.02379977 0.0239102 0.02406302
 0.02425212 0.02449697 0.02475892 0.02501375 0.02523799 0.02540681 0.025535 0.02562048 0.02568701 0.02574018
 0.02579398 0.02585257 0.02591389 0.0259796 0.02602183 0.02603915 0.02600751 0.02592926 0.02582677 0.02570355
 0.02559412 0.02549275 0.02539486 0.02530036 0.0252004 0.02511346 0.02506843 0.02506961 0.0251426 0.02525533
 0.02539253 0.02552616 0.02563149 0.02571754 0.02577969 0.02584058 0.02590631 0.02598441 0.02608069 0.02616749
 0.02624528 0.02625094 0.02618115 0.02600295 0.02572212 0.02540099 0.02505026 0.0247691 0.02455002 0.02442313
 0.02436708 0.02434523 0.02434742 0.02434025 0.02432377 0.02428642 0.02422805 0.02414354 0.02403866 0.0239133
 0.02377924 0.0236399 0.02350647 0.02338115 0.02327733 0.02319811 0.02314689 0.023126 0.02310954 0.02309618
 0.02305592 0.02298867 0.02288837 0.02275349 0.02257221 0.02234131 0.02203417 0.02166858 0.02126436 0.02085975
 0.02053247 0.02028762 0.02017316 0.02014462 0.02018325 0.02025197 0.0203206 0.02038995 0.02045428 0.02051771
 0.02058378 0.02063548 0.02067129 0.02067217 0.02063471 0.02057 0.02047851</values></Ydata></AB><ScSm><Ydata ylabel="Single channel"><values byteorder="INTEL" format="FLOAT32" numvalues="1814"> 0.07405436 0.07406892 0.07414921 0.07431489 0.07453859 0.07475868 0.07491974 0.07500695 0.07503335 0.07500388
 0.07492741 0.0748637 0.07490642 0.07509155 0.07534513 0.07553693 0.07558444 0.07552309 0.07548365 0.07556441
 0.07569624 0.07566397 0.07530949 0.07471669 0.07415725 0.07384119 0.07378718 0.07398287 0.07451656 0.07532503
 0.07591444 0.07571594 0.0748022 0.07391395 0.07363851 0.07384808 0.07404889 0.07395148 0.07355966 0.07305687
 0.07285327 0.07347313 0.07503673 0.07683674 0.0775945 0.07626577 0.07278627 0.06830764 0.06477523 0.06388701
 0.06589561 0.06926346 0.07181522 0.07247303 0.07177235 0.0707624 0.06987943 0.06908333 0.06858209 0.06886405
 0.07002263 0.07130844 0.07151669 0.07001244 0.06748463 0.06546049 0.06491455 0.06565698 0.06714751 0.06908414
 0.07056973 0.06964499 0.06521969 0.05950346 0.05701168 0.06026898 0.06711496 0.07282218 0.07430231 0.07182433
 0.06762694 0.06406569 0.06273703 0.06405073 0.06714968 0.07062414 0.07336934 0.07463421 0.07383078 0.07104473
 0.06753579 0.06512421 0.06506881 0.06757419 0.07175112 0.07569844 0.07736724 0.07607553 0.07296118 0.06977938
 0.06774804 0.06755383 0.06952219 0.07327318 0.07770522 0.08163761 0.08429151 0.08536035 0.08507012 0.08403754
 0.08280146 0.08173774 0.08139025 0.08213196 0.08328617 0.0833877 0.08178073 0.07949451 0.07818159 0.0784104
 0.07921566 0.07927498 0.07824589 0.07654408 0.07403385 0.07001398 0.06482147 0.06024944 0.05775316 0.05734622
 0.05867379 0.06157782 0.0648338 0.06607564 0.06438901 0.06196387 0.06191566 0.06495783 0.06903636 0.07183396
 0.07290986 0.07354 0.075074 0.07755723 0.07955434 0.07923785 0.0762074 0.0725075 0.07117947 0.07327516
 0.07684561 0.07933377 0.08026477 0.08096152 0.08222994 0.08311293 0.08189049 0.07812499 0.07376442 0.07194402
 0.07425576 0.07915124 0.08306323 0.08304802 0.07876824 0.07256664 0.06763929 0.06582601 0.06711555 0.07085799
 0.07647637 0.08283642 0.08796043 0.09013548 0.0891637 0.08625499 0.08264938 0.07847288 0.07340185 0.06857404
 0.06681231 0.0699497 0.07648282 0.08282991 0.08652747 0.08745262 0.086421 0.08366209 0.07905804 0.07362328
 0.06998608 0.07034386 0.07381496 0.07694073 0.07730839 0.07574964 0.07455684 0.07462626 0.07512885 0.0752686
 0.07541609 0.07647265 0.07858156 0.08078694 0.08196041 0.08182831 0.08101761 0.08032197 0.07997847 0.07949735
 0.07835008 0.07702429 0.07696262 0.07898575 0.08216913 0.08479794 0.08608712 0.08646098 0.086409 0.0856207
 0.08343869 0.08010378 0.07725503 0.07671548 0.07873176 0.08182269 0.0843185 0.08555722 0.08572505 0.08525711
 0.08454452 0.08380462 0.08314006 0.08281259 0.08318248 0.08419646 0.08526569 0.08585556 0.08592505 0.08566648
 0.08512761 0.08428419 0.08330713 0.08256854 0.08237515 0.08274128 0.0834327 0.08417719 0.08475692 0.08497261
 0.0847211 0.08414321 0.08353458 0.08307401 0.08276507 0.08262615 0.08275027 0.08313144 0.08357763 0.08387188
 0.08394717 0.08386515 0.0836927 0.08345068 0.08315325 0.08286011 0.08268106 0.08270054 0.08287697 0.08306539
 0.08318412 0.08329612 0.08346112 0.08358429 0.0835162 0.08325973 0.08297924 0.08282208 0.0828026 0.08284598
 0.08286965 0.08279747 0.08255227 0.08212101 0.08164716 0.08138198 0.08148494 0.08190401 0.08246399 0.08299766
 0.08337926 0.08354471 0.08353875 0.08347285 0.08339824 0.08327018 0.08305082 0.08280544 0.08268251 0.08280069
 0.08314028 0.08355024 0.08387429 0.08405162 0.08410472 0.08410008 0.08413026 0.08424765 0.08438754 0.08442777
 0.08434613 0.08425733 0.08427592 0.08438816 0.08447752 0.08445773 0.08436931 0.08433837 0.08444156 0.08463509
 0.08482461 0.08497195 0.08511031 0.0852707 0.0854134 0.08544648 0.08532964 0.08514529 0.08502496 0.08501199
 0.08505016 0.08510189 0.08520481 0.08538815 0.08559325 0.08572379 0.08575461 0.08575266 0.08578648 0.08584125
 0.08584249 0.08575074 0.08560789 0.08549339 0.08545773 0.08549739 0.08556935 0.08562002 0.08561526 0.0855571
 0.08547344 0.08538966 0.08531182 0.08524364 0.08521688 0.08528159 0.08544156 0.08560713 0.08564699 0.08550797
 0.08527421 0.08509105 0.08502912 0.08503029 0.08498423 0.08484124 0.08464392 0.08446729 0.08435085 0.08428387
 0.08423309 0.08417699 0.08412991 0.08414173 0.08425345 0.08443406 0.08457632 0.08458602 0.08447319 0.08433445
 0.08425452 0.08424805 0.08428316 0.08432873 0.08438291 0.08447333 0.08461589 0.08476718 0.08485176 0.08485084
 0.08483021 0.08487107 0.08500777 0.0852279 0.08547928 0.08567454 0.08574957 0.08573702 0.0857403 0.08582269
 0.08595766 0.08609252 0.08621787 0.08635598 0.08651574 0.0866899 0.086884 0.08712151 0.08741582 0.08774541
 0.08805806 0.08830298 0.08847445 0.08863076 0.08885723 0.08919556 0.08960786 0.09001138 0.09034789 0.09062296
 0.0908837 0.09116185 0.09144916 0.0917347 0.09204425 0.09241433 0.09283838 0.09326939 0.09367324 0.09405288
 0.09442407 0.09479294 0.09516148 0.095541 0.09595413 0.09641729 0.09691034 0.09737061 0.09773894 0.09801583
 0.09826411 0.0985605 0.09894433 0.09938668 0.09979661 0.1000901 0.1002824 0.1004864 0.1007895 0.1011563
 0.1014919 0.1017789 0.1020981 0.1025132 0.1029815 0.1034018 0.103724 0.1039889 0.1042684 0.1045839
 0.1048867 0.1051178 0.1052785 0.1054272 0.105612 0.1058374 0.1061076 0.1064578 0.106904 0.1073877
 0.107813 0.1081311 0.1083594 0.1085384 0.1087005 0.1088645 0.1090307 0.1091877 0.1093407 0.1095086
 0.1096848 0.1098349 0.1099531 0.1100858 0.1102774 0.1105268 0.1108177 0.1111557 0.11154 0.1119299
 0.112285 0.1126288 0.1130217 0.1134614 0.1138547 0.1141164 0.1142596 0.1143584 0.1144565 0.1145633
 0.1147148 0.114972 0.1153495 0.1157893 0.1162185 0.1166092 0.1169737 0.1173234 0.1176443 0.1179035
 0.1180766 0.1181719 0.1182316 0.1183166 0.1184817 0.1187454 0.1190703 0.1193848 0.1196341 0.1197972
 0.1198608 0.1198159 0.1197023 0.1196166 0.1196294 0.1197001 0.1197057 0.1195501 0.1192182 0.1187339
 0.1181092 0.1173562 0.1165276 0.11572 0.1150327 0.1145296 0.1142419 0.1142007 0.114445 0.1149795
 0.1157253 0.1165375 0.1172752 0.1178389 0.1181462 0.1181235 0.1177516 0.1170998 0.1162895 0.1154332
 0.1146095 0.113858 0.113175 0.1125469 0.1120251 0.1117589 0.1119292 0.1126473 0.1139027 0.1155704
 0.1174446 0.1192969 0.1209555 0.1223612 0.1235537 0.1246022 0.1255561 0.1264513 0.1273273 0.1282012
 0.1290387 0.1297855 0.1304283 0.1309997 0.1315291 0.1320125 0.1324267 0.1327518 0.1329869 0.1331614
 0.1333176 0.1334679 0.1335852 0.1336474 0.1336693 0.1336734 0.1336438 0.133529 0.1332808 0.1328911
 0.1324165 0.1319956 0.1318356 0.1321407 0.1330093 0.1343749 0.1360463 0.1378113 0.1395061 0.1410132
 0.142247 0.1431778 0.1438555 0.1443799 0.1448405 0.1452862 0.1457307 0.1461674 0.1465833 0.1469738
 0.147349 0.1477275 0.1481263 0.1485496 0.1489771 0.1493736 0.149722 0.1500481 0.1504024 0.1508131
 0.1512588 0.1516903 0.1520831 0.1524595 0.1528488 0.1532376 0.1535837 0.1538745 0.1541447 0.15444
 0.1547846 0.1551788 0.1555967 0.1559871 0.156306 0.1565571 0.1567865 0.1570388 0.1573277 0.1576408
 0.1579574 0.1582607 0.1585477 0.1588354 0.15915 0.1594983 0.1598489 0.1601526 0.1603872 0.1605798
 0.1607797 0.1610142 0.1612722 0.1615288 0.1617804 0.1620538 0.1623764 0.1627386 0.1630896 0.1633775
 0.1635922 0.1637709 0.1639626 0.1641904 0.164444 0.1647022 0.1649541 0.1651997 0.1654421 0.1656866
 0.1659412 0.1662104 0.1664887 0.166764 0.167028 0.1672826 0.1675372 0.1677988 0.1680688 0.1683511
 0.168654 0.1689759 0.169291 0.1695633 0.1697771 0.1699485 0.1701096 0.1702864 0.1704908 0.1707227
 0.1709758 0.171241 0.171507 0.1717629 0.1720048 0.1722379 0.1724699 0.1727048 0.1729439 0.1731905
 0.1734508 0.1737277 0.1740156 0.1742998 0.1745661 0.17481 0.1750377 0.1752589 0.17548 0.1756999
 0.1759129 0.1761181 0.1763259 0.1765492 0.1767886 0.1770317 0.1772669 0.1774931 0.1777164 0.1779421
 0.17817 0.1783967 0.1786221 0.1788499 0.1790812 0.1793128 0.1795433 0.1797752 0.1800072 0.1802345
 0.1804563 0.1806767 0.1808976 0.1811195 0.1813459 0.1815795 0.1818149 0.1820422 0.1822592 0.1824744
 0.1826979 0.1829287 0.1831563 0.183373 0.1835823 0.1837944 0.1840171 0.1842507 0.1844885 0.184724
 0.1849595 0.1852005 0.1854429 0.1856747 0.185891 0.1860994 0.1863111 0.1865343 0.1867728 0.1870238
 0.1872784 0.1875277 0.1877655 0.187989 0.1882014 0.1884077 0.1886089 0.1888037 0.1889975 0.1891961
 0.1893986 0.1896021 0.1898084 0.1900186 0.1902288 0.1904369 0.1906464 0.1908624 0.1910893 0.1913265
 0.1915635 0.1917885 0.1920011 0.1922111 0.192427 0.192653 0.1928875 0.193121 0.1933442 0.1935602
 0.1937783 0.194001 0.1942255 0.1944496 0.1946715 0.194894 0.1951252 0.1953656 0.1956022 0.195825
 0.1960393 0.1962557 0.19648 0.1967106 0.1969382 0.1971563 0.1973743 0.1976051 0.1978437 0.1980757
 0.1982985 0.1985156 0.1987259 0.1989339 0.1991497 0.199373 0.1995952 0.1998149 0.200035 0.2002554
 0.200478 0.2007043 0.2009271 0.2011439 0.2013658 0.2015972 0.201828 0.2020542 0.2022761 0.2024731
 0.2025938 0.2025188 0.2019487 0.2002827 0.196605 0.1898622 0.179269 0.1647942 0.1473474 0.1284604
 0.1097178 0.09234402 0.07708237 0.06427911 0.05402678 0.04626362 0.04084447 0.03764868 0.03668504 0.03820439
 0.04283049 0.05119122 0.06251702 0.07340558 0.07915148 0.07746025 0.07063821 0.06348729 0.05931997 0.05836983
 0.05922496 0.06067931 0.06234898 0.06445108 0.06735596 0.0711557 0.07565364 0.0808385 0.08710849 0.09476325
 0.1034031 0.1121022 0.120207 0.1278393 0.1355824 0.1437696 0.1521376 0.1600883 0.1671616 0.1732649
 0.1785893 0.1834039 0.1878983 0.1921518 0.1961903 0.2000023 0.2034616 0.206287 0.2081726 0.2090231
 0.2090702 0.2087466 0.2084315 0.2083058 0.2083945 0.2086728 0.2091131 0.2096865 0.2103679 0.2111349
 0.2119604 0.212817 0.2136837 0.2145383 0.2153551 0.2161171 0.216819 0.2174568 0.218031 0.2185555
 0.219046 0.2195062 0.2199342 0.2203311 0.2206988 0.2210398 0.221363 0.2216752 0.2219709 0.2222389
 0.2224767 0.2226941 0.2229065 0.2231264 0.2233547 0.2235814 0.2237978 0.224005 0.2242087 0.2244113
 0.2246122 0.2248117 0.2250135 0.2252221 0.2254348 0.2256375 0.2258187 0.2259847 0.226153 0.2263331
 0.2265234 0.2267221 0.2269283 0.2271358 0.2273351 0.2275206 0.2276957 0.2278708 0.2280551 0.2282475
 0.2284428 0.2286468 0.2288723 0.229118 0.2293655 0.2295997 0.2298189 0.2300264 0.2302263 0.2304238
 0.2306177 0.2307974 0.230956 0.2311048 0.2312678 0.2314612 0.2316783 0.2318959 0.2320985 0.2322925
 0.2324926 0.2327024 0.2329107 0.2331019 0.2332759 0.2334602 0.2336865 0.2339484 0.2342086 0.2344504
 0.2346904 0.2349376 0.2351817 0.2354206 0.2356568 0.2358692 0.2360302 0.2361561 0.2363156 0.2365759
 0.2369382 0.2373274 0.2376583 0.2379102 0.2381229 0.238342 0.2385921 0.2388584 0.2390553 0.2390842
 0.2389921 0.2390001 0.239295 0.2398358 0.2404231 0.2409063 0.2412719 0.2415767 0.2418557 0.2420877
 0.2422178 0.2422176 0.2421508 0.2421804 0.2424601 0.2429795 0.243558 0.2440242 0.2443486 0.2445837
 0.2447716 0.2449361 0.2450386 0.2449229 0.244482 0.2439435 0.2438049 0.244352 0.2453399 0.2462552
 0.2468224 0.2471425 0.2474072 0.2476645 0.2478715 0.2479314 0.2475798 0.2465419 0.2450687 0.2440765
 0.2443872 0.2459007 0.2477561 0.2491877 0.2500054 0.2504049 0.2506356 0.2508337 0.2509196 0.2506076
 0.2497239 0.2486245 0.248106 0.2486718 0.249971 0.2511795 0.251842 0.2521091 0.2523001 0.2525435
 0.2526913 0.2522626 0.250711 0.248233 0.2461871 0.246142 0.2483419 0.2514123 0.2537218 0.2547866
 0.2551534 0.2552055 0.2546039 0.2529063 0.250228 0.2471977 0.2447799 0.2441468 0.2458918 0.2490584
 0.2516892 0.2527583 0.2530338 0.2537967 0.2553095 0.2568181 0.2575393 0.2572711 0.2562555 0.2547436
 0.2528785 0.2510999 0.2503821 0.2515399 0.2542402 0.2571222 0.2590549 0.2599953 0.2603967 0.2598813
 0.2569684 0.2508521 0.243631 0.239733 0.2420058 0.2487369 0.2554932 0.2594847 0.2611005 0.2618262
 0.2622554 0.261925 0.2595858 0.2538799 0.2454662 0.238368 0.2372541 0.2428161 0.2509892 0.2567576
 0.2575806 0.253654 0.2469989 0.2408596 0.2383853 0.2407218 0.2465078 0.2532221 0.2586998 0.2617254
 0.2620179 0.2601133 0.2573282 0.2554408 0.2554042 0.255938 0.2544989 0.2504926 0.2462633 0.2436519
 0.2411445 0.236666 0.2321211 0.2321421 0.2380709 0.2457283 0.2501159 0.2504854 0.2494449 0.248197
 0.2444742 0.235802 0.2241861 0.216199 0.2172354 0.2259194 0.2353362 0.2398013 0.2393748 0.2378362
 0.2376327 0.2373897 0.2338653 0.2261925 0.2180208 0.2144513 0.2166118 0.220644 0.2222655 0.2201885
 0.2146154 0.2058524 0.1967624 0.1936534 0.2009507 0.2157705 0.2301867 0.2377689 0.2359384 0.2245242
 0.2066256 0.1904714 0.1854263 0.1936083 0.2073132 0.2161056 0.2151045 0.2058404 0.1917785 0.1759534
 0.1623738 0.1564436 0.1617122 0.1762736 0.1928607 0.2024674 0.1993085 0.1853047 0.1704618 0.1656693
 0.1728027 0.1834477 0.1883395 0.1857684 0.1802434 0.1766569 0.1774557 0.1822637 0.188297 0.192964
 0.1959316 0.1962121 0.1893701 0.1728761 0.1532271 0.1416725 0.1425192 0.150914 0.1618669 0.1747146
 0.1872716 0.192764 0.1874703 0.1777878 0.1747968 0.1824969 0.1943804 0.201399 0.2009198 0.1971895
 0.194752 0.1936031 0.1914847 0.1891366 0.1904667 0.1971552 0.2057088 0.2113584 0.213025 0.2128785
 0.2126742 0.2124271 0.2116595 0.2102073 0.2081424 0.2058809 0.2040538 0.2027996 0.2016437 0.2002254
 0.1982882 0.1946268 0.1873513 0.1765862 0.1661758 0.1606618 0.1604916 0.1623121 0.1639515 0.1657015
 0.1656714 0.1584664 0.142331 0.125011 0.1181166 0.1259093 0.1421369 0.1571352 0.165172 0.1649083
 0.1565637 0.1422732 0.1285999 0.1244628 0.1338177 0.1518392 0.1701011 0.1838496 0.1924973 0.1955764
 0.191952 0.1828398 0.1729903 0.1679788 0.1708216 0.180627 0.1928614 0.2004867 0.1973943 0.1844968
 0.1724977 0.1740126 0.1902968 0.2091284 0.2185478 0.218991 0.2184418 0.220017 0.2204186 0.2186683
 0.2196037 0.2272283 0.2387986 0.2475229 0.2485272 0.2407704 0.2263792 0.2111164 0.2028999 0.2054562
 0.2140696 0.2207038 0.2217871 0.2177469 0.2082478 0.1941574 0.1825759 0.1825676 0.1946401 0.2095415
 0.2187666 0.2222953 0.2247532 0.2274615 0.226869 0.2199697 0.2093213 0.2014673 0.2004585 0.2043036
 0.2083346 0.2101348 0.2095987 0.2061564 0.1991138 0.1907108 0.1861541 0.1891086 0.1979262 0.207218
 0.2127052 0.2139109 0.212852 0.2114572 0.2102786 0.2086685 0.2060862 0.2038002 0.2046469 0.209939
 0.2172695 0.2229293 0.2261376 0.2293105 0.2342725 0.2397296 0.2428292 0.2422771 0.2395878 0.237785
 0.2389853 0.2427197 0.2462803 0.247029 0.2449049 0.2427096 0.2435192 0.24774 0.2530537 0.2570549
 0.2592141 0.2603635 0.2612803 0.2620299 0.2619409 0.2601206 0.2567623 0.2539297 0.2541122 0.2577483
 0.2627851 0.2667722 0.2688197 0.2694785 0.2694245 0.2687436 0.2673048 0.2653961 0.2637514 0.262985
 0.263156 0.2639073 0.2648482 0.2657293 0.2664273 0.2669275 0.2672851 0.2675442 0.2677256 0.2678797
 0.2680586 0.268228 0.2683047 0.2683154 0.2684255 0.2687474 0.2691835 0.2695222 0.269625 0.2694357
 0.2688747 0.2678697 0.2664887 0.2649142 0.2632435 0.2614324 0.2595368 0.2579677 0.2573687 0.2581395
 0.2600701 0.2624662 0.2646236 0.2661814 0.2671242 0.2675984 0.267779 0.2678204 0.2678245 0.267818
 0.2677717 0.2676544 0.267468 0.2672379 0.2669865 0.2667333 0.2665063 0.2663282 0.266186 0.266028
 0.2657984 0.2654732 0.2650714 0.264634 0.2641833 0.2636966 0.2631208 0.2624168 0.2615904 0.2606915
 0.2597891 0.2589369 0.2581412 0.2573555 0.2565182 0.255596 0.2545753 0.2534268 0.2521273 0.2507375
 0.2494036 0.2482419 0.247241 0.2462986 0.2453178 0.2442465 0.2430621 0.241764 0.240375 0.2389311
 0.2374648 0.2359909 0.2345 0.232966 0.2313669 0.2296967 0.2279617 0.2261716 0.2243358 0.2224569
 0.2205132 0.2184419 0.2161409 0.2134938 0.2103932 0.2067549 0.2025455 0.1978248 0.1927563 0.1875609
 0.1824529 0.1776002 0.1731198 0.1690978 0.1656116 0.1627299 0.1604981 0.1589392 0.1580647 0.157874
 0.1583505 0.159463 0.1611535 0.1633155 0.1657958 0.1684262 0.1710462 0.1735164 0.1757505 0.1777508
 0.1795948 0.181363 0.1830744 0.184692 0.1861797 0.1875297 0.1887316 0.1897529 0.1905749 0.1912234
 0.1917456 0.1921755 0.1925327 0.1928312 0.1930802 0.1932915 0.1934848 0.1936792 0.1938911 0.1941439
 0.1944596 0.1948362 0.1952538 0.1957059 0.1962112 0.1967909 0.1974405 0.1981264 0.1988142 0.1995068
 0.2002443 0.2010708 0.2020172 0.2031152 0.2044039 0.2059111 0.2076297 0.2095029 0.2114285 0.213293
 0.2150089 0.2165154 0.2177647 0.2187334 0.2194405 0.219933 0.2202528 0.2204205 0.2204475 0.2203584
 0.2201946 0.2199825 0.2197092 0.2193507 0.21891 0.2184069 0.2178509 0.2172498 0.2166239 0.2159924
 0.215365 0.2147573 0.2141902 0.2136662 0.2131673 0.2126714 0.2121593 0.2116126 0.2110234 0.2104051
 0.2097821 0.2091648 0.2085281 0.2078169 0.2069842 0.2060198 0.2049361 0.203741 0.2024366 0.2010341
 0.1995584 0.1980392 0.1964955 0.1949243 0.1933085 0.1916335 0.1898768 0.1880001 0.1859898 0.1839064
 0.1818608 0.1799388 0.1781608 0.1764987 0.1749111 0.1733737 0.1718912 0.1704787 0.1691392 0.1678688
 0.1666692 0.1655386 0.1644623 0.1634242 0.1624268 0.161497 0.1606722 0.1599707 0.159375 0.1588528
 0.1583876 0.1579825 0.1576547 0.1574343 0.1573411 0.1573438 0.1573652 0.157337 0.1572324 0.1570573
 0.1568407 0.156626 0.156442 0.1562832 0.1561252 0.1559392 0.1556811 0.1552798 0.1546472 0.1537067
 0.1524306 0.1508587 0.1490766 0.1471885 0.1453147 0.1435817 0.1420861 0.1408733 0.139948 0.1392699
 0.1387491 0.1382954 0.1378916 0.137603 0.1375112 0.1376229 0.1378238 0.1379408 0.1378935 0.1377821
 0.1378056 0.1381045 0.1386807 0.139417 0.1401491 0.1407502 0.1411754 0.1414401 0.1415799 0.1416308
 0.1416111 0.1415166 0.1413506 0.1411383 0.1408918 0.1405944 0.1402277 0.1397818 0.1392429 0.1386057
 0.1378858 0.1370995 0.136257 0.1353648 0.1343938 0.1332838 0.1320599 0.1309194 0.1301392 0.1299052
 0.1302252 0.1309442 0.1318465 0.1327927 0.1337095 0.1344297 0.1347239 0.1346515 0.1347557 0.1356746
 0.1375238 0.1397696 0.1417129 0.1429916 0.1436056 0.1436467 0.143174 0.1422476 0.1408913 0.139058
 0.1367489 0.1340979 0.1312709 0.1283982 0.1256338 0.1231381 0.1209952 0.1192245 0.1178182 0.1168102
 0.1163353 0.1160619 0.1142198 0.1085215 0.09967636 0.09298324 0.09388515 0.1018572 0.1107661 0.1153669
 0.1154853 0.1138756 0.1124449 0.1114991 0.1109681 0.1109956 0.1116946 0.1129245 0.1143106 0.1154524
 0.1161703 0.1164905 0.1163802 0.1155242 0.1132579 0.1087842 0.1018229 0.09319292 0.08453484 0.07735392
 0.07235053 0.06942204 0.06796566 0.06723566 0.06673482 0.06643902 0.0666544 0.06765853 0.06947619 0.07194929
 0.07490245 0.07811945 0.0812272 0.08383211 0.0858248 0.08738621 0.08866477 0.08960135 0.0900767 0.0900787
 0.08970365 0.08909319 0.08838125 0.08763669 0.08682914 0.08587034 0.08474368 0.08362108 0.08278294 0.08236384
 0.08224507 0.08223122 0.08222744 0.08221676 0.08219565 0.08217777 0.08218279 0.08222594 0.08236172 0.08266596
 0.08312061 0.08358832 0.0839359 0.08413544 0.08424251 0.08428344 0.08414431 0.08365743 0.0828921 0.08219823
 0.08176352 0.08129824 0.08043008 0.07928896 0.07842232 0.07818873 0.07844834 0.07880127 0.07894084 0.07879244
 0.07850458 0.07838324 0.07868934 0.07934193</values></Ydata></ScSm><ScRf><Ydata ylabel="Single channel"><values byteorder="INTEL" format="FLOAT32" numvalues="1820"> 0.06043483 0.06058671 0.0606779 0.06070617 0.06069663 0.06069971 0.06076729 0.06091666 0.06111575 0.06130444
 0.06143612 0.06150424 0.0615248 0.06150278 0.06144287 0.06139147 0.06142452 0.06157195 0.061774 0.06192599
 0.06196326 0.06191583 0.06188881 0.06196057 0.06207472 0.06205601 0.06177293 0.0612888 0.06082161 0.0605446
 0.06048156 0.06063384 0.06108069 0.0617665 0.06227279 0.06211886 0.06136149 0.06061853 0.06038383 0.06055549
 0.06072402 0.06064785 0.06032829 0.05991562 0.05974993 0.06026892 0.06157454 0.06307782 0.06371214 0.06260706
 0.05971076 0.05598471 0.05304776 0.05230869 0.05397476 0.05676977 0.05888979 0.05944004 0.05886485 0.05803792
 0.0573228 0.0566797 0.05627031 0.05649638 0.05744203 0.05849361 0.05865453 0.05739913 0.0553018 0.05363083
 0.05319083 0.05381883 0.0550654 0.05668312 0.05792996 0.05717798 0.05351665 0.04877508 0.04670311 0.04940611
 0.0550994 0.05985492 0.06109509 0.05903608 0.05554634 0.05259651 0.05151262 0.05262052 0.05519678 0.05807166
 0.06033418 0.06136547 0.06068347 0.05836788 0.05546803 0.05348894 0.05346568 0.05556151 0.0590365 0.0623135
 0.06369369 0.06261259 0.06001595 0.05736278 0.05566724 0.05550244 0.05714108 0.0602695 0.06397273 0.06726618
 0.06949592 0.07040082 0.07016782 0.06931584 0.06829998 0.0674312 0.06715156 0.06776457 0.06871346 0.0687924
 0.06746272 0.06557719 0.06450336 0.06470955 0.06539102 0.06544572 0.06458695 0.06316108 0.06105775 0.05769615
 0.05336027 0.04954818 0.0474779 0.04716507 0.04831368 0.05078538 0.05354838 0.05461866 0.05322498 0.05119028
 0.05111966 0.05362549 0.05701195 0.05935172 0.06026989 0.06081901 0.06211599 0.06419554 0.06586285 0.06559842
 0.06307389 0.06000136 0.05892235 0.06070947 0.06372418 0.0658264 0.066627 0.06724115 0.06834215 0.06911871
 0.06812254 0.06499137 0.06137002 0.05989042 0.06187695 0.06602027 0.06932829 0.06933628 0.0657645 0.0605844
 0.05648445 0.05500843 0.05614462 0.05935534 0.06417014 0.06964067 0.07409227 0.07605781 0.07534026 0.07294452
 0.06992953 0.06642409 0.06216222 0.05810677 0.05666356 0.05941216 0.06508663 0.07062745 0.07391149 0.07481462
 0.07402569 0.07173736 0.06784564 0.06322982 0.0601739 0.06058982 0.06371111 0.06652772 0.06693982 0.06567537
 0.06473607 0.06490062 0.06543589 0.0656454 0.06587026 0.06691924 0.06891838 0.07101171 0.07218903 0.07219751
 0.07158714 0.07106759 0.07086118 0.07053891 0.06963332 0.06858568 0.06868643 0.07065828 0.07365603 0.07613122
 0.07738023 0.0777984 0.07784557 0.07724822 0.07539921 0.07250062 0.07003964 0.06968597 0.07167209 0.07464103
 0.07705378 0.07830026 0.07856371 0.07825968 0.07774945 0.07722309 0.07676838 0.07662474 0.07711945 0.07819669
 0.079312 0.07997654 0.0801563 0.08002857 0.07963626 0.07896039 0.07816896 0.07761683 0.07759009 0.07809106
 0.07888569 0.07971225 0.0803723 0.08068638 0.08055513 0.08010494 0.07962024 0.07928611 0.07911485 0.07911658
 0.07936697 0.07985599 0.08040582 0.08081454 0.08101418 0.0810528 0.08098828 0.0808464 0.08065264 0.08047284
 0.08041313 0.08054703 0.08082277 0.08109622 0.08129773 0.08150068 0.08176352 0.08198214 0.08199954 0.08181797
 0.08160706 0.08151949 0.08156952 0.08167938 0.08176742 0.08176216 0.08159064 0.08124242 0.08085977 0.08068527
 0.08086848 0.08135994 0.08199926 0.08262779 0.08310972 0.08336177 0.08341789 0.08339258 0.0833462 0.08324127
 0.08304499 0.08282833 0.08274437 0.08291288 0.08331295 0.08379073 0.08418284 0.08441903 0.08451994 0.0845622
 0.08465046 0.08483717 0.08504251 0.08512583 0.08506104 0.08497825 0.0850084 0.08513518 0.08522809 0.08519989
 0.08510743 0.08508952 0.08521724 0.08543092 0.08562598 0.08576983 0.0859168 0.08611889 0.08633281 0.08643304
 0.08634353 0.08614099 0.08597933 0.08592316 0.08592302 0.08594839 0.08605301 0.08627138 0.08652142 0.08667362
 0.08669569 0.08667892 0.0867179 0.08679787 0.08682054 0.08672148 0.08653808 0.0863698 0.08629547 0.0863273
 0.08641715 0.08649231 0.08649746 0.08642355 0.08630633 0.08619235 0.0861048 0.08605237 0.08606792 0.08620207
 0.08644578 0.08667821 0.08673967 0.08657742 0.0863035 0.08609365 0.08602875 0.08603738 0.08598554 0.08580782
 0.08554894 0.08529855 0.08511101 0.08498415 0.08488856 0.08480527 0.08475021 0.08476925 0.08488801 0.08505009
 0.08512779 0.08502744 0.08478048 0.08450989 0.08431955 0.08423489 0.08422403 0.08423908 0.08425276 0.08428194
 0.08435518 0.08444329 0.08446438 0.08438163 0.08425675 0.08418848 0.08423629 0.08440334 0.08463325 0.08481391
 0.08484994 0.08475854 0.08465487 0.08463112 0.08468443 0.08476548 0.08485043 0.08494413 0.08504568 0.08514585
 0.08525414 0.08540353 0.08561704 0.08587475 0.08611943 0.08629726 0.08640233 0.08649006 0.08664072 0.08689447
 0.08721659 0.0875287 0.08777519 0.08796184 0.08813474 0.08832534 0.0885254 0.0887222 0.08893951 0.08921523
 0.08954439 0.08987743 0.0901769 0.09044901 0.09071793 0.09099482 0.09128024 0.09158427 0.09193423 0.09235083
 0.09280314 0.09320103 0.09346312 0.09359738 0.09370187 0.09388931 0.09420961 0.09461202 0.09496686 0.09516524
 0.09523139 0.09530756 0.09549903 0.09576891 0.09602179 0.09625339 0.09655692 0.0969862 0.09746591 0.09785864
 0.09809858 0.09824184 0.09839204 0.09858865 0.09877746 0.09889269 0.09894814 0.09901932 0.0991478 0.09931311
 0.09950757 0.09977864 0.1001584 0.1005923 0.1009819 0.1012744 0.1014799 0.1016282 0.1017429 0.1018357
 0.1018991 0.1019249 0.1019415 0.1019987 0.1020999 0.1021889 0.1022259 0.102244 0.1023066 0.102443
 0.1026501 0.1029224 0.1032401 0.1035512 0.1038176 0.1040751 0.1043973 0.1047798 0.1051107 0.1052878
 0.1053294 0.1053309 0.1053465 0.1053733 0.1054287 0.1055714 0.1058312 0.1061673 0.1065172 0.1068577
 0.107201 0.1075506 0.1078753 0.1081198 0.1082408 0.1082462 0.1082031 0.1082038 0.1083161 0.1085518
 0.1088662 0.1091874 0.1094569 0.1096448 0.1097349 0.1097241 0.1096583 0.1096388 0.1097447 0.1099434
 0.1101044 0.1101072 0.1099153 0.1095517 0.1090435 0.1084159 0.1077225 0.1070535 0.1064986 0.1061074
 0.1058922 0.1058682 0.1060714 0.1065158 0.1071398 0.1078233 0.1084605 0.1089833 0.1093125 0.1093448
 0.1090307 0.1084402 0.1077166 0.1069834 0.1063043 0.1056924 0.1051194 0.1045512 0.104026 0.1036915
 0.1037353 0.1042749 0.1053029 0.1066939 0.1082401 0.1097132 0.1109537 0.1119319 0.1127242 0.1134259
 0.1140883 0.1147316 0.1153803 0.1160469 0.116695 0.1172641 0.1177374 0.1181552 0.118558 0.1189463
 0.119295 0.1195831 0.1198122 0.1200111 0.1202079 0.1203824 0.1204733 0.1204503 0.1203534 0.1202421
 0.1201275 0.1199684 0.1197142 0.1193452 0.118902 0.1185057 0.1183378 0.1185647 0.1192434 0.1202869
 0.1215293 0.1228299 0.124104 0.1252708 0.1262276 0.1269099 0.1273522 0.127658 0.1279216 0.1281908
 0.1284789 0.128783 0.1290923 0.1293948 0.1296858 0.129974 0.1302782 0.130609 0.1309458 0.1312442
 0.131483 0.1316981 0.1319595 0.1323063 0.132707 0.1330895 0.133416 0.1337143 0.1340253 0.1343336
 0.1345842 0.1347609 0.1349151 0.1351156 0.1353955 0.1357458 0.1361232 0.1364629 0.1367165 0.1368932
 0.1370479 0.137227 0.1374399 0.1376754 0.1379255 0.1381865 0.1384549 0.1387325 0.1390289 0.139344
 0.1396468 0.1398895 0.1400545 0.1401812 0.1403317 0.1405323 0.1407574 0.1409675 0.1411562 0.1413601
 0.1416224 0.1419434 0.1422695 0.1425356 0.1427177 0.1428432 0.1429609 0.1431069 0.1432924 0.143507
 0.14373 0.1439424 0.1441376 0.1443248 0.1445202 0.1447305 0.1449461 0.1451534 0.1453515 0.1455521
 0.1457642 0.1459852 0.1462105 0.1464498 0.1467235 0.1470307 0.1473305 0.1475712 0.1477384 0.1478626
 0.1479836 0.1481211 0.1482788 0.1484549 0.1486441 0.1488402 0.1490399 0.1492427 0.1494472 0.1496528
 0.1498612 0.1500731 0.1502858 0.150497 0.1507093 0.1509298 0.1511611 0.1513948 0.1516157 0.1518125
 0.1519868 0.1521533 0.1523302 0.1525252 0.1527282 0.1529246 0.1531123 0.1533014 0.153498 0.1536984
 0.1538981 0.1540987 0.1543033 0.1545105 0.1547144 0.1549104 0.1551013 0.1552943 0.1554914 0.1556876
 0.1558793 0.1560703 0.1562663 0.1564679 0.1566693 0.1568644 0.1570542 0.1572473 0.1574508 0.157661
 0.1578676 0.1580641 0.158252 0.1584386 0.1586322 0.1588346 0.1590389 0.1592361 0.159423 0.1596033
 0.1597856 0.1599792 0.1601863 0.1603991 0.1606096 0.1608174 0.1610239 0.1612271 0.161429 0.1616374
 0.1618571 0.1620829 0.1623065 0.1625237 0.1627368 0.1629505 0.1631655 0.1633758 0.1635765 0.163769
 0.1639571 0.1641421 0.1643237 0.1645005 0.1646686 0.1648273 0.1649846 0.1651533 0.1653413 0.1655456
 0.165754 0.1659544 0.1661473 0.1663436 0.1665526 0.1667748 0.1670036 0.1672294 0.1674449 0.1676501
 0.1678485 0.1680407 0.1682294 0.1684226 0.1686258 0.1688372 0.1690567 0.1692858 0.1695191 0.1697468
 0.1699673 0.1701841 0.1703984 0.1706121 0.1708286 0.1710452 0.1712561 0.1714615 0.1716647 0.1718654
 0.172066 0.1722718 0.1724827 0.1726958 0.1729128 0.173135 0.1733571 0.1735752 0.1737883 0.1739922
 0.1741865 0.1743841 0.1745978 0.1748254 0.1750575 0.1752857 0.1755027 0.1757073 0.1759059 0.1761018
 0.1762942 0.176491 0.1766986 0.1768968 0.1770302 0.1769831 0.1764916 0.1750357 0.1718148 0.1658987
 0.1565941 0.1438756 0.1285448 0.1119505 0.09549332 0.08025423 0.06688 0.05566183 0.04667565 0.03987241
 0.03513084 0.03234467 0.03151795 0.03287017 0.03695061 0.04430818 0.05426157 0.06382342 0.06886975 0.06739212
 0.06141556 0.05515422 0.05151432 0.05069633 0.05145633 0.05273534 0.05419801 0.05603581 0.05857743 0.06191108
 0.06587002 0.07044512 0.07598422 0.0827485 0.09038401 0.0980722 0.1052346 0.1119806 0.1188323 0.1260887
 0.13351 0.1405574 0.1468255 0.1522438 0.1569869 0.1612834 0.1652872 0.1690648 0.1726476 0.1760351
 0.1791189 0.1816457 0.1833386 0.18411 0.1841689 0.183907 0.1836645 0.1835919 0.1836964 0.1839541
 0.1843525 0.1848781 0.1855109 0.1862264 0.1869927 0.1877778 0.1885633 0.1893389 0.1900902 0.1908039
 0.1914748 0.1920998 0.1926709 0.1931804 0.1936287 0.1940279 0.1943983 0.1947541 0.1950955 0.1954219
 0.1957416 0.1960603 0.1963677 0.1966478 0.1968957 0.1971179 0.1973255 0.1975296 0.1977356 0.1979422
 0.1981463 0.1983458 0.1985376 0.1987231 0.1989113 0.199109 0.1993105 0.1995068 0.1996979 0.19989
 0.2000873 0.200289 0.2004898 0.2006849 0.2008763 0.2010718 0.2012725 0.2014686 0.2016526 0.2018296
 0.2020133 0.2022145 0.2024301 0.2026445 0.2028471 0.2030485 0.2032667 0.2035 0.2037285 0.2039393
 0.2041365 0.20433 0.2045291 0.2047386 0.2049495 0.2051404 0.2053007 0.205449 0.2056179 0.2058235
 0.2060513 0.2062731 0.2064763 0.2066719 0.2068749 0.2070863 0.2072943 0.207487 0.207666 0.2078562
 0.2080864 0.208351 0.2086091 0.2088355 0.2090465 0.2092662 0.2094994 0.2097422 0.2099854 0.2101989
 0.2103514 0.210461 0.2106044 0.2108553 0.2112114 0.2115908 0.2119096 0.2121554 0.2123756 0.2126169
 0.2128948 0.2131808 0.2133851 0.2134179 0.2133277 0.2133242 0.2135887 0.2140941 0.2146585 0.2151331
 0.2154928 0.2157856 0.2160499 0.2162764 0.216419 0.2164471 0.2164121 0.2164603 0.2167331 0.2172217
 0.2177615 0.2181985 0.218509 0.2187404 0.2189273 0.2190913 0.2192069 0.2191436 0.2188011 0.2183684
 0.218282 0.2188012 0.2197122 0.2205559 0.2210874 0.2214049 0.2216858 0.2219664 0.2221939 0.2222751
 0.2219791 0.2210678 0.2197686 0.2189041 0.2192131 0.2206041 0.2222994 0.2236117 0.2243757 0.2247705
 0.2250161 0.2252281 0.2253319 0.2250744 0.2243071 0.2233552 0.2229349 0.223497 0.2247235 0.2258667
 0.2265096 0.2267874 0.226995 0.2272534 0.2274276 0.2270806 0.22572 0.2235293 0.2217374 0.2217535
 0.2237875 0.2265972 0.2287186 0.2297228 0.2301016 0.2301923 0.229679 0.2281627 0.2257658 0.2230769
 0.2209677 0.2204754 0.2221156 0.2250201 0.2274292 0.2284273 0.228717 0.2294595 0.2308898 0.232321
 0.2330376 0.2328503 0.2319753 0.2306396 0.2289745 0.2273869 0.2267736 0.2278814 0.2304015 0.233086
 0.2348996 0.2358029 0.2362126 0.2357885 0.233181 0.2276563 0.2211342 0.2176565 0.2198114 0.2260227
 0.232243 0.2359368 0.23747 0.2382005 0.2386635 0.2384259 0.2363418 0.2311756 0.2235401 0.2171229
 0.2161949 0.2213832 0.2289588 0.2343199 0.2351317 0.231577 0.2255276 0.2199774 0.2178115 0.220059
 0.225457 0.231695 0.2367944 0.2396464 0.2399998 0.2383499 0.2358993 0.2342701 0.2343275 0.2348907
 0.2336277 0.2300047 0.2261823 0.2238452 0.2215956 0.2175403 0.2134618 0.2136394 0.219289 0.2265235
 0.2307198 0.2312029 0.2303946 0.229395 0.2260825 0.2181567 0.2074907 0.2002066 0.2013261 0.20956
 0.2184629 0.2227511 0.2225055 0.2212641 0.2213024 0.2213114 0.2182337 0.2112519 0.2038065 0.2007059
 0.2030085 0.207075 0.2088708 0.2071788 0.2021796 0.1941637 0.1858585 0.1832536 0.1905449 0.2049932
 0.2190723 0.2266664 0.2252955 0.2147553 0.1979958 0.1829384 0.1786183 0.1870772 0.2008731 0.2099267
 0.2095082 0.2010548 0.187877 0.1729262 0.160186 0.1550542 0.1610997 0.1764589 0.1938785 0.20429
 0.2017995 0.1883023 0.1739673 0.1699191 0.1780669 0.1897549 0.1954581 0.1934305 0.1883328 0.1852518
 0.1867836 0.1925591 0.1996246 0.2052254 0.2090069 0.2098635 0.2029609 0.1855373 0.1645823 0.152235
 0.1531786 0.1622237 0.1740108 0.1878299 0.2013305 0.2072127 0.2014612 0.1909679 0.1876757 0.1959011
 0.2086393 0.2161388 0.2155532 0.2114657 0.2088039 0.2075909 0.2053985 0.2030265 0.2047003 0.2122456
 0.221902 0.2285222 0.2309259 0.2314325 0.2319271 0.2324264 0.232411 0.2316965 0.2303547 0.2288295
 0.2277987 0.2274105 0.2271474 0.2266124 0.2254982 0.2223782 0.2150094 0.2034816 0.1922373 0.1865569
 0.1869566 0.1895336 0.1917712 0.1940077 0.1940126 0.1854684 0.1663093 0.1455611 0.1367763 0.1449409
 0.1627625 0.1789854 0.1870172 0.1854871 0.1748713 0.1576953 0.1412319 0.1352321 0.1439726 0.1621516
 0.1805566 0.1940078 0.2019597 0.2040951 0.1993332 0.1889628 0.1779214 0.1719754 0.1741937 0.1835869
 0.1954527 0.2026084 0.1989016 0.1853138 0.1726547 0.1735979 0.1893933 0.2077939 0.2168238 0.2169066
 0.2160175 0.2172851 0.2174359 0.2154869 0.2162359 0.2236752 0.2351247 0.243882 0.2451075 0.2377281
 0.2238252 0.2091406 0.2015855 0.2048571 0.2141696 0.2214088 0.2229605 0.2192372 0.209897 0.1958606
 0.1843865 0.1847031 0.1973185 0.2128199 0.2225684 0.2265642 0.2295209 0.2327571 0.2326098 0.2260015
 0.2155946 0.2081527 0.2078506 0.2126187 0.2176347 0.2204085 0.2208052 0.218152 0.2116606 0.203709
 0.1998727 0.2040702 0.2144776 0.2252045 0.2315375 0.2328803 0.231376 0.2291325 0.2268074 0.2237732
 0.2195162 0.2154509 0.2146434 0.2185345 0.2246487 0.2291464 0.2312238 0.2333711 0.2374605 0.242166
 0.2445721 0.2433494 0.2400159 0.2376112 0.2382561 0.2414695 0.2445281 0.244792 0.2422166 0.2396272
 0.2401141 0.2440884 0.2492393 0.2531684 0.2553363 0.2565539 0.2575826 0.2584707 0.258514 0.2567837
 0.2534484 0.2505476 0.2505448 0.2538774 0.2585372 0.2621487 0.2638957 0.2643732 0.2642587 0.2636089
 0.2622609 0.2604798 0.2589793 0.2583508 0.2586323 0.2594487 0.2604016 0.261251 0.2618936 0.2623315
 0.2626305 0.2628406 0.2629774 0.263072 0.263157 0.2631939 0.263113 0.2629604 0.2629148 0.2630926
 0.2634003 0.2636379 0.2636824 0.2634878 0.2629758 0.2620637 0.2608002 0.2593487 0.2577991 0.2561114
 0.2543517 0.2529383 0.2525043 0.2534178 0.2554379 0.2578691 0.2600378 0.2616187 0.262607 0.2631339
 0.263354 0.2634124 0.2634089 0.2633688 0.2632638 0.2630633 0.2627624 0.2623805 0.2619517 0.2615225
 0.2611414 0.2608351 0.2605867 0.2603394 0.2600313 0.2596322 0.259155 0.2586372 0.2581053 0.2575455
 0.2569087 0.2561507 0.2552724 0.2543268 0.2533941 0.2525379 0.2517659 0.2510287 0.2502673 0.2494534
 0.2485684 0.2475692 0.2464297 0.2452236 0.2441161 0.2432342 0.2425608 0.2419698 0.2413357 0.2405902
 0.2397149 0.238731 0.2376886 0.2366285 0.23555 0.2344265 0.2332369 0.2319689 0.2306116 0.2291637
 0.2276402 0.2260635 0.2244576 0.2228406 0.2211964 0.2194472 0.2174714 0.2151433 0.2123523 0.2090111
 0.2050877 0.200645 0.1958416 0.190887 0.1859857 0.1813078 0.1769873 0.1731257 0.1697942 0.167044
 0.1649248 0.1634863 0.1627626 0.1627626 0.1634708 0.1648457 0.166815 0.1692733 0.1720821 0.1750716
 0.1780568 0.1808752 0.1834384 0.1857665 0.1879537 0.1900668 0.1920791 0.1939157 0.1955417 0.1969712
 0.1982131 0.1992526 0.2000882 0.200756 0.2013113 0.2017971 0.2022313 0.2026144 0.2029425 0.2032152
 0.2034354 0.2036139 0.203773 0.2039409 0.2041403 0.2043811 0.2046605 0.2049744 0.2053325 0.205755
 0.2062494 0.206798 0.207376 0.2079714 0.2085887 0.2092478 0.2099808 0.2108211 0.2117918 0.2129048
 0.2141566 0.2155133 0.2169042 0.2182361 0.2194214 0.2203986 0.2211404 0.2216486 0.2219433 0.2220519
 0.2220005 0.2218108 0.2215088 0.2211272 0.2206855 0.2201777 0.2195926 0.2189456 0.2182724 0.2175947
 0.2169074 0.2162043 0.2155022 0.2148253 0.2141742 0.2135242 0.2128617 0.2122054 0.2115831 0.2110014
 0.2104453 0.2098974 0.2093466 0.2087872 0.2082156 0.2076224 0.2069836 0.2062663 0.2054497 0.2045343
 0.2035296 0.2024384 0.2012579 0.1999881 0.1986294 0.1971756 0.1956226 0.1939867 0.192302 0.1905865
 0.1888163 0.1869479 0.1849761 0.1829618 0.1809992 0.1791604 0.1774679 0.1759005 0.1744142 0.1729756
 0.1715864 0.1702685 0.1690274 0.1678483 0.1667246 0.1656664 0.1646774 0.1637449 0.1628607 0.1620434
 0.161327 0.1607244 0.1602088 0.1597418 0.1593116 0.1589351 0.1586397 0.1584556 0.158401 0.1584482
 0.1585246 0.1585597 0.1585229 0.1584208 0.1582842 0.1581499 0.1580367 0.157944 0.157873 0.1578173
 0.1577227 0.1574822 0.1569764 0.1561185 0.1548873 0.1533377 0.1515722 0.1497052 0.1478601 0.1461632
 0.1447087 0.1435377 0.1426522 0.1420165 0.1415528 0.1411831 0.1408857 0.1407031 0.1406974 0.1408777
 0.1411402 0.1413214 0.1413577 0.1413632 0.1415169 0.1419142 0.1425343 0.1432814 0.1440363 0.1447125
 0.1452737 0.1456974 0.1459664 0.1460985 0.1461303 0.1460745 0.1459346 0.1457322 0.1454811 0.1451734
 0.144808 0.144391 0.1439101 0.1433508 0.142713 0.1419912 0.1411766 0.1402743 0.1392682 0.1381187
 0.1368755 0.135752 0.1350209 0.1348569 0.1352643 0.136086 0.1371001 0.1381642 0.1392053 0.1400558
 0.1404878 0.1405576 0.140789 0.1418094 0.1437602 0.1461379 0.148232 0.1496478 0.1503775 0.1505249
 0.1501484 0.1492877 0.1479415 0.1460552 0.1436535 0.1408957 0.1379405 0.1349092 0.1319883 0.1293791
 0.1271704 0.1253747 0.1239889 0.1230377 0.1226307 0.1224035 0.1205015 0.1145269 0.1052507 0.09829783
 0.09942095 0.1080239 0.1175706 0.1224903 0.1226189 0.1209241 0.1194615 0.1185321 0.118012 0.1180391
 0.1187508 0.1200025 0.1213854 0.122475 0.1231063 0.123349 0.1231955 0.12229 0.1198787 0.1151041
 0.1076979 0.09854345 0.08936425 0.08173373 0.07637846 0.07318918 0.07155578 0.07072207 0.07016284 0.06983806
 0.07007594 0.07118009 0.0731694 0.07586105 0.07905309 0.08250251 0.08582713 0.08864764 0.09085722 0.09260988
 0.09402959 0.09505712 0.09558448 0.09561148 0.09523906 0.09459688 0.09381104 0.09297237 0.09207349 0.09101813
 0.08978735 0.08859032 0.0877386 0.08734719 0.08725952 0.08726908 0.08729164 0.08731595 0.08731878 0.08727121
 0.08717398 0.08708917 0.08714359 0.08743528 0.08791347 0.08840332 0.08875217 0.08892639 0.08898887 0.08897789
 0.08878369 0.08824044 0.08742386 0.08668505 0.08620119 0.08566082 0.08466292 0.08333297 0.08227435 0.08192693
 0.08217292 0.08256162 0.08273313 0.08260107 0.08232194 0.08220541 0.08251243 0.08316299 0.0837059 0.08373359
</values></Ydata></ScRf><Data_Parameters_AB><parameter name="DPF">1</parameter><parameter name="NPT">3497</parameter><parameter name="FXV">3996</parameter><parameter name="LXV">500</parameter><parameter name="CSF">1</parameter><parameter name="MXY">0.0685836672782898</parameter><parameter name="MNY">-0.0868409350514412</parameter><parameter name="DAT">30/05/2022</parameter><parameter name="TIM">12:01:45.631 (GMT+2)</parameter><parameter name="DXU">WN</parameter></Data_Parameters_AB><AB__Qtest><MainReport name="Quality Test Report"><Header><Line><Legend>Test result ok/not ok [1/0]: </Legend><Value>0</Value></Line><Line><Legend>Method file: </Legend><Value>C:\Users\Public\Documents\Bruker\OPUS_8.2.28\QT\IRBT_v3_default.QT</Value></Line></Header><Matrix><Line><Legend></Legend><Legend>min</Legend><Legend>max</Legend><Legend>measured</Legend></Line><Line><Value>Absorption (X-Range 1):</Value><Value>0.400000</Value><Value>2.000000</Value><Value>0.091476</Value></Line><Line><Value>Noise (X-Range 4):</Value><Value></Value><Value>0.000300</Value><Value>0.000055</Value></Line><Line><Value>Signal/Noise (X-Range 2):</Value><Value>200.000000</Value><Value></Value><Value>21.237953</Value></Line><Line><Value>Signal/Noise (X-Range 3):</Value><Value>40.000000</Value><Value></Value><Value>17.911865</Value></Line><Line><Value>Water vapour (X-Range 5):</Value><Value></Value><Value>0.000300</Value><Value>0.000057</Value></Line><Line><Value>Signal/Water (X-Range 2):</Value><Value>100.000000</Value><Value></Value><Value>20.325572</Value></Line><Line><Value>Signal/Water (X-Range 3):</Value><Value>20.000000</Value><Value></Value><Value>17.142373</Value></Line><Line><Value>Fringes (X-Range 6):</Value><Value></Value><Value>0.000100</Value><Value>0.000064</Value></Line></Matrix></MainReport></AB__Qtest><Data_Parameters_ScSm><parameter name="DPF">1</parameter><parameter name="NPT">1814</parameter><parameter name="FXV">3996.33169228125</parameter><parameter name="LXV">499.541461535156</parameter><parameter name="CSF">1</parameter><parameter name="MXY">0.269624978303909</parameter><parameter name="MNY">0.0366850420832634</parameter><parameter name="DAT">30/05/2022</parameter><parameter name="TIM">12:01:45.631 (GMT+2)</parameter><parameter name="DXU">WN</parameter></Data_Parameters_ScSm><Data_Parameters_ScRf><parameter name="DPF">1</parameter><parameter name="NPT">1820</parameter><parameter name="FXV">4004.04661832813</parameter><parameter name="LXV">495.683998511719</parameter><parameter name="CSF">1</parameter><parameter name="MXY">0.264373242855072</parameter><parameter name="MNY">0.0315179452300072</parameter><parameter name="DAT">30/05/2022</parameter><parameter name="TIM">12:01:18.549 (GMT+2)</parameter><parameter name="DXU">WN</parameter></Data_Parameters_ScRf><Optic_Parameters_Rf><parameter name="APR">0</parameter><parameter name="APT">Open</parameter><parameter name="BMS">KBr</parameter><parameter name="DTC">RT-DLaTGS_IR-Biotyper [Microplate reader]</parameter><parameter name="HPF">0</parameter><parameter name="LPF">10.0</parameter><parameter name="LPV">4000</parameter><parameter name="PGR">0</parameter><parameter name="RCH">Module port</parameter><parameter name="RDX">0</parameter><parameter name="SRC">MIR</parameter><parameter name="VEL">10.0</parameter><parameter name="SON">Off</parameter></Optic_Parameters_Rf><Acquisition_Parameters_Rf><parameter name="ADT">1</parameter><parameter name="AQM">DD</parameter><parameter name="CFE">0</parameter><parameter name="COR">0</parameter><parameter name="DEL">0</parameter><parameter name="DLY">0</parameter><parameter name="HFW">8000</parameter><parameter name="LFW">0</parameter><parameter name="NSR">32</parameter><parameter name="PLF">AB</parameter><parameter name="RES">6</parameter><parameter name="RGN">-1</parameter><parameter name="STR">0</parameter><parameter name="TCL">MakeCompatibleScalar (0, {WSV=1.000000, ARV=0});</parameter><parameter name="TDL">37</parameter><parameter name="RPO">0</parameter></Acquisition_Parameters_Rf><FT_-_Parameters_Rf><parameter name="APF">B3</parameter><parameter name="HFQ">500</parameter><parameter name="LFQ">4000</parameter><parameter name="NLI">0</parameter><parameter name="PHR">24</parameter><parameter name="PHZ">ML</parameter><parameter name="SPZ">NO</parameter><parameter name="ZFF">1</parameter></FT_-_Parameters_Rf><Optic_Parameters_><parameter name="APR">0</parameter><parameter name="APT">Open</parameter><parameter name="BMS">KBr</parameter><parameter name="CHN">Module port</parameter><parameter name="DTC">RT-DLaTGS_IR-Biotyper [Microplate reader]</parameter><parameter name="HPF">0</parameter><parameter name="LPF">10.0</parameter><parameter name="LPV">4000</parameter><parameter name="PGN">0</parameter><parameter name="RDX">0</parameter><parameter name="SRC">MIR</parameter><parameter name="VEL">10.0</parameter><parameter name="SON">Off</parameter></Optic_Parameters_><FT_-_Parameters_><parameter name="APF">B3</parameter><parameter name="HFQ">500</parameter><parameter name="LFQ">4000</parameter><parameter name="NLI">0</parameter><parameter name="PHR">24</parameter><parameter name="PHZ">ML</parameter><parameter name="SPZ">NO</parameter><parameter name="ZFF">1</parameter></FT_-_Parameters_><Acquisition_Parameters_><parameter name="ADT">1</parameter><parameter name="AQM">DD</parameter><parameter name="CFE">0</parameter><parameter name="COR">0</parameter><parameter name="DEL">0</parameter><parameter name="DLY">0</parameter><parameter name="HFW">8000</parameter><parameter name="LFW">0</parameter><parameter name="NSS">32</parameter><parameter name="PLF">AB</parameter><parameter name="RES">6</parameter><parameter name="SOT">0</parameter><parameter name="TCL">MakeCompatibleScalar (0, {WSV=1.000000, ARV=0});</parameter><parameter name="TDL">37</parameter><parameter name="SPO">0</parameter><parameter name="SGN">-1</parameter></Acquisition_Parameters_><Instrument_Parameters_Rf><parameter name="HFL">15800.168544</parameter><parameter name="LFL">0</parameter><parameter name="LWN">15800.168544</parameter><parameter name="ABP">32197</parameter><parameter name="SSP">1</parameter><parameter name="ARG">2</parameter><parameter name="ASG">2</parameter><parameter name="ASS">32</parameter><parameter name="GFW">16</parameter><parameter name="GBW">16</parameter><parameter name="BFW">0</parameter><parameter name="BBW">0</parameter><parameter name="PKA">7268</parameter><parameter name="PKL">4996</parameter><parameter name="PRA">7461</parameter><parameter name="PRL">5001</parameter><parameter name="P2A">1</parameter><parameter name="P2L">1</parameter><parameter name="P2R">1</parameter><parameter name="P2K">1</parameter><parameter name="DAQ">0</parameter><parameter name="AG2">1</parameter><parameter name="SSM">1</parameter><parameter name="RSN">25282</parameter><parameter name="CRR">0</parameter><parameter name="SRT">1653912078.549</parameter><parameter name="DUR">19.6369934082031</parameter><parameter name="TSC">28.1</parameter><parameter name="MVD">4.56907224655151</parameter><parameter name="AN1">0.225824077355349</parameter><parameter name="AN2">0</parameter><parameter name="VSN">2.485 Apr  4 2017</parameter><parameter name="SRN">0085</parameter><parameter name="CAM">0</parameter><parameter name="INS">IR-Biotyper</parameter><parameter name="FOC">69</parameter><parameter name="RDY">1</parameter><parameter name="ARS">32</parameter></Instrument_Parameters_Rf><Sample_Parameters_><parameter name="BLD"></parameter><parameter name="CNM">Admin</parameter><parameter name="CPY"></parameter><parameter name="DPM"></parameter><parameter name="EXP">IRBT_v3_32Scans.XPM</parameter><parameter name="LCT"></parameter><parameter name="SFM">Microplate, HTS-XT</parameter><parameter name="SNM">220530-1021_SPB34F (D_2_2)_H8_ff49dd74-9f2c-49ea-a549-160427f14b2e.0</parameter><parameter name="XPP">C:\Users\Public\Documents\Bruker\OPUS_8.2.28\XPM</parameter><parameter name="IST">OK</parameter><parameter name="CPG">1252</parameter><parameter name="UID">e8e02a64-b97e-42b1-ade0-0341b5edcad2</parameter></Sample_Parameters_><Instrument_Parameters_><parameter name="HFL">15800.168544</parameter><parameter name="LFL">0</parameter><parameter name="LWN">15800.168544</parameter><parameter name="ABP">32197</parameter><parameter name="SSP">1</parameter><parameter name="ASG">2</parameter><parameter name="ARG">2</parameter><parameter name="ASS">32</parameter><parameter name="GFW">16</parameter><parameter name="GBW">16</parameter><parameter name="BFW">0</parameter><parameter name="BBW">0</parameter><parameter name="PKA">7744</parameter><parameter name="PKL">4988</parameter><parameter name="PRA">8066</parameter><parameter name="PRL">4993</parameter><parameter name="P2A">1</parameter><parameter name="P2L">1</parameter><parameter name="P2R">1</parameter><parameter name="P2K">1</parameter><parameter name="DAQ">0</parameter><parameter name="AG2">1</parameter><parameter name="SSM">1</parameter><parameter name="RSN">13267</parameter><parameter name="CRR">0</parameter><parameter name="SRT">1653912105.631</parameter><parameter name="DUR">19.6379852294922</parameter><parameter name="TSC">28.1</parameter><parameter name="MVD">0.338618040084839</parameter><parameter name="AN1">0.225821443694587</parameter><parameter name="AN2">0</parameter><parameter name="VSN">2.485 Apr  4 2017</parameter><parameter name="SRN">0085</parameter><parameter name="CAM">0</parameter><parameter name="INS">IR-Biotyper</parameter><parameter name="FOC">69</parameter><parameter name="RDY">1</parameter></Instrument_Parameters_><History/></OPUSDataFile>
