<?xml version="1.0" encoding="UTF-8" ?>
<OPUSDataFile><AB><Ydata ylabel="Absorbance Units"><values byteorder="INTEL" format="FLOAT32" numvalues="3497"> -0.0825683 -0.0825891 -0.08261019 -0.08263198 -0.08264842 -0.08265921 -0.08265945 -0.0826499 -0.08263868 -0.08262751
 -0.08263176 -0.08264977 -0.08268511 -0.08273251 -0.08278066 -0.08282793 -0.08286515 -0.08289701 -0.08292568 -0.08295415
 -0.08298735 -0.08302015 -0.08305155 -0.08307568 -0.08308905 -0.08309355 -0.08308847 -0.08307934 -0.08306725 -0.08305328
 -0.0830378 -0.08301788 -0.08299337 -0.08296455 -0.08293196 -0.08290255 -0.08287693 -0.08286274 -0.08285876 -0.08286493
 -0.08287929 -0.08289625 -0.08291721 -0.08294112 -0.08297174 -0.08301472 -0.08306697 -0.0831307 -0.08319332 -0.08324878
 -0.08328809 -0.08330467 -0.08330312 -0.08328241 -0.08325276 -0.08321558 -0.08317792 -0.08314033 -0.08311092 -0.08309019
 -0.08308945 -0.08310853 -0.08314896 -0.08320805 -0.08326991 -0.08333316 -0.08338261 -0.0834227 -0.08345647 -0.0834884
 -0.08352926 -0.08357552 -0.08362932 -0.08368058 -0.08372237 -0.08374658 -0.08374592 -0.08372045 -0.08366655 -0.08359487
 -0.08350515 -0.08341795 -0.08333557 -0.0832796 -0.08325259 -0.08326595 -0.08332048 -0.08341376 -0.08354464 -0.08369891
 -0.0838729 -0.08403905 -0.08419141 -0.0842913 -0.08434074 -0.08431949 -0.08424657 -0.08414321 -0.08402814 -0.08393513
 -0.08386248 -0.0838251 -0.08379927 -0.08377714 -0.08373629 -0.08366067 -0.08356427 -0.08344194 -0.08334018 -0.08326633
 -0.08325018 -0.08329836 -0.0833874 -0.08351647 -0.08363239 -0.08373439 -0.08379994 -0.0838348 -0.08386384 -0.08389188
 -0.08395267 -0.08404034 -0.08416117 -0.08429849 -0.08442688 -0.08453494 -0.0845943 -0.08461615 -0.08459742 -0.08455895
 -0.08451233 -0.08446813 -0.08443274 -0.08441136 -0.08440491 -0.08442431 -0.08447152 -0.08455515 -0.08467872 -0.08481645
 -0.08496751 -0.0850445 -0.08504544 -0.08491744 -0.08467702 -0.08440692 -0.08411805 -0.08389767 -0.0837386 -0.08366639
 -0.08367122 -0.08375179 -0.08388978 -0.08406932 -0.08425823 -0.08442528 -0.08454982 -0.08460392 -0.08460974 -0.084566
 -0.08450888 -0.08445148 -0.08439482 -0.08434224 -0.08427969 -0.08420443 -0.08412806 -0.08405095 -0.08400215 -0.08398193
 -0.08399961 -0.08405119 -0.08411568 -0.08418862 -0.08424132 -0.08427396 -0.08427168 -0.08423886 -0.084174 -0.0840878
 -0.08398905 -0.08389605 -0.08382615 -0.08379293 -0.0838118 -0.0838775 -0.08399599 -0.08414084 -0.08430915 -0.08446576
 -0.08460401 -0.08470332 -0.08475984 -0.08477492 -0.08474831 -0.0846913 -0.08460467 -0.08450135 -0.08438239 -0.08426072
 -0.08413737 -0.08402297 -0.08391828 -0.08383117 -0.08376041 -0.08370867 -0.08367116 -0.08364418 -0.08362088 -0.0835937
 -0.08356039 -0.08351567 -0.08346662 -0.08341338 -0.08336791 -0.0833335 -0.08331755 -0.0833226 -0.08334681 -0.08339057
 -0.08344799 -0.08351877 -0.08359715 -0.08368246 -0.08376364 -0.083839 -0.08389036 -0.08391884 -0.0839165 -0.08389122
 -0.08385888 -0.08382629 -0.08381541 -0.08382176 -0.08384988 -0.08389027 -0.08393271 -0.08398297 -0.08403729 -0.08411757
 -0.08423449 -0.08439106 -0.08459793 -0.08481134 -0.08502818 -0.08519319 -0.08529782 -0.08533516 -0.08530402 -0.08521655
 -0.08507305 -0.08487451 -0.08462618 -0.08436253 -0.08409366 -0.08388092 -0.08372391 -0.08365811 -0.08366514 -0.08373453
 -0.08383395 -0.08391555 -0.08396924 -0.08396128 -0.08392121 -0.08385688 -0.08379334 -0.08374661 -0.08371301 -0.08369727
 -0.08367851 -0.08365367 -0.08360757 -0.08353665 -0.08345007 -0.08334786 -0.08325656 -0.08317751 -0.08313548 -0.08312976
 -0.08317007 -0.0832498 -0.08335124 -0.08346093 -0.08353131 -0.08356206 -0.08352336 -0.08343998 -0.08333256 -0.08321639
 -0.08311754 -0.08302389 -0.08293711 -0.08283916 -0.08271889 -0.08258262 -0.08242586 -0.08227796 -0.08214391 -0.08204217
 -0.08197728 -0.08193745 -0.08192275 -0.08189735 -0.08185957 -0.08177611 -0.08165062 -0.08149131 -0.08130714 -0.08114024
 -0.08099364 -0.0808976 -0.08084894 -0.08085781 -0.08091463 -0.08101687 -0.08113997 -0.08126645 -0.08136356 -0.08140321
 -0.08137973 -0.08127899 -0.08112595 -0.08092644 -0.08069115 -0.08042376 -0.08012276 -0.07978702 -0.07943065 -0.07905427
 -0.07867812 -0.07830334 -0.07794864 -0.07761618 -0.07733154 -0.07709541 -0.07692824 -0.07682082 -0.07676125 -0.07673532
 -0.07670908 -0.07668024 -0.0766321 -0.07656653 -0.07648566 -0.07637168 -0.07621413 -0.0760014 -0.07571597 -0.07539733
 -0.07505066 -0.07472018 -0.07441828 -0.07414847 -0.07391445 -0.07369262 -0.07348163 -0.0732624 -0.07303526 -0.07281087
 -0.07259182 -0.07240641 -0.07224886 -0.07211661 -0.07198795 -0.07179917 -0.07154249 -0.07115676 -0.07068997 -0.0701765
 -0.06966545 -0.06922294 -0.06884322 -0.06854814 -0.06829917 -0.06808699 -0.06787452 -0.06764564 -0.06739779 -0.06712492
 -0.06685243 -0.06658405 -0.06632355 -0.06607246 -0.06579383 -0.06548596 -0.06511423 -0.06468341 -0.06421331 -0.0637131
 -0.06323498 -0.06277867 -0.06237215 -0.06200609 -0.06167643 -0.06137384 -0.06108437 -0.06080261 -0.06051851 -0.06023107
 -0.05993713 -0.05963637 -0.05933089 -0.05900833 -0.05866808 -0.05828734 -0.05785853 -0.05738692 -0.05686739 -0.05636049
 -0.05586978 -0.05545306 -0.05511079 -0.05483533 -0.05462048 -0.05441407 -0.05421189 -0.05396569 -0.05368103 -0.05334527
 -0.05297351 -0.05258832 -0.05220137 -0.05184104 -0.05150174 -0.05119333 -0.05089179 -0.05058619 -0.0502541 -0.04987779
 -0.04946787 -0.04901892 -0.04856835 -0.04812269 -0.04770742 -0.04732832 -0.04698004 -0.04666328 -0.04635112 -0.04604226
 -0.04571264 -0.04536275 -0.04498592 -0.04458335 -0.04415619 -0.04370582 -0.04323398 -0.04274773 -0.0422592 -0.04177967
 -0.04133145 -0.04091474 -0.04054126 -0.04019623 -0.03987316 -0.03956225 -0.03925483 -0.038958 -0.03867174 -0.03840518
 -0.03816244 -0.03793408 -0.03772155 -0.03749473 -0.03725188 -0.03696042 -0.03661964 -0.0362241 -0.03577852 -0.03531848
 -0.03485025 -0.0344237 -0.03403519 -0.03370397 -0.03341445 -0.03314552 -0.03288453 -0.03260172 -0.0323023 -0.03197727
 -0.03164504 -0.0313164 -0.03099922 -0.03070436 -0.03041471 -0.03012923 -0.02982392 -0.02949165 -0.02913164 -0.02874106
 -0.02834156 -0.02793452 -0.02753682 -0.02714882 -0.02677 -0.02640015 -0.0260363 -0.02568057 -0.02534124 -0.02501999
 -0.02472808 -0.02446105 -0.02421727 -0.02398759 -0.02375789 -0.02352462 -0.02327766 -0.02302199 -0.02275874 -0.02248951
 -0.02221671 -0.02193495 -0.02164113 -0.02134087 -0.02103247 -0.02073685 -0.02045771 -0.02019848 -0.01996105 -0.0197099
 -0.01944313 -0.01912055 -0.01874506 -0.01832177 -0.01786125 -0.0174154 -0.01699084 -0.01663803 -0.01634765 -0.0161292
 -0.0159611 -0.01581681 -0.01568235 -0.01553095 -0.01536901 -0.01519193 -0.01501118 -0.01483403 -0.01465528 -0.01447621
 -0.01428429 -0.01407566 -0.01385183 -0.01361171 -0.0133659 -0.01311523 -0.0128638 -0.01261178 -0.01236105 -0.01211197
 -0.01187019 -0.01163378 -0.01139806 -0.0111582 -0.01089554 -0.01061123 -0.01029488 -0.009959308 -0.009616849 -0.009281485
 -0.008973178 -0.008693668 -0.008452027 -0.00823933 -0.008053656 -0.007887807 -0.007738329 -0.007605288 -0.007488576 -0.007386515
 -0.007299843 -0.007217999 -0.007140534 -0.007052446 -0.006953022 -0.006831322 -0.006687175 -0.006513977 -0.006312691 -0.006082296
 -0.005827869 -0.0055621 -0.005293814 -0.005048386 -0.004827698 -0.004649896 -0.004499594 -0.004371483 -0.004242138 -0.004091275
 -0.00391437 -0.003698035 -0.003469115 -0.00323098 -0.003016446 -0.002836215 -0.002690133 -0.002582322 -0.002481023 -0.002383756
 -0.002272682 -0.002147772 -0.002032494 -0.001928732 -0.001866527 -0.001840753 -0.001843935 -0.001866273 -0.001872126 -0.001859899
 -0.001806306 -0.001721399 -0.001608639 -0.001480373 -0.001351043 -0.001225673 -0.001114874 -0.001009802 -0.0009124682 -0.0008005173
 -0.000666911 -0.0004973583 -0.0002824861 -4.706298E-05 0.0002108537 0.0004317862 0.0006110294 0.0007064606 0.0007171109 0.0006633112
 0.0005506596 0.0004425217 0.0003401683 0.0002859724 0.0002706959 0.0002867257 0.000328034 0.0003742833 0.0004341977 0.0005126262
 0.0006155227 0.0007579809 0.0009194929 0.001094484 0.001252443 0.001372662 0.001455925 0.001491975 0.001516867 0.001536427
 0.00157906 0.001652392 0.001745767 0.001860218 0.001958787 0.002039685 0.002072496 0.00205841 0.001995442 0.001889837
 0.001770011 0.001644205 0.001553859 0.001501127 0.00151453 0.001581944 0.001702827 0.001851203 0.002002467 0.002132098
 0.002211393 0.002241768 0.002209704 0.002149745 0.002067226 0.00200324 0.001969026 0.001981476 0.002045607 0.00215753
 0.002317215 0.002523579 0.002776518 0.003075596 0.003417696 0.003774543 0.004136624 0.004440358 0.004679115 0.004792254
 0.004793493 0.004673285 0.004471159 0.004237099 0.004013122 0.003867219 0.003802568 0.003854874 0.003972042 0.004145353
 0.004303525 0.004418887 0.004457114 0.004399722 0.004269357 0.004063368 0.003833929 0.003585213 0.003354389 0.003143089
 0.002954804 0.002788356 0.00263158 0.002485592 0.002349103 0.002226205 0.0021307 0.002062593 0.00203278 0.002028771
 0.002041833 0.002046318 0.002014361 0.001922221 0.001739746 0.001470845 0.001101583 0.0006728497 0.0001907638 -0.0002923918
 -0.0007633995 -0.00119222 -0.001571244 -0.001898217 -0.002171557 -0.00240485 -0.002598937 -0.002779319 -0.002947551 -0.003131035
 -0.003327317 -0.003539424 -0.003760448 -0.003966752 -0.004159781 -0.004326305 -0.004482828 -0.004648802 -0.004836843 -0.005073539
 -0.005345871 -0.005658417 -0.005978421 -0.006292052 -0.00657181 -0.006802969 -0.006981784 -0.007100236 -0.007187023 -0.007241526
 -0.007318426 -0.007422199 -0.007597073 -0.007845013 -0.008158134 -0.008531674 -0.008909944 -0.009288775 -0.009614266 -0.009891971
 -0.01010932 -0.0102793 -0.01042427 -0.01055399 -0.01069462 -0.01084629 -0.01102022 -0.01120947 -0.01141255 -0.01162313
 -0.01183748 -0.01205246 -0.01226669 -0.01247648 -0.01268082 -0.01287686 -0.01306329 -0.01324473 -0.01342104 -0.01360372
 -0.01379335 -0.01399759 -0.01421589 -0.01444475 -0.01468242 -0.01491771 -0.01514908 -0.01536533 -0.01556653 -0.01574644
 -0.01590828 -0.01605279 -0.01618702 -0.01631749 -0.01645333 -0.01660322 -0.016773 -0.01696965 -0.01718865 -0.01743204
 -0.01768542 -0.01794601 -0.01820241 -0.01845157 -0.01869505 -0.01893246 -0.01917051 -0.01940949 -0.01964869 -0.01988761
 -0.02011985 -0.02034573 -0.02056351 -0.02077452 -0.0209829 -0.02118835 -0.02139281 -0.02159397 -0.02178867 -0.0219763
 -0.02215357 -0.02232501 -0.02249299 -0.02266107 -0.02283478 -0.02300392 -0.02316849 -0.02330878 -0.02341716 -0.02349732
 -0.02354372 -0.02360386 -0.02368044 -0.02382893 -0.02405223 -0.02435465 -0.02473142 -0.02512634 -0.02553267 -0.02588123
 -0.02617448 -0.02638013 -0.0265138 -0.02659157 -0.02663601 -0.02669043 -0.02676771 -0.02690432 -0.02708626 -0.02732023
 -0.02757197 -0.02782408 -0.02805796 -0.02825806 -0.0284403 -0.02860515 -0.0287712 -0.0289451 -0.0291082 -0.02926113
 -0.02935948 -0.02940091 -0.02936907 -0.02926782 -0.02913957 -0.0289934 -0.02890487 -0.02887606 -0.02895992 -0.02914035
 -0.02941158 -0.02974474 -0.0300902 -0.03043069 -0.0307222 -0.03097653 -0.03118628 -0.03137354 -0.03155211 -0.03172149
 -0.03188697 -0.03203325 -0.0321539 -0.03225902 -0.03234636 -0.03245044 -0.0325757 -0.03272744 -0.03290618 -0.03306598
 -0.03320465 -0.03327852 -0.03329362 -0.03326167 -0.03319384 -0.03313837 -0.03309592 -0.03309557 -0.03312402 -0.03317262
 -0.03322956 -0.03327341 -0.03331232 -0.03333963 -0.03338494 -0.03346099 -0.03359374 -0.03380154 -0.03407112 -0.03441043
 -0.03476021 -0.03511461 -0.03541069 -0.03563951 -0.03579253 -0.0358687 -0.03592573 -0.0359678 -0.0360674 -0.03622178
 -0.03645511 -0.03675349 -0.03708107 -0.03742444 -0.03773103 -0.03800229 -0.03821386 -0.03838094 -0.03851085 -0.03861855
 -0.0387196 -0.0388183 -0.03892279 -0.03902683 -0.03913085 -0.03922467 -0.03930467 -0.03937009 -0.03941761 -0.0394689
 -0.03952454 -0.0396194 -0.03975557 -0.03994315 -0.04017935 -0.04042687 -0.04068087 -0.04088927 -0.04105764 -0.04117486
 -0.04125744 -0.04134168 -0.04143411 -0.04156853 -0.04172639 -0.04190296 -0.04207023 -0.04220174 -0.04228818 -0.04231401
 -0.0422907 -0.04221933 -0.04210942 -0.04196504 -0.04178328 -0.04156369 -0.04130635 -0.04100943 -0.04069694 -0.04036996
 -0.04007947 -0.03982848 -0.03967153 -0.03960684 -0.03965477 -0.03980357 -0.04002332 -0.04029861 -0.04057613 -0.04084967
 -0.04108313 -0.04128161 -0.04143719 -0.04155619 -0.04164173 -0.04169686 -0.04172328 -0.04172564 -0.04170481 -0.04166931
 -0.04162137 -0.04156716 -0.04150908 -0.04144287 -0.04136964 -0.04126871 -0.04113911 -0.04094719 -0.04069177 -0.04034768
 -0.03991855 -0.03941274 -0.03883873 -0.03823297 -0.03760037 -0.03697288 -0.03634715 -0.03573207 -0.03512232 -0.03451454
 -0.03390615 -0.03329523 -0.03267609 -0.03204711 -0.03139672 -0.03071931 -0.03001097 -0.029266 -0.02850321 -0.02772202
 -0.02695897 -0.02621712 -0.02553027 -0.02490069 -0.02434431 -0.02386107 -0.02345124 -0.02311453 -0.02284984 -0.02265678
 -0.0225367 -0.02248204 -0.02248056 -0.02251111 -0.0225351 -0.02252871 -0.02244486 -0.02228108 -0.02201414 -0.02166729
 -0.02124663 -0.02077405 -0.02026283 -0.01971064 -0.01912095 -0.01847971 -0.01778396 -0.01703119 -0.01621963 -0.01536342
 -0.01446305 -0.01354767 -0.01261993 -0.01172498 -0.0108662 -0.0100902 -0.009394851 -0.008799289 -0.008294067 -0.007863906
 -0.007504036 -0.007192843 -0.006946938 -0.00676805 -0.006701002 -0.006774758 -0.007050382 -0.007569763 -0.008373034 -0.009496666
 -0.01091021 -0.0126297 -0.01453284 -0.01661247 -0.01869608 -0.02076639 -0.02268342 -0.02443679 -0.02597863 -0.0273111
 -0.0284701 -0.0294623 -0.0303496 -0.03113444 -0.03185834 -0.03252139 -0.03314252 -0.03372611 -0.03428746 -0.03483218
 -0.03537511 -0.03591307 -0.03645083 -0.03697589 -0.0374827 -0.03796071 -0.03840394 -0.038809 -0.03917417 -0.03949697
 -0.0397776 -0.04000846 -0.04018943 -0.0403069 -0.0403601 -0.04033272 -0.04022489 -0.04003556 -0.03977065 -0.03946735
 -0.0391372 -0.03884714 -0.03860106 -0.03844897 -0.03837377 -0.03837416 -0.03841665 -0.0384615 -0.03847844 -0.03842711
 -0.03829538 -0.03806217 -0.03773616 -0.03731282 -0.03681557 -0.03624762 -0.03563728 -0.03498812 -0.03433065 -0.03366569
 -0.03304457 -0.0324692 -0.03204347 -0.03177536 -0.03181294 -0.03215977 -0.03292452 -0.03408178 -0.03560358 -0.03742941
 -0.03939453 -0.04143794 -0.0433686 -0.04517268 -0.04674513 -0.04812859 -0.04931922 -0.05037563 -0.05133438 -0.05222393
 -0.05306836 -0.05386131 -0.05460604 -0.05529034 -0.05591078 -0.05647084 -0.05696944 -0.0574231 -0.05783277 -0.05821459
 -0.05856904 -0.05890397 -0.05921919 -0.05951693 -0.05979732 -0.0600624 -0.06031188 -0.06054653 -0.06076477 -0.06096355
 -0.06114314 -0.06130051 -0.06144289 -0.06157353 -0.06170451 -0.06184458 -0.06199899 -0.06217493 -0.06236111 -0.06255825
 -0.06274386 -0.06291381 -0.0630533 -0.06315876 -0.06323783 -0.06329045 -0.06333912 -0.06338465 -0.06344164 -0.06350864
 -0.06358109 -0.06365814 -0.06373192 -0.06380676 -0.06388986 -0.06398647 -0.06411231 -0.0642629 -0.06444223 -0.06463508
 -0.06483033 -0.06501377 -0.06517267 -0.06530309 -0.0653992 -0.0654659 -0.06550179 -0.06552 -0.06552092 -0.06552664
 -0.06553937 -0.06557912 -0.0656478 -0.06574497 -0.06586972 -0.06600104 -0.06613725 -0.06625548 -0.06635665 -0.0664316
 -0.06648389 -0.06651767 -0.06653749 -0.06655383 -0.06656909 -0.06659204 -0.06661904 -0.06665123 -0.06668049 -0.06670167
 -0.06671101 -0.06670371 -0.06668691 -0.06666012 -0.06663749 -0.06662136 -0.06662309 -0.06664483 -0.06668758 -0.06675188
 -0.06682619 -0.0669098 -0.06698816 -0.06706157 -0.06712516 -0.06718104 -0.06723612 -0.06729105 -0.06735263 -0.06741688
 -0.06748059 -0.0675371 -0.06757552 -0.06759398 -0.06758386 -0.0675555 -0.06750967 -0.06746639 -0.06743385 -0.06742748
 -0.06745546 -0.0675152 -0.06760941 -0.0677209 -0.06784833 -0.06797466 -0.06809852 -0.06821097 -0.06831176 -0.06839845
 -0.06847138 -0.06853159 -0.06858001 -0.06862102 -0.06865577 -0.06868989 -0.06872336 -0.06875924 -0.06879593 -0.06883246
 -0.06886781 -0.06889993 -0.06893072 -0.06896036 -0.06899198 -0.06902765 -0.06906648 -0.06910944 -0.06915116 -0.06919057
 -0.06922502 -0.06925361 -0.06927996 -0.06930421 -0.06933143 -0.06936167 -0.06939489 -0.06943039 -0.06946282 -0.06949122
 -0.06950788 -0.06951348 -0.06950427 -0.06948522 -0.06946284 -0.06944478 -0.0694449 -0.06946531 -0.06951527 -0.06958646
 -0.06967735 -0.06977691 -0.0698792 -0.06998049 -0.07007823 -0.07017276 -0.07026452 -0.0703491 -0.07042632 -0.07048929
 -0.0705373 -0.07057101 -0.07059072 -0.07060498 -0.07061428 -0.07062645 -0.07064106 -0.0706602 -0.07068358 -0.07071117
 -0.07074375 -0.07078319 -0.07082948 -0.07088425 -0.07094474 -0.0710096 -0.07107459 -0.07113657 -0.07119298 -0.07124154
 -0.07128275 -0.07131599 -0.07134385 -0.07136642 -0.07138783 -0.07140848 -0.07143244 -0.0714601 -0.07149288 -0.07153074
 -0.07157132 -0.07161425 -0.0716553 -0.07169455 -0.07172979 -0.07176217 -0.07179391 -0.07182609 -0.07186266 -0.07190212
 -0.07194515 -0.07198679 -0.07202248 -0.07204899 -0.07206085 -0.07206406 -0.0720579 -0.07205618 -0.07206295 -0.07208771
 -0.07213473 -0.07219812 -0.07227883 -0.07235943 -0.07243877 -0.07250199 -0.0725487 -0.07257681 -0.07258744 -0.07258916
 -0.07258315 -0.07257956 -0.07257804 -0.07258337 -0.07259343 -0.07260649 -0.07262015 -0.07262964 -0.07263559 -0.07263583
 -0.07263488 -0.07263482 -0.07263991 -0.07265363 -0.07267405 -0.07270221 -0.07273142 -0.0727604 -0.07278482 -0.07280362
 -0.07281815 -0.07282837 -0.07283729 -0.07284503 -0.0728528 -0.07286049 -0.07286748 -0.0728739 -0.07288004 -0.07288653
 -0.07289512 -0.07290661 -0.07292368 -0.07294615 -0.07297568 -0.07300948 -0.07304638 -0.07308109 -0.07310971 -0.07312892
 -0.0731349 -0.07313166 -0.07311857 -0.07310467 -0.07309192 -0.07308534 -0.07308632 -0.07309271 -0.07310447 -0.07311921
 -0.07313686 -0.07315822 -0.07318292 -0.07320833 -0.07323299 -0.07324787 -0.07325302 -0.07324232 -0.0732201 -0.07319164
 -0.07316218 -0.07314257 -0.07313225 -0.07313622 -0.07314724 -0.07316216 -0.07317457 -0.07317942 -0.07317855 -0.07317054
 -0.0731626 -0.07315636 -0.07315503 -0.07315981 -0.07316689 -0.07317609 -0.07318322 -0.07318819 -0.07319244 -0.07319643
 -0.0732052 -0.07321855 -0.07323866 -0.07326398 -0.07329132 -0.07331873 -0.07334021 -0.073356 -0.07336261 -0.07336455
 -0.07336429 -0.07336775 -0.07338079 -0.07340325 -0.07343818 -0.07347748 -0.0735196 -0.07355661 -0.07358585 -0.07360702
 -0.07361929 -0.07362745 -0.07363177 -0.0736368 -0.07364271 -0.07365037 -0.07365934 -0.07366574 -0.07366885 -0.07366252
 -0.0736476 -0.07362244 -0.0735908 -0.07355972 -0.07353216 -0.07351686 -0.07351099 -0.07351597 -0.07352512 -0.07353338
 -0.073539 -0.0735383 -0.07353763 -0.07353834 -0.07354518 -0.07356054 -0.07357995 -0.07360351 -0.07362321 -0.07363818
 -0.0736472 -0.07365027 -0.07365184 -0.07365185 -0.07365179 -0.07365105 -0.07364714 -0.07364009 -0.07362839 -0.07361323
 -0.07359624 -0.07357884 -0.07356371 -0.07355209 -0.07354616 -0.0735467 -0.07355535 -0.07357077 -0.07359348 -0.07361925
 -0.07364722 -0.07367247 -0.07369374 -0.07370831 -0.0737154 -0.07371561 -0.07370879 -0.07369882 -0.07368591 -0.07367457
 -0.07366481 -0.07365839 -0.07365481 -0.07365241 -0.07365055 -0.07364637 -0.07363945 -0.07362732 -0.07361025 -0.07358694
 -0.0735596 -0.07352945 -0.0735 -0.07347434 -0.07345391 -0.07344105 -0.07343264 -0.07342845 -0.07342437 -0.07341899
 -0.07341244 -0.07340426 -0.07339792 -0.07339378 -0.07339256 -0.07339421 -0.07339454 -0.07339337 -0.07338709 -0.0733762
 -0.07336134 -0.07334331 -0.07332521 -0.07330722 -0.07329125 -0.07327725 -0.07326621 -0.07325728 -0.07325062 -0.07324343
 -0.07323386 -0.07321971 -0.0731985 -0.07317288 -0.07314251 -0.0731132 -0.0730864 -0.07306471 -0.07304904 -0.07303745
 -0.07302988 -0.07302397 -0.07301961 -0.07301619 -0.07301384 -0.07301365 -0.07301616 -0.0730246 -0.07303985 -0.07306642
 -0.07310481 -0.0731583 -0.07322703 -0.07331191 -0.07341488 -0.07353739 -0.07368377 -0.07385731 -0.07406184 -0.07430107
 -0.074573 -0.07487919 -0.07521046 -0.07556475 -0.07593672 -0.076324 -0.07673575 -0.0771725 -0.07764491 -0.07815316
 -0.07867211 -0.07919633 -0.07965776 -0.08004999 -0.08030302 -0.0804153 -0.08034231 -0.08009184 -0.07964628 -0.07904768
 -0.07834006 -0.0775932 -0.0769017 -0.07629827 -0.07584289 -0.0755224 -0.07534696 -0.0752926 -0.07535638 -0.0755067
 -0.07574315 -0.07600161 -0.07627649 -0.07648842 -0.07662743 -0.07668144 -0.07664991 -0.07658601 -0.07649164 -0.07640482
 -0.07632352 -0.07625607 -0.0762001 -0.07615354 -0.07611237 -0.07606834 -0.07601437 -0.07593641 -0.07582842 -0.07567769
 -0.0754843 -0.07524092 -0.07496118 -0.07464522 -0.07432265 -0.07400255 -0.07371043 -0.07345615 -0.07324041 -0.07306655
 -0.07291586 -0.07278717 -0.07266278 -0.07254176 -0.07241888 -0.07229458 -0.07217258 -0.07205345 -0.07194229 -0.07183903
 -0.07174635 -0.07166343 -0.07159021 -0.07152481 -0.07146455 -0.07140743 -0.07134974 -0.07129203 -0.07123286 -0.07117552
 -0.07112154 -0.07107251 -0.07103033 -0.07099099 -0.07095449 -0.07091387 -0.07086778 -0.07081391 -0.07075153 -0.07068598
 -0.07061756 -0.07055523 -0.07049924 -0.07045527 -0.07042233 -0.07039812 -0.07038064 -0.07036138 -0.07033971 -0.07030881
 -0.07027208 -0.07023124 -0.07019129 -0.07015927 -0.07013559 -0.07012439 -0.07011933 -0.07011878 -0.07011544 -0.07010579
 -0.07008789 -0.07006012 -0.0700252 -0.06998318 -0.06993746 -0.0698883 -0.0698384 -0.06978793 -0.0697399 -0.0696944
 -0.06965372 -0.06961738 -0.06958394 -0.06955267 -0.06951965 -0.06948539 -0.06944875 -0.0694114 -0.06937587 -0.06934228
 -0.06931259 -0.06928406 -0.06925542 -0.06922377 -0.06918692 -0.06914444 -0.06909525 -0.06904139 -0.06898263 -0.06892354
 -0.06886444 -0.06881155 -0.06876557 -0.06872961 -0.06870387 -0.06868473 -0.06867173 -0.06865766 -0.06864244 -0.06862158
 -0.06859581 -0.06856529 -0.06853067 -0.06849379 -0.06845436 -0.06841277 -0.06836856 -0.06832068 -0.06827106 -0.06821986
 -0.06817215 -0.06813071 -0.06809872 -0.06807932 -0.06806777 -0.06806449 -0.06805938 -0.06805064 -0.06803317 -0.06800577
 -0.06797298 -0.06793498 -0.06790132 -0.06787232 -0.06785468 -0.06784759 -0.0678502 -0.06786041 -0.06787045 -0.06787864
 -0.06787647 -0.06786489 -0.0678408 -0.06780785 -0.06776882 -0.06772722 -0.06768706 -0.06764923 -0.06761599 -0.06758459
 -0.06755483 -0.06752306 -0.06748791 -0.06744932 -0.06740653 -0.0673644 -0.06732328 -0.06728771 -0.067258 -0.06723324
 -0.06721322 -0.06719439 -0.06717696 -0.06716041 -0.0671451 -0.06713258 -0.06712179 -0.06711144 -0.06709945 -0.06708153
 -0.06705707 -0.06702302 -0.06698178 -0.06693366 -0.06688277 -0.06683117 -0.06678252 -0.06673871 -0.06670146 -0.06667182
 -0.06664895 -0.06663317 -0.06662127 -0.06661303 -0.06660517 -0.06659748 -0.0665884 -0.06657784 -0.06656456 -0.06654844
 -0.06652773 -0.06650297 -0.06647467 -0.0664445 -0.06641699 -0.06639297 -0.06637688 -0.06636591 -0.06635913 -0.06635213
 -0.06634049 -0.0663234 -0.06629835 -0.0662688 -0.06623552 -0.06620118 -0.06616709 -0.06613206 -0.06609612 -0.06605776
 -0.06601664 -0.06597438 -0.06593103 -0.06589002 -0.06585148 -0.06581777 -0.06578887 -0.06576589 -0.06574851 -0.06573651
 -0.06572875 -0.0657226 -0.06571642 -0.065706 -0.06569113 -0.06566956 -0.06564265 -0.06561071 -0.06557506 -0.06553634
 -0.06549607 -0.06545464 -0.06541457 -0.06537678 -0.06534193 -0.06531085 -0.06527939 -0.0652473 -0.06521006 -0.06516735
 -0.06511965 -0.0650672 -0.06501386 -0.06495998 -0.0649095 -0.06486307 -0.06482537 -0.06479638 -0.06477953 -0.06477161
 -0.06476936 -0.06476809 -0.06476003 -0.06474496 -0.06471895 -0.06468681 -0.06465043 -0.06461282 -0.06457628 -0.06453916
 -0.06450132 -0.06446189 -0.06442011 -0.06437996 -0.06434166 -0.06431017 -0.06428586 -0.06426888 -0.06425887 -0.06424971
 -0.06424084 -0.06422504 -0.06420307 -0.06417362 -0.06413883 -0.06410374 -0.06406928 -0.06404005 -0.06401421 -0.06399158
 -0.06396973 -0.06394604 -0.06392076 -0.06389255 -0.06386498 -0.06383892 -0.06381809 -0.06380431 -0.06379621 -0.06379472
 -0.06379203 -0.06378764 -0.06377283 -0.06374697 -0.06370891 -0.06365904 -0.06360393 -0.06354424 -0.06348777 -0.0634345
 -0.06338872 -0.0633495 -0.06331693 -0.06328937 -0.06326392 -0.06323963 -0.06321349 -0.06318714 -0.06316057 -0.06313659
 -0.06311753 -0.06310254 -0.06309306 -0.0630825 -0.06306972 -0.06304798 -0.06301522 -0.06297214 -0.06291797 -0.06286162
 -0.06280357 -0.06275308 -0.06271026 -0.06267727 -0.06265334 -0.06263407 -0.06261881 -0.06260259 -0.06258559 -0.06256562
 -0.06254341 -0.0625192 -0.06249359 -0.06246783 -0.062441 -0.06241317 -0.0623821 -0.06234624 -0.06230513 -0.06225749
 -0.06220658 -0.06215275 -0.06210005 -0.06204941 -0.06200226 -0.06195894 -0.06191928 -0.06188335 -0.06184952 -0.06181759
 -0.06178347 -0.06174711 -0.06170552 -0.06165981 -0.06161291 -0.06156596 -0.06152434 -0.06148636 -0.06145195 -0.06141804
 -0.06137987 -0.06133808 -0.06129041 -0.06124202 -0.06119551 -0.06115406 -0.06112099 -0.06109166 -0.06106622 -0.06103642
 -0.06100024 -0.06095612 -0.06090314 -0.06084719 -0.0607886 -0.06073154 -0.06067599 -0.06062056 -0.0605654 -0.06051049
 -0.06045692 -0.06040975 -0.06036891 -0.06033772 -0.06031359 -0.06029356 -0.06027498 -0.06025305 -0.06022706 -0.06019466
 -0.06015619 -0.06011086 -0.06006039 -0.06000496 -0.05994736 -0.05988864 -0.05982948 -0.05977045 -0.05970955 -0.05964643
 -0.05958175 -0.05951545 -0.05945216 -0.05939207 -0.05933817 -0.05929003 -0.05924565 -0.05920469 -0.05916457 -0.05912572
 -0.05908819 -0.05905197 -0.05901771 -0.05898353 -0.05894752 -0.05890742 -0.05885978 -0.05880581 -0.05874415 -0.05868039
 -0.05861664 -0.05855635 -0.0585019 -0.05844965 -0.05839963 -0.05834621 -0.05828847 -0.05822572 -0.05815776 -0.05808808
 -0.05801687 -0.05794757 -0.05788035 -0.0578182 -0.0577611 -0.0577112 -0.05766705 -0.05762607 -0.05758625 -0.0575421
 -0.05749398 -0.05743975 -0.05738144 -0.05732063 -0.05725735 -0.05719241 -0.05712428 -0.05705202 -0.05697636 -0.05689687
 -0.0568167 -0.05673621 -0.05665877 -0.05658485 -0.05651651 -0.05645394 -0.0563973 -0.05634657 -0.05630095 -0.05626053
 -0.05622603 -0.05619707 -0.05617348 -0.05615256 -0.05612742 -0.05609414 -0.05604054 -0.05596857 -0.05587329 -0.05576488
 -0.05565071 -0.05553897 -0.0554384 -0.05534765 -0.05526923 -0.05519637 -0.05512752 -0.05505805 -0.0549863 -0.05491326
 -0.05483867 -0.05476578 -0.05469478 -0.05462841 -0.05456686 -0.05451332 -0.05446764 -0.05443116 -0.05440155 -0.05437011
 -0.05433327 -0.05427464 -0.05419711 -0.05409619 -0.05398179 -0.05386593 -0.05375382 -0.05365609 -0.05356948 -0.05349537
 -0.05342877 -0.05336789 -0.05330917 -0.05325217 -0.05318997 -0.05312201 -0.05303771 -0.05293521 -0.05281251 -0.05266885
 -0.05251831 -0.05236177 -0.05221745 -0.05208498 -0.05197021 -0.05187051 -0.0517772 -0.05168875 -0.05159528 -0.05149946
 -0.05140166 -0.05130513 -0.05121592 -0.05113155 -0.05105274 -0.05097403 -0.05089118 -0.05080402 -0.05071072 -0.05061512
 -0.05051848 -0.0504212 -0.05032384 -0.05022428 -0.05012206 -0.05001865 -0.04991411 -0.04981121 -0.04970983 -0.04960604
 -0.04949857 -0.0493749 -0.04923467 -0.04906755 -0.04887813 -0.04867341 -0.04845962 -0.04825405 -0.0480555 -0.04787137
 -0.04769331 -0.04751585 -0.04733308 -0.04713749 -0.04693352 -0.04672018 -0.04650679 -0.04629718 -0.04609172 -0.04589347
 -0.04568619 -0.04546969 -0.04521602 -0.0449228 -0.04457728 -0.04417983 -0.0437519 -0.04329459 -0.04282875 -0.04234963
 -0.04184719 -0.04131481 -0.0407264 -0.04008238 -0.03936722 -0.03859426 -0.03777157 -0.03692148 -0.03606759 -0.03522614
 -0.03441816 -0.03363843 -0.03289274 -0.03216073 -0.03143372 -0.03071481 -0.02999711 -0.02932646 -0.02870769 -0.02817635
 -0.02773665 -0.02738015 -0.02710613 -0.02689372 -0.0267429 -0.0266453 -0.02660182 -0.02661303 -0.02667786 -0.02679675
 -0.02696037 -0.02715548 -0.02736101 -0.02754092 -0.02768473 -0.0277647 -0.02779333 -0.02777051 -0.02770918 -0.02761614
 -0.02749581 -0.0273508 -0.02718345 -0.02699599 -0.02678161 -0.02654241 -0.02624534 -0.02588805 -0.02544264 -0.02490964
 -0.02433538 -0.02372463 -0.02314435 -0.02258793 -0.02205927 -0.02154854 -0.02102731 -0.02049289 -0.01992734 -0.0193291
 -0.01869315 -0.01800548 -0.01725673 -0.01641729 -0.01546207 -0.01438099 -0.01314626 -0.01182639 -0.0104262 -0.009053071
 -0.007735178 -0.006508873 -0.005387085 -0.004340097 -0.003367678 -0.002422884 -0.001502647 -0.0005419315 0.000464693 0.00160334
 0.002862371 0.004246641 0.005710092 0.007102494 0.008420448 0.00956839 0.01060452 0.01157431 0.01251864 0.01350169
 0.01452137 0.01559808 0.01671208 0.01785826 0.0190247 0.0202103 0.02138967 0.02255867 0.02369032 0.02477699
 0.02583747 0.02687256 0.02790346 0.02892964 0.02990158 0.03081443 0.03159792 0.03225825 0.03278789 0.03319883
 0.03352628 0.033772 0.03395668 0.0340771 0.03413189 0.03413369 0.03409133 0.03402488 0.03395155 0.03388074
 0.03382424 0.03377262 0.03372739 0.03366936 0.03359452 0.03349105 0.03335614 0.03318962 0.03299063 0.03277275
 0.03253676 0.03230167 0.03206694 0.03183526 0.03160369 0.03135866 0.03109886 0.03081106 0.03050057 0.03016941
 0.02982988 0.02950134 0.02919057 0.02891313 0.0286663 0.02845026 0.02827049 0.02812673 0.0280347 0.02800117
 0.02802811 0.02811917 0.02826013 0.0284488 0.02868116 0.02895628 0.02928149 0.02965705 0.03008437 0.03056266
 0.03108427 0.03164824 0.03224594 0.03287685 0.03353447 0.03421986 0.03493145 0.03567206 0.03644599 0.03725281
 0.0380953 0.03896738 0.03986538 0.04078582 0.04172401 0.04268684 0.04367405 0.04469903 0.04576577 0.04687729
 0.04803791 0.04921841 0.05041824 0.05158484 0.05271569 0.05377825 0.05477337 0.05570146 0.05655972 0.05733592
 0.05802104 0.05857465 0.05900194 0.05929011 0.05945816 0.05952954 0.05951675 0.05944103 0.05930943 0.05913321
 0.05891542 0.05866673 0.058362 0.05800491 0.05752783 0.05691265 0.05613235 0.05516555 0.05414261 0.05307319
 0.05205016 0.05107681 0.05009985 0.0491167 0.04808027 0.04699717 0.04587919 0.04473175 0.04358685 0.04242639
 0.04124154 0.03997597 0.03853563 0.03689644 0.03494982 0.03284639 0.03065496 0.02851377 0.0265456 0.02467711
 0.02291028 0.02116672 0.01941498 0.01769189 0.01599466 0.01439475 0.01290061 0.01151583 0.01024026 0.009024344
 0.007866272 0.006728773 0.005615533 0.004525813 0.003466022 0.002457793 0.00150228 0.0006161586 -0.0002114114 -0.0009869076
 -0.00172783 -0.00245336 -0.00318059 -0.003924914 -0.004705995 -0.005540739 -0.006428055 -0.007389741 -0.008332015 -0.009243272
 -0.0100151 -0.01061679 -0.01109901 -0.01146051 -0.01180128 -0.01212599 -0.01246592 -0.01281742 -0.01314794 -0.01345486
 -0.01370464 -0.01390451 -0.01406324 -0.01418332 -0.01427969 -0.01433884 -0.01434682 -0.01429116 -0.01414823 -0.01392709
 -0.01362535 -0.01325817 -0.01283463 -0.01235684 -0.01182952 -0.01124302 -0.01060048 -0.009868636 -0.009049128 -0.00806367
 -0.006904854 -0.005517163 -0.003898775 -0.002178561 -0.0003721796 0.001289197 0.00281014 0.004096652 0.005167966 0.006040954
 0.00672522 0.007245531 0.007616637 0.007863804 0.008020485 0.008125502 0.008222332 0.008358564 0.008548323 0.00882468
 0.009134494 0.009467415 0.009776026 0.01004061 0.01027388 0.01047268 0.0106718 0.01087444 0.01110006 0.01134971
 0.0116155 0.01189644 0.012177 0.01245866 0.01274107 0.0130279 0.01333231 0.01365463 0.01400422 0.01437457
 0.01475868 0.0151535 0.01554897 0.01595679 0.01638063 0.01683675 0.01733617 0.01788249 0.0184817 0.0191228
 0.01980437 0.02051715 0.02125958 0.0220273 0.02282147 0.0236146 0.0244051 0.02512575 0.02577355 0.0262909
 0.02668143 0.02693736 0.02706244 0.02706743 0.02694902 0.02670483 0.02633076 0.02581627 0.02516744 0.02438309
 0.02348131 0.02247415 0.02137886 0.02020923 0.01896812 0.01765891 0.01628271 0.01483327 0.01335119 0.01183522
 0.01037088 0.00896618 0.007679839 0.006515351 0.005464313 0.004524663 0.003666712 0.002891118 0.002187724 0.001557797
 0.0010032 0.0005182639 9.393237E-05 -0.000283266 -0.000636628 -0.000982184 -0.001346291 -0.001739589 -0.002181652 -0.002666295
 -0.003200554 -0.003756922 -0.004329642 -0.004886692 -0.005417919 -0.005911192 -0.006361142 -0.006779482 -0.007166421 -0.007538295
 -0.007896031 -0.008239517 -0.008567504 -0.008862723 -0.009124571 -0.009339863 -0.009511182 -0.009640665 -0.009731151 -0.009790209
 -0.009819797 -0.009825871 -0.009810865 -0.009779491 -0.009734002 -0.009676984 -0.009611738 -0.009538896 -0.009467341 -0.009399312
 -0.009345941 -0.009310782 -0.009298306 -0.009310254 -0.009344218 -0.009400121 -0.009476167 -0.009572254 -0.009687413 -0.009821083
 -0.009966237 -0.01012084 -0.01026967 -0.01041001 -0.01052373 -0.01061019 -0.0106573 -0.01066969 -0.01064819 -0.01060109
 -0.01053824 -0.01046528 -0.01039046 -0.01031419 -0.01023869 -0.01016364 -0.01008848 -0.01001675 -0.009948638 -0.009890092
 -0.009842147 -0.00980843 -0.009789636 -0.009784552 -0.009793156 -0.009811773 -0.009840234 -0.009875721 -0.009917884 -0.009963533
 -0.01001163 -0.01005626 -0.01009754 -0.01013143 -0.01016198 -0.01019322 -0.0102311 -0.01028538 -0.01035571 -0.01044787
 -0.01055054 -0.01066143 -0.01076297 -0.01084824 -0.01090504 -0.01092733 -0.01091813 -0.01087549 -0.01081568 -0.01073983
 -0.01066436 -0.01059033 -0.0105227 -0.01046115 -0.01040143 -0.01034326 -0.01028277 -0.01022039 -0.01015603 -0.01008958
 -0.01002169 -0.009949691 -0.009870553 -0.009778892 -0.009667244 -0.009531944 -0.009365608 -0.009173392 -0.008953441 -0.008720861
 -0.00847983 -0.008245921 -0.008024736 -0.007820931 -0.007637403 -0.007465444 -0.007304762 -0.007143992 -0.006982376 -0.006818733
 -0.006653595 -0.006495627 -0.006344932 -0.006207116 -0.006080241 -0.005959672 -0.005844241 -0.005727333 -0.005612243 -0.005500501
 -0.005398275 -0.005313523 -0.005250324 -0.005215278 -0.005207991 -0.005230668 -0.005279588 -0.005354457 -0.005449606 -0.005564211
 -0.005690743 -0.005828095 -0.005969097 -0.006112593 -0.006257733 -0.006404313 -0.006560071 -0.006725323 -0.0069069 -0.007103401
 -0.007309467 -0.007522498 -0.007729155 -0.007929211 -0.008114946 -0.00828842 -0.008450219 -0.008600806 -0.008741346 -0.008870766
 -0.008988164 -0.009094018 -0.009188152 -0.009271821 -0.009345877 -0.009409349 -0.009462229 -0.009503097 -0.009531336 -0.009548779
 -0.009555301 -0.009555755 -0.009550448 -0.009542206 -0.009530783 -0.009512483 -0.009486309 -0.009443297 -0.009383651 -0.009302663
 -0.009202786 -0.009088096 -0.008960098 -0.008824388 -0.008678376 -0.008521748 -0.008350165 -0.008159955 -0.007947988 -0.007711458
 -0.007448814 -0.007157987 -0.006842039 -0.006500135 -0.006141829 -0.005768677 -0.005387405 -0.00499958 -0.004600389 -0.00418966
 -0.003760041 -0.003311884 -0.002850655 -0.002378186 -0.001910137 -0.001446889 -0.000999313 -0.0005642822 -0.0001397277 0.0002784273
 0.0006997583 0.001122762 0.001552227 0.001977252 0.002391754 0.002782408 0.003138648 0.003456858 0.003731214 0.003970036
 0.004173469 0.004353622 0.004512155 0.004660552 0.004800008 0.004940769 0.005083575 0.00523421 0.005392709 0.005559502
 0.005734271 0.00591522 0.006101933 0.00629162 0.00648446 0.006678825 0.006876714 0.007080818 0.007293116 0.007517871
 0.007753957 0.008001253 0.008260433 0.008529646 0.008817758 0.009127375 0.009467285 0.009842363 0.0102472 0.0106833
 0.01113311 0.01159523 0.01205281 0.01250465 0.01293988 0.01335825 0.01375512 0.01413138 0.01449068 0.01483467
 0.01517206 0.0155036 0.01583597 0.01616828 0.01650225 0.01683612 0.01716785 0.01749779 0.01782426 0.01815227
 0.01848474 0.0188239 0.01917432 0.01952385 0.01987123 0.02020035 0.02050593 0.02079309 0.02106024 0.02133191
 0.02160965 0.02190975 0.02223214 0.02257355 0.02293254 0.02329758 0.02366726 0.02403064 0.02438516 0.02471977
 0.02502977 0.02530267 0.0255325 0.02570596 0.02582196 0.02587208 0.02586696 0.02580882 0.02571291 0.02558681
 0.02543664 0.0252652 0.02507622 0.02486851 0.02466037 0.02445295 0.02426916 0.02411088 0.02398188 0.02388169
 0.0237983 0.02373153 0.02367458 0.0236284 0.02359374 0.02357032 0.02355793 0.02355526 0.02356022 0.02357052
 0.02358348 0.02359423 0.02359815 0.02358995 0.02356484 0.02352092 0.02345597 0.02337095 0.0232652 0.02314236
 0.02300263 0.02285134 0.02268941 0.02251735 0.02233535 0.02213947 0.02192971 0.02170702 0.02147187 0.021229
 0.02097718 0.02071352 0.02043681 0.02014091 0.01982883 0.0195034 0.01916729 0.01882694 0.01847827 0.01812032
 0.01774804 0.01735752 0.01694767 0.01651834 0.01606438 0.01558539 0.01507184 0.01452062 0.01393382 0.01330988
 0.01266763 0.01200812 0.01135094 0.0106966 0.01005133 0.009414032 0.008778727 0.008145034 0.007506789 0.006867481
 0.006232603 0.00560787 0.005007933 0.00443289 0.0038906 0.003374329 0.002880411 0.002404222 0.00194121 0.0014912
 0.001054117 0.0006259948 0.0002059191 -0.0002103323 -0.000625061 -0.001031361 -0.00142905 -0.001807966 -0.002167054 -0.002510004
 -0.002837245 -0.00316004 -0.003477589 -0.003789237 -0.004092054 -0.004372547 -0.004629316 -0.004850566 -0.005038726 -0.005192132
 -0.005315548 -0.005414224 -0.005492835 -0.005557092 -0.005611008 -0.005658017 -0.005702734 -0.005747832 -0.005796435 -0.005850995
 -0.005907785 -0.005967041 -0.006021425 -0.006069544 -0.006111923 -0.006148268 -0.006186827 -0.006227954 -0.006277564 -0.00633563
 -0.006404774 -0.006484467 -0.006575333 -0.006673757 -0.006771052 -0.006861255 -0.006926891 -0.006969337 -0.006980475 -0.006971389
 -0.006950139 -0.006923389 -0.006900234 -0.006874674 -0.00684617 -0.006809374 -0.006760698 -0.006706594 -0.00664724 -0.006591638
 -0.006541547 -0.006496478 -0.006456778 -0.006413992 -0.006367743 -0.006311142 -0.006244713 -0.006169425 -0.00608681 -0.006004049
 -0.005922592 -0.00585007 -0.005787617 -0.005741105 -0.005710729 -0.005700922 -0.005706129 -0.005725309 -0.005745408 -0.005757947
 -0.005753289 -0.005722582 -0.005671692 -0.005598923 -0.005518853 -0.005434413 -0.005353655 -0.005278351 -0.005208752 -0.005145063
 -0.005085869 -0.005030917 -0.004974239 -0.004914358 -0.00483606 -0.004737977 -0.004603938 -0.004437404 -0.004237182 -0.004013948
 -0.003787016 -0.003567569 -0.003381283 -0.003227559 -0.003118685 -0.00303901 -0.002983723 -0.002933945 -0.00287916 -0.002811451
 -0.002724615 -0.002624137 -0.002509022 -0.002391707 -0.002273423 -0.002165594 -0.002069503 -0.001984827 -0.001911152 -0.001833657
 -0.00175152 -0.001649659 -0.00153092 -0.001399101 -0.001260573 -0.001137817 -0.001031021 -0.0009559731 -0.0008978517 -0.0008450553
 -0.0007781177 -0.0006699444 -0.0005220385 -0.0003208295 -9.504667E-05 0.0001471872 0.0003776745 0.0005836912 0.0007604808 0.0009035286
 0.001022532 0.001117877 0.001199909 0.001269142 0.001339864 0.001412902 0.001504929 0.001615645 0.001750244 0.001905896
 0.002072246 0.002246401 0.002414134 0.002574801 0.002719928 0.002851158 0.002966614 0.00306998 0.003163337 0.003252171
 0.003340333 0.003432843 0.003533543 0.003642717 0.003762848 0.003885214 0.004009054 0.004123385 0.004225749 0.004317751
 0.004398833 0.004483032 0.004570893 0.004669349 0.004777655 0.004890823 0.005009157 0.005131436 0.005259024 0.005397003
 0.005542733 0.005693832 0.00584607 0.005990846 0.00613007 0.006261704 0.006390805 0.006521777 0.006652588 0.006784656
 0.006910439 0.007026722 0.00713357 0.007228475 0.007325169 0.007424599 0.007542927 0.007682075 0.007840987 0.00801925
 0.008196837 0.008373407 0.008536606 0.008689684 0.008843062 0.00899809 0.009166508 0.009342697 0.009520629 0.009695103
 0.009854628 0.01000057 0.01012982 0.01024558 0.01034878 0.01044307 0.01052967 0.01061391 0.01069845 0.01078313
 0.01086855 0.01095193 0.01103115 0.01112121 0.01122251 0.01136204 0.01154062 0.01175714 0.01200755 0.01225143
 0.01248515 0.01266709 0.0128021 0.01288089 0.01291591 0.01292694 0.01292808 0.0129488 0.01299566 0.0130891
 0.0132206 0.01339345 0.01358827 0.01379797 0.01400385 0.0141983 0.01437067 0.01451513 0.01464009 0.01474333
 0.0148574 0.01498461 0.01515382 0.01536591 0.01561157 0.0158881 0.01616328 0.01643823 0.01670057 0.0169563
 0.01721846 0.01749034 0.01778647 0.01810427 0.01844782 0.01880921 0.01918365 0.01955938 0.01992741 0.02027785
 0.02060457 0.02089895 0.02115792 0.02137169 0.02153615 0.02165421 0.0217237 0.02176691 0.02178548 0.02179661
 0.0218011 0.02180319 0.02180446 0.02182287 0.021861 0.02194593 0.02207037 0.0222285 0.02240474 0.02256
 0.022691 0.02277226 0.02281646 0.02282736 0.02281623 0.02279201 0.02276255 0.0227322 0.02271193 0.02270756
 0.02271975 0.02275279 0.0227859 0.02281754 0.0228244 0.02280373 0.02275123 0.02266691 0.02256844 0.02245814
 0.02236713 0.02229644 0.02226934 0.02228197 0.02233364 0.02242144 0.02253807 0.02268395 0.02285966 0.02305716
 0.02326928 0.02348657 0.02369495 0.02390712 0.0241264 0.02436196 0.02463037 0.0248742 0.02508355 0.02521198
 0.02524124 0.02523698 0.02520239 0.0252069 0.0252536 0.02534436 0.02547614 0.02561545 0.02576131 0.02589229
 0.02600893 0.02610339 0.026173 0.02620684 0.02620595 0.0261655 0.02609217 0.02599078 0.02586786 0.02572796
 0.02558077 0.02543164 0.02528905 0.02515911 0.0250362 0.02492043 0.02480398 0.02468421 0.02456947 0.02446006
 0.02436678 0.02429009 0.02422754 0.02417853 0.02413673 0.02410023 0.02405731 0.02400292 0.02391105 0.02378503
 0.02361245 0.02341657 0.02322962 0.02306456 0.0229571 0.02288146 0.02282902 0.02278033 0.02271677 0.02265377
 0.02259386 0.02254532 0.02251155 0.02249024 0.02247951 0.02249548 0.02254001 0.02261579 0.02272278 0.0228286
 0.02293292 0.02302074 0.0230965 0.02317916 0.02326916 0.02337776 0.02350322 0.02364604 0.02380713 0.02399185
 0.0241904 0.02439703 0.02459501 0.02476569 0.02491381 0.02503451 0.0251442 0.02525207 0.02534838 0.02543442
 0.02548869 0.02550564 0.02549177 0.02544606 0.02539344 0.02533519 0.02528889 0.02525516 0.02524708 0.02526384
 0.02530962 0.02537948 0.02545882 0.0255433 0.02561614 0.02567472 0.02571 0.02571424 0.02567166 0.02558974
 0.02545868 0.02532212 0.02519991 0.02512381 0.02511996 0.02515501 0.02522978 0.02529042 0.02532514 0.02532899
 0.02529859 0.02526469 0.02522882 0.02521283 0.02521628 0.02524067 0.02528238 0.02532199 0.02535565 0.02535684
 0.02533083 0.02527644 0.0252004 0.02511758 0.02501882 0.0248978 0.02475186 0.02456715 0.02437694 0.02419376
 0.02404739 0.02396034 0.02390689 0.02388938 0.02385834 0.02380504 0.02370746 0.02356163 0.02337114 0.02313604
 0.02288117 0.02260954 0.02236789 0.02215577 0.02199829 0.02188473 0.02178998 0.02170626 0.0215996 0.02147621
 0.02133181 0.02117188 0.02100173 0.02082275 0.02063424 0.02044845 0.02027007 0.02011374 0.01998646 0.01989363
 0.01983712 0.01982354 0.01985588 0.01992601 0.02003616 0.02013396 0.02021652</values></Ydata></AB><ScSm><Ydata ylabel="Single channel"><values byteorder="INTEL" format="FLOAT32" numvalues="1814"> 0.07356057 0.07357329 0.07365084 0.07381606 0.07403868 0.07425448 0.07440974 0.0744952 0.07453027 0.07452169
 0.07447163 0.07442859 0.07447985 0.07466426 0.0749142 0.07510153 0.0751413 0.07506678 0.07501082 0.0750789
 0.075211 0.07519587 0.07486836 0.07429923 0.0737523 0.07343853 0.0733799 0.07356596 0.07408908 0.07489242
 0.075484 0.07528968 0.07437822 0.07349432 0.07323213 0.07346472 0.07369209 0.07361661 0.07323642 0.07273321
 0.07251945 0.0731257 0.07468073 0.07648455 0.07725924 0.07595319 0.07249226 0.0680238 0.06449534 0.06360804
 0.065616 0.06898399 0.07153998 0.07220604 0.07151355 0.0705097 0.06963347 0.06884687 0.06835562 0.06864582
 0.06981197 0.07110582 0.07132097 0.06982152 0.06729864 0.06528118 0.0647416 0.06548662 0.06697598 0.06891261
 0.07040602 0.0694974 0.06508623 0.05936928 0.05686175 0.06010358 0.06694916 0.07267059 0.07416803 0.07170166
 0.06750952 0.06395093 0.06262797 0.06395593 0.06707665 0.07056842 0.07331347 0.07456145 0.07373857 0.07094276
 0.0674343 0.06502773 0.0649779 0.06748877 0.07167347 0.07563485 0.07732496 0.07605587 0.07295701 0.06977993
 0.06774578 0.06754841 0.06952059 0.07328588 0.07774033 0.08169675 0.08436885 0.08544349 0.08514498 0.08409637
 0.08284643 0.08177702 0.08143331 0.08218935 0.08336767 0.08349611 0.08190925 0.07963336 0.07832709 0.07856623
 0.07938544 0.0794546 0.07842468 0.07671377 0.07419407 0.07016766 0.06496836 0.0603872 0.05788381 0.05747849
 0.0588187 0.06174154 0.06501353 0.0662616 0.06457113 0.06213836 0.06208756 0.06513876 0.06923869 0.07206558
 0.07317266 0.07383074 0.07538559 0.07788205 0.07988816 0.07957808 0.07654852 0.07284519 0.0715207 0.073636
 0.07723488 0.07974464 0.08068566 0.0813912 0.08267804 0.0835859 0.08237743 0.07860079 0.07421304 0.07237965
 0.07471713 0.07967333 0.08365256 0.08367854 0.07939796 0.07316508 0.06820577 0.06638297 0.06768914 0.07147044
 0.07714888 0.08358394 0.08877933 0.09100363 0.09005548 0.0871532 0.08354182 0.07934204 0.07422727 0.06935555
 0.06759096 0.07079332 0.07744125 0.08390498 0.0876844 0.08865009 0.08762617 0.08484608 0.08019195 0.07469165
 0.07100786 0.07136947 0.07488836 0.07806389 0.07844993 0.076885 0.07568942 0.07577246 0.07629623 0.07645445
 0.07662124 0.07771062 0.07987173 0.08213905 0.08336527 0.08326325 0.08246124 0.08176595 0.08142537 0.08094558
 0.07978524 0.07843521 0.07836732 0.08043039 0.08369307 0.08640251 0.08774094 0.08812879 0.08806872 0.08725592
 0.08502819 0.08163233 0.07873668 0.0781952 0.08025587 0.08341023 0.08596101 0.08723643 0.08742521 0.08696774
 0.08625884 0.0855165 0.08484613 0.08452094 0.08491145 0.08595683 0.08704899 0.08764845 0.0877298 0.0874974
 0.0869884 0.08615655 0.08516464 0.08440164 0.08420291 0.08459657 0.08533375 0.08611381 0.08670397 0.08691235
 0.08665115 0.08606834 0.0854557 0.08498476 0.08465795 0.08450124 0.08461612 0.08499735 0.08544947 0.085757
 0.08585598 0.08580074 0.08564183 0.08539149 0.08507108 0.08475345 0.08455659 0.0845691 0.0847512 0.084952
 0.08507402 0.08516663 0.08529282 0.08537774 0.08529115 0.0850376 0.08476815 0.08461919 0.0846058 0.08465657
 0.08468418 0.08460276 0.08433171 0.0838649 0.08335738 0.08306927 0.08316156 0.08357608 0.08412958 0.08465177
 0.08501974 0.08517225 0.08515274 0.08506954 0.08497415 0.08482666 0.08459418 0.08434275 0.08421769 0.08433307
 0.08466365 0.0850536 0.08534843 0.08549803 0.08553617 0.08552869 0.08555472 0.08565448 0.08576472 0.08577429
 0.08566699 0.08555423 0.08554859 0.08564268 0.0857252 0.0857039 0.08560754 0.08555765 0.08563566 0.08580355
 0.08596784 0.08608754 0.0861938 0.08632012 0.08643454 0.08645316 0.08633567 0.08615225 0.0860176 0.08596981
 0.08596574 0.08598472 0.08606528 0.08622333 0.08639321 0.08648679 0.08648911 0.0864669 0.08648332 0.08652323
 0.08651669 0.08642587 0.08628742 0.08617127 0.08611925 0.0861257 0.08615624 0.08617394 0.08615634 0.08609944
 0.08601196 0.08590664 0.08579448 0.08569069 0.08562902 0.08565281 0.08576605 0.08589515 0.08592918 0.08581629
 0.08561414 0.08543498 0.08534134 0.08529918 0.08523015 0.08509663 0.08492717 0.0847722 0.08465822 0.08458321
 0.0845324 0.08449148 0.08446513 0.08449081 0.08460895 0.08479856 0.08496163 0.0850035 0.08492638 0.08482163
 0.08477576 0.08480574 0.08487597 0.08494969 0.08502356 0.08512688 0.0852786 0.08544178 0.08554773 0.08557592
 0.08558118 0.08563463 0.08576913 0.08597969 0.08622865 0.08644356 0.08656117 0.08659469 0.08662432 0.0867094
 0.08683936 0.08697732 0.08711447 0.0872637 0.08742778 0.08760166 0.08779685 0.08804119 0.08834933 0.08869848
 0.08903435 0.08930518 0.08950374 0.08968289 0.08991987 0.09025321 0.09065163 0.09104373 0.09137793 0.09165871
 0.09192854 0.09221666 0.09251671 0.09282119 0.09315561 0.09355074 0.09399278 0.0944323 0.09483908 0.09522256
 0.09560231 0.09598358 0.09636499 0.09675492 0.09717354 0.09763458 0.09811852 0.09857121 0.09894674 0.09925203
 0.0995421 0.09987684 0.1002826 0.1007301 0.1011391 0.1014372 0.1016407 0.1018516 0.1021475 0.1024988
 0.1028273 0.1031228 0.103453 0.1038624 0.1043082 0.1047104 0.1050405 0.1053384 0.1056554 0.1059943
 0.106305 0.1065367 0.1066933 0.106832 0.1070078 0.107237 0.107522 0.1078797 0.1083118 0.1087679
 0.1091737 0.1094909 0.1097284 0.1099129 0.1100742 0.1102418 0.110425 0.1106097 0.110786 0.1109572
 0.1111128 0.1112342 0.1113411 0.1114929 0.1117235 0.1120089 0.1123197 0.1126633 0.1130458 0.1134286
 0.1137713 0.1141023 0.1144919 0.1149457 0.1153692 0.1156648 0.1158309 0.115934 0.1160234 0.1161204
 0.1162655 0.1165081 0.1168453 0.1172147 0.1175575 0.1178591 0.1181268 0.1183577 0.1185391 0.118667
 0.1187534 0.1188203 0.1188976 0.119027 0.1192545 0.1195937 0.119996 0.120374 0.1206636 0.1208465
 0.120918 0.1208703 0.1207292 0.1205713 0.1204619 0.1203765 0.1202099 0.1198658 0.1193191 0.1185955
 0.1177215 0.1167176 0.1156297 0.1145449 0.1135663 0.1127738 0.1122148 0.1119294 0.1119628 0.1123282
 0.1129556 0.113696 0.1143833 0.1148798 0.1150746 0.1148852 0.1142964 0.1133861 0.1122864 0.1111193
 0.1099695 0.1088851 0.1078813 0.1069638 0.1061838 0.1056722 0.1055999 0.1061024 0.1072326 0.1089499
 0.1111131 0.1134882 0.1158104 0.1178825 0.1196351 0.1211033 0.1223641 0.1234976 0.124574 0.1256267
 0.126634 0.1275511 0.1283666 0.1291086 0.1297991 0.1304247 0.1309519 0.131352 0.1316178 0.1317714
 0.1318494 0.1318732 0.1318451 0.1317767 0.1316941 0.1315961 0.1314261 0.1311014 0.1305683 0.1298361
 0.1289882 0.1281892 0.1276861 0.1277678 0.1286597 0.1303927 0.1327539 0.1353802 0.1379189 0.1401307
 0.1419081 0.14326 0.1442815 0.1450947 0.1457932 0.1464293 0.1470317 0.1476133 0.1481709 0.1486959
 0.1491888 0.1496638 0.1501419 0.1506338 0.1511236 0.1515765 0.1519756 0.1523493 0.1527526 0.1532182
 0.1537236 0.1542119 0.15465 0.1550596 0.1554776 0.1558976 0.1562781 0.1566033 0.1569071 0.1572368
 0.1576173 0.1580465 0.1584961 0.1589181 0.1592763 0.1595771 0.1598575 0.160145 0.1604417 0.1607422
 0.1610484 0.161363 0.1616817 0.1620025 0.162336 0.1626891 0.16304 0.1633473 0.1635944 0.1638106
 0.164041 0.1643035 0.1645832 0.1648578 0.1651235 0.1654014 0.165719 0.1660781 0.1664415 0.1667611
 0.167019 0.1672378 0.167456 0.1676981 0.1679676 0.1682558 0.1685502 0.1688386 0.1691148 0.1693826
 0.1696512 0.1699261 0.1702042 0.1704784 0.1707441 0.1710045 0.171267 0.1715367 0.171815 0.1721077
 0.1724257 0.1727677 0.173108 0.1734128 0.1736686 0.1738885 0.174096 0.1743097 0.1745393 0.1747856
 0.1750434 0.1753067 0.1755733 0.1758444 0.1761218 0.1764055 0.1766934 0.1769823 0.1772685 0.1775489
 0.1778249 0.1781047 0.1783943 0.1786854 0.1789617 0.1792174 0.1794636 0.179715 0.1799766 0.1802426
 0.1805026 0.1807498 0.1809865 0.1812221 0.1814641 0.1817155 0.1819775 0.1822482 0.1825207 0.1827856
 0.1830373 0.1832768 0.183511 0.1837483 0.1839918 0.1842375 0.1844812 0.184724 0.1849692 0.1852192
 0.1854739 0.1857291 0.185978 0.1862188 0.1864581 0.1867018 0.1869489 0.1871941 0.1874359 0.187679
 0.1879295 0.1881854 0.1884351 0.1886708 0.1888982 0.1891293 0.1893699 0.1896182 0.1898692 0.1901179
 0.1903635 0.1906109 0.1908656 0.1911263 0.191386 0.1916373 0.1918784 0.1921178 0.1923678 0.1926308
 0.1928979 0.1931625 0.1934262 0.1936913 0.1939533 0.1942019 0.194429 0.1946367 0.1948394 0.1950506
 0.1952718 0.1954982 0.1957272 0.1959575 0.1961878 0.1964203 0.1966574 0.1968966 0.1971344 0.1973715
 0.1976101 0.1978519 0.1980971 0.1983418 0.19858 0.1988138 0.1990526 0.1992993 0.1995503 0.1998048
 0.2000621 0.2003172 0.2005682 0.2008183 0.2010664 0.2013083 0.2015468 0.2017893 0.202039 0.2022964
 0.2025594 0.2028188 0.2030668 0.203307 0.2035446 0.2037779 0.2040085 0.2042447 0.2044874 0.2047295
 0.2049679 0.2052041 0.2054397 0.2056791 0.205927 0.2061792 0.2064303 0.2066809 0.2069272 0.2071629
 0.2073948 0.2076354 0.2078813 0.2081221 0.2083583 0.2085924 0.2088223 0.2090527 0.2092879 0.2095059
 0.2096491 0.2095889 0.2090132 0.2072993 0.2034949 0.1965014 0.1855034 0.1704764 0.1523775 0.1328079
 0.1134188 0.09547419 0.0797229 0.06650056 0.05589944 0.04787115 0.04227912 0.03899659 0.03802186 0.03960745
 0.04439943 0.05305184 0.06477286 0.07604559 0.08200274 0.08026849 0.07322553 0.06583962 0.06153642 0.06055455
 0.06142978 0.06291571 0.06462394 0.06679051 0.06980439 0.07375552 0.07842703 0.08379677 0.09027907 0.09819558
 0.1071395 0.1161469 0.1245327 0.1324261 0.1404466 0.1489494 0.1576534 0.1659213 0.1732676 0.1796001
 0.1851219 0.1901112 0.194765 0.199172 0.2033664 0.2073373 0.2109486 0.2138987 0.2158611 0.2167323
 0.216759 0.2164041 0.2160739 0.2159572 0.2160701 0.2163752 0.2168389 0.2174348 0.2181445 0.2189499
 0.2198182 0.2207107 0.2216008 0.2224727 0.2233092 0.2240969 0.2248301 0.2255029 0.2261097 0.2266554
 0.2271531 0.2276125 0.2280391 0.2284393 0.2288208 0.2291905 0.2295521 0.2298984 0.2302133 0.2304889
 0.2307332 0.2309606 0.2311807 0.2314005 0.2316244 0.2318515 0.2320763 0.2322944 0.2325042 0.2327093
 0.2329184 0.2331375 0.2333624 0.2335847 0.2338 0.2340074 0.2342063 0.2343985 0.2345904 0.2347875
 0.2349896 0.235191 0.2353847 0.2355682 0.2357487 0.235939 0.236147 0.2363681 0.2365878 0.2367917
 0.2369802 0.2371705 0.2373774 0.2375976 0.2378199 0.2380425 0.238268 0.2384961 0.2387286 0.2389694
 0.2392058 0.2394097 0.2395705 0.2397134 0.239878 0.2400844 0.2403201 0.2405542 0.2407643 0.2409539
 0.2411404 0.2413338 0.2415287 0.2417121 0.241883 0.2420682 0.2423021 0.2425815 0.2428643 0.2431211
 0.2433601 0.2435969 0.2438345 0.2440756 0.2443154 0.2445221 0.2446627 0.2447584 0.2448933 0.2451498
 0.2455288 0.2459375 0.2462745 0.2465221 0.2467365 0.246974 0.2472549 0.2475507 0.2477622 0.2477843
 0.2476673 0.2476459 0.2479244 0.2484748 0.2490983 0.2496292 0.2500304 0.2503441 0.2506123 0.2508355
 0.2509741 0.2509932 0.2509378 0.2509621 0.2512295 0.2517427 0.2523239 0.2527966 0.2531277 0.2533674
 0.2535561 0.25372 0.2538254 0.253712 0.2532605 0.2526992 0.2525503 0.2531238 0.2541672 0.2551355
 0.2557338 0.2560725 0.2563572 0.2566333 0.2568481 0.2569017 0.2565275 0.255443 0.2539053 0.2528627
 0.2531698 0.2547269 0.2566448 0.2581304 0.2589834 0.2594004 0.2596363 0.2598326 0.2599087 0.2595695
 0.2586378 0.2574901 0.2569579 0.2575603 0.2589226 0.2601805 0.2608589 0.261119 0.2613012 0.2615442
 0.2616915 0.2612377 0.2596156 0.2570368 0.2549159 0.2548754 0.2571572 0.2603288 0.2627004 0.2637814
 0.2641507 0.2642072 0.2635866 0.2618223 0.2590449 0.2559219 0.2534457 0.2528026 0.2545893 0.2578259
 0.2605081 0.2615864 0.2618552 0.2626367 0.2641976 0.2657538 0.2664921 0.2662034 0.2651391 0.2635615
 0.2616208 0.2597711 0.2590175 0.2602011 0.2629768 0.2659373 0.2679154 0.2688712 0.269275 0.2687323
 0.2657099 0.2593784 0.2519109 0.2478813 0.2502263 0.2571751 0.2641541 0.2682855 0.2699667 0.2707242
 0.2711673 0.2708146 0.2683707 0.2624355 0.2537068 0.2463594 0.2452166 0.2509789 0.2594345 0.2653935
 0.2662238 0.2621282 0.2552089 0.248835 0.2462624 0.2486643 0.2546276 0.261551 0.2671997 0.2703118
 0.2705923 0.2686021 0.2657118 0.2637572 0.2637093 0.2642332 0.262704 0.2585217 0.2541176 0.251387
 0.2487535 0.2440753 0.2393361 0.2393293 0.2454296 0.2533029 0.2577786 0.2580846 0.2569182 0.2555292
 0.2515891 0.2425519 0.2304786 0.2221209 0.2230058 0.2316892 0.2410391 0.2452027 0.24424 0.2420377
 0.2411369 0.2402007 0.2360022 0.2277012 0.2189894 0.2150106 0.2169154 0.2208411 0.2224863 0.2205419
 0.2151881 0.2067152 0.197998 0.195377 0.2032764 0.2187412 0.2337389 0.2417529 0.2401454 0.2287151
 0.2106186 0.1942695 0.18924 0.197694 0.2117636 0.2207966 0.2198149 0.210379 0.1960126 0.1797999
 0.1658337 0.159642 0.1648575 0.1795426 0.1962916 0.2059314 0.2025748 0.1881757 0.1728989 0.1678013
 0.1747953 0.1853593 0.1901041 0.1872916 0.1814841 0.1776243 0.1781681 0.182728 0.1885054 0.1928923
 0.1955596 0.1955708 0.1885607 0.1720167 0.1523781 0.1408303 0.1416721 0.1500735 0.1610434 0.1738996
 0.1864635 0.1919934 0.1867825 0.1772127 0.1743491 0.1821965 0.1942545 0.2014609 0.2011635 0.1976149
 0.1953845 0.1944728 0.1925956 0.1904789 0.1920568 0.1990399 0.2079198 0.2138762 0.2157894 0.2158205
 0.2157394 0.2155871 0.2149124 0.2135608 0.2115924 0.2094058 0.2076268 0.2063992 0.2052518 0.2038144
 0.2018071 0.1979986 0.1904958 0.1794752 0.168887 0.1633658 0.1633593 0.1654354 0.1673555 0.1693782
 0.1695277 0.1622569 0.1457559 0.1279577 0.1207763 0.1286061 0.1450477 0.1601838 0.1681401 0.1675804
 0.1587872 0.1439789 0.1298461 0.1254594 0.1348646 0.153208 0.1719505 0.1862118 0.1953001 0.1986657
 0.195131 0.1859431 0.1759602 0.1708869 0.1738167 0.1838528 0.1963836 0.2042402 0.2011888 0.1881456
 0.1760124 0.1776469 0.1943228 0.2135685 0.2231821 0.2236094 0.2229989 0.2245341 0.2248501 0.2229419
 0.2237293 0.2312792 0.2427853 0.2513253 0.2519415 0.2435895 0.2284399 0.2123136 0.2031911 0.2048749
 0.2127464 0.2188607 0.2196861 0.2156214 0.2062576 0.1923665 0.1809499 0.1810212 0.1931246 0.2080942
 0.2174683 0.2211958 0.2238521 0.2267412 0.2263237 0.2196123 0.2091859 0.2016069 0.2009293 0.2051453
 0.2095677 0.2117627 0.211593 0.2084372 0.2015764 0.1933138 0.1889958 0.1923964 0.2018446 0.2118106
 0.2178669 0.2194691 0.2186459 0.2173602 0.216173 0.2144216 0.211572 0.2089619 0.2095289 0.2146283
 0.221795 0.2272304 0.2301286 0.23295 0.2375632 0.2426791 0.2454467 0.2446082 0.2417348 0.2398783
 0.2411255 0.244932 0.2485138 0.2492053 0.2469828 0.2447195 0.2455428 0.2498534 0.2552776 0.2593512
 0.2615297 0.2626813 0.2636309 0.2644543 0.2644406 0.2626449 0.259243 0.2563292 0.2564355 0.2600122
 0.2649848 0.2688816 0.270815 0.2713526 0.2711836 0.270403 0.2688895 0.2669407 0.2652977 0.2645728
 0.2648109 0.2656326 0.2666316 0.2675542 0.2682752 0.2687744 0.2691069 0.2693319 0.2694927 0.2696501
 0.2698433 0.2700092 0.2700382 0.2699475 0.2699117 0.2700611 0.2703152 0.2704764 0.2704208 0.2701084
 0.269469 0.2684205 0.2670041 0.2653749 0.2636176 0.261692 0.2596726 0.2579955 0.2573187 0.2580289
 0.2598873 0.2621852 0.2642294 0.2656762 0.2665116 0.2668791 0.2669649 0.2669414 0.2669123 0.2668905
 0.2668421 0.2667451 0.2666019 0.2664195 0.2662106 0.2660123 0.2658747 0.2658141 0.2657896 0.2657319
 0.2655838 0.2653193 0.2649485 0.2645118 0.2640443 0.2635356 0.2629313 0.2621837 0.261294 0.2603117
 0.2593042 0.2583272 0.2574015 0.2564996 0.2555654 0.2545515 0.2534241 0.2521392 0.2506697 0.2490853
 0.2475534 0.246208 0.245038 0.2439304 0.2427832 0.2415477 0.2402097 0.2387808 0.2372989 0.2358089
 0.2343415 0.2329054 0.2314831 0.2300361 0.2285274 0.2269414 0.2252812 0.2235578 0.2217888 0.2199938
 0.2181683 0.2162492 0.2141135 0.2116182 0.2086432 0.2051055 0.2009728 0.1962985 0.1912421 0.1860318
 0.1808949 0.176011 0.1715078 0.167477 0.1639904 0.1611048 0.1588598 0.1572805 0.1563789 0.1561514
 0.156583 0.1576537 0.1593187 0.1614724 0.1639445 0.1665437 0.169101 0.171491 0.1736553 0.1756274
 0.1775098 0.1793907 0.1812685 0.1830671 0.1847203 0.1862143 0.1875448 0.1886787 0.1895916 0.1903146
 0.1909091 0.1914142 0.1918393 0.1921918 0.1924874 0.1927434 0.1929758 0.1932027 0.1934428 0.1937102
 0.1940102 0.1943447 0.1947267 0.1951794 0.1957197 0.1963494 0.1970608 0.1978374 0.198659 0.1995202
 0.2004364 0.2014293 0.2025236 0.2037603 0.2051858 0.2068175 0.2086272 0.2105562 0.2125318 0.2144725
 0.2162896 0.2178951 0.2192231 0.2202529 0.2210064 0.2215256 0.2218583 0.2220533 0.2221452 0.2221441
 0.2220516 0.2218758 0.2216231 0.2212913 0.2208793 0.2203911 0.2198307 0.2192091 0.2185534 0.2178977
 0.2172636 0.2166519 0.2160521 0.2154612 0.2148927 0.2143598 0.2138563 0.2133648 0.2128718 0.2123636
 0.2118182 0.2112176 0.2105502 0.2097986 0.2089403 0.2079648 0.2068771 0.2056862 0.2044034 0.2030417
 0.2016082 0.2001024 0.1985253 0.1968836 0.1951858 0.1934328 0.1916019 0.1896523 0.1875783 0.1854533
 0.1833932 0.1814758 0.1797101 0.1780654 0.1765015 0.1749862 0.1735098 0.1720847 0.1707288 0.1694537
 0.1682604 0.1671364 0.1660583 0.1650108 0.1640038 0.1630732 0.1622587 0.1615716 0.1609823 0.1604516
 0.1599686 0.1595472 0.1591991 0.1589325 0.1587601 0.1586775 0.1586383 0.1585735 0.1584409 0.1582514
 0.1580468 0.1578563 0.1576792 0.1575085 0.1573466 0.15718 0.1569518 0.1565747 0.1559601 0.1550344
 0.1537624 0.1521749 0.1503648 0.1484544 0.1465739 0.144844 0.1433493 0.1421268 0.1411754 0.1404579
 0.1399019 0.1394335 0.1390269 0.1387225 0.1385964 0.138679 0.1388773 0.1390142 0.1389958 0.1389174
 0.1389699 0.1392691 0.139794 0.140436 0.1410704 0.1416101 0.1420195 0.1422932 0.1424418 0.1424967
 0.1424888 0.1424145 0.1422493 0.1419864 0.141643 0.1412495 0.1408364 0.1404036 0.1399094 0.1393129
 0.1386063 0.1377965 0.1368939 0.1359165 0.1348532 0.1336574 0.132356 0.1311414 0.1302892 0.1299853
 0.1302292 0.1308529 0.13164 0.1324647 0.1332661 0.1338808 0.134088 0.1339633 0.1340528 0.134979
 0.1368505 0.1391453 0.1411641 0.1425135 0.143166 0.1432281 0.1427914 0.141919 0.1406134 0.1388224
 0.1365609 0.133957 0.1311457 0.1282454 0.125442 0.1229365 0.1208224 0.1191063 0.1177703 0.1168362
 0.1164138 0.116152 0.1142866 0.1085465 0.0996538 0.09293224 0.0938653 0.1019379 0.1109644 0.1156348
 0.1157708 0.1141742 0.1127787 0.1118686 0.1113446 0.1113478 0.1120019 0.1131724 0.1144958 0.1155948
 0.1163088 0.1166598 0.1165942 0.1157792 0.1135404 0.1090754 0.102107 0.09346703 0.08480411 0.07761084
 0.07256784 0.06957544 0.06805991 0.06730005 0.06679413 0.06649563 0.06669939 0.06769534 0.06952842 0.07204475
 0.07505222 0.07831293 0.08144113 0.08404016 0.08600761 0.08754405 0.08881943 0.08977916 0.09029105 0.09032877
 0.08997997 0.08938013 0.08866362 0.08790719 0.08707984 0.08608012 0.08489513 0.08373596 0.08292134 0.08257301
 0.08251604 0.08251469 0.0824842 0.08244123 0.08239406 0.08234063 0.08229138 0.08228211 0.08239709 0.08271547
 0.08319517 0.08368008 0.08404096 0.0842569 0.08437394 0.08440734 0.08425693 0.08378558 0.08307278 0.08244223
 0.08204526 0.0815753 0.08066185 0.07944314 0.0784874 0.0781902 0.07843982 0.07882941 0.07902431 0.07893471
 0.07870746 0.07863566 0.07895498 0.07957491</values></Ydata></ScSm><ScRf><Ydata ylabel="Single channel"><values byteorder="INTEL" format="FLOAT32" numvalues="1820"> 0.06051447 0.06068115 0.06078532 0.06082542 0.06082522 0.06083012 0.06088865 0.06102248 0.06120862 0.06138971
 0.06151392 0.06157266 0.06158864 0.06157222 0.06152308 0.0614785 0.06151296 0.06166227 0.06187022 0.0620283
 0.06206557 0.06201072 0.06197315 0.06203642 0.06214729 0.06213152 0.06185556 0.06137782 0.06091314 0.06063691
 0.06057512 0.06072558 0.06116333 0.06183652 0.06233489 0.06217967 0.0614221 0.06067736 0.06044425 0.06062469
 0.06080351 0.06072937 0.06040158 0.05997737 0.0598036 0.06031919 0.0616259 0.06313583 0.06378174 0.06268848
 0.05979851 0.0560706 0.05312607 0.05238046 0.05404703 0.05684908 0.05897721 0.05953483 0.05897142 0.05816452
 0.05747106 0.05683775 0.05642013 0.05662933 0.05756576 0.05862186 0.05879132 0.05753479 0.05542354 0.05373413
 0.0532804 0.05390011 0.05513713 0.05673926 0.0579689 0.05720733 0.05354756 0.04881441 0.04675265 0.04946584
 0.05516814 0.05992936 0.06117034 0.0591063 0.05560481 0.05263884 0.05154144 0.05264521 0.05522799 0.05811714
 0.06039765 0.06144553 0.06077307 0.05845721 0.05554913 0.05355776 0.05352198 0.05560928 0.05908266 0.06236319
 0.06374663 0.06266554 0.06006864 0.05741955 0.05573253 0.05557631 0.05722 0.06034999 0.06405292 0.06734477
 0.06957106 0.07047081 0.07023238 0.0693766 0.06835947 0.06749222 0.06721745 0.06783916 0.06879827 0.06888293
 0.06754883 0.06565025 0.06456397 0.06476638 0.06545107 0.06550834 0.06464925 0.06322599 0.06113195 0.05778143
 0.05345109 0.04963706 0.04755867 0.04723196 0.04836316 0.0508201 0.05357599 0.05464593 0.0532561 0.05122974
 0.05117241 0.05369253 0.05708825 0.05943038 0.06034807 0.06089877 0.06220091 0.06428868 0.065967 0.06571373
 0.06319224 0.06010688 0.0590025 0.06076515 0.06376682 0.06586716 0.06667134 0.06729162 0.06840204 0.06919227
 0.06821135 0.06509009 0.06146786 0.0599811 0.06196668 0.06612133 0.06944363 0.06945373 0.06586757 0.0606661
 0.05654994 0.055067 0.05620217 0.05941365 0.06422986 0.06970271 0.07415766 0.07612795 0.07541656 0.07302625
 0.070012 0.06650057 0.0622294 0.05816976 0.05673463 0.05950038 0.06518634 0.07072016 0.07398303 0.07486892
 0.07407828 0.07179722 0.06790817 0.06328755 0.06022896 0.06065255 0.06378841 0.06661583 0.0670279 0.06575304
 0.06479775 0.06494696 0.06547363 0.06568438 0.06591862 0.06698114 0.06899405 0.07109789 0.072281 0.07229312
 0.07168752 0.07117327 0.07097022 0.0706496 0.06974547 0.06869793 0.06879448 0.07075632 0.07374003 0.07620423
 0.07745574 0.07789332 0.0779646 0.07737771 0.07551925 0.07260141 0.07012433 0.06976169 0.07174252 0.07470758
 0.07712111 0.07837692 0.07865562 0.07836521 0.07786384 0.07734616 0.07690403 0.07677388 0.07727662 0.07835329
 0.07946109 0.08011638 0.08029093 0.08016407 0.07977477 0.07909936 0.07830659 0.07775541 0.07773197 0.07823329
 0.07902145 0.07983737 0.08048867 0.08079995 0.08067323 0.08023519 0.07976726 0.07944653 0.0792779 0.07927333
 0.07951809 0.08000807 0.08056113 0.08096799 0.08116055 0.08119309 0.08112606 0.08097913 0.08077049 0.08056751
 0.08048576 0.08060664 0.08087963 0.08115882 0.08137353 0.08159572 0.08187998 0.08211724 0.08214706 0.08197118
 0.08176173 0.08167471 0.08172657 0.0818402 0.08193338 0.08193143 0.08175589 0.08139365 0.08099154 0.08080083
 0.08097608 0.08146638 0.08210705 0.08273718 0.08322205 0.08348067 0.08354694 0.08353184 0.08349209 0.08338951
 0.08319324 0.0829755 0.08288956 0.0830557 0.083454 0.08393066 0.0843215 0.08455574 0.08465461 0.08469539
 0.08478176 0.08496354 0.08516009 0.08523544 0.08517054 0.08509628 0.0851365 0.08526868 0.08536324 0.085336
 0.08524275 0.08522065 0.08534437 0.0855602 0.08576536 0.0859239 0.08608472 0.08629382 0.08650312 0.08658704
 0.08647558 0.08625372 0.08608079 0.08602348 0.086032 0.08607185 0.08618753 0.08640401 0.08663902 0.08677456
 0.08679027 0.08677797 0.08682319 0.08690513 0.08692819 0.08683321 0.08665721 0.08649366 0.08641699 0.08644144
 0.08652453 0.0865968 0.08660211 0.0865293 0.08641229 0.08629732 0.08621131 0.08616886 0.08620295 0.08635495
 0.08660577 0.08683288 0.08688103 0.08670101 0.08640854 0.08618643 0.08612205 0.08614339 0.08610944 0.0859479
 0.08569935 0.08545092 0.08525616 0.08511645 0.08500949 0.08492102 0.08486576 0.08488639 0.08500849 0.0851763
 0.08525772 0.0851527 0.08489429 0.08461639 0.08443097 0.08435838 0.08435366 0.08436223 0.0843627 0.08438355
 0.08446011 0.08456153 0.08459957 0.08453207 0.08441879 0.08435838 0.08440945 0.08457364 0.08479474 0.0849632
 0.08498615 0.08488271 0.08477087 0.0847457 0.08480306 0.08488668 0.08496518 0.08504219 0.0851241 0.08521219
 0.08532136 0.08548189 0.08571011 0.08598074 0.08623327 0.0864124 0.08651409 0.08659816 0.08674777 0.0870042
 0.08733449 0.08766052 0.08792059 0.0881108 0.08827389 0.08844878 0.08863869 0.08883637 0.0890619 0.0893451
 0.08967693 0.09001118 0.0903161 0.09059983 0.0908841 0.09117593 0.09146999 0.09177001 0.09210271 0.09249727
 0.09293383 0.09332605 0.09358886 0.09372615 0.093834 0.09402267 0.09433948 0.09473655 0.09509303 0.09530604
 0.09539473 0.09548841 0.09568268 0.09594095 0.09617563 0.09639043 0.09668196 0.09710349 0.09757932 0.0979725
 0.09821506 0.09835799 0.09850375 0.09869979 0.09890121 0.09903967 0.09911484 0.09919159 0.09931394 0.09947035
 0.09965886 0.09993039 0.1003196 0.1007676 0.1011639 0.1014496 0.1016455 0.1017976 0.1019314 0.102043
 0.1021108 0.1021284 0.1021368 0.1021934 0.1022977 0.1023857 0.1024164 0.1024277 0.1024861 0.1026185
 0.1028182 0.1030786 0.1033826 0.1036846 0.1039514 0.1042181 0.1045506 0.1049358 0.1052581 0.1054211
 0.1054561 0.1054674 0.1055049 0.105551 0.1056134 0.1057526 0.1060057 0.1063369 0.1066867 0.1070328
 0.107383 0.1077337 0.1080514 0.1082866 0.108402 0.1084028 0.1083493 0.1083351 0.1084393 0.1086816
 0.109012 0.1093468 0.1096219 0.1098119 0.109906 0.1099008 0.1098385 0.1098188 0.1099222 0.1101164
 0.110269 0.1102595 0.1100554 0.1096836 0.1091728 0.1085484 0.1078649 0.1072083 0.1066588 0.10626
 0.1060278 0.1059875 0.1061826 0.1066277 0.1072583 0.1079524 0.1086016 0.109133 0.1094647 0.1094979
 0.1091902 0.1086104 0.107894 0.1071589 0.1064726 0.1058545 0.1052795 0.104714 0.1041958 0.103871
 0.1039263 0.104478 0.1055155 0.1069092 0.1084488 0.1099084 0.1111342 0.1121027 0.1128921 0.1135945
 0.1142579 0.1149027 0.1155542 0.1162222 0.1168674 0.1174316 0.1179034 0.1183239 0.1187287 0.1191129
 0.1194499 0.1197223 0.119938 0.1201328 0.1203379 0.1205307 0.1206421 0.120634 0.1205447 0.1204381
 0.1203287 0.1201739 0.1199218 0.1195546 0.1191156 0.118722 0.1185482 0.1187592 0.1194197 0.1204513
 0.1216905 0.1229932 0.1242705 0.125439 0.126394 0.1270705 0.1275063 0.1278097 0.1280768 0.1283522
 0.1286447 0.1289488 0.1292533 0.1295477 0.1298307 0.1301147 0.1304218 0.1307622 0.1311114 0.1314194
 0.1316609 0.1318714 0.1321244 0.1324659 0.1328698 0.1332636 0.1336034 0.1339122 0.1342286 0.1345361
 0.1347803 0.1349488 0.1350963 0.1352912 0.135566 0.1359155 0.1362998 0.136652 0.136918 0.1371033
 0.137263 0.1374465 0.1376654 0.1379081 0.1381612 0.1384157 0.13867 0.1389348 0.139227 0.1395454
 0.1398539 0.1401027 0.1402754 0.1404103 0.1405619 0.1407507 0.1409557 0.1411512 0.1413413 0.1415615
 0.141845 0.1421807 0.142507 0.1427582 0.1429182 0.143026 0.1431349 0.1432776 0.1434603 0.1436739
 0.1439019 0.1441265 0.1443389 0.1445444 0.1447534 0.1449684 0.145182 0.1453885 0.1455903 0.1457937
 0.1460013 0.1462117 0.1464263 0.1466571 0.1469227 0.1472244 0.1475274 0.1477802 0.1479589 0.1480843
 0.1481939 0.148312 0.1484479 0.1486079 0.1487955 0.1490051 0.1492245 0.1494454 0.1496663 0.1498868
 0.1501024 0.1503091 0.1505088 0.1507068 0.15091 0.151126 0.1513565 0.151589 0.1518045 0.1519961
 0.1521764 0.152363 0.1525623 0.152766 0.1529603 0.1531409 0.15332 0.1535137 0.1537217 0.1539267
 0.1541148 0.1542902 0.1544683 0.1546602 0.154864 0.1550692 0.1552686 0.1554635 0.1556602 0.1558628
 0.1560692 0.1562733 0.1564697 0.1566617 0.1568577 0.1570607 0.1572637 0.1574618 0.1576588 0.1578602
 0.1580646 0.1582644 0.1584545 0.1586376 0.158824 0.1590226 0.1592314 0.1594397 0.1596399 0.1598342
 0.1600293 0.1602266 0.1604215 0.1606145 0.1608168 0.1610391 0.161275 0.1615058 0.16172 0.1619223
 0.1621238 0.1623317 0.1625465 0.1627654 0.1629849 0.1632047 0.1634241 0.1636389 0.1638429 0.1640331
 0.1642117 0.1643843 0.1645545 0.1647205 0.1648809 0.1650424 0.1652154 0.1654008 0.1655915 0.1657832
 0.1659772 0.1661767 0.166387 0.1666088 0.1668317 0.1670434 0.1672451 0.1674463 0.1676478 0.1678434
 0.1680332 0.1682248 0.1684259 0.1686378 0.1688547 0.1690706 0.1692872 0.1695089 0.1697313 0.1699455
 0.170149 0.1703451 0.170538 0.1707348 0.1709418 0.1711559 0.1713701 0.171582 0.1717899 0.17199
 0.1721863 0.1723903 0.1726068 0.1728308 0.173055 0.1732726 0.1734803 0.1736859 0.1738995 0.1741184
 0.1743335 0.1745443 0.1747535 0.1749604 0.1751695 0.1753868 0.175606 0.175817 0.1760219 0.1762287
 0.1764406 0.1766587 0.1768776 0.1770739 0.177201 0.1771537 0.1766689 0.1752183 0.1719921 0.1660555
 0.1567176 0.1439619 0.1286014 0.1119927 0.09553625 0.08030942 0.06695364 0.05575218 0.04677309 0.03996611
 0.03521685 0.03242544 0.03159502 0.03294142 0.03701578 0.04437315 0.05433347 0.06390278 0.06894992 0.06746615
 0.06148209 0.05521719 0.05157793 0.05076 0.05151353 0.05277859 0.05422573 0.05605441 0.05859693 0.06193967
 0.06591293 0.07050674 0.07606824 0.08285313 0.09049863 0.09818225 0.1053322 0.1120693 0.1189222 0.1261887
 0.1336249 0.1406862 0.1469598 0.1523703 0.1570952 0.161371 0.1653597 0.1691325 0.1727233 0.1761329
 0.1792499 0.1818108 0.1835243 0.1842935 0.1843322 0.1840477 0.1837951 0.1837288 0.1838477 0.1841143
 0.1845102 0.1850272 0.1856551 0.1863754 0.1871551 0.1879566 0.1887527 0.1895266 0.1902663 0.1909662
 0.1916226 0.1922254 0.1927675 0.1932584 0.1937161 0.1941513 0.1945658 0.1949572 0.1953216 0.1956602
 0.1959814 0.1962906 0.196581 0.1968455 0.1970879 0.1973198 0.1975507 0.1977822 0.1980071 0.1982165
 0.1984126 0.1986082 0.1988116 0.1990191 0.1992232 0.1994183 0.1996036 0.1997862 0.1999777 0.200181
 0.2003871 0.2005865 0.2007798 0.2009756 0.2011807 0.2013909 0.2015927 0.2017766 0.2019499 0.2021288
 0.2023209 0.2025206 0.202719 0.2029132 0.2031088 0.2033165 0.2035395 0.2037662 0.2039824 0.2041874
 0.2043887 0.2045916 0.2048008 0.2050218 0.2052463 0.2054482 0.2056092 0.2057438 0.2058913 0.2060812
 0.2063079 0.2065396 0.2067516 0.2069478 0.2071456 0.2073512 0.2075541 0.2077388 0.2079029 0.2080705
 0.2082772 0.2085294 0.208795 0.2090469 0.2092889 0.2095307 0.2097697 0.2100064 0.2102436 0.2104614
 0.2106307 0.210763 0.2109231 0.2111734 0.2115103 0.2118638 0.2121651 0.2124054 0.212625 0.2128643
 0.2131426 0.2134366 0.2136542 0.2136963 0.2136061 0.2135968 0.2138567 0.214363 0.214934 0.2154181
 0.2157856 0.2160797 0.216338 0.2165542 0.216686 0.2167048 0.216663 0.2167093 0.2169866 0.2174862
 0.2180402 0.2184885 0.2188031 0.2190344 0.2192231 0.2193896 0.2194979 0.2194096 0.2190339 0.2185817
 0.2185045 0.2190557 0.2200007 0.2208638 0.221398 0.2217078 0.2219754 0.2222392 0.2224512 0.2225265
 0.2222396 0.2213478 0.2200675 0.2192124 0.2195206 0.2209063 0.2226017 0.2239264 0.2247109 0.2251195
 0.2253635 0.225568 0.2256742 0.2254277 0.2246631 0.223698 0.2232624 0.2238231 0.2250596 0.2262111
 0.226857 0.2271389 0.2273514 0.2276057 0.2277607 0.2273851 0.2259972 0.2237873 0.2219873 0.2220072
 0.2240533 0.2268765 0.2290075 0.2300168 0.2304002 0.2304996 0.2300008 0.2285011 0.2261141 0.223422
 0.2212977 0.2207856 0.2224077 0.2252977 0.2276963 0.2286906 0.2289849 0.2297371 0.231175 0.232606
 0.2333122 0.2331069 0.2322165 0.2308825 0.2292397 0.2276817 0.2270878 0.2281998 0.2307155 0.2333954
 0.2352078 0.2361123 0.2365206 0.2360869 0.2334629 0.227922 0.2213904 0.2179115 0.220073 0.2262982
 0.2325394 0.2362569 0.2378106 0.238554 0.239023 0.2387868 0.2366964 0.2315096 0.2238409 0.2173933
 0.2164534 0.2216473 0.2292308 0.2345925 0.2354009 0.2318416 0.2257807 0.2202117 0.2180364 0.2203015
 0.2257387 0.2320138 0.2371331 0.2399911 0.2403416 0.2386768 0.2361993 0.2345438 0.2345891 0.2351533
 0.2338929 0.2302693 0.2264493 0.2241197 0.2218724 0.2178045 0.2137063 0.2138743 0.219531 0.2267761
 0.2309684 0.2314272 0.2305848 0.2295554 0.2262253 0.2182942 0.2076344 0.2003689 0.2015181 0.2097854
 0.2187147 0.223013 0.2227561 0.2214842 0.2214826 0.2214558 0.2183565 0.2113712 0.2039394 0.2008627
 0.2031878 0.2072677 0.2090716 0.2073905 0.2024039 0.1943902 0.1860697 0.1834423 0.1907227 0.2051813
 0.2192863 0.2269071 0.2255491 0.2149977 0.1982058 0.1831159 0.1787902 0.1872754 0.201103 0.2101627
 0.209722 0.2012419 0.1880527 0.1731048 0.1603725 0.1552514 0.161315 0.1767002 0.1941443 0.204566
 0.2020659 0.1885477 0.1741954 0.170142 0.1782908 0.1899743 0.1956652 0.1936283 0.188536 0.185473
 0.1870206 0.192798 0.1998548 0.2054499 0.2092357 0.210096 0.2031786 0.1857159 0.1647123 0.1523281
 0.1532561 0.1623054 0.1741134 0.187967 0.201503 0.2074042 0.201651 0.1911514 0.1878683 0.19612
 0.2088835 0.2163856 0.2157753 0.2116525 0.2089673 0.2077494 0.2055601 0.2031867 0.2048537 0.2123959
 0.2220622 0.2287062 0.2311361 0.2316548 0.2321403 0.2326187 0.2325886 0.2318759 0.230548 0.2290352
 0.2280061 0.2276128 0.2273526 0.226841 0.2257666 0.2226804 0.2153168 0.203764 0.1924839 0.186775
 0.1871544 0.1897129 0.1919359 0.1941671 0.1941718 0.1856229 0.166456 0.1457103 0.1369471 0.1451438
 0.1629879 0.1792083 0.1872136 0.1856489 0.1750067 0.1578179 0.141351 0.1353532 0.1441029 0.1623018
 0.1807359 0.1942159 0.2021821 0.2043118 0.1995347 0.1891558 0.1781144 0.1721622 0.1743603 0.1837333
 0.1955981 0.2027687 0.199067 0.1854582 0.172766 0.1736927 0.1894991 0.2079219 0.2169628 0.2170433
 0.2161551 0.2174387 0.2176171 0.2157002 0.216488 0.2239732 0.2354595 0.2442208 0.2454117 0.237976
 0.2240182 0.2092958 0.201726 0.2050039 0.2143349 0.221595 0.2231646 0.2194511 0.2101036 0.1960403
 0.1845351 0.1848434 0.1974868 0.2130394 0.2228362 0.2268639 0.2298416 0.2330954 0.2329572 0.226337
 0.2158953 0.2084087 0.2080684 0.2128132 0.2178233 0.2206093 0.2210309 0.2183998 0.2119109 0.2039388
 0.200075 0.2042605 0.2146807 0.2254355 0.2317969 0.2331633 0.2316809 0.2294585 0.2271493 0.224117
 0.2198388 0.2157303 0.2148791 0.2187549 0.2248915 0.2294308 0.231544 0.2337109 0.2378044 0.2425003
 0.2448865 0.2436405 0.2402872 0.2378689 0.2385042 0.2417079 0.2447565 0.245015 0.2424443 0.2398739
 0.2403973 0.2444209 0.249614 0.2535518 0.2556883 0.256858 0.2578559 0.2587442 0.2588038 0.2570807
 0.2537342 0.2508187 0.2508161 0.2541663 0.2588527 0.2624949 0.2642722 0.2647675 0.2646452 0.2639633
 0.2625738 0.260758 0.2592382 0.2586053 0.2588904 0.2597145 0.260682 0.2615523 0.2622096 0.2626425
 0.2629182 0.2631009 0.2632172 0.2632981 0.2633736 0.2634099 0.2633484 0.2632416 0.2632576 0.2634895
 0.263823 0.2640536 0.2640681 0.2638358 0.2632883 0.2623459 0.2610615 0.2596108 0.258095 0.2564652
 0.2547557 0.2533545 0.2528949 0.2537755 0.2557871 0.2582366 0.260425 0.2620014 0.262962 0.26346
 0.2636693 0.2637327 0.263731 0.2636719 0.2635298 0.2632975 0.2629959 0.2626485 0.2622702 0.2618824
 0.2615217 0.2612176 0.2609598 0.2606972 0.2603723 0.2599571 0.2594643 0.2589327 0.2583937 0.2578384
 0.2572166 0.2564776 0.2556129 0.2546652 0.2537088 0.2528164 0.2520161 0.2512707 0.2505131 0.2497012
 0.2488158 0.2478249 0.2467069 0.2455235 0.2444189 0.2435111 0.2427977 0.2421797 0.2415438 0.2408098
 0.2399426 0.2389611 0.2379239 0.2368792 0.2358282 0.2347395 0.2335798 0.2323249 0.2309634 0.229504
 0.2279707 0.2263857 0.2247675 0.223132 0.2214692 0.2197129 0.2177448 0.2154277 0.2126374 0.2092886
 0.2053623 0.2009261 0.1961304 0.1911767 0.1862693 0.1815777 0.1772303 0.1733325 0.1699755 0.1672312
 0.1651455 0.1637442 0.1630422 0.1630473 0.1637522 0.1651227 0.1670915 0.1695537 0.1723642 0.1753466
 0.1783204 0.1811364 0.183713 0.1860619 0.1882631 0.1903795 0.192394 0.1942407 0.1958789 0.1973097
 0.1985377 0.1995585 0.2003843 0.2010562 0.201622 0.202112 0.202537 0.2029038 0.2032233 0.2035043
 0.2037485 0.2039589 0.2041478 0.2043307 0.2045189 0.2047234 0.2049593 0.2052453 0.2056004 0.2060328
 0.2065282 0.20706 0.2076138 0.2081949 0.2088128 0.2094767 0.2102064 0.2110325 0.211984 0.2130789
 0.2143177 0.2156725 0.2170795 0.2184454 0.219672 0.2206864 0.2214552 0.2219739 0.2222533 0.2223227
 0.2222274 0.2220089 0.2216941 0.2213046 0.2208598 0.2203624 0.2198007 0.219176 0.2185132 0.2178375
 0.217153 0.2164544 0.21575 0.2150586 0.2143888 0.2137331 0.2130865 0.2124588 0.2118629 0.2112982
 0.2107481 0.2101912 0.2096162 0.20903 0.2084454 0.2078541 0.2072194 0.2065018 0.2056854 0.2047704
 0.2037518 0.2026236 0.2013965 0.2000967 0.1987416 0.1973279 0.1958434 0.1942805 0.1926365 0.190908
 0.1890843 0.1871554 0.185139 0.1831017 0.1811346 0.1793001 0.177606 0.1760244 0.1745259 0.1731011
 0.1717614 0.1705136 0.1693374 0.1681989 0.1670851 0.166008 0.1649805 0.1640052 0.1630874 0.1622454
 0.1615037 0.1608743 0.1603468 0.1599001 0.159515 0.1591736 0.1588719 0.158648 0.1585649 0.1586309
 0.1587594 0.1588344 0.1587999 0.158677 0.1585222 0.1583842 0.1582833 0.1582181 0.1581758 0.1581226
 0.1579888 0.1576855 0.1571301 0.1562598 0.1550489 0.1535302 0.1517857 0.1499247 0.1480803 0.1463903
 0.1449484 0.1437872 0.1429049 0.142269 0.1418015 0.1414158 0.141085 0.140858 0.1408112 0.1409664
 0.1412283 0.1414323 0.1415015 0.1415316 0.1416953 0.1420985 0.1427324 0.1434984 0.1442593 0.1449091
 0.1454074 0.1457521 0.1459599 0.1460711 0.1461182 0.1460952 0.1459949 0.1458397 0.1456437 0.1453888
 0.1450574 0.1446432 0.1441374 0.1435448 0.1428875 0.1421674 0.1413668 0.1404748 0.1394635 0.1382931
 0.1370275 0.1358966 0.1351755 0.1350242 0.1354326 0.1362441 0.1372522 0.1383291 0.1393981 0.1402658
 0.14068 0.1407032 0.1408948 0.1419116 0.1438925 0.1463091 0.1484342 0.1498776 0.1506406 0.1508196
 0.1504533 0.1495745 0.1481985 0.1462937 0.1438934 0.1411496 0.1382067 0.135166 0.1321979 0.129511
 0.1272242 0.1253771 0.1239727 0.1230312 0.1226598 0.1224862 0.120634 0.114682 0.1053917 0.09839649
 0.09946872 0.1080383 0.1175928 0.1225676 0.1227796 0.1211631 0.1197456 0.1188198 0.1182696 0.1182421
 0.1188776 0.1200438 0.1213683 0.1224635 0.1231564 0.1234631 0.123335 0.1224308 0.1200362 0.115296
 0.1079047 0.09872325 0.08949871 0.08184352 0.07649433 0.07332354 0.07170622 0.07088786 0.07034523 0.07002904
 0.0702581 0.07133944 0.07330461 0.07598427 0.0791875 0.08267212 0.08603339 0.08885495 0.09101709 0.09270944
 0.09410895 0.09516993 0.09574588 0.09579165 0.09540363 0.09474443 0.09397111 0.09317486 0.092324 0.09129746
 0.09006615 0.08884351 0.08795504 0.08753356 0.08743197 0.08743271 0.08742699 0.08739305 0.08733266 0.08726351
 0.08721211 0.08721672 0.08735158 0.08768205 0.08816388 0.08864167 0.08897134 0.08912578 0.08918214 0.08918627
 0.08901803 0.08849578 0.08768518 0.0869306 0.08641046 0.08583376 0.08482566 0.0835114 0.08246368 0.08209553
 0.08229379 0.08263369 0.0827753 0.08263837 0.08238317 0.08232129 0.08269343 0.08337329 0.0838763 0.08381242
</values></Ydata></ScRf><Data_Parameters_AB><parameter name="DPF">1</parameter><parameter name="NPT">3497</parameter><parameter name="FXV">3996</parameter><parameter name="LXV">500</parameter><parameter name="CSF">1</parameter><parameter name="MXY">0.0595295391976833</parameter><parameter name="MNY">-0.0853351578116417</parameter><parameter name="DAT">30/05/2022</parameter><parameter name="TIM">12:12:42.479 (GMT+2)</parameter><parameter name="DXU">WN</parameter></Data_Parameters_AB><AB__Qtest><MainReport name="Quality Test Report"><Header><Line><Legend>Test result ok/not ok [1/0]: </Legend><Value>0</Value></Line><Line><Legend>Method file: </Legend><Value>C:\Users\Public\Documents\Bruker\OPUS_8.2.28\QT\IRBT_v3_default.QT</Value></Line></Header><Matrix><Line><Legend></Legend><Legend>min</Legend><Legend>max</Legend><Legend>measured</Legend></Line><Line><Value>Absorption (X-Range 1):</Value><Value>0.400000</Value><Value>2.000000</Value><Value>0.100211</Value></Line><Line><Value>Noise (X-Range 4):</Value><Value></Value><Value>0.000300</Value><Value>0.000043</Value></Line><Line><Value>Signal/Noise (X-Range 2):</Value><Value>200.000000</Value><Value></Value><Value>37.762911</Value></Line><Line><Value>Signal/Noise (X-Range 3):</Value><Value>40.000000</Value><Value></Value><Value>25.754222</Value></Line><Line><Value>Water vapour (X-Range 5):</Value><Value></Value><Value>0.000300</Value><Value>0.000054</Value></Line><Line><Value>Signal/Water (X-Range 2):</Value><Value>100.000000</Value><Value></Value><Value>29.945635</Value></Line><Line><Value>Signal/Water (X-Range 3):</Value><Value>20.000000</Value><Value></Value><Value>20.422857</Value></Line><Line><Value>Fringes (X-Range 6):</Value><Value></Value><Value>0.000100</Value><Value>0.000045</Value></Line></Matrix></MainReport></AB__Qtest><Data_Parameters_ScSm><parameter name="DPF">1</parameter><parameter name="NPT">1814</parameter><parameter name="FXV">3996.33169228125</parameter><parameter name="LXV">499.541461535156</parameter><parameter name="CSF">1</parameter><parameter name="MXY">0.271352589130402</parameter><parameter name="MNY">0.0380218550562859</parameter><parameter name="DAT">30/05/2022</parameter><parameter name="TIM">12:12:42.479 (GMT+2)</parameter><parameter name="DXU">WN</parameter></Data_Parameters_ScSm><Data_Parameters_ScRf><parameter name="DPF">1</parameter><parameter name="NPT">1820</parameter><parameter name="FXV">4004.04661832813</parameter><parameter name="LXV">495.683998511719</parameter><parameter name="CSF">1</parameter><parameter name="MXY">0.264767527580261</parameter><parameter name="MNY">0.0315950177609921</parameter><parameter name="DAT">30/05/2022</parameter><parameter name="TIM">12:12:15.913 (GMT+2)</parameter><parameter name="DXU">WN</parameter></Data_Parameters_ScRf><Optic_Parameters_Rf><parameter name="APR">0</parameter><parameter name="APT">Open</parameter><parameter name="BMS">KBr</parameter><parameter name="DTC">RT-DLaTGS_IR-Biotyper [Microplate reader]</parameter><parameter name="HPF">0</parameter><parameter name="LPF">10.0</parameter><parameter name="LPV">4000</parameter><parameter name="PGR">0</parameter><parameter name="RCH">Module port</parameter><parameter name="RDX">0</parameter><parameter name="SRC">MIR</parameter><parameter name="VEL">10.0</parameter><parameter name="SON">Off</parameter></Optic_Parameters_Rf><Acquisition_Parameters_Rf><parameter name="ADT">1</parameter><parameter name="AQM">DD</parameter><parameter name="CFE">0</parameter><parameter name="COR">0</parameter><parameter name="DEL">0</parameter><parameter name="DLY">0</parameter><parameter name="HFW">8000</parameter><parameter name="LFW">0</parameter><parameter name="NSR">32</parameter><parameter name="PLF">AB</parameter><parameter name="RES">6</parameter><parameter name="RGN">-1</parameter><parameter name="STR">0</parameter><parameter name="TCL">MakeCompatibleScalar (0, {WSV=1.000000, ARV=0});</parameter><parameter name="TDL">37</parameter><parameter name="RPO">0</parameter></Acquisition_Parameters_Rf><FT_-_Parameters_Rf><parameter name="APF">B3</parameter><parameter name="HFQ">500</parameter><parameter name="LFQ">4000</parameter><parameter name="NLI">0</parameter><parameter name="PHR">24</parameter><parameter name="PHZ">ML</parameter><parameter name="SPZ">NO</parameter><parameter name="ZFF">1</parameter></FT_-_Parameters_Rf><Optic_Parameters_><parameter name="APR">0</parameter><parameter name="APT">Open</parameter><parameter name="BMS">KBr</parameter><parameter name="CHN">Module port</parameter><parameter name="DTC">RT-DLaTGS_IR-Biotyper [Microplate reader]</parameter><parameter name="HPF">0</parameter><parameter name="LPF">10.0</parameter><parameter name="LPV">4000</parameter><parameter name="PGN">0</parameter><parameter name="RDX">0</parameter><parameter name="SRC">MIR</parameter><parameter name="VEL">10.0</parameter><parameter name="SON">Off</parameter></Optic_Parameters_><FT_-_Parameters_><parameter name="APF">B3</parameter><parameter name="HFQ">500</parameter><parameter name="LFQ">4000</parameter><parameter name="NLI">0</parameter><parameter name="PHR">24</parameter><parameter name="PHZ">ML</parameter><parameter name="SPZ">NO</parameter><parameter name="ZFF">1</parameter></FT_-_Parameters_><Acquisition_Parameters_><parameter name="ADT">1</parameter><parameter name="AQM">DD</parameter><parameter name="CFE">0</parameter><parameter name="COR">0</parameter><parameter name="DEL">0</parameter><parameter name="DLY">0</parameter><parameter name="HFW">8000</parameter><parameter name="LFW">0</parameter><parameter name="NSS">32</parameter><parameter name="PLF">AB</parameter><parameter name="RES">6</parameter><parameter name="SOT">0</parameter><parameter name="TCL">MakeCompatibleScalar (0, {WSV=1.000000, ARV=0});</parameter><parameter name="TDL">37</parameter><parameter name="SPO">0</parameter><parameter name="SGN">-1</parameter></Acquisition_Parameters_><Instrument_Parameters_Rf><parameter name="HFL">15800.168544</parameter><parameter name="LFL">0</parameter><parameter name="LWN">15800.168544</parameter><parameter name="ABP">32197</parameter><parameter name="SSP">1</parameter><parameter name="ARG">2</parameter><parameter name="ASG">2</parameter><parameter name="ASS">32</parameter><parameter name="GFW">16</parameter><parameter name="GBW">16</parameter><parameter name="BFW">0</parameter><parameter name="BBW">0</parameter><parameter name="PKA">7285</parameter><parameter name="PKL">4996</parameter><parameter name="PRA">7462</parameter><parameter name="PRL">5001</parameter><parameter name="P2A">1</parameter><parameter name="P2L">1</parameter><parameter name="P2R">1</parameter><parameter name="P2K">1</parameter><parameter name="DAQ">0</parameter><parameter name="AG2">1</parameter><parameter name="SSM">1</parameter><parameter name="RSN">25306</parameter><parameter name="CRR">0</parameter><parameter name="SRT">1653912735.913</parameter><parameter name="DUR">19.6379852294922</parameter><parameter name="TSC">28.2</parameter><parameter name="MVD">1.01461040973663</parameter><parameter name="AN1">0.225786129333636</parameter><parameter name="AN2">0</parameter><parameter name="VSN">2.485 Apr  4 2017</parameter><parameter name="SRN">0085</parameter><parameter name="CAM">0</parameter><parameter name="INS">IR-Biotyper</parameter><parameter name="FOC">69</parameter><parameter name="RDY">1</parameter><parameter name="ARS">32</parameter></Instrument_Parameters_Rf><Sample_Parameters_><parameter name="BLD"></parameter><parameter name="CNM">Admin</parameter><parameter name="CPY"></parameter><parameter name="DPM"></parameter><parameter name="EXP">IRBT_v3_32Scans.XPM</parameter><parameter name="LCT"></parameter><parameter name="SFM">Microplate, HTS-XT</parameter><parameter name="SNM">220530-1021_SPB34F (D_1)_D10_65a46589-093d-4550-9ad1-e17e2f81e674.0</parameter><parameter name="XPP">C:\Users\Public\Documents\Bruker\OPUS_8.2.28\XPM</parameter><parameter name="IST">OK</parameter><parameter name="CPG">1252</parameter><parameter name="UID">2c800c23-5ecf-429f-9028-4b0ea3907582</parameter></Sample_Parameters_><Instrument_Parameters_><parameter name="HFL">15800.168544</parameter><parameter name="LFL">0</parameter><parameter name="LWN">15800.168544</parameter><parameter name="ABP">32197</parameter><parameter name="SSP">1</parameter><parameter name="ASG">2</parameter><parameter name="ARG">2</parameter><parameter name="ASS">32</parameter><parameter name="GFW">16</parameter><parameter name="GBW">16</parameter><parameter name="BFW">0</parameter><parameter name="BBW">0</parameter><parameter name="PKA">7871</parameter><parameter name="PKL">4988</parameter><parameter name="PRA">8163</parameter><parameter name="PRL">4993</parameter><parameter name="P2A">1</parameter><parameter name="P2L">1</parameter><parameter name="P2R">1</parameter><parameter name="P2K">1</parameter><parameter name="DAQ">0</parameter><parameter name="AG2">1</parameter><parameter name="SSM">1</parameter><parameter name="RSN">13279</parameter><parameter name="CRR">0</parameter><parameter name="SRT">1653912762.479</parameter><parameter name="DUR">19.6369934082031</parameter><parameter name="TSC">28.2</parameter><parameter name="MVD">0.495298743247986</parameter><parameter name="AN1">0.225818937672563</parameter><parameter name="AN2">0</parameter><parameter name="VSN">2.485 Apr  4 2017</parameter><parameter name="SRN">0085</parameter><parameter name="CAM">0</parameter><parameter name="INS">IR-Biotyper</parameter><parameter name="FOC">69</parameter><parameter name="RDY">1</parameter></Instrument_Parameters_><History/></OPUSDataFile>
