<?xml version="1.0" encoding="UTF-8" ?>
<OPUSDataFile><AB><Ydata ylabel="Absorbance Units"><values byteorder="INTEL" format="FLOAT32" numvalues="3497"> -0.09455142 -0.09459063 -0.09461466 -0.09462421 -0.09460796 -0.09456534 -0.09450354 -0.09442414 -0.0943487 -0.0942786
 -0.09423416 -0.09421282 -0.09421787 -0.09424286 -0.09427439 -0.09430801 -0.09432886 -0.09434065 -0.09434029 -0.094337
 -0.09433745 -0.09434605 -0.09436904 -0.09439971 -0.09443777 -0.09447407 -0.09450544 -0.09453128 -0.09455045 -0.09456892
 -0.09458744 -0.09460647 -0.09462607 -0.09463802 -0.09464204 -0.09463154 -0.09460796 -0.09457573 -0.09453784 -0.09450728
 -0.09448585 -0.09448516 -0.09450298 -0.09454253 -0.09459627 -0.09465788 -0.09471859 -0.09476877 -0.09480598 -0.09482563
 -0.09483064 -0.09482175 -0.09479852 -0.09476084 -0.09470843 -0.09463952 -0.0945675 -0.09449255 -0.09443883 -0.09440772
 -0.09440968 -0.09444339 -0.09449342 -0.09455743 -0.09461233 -0.09465996 -0.09469427 -0.09471921 -0.09474225 -0.0947634
 -0.09478626 -0.09480922 -0.09483082 -0.09485283 -0.09487645 -0.09490214 -0.09493288 -0.09495933 -0.09497982 -0.0949823
 -0.09496116 -0.09492169 -0.09486132 -0.09480642 -0.09475864 -0.09474695 -0.09477314 -0.09484739 -0.09496817 -0.09511811
 -0.09529202 -0.09545017 -0.09558762 -0.09566253 -0.09567981 -0.09562585 -0.09551863 -0.09538011 -0.09522893 -0.09509623
 -0.09498889 -0.09492613 -0.09489605 -0.09490068 -0.09491563 -0.0949305 -0.09493665 -0.09492595 -0.09491909 -0.09491798
 -0.09494208 -0.0949955 -0.09506307 -0.09514425 -0.09520309 -0.09523928 -0.09524044 -0.09521136 -0.09517556 -0.09513805
 -0.09513144 -0.09515339 -0.09521813 -0.09531239 -0.09542245 -0.09553181 -0.09561316 -0.09566483 -0.09567318 -0.09565207
 -0.09560494 -0.09554503 -0.09547748 -0.09541276 -0.09535257 -0.0953134 -0.09529714 -0.09532405 -0.09539787 -0.09551548
 -0.0956775 -0.09581017 -0.0959089 -0.09588227 -0.09574325 -0.09552847 -0.09525719 -0.09502464 -0.09483118 -0.09472684
 -0.09469997 -0.09475801 -0.09487647 -0.09503397 -0.09519847 -0.0953349 -0.0954308 -0.09546265 -0.09545524 -0.09541056
 -0.09535974 -0.09531408 -0.09527681 -0.0952514 -0.09522628 -0.09519987 -0.09517315 -0.09514598 -0.09513284 -0.09513428
 -0.0951616 -0.09521309 -0.09528502 -0.09537206 -0.09545345 -0.09552234 -0.09554955 -0.09553581 -0.09546414 -0.09535179
 -0.09520923 -0.09506107 -0.0949317 -0.09483412 -0.09478457 -0.09477907 -0.09482159 -0.09489827 -0.09500736 -0.09513263
 -0.0952721 -0.09540822 -0.09554006 -0.09564226 -0.09571334 -0.09572616 -0.09568074 -0.09557316 -0.09540784 -0.09521108
 -0.09498846 -0.09477475 -0.09457342 -0.09441125 -0.09428746 -0.09421509 -0.0941856 -0.09419682 -0.09423225 -0.09427865
 -0.09432083 -0.09434447 -0.09434941 -0.09432992 -0.09429947 -0.09426009 -0.09422448 -0.0941954 -0.09417865 -0.09417515
 -0.09418855 -0.09421917 -0.09426766 -0.09433325 -0.0944037 -0.09447671 -0.09452941 -0.09456307 -0.09456812 -0.0945524
 -0.09453139 -0.09451068 -0.09450933 -0.09452353 -0.09455694 -0.09460256 -0.09465323 -0.09471241 -0.09477779 -0.09486205
 -0.09497257 -0.09510568 -0.09526759 -0.09542198 -0.09556459 -0.09565992 -0.09570138 -0.09569683 -0.09564634 -0.09556156
 -0.09544184 -0.09527136 -0.0950533 -0.09479817 -0.0945181 -0.09426717 -0.0940538 -0.093931 -0.09389111 -0.09395356
 -0.09408434 -0.09425248 -0.09442183 -0.09454274 -0.09462292 -0.09464899 -0.09464958 -0.09463612 -0.09461642 -0.094598
 -0.09456539 -0.09451732 -0.09443811 -0.09432422 -0.09418553 -0.09402195 -0.09386704 -0.09372267 -0.09362377 -0.09356982
 -0.09357758 -0.09363891 -0.09373488 -0.09384832 -0.09392083 -0.0939507 -0.09389829 -0.0937949 -0.0936649 -0.09353091
 -0.09342894 -0.09334336 -0.09327933 -0.09320419 -0.09310159 -0.0929678 -0.09279229 -0.09261135 -0.09242917 -0.09227867
 -0.092166 -0.09208841 -0.09204666 -0.09201028 -0.09197777 -0.09191969 -0.09183823 -0.09173424 -0.09161289 -0.09149628
 -0.0913863 -0.09129854 -0.09123387 -0.09120101 -0.09119978 -0.09123738 -0.09130097 -0.09138842 -0.09146777 -0.09152021
 -0.09152127 -0.09145112 -0.09132129 -0.09112971 -0.09089642 -0.09062599 -0.09032258 -0.089987 -0.08962177 -0.08922675
 -0.08881681 -0.0883936 -0.08798785 -0.0876032 -0.08728221 -0.08702497 -0.08685989 -0.08677376 -0.08674891 -0.08676579
 -0.08677725 -0.08677983 -0.08674858 -0.08669035 -0.08660877 -0.0864908 -0.08633199 -0.08611353 -0.08581775 -0.08547162
 -0.08507497 -0.08467314 -0.0842762 -0.08390152 -0.08355328 -0.08322736 -0.0829237 -0.08263973 -0.08237584 -0.08214195
 -0.08193827 -0.08177455 -0.08164388 -0.08152775 -0.0814083 -0.0812247 -0.08097167 -0.08059731 -0.08014147 -0.0796311
 -0.07911044 -0.07863528 -0.07820915 -0.07785586 -0.07754776 -0.07728282 -0.07702097 -0.076749 -0.07644787 -0.07610794
 -0.07574904 -0.07537203 -0.07499856 -0.07463084 -0.07425834 -0.07388008 -0.07347275 -0.07303863 -0.07258365 -0.07211367
 -0.07165828 -0.0712182 -0.07081167 -0.07043374 -0.0700845 -0.06975697 -0.06944317 -0.06913505 -0.0688223 -0.0685012
 -0.06816508 -0.06781838 -0.06746306 -0.06709635 -0.06672097 -0.06631744 -0.06588094 -0.06540691 -0.06489015 -0.06437486
 -0.06386317 -0.06340976 -0.06301562 -0.0626887 -0.06242397 -0.06218693 -0.06197143 -0.06173192 -0.0614678 -0.06115031
 -0.06079078 -0.06039423 -0.0599792 -0.05957422 -0.05918572 -0.05883656 -0.05850442 -0.05818706 -0.05784687 -0.05746204
 -0.05702975 -0.05653683 -0.05602869 -0.05551057 -0.05502656 -0.0545848 -0.05418972 -0.0538431 -0.05351599 -0.05320679
 -0.05288425 -0.05254842 -0.05218619 -0.05179852 -0.0513824 -0.0509385 -0.05046432 -0.04996683 -0.04945471 -0.04894297
 -0.04845633 -0.04800145 -0.04759805 -0.04723157 -0.04690058 -0.04658467 -0.04627242 -0.04595998 -0.04564153 -0.04532999
 -0.04502755 -0.04474096 -0.04447348 -0.04420624 -0.04393878 -0.04363555 -0.04329544 -0.04290204 -0.04245971 -0.04199605
 -0.04151827 -0.04107595 -0.04066698 -0.04031513 -0.04000469 -0.03971748 -0.03943754 -0.03913206 -0.03880313 -0.03843633
 -0.03805283 -0.03766188 -0.03728042 -0.03692271 -0.03657892 -0.03625217 -0.03591586 -0.03556397 -0.035186 -0.03477791
 -0.03435558 -0.0339196 -0.03349069 -0.03306965 -0.03266689 -0.03228261 -0.03192278 -0.0315877 -0.03128357 -0.03100721
 -0.03075505 -0.0305184 -0.03027831 -0.03002905 -0.02975139 -0.02945359 -0.02913404 -0.02880921 -0.02849148 -0.02818421
 -0.02789523 -0.02761011 -0.02732521 -0.02703319 -0.02672926 -0.02642835 -0.02613184 -0.02585183 -0.02559026 -0.02532961
 -0.02506861 -0.02477532 -0.02445104 -0.02409041 -0.02370171 -0.02331972 -0.02295244 -0.02264484 -0.02239129 -0.02220711
 -0.02207051 -0.02195854 -0.02185207 -0.02171981 -0.02156692 -0.02138427 -0.02119193 -0.02099922 -0.02081043 -0.02063187
 -0.02044796 -0.02025604 -0.02004712 -0.01981822 -0.01957948 -0.01933108 -0.01909098 -0.0188599 -0.01864868 -0.01845582
 -0.01827462 -0.01809981 -0.01790312 -0.01768076 -0.01740242 -0.01707787 -0.01670729 -0.01631396 -0.01593079 -0.01557344
 -0.01527351 -0.01502272 -0.01482784 -0.01466827 -0.01453519 -0.0144186 -0.01431262 -0.01421791 -0.01413472 -0.01405811
 -0.01398842 -0.01391259 -0.01382968 -0.01372963 -0.01361197 -0.01347036 -0.01330447 -0.01310722 -0.01288049 -0.01262693
 -0.01235376 -0.01208349 -0.01182307 -0.01160071 -0.01141051 -0.01126077 -0.01113033 -0.01100291 -0.01085789 -0.01067212
 -0.01044975 -0.01017957 -0.009899083 -0.009614623 -0.009369861 -0.009178719 -0.009044995 -0.008975253 -0.008924874 -0.008891074
 -0.008833782 -0.008752116 -0.008660238 -0.008561861 -0.008500552 -0.008473287 -0.008491354 -0.008542267 -0.008593339 -0.008636283
 -0.008634977 -0.008595889 -0.008510155 -0.008394172 -0.008261459 -0.008122808 -0.007993503 -0.007865013 -0.007741103 -0.00759687
 -0.007424061 -0.007210142 -0.006945391 -0.006659511 -0.006351349 -0.006081994 -0.005856331 -0.005717083 -0.005665397 -0.005687825
 -0.005779263 -0.005884958 -0.006001917 -0.006084934 -0.006138855 -0.006155742 -0.006139802 -0.006098328 -0.006027429 -0.00592252
 -0.005785802 -0.005610919 -0.005422521 -0.005232788 -0.005069837 -0.004955916 -0.004883321 -0.004861063 -0.004844914 -0.004827024
 -0.004774061 -0.004676771 -0.004549527 -0.004391143 -0.004248654 -0.0041243 -0.004054711 -0.004038197 -0.004074153 -0.004155518
 -0.004248324 -0.004344365 -0.004399471 -0.004411795 -0.004352512 -0.004233066 -0.004052788 -0.003837348 -0.003610021 -0.003397127
 -0.003227461 -0.00310372 -0.003041049 -0.003009083 -0.003004286 -0.002987511 -0.002948456 -0.002869742 -0.002746457 -0.002581415
 -0.002374583 -0.002126196 -0.00183626 -0.001501781 -0.001125406 -0.0007294588 -0.0003229815 3.597281E-05 0.0003408718 0.0005346375
 0.000630006 0.0006183262 0.0005348758 0.0004251903 0.000323826 0.0002892017 0.0003205837 0.0004461767 0.0006190089 0.0008302796
 0.001016177 0.001152264 0.00120518 0.001157103 0.001030829 0.0008229224 0.0005935208 0.0003470816 0.0001330625 -4.634655E-05
 -0.0001822466 -0.0002765437 -0.0003466591 -0.0003931285 -0.0004282118 -0.0004493048 -0.0004537584 -0.0004405947 -0.0004034306 -0.0003501205
 -0.0002846699 -0.0002282827 -0.0002010316 -0.000228695 -0.0003390991 -0.0005357114 -0.000835983 -0.001202355 -0.001631961 -0.002067189
 -0.002494686 -0.002876885 -0.003204707 -0.003474271 -0.003683513 -0.003849375 -0.00397287 -0.004083648 -0.004183402 -0.00430256
 -0.00443843 -0.004594866 -0.004763692 -0.004917592 -0.005056965 -0.005163304 -0.005255871 -0.005354972 -0.005478812 -0.005661418
 -0.005889623 -0.00617305 -0.006467755 -0.006756706 -0.006999766 -0.007175357 -0.00728105 -0.007305652 -0.007294485 -0.007248322
 -0.007239508 -0.007274646 -0.007401573 -0.007622374 -0.00791829 -0.008283988 -0.00865296 -0.009022672 -0.009342733 -0.009620199
 -0.009851754 -0.01004521 -0.01021759 -0.01036972 -0.01050947 -0.01063794 -0.01075673 -0.01087415 -0.01099619 -0.01113046
 -0.01128459 -0.01145352 -0.01163938 -0.01182632 -0.012011 -0.0121825 -0.01233726 -0.01248159 -0.01261491 -0.01275732
 -0.01290983 -0.0130872 -0.01328852 -0.01350885 -0.01374513 -0.01397792 -0.01420573 -0.01441251 -0.01460064 -0.01476675
 -0.0149157 -0.01505303 -0.01518382 -0.01531526 -0.01545142 -0.01559757 -0.01575547 -0.01592772 -0.01611321 -0.01631232
 -0.01652291 -0.01674455 -0.01697577 -0.01721657 -0.01746403 -0.01771824 -0.01797165 -0.01822383 -0.01846359 -0.01869059
 -0.01889695 -0.01908377 -0.01925215 -0.01940501 -0.01955236 -0.0196973 -0.01985241 -0.02001755 -0.02019942 -0.02039257
 -0.020595 -0.02079771 -0.0209945 -0.02117548 -0.02133504 -0.02146321 -0.02155449 -0.02160667 -0.02161413 -0.02160053
 -0.02156483 -0.02155749 -0.02158273 -0.02168263 -0.02185946 -0.02210695 -0.02242089 -0.02274861 -0.02308481 -0.02337085
 -0.02360894 -0.02377177 -0.02387293 -0.02392616 -0.02395255 -0.02399166 -0.02405671 -0.02418307 -0.02435754 -0.02458749
 -0.02483788 -0.02509235 -0.02532652 -0.02552401 -0.02569173 -0.0258273 -0.02594639 -0.02605326 -0.02614081 -0.02620986
 -0.02623575 -0.0262172 -0.02614707 -0.02602821 -0.025893 -0.02574819 -0.02565053 -0.02560154 -0.02564114 -0.02575661
 -0.02594199 -0.02617576 -0.02641932 -0.0266625 -0.02687502 -0.02706738 -0.02723791 -0.02739798 -0.02755756 -0.02770683
 -0.02784583 -0.02795893 -0.02803872 -0.02809599 -0.02812886 -0.02816865 -0.02821906 -0.02828954 -0.02838079 -0.02846582
 -0.02854318 -0.02858485 -0.02859414 -0.02857535 -0.02853481 -0.0284982 -0.0284668 -0.02845773 -0.02846602 -0.02849095
 -0.0285285 -0.02857134 -0.02862501 -0.02868795 -0.0287771 -0.02890033 -0.02907218 -0.02930451 -0.02958357 -0.02991479
 -0.03024762 -0.03057699 -0.03084868 -0.03105492 -0.03118862 -0.0312489 -0.03128818 -0.03131043 -0.03138331 -0.03150458
 -0.03169923 -0.0319537 -0.03223425 -0.03252641 -0.03277568 -0.03298383 -0.03312405 -0.03321812 -0.03327847 -0.03332963
 -0.03339764 -0.03348801 -0.03361541 -0.03376058 -0.03392259 -0.03407221 -0.03420069 -0.03429586 -0.03435058 -0.03439041
 -0.03441524 -0.03447414 -0.03456997 -0.03472557 -0.03493823 -0.03517446 -0.03542878 -0.03564705 -0.03583445 -0.03597774
 -0.03609282 -0.03621362 -0.03634606 -0.03652069 -0.03672209 -0.03694603 -0.03717286 -0.03738286 -0.03757273 -0.03773435
 -0.03787293 -0.03799107 -0.03808245 -0.03814723 -0.03817273 -0.03815491 -0.03810014 -0.03800648 -0.03790974 -0.03781177
 -0.03775852 -0.03775116 -0.03781676 -0.03795142 -0.03814718 -0.038395 -0.0386588 -0.03892952 -0.03916636 -0.03936714
 -0.03950821 -0.03959605 -0.03962796 -0.03961398 -0.03956097 -0.03947718 -0.03936811 -0.03924154 -0.03909979 -0.03895518
 -0.03880999 -0.03867937 -0.03856682 -0.03847745 -0.03841377 -0.03835659 -0.03830516 -0.03821795 -0.03809318 -0.03789536
 -0.03762817 -0.03729428 -0.03690432 -0.03649894 -0.03608651 -0.03571056 -0.03536735 -0.03507256 -0.03481314 -0.03457974
 -0.03436198 -0.03414734 -0.03393331 -0.03371494 -0.03349308 -0.03326681 -0.03303801 -0.03280548 -0.03257877 -0.0323577
 -0.03216162 -0.03199234 -0.03186578 -0.03178317 -0.03173998 -0.03173481 -0.03174454 -0.03176808 -0.03178591 -0.03180058
 -0.03181214 -0.03182213 -0.03183726 -0.03185074 -0.03185508 -0.03184123 -0.03179159 -0.03171252 -0.03159864 -0.03147295
 -0.03134739 -0.0312366 -0.03115316 -0.03108547 -0.03103506 -0.03097858 -0.03091161 -0.03082321 -0.03071085 -0.03058021
 -0.03043135 -0.03027994 -0.03012745 -0.0299985 -0.02989512 -0.02984426 -0.02984464 -0.02990815 -0.0300271 -0.03018975
 -0.03038573 -0.03059115 -0.03080125 -0.03099787 -0.03118929 -0.03137159 -0.03156884 -0.03179024 -0.03206581 -0.03241081
 -0.03283727 -0.03335666 -0.03394387 -0.03460076 -0.0352736 -0.03595784 -0.03660352 -0.03720707 -0.03774954 -0.0382315
 -0.03866284 -0.03904496 -0.03939215 -0.03970399 -0.03998507 -0.04023704 -0.04046422 -0.0406737 -0.04087997 -0.04108793
 -0.04131279 -0.04154583 -0.04178783 -0.0420206 -0.04223315 -0.04241582 -0.04255981 -0.04267171 -0.04275075 -0.04280828
 -0.04284655 -0.04287047 -0.04288124 -0.04287594 -0.04285451 -0.04281121 -0.04274639 -0.042664 -0.04256798 -0.04248612
 -0.04242473 -0.04242621 -0.04248874 -0.04263437 -0.04284569 -0.04310501 -0.04338935 -0.04366173 -0.04391246 -0.04411749
 -0.04428587 -0.04441376 -0.04452013 -0.04461055 -0.04470336 -0.04480493 -0.04492456 -0.04506632 -0.04522387 -0.04539763
 -0.04557255 -0.04574745 -0.04592176 -0.04609692 -0.04630018 -0.04653412 -0.0468331 -0.04719226 -0.04761489 -0.04808494
 -0.04856318 -0.04903507 -0.04945144 -0.04981943 -0.05012199 -0.05038856 -0.05063862 -0.05089507 -0.05118266 -0.05149192
 -0.05182895 -0.05216397 -0.05248923 -0.05278753 -0.05305262 -0.05328978 -0.05349834 -0.05369059 -0.05386729 -0.05403634
 -0.05419808 -0.05435858 -0.05451815 -0.05468259 -0.0548513 -0.05502594 -0.05520355 -0.05537795 -0.05554498 -0.05569355
 -0.0558232 -0.05592629 -0.05601161 -0.05608185 -0.05615199 -0.05623217 -0.05633056 -0.05645591 -0.05659853 -0.05675997
 -0.05691803 -0.05706904 -0.05719626 -0.05729612 -0.05737269 -0.05742566 -0.05747527 -0.05752229 -0.05758109 -0.05765008
 -0.05772375 -0.05780048 -0.05786865 -0.05793227 -0.05799504 -0.05806404 -0.05815584 -0.05826996 -0.05841548 -0.05858099
 -0.05876093 -0.05894171 -0.05911379 -0.05926796 -0.05939799 -0.05950036 -0.05957121 -0.05961809 -0.05963938 -0.05965828
 -0.05967663 -0.05971886 -0.05978711 -0.05988396 -0.06000863 -0.06014235 -0.060284 -0.06041598 -0.06053951 -0.06065064
 -0.0607506 -0.06084104 -0.06092161 -0.06099165 -0.0610528 -0.06110578 -0.06115539 -0.06120693 -0.06126121 -0.06132236
 -0.06138233 -0.06143925 -0.06148463 -0.06151325 -0.06153259 -0.06154073 -0.06156202 -0.06159915 -0.06166977 -0.06177596
 -0.06190554 -0.06205703 -0.0621968 -0.06232434 -0.06241831 -0.06248372 -0.06253006 -0.06256344 -0.06260742 -0.06266083
 -0.06273453 -0.06281974 -0.06290966 -0.06299634 -0.06306837 -0.06312718 -0.06316829 -0.06320216 -0.06323137 -0.06326702
 -0.06331352 -0.06337401 -0.06345069 -0.06353813 -0.06363618 -0.0637377 -0.06384216 -0.06394552 -0.06404763 -0.06414717
 -0.06424411 -0.06433745 -0.06442732 -0.06451358 -0.06459667 -0.06467777 -0.06475705 -0.06483553 -0.06491269 -0.0649884
 -0.06506198 -0.06513257 -0.06520022 -0.06526435 -0.0653264 -0.06538668 -0.065447 -0.06550808 -0.06557028 -0.06563412
 -0.06569751 -0.06576041 -0.06581938 -0.06587415 -0.06592271 -0.06596503 -0.06600189 -0.06603361 -0.06606299 -0.06609032
 -0.06611818 -0.0661466 -0.06617659 -0.06620882 -0.06624457 -0.06628566 -0.06633502 -0.06639399 -0.06646559 -0.06654782
 -0.06664134 -0.06674047 -0.06684341 -0.0669442 -0.06704061 -0.06712966 -0.06720992 -0.06728339 -0.06734978 -0.06741486
 -0.06747903 -0.06754639 -0.06761693 -0.06768845 -0.06776029 -0.06782579 -0.06788509 -0.06793473 -0.06797642 -0.068013
 -0.0680463 -0.06808148 -0.0681186 -0.06816025 -0.06820482 -0.0682518 -0.06829961 -0.06834696 -0.06839348 -0.06843854
 -0.06848285 -0.06852654 -0.06856991 -0.06861322 -0.06865557 -0.06869692 -0.06873625 -0.0687734 -0.06880919 -0.06884367
 -0.06887864 -0.06891406 -0.06895024 -0.06898697 -0.06902308 -0.06905911 -0.06909571 -0.06913424 -0.06917802 -0.06922696
 -0.06928331 -0.06934359 -0.06940566 -0.06946563 -0.06951927 -0.06956819 -0.06961104 -0.06965417 -0.06969974 -0.06974996
 -0.06980661 -0.06986392 -0.06992161 -0.06997282 -0.07001677 -0.07005469 -0.07008677 -0.07011969 -0.07015345 -0.07019092
 -0.07023115 -0.07027083 -0.0703095 -0.0703437 -0.07037441 -0.07040169 -0.07042729 -0.07045349 -0.07048189 -0.07051488
 -0.07055314 -0.07059859 -0.07064856 -0.07070342 -0.07075633 -0.07080543 -0.07084522 -0.07087348 -0.07089221 -0.07090082
 -0.07090719 -0.0709119 -0.07092031 -0.07093258 -0.07094864 -0.07096844 -0.0709914 -0.07101797 -0.07105031 -0.0710883
 -0.07113331 -0.07118361 -0.07123664 -0.07129034 -0.07134043 -0.07138676 -0.0714272 -0.07146354 -0.07149623 -0.07152715
 -0.07155719 -0.07158778 -0.07161946 -0.07165337 -0.07169 -0.0717291 -0.07177103 -0.07181241 -0.07185309 -0.07188851
 -0.07191853 -0.07194124 -0.07195693 -0.07196766 -0.07197385 -0.07197872 -0.07198227 -0.07198606 -0.07199025 -0.07199556
 -0.07200302 -0.0720145 -0.07203055 -0.07205337 -0.07208002 -0.0721103 -0.07213788 -0.07215962 -0.07217178 -0.07217143
 -0.07216223 -0.07214369 -0.07212406 -0.07210434 -0.07209047 -0.07208309 -0.07208329 -0.07209111 -0.07210517 -0.07212532
 -0.07214953 -0.07217767 -0.07220808 -0.07224064 -0.07227432 -0.07230872 -0.07234273 -0.07237545 -0.07240482 -0.07243104
 -0.07245281 -0.07247283 -0.07249246 -0.07251415 -0.07254029 -0.07256863 -0.0725997 -0.07262777 -0.07265149 -0.07266806
 -0.07267632 -0.07268048 -0.07268064 -0.07268388 -0.07269046 -0.07270341 -0.07272232 -0.07274428 -0.07276882 -0.07279198
 -0.07281394 -0.07283327 -0.07285021 -0.07286456 -0.07287665 -0.0728862 -0.07289558 -0.07290666 -0.07292257 -0.07294715
 -0.07297842 -0.07301816 -0.07305722 -0.07309323 -0.07311853 -0.07312997 -0.07313 -0.07311779 -0.07310307 -0.07308662
 -0.07307501 -0.07306846 -0.07306551 -0.07306574 -0.07306402 -0.07306092 -0.07305604 -0.07305142 -0.07305367 -0.07306334
 -0.07308643 -0.07311832 -0.07315573 -0.07319205 -0.07321811 -0.07323372 -0.0732339 -0.07322719 -0.07321616 -0.07320864
 -0.07320891 -0.07321574 -0.07323025 -0.07324626 -0.07326283 -0.07327766 -0.07329031 -0.07330279 -0.07331518 -0.07332894
 -0.07334398 -0.07335974 -0.07337622 -0.0733934 -0.07341096 -0.07342846 -0.07344428 -0.07345487 -0.07345872 -0.07345113
 -0.07343425 -0.07340745 -0.07337645 -0.07334498 -0.07331739 -0.07329743 -0.07328446 -0.07327964 -0.07327889 -0.07328161
 -0.07328415 -0.0732858 -0.07328544 -0.07328282 -0.07327935 -0.0732751 -0.07327235 -0.07327101 -0.07327139 -0.07327314
 -0.0732746 -0.07327551 -0.0732739 -0.07327012 -0.07326356 -0.0732557 -0.07324813 -0.07324313 -0.07324428 -0.07325108
 -0.07326572 -0.07328233 -0.0732993 -0.07330931 -0.0733087 -0.07329714 -0.07327276 -0.07324362 -0.07321047 -0.07318091
 -0.07315587 -0.07313614 -0.07312174 -0.07310893 -0.07309775 -0.07308674 -0.07307704 -0.07307359 -0.0730781 -0.07309879
 -0.07313644 -0.07319717 -0.07327987 -0.07338547 -0.07351276 -0.07365993 -0.07382885 -0.07401893 -0.07423646 -0.07448372
 -0.074768 -0.07509273 -0.07545997 -0.07587161 -0.07632335 -0.07681544 -0.07733981 -0.07789652 -0.07846963 -0.07905795
 -0.07961731 -0.08014237 -0.08055808 -0.08086167 -0.08099472 -0.08096739 -0.08078085 -0.08044944 -0.08000141 -0.07945623
 -0.07884654 -0.07821166 -0.0776038 -0.07705399 -0.07660424 -0.07625815 -0.07602881 -0.07590967 -0.07590247 -0.07599562
 -0.07619312 -0.07645008 -0.07676704 -0.0770536 -0.07730132 -0.07745271 -0.07750504 -0.07748816 -0.07740572 -0.07731009
 -0.07720051 -0.07710018 -0.07700406 -0.07690768 -0.07680676 -0.07668839 -0.07655369 -0.07639713 -0.07622544 -0.07604346
 -0.07585745 -0.07567435 -0.07549505 -0.07532218 -0.07515369 -0.07498877 -0.07482862 -0.07467239 -0.07452718 -0.07439372
 -0.0742794 -0.07418538 -0.07410984 -0.07405265 -0.07400005 -0.07395122 -0.07389155 -0.07382234 -0.0737427 -0.07365607
 -0.07357395 -0.07349823 -0.07343957 -0.07339625 -0.07337088 -0.0733594 -0.07335881 -0.07336465 -0.07337297 -0.07337996
 -0.0733826 -0.07337929 -0.0733683 -0.07335162 -0.0733291 -0.0733042 -0.07327741 -0.07325122 -0.07322584 -0.07320333
 -0.07318383 -0.07317043 -0.07316335 -0.07316622 -0.07317896 -0.07320334 -0.07323818 -0.07328102 -0.07332941 -0.0733768
 -0.07342085 -0.07345419 -0.07347775 -0.07348855 -0.07349171 -0.0734897 -0.07348801 -0.07349095 -0.07349854 -0.07351276
 -0.07352795 -0.07354325 -0.07355358 -0.0735575 -0.07355619 -0.07354934 -0.07354282 -0.07353696 -0.07353596 -0.07353967
 -0.07354735 -0.07355846 -0.07356972 -0.0735807 -0.07358829 -0.0735923 -0.07359052 -0.07358357 -0.07357083 -0.07355472
 -0.07353723 -0.07352178 -0.07351196 -0.07350875 -0.07351431 -0.07352599 -0.07354363 -0.07356344 -0.07358431 -0.07360478
 -0.07362436 -0.07364342 -0.07366202 -0.07367949 -0.07369581 -0.07370879 -0.07371832 -0.07372252 -0.0737215 -0.07371496
 -0.07370327 -0.07368742 -0.07366793 -0.07364643 -0.07362348 -0.07360061 -0.07357847 -0.07355811 -0.07354073 -0.07352735
 -0.07351942 -0.0735183 -0.07352357 -0.07353622 -0.07355184 -0.07356997 -0.07358486 -0.0735952 -0.07360002 -0.07359871
 -0.0735973 -0.07359612 -0.07360196 -0.07361471 -0.07363449 -0.07366013 -0.07368463 -0.07370715 -0.07372044 -0.07372564
 -0.07372114 -0.07371002 -0.07369638 -0.07368315 -0.07367563 -0.07367418 -0.07368159 -0.0736946 -0.07371296 -0.07373113
 -0.07374714 -0.07375681 -0.07375817 -0.07375196 -0.0737374 -0.07372034 -0.07370108 -0.0736867 -0.07367764 -0.07367645
 -0.07368287 -0.07369342 -0.07370736 -0.0737182 -0.07372568 -0.07372492 -0.07371719 -0.07370238 -0.0736835 -0.07366526
 -0.07365048 -0.07364496 -0.07364792 -0.07366183 -0.07368129 -0.07370446 -0.07372554 -0.07374163 -0.07375092 -0.07375212
 -0.07374658 -0.07373432 -0.07371683 -0.07369419 -0.07366847 -0.07363978 -0.07361241 -0.07358658 -0.07356684 -0.07355291
 -0.07354547 -0.07354368 -0.07354464 -0.07354788 -0.07355065 -0.07355333 -0.07355535 -0.07355738 -0.07356025 -0.07356378
 -0.07356849 -0.07357301 -0.07357682 -0.07357842 -0.07357684 -0.0735725 -0.07356507 -0.07355669 -0.07354786 -0.0735387
 -0.0735295 -0.07351713 -0.07350142 -0.07348014 -0.07345352 -0.07342485 -0.07339474 -0.07336912 -0.07334761 -0.07333231
 -0.07332161 -0.07331242 -0.0733039 -0.07329263 -0.07327993 -0.0732656 -0.0732523 -0.07324205 -0.07323694 -0.07323924
 -0.07324794 -0.07326414 -0.07328235 -0.07330196 -0.07331544 -0.07332118 -0.07331604 -0.07329902 -0.07327534 -0.07324521
 -0.07321734 -0.07319193 -0.07317355 -0.07316162 -0.07315478 -0.07315216 -0.0731497 -0.0731471 -0.07314128 -0.07313326
 -0.07312296 -0.0731127 -0.07310564 -0.07310197 -0.07310418 -0.0731075 -0.07311033 -0.07310732 -0.07309468 -0.07307499
 -0.0730469 -0.0730203 -0.07299681 -0.07298256 -0.07297895 -0.07298225 -0.07299238 -0.07300028 -0.07300562 -0.07300207
 -0.07299026 -0.07297082 -0.07294526 -0.07291998 -0.07289554 -0.0728773 -0.07286352 -0.07285377 -0.0728459 -0.07283646
 -0.07282601 -0.07281348 -0.07280096 -0.0727897 -0.07277994 -0.07277218 -0.07276572 -0.07276001 -0.07275724 -0.07275759
 -0.07276365 -0.07277611 -0.07279199 -0.07281125 -0.07282566 -0.07283501 -0.0728348 -0.07282597 -0.07281254 -0.0727957
 -0.07278275 -0.07277282 -0.07276789 -0.07276557 -0.07276222 -0.0727571 -0.07274732 -0.07273456 -0.07271937 -0.072703
 -0.07268647 -0.07267004 -0.07265399 -0.07263847 -0.07262377 -0.0726091 -0.07259469 -0.07257752 -0.07255711 -0.07253329
 -0.07250593 -0.07248233 -0.07246292 -0.07245613 -0.07246108 -0.07247642 -0.07249967 -0.07251988 -0.07253579 -0.07253762
 -0.07252792 -0.07250614 -0.07247669 -0.07244528 -0.07241347 -0.07238541 -0.0723585 -0.07233214 -0.07230481 -0.07227451
 -0.07224589 -0.07221953 -0.07220086 -0.0721918 -0.07218955 -0.07219464 -0.07219674 -0.07219523 -0.07218271 -0.0721592
 -0.07212546 -0.07208228 -0.0720356 -0.071986 -0.07193924 -0.0718947 -0.07185417 -0.07181583 -0.0717769 -0.07173698
 -0.07169337 -0.07164961 -0.07160749 -0.07157102 -0.07154455 -0.07152493 -0.07151351 -0.07150025 -0.07148225 -0.07145444
 -0.0714142 -0.07136811 -0.07131632 -0.0712683 -0.07122481 -0.07118549 -0.07114998 -0.07111032 -0.07106666 -0.07101581
 -0.07095955 -0.07090362 -0.07084936 -0.07080381 -0.07076611 -0.07073807 -0.07071818 -0.0707055 -0.0706981 -0.07069494
 -0.07069159 -0.07068591 -0.07067207 -0.07064636 -0.07060867 -0.07055689 -0.07049897 -0.07043567 -0.07037595 -0.07032124
 -0.07027371 -0.0702337 -0.07019743 -0.0701647 -0.07013172 -0.07009872 -0.07006569 -0.07003292 -0.07000203 -0.06997231
 -0.06994305 -0.06991284 -0.06987878 -0.06983994 -0.06979351 -0.06974041 -0.06967967 -0.06961489 -0.06954724 -0.06948218
 -0.06942245 -0.06937079 -0.06932957 -0.06929441 -0.06926562 -0.06923416 -0.06919892 -0.0691546 -0.06910056 -0.06904076
 -0.06897561 -0.06891358 -0.0688547 -0.06880329 -0.06875818 -0.06871681 -0.06867803 -0.06863698 -0.06859423 -0.0685483
 -0.06850085 -0.06845383 -0.06840727 -0.06836255 -0.06831718 -0.06827001 -0.06821916 -0.06816299 -0.06810311 -0.06803939
 -0.06797475 -0.06790996 -0.06784529 -0.06778102 -0.06771518 -0.06764758 -0.06757782 -0.06750613 -0.06743766 -0.06737316
 -0.06732102 -0.06728101 -0.06725764 -0.06724756 -0.06724529 -0.06724449 -0.06723033 -0.06719959 -0.06713922 -0.06705665
 -0.06695194 -0.06683885 -0.06672634 -0.06662212 -0.06653325 -0.06645591 -0.06639143 -0.06633011 -0.06627013 -0.06620566
 -0.06613538 -0.06606035 -0.06598046 -0.06590058 -0.0658211 -0.06574955 -0.06568623 -0.06563795 -0.0656029 -0.06557852
 -0.06555961 -0.06552994 -0.06548682 -0.06541508 -0.06532097 -0.0652052 -0.0650776 -0.0649474 -0.06482144 -0.0647072
 -0.064606 -0.06452116 -0.06444822 -0.06438728 -0.06433064 -0.06427709 -0.06421965 -0.06415742 -0.06408539 -0.06400312
 -0.06390836 -0.06380121 -0.06368467 -0.06355949 -0.06343289 -0.06330527 -0.06318225 -0.06306357 -0.06295128 -0.06284528
 -0.06274682 -0.06265447 -0.06256786 -0.06248272 -0.06239485 -0.06230162 -0.06219858 -0.06209036 -0.06197733 -0.06186597
 -0.06175927 -0.0616563 -0.06155807 -0.06145807 -0.06135544 -0.06124732 -0.06113322 -0.06101803 -0.06090196 -0.0607902
 -0.06068191 -0.06057289 -0.06046107 -0.06033402 -0.06019221 -0.06002921 -0.0598497 -0.05965993 -0.05946322 -0.05926733
 -0.05907176 -0.05887855 -0.05868724 -0.05849738 -0.05831115 -0.05812885 -0.05795445 -0.05778899 -0.05763628 -0.05749806
 -0.05737173 -0.05725889 -0.05713981 -0.05701356 -0.05685338 -0.05665878 -0.05643114 -0.05617336 -0.05591193 -0.05564754
 -0.0553978 -0.05515981 -0.05493456 -0.05471842 -0.05450488 -0.05429142 -0.05407098 -0.05384524 -0.05361184 -0.05337747
 -0.05314708 -0.05292096 -0.05270439 -0.05248009 -0.05224521 -0.05197975 -0.05167617 -0.0513422 -0.05097634 -0.05060288
 -0.05022392 -0.04984649 -0.04947064 -0.04909075 -0.048707 -0.04831948 -0.04792769 -0.04753166 -0.04712592 -0.046695
 -0.04623292 -0.04571601 -0.04515307 -0.04454237 -0.04390482 -0.04326169 -0.04262182 -0.04199914 -0.04138994 -0.04079532
 -0.04021313 -0.03964318 -0.03908324 -0.03853589 -0.03798036 -0.03741746 -0.03679927 -0.03612165 -0.03535916 -0.03451272
 -0.03364292 -0.03275387 -0.03191232 -0.03110958 -0.03033856 -0.02959028 -0.02883209 -0.02806565 -0.02727933 -0.02647618
 -0.02566071 -0.02482046 -0.02395139 -0.02302282 -0.02201297 -0.02090168 -0.01966266 -0.0183349 -0.01691502 -0.01548641
 -0.01406658 -0.01270652 -0.01141795 -0.01020215 -0.009061305 -0.007967812 -0.006919312 -0.005855045 -0.004768775 -0.003570159
 -0.002268086 -0.0008427526 0.0006627212 0.002117481 0.003512981 0.004753562 0.005888834 0.006951529 0.007978061 0.009022969
 0.01008464 0.01117868 0.01229491 0.01342908 0.01458636 0.01577135 0.0169696 0.01818256 0.0193741 0.02053735
 0.0216707 0.02277328 0.02385535 0.02491609 0.02590956 0.02683104 0.02761332 0.02826125 0.0287609 0.02912534
 0.02938573 0.02955486 0.02967381 0.02974949 0.02981017 0.02985436 0.02988915 0.02991607 0.02993757 0.0299565
 0.02997834 0.02999016 0.02999277 0.02995781 0.02988137 0.02973193 0.02950484 0.02917726 0.02874525 0.02822954
 0.02763204 0.02702092 0.0263963 0.02578788 0.0251871 0.02456456 0.02391759 0.02321737 0.02247838 0.02171191
 0.02094506 0.02022468 0.01956119 0.01898852 0.01848798 0.01805671 0.01767811 0.01733921 0.01704788 0.01680379
 0.01661644 0.01649149 0.01641189 0.01637748 0.01636112 0.01636026 0.01636266 0.0163679 0.0163806 0.01640134
 0.01643829 0.01649014 0.01655506 0.01663002 0.01670433 0.01677656 0.01683801 0.01688994 0.01693005 0.01696111
 0.01698401 0.0170043 0.01702502 0.0170538 0.01709557 0.01715281 0.01722867 0.01731746 0.01741904 0.01752546
 0.01763592 0.01774227 0.01784382 0.01793337 0.01801072 0.01808054 0.01814481 0.01822663 0.01832662 0.0184634
 0.01862906 0.01880862 0.01899356 0.01915661 0.01929791 0.01940635 0.01948351 0.0195274 0.0195386 0.01951766
 0.01946264 0.01937707 0.01924221 0.01905777 0.01878426 0.0184085 0.01792917 0.0173351 0.01671741 0.01608416
 0.01547941 0.01490449 0.01430866 0.01368956 0.01300421 0.01225608 0.01144139 0.01056395 0.009637805 0.008655519
 0.007611722 0.006488591 0.005242904 0.003903682 0.00245705 0.001019804 -0.0003159521 -0.001513339 -0.002505148 -0.003387688
 -0.004179927 -0.004955426 -0.005740901 -0.006536623 -0.007348208 -0.00814879 -0.008935596 -0.009706047 -0.01046013 -0.01121553
 -0.011972 -0.01273391 -0.01349776 -0.01424609 -0.01497779 -0.01567749 -0.01635194 -0.01700776 -0.01765306 -0.01830382
 -0.01896266 -0.01963679 -0.0203312 -0.02104705 -0.02180362 -0.0226123 -0.02348105 -0.02443342 -0.02538376 -0.02632473
 -0.02713958 -0.02779739 -0.02833769 -0.0287574 -0.02916449 -0.02956403 -0.03000082 -0.03047081 -0.03094165 -0.0314088
 -0.0318269 -0.03220491 -0.03255014 -0.03287007 -0.03319234 -0.03350091 -0.03378691 -0.03402443 -0.03417605 -0.03424502
 -0.03421603 -0.03411749 -0.03396049 -0.0337635 -0.03353766 -0.03328151 -0.03299911 -0.03267234 -0.03230146 -0.03185166
 -0.03131937 -0.03068424 -0.02994568 -0.02916501 -0.02834896 -0.02759985 -0.02691392 -0.02632418 -0.02581883 -0.02537357
 -0.02498499 -0.02463333 -0.02432032 -0.02404496 -0.02379565 -0.02356697 -0.02332644 -0.02304658 -0.02271142 -0.02229262
 -0.02183689 -0.02135211 -0.02088624 -0.02045692 -0.02006259 -0.01970631 -0.01937403 -0.01906416 -0.01877636 -0.01851059
 -0.0182749 -0.01806938 -0.01789775 -0.0177591 -0.01765134 -0.01757172 -0.0175123 -0.01746549 -0.01741211 -0.01734169
 -0.01722834 -0.01706909 -0.01684997 -0.01657452 -0.01624165 -0.01585312 -0.015409 -0.01491271 -0.01436435 -0.01377175
 -0.01313763 -0.01246245 -0.01174821 -0.01098024 -0.01015682 -0.009273465 -0.008330024 -0.007368731 -0.00639351 -0.005466885
 -0.004587473 -0.003779321 -0.00303756 -0.002355724 -0.00173586 -0.001177683 -0.0006892584 -0.0002833242 3.425556E-05 0.0002523191
 0.0003675585 0.0003756161 0.0002696849 4.598774E-05 -0.0003030655 -0.0007831604 -0.001389172 -0.002126646 -0.002957784 -0.003882325
 -0.004832532 -0.005801841 -0.006745195 -0.007659899 -0.008557749 -0.009440769 -0.01034051 -0.01125427 -0.01218378 -0.01312109
 -0.01403745 -0.01493132 -0.01578267 -0.01659904 -0.01738415 -0.01814356 -0.0188863 -0.01961126 -0.02032079 -0.0210119
 -0.02168368 -0.0223336 -0.02296119 -0.02356195 -0.02413513 -0.02467533 -0.02518147 -0.02565119 -0.02608419 -0.02647909
 -0.0268358 -0.02714933 -0.02741947 -0.02764115 -0.02781571 -0.02794766 -0.02804033 -0.02810761 -0.02815231 -0.02818794
 -0.02821536 -0.02824211 -0.02826724 -0.02829257 -0.02831673 -0.02833807 -0.02835957 -0.02838046 -0.02841044 -0.0284523
 -0.02851546 -0.02860399 -0.0287165 -0.02885474 -0.02900537 -0.02916762 -0.02932637 -0.02948071 -0.02962408 -0.02975657
 -0.02987864 -0.02999013 -0.03009037 -0.0301787 -0.03025179 -0.03031028 -0.03035339 -0.03038347 -0.03040421 -0.03041693
 -0.03042524 -0.03042758 -0.03042393 -0.03041256 -0.03039185 -0.0303633 -0.03032608 -0.0302863 -0.0302446 -0.03020946
 -0.03018213 -0.03016998 -0.03017404 -0.03019675 -0.03023834 -0.03029605 -0.03036955 -0.0304538 -0.0305484 -0.03064859
 -0.03075368 -0.03085878 -0.03096301 -0.03106176 -0.03115482 -0.03123965 -0.03131682 -0.03138598 -0.03144789 -0.03150306
 -0.03155202 -0.03159529 -0.03163279 -0.03166467 -0.03169048 -0.03170984 -0.03172414 -0.03173314 -0.03174116 -0.03174856
 -0.03175926 -0.03177353 -0.03179071 -0.03181052 -0.03182859 -0.03184468 -0.03185498 -0.03185976 -0.03185809 -0.03185009
 -0.03183607 -0.03181479 -0.03178452 -0.03174371 -0.03168897 -0.03162227 -0.03154306 -0.03145654 -0.03136576 -0.03127298
 -0.0311806 -0.03108532 -0.03098623 -0.0308833 -0.03077549 -0.03067021 -0.03056808 -0.03047472 -0.03039056 -0.0303125
 -0.03024034 -0.03017064 -0.03010383 -0.03004165 -0.02998386 -0.029931 -0.02988133 -0.02983019 -0.02977781 -0.029721
 -0.02966456 -0.02961249 -0.02957005 -0.02954381 -0.02953369 -0.02954226 -0.02956515 -0.02960114 -0.02964729 -0.02970229
 -0.0297664 -0.02983944 -0.02992219 -0.03001476 -0.03011738 -0.03023009 -0.03035175 -0.03048198 -0.03061526 -0.0307506
 -0.03087836 -0.03099882 -0.03110701 -0.03120596 -0.03130099 -0.03139406 -0.03149255 -0.0315928 -0.03169396 -0.03179064
 -0.03187703 -0.03195321 -0.03201681 -0.03207208 -0.03212046 -0.0321637 -0.03220264 -0.0322373 -0.03226728 -0.03229655
 -0.03232535 -0.0323589 -0.03239761 -0.03243988 -0.03248515 -0.03252405 -0.03255585 -0.03257091 -0.0325697 -0.03254894
 -0.03250951 -0.03245243 -0.03237729 -0.03228389 -0.03217164 -0.03203873 -0.03188785 -0.03172005 -0.03153941 -0.03134968
 -0.03114927 -0.03094017 -0.03071268 -0.03046497 -0.0301881 -0.0298796 -0.02953882 -0.02916486 -0.02876521 -0.02834022
 -0.02790047 -0.0274465 -0.02698843 -0.02652638 -0.0260666 -0.02560789 -0.02514932 -0.02468869 -0.02421951 -0.02374131
 -0.02324864 -0.0227465 -0.02223755 -0.02172993 -0.02123235 -0.020747 -0.02027929 -0.01982264 -0.01937517 -0.01893355
 -0.01849432 -0.01806781 -0.01765433 -0.01726936 -0.01691518 -0.0165959 -0.01631219 -0.01605205 -0.01581431 -0.0155776
 -0.01534067 -0.01508377 -0.01480793 -0.01450584 -0.01418095 -0.01383904 -0.01348173 -0.01311568 -0.01273828 -0.01234892
 -0.01194525 -0.01152379 -0.01108734 -0.01063521 -0.01017489 -0.009707997 -0.009244966 -0.008788173 -0.008348497 -0.00792869
 -0.007532384 -0.007161151 -0.006806035 -0.006466665 -0.00613035 -0.005796826 -0.005461431 -0.005125166 -0.00479281 -0.00446547
 -0.004150539 -0.003847482 -0.003559331 -0.003283417 -0.003016488 -0.002755946 -0.002496962 -0.002238855 -0.001980073 -0.001718444
 -0.001453302 -0.00117939 -0.0008939161 -0.000595616 -0.0002824273 3.939603E-05 0.000369139 0.0007011636 0.001034301 0.001370383
 0.001709369 0.002057057 0.002413612 0.00278239 0.003162549 0.003550479 0.003943617 0.004329875 0.004706603 0.005060532
 0.005390638 0.005690061 0.005955877 0.006183201 0.006365466 0.006494308 0.006568792 0.006582431 0.006549235 0.006471049
 0.006368869 0.006248415 0.00612566 0.006004271 0.005894269 0.005797218 0.005719025 0.00566032 0.005619641 0.00559658
 0.005582722 0.005577218 0.005569847 0.005560301 0.005540998 0.005513939 0.005479189 0.005442235 0.005412828 0.005396042
 0.005403087 0.005434352 0.00549393 0.005581116 0.005695912 0.005840028 0.0060149 0.006218646 0.006452574 0.006706847
 0.006980516 0.007261944 0.007549773 0.007835387 0.008118103 0.008392454 0.008658409 0.008916419 0.009167247 0.009417265
 0.009666455 0.009918508 0.01017203 0.01042451 0.01067617 0.01092574 0.01117524 0.01142714 0.01168192 0.01194094
 0.01220386 0.01247025 0.01274203 0.0130198 0.01330539 0.01359963 0.01390224 0.01421282 0.01453426 0.01486644
 0.0152168 0.01558602 0.0159752 0.01638343 0.01679067 0.01719255 0.01754685 0.01784859 0.0180528 0.01816003
 0.01814702 0.01802096 0.01778417 0.01744409 0.01701095 0.01649087 0.01589059 0.01522104 0.01448879 0.01370829
 0.01288743 0.01203384 0.0111516 0.01024205 0.009305165 0.008347081 0.007368044 0.006377774 0.005377086 0.004369028
 0.003353526 0.002327017 0.001289294 0.0002371067 -0.0008292841 -0.001911065 -0.003006647 -0.004113892 -0.005227407 -0.006337537
 -0.007435862 -0.008507563 -0.009546381 -0.01054047 -0.0114902 -0.01239124 -0.01324972 -0.01406745 -0.01484841 -0.0155958
 -0.01630311 -0.01697043 -0.01758646 -0.01814918 -0.0186578 -0.01911178 -0.01952244 -0.01989028 -0.02022429 -0.02052446
 -0.02079397 -0.02103387 -0.02125073 -0.02144557 -0.02162595 -0.02178906 -0.02193314 -0.02205527 -0.02214866 -0.02221806
 -0.022264 -0.02229554 -0.0223194 -0.02233873 -0.02235772 -0.02237221 -0.02238195 -0.02238262 -0.02237303 -0.02235253
 -0.02232076 -0.02227917 -0.02222783 -0.02216795 -0.02209957 -0.02202276 -0.0219378 -0.02184656 -0.02175051 -0.02165697
 -0.02156786 -0.02149311 -0.02143223 -0.02139049 -0.02136246 -0.02134485 -0.02132743 -0.02130018 -0.02125391 -0.02117787
 -0.0210743 -0.02093891 -0.02078641 -0.02061998 -0.02045216 -0.02028679 -0.02012535 -0.01996844 -0.01981621 -0.01966856
 -0.01953052 -0.01940203 -0.01927908 -0.01915966 -0.01902389 -0.01887126 -0.01868628 -0.01847545 -0.01824837 -0.0180143
 -0.01779825 -0.01760015 -0.01743387 -0.01728614 -0.01715068 -0.01701202 -0.01685686 -0.01668057 -0.01647571 -0.01625041
 -0.01600396 -0.01575165 -0.01549502 -0.01525392 -0.01503096 -0.01484119 -0.01468665 -0.01455996 -0.01446015 -0.0143574
 -0.01425103 -0.0141204 -0.0139705 -0.01381343 -0.01365459 -0.01351922 -0.0134024 -0.01330876 -0.01322557 -0.01313539
 -0.01303385 -0.01290693 -0.01276539 -0.01261113 -0.01245732 -0.01231193 -0.01217684 -0.01205462 -0.01194263 -0.01183941
 -0.01175157 -0.01167937 -0.01163294 -0.01161368 -0.01161475 -0.01163537 -0.01165132 -0.01166217 -0.01165272 -0.01162668
 -0.01159408 -0.01155797 -0.01153553 -0.01152079 -0.01151172 -0.01149719 -0.01145826 -0.01139455 -0.01129431 -0.01117449
 -0.01104113 -0.01091383 -0.01080484 -0.0107187 -0.01066123 -0.01062329 -0.01060445 -0.01059403 -0.01059068 -0.0105864
 -0.0105805 -0.01056723 -0.01054632 -0.010514 -0.01046958 -0.01040569 -0.01032058 -0.01020041 -0.01004696 -0.009854843
 -0.009635083 -0.009406054 -0.009180871 -0.008988664 -0.008829011 -0.008715881 -0.008633065 -0.008575226 -0.008524224 -0.008469689
 -0.008403214 -0.008319365 -0.0082181 -0.008098534 -0.007961811 -0.007808069 -0.007637215 -0.007449168 -0.007245509 -0.007026387
 -0.006796271 -0.006555385 -0.006307345 -0.006052522 -0.00579375 -0.005533066 -0.005278026 -0.005030717 -0.004800563 -0.004584593
 -0.004383675 -0.004191339 -0.004000763 -0.003809551 -0.00361346 -0.003413813 -0.003210733 -0.003003476 -0.002791563 -0.002575578
 -0.002354247 -0.002136558 -0.001923227 -0.001724215 -0.001540654 -0.001373275 -0.001222069 -0.001083124 -0.0009567525 -0.0008444032
 -0.0007471053 -0.0006717636 -0.0006170961 -0.0005844979 -0.0005681303 -0.0005569384 -0.0005450795 -0.000517244 -0.0004765029 -0.0004186432
 -0.0003531626 -0.0002867054 -0.0002214586 -0.0001609695 -0.0001018141 -4.122467E-05 1.199333E-05 5.759017E-05 8.078184E-05 7.788703E-05
 5.409273E-05 8.879229E-06 -3.871849E-05 -8.79971E-05 -0.0001361084 -0.000183816 -0.0002400769 -0.0003019955 -0.0003605709 -0.0004098451
 -0.0004247309 -0.0004051111 -0.0003367561 -0.0002267566 -7.853191E-05 9.894092E-05 0.0002956984 0.0005043897 0.0007173893 0.0009290628
 0.001136128 0.001330713 0.00151063 0.001665737 0.001791859 0.00189206 0.00196374 0.002033278 0.002102312 0.002197407
 0.002319703 0.002474396 0.002660781 0.002873753 0.003112429 0.003372046 0.003647924 0.003924286 0.00419348 0.004430006
 0.004633017 0.004788371 0.004903444 0.004980716 0.005026565 0.00504567 0.00504407 0.005023539 0.004996858 0.004968009
 0.00494848 0.004943402 0.00494784 0.004963374 0.004970355 0.004967246 0.004938693 0.004884213 0.004815219 0.004734741
 0.004680501 0.004652981 0.004678 0.004746168 0.004840722 0.004952749 0.005050817 0.005140952 0.005217432 0.005291376
 0.005373873 0.005468074 0.005578946 0.005709748 0.005865623 0.006039372 0.006239085 0.006412669 0.006549339 0.006613337
 0.006590716 0.00652804 0.006427296 0.006340661 0.006270593 0.0062321 0.006224072 0.006240189 0.006278161 0.006323689
 0.00637382 0.006409829 0.00643373 0.006437995 0.006432933 0.006433536 0.006440385 0.00646559 0.006488703 0.006496702
 0.006480646 0.006424936 0.006357457 0.006282414 0.006231445 0.006216458 0.006233319 0.006285872 0.006342733 0.006401871
 0.006433433 0.0064359 0.0063969 0.006317896 0.00620997 0.006077413 0.005948564 0.005827393 0.00574254 0.005694073
 0.005699619 0.005748435 0.005838064 0.005940599 0.006024399 0.006072512 0.006049003 0.005994238 0.005911917 0.005865421
 0.005887654 0.005971333 0.006131071 0.006288651 0.006433235 0.006516587 0.006529388 0.00651084 0.006462955 0.006462106
 0.006508801 0.00663599 0.00683332 0.007061255 0.007308799 0.007511139 0.007680027 0.007803259 0.007913113 0.00805802
 0.008251796 0.008537536 0.008887826 0.009300509 0.009734744 0.01016667 0.01057934 0.01095814 0.01131347 0.01164303
 0.01197022 0.0122979 0.01264602 0.0130174 0.01341229 0.01383077 0.0142636 0.01471095 0.01517488 0.01565314
 0.01613911 0.01662067 0.01705443 0.0174267 0.01768232 0.01782116 0.01781487 0.01767941 0.01741358 0.01705684
 0.01662739 0.01619123 0.01578599 0.01545791 0.01524217 0.01511161 0.01507392 0.01505488 0.01504321 0.01499487
 0.01490228 0.01477798 0.01462243 0.01447678 0.0143433 0.01426181 0.01423146 0.01427055 0.01437177 0.01452251
 0.01470982 0.01490093 0.01507906 0.01520376 0.01526343 0.01522286 0.01510001 0.01488773 0.01463641 0.01437158
 0.01412401 0.01391868 0.01373104 0.01356194 0.01337498 0.01316195 0.01292077 0.01264925 0.01236711 0.01207533
 0.01179507 0.01152702 0.01128804 0.01107401 0.01087254 0.010673 0.01042735 0.0101377 0.009775168 0.009371468
 0.008962175 0.008580908 0.008287384 0.008074842 0.00796748 0.007917332 0.007909771 0.007891559 0.007835269 0.007730863
 0.007561252 0.007383264 0.007200338 0.007082888 0.007041005 0.007072715 0.007178366</values></Ydata></AB><ScSm><Ydata ylabel="Single channel"><values byteorder="INTEL" format="FLOAT32" numvalues="1814"> 0.07569493 0.07571809 0.07579267 0.07594422 0.07615122 0.07635701 0.07651051 0.07659969 0.07663836 0.07663032
 0.07658036 0.07654014 0.07659482 0.07677878 0.07702655 0.07721947 0.0772796 0.07723688 0.07721323 0.07730372
 0.07744551 0.07743578 0.07712314 0.07658239 0.07606598 0.07577285 0.07572596 0.07591765 0.07643019 0.07720006
 0.07775863 0.07757156 0.07671544 0.07589629 0.07566662 0.07589735 0.07611483 0.07603943 0.07566773 0.07517314
 0.07495922 0.07554457 0.07705259 0.07880147 0.07955347 0.07829177 0.07494152 0.07060865 0.06718318 0.06632692
 0.06829409 0.07158643 0.07408005 0.07472283 0.07403705 0.07304866 0.07219446 0.07144984 0.07101569 0.0713436
 0.07250004 0.07375443 0.07394934 0.07247411 0.06999695 0.06801216 0.06748756 0.06824476 0.06974079 0.07165858
 0.07310425 0.07214531 0.06771161 0.0620055 0.05951829 0.06275713 0.0695705 0.0752703 0.07680803 0.07444666
 0.0703676 0.06686944 0.06553923 0.06681661 0.06987459 0.0733151 0.07603586 0.0772928 0.07650962 0.0737745
 0.07032661 0.06794758 0.0678651 0.07028453 0.07435225 0.07821792 0.07987063 0.07863365 0.07561873 0.07254381
 0.07059863 0.07045409 0.07242358 0.0761164 0.08043572 0.08423588 0.0867926 0.08783656 0.0875877 0.08662783
 0.08546357 0.08445055 0.08411585 0.08482794 0.08593998 0.08604062 0.08450088 0.08231732 0.08108214 0.08133725
 0.08214583 0.08222995 0.08125862 0.07962026 0.07715005 0.07314636 0.06796239 0.06339309 0.060879 0.06042957
 0.06170884 0.06458195 0.06783368 0.069094 0.06743222 0.0650042 0.06489124 0.06781402 0.07178006 0.07453999
 0.075665 0.07638034 0.07797475 0.08047545 0.08247839 0.08220052 0.07925109 0.07562805 0.07430363 0.07630639
 0.07974023 0.08212564 0.08301421 0.08369737 0.08495478 0.08585017 0.08469938 0.08105887 0.07682149 0.07506631
 0.07737832 0.08225586 0.0861928 0.086273 0.08213462 0.07606645 0.07122344 0.06944071 0.07072452 0.07443487
 0.07999153 0.0862662 0.09131104 0.09345171 0.09250958 0.08968425 0.0861913 0.08213937 0.0771962 0.07248095
 0.07077979 0.07389668 0.08033918 0.08657137 0.09017366 0.09104057 0.08998381 0.08722126 0.08262102 0.07718354
 0.07352747 0.073852 0.0772953 0.08043195 0.08087191 0.07943483 0.07836841 0.07852121 0.07904232 0.07914436
 0.07922053 0.08019261 0.08222058 0.08436669 0.08551611 0.08539155 0.08459885 0.08391088 0.08356325 0.08308578
 0.08196929 0.08069323 0.08066459 0.08267815 0.08582374 0.08842263 0.08970472 0.09007996 0.09002636 0.08925024
 0.08712432 0.08389134 0.08114256 0.08063541 0.08259378 0.08557774 0.08798029 0.08917322 0.08933992 0.08889662
 0.0882151 0.08750109 0.08685409 0.08653038 0.08687785 0.08784115 0.08885154 0.08939923 0.08945206 0.08920138
 0.08869569 0.0879053 0.08698086 0.08627247 0.08608107 0.08642996 0.08709338 0.08779998 0.08833429 0.08851025
 0.08823992 0.08766328 0.08705987 0.08659749 0.08628197 0.08613162 0.08622888 0.08656293 0.08695675 0.08721675
 0.08728535 0.08721291 0.08704782 0.08680383 0.08650349 0.08621562 0.08604498 0.08606318 0.08622494 0.08639241
 0.08648789 0.08657083 0.08670248 0.08680202 0.08673449 0.08650085 0.08624776 0.08610659 0.08609053 0.08613238
 0.08615297 0.08607444 0.08582285 0.08539477 0.08493778 0.08469343 0.0848037 0.08520406 0.08572014 0.08619931
 0.08653583 0.08667642 0.08666167 0.08659324 0.08651858 0.08639415 0.08618185 0.08594403 0.08582436 0.0859344
 0.08624981 0.08662523 0.08691759 0.0870739 0.08711412 0.0870982 0.08711334 0.08720894 0.08732254 0.08733978
 0.08724408 0.08714683 0.0871557 0.08725645 0.08733909 0.08732212 0.08724059 0.08720665 0.0872862 0.0874384
 0.08758095 0.08768329 0.08777786 0.08789574 0.08800472 0.08802133 0.08790379 0.0877216 0.08759198 0.08755507
 0.0875634 0.08758722 0.08766172 0.08781077 0.08797887 0.08807717 0.08807936 0.08804284 0.08803234 0.0880419
 0.08800955 0.08789989 0.08774799 0.08762046 0.08755557 0.08754611 0.08755853 0.08755586 0.08751313 0.08742634
 0.08731057 0.08718543 0.08706076 0.08694371 0.0868617 0.08685712 0.08693491 0.08702205 0.08700973 0.08685199
 0.08661373 0.08641015 0.08630045 0.08624569 0.08616617 0.08602519 0.08585012 0.08568872 0.08556566 0.08547717
 0.08540635 0.08533947 0.08528577 0.08528532 0.08537525 0.08553126 0.08566082 0.08568044 0.0855955 0.08548632
 0.08542469 0.08542398 0.0854573 0.08549744 0.08554257 0.08561713 0.08573672 0.08586813 0.08595119 0.08597006
 0.08597462 0.08602486 0.08614447 0.08632627 0.08653844 0.08672032 0.08681898 0.08684814 0.0868794 0.08696446
 0.0870917 0.08722533 0.08735642 0.08749928 0.08766091 0.0878381 0.08803773 0.08827902 0.0885708 0.08889242
 0.08919948 0.08945069 0.08964171 0.08981965 0.0900541 0.09037994 0.09076647 0.09114486 0.09146678 0.09173953
 0.09200686 0.09229777 0.09260274 0.09290646 0.09322606 0.09359196 0.09400024 0.09441243 0.09480142 0.09517392
 0.09554762 0.09592697 0.09630617 0.09668602 0.09708307 0.09751587 0.09797317 0.09840296 0.09875304 0.09902459
 0.09927593 0.0995765 0.09995817 0.1003893 0.1007849 0.1010717 0.1012676 0.101475 0.1017685 0.1021136
 0.1024286 0.1027034 0.1030118 0.103406 0.103843 0.1042324 0.1045342 0.1047886 0.1050586 0.1053577
 0.1056373 0.105845 0.1059865 0.1061201 0.106293 0.1065104 0.1067708 0.1070969 0.107497 0.1079207
 0.1082918 0.1085773 0.1087981 0.1089879 0.1091668 0.1093431 0.1095131 0.109669 0.1098192 0.1099812
 0.1101462 0.1102835 0.1103949 0.1105292 0.1107258 0.1109758 0.1112602 0.1115886 0.1119673 0.112357
 0.1127107 0.1130436 0.1134173 0.113842 0.1142381 0.1145217 0.1146943 0.114818 0.1149355 0.1150607
 0.1152259 0.1154797 0.1158314 0.1162352 0.1166372 0.1170163 0.1173772 0.1177235 0.1180431 0.1183095
 0.1184983 0.1186094 0.1186773 0.1187593 0.1189092 0.1191474 0.1194423 0.1197296 0.1199566 0.1201012
 0.1201504 0.1200962 0.1199701 0.1198533 0.1198096 0.1198111 0.1197564 0.1195579 0.1191918 0.1186728
 0.1180169 0.1172461 0.1164134 0.1156055 0.1149154 0.1144106 0.1141257 0.1140824 0.1143031 0.1147867
 0.115468 0.1162216 0.1169152 0.1174455 0.1177273 0.1176885 0.1173119 0.1166671 0.1158763 0.11505
 0.1142582 0.1135301 0.1128606 0.1122426 0.1117299 0.111464 0.1116161 0.1122952 0.1134978 0.1151119
 0.116945 0.1187763 0.1204325 0.1218465 0.1230503 0.12411 0.1250727 0.1259681 0.126829 0.1276772
 0.1284949 0.1292403 0.129896 0.1304808 0.1310155 0.1314962 0.1319041 0.1322257 0.132468 0.1326624
 0.1328444 0.1330169 0.1331514 0.1332325 0.1332815 0.1333188 0.1333231 0.1332424 0.1330382 0.1327134
 0.1323237 0.1319899 0.1318944 0.1322308 0.1331078 0.1344761 0.136149 0.1379051 0.1395748 0.1410506
 0.1422665 0.1432052 0.1439129 0.1444729 0.1449601 0.1454212 0.1458797 0.1463402 0.1467927 0.1472266
 0.1476439 0.1480595 0.1484907 0.1489417 0.1493918 0.149808 0.1501789 0.1505332 0.1509204 0.1513669
 0.15185 0.1523184 0.1527439 0.1531475 0.1535614 0.1539776 0.1543587 0.1546935 0.1550148 0.1553628
 0.1557539 0.1561797 0.1566135 0.1570168 0.1573628 0.1576608 0.1579476 0.1582534 0.158581 0.1589179
 0.1592552 0.1595906 0.1599237 0.1602583 0.1606052 0.1609675 0.1613238 0.1616413 0.1619108 0.1621597
 0.1624247 0.1627191 0.1630285 0.1633309 0.1636203 0.1639177 0.1642518 0.1646253 0.1650007 0.165329
 0.165593 0.1658181 0.1660469 0.1663052 0.166592 0.1668922 0.1671934 0.1674918 0.1677887 0.1680872
 0.1683886 0.1686912 0.1689914 0.1692874 0.1695794 0.1698678 0.1701522 0.1704336 0.1707176 0.1710157
 0.1713389 0.1716832 0.1720246 0.1723367 0.1726113 0.1728604 0.1731015 0.1733465 0.1736014 0.1738682
 0.1741462 0.1744308 0.1747155 0.1749939 0.1752653 0.1755335 0.1758021 0.1760722 0.1763439 0.1766177
 0.1768967 0.1771865 0.1774904 0.1777998 0.1780972 0.1783714 0.1786275 0.1788803 0.179141 0.17941
 0.1796778 0.1799349 0.1801822 0.1804314 0.1806924 0.1809643 0.1812388 0.1815073 0.1817655 0.182016
 0.1822658 0.18252 0.1827782 0.1830397 0.1833057 0.1835766 0.1838496 0.1841217 0.1843911 0.1846561
 0.1849141 0.1851624 0.1854034 0.1856455 0.1858981 0.1861626 0.1864322 0.1866979 0.1869549 0.1872067
 0.1874616 0.1877249 0.1879932 0.1882607 0.1885246 0.188783 0.1890346 0.1892825 0.1895332 0.1897912
 0.1900573 0.1903287 0.1906003 0.1908683 0.191132 0.19139 0.1916386 0.1918801 0.192126 0.192386
 0.1926591 0.1929379 0.1932155 0.1934868 0.1937488 0.1939995 0.1942365 0.1944606 0.1946796 0.1949016
 0.1951291 0.1953618 0.1955985 0.1958339 0.1960651 0.196298 0.1965398 0.1967901 0.1970445 0.1973002
 0.1975527 0.1977994 0.1980467 0.1983009 0.1985582 0.1988125 0.1990645 0.1993162 0.1995676 0.199819
 0.2000696 0.2003161 0.2005613 0.2008131 0.201072 0.2013295 0.2015825 0.2018354 0.2020925 0.2023548
 0.2026194 0.2028791 0.2031326 0.2033868 0.2036431 0.2038942 0.2041411 0.204393 0.2046494 0.2049019
 0.2051499 0.2053968 0.2056422 0.2058882 0.2061389 0.2063907 0.2066387 0.2068858 0.2071327 0.2073755
 0.2076188 0.2078711 0.2081265 0.2083754 0.2086236 0.208878 0.2091339 0.2093859 0.2096287 0.2098401
 0.2099677 0.2098807 0.2092516 0.2074347 0.2034516 0.1961781 0.1847889 0.1692829 0.1506738 0.1306293
 0.1108497 0.09262279 0.07670189 0.06341457 0.05283178 0.04487072 0.03935507 0.03612652 0.03516944 0.03673832
 0.04148867 0.05008564 0.06174872 0.07297014 0.07888663 0.07712227 0.07006039 0.06266805 0.05836783 0.05739166
 0.0582736 0.05977052 0.0614896 0.06365219 0.06664313 0.07057685 0.07527427 0.08073086 0.08734617 0.09541406
 0.1045112 0.1136739 0.1222255 0.1303046 0.1385384 0.1472863 0.1562609 0.1648086 0.1724287 0.1790246
 0.1848018 0.1900369 0.1949216 0.199545 0.2039494 0.2081285 0.2119355 0.2150481 0.2171247 0.2180656
 0.2181358 0.2178154 0.2175153 0.2174195 0.2175438 0.2178639 0.2183645 0.2190268 0.2198231 0.2207203
 0.2216789 0.2226617 0.2236434 0.2246029 0.2255164 0.2263671 0.2271503 0.2278663 0.228519 0.2291203
 0.2296821 0.2302078 0.2306995 0.2311636 0.2316038 0.2320187 0.2324102 0.2327826 0.2331348 0.2334614
 0.2337604 0.2340348 0.2342914 0.2345386 0.2347818 0.2350223 0.2352619 0.2355035 0.2357477 0.2359962
 0.2362546 0.236524 0.2367927 0.2370454 0.2372779 0.2374973 0.2377141 0.2379378 0.2381722 0.2384107
 0.2386434 0.2388678 0.2390886 0.2393105 0.2395349 0.239761 0.2399874 0.2402134 0.24044 0.2406694
 0.2409061 0.2411585 0.2414285 0.2417036 0.2419671 0.242215 0.2424525 0.2426848 0.2429195 0.2431648
 0.2434133 0.2436403 0.2438305 0.2440013 0.2441916 0.2444274 0.2446965 0.2449605 0.2451943 0.2454085
 0.2456254 0.2458479 0.2460603 0.2462507 0.2464267 0.2466187 0.2468586 0.2471455 0.2474459 0.2477351
 0.2480173 0.2483002 0.2485804 0.2488564 0.2491242 0.2493587 0.2495352 0.2496777 0.2498639 0.2501644
 0.2505729 0.251001 0.2513579 0.2516295 0.251867 0.2521231 0.2524214 0.2527391 0.2529833 0.2530531
 0.2529923 0.2530175 0.2533193 0.2538755 0.2545028 0.2550433 0.255459 0.2557926 0.2560876 0.2563415
 0.2565099 0.2565635 0.2565582 0.2566456 0.2569659 0.2575044 0.2580921 0.2585759 0.2589321 0.2592033
 0.2594216 0.2596118 0.2597436 0.2596713 0.2592914 0.2588194 0.258731 0.2593021 0.2603022 0.2612426
 0.261857 0.2622359 0.2625552 0.2628546 0.2630935 0.2631834 0.2628709 0.2618874 0.2604787 0.2595423
 0.2598791 0.2613839 0.2632118 0.2646204 0.2654326 0.2658419 0.2660869 0.266295 0.2663902 0.2661044
 0.2652769 0.2642518 0.2637916 0.2643762 0.2656633 0.2668548 0.2675099 0.2677776 0.2679748 0.2682331
 0.268409 0.268026 0.2665435 0.2641529 0.2621835 0.2621661 0.2643331 0.2673413 0.2696073 0.2706692
 0.2710578 0.2711336 0.2705584 0.2689077 0.2662978 0.2633293 0.2609339 0.2602799 0.2619923 0.2651554
 0.2678262 0.2689525 0.2692578 0.2700017 0.2714652 0.2729333 0.2736495 0.2734128 0.2724487 0.2709893
 0.2691653 0.2674117 0.266701 0.2678481 0.270523 0.2733749 0.2752836 0.27621 0.2766049 0.2760925
 0.2732089 0.26717 0.2600697 0.2562853 0.2586001 0.2652862 0.2719625 0.2758996 0.2774969 0.2782122
 0.2786245 0.2782806 0.2759342 0.2702087 0.2617512 0.2546113 0.2535033 0.2591317 0.2673922 0.2732173
 0.2740563 0.2701366 0.2635071 0.2574072 0.2549567 0.2572743 0.2629988 0.2696366 0.2750554 0.2780575
 0.2783692 0.2765257 0.2738136 0.2719554 0.2718703 0.2723065 0.2707889 0.2667695 0.2625777 0.2599894
 0.2574325 0.2528402 0.248184 0.2481453 0.2540482 0.2616726 0.2660219 0.2663836 0.2653694 0.2641259
 0.2603231 0.251488 0.2396968 0.2315955 0.2325885 0.2412498 0.2506186 0.255017 0.2545468 0.2530051
 0.2528068 0.2525319 0.2489461 0.241252 0.2331621 0.2297463 0.2320048 0.2359624 0.2373263 0.2348746
 0.2288623 0.2196425 0.2101864 0.2069158 0.2142234 0.2290427 0.2433093 0.2506235 0.2485097 0.2368413
 0.218717 0.2023817 0.1972058 0.2052615 0.2188036 0.2274286 0.2263042 0.2169146 0.2026161 0.1864278
 0.1724769 0.1662632 0.1712955 0.1855878 0.2018819 0.2112331 0.2078689 0.1936746 0.1786213 0.1735595
 0.1803218 0.1905057 0.1949461 0.1920512 0.1863527 0.1826209 0.1831271 0.1874391 0.1928854 0.1970012
 0.1994805 0.199377 0.19241 0.1761459 0.1569306 0.1457538 0.146807 0.155238 0.1660027 0.1784129
 0.1905075 0.1958902 0.1909758 0.1818871 0.1793256 0.1872135 0.199293 0.2067664 0.2069941 0.2040168
 0.2021969 0.2014937 0.1997157 0.1976864 0.1993681 0.2064657 0.2154925 0.2216683 0.2238827 0.2242736
 0.2245962 0.2248975 0.2247338 0.2239586 0.2226417 0.2211752 0.2201482 0.2196665 0.2192532 0.2185683
 0.2173517 0.2143072 0.2073906 0.1966928 0.1862899 0.1810342 0.1814068 0.1838107 0.185908 0.1879862
 0.1879623 0.180001 0.1622595 0.1432017 0.1354428 0.1435703 0.1607376 0.1764367 0.1845232 0.1837058
 0.1743754 0.1588451 0.1440015 0.1392092 0.1486609 0.1673131 0.1862581 0.2004119 0.2091641 0.2121446
 0.208252 0.1987181 0.1884207 0.1831476 0.1860369 0.1961221 0.2086786 0.2164994 0.213381 0.2002489
 0.187993 0.1895221 0.2062082 0.2256044 0.2354188 0.236006 0.2355344 0.2372923 0.2379764 0.2365067
 0.2376476 0.2453867 0.2569953 0.2656939 0.2665886 0.2585858 0.2437899 0.2280516 0.2194725 0.2219095
 0.2305959 0.2373335 0.2384421 0.2343096 0.2245488 0.2100282 0.1980344 0.1978956 0.2101735 0.2254064
 0.2348731 0.2385387 0.2411371 0.2440359 0.2436226 0.2368431 0.2263441 0.2188455 0.2184609 0.2230493
 0.2277351 0.2300273 0.2298371 0.2265484 0.2194055 0.2107663 0.2061265 0.2093248 0.2185645 0.2281253
 0.2335133 0.234265 0.2325175 0.2302965 0.2282166 0.225693 0.2222414 0.2191588 0.219288 0.2239514
 0.2307695 0.2360666 0.239069 0.2421631 0.2471402 0.2527065 0.2560269 0.2557904 0.2534407 0.2519138
 0.2532766 0.2570701 0.2606345 0.2613774 0.259248 0.2570249 0.2577616 0.2618802 0.2671129 0.2710979
 0.273317 0.2745969 0.2757111 0.2767168 0.2769278 0.2754361 0.2723977 0.2697926 0.2700214 0.2735088
 0.278282 0.2819995 0.2838441 0.2843883 0.284298 0.283642 0.282276 0.2804731 0.2789413 0.2782669
 0.2784953 0.2792718 0.2802197 0.2811072 0.2818234 0.2823552 0.2827573 0.2830753 0.2833209 0.283518
 0.2836922 0.2838031 0.2837825 0.2836774 0.2836682 0.2838776 0.2842157 0.2844749 0.2845138 0.2842751
 0.2836872 0.2826789 0.2812913 0.2796662 0.2778882 0.2759413 0.2739265 0.2722895 0.27169 0.2725197
 0.2745388 0.2770178 0.2792354 0.2808368 0.2818156 0.2823157 0.2825037 0.2825345 0.2825196 0.282491
 0.2824167 0.2822622 0.2820311 0.2817552 0.2814704 0.2812083 0.2809927 0.2808259 0.2806821 0.2805188
 0.2802931 0.2799763 0.2795692 0.2791016 0.2786013 0.27806 0.277433 0.2766789 0.2757964 0.2748296
 0.2738456 0.2728996 0.2720043 0.27112 0.2701855 0.2691596 0.2680175 0.2667171 0.265228 0.2636159
 0.2620468 0.2606567 0.2594407 0.2582881 0.2570885 0.2557788 0.2543338 0.2527626 0.2511072 0.24942
 0.2477335 0.2460489 0.244343 0.2425869 0.240768 0.238896 0.2369883 0.2350522 0.2330859 0.231087
 0.2290381 0.2268733 0.2244702 0.221689 0.2184165 0.2145787 0.210155 0.2052177 0.1999456 0.1945709
 0.1893001 0.1842811 0.1796244 0.1754327 0.1718047 0.168813 0.1664931 0.1648608 0.1639311 0.1637104
 0.164182 0.1653069 0.1670186 0.1692049 0.1717077 0.1743506 0.1769681 0.179428 0.1816646 0.1837032
 0.1856326 0.1875292 0.1893964 0.1911779 0.1928169 0.1942859 0.1955634 0.1966255 0.1974799 0.1981797
 0.1987808 0.1993039 0.1997514 0.2001332 0.2004576 0.2007169 0.2008947 0.2009845 0.201001 0.2009768
 0.2009466 0.200934 0.2009564 0.2010357 0.2011944 0.2014395 0.2017508 0.202087 0.202416 0.202743
 0.2030974 0.2034962 0.2039448 0.2044678 0.2051078 0.205885 0.2067774 0.2077445 0.2087584 0.2098072
 0.2108743 0.2119246 0.2129199 0.213847 0.2147134 0.2155228 0.2162707 0.2169576 0.217586 0.2181543
 0.2186686 0.2191506 0.2196192 0.2200766 0.2205138 0.220919 0.2212793 0.2215861 0.2218345 0.2220155
 0.2221185 0.2221419 0.2220945 0.221985 0.2218182 0.2215914 0.2212949 0.220928 0.2205122 0.220073
 0.219611 0.2190991 0.2185006 0.2177863 0.2169445 0.2159792 0.2148943 0.2136864 0.2123586 0.2109289
 0.2094184 0.2078409 0.2062041 0.2045084 0.2027462 0.2009026 0.198951 0.1968637 0.1946538 0.1924017
 0.1902122 0.1881513 0.1862331 0.1844437 0.1827539 0.1811309 0.1795598 0.1780483 0.1766072 0.1752385
 0.1739381 0.1726944 0.171492 0.1703279 0.1692233 0.1682167 0.167341 0.1665946 0.1659372 0.1653315
 0.164785 0.1643302 0.1639814 0.1637365 0.163599 0.1635606 0.16357 0.1635514 0.1634555 0.163287
 0.1630892 0.1629067 0.1627579 0.1626425 0.1625574 0.162479 0.1623337 0.1620116 0.1614108 0.1604687
 0.1591759 0.1575801 0.1557699 0.1538523 0.1519489 0.1501846 0.1486531 0.1473956 0.1464126 0.14567
 0.1451011 0.1446379 0.1442545 0.1439795 0.143866 0.1439271 0.1440749 0.1441565 0.1440968 0.1439872
 0.1440031 0.144258 0.1447457 0.1453682 0.1459947 0.1465276 0.1469288 0.1471899 0.147311 0.1473146
 0.1472344 0.1470838 0.1468621 0.14658 0.1462504 0.145876 0.1454588 0.1449909 0.1444478 0.1438201
 0.1431265 0.1423752 0.1415533 0.1406521 0.1396497 0.1385056 0.1372637 0.1361382 0.1354177 0.1352832
 0.1357167 0.1365316 0.1374992 0.1384875 0.1394283 0.1401432 0.1403969 0.1402751 0.140366 0.1413358
 0.1432927 0.1456661 0.1477057 0.14901 0.1495779 0.1495393 0.1489922 0.1480005 0.1465662 0.1446315
 0.1422057 0.1394195 0.1364163 0.133327 0.1303512 0.1276907 0.1254235 0.1235474 0.1220645 0.1210386
 0.1206128 0.1204065 0.1185241 0.1125505 0.1032611 0.09628862 0.09740153 0.1060192 0.115596 0.1205361
 0.1206656 0.1189573 0.1174738 0.1165265 0.1159981 0.1160189 0.1167233 0.1179888 0.1194306 0.1206191
 0.1213583 0.1216828 0.1215723 0.1206995 0.1183582 0.1137053 0.1064444 0.09742649 0.08836037 0.08081862
 0.07553697 0.07241248 0.0708233 0.07000288 0.06944211 0.06911884 0.06934817 0.07040833 0.0723131 0.07489628
 0.07798447 0.08135619 0.08460871 0.08730821 0.08932638 0.09085788 0.09207828 0.09294552 0.09334212 0.09324866
 0.09274838 0.09197 0.0910489 0.09007683 0.08905432 0.08791988 0.08668508 0.08555108 0.084801 0.08452366
 0.08453088 0.08458772 0.08461386 0.08463119 0.08464997 0.08465953 0.08465366 0.084656 0.08474781 0.08501002
 0.08540918 0.08581008 0.08610778 0.08629318 0.08640984 0.08646649 0.0863578 0.08594336 0.08530262 0.08475769
 0.08444725 0.08404456 0.08316985 0.08197065 0.08102705 0.0807335 0.08097318 0.08135013 0.0815552 0.08151238
 0.08134995 0.08131999 0.08162792 0.08219124</values></Ydata></ScSm><ScRf><Ydata ylabel="Single channel"><values byteorder="INTEL" format="FLOAT32" numvalues="1820"> 0.06057313 0.06072902 0.06083272 0.06088006 0.06088802 0.06089661 0.06095477 0.06108781 0.06127479 0.06145922
 0.06158996 0.06165662 0.06167877 0.061668 0.06162833 0.06159494 0.06163194 0.06176975 0.06196077 0.06211056
 0.06215381 0.06211439 0.0620943 0.06217291 0.06229686 0.06229559 0.06204101 0.06159295 0.06116094 0.06091313
 0.0608715 0.06102909 0.0614522 0.06208991 0.06255871 0.06241641 0.0617195 0.06104425 0.06084635 0.06102435
 0.06119327 0.06112642 0.06082173 0.06041761 0.0602379 0.06070423 0.06192276 0.06334426 0.06396054 0.06293839
 0.0602144 0.05669108 0.05390745 0.0532125 0.05481214 0.05749185 0.05952634 0.06005586 0.05950254 0.05870502
 0.05802078 0.0574213 0.0570591 0.05730335 0.05822282 0.05923614 0.05940192 0.0582132 0.05620259 0.05458226
 0.0541452 0.05475377 0.05596688 0.05752281 0.05869749 0.05792965 0.05435126 0.04973795 0.0477237 0.05034754
 0.05587645 0.06050867 0.06175967 0.05983619 0.05651698 0.0536789 0.0526069 0.05364306 0.05610896 0.05887852
 0.06107065 0.06208705 0.06145743 0.05924787 0.05645823 0.05453107 0.05446476 0.05643036 0.05973502 0.06287308
 0.06421115 0.06320211 0.06074877 0.05824306 0.05664961 0.05651697 0.05810771 0.06111256 0.06464209 0.06775732
 0.06985639 0.07071153 0.0705037 0.06971715 0.06877501 0.06796654 0.06770851 0.06828976 0.0691855 0.06925707
 0.06799872 0.06622086 0.06521651 0.06542445 0.06608088 0.06614628 0.06535339 0.06402025 0.0620141 0.05876538
 0.0545623 0.05086404 0.04883855 0.04848862 0.0495413 0.05189634 0.05457504 0.05564374 0.0543219 0.05234204
 0.05221166 0.05453835 0.05772367 0.05994716 0.060858 0.06144812 0.06276277 0.06482109 0.06647577 0.06626894
 0.06387724 0.06092823 0.05984956 0.06148531 0.06429009 0.06624117 0.06697816 0.06756294 0.0686312 0.06940826
 0.06851129 0.06558008 0.06216199 0.06076292 0.06266677 0.06664982 0.06986228 0.06993172 0.06656204 0.06162129
 0.05768944 0.05626744 0.05735867 0.06044162 0.06505114 0.07027629 0.07452422 0.07640111 0.07572088 0.07344352
 0.07058245 0.06726243 0.06322725 0.059391 0.05804373 0.06068333 0.06608981 0.07134056 0.07442349 0.07524033
 0.0744541 0.07223461 0.068467 0.06399544 0.06102649 0.06141113 0.06442216 0.06717158 0.06763998 0.06651628
 0.06570491 0.06593297 0.06648097 0.06667605 0.06685321 0.06780297 0.06966133 0.07162046 0.07272124 0.07272384
 0.07214817 0.07166208 0.07147308 0.07117808 0.07034115 0.0693824 0.06951547 0.07140979 0.07425705 0.07659943
 0.07778715 0.07820244 0.07827595 0.0777418 0.07602382 0.07331377 0.07101431 0.07069579 0.07257187 0.07536381
 0.07762997 0.07880509 0.07906277 0.07878794 0.07831711 0.07783403 0.07742667 0.07731372 0.07778645 0.07878403
 0.0798054 0.08040881 0.0805694 0.0804505 0.08009031 0.07947315 0.07875646 0.07826565 0.07825568 0.07871827
 0.07943681 0.08018189 0.08078375 0.0810795 0.08097105 0.08056834 0.08013123 0.07983222 0.07968554 0.07969967
 0.0799385 0.08038571 0.08087316 0.08121723 0.08136854 0.08138972 0.08133979 0.081228 0.08105981 0.08089346
 0.0808363 0.08096203 0.08122006 0.08147331 0.08165955 0.08185458 0.08211784 0.08234689 0.08238178 0.0822165
 0.08201542 0.08193272 0.08198531 0.08209492 0.08218043 0.08217686 0.08201998 0.08169989 0.08134566 0.08118219
 0.08135226 0.08181527 0.08242412 0.08302656 0.08348773 0.08372635 0.08377939 0.08376084 0.08372702 0.08363725
 0.08345835 0.08325952 0.08318722 0.08335459 0.08374272 0.08420709 0.08459 0.08481842 0.08490995 0.08494538
 0.08503567 0.08523215 0.08544648 0.08553186 0.08546558 0.08538558 0.08542424 0.08555835 0.08565168 0.08561933
 0.08552244 0.08549848 0.08561543 0.08581647 0.08600564 0.08615625 0.08631957 0.08653772 0.08675939 0.08685902
 0.08676469 0.08655481 0.08638427 0.08632477 0.0863351 0.08638142 0.08650182 0.08671887 0.08695409 0.08709013
 0.08710106 0.08707533 0.08710332 0.08717124 0.08718538 0.08708519 0.08690739 0.08674534 0.08667152 0.08669931
 0.08678868 0.08687136 0.08688736 0.08682166 0.08671042 0.08660463 0.08653005 0.08649385 0.08652321 0.08666062
 0.08689231 0.08710108 0.08713733 0.08695765 0.08667821 0.08647308 0.08641886 0.08644142 0.08640499 0.08624013
 0.08598666 0.08573444 0.08554348 0.08541708 0.08532681 0.08525076 0.08520007 0.08521751 0.08533047 0.08548707
 0.08556135 0.08545875 0.08521172 0.08494605 0.08476425 0.08468473 0.08466919 0.08466969 0.08466419 0.08467606
 0.08474037 0.08483344 0.0848732 0.08481474 0.0847107 0.08465755 0.08471619 0.08488703 0.08510844 0.08526966
 0.08528474 0.08518031 0.08507296 0.08504784 0.08509462 0.08516473 0.08524218 0.08533689 0.08544633 0.08555859
 0.08568242 0.08584809 0.08607291 0.08633309 0.08657184 0.08673909 0.0868348 0.08691913 0.08707111 0.0873259
 0.08764736 0.08796056 0.08821207 0.08840568 0.08858374 0.0887757 0.08897364 0.0891652 0.0893725 0.08963282
 0.08994789 0.09027936 0.09059253 0.09088328 0.09116389 0.09144344 0.09172735 0.09202838 0.09237321 0.09278291
 0.09322909 0.09362338 0.09388351 0.09401558 0.09411642 0.0942978 0.0946089 0.09500161 0.09535345 0.09556109
 0.09564483 0.09573558 0.09593172 0.09620021 0.09645253 0.09668414 0.09698264 0.09740166 0.09787324 0.09826532
 0.09850907 0.09865414 0.09880141 0.09899354 0.0991831 0.09930936 0.09938418 0.09947586 0.09962175 0.09980204
 0.1000074 0.1002797 0.1006478 0.1010598 0.1014219 0.1016884 0.1018807 0.1020365 0.1021705 0.1022718
 0.1023195 0.102316 0.1023124 0.1023721 0.1024942 0.1026073 0.1026578 0.1026735 0.1027251 0.1028553
 0.1030668 0.1033458 0.1036609 0.1039601 0.1042145 0.1044662 0.1047858 0.1051626 0.105482 0.105648
 0.1056913 0.1057146 0.1057644 0.1058192 0.1058817 0.1060085 0.1062362 0.106534 0.1068501 0.1071709
 0.107512 0.1078719 0.1082081 0.1084557 0.108569 0.1085578 0.1084911 0.1084632 0.1085469 0.1087601
 0.1090614 0.1093797 0.1096563 0.1098572 0.1099554 0.1099379 0.1098509 0.1098058 0.1098912 0.1100759
 0.1102256 0.1102163 0.1100127 0.1096433 0.1091411 0.1085341 0.1078718 0.107233 0.106695 0.1063037
 0.1060782 0.1060429 0.1062388 0.1066812 0.1073093 0.1080029 0.1086503 0.1091745 0.1094944 0.1095168
 0.1092047 0.1086302 0.1079279 0.1072122 0.1065434 0.1059346 0.1053585 0.104786 0.1042596 0.1039265
 0.1039722 0.1045146 0.1055456 0.1069319 0.1084568 0.1098948 0.1111039 0.1120721 0.1128783 0.1136045
 0.1142876 0.1149425 0.1155943 0.1162559 0.1168929 0.1174514 0.1179224 0.1183474 0.1187613 0.1191574
 0.1195076 0.1197942 0.1200256 0.1202352 0.1204489 0.1206389 0.1207359 0.1207083 0.1206056 0.1204992
 0.1204021 0.1202651 0.1200318 0.1196823 0.1192548 0.118863 0.1186847 0.1188929 0.1195575 0.1206004
 0.121854 0.1231664 0.1244431 0.1256007 0.1265415 0.1272094 0.1276476 0.1279635 0.1282463 0.1285351
 0.1288385 0.1291516 0.1294588 0.1297446 0.1300104 0.1302783 0.130578 0.1309201 0.131275 0.1315899
 0.1318393 0.1320569 0.1323109 0.1326444 0.1330347 0.1334159 0.1337487 0.1340572 0.1343807 0.1347048
 0.1349752 0.1351743 0.1353464 0.1355507 0.1358186 0.1361501 0.1365143 0.1368517 0.1371111 0.137297
 0.137462 0.1376519 0.1378738 0.1381153 0.1383686 0.1386285 0.1388853 0.1391385 0.1394067 0.1397044
 0.140006 0.1402552 0.1404237 0.1405485 0.140699 0.1409093 0.1411536 0.1413836 0.1415835 0.141785
 0.1420324 0.1423311 0.1426357 0.1428877 0.1430663 0.1431988 0.1433303 0.1434883 0.1436737 0.1438748
 0.1440807 0.1442866 0.1444926 0.1447016 0.1449165 0.1451361 0.1453554 0.1455703 0.1457803 0.145988
 0.1461971 0.1464111 0.1466338 0.1468716 0.1471307 0.1474057 0.1476733 0.1479055 0.1480908 0.1482415
 0.148381 0.1485288 0.1486948 0.1488791 0.1490741 0.1492714 0.1494677 0.1496659 0.1498689 0.1500752
 0.1502806 0.1504826 0.150683 0.1508855 0.1510938 0.151312 0.1515425 0.1517791 0.1520078 0.1522183
 0.1524128 0.1526038 0.1528017 0.1530053 0.1532018 0.1533812 0.1535502 0.1537272 0.1539201 0.1541198
 0.1543149 0.1545049 0.1546945 0.1548848 0.155074 0.1552631 0.1554559 0.1556563 0.1558644 0.1560757
 0.1562833 0.1564818 0.1566731 0.1568659 0.1570664 0.1572709 0.1574716 0.1576687 0.1578696 0.1580759
 0.1582792 0.1584705 0.158651 0.1588307 0.1590199 0.1592205 0.1594267 0.1596307 0.1598281 0.1600177
 0.1602027 0.1603914 0.160592 0.1608054 0.161028 0.161255 0.1614804 0.1616974 0.1619031 0.1621006
 0.1622978 0.162504 0.1627254 0.1629589 0.1631952 0.163426 0.1636472 0.1638571 0.1640556 0.164243
 0.1644194 0.1645889 0.1647589 0.1649318 0.1651047 0.1652796 0.1654635 0.1656566 0.1658512 0.166043
 0.1662343 0.1664284 0.1666272 0.1668303 0.1670342 0.1672359 0.1674351 0.1676296 0.1678178 0.1680082
 0.1682141 0.1684354 0.1686593 0.1688769 0.1690892 0.1692996 0.1695101 0.1697173 0.1699145 0.1701042
 0.170302 0.1705176 0.1707422 0.1709624 0.171175 0.1713821 0.1715864 0.1717915 0.1719966 0.1721962
 0.1723915 0.1725917 0.1728033 0.1730263 0.1732579 0.1734895 0.1737104 0.1739213 0.1741312 0.1743429
 0.1745543 0.174766 0.1749758 0.1751797 0.1753846 0.1756001 0.1758216 0.1760367 0.1762434 0.1764462
 0.176651 0.1768666 0.1770912 0.1772949 0.177422 0.1773603 0.1768377 0.1753097 0.171941 0.16577
 0.1560945 0.1429216 0.1271214 0.1101117 0.09333105 0.07786834 0.06436366 0.05309685 0.04412705 0.03738118
 0.03271072 0.0299851 0.02918948 0.03053044 0.03455606 0.04183242 0.05170686 0.06121401 0.06623372 0.06474689
 0.05876455 0.05249322 0.0488403 0.04801111 0.04876416 0.05004014 0.05150159 0.05333655 0.0558747 0.05921619
 0.06320915 0.06784582 0.07346119 0.08030487 0.08802144 0.09579384 0.103043 0.1098832 0.116853 0.1242691
 0.1318906 0.1391529 0.1456185 0.1512006 0.156078 0.1604939 0.1646188 0.1685327 0.1722701 0.1758207
 0.1790565 0.1817016 0.1834619 0.1842477 0.1842806 0.1839719 0.1836815 0.1835778 0.1836771 0.183949
 0.184368 0.1849154 0.1855762 0.1863308 0.1871452 0.1879792 0.1888052 0.1896066 0.1903686 0.1910825
 0.191748 0.1923649 0.1929301 0.1934439 0.1939115 0.1943397 0.194737 0.1951119 0.1954674 0.1958037
 0.1961258 0.1964402 0.1967466 0.1970384 0.1973103 0.1975616 0.1977949 0.1980134 0.1982177 0.198409
 0.1985962 0.1987918 0.1989984 0.1992082 0.1994155 0.1996215 0.1998283 0.2000349 0.2002389 0.200436
 0.200623 0.2008031 0.2009846 0.2011734 0.2013699 0.201572 0.2017745 0.2019695 0.202154 0.2023334
 0.2025173 0.2027132 0.2029201 0.2031284 0.2033294 0.2035276 0.2037353 0.2039547 0.2041772 0.2043981
 0.2046189 0.2048405 0.2050616 0.2052821 0.2054948 0.2056841 0.2058422 0.2059846 0.2061423 0.2063371
 0.2065615 0.2067865 0.2069908 0.2071798 0.2073719 0.2075745 0.2077777 0.2079656 0.2081348 0.2083082
 0.2085189 0.2087725 0.2090392 0.2092909 0.209525 0.2097487 0.2099687 0.2101983 0.2104402 0.2106652
 0.2108376 0.2109702 0.211131 0.2113875 0.2117395 0.2121109 0.2124176 0.2126445 0.2128446 0.2130749
 0.2133527 0.2136417 0.2138514 0.2139021 0.2138464 0.2138778 0.2141556 0.2146491 0.2151941 0.2156594
 0.2160205 0.2163146 0.2165744 0.2167962 0.2169434 0.2169874 0.216971 0.2170276 0.2172897 0.2177522
 0.2182643 0.2186838 0.2189882 0.2192218 0.2194175 0.2195937 0.2197213 0.2196756 0.2193686 0.2189839
 0.2189292 0.2194379 0.2203025 0.2210952 0.2215946 0.2218988 0.2221746 0.2224541 0.2226875 0.2227909
 0.2225528 0.2217493 0.2205804 0.2197955 0.2200772 0.2213543 0.2229248 0.224159 0.2248955 0.2252874
 0.2255342 0.2257501 0.2258748 0.2256722 0.2249944 0.2241372 0.2237672 0.2243036 0.225446 0.2265008
 0.2270939 0.227365 0.2275878 0.2278623 0.2280525 0.2277506 0.2265009 0.2244726 0.2228077 0.2228219
 0.2247163 0.2273361 0.2293178 0.2302625 0.2306273 0.2307256 0.2302696 0.2288952 0.2267039 0.2242134
 0.2222231 0.2217277 0.2232526 0.2260054 0.2283225 0.2293132 0.2296109 0.2303001 0.2316139 0.2329273
 0.2335867 0.2334258 0.2326463 0.2314483 0.2299382 0.2284858 0.2279277 0.2289663 0.2313184 0.2338242
 0.2355243 0.236388 0.2368004 0.236429 0.2340033 0.2288451 0.2227648 0.2195467 0.2216006 0.2274399
 0.233277 0.2367439 0.2381824 0.2388613 0.2392904 0.239079 0.2371457 0.2322906 0.2250578 0.2189393
 0.2180242 0.2229492 0.2301812 0.2353299 0.2361671 0.2328734 0.2272193 0.2220135 0.2199622 0.2220435
 0.2270911 0.2329503 0.2377658 0.2404887 0.2408739 0.2393794 0.2371219 0.2356071 0.2356432 0.2361391
 0.2349335 0.2315481 0.2280146 0.2258807 0.2237739 0.2198886 0.2159468 0.2160458 0.2213561 0.2281959
 0.2321906 0.232705 0.232013 0.2311102 0.2279469 0.2203442 0.2101212 0.2031378 0.2041838 0.2120241
 0.2205148 0.224625 0.2244291 0.2232815 0.2233278 0.2233169 0.2203697 0.2137671 0.2068222 0.2040715
 0.2064111 0.2102846 0.211854 0.2100228 0.2050025 0.1970974 0.1889912 0.1865013 0.1936251 0.2076105
 0.2211476 0.2283939 0.2270394 0.2169091 0.2008215 0.1863879 0.1822957 0.1904852 0.2037839 0.2125287
 0.2121968 0.2041134 0.1913615 0.1767746 0.1643101 0.1592841 0.1651419 0.1800404 0.1969641 0.2071368
 0.2047993 0.1917438 0.1778525 0.1739519 0.1818663 0.1931434 0.1985621 0.1965299 0.1916348 0.1887518
 0.1902759 0.1958025 0.202532 0.2078687 0.2114728 0.2122297 0.2054237 0.1883932 0.1679904 0.1560899
 0.1572539 0.1663077 0.1778561 0.191168 0.2041195 0.2098006 0.2043186 0.1942216 0.1909893 0.1988422
 0.2111049 0.2183973 0.2179335 0.2140686 0.2115099 0.2102709 0.2080364 0.2056272 0.2071655 0.2144285
 0.2237685 0.2301788 0.2324841 0.2329115 0.2332975 0.2336852 0.2335904 0.232842 0.231509 0.2300061
 0.2289625 0.228509 0.2281591 0.2275493 0.2263923 0.2233204 0.2161883 0.205098 0.1943356 0.1889854
 0.189528 0.1921671 0.1944386 0.1966368 0.1965814 0.1881693 0.169465 0.1492987 0.1408412 0.1488783
 0.1662496 0.1819836 0.1897012 0.1881392 0.1778197 0.1611981 0.1452949 0.1395612 0.1481918 0.1660783
 0.1842352 0.1975427 0.2054313 0.207633 0.2031392 0.193189 0.1825591 0.1768719 0.1791186 0.1882851
 0.1997579 0.206616 0.2029787 0.189787 0.1774229 0.1781456 0.1932743 0.2110475 0.2198309 0.2199259
 0.2190345 0.22029 0.2206034 0.2189356 0.2197381 0.2267813 0.2375707 0.2457978 0.246882 0.2397822
 0.2264486 0.2123385 0.2050116 0.2080264 0.2168351 0.2236923 0.225143 0.221563 0.212579 0.1990388
 0.1879248 0.1881528 0.2002507 0.2151672 0.224557 0.2283745 0.2311338 0.2341282 0.2338812 0.2274603
 0.2174267 0.2102835 0.2100435 0.2146901 0.2195472 0.2222125 0.2225819 0.2200239 0.2137717 0.20611
 0.2024123 0.2064369 0.2163971 0.2266234 0.2326344 0.2339165 0.2325395 0.23049 0.2283682 0.2255749
 0.2216181 0.2178138 0.2170525 0.2207238 0.22652 0.2308077 0.2327986 0.2348354 0.2387062 0.2431855
 0.2455392 0.2445141 0.2415141 0.2393521 0.2399853 0.2429682 0.2457898 0.2460198 0.2436299 0.2412481
 0.2417441 0.2454953 0.250343 0.2540434 0.2560935 0.2572645 0.2582838 0.259198 0.2593402 0.2578363
 0.254835 0.2522187 0.2522609 0.2553678 0.259694 0.2630572 0.2647042 0.2651707 0.2650675 0.2644496
 0.2631841 0.2615303 0.2601456 0.2595624 0.2598036 0.2605215 0.2613579 0.2621023 0.2626621 0.2630366
 0.2632892 0.263474 0.2636084 0.2637151 0.2638155 0.2638704 0.2638159 0.2636967 0.2636773 0.2638623
 0.26416 0.2643785 0.2643959 0.2641672 0.2636282 0.262713 0.2614655 0.2600251 0.2584666 0.2567601
 0.2549909 0.2535796 0.2531412 0.254028 0.2560062 0.2584015 0.2605478 0.2621103 0.2630831 0.2636108
 0.2638528 0.2639371 0.2639458 0.263903 0.2637881 0.263577 0.263274 0.2629075 0.2625106 0.2621161
 0.2617591 0.2614625 0.2612106 0.2609499 0.2606246 0.2602156 0.2597426 0.2592384 0.2587198 0.2581735
 0.2575567 0.2568227 0.2559597 0.2550129 0.254064 0.2531843 0.252392 0.2516483 0.2508972 0.2501023
 0.249233 0.2482372 0.2470869 0.2458631 0.2447401 0.2438477 0.2431669 0.2425726 0.2419407 0.2411993
 0.2403274 0.2393473 0.2383065 0.2372405 0.2361521 0.2350297 0.2338627 0.2326317 0.2313058 0.2298653
 0.2283189 0.2266972 0.2250395 0.2233799 0.2217127 0.2199607 0.2179912 0.2156699 0.2128906 0.209573
 0.2056772 0.2012489 0.1964412 0.1914758 0.1865714 0.1818947 0.1775628 0.1736719 0.1703117 0.1675543
 0.1654449 0.1640111 0.1632746 0.1632493 0.1639301 0.1652842 0.1672403 0.1696807 0.1724507 0.1753825
 0.1783148 0.1811078 0.1836739 0.1860141 0.1882015 0.1902968 0.192281 0.1940863 0.1956765 0.1970623
 0.1982537 0.1992467 0.2000603 0.2007469 0.2013489 0.20187 0.2023009 0.2026551 0.2029637 0.203244
 0.203489 0.2036937 0.2038766 0.2040678 0.2042854 0.2045326 0.2048115 0.2051349 0.205527 0.2060056
 0.206556 0.2071318 0.207699 0.2082688 0.2088746 0.2095344 0.2102578 0.2110745 0.2120294 0.2131495
 0.214425 0.2158149 0.2172516 0.2186422 0.2198826 0.2208909 0.2216345 0.2221266 0.2224015 0.2224969
 0.2224468 0.2222745 0.2219898 0.221604 0.2211418 0.2206318 0.220088 0.2195068 0.218879 0.2182016
 0.2174894 0.2167732 0.2160795 0.2154079 0.2147374 0.214058 0.213388 0.2127557 0.2121672 0.2116012
 0.2110324 0.2104526 0.2098692 0.2092942 0.2087334 0.2081723 0.2075675 0.2068687 0.2060531 0.2051296
 0.2041097 0.2029918 0.2017765 0.2004786 0.1991169 0.1977 0.1962213 0.1946642 0.1930154 0.1912749
 0.1894469 0.1875314 0.185542 0.1835307 0.1815747 0.1797321 0.1780157 0.1764068 0.1748853 0.1734482
 0.1720994 0.1708262 0.169598 0.1684004 0.1672521 0.1661767 0.1651745 0.1642334 0.1633512 0.1625367
 0.1618017 0.1611552 0.1605963 0.1601137 0.1596959 0.1593419 0.1590653 0.1588955 0.1588565 0.1589279
 0.1590373 0.1591038 0.1590811 0.1589653 0.1587867 0.1585974 0.1584457 0.1583491 0.1582905 0.1582262
 0.1580934 0.1578163 0.1573076 0.1564805 0.1552898 0.1537691 0.1520149 0.1501466 0.1482937 0.1465858
 0.1451194 0.1439445 0.1430769 0.1424844 0.1420709 0.1417274 0.1414136 0.1411786 0.141104 0.1412193
 0.1414413 0.1416193 0.1416791 0.1417086 0.1418749 0.142286 0.1429319 0.1437057 0.144467 0.1451207
 0.1456414 0.1460282 0.1462811 0.146423 0.1464864 0.1464734 0.1463713 0.146189 0.1459428 0.1456335
 0.1452555 0.1448022 0.1442672 0.1436625 0.1430089 0.1422999 0.1415161 0.1406516 0.1396742 0.1385269
 0.1372588 0.1361039 0.1353544 0.1351839 0.1355869 0.1364065 0.1374307 0.1385197 0.1395863 0.1404344
 0.1408154 0.1408014 0.1409688 0.1419895 0.1440028 0.1464677 0.1486393 0.1501075 0.1508611 0.1510036
 0.1505953 0.1496814 0.1482718 0.1463214 0.143853 0.1410183 0.1379784 0.1348612 0.1318474 0.1291266
 0.1267917 0.1248785 0.123411 0.1224314 0.1220511 0.1218829 0.1200242 0.1140352 0.1046984 0.09771153
 0.09889372 0.1076324 0.1173065 0.122283 0.1224082 0.1206929 0.1192131 0.1182662 0.1177291 0.1177523
 0.1184801 0.1197638 0.1211954 0.1223649 0.1231098 0.1234664 0.1233835 0.1224983 0.1200825 0.1152973
 0.1078767 0.0987116 0.08953891 0.08193202 0.07660046 0.07342008 0.07178663 0.07096715 0.07044688 0.07016007
 0.07039789 0.07146275 0.07341123 0.07609545 0.07931741 0.08281237 0.08616704 0.08898406 0.09116942 0.09290649
 0.09433234 0.09537858 0.09592634 0.09597186 0.09561522 0.09498848 0.09422363 0.09341449 0.0925511 0.09153003
 0.09031734 0.08910462 0.0882014 0.08774407 0.08760431 0.08758795 0.08759992 0.08760965 0.08759286 0.08754495
 0.08748861 0.08747688 0.08760539 0.08794491 0.08842953 0.08887956 0.08915577 0.08925685 0.08927493 0.08925366
 0.08907221 0.08855927 0.08779384 0.08712143 0.08669943 0.08620207 0.08522815 0.08389579 0.08278699 0.08234274
 0.08249413 0.08284767 0.08305217 0.08298278 0.0827558 0.08266387 0.08296351 0.0835751 0.08406303 0.08405041
</values></Ydata></ScRf><Data_Parameters_AB><parameter name="DPF">1</parameter><parameter name="NPT">3497</parameter><parameter name="FXV">3996</parameter><parameter name="LXV">500</parameter><parameter name="CSF">1</parameter><parameter name="MXY">0.0299927666783333</parameter><parameter name="MNY">-0.0959088951349258</parameter><parameter name="DAT">20/05/2022</parameter><parameter name="TIM">10:49:19.424 (GMT+2)</parameter><parameter name="DXU">WN</parameter></Data_Parameters_AB><AB__Qtest><MainReport name="Quality Test Report"><Header><Line><Legend>Test result ok/not ok [1/0]: </Legend><Value>0</Value></Line><Line><Legend>Method file: </Legend><Value>C:\Users\Public\Documents\Bruker\OPUS_8.2.28\QT\IRBT_v3_default.QT</Value></Line></Header><Matrix><Line><Legend></Legend><Legend>min</Legend><Legend>max</Legend><Legend>measured</Legend></Line><Line><Value>Absorption (X-Range 1):</Value><Value>0.400000</Value><Value>2.000000</Value><Value>0.103309</Value></Line><Line><Value>Noise (X-Range 4):</Value><Value></Value><Value>0.000300</Value><Value>0.000040</Value></Line><Line><Value>Signal/Noise (X-Range 2):</Value><Value>200.000000</Value><Value></Value><Value>51.583705</Value></Line><Line><Value>Signal/Noise (X-Range 3):</Value><Value>40.000000</Value><Value></Value><Value>39.447203</Value></Line><Line><Value>Water vapour (X-Range 5):</Value><Value></Value><Value>0.000300</Value><Value>0.000080</Value></Line><Line><Value>Signal/Water (X-Range 2):</Value><Value>100.000000</Value><Value></Value><Value>26.185564</Value></Line><Line><Value>Signal/Water (X-Range 3):</Value><Value>20.000000</Value><Value></Value><Value>20.024682</Value></Line><Line><Value>Fringes (X-Range 6):</Value><Value></Value><Value>0.000100</Value><Value>0.000061</Value></Line></Matrix></MainReport></AB__Qtest><Data_Parameters_ScSm><parameter name="DPF">1</parameter><parameter name="NPT">1814</parameter><parameter name="FXV">3996.33169228125</parameter><parameter name="LXV">499.541461535156</parameter><parameter name="CSF">1</parameter><parameter name="MXY">0.284513771533966</parameter><parameter name="MNY">0.0351694449782372</parameter><parameter name="DAT">20/05/2022</parameter><parameter name="TIM">10:49:19.424 (GMT+2)</parameter><parameter name="DXU">WN</parameter></Data_Parameters_ScSm><Data_Parameters_ScRf><parameter name="DPF">1</parameter><parameter name="NPT">1820</parameter><parameter name="FXV">4004.04661832813</parameter><parameter name="LXV">495.683998511719</parameter><parameter name="CSF">1</parameter><parameter name="MXY">0.265170693397522</parameter><parameter name="MNY">0.0291894786059856</parameter><parameter name="DAT">20/05/2022</parameter><parameter name="TIM">10:48:53.572 (GMT+2)</parameter><parameter name="DXU">WN</parameter></Data_Parameters_ScRf><Optic_Parameters_Rf><parameter name="APR">0</parameter><parameter name="APT">Open</parameter><parameter name="BMS">KBr</parameter><parameter name="DTC">RT-DLaTGS_IR-Biotyper [Microplate reader]</parameter><parameter name="HPF">0</parameter><parameter name="LPF">10.0</parameter><parameter name="LPV">4000</parameter><parameter name="PGR">0</parameter><parameter name="RCH">Module port</parameter><parameter name="RDX">0</parameter><parameter name="SRC">MIR</parameter><parameter name="VEL">10.0</parameter><parameter name="SON">Off</parameter></Optic_Parameters_Rf><Acquisition_Parameters_Rf><parameter name="ADT">1</parameter><parameter name="AQM">DD</parameter><parameter name="CFE">0</parameter><parameter name="COR">0</parameter><parameter name="DEL">0</parameter><parameter name="DLY">0</parameter><parameter name="HFW">8000</parameter><parameter name="LFW">0</parameter><parameter name="NSR">32</parameter><parameter name="PLF">AB</parameter><parameter name="RES">6</parameter><parameter name="RGN">-1</parameter><parameter name="STR">0</parameter><parameter name="TCL">MakeCompatibleScalar (0, {WSV=1.000000, ARV=0});</parameter><parameter name="TDL">37</parameter><parameter name="RPO">0</parameter></Acquisition_Parameters_Rf><FT_-_Parameters_Rf><parameter name="APF">B3</parameter><parameter name="HFQ">500</parameter><parameter name="LFQ">4000</parameter><parameter name="NLI">0</parameter><parameter name="PHR">24</parameter><parameter name="PHZ">ML</parameter><parameter name="SPZ">NO</parameter><parameter name="ZFF">1</parameter></FT_-_Parameters_Rf><Optic_Parameters_><parameter name="APR">0</parameter><parameter name="APT">Open</parameter><parameter name="BMS">KBr</parameter><parameter name="CHN">Module port</parameter><parameter name="DTC">RT-DLaTGS_IR-Biotyper [Microplate reader]</parameter><parameter name="HPF">0</parameter><parameter name="LPF">10.0</parameter><parameter name="LPV">4000</parameter><parameter name="PGN">0</parameter><parameter name="RDX">0</parameter><parameter name="SRC">MIR</parameter><parameter name="VEL">10.0</parameter><parameter name="SON">Off</parameter></Optic_Parameters_><FT_-_Parameters_><parameter name="APF">B3</parameter><parameter name="HFQ">500</parameter><parameter name="LFQ">4000</parameter><parameter name="NLI">0</parameter><parameter name="PHR">24</parameter><parameter name="PHZ">ML</parameter><parameter name="SPZ">NO</parameter><parameter name="ZFF">1</parameter></FT_-_Parameters_><Acquisition_Parameters_><parameter name="ADT">1</parameter><parameter name="AQM">DD</parameter><parameter name="CFE">0</parameter><parameter name="COR">0</parameter><parameter name="DEL">0</parameter><parameter name="DLY">0</parameter><parameter name="HFW">8000</parameter><parameter name="LFW">0</parameter><parameter name="NSS">32</parameter><parameter name="PLF">AB</parameter><parameter name="RES">6</parameter><parameter name="SOT">0</parameter><parameter name="TCL">MakeCompatibleScalar (0, {WSV=1.000000, ARV=0});</parameter><parameter name="TDL">37</parameter><parameter name="SPO">0</parameter><parameter name="SGN">-1</parameter></Acquisition_Parameters_><Instrument_Parameters_Rf><parameter name="HFL">15800.168544</parameter><parameter name="LFL">0</parameter><parameter name="LWN">15800.168544</parameter><parameter name="ABP">32197</parameter><parameter name="SSP">1</parameter><parameter name="ARG">2</parameter><parameter name="ASG">2</parameter><parameter name="ASS">32</parameter><parameter name="GFW">16</parameter><parameter name="GBW">16</parameter><parameter name="BFW">0</parameter><parameter name="BBW">0</parameter><parameter name="PKA">7379</parameter><parameter name="PKL">4990</parameter><parameter name="PRA">7527</parameter><parameter name="PRL">5001</parameter><parameter name="P2A">1</parameter><parameter name="P2L">1</parameter><parameter name="P2R">1</parameter><parameter name="P2K">1</parameter><parameter name="DAQ">0</parameter><parameter name="AG2">1</parameter><parameter name="SSM">1</parameter><parameter name="RSN">24481</parameter><parameter name="CRR">0</parameter><parameter name="SRT">1653043733.572</parameter><parameter name="DUR">19.6379852294922</parameter><parameter name="TSC">28.9</parameter><parameter name="MVD">0.217158392071724</parameter><parameter name="AN1">0.225767828686269</parameter><parameter name="AN2">0</parameter><parameter name="VSN">2.485 Apr  4 2017</parameter><parameter name="SRN">0085</parameter><parameter name="CAM">0</parameter><parameter name="INS">IR-Biotyper</parameter><parameter name="FOC">69</parameter><parameter name="RDY">1</parameter><parameter name="ARS">32</parameter></Instrument_Parameters_Rf><Sample_Parameters_><parameter name="BLD"></parameter><parameter name="CNM">Admin</parameter><parameter name="CPY"></parameter><parameter name="DPM"></parameter><parameter name="EXP">IRBT_v3_32Scans.XPM</parameter><parameter name="LCT"></parameter><parameter name="SFM">Microplate, HTS-XT</parameter><parameter name="SNM">220520-0930(v.3)_MPP28F (D_3)_A2_6988cca8-51ea-4ea1-8f50-2206995b0d88.0</parameter><parameter name="XPP">C:\Users\Public\Documents\Bruker\OPUS_8.2.28\XPM</parameter><parameter name="IST">OK</parameter><parameter name="CPG">1252</parameter><parameter name="UID">2f631772-c882-43af-8433-a0e01418a02a</parameter></Sample_Parameters_><Instrument_Parameters_><parameter name="HFL">15800.168544</parameter><parameter name="LFL">0</parameter><parameter name="LWN">15800.168544</parameter><parameter name="ABP">32197</parameter><parameter name="SSP">1</parameter><parameter name="ASG">2</parameter><parameter name="ARG">2</parameter><parameter name="ASS">32</parameter><parameter name="GFW">16</parameter><parameter name="GBW">16</parameter><parameter name="BFW">0</parameter><parameter name="BBW">0</parameter><parameter name="PKA">8169</parameter><parameter name="PKL">4990</parameter><parameter name="PRA">8390</parameter><parameter name="PRL">4993</parameter><parameter name="P2A">1</parameter><parameter name="P2L">1</parameter><parameter name="P2R">1</parameter><parameter name="P2K">1</parameter><parameter name="DAQ">0</parameter><parameter name="AG2">1</parameter><parameter name="SSM">1</parameter><parameter name="RSN">12865</parameter><parameter name="CRR">0</parameter><parameter name="SRT">1653043759.424</parameter><parameter name="DUR">19.6379852294922</parameter><parameter name="TSC">28.9</parameter><parameter name="MVD">0.214083880186081</parameter><parameter name="AN1">0.225767683635276</parameter><parameter name="AN2">0</parameter><parameter name="VSN">2.485 Apr  4 2017</parameter><parameter name="SRN">0085</parameter><parameter name="CAM">0</parameter><parameter name="INS">IR-Biotyper</parameter><parameter name="FOC">69</parameter><parameter name="RDY">1</parameter></Instrument_Parameters_><History/></OPUSDataFile>
