<?xml version="1.0" encoding="UTF-8" ?>
<OPUSDataFile><AB><Ydata ylabel="Absorbance Units"><values byteorder="INTEL" format="FLOAT32" numvalues="3497"> -0.08109768 -0.08108875 -0.08107947 -0.08107156 -0.08103881 -0.08097992 -0.08088813 -0.08076539 -0.08063407 -0.08049776
 -0.08039013 -0.08030961 -0.08027117 -0.0802656 -0.0802794 -0.08030432 -0.08031889 -0.08032544 -0.08031683 -0.08030199
 -0.08028689 -0.08027353 -0.08026666 -0.08025799 -0.08024562 -0.08022276 -0.08018621 -0.08013917 -0.08008111 -0.08001999
 -0.07995666 -0.07989491 -0.07983499 -0.07977338 -0.07970999 -0.07964179 -0.07957033 -0.07950299 -0.07944213 -0.07940164
 -0.07937899 -0.07937753 -0.07938802 -0.07939661 -0.07939761 -0.07937577 -0.07933986 -0.07928956 -0.07924048 -0.07920318
 -0.07917883 -0.07917354 -0.07917004 -0.07916547 -0.07914499 -0.07910386 -0.07904898 -0.07897953 -0.07891729 -0.07886343
 -0.0788333 -0.07882635 -0.07883943 -0.07886986 -0.07890039 -0.07892895 -0.07893854 -0.07892993 -0.07889533 -0.07883939
 -0.07876461 -0.07867949 -0.07859433 -0.07851591 -0.07845484 -0.07840748 -0.07837682 -0.07835028 -0.07832407 -0.0782886
 -0.07823991 -0.07817761 -0.07810017 -0.07801508 -0.07792211 -0.07783774 -0.07776285 -0.077721 -0.07771266 -0.07775194
 -0.07783423 -0.07794133 -0.07806291 -0.07814958 -0.07819965 -0.07817888 -0.07810431 -0.07798751 -0.07784758 -0.07771312
 -0.07758935 -0.07749256 -0.07741288 -0.07735095 -0.07729105 -0.07722513 -0.07715312 -0.07706993 -0.07699843 -0.07694143
 -0.07691821 -0.07693297 -0.07696984 -0.07702827 -0.07706711 -0.07708567 -0.07706402 -0.07700725 -0.07693654 -0.07685786
 -0.07680631 -0.07677981 -0.07679407 -0.07683634 -0.07689288 -0.0769518 -0.07699046 -0.07701293 -0.07701465 -0.07700279
 -0.07698321 -0.0769491 -0.07689861 -0.07682829 -0.07673205 -0.07663563 -0.07653955 -0.07648631 -0.07648131 -0.07654332
 -0.07667439 -0.07680819 -0.0769385 -0.07694976 -0.07685263 -0.0766558 -0.07638086 -0.07611757 -0.07586815 -0.0756842
 -0.07555565 -0.07549124 -0.07547343 -0.07548702 -0.07551271 -0.07552851 -0.07552771 -0.07549784 -0.07544867 -0.0753805
 -0.07530506 -0.07522592 -0.07514785 -0.0750723 -0.07500067 -0.07493346 -0.0748691 -0.07480756 -0.07474364 -0.07467717
 -0.07460398 -0.07452516 -0.07444485 -0.07436583 -0.07430144 -0.07425217 -0.07422852 -0.07422312 -0.07422943 -0.07423731
 -0.07423002 -0.07420743 -0.07416097 -0.0741026 -0.07403595 -0.07397331 -0.07392155 -0.0738821 -0.07385766 -0.07384145
 -0.0738323 -0.07382842 -0.07382942 -0.07383673 -0.07385061 -0.07385654 -0.07385325 -0.07381711 -0.07374904 -0.07364225
 -0.07350137 -0.07333943 -0.07316259 -0.07299186 -0.07283336 -0.07270835 -0.07261658 -0.07257061 -0.07255419 -0.0725617
 -0.07256786 -0.07255446 -0.07251422 -0.07243516 -0.07233844 -0.07222584 -0.07212296 -0.07203579 -0.0719708 -0.07193007
 -0.07190614 -0.07189871 -0.07190003 -0.07190954 -0.07191827 -0.07192495 -0.07191619 -0.07189163 -0.07184138 -0.07176896
 -0.07167688 -0.07157198 -0.07146711 -0.07136764 -0.07128617 -0.07122214 -0.07117969 -0.07115547 -0.07114691 -0.07115803
 -0.07118902 -0.07124708 -0.07133738 -0.07144745 -0.07157918 -0.07169797 -0.07180037 -0.07186166 -0.07188001 -0.07184295
 -0.07174998 -0.07158898 -0.07136425 -0.07109637 -0.07079607 -0.07051693 -0.07026577 -0.07008978 -0.06998376 -0.06996763
 -0.07001299 -0.07009708 -0.07018426 -0.07022952 -0.07023496 -0.07018405 -0.07010536 -0.07000788 -0.0699075 -0.06981307
 -0.06971734 -0.06962135 -0.06951008 -0.06938095 -0.06923576 -0.06907415 -0.0689166 -0.06876428 -0.06863889 -0.06854003
 -0.0684775 -0.06844609 -0.06843314 -0.06842785 -0.06839269 -0.06832773 -0.06820988 -0.06805968 -0.0678951 -0.06772834
 -0.06758114 -0.06744216 -0.06731244 -0.06717466 -0.06701914 -0.06684701 -0.06665383 -0.06645854 -0.06626393 -0.06608363
 -0.06592043 -0.06577135 -0.06563656 -0.06550283 -0.0653697 -0.06522854 -0.06508071 -0.06493274 -0.06478506 -0.06464406
 -0.06450664 -0.06436702 -0.06422432 -0.06407344 -0.06391683 -0.06375635 -0.06359188 -0.06342537 -0.06325164 -0.06306795
 -0.06287145 -0.0626607 -0.06243301 -0.06218976 -0.06191619 -0.06160999 -0.06125885 -0.06085937 -0.06042424 -0.05995368
 -0.0594751 -0.05898987 -0.05852266 -0.05807405 -0.05766092 -0.05728115 -0.05693696 -0.05662206 -0.05632026 -0.05602826
 -0.0557311 -0.05543194 -0.05513195 -0.05482502 -0.0545117 -0.05416887 -0.05377891 -0.05334036 -0.05283982 -0.05231803
 -0.05178447 -0.05126598 -0.05077202 -0.05029571 -0.04983813 -0.04938242 -0.04892739 -0.04846512 -0.04799602 -0.04753068
 -0.04707034 -0.04663228 -0.04621146 -0.04579988 -0.04538322 -0.04491422 -0.04439302 -0.04378681 -0.04313114 -0.0424598
 -0.04179806 -0.04118761 -0.0406166 -0.0400925 -0.03959036 -0.03910215 -0.03860709 -0.03809647 -0.03756486 -0.03700833
 -0.03643698 -0.03585161 -0.03525963 -0.03466193 -0.03405059 -0.03342525 -0.03277826 -0.03211142 -0.03143505 -0.0307516
 -0.03007743 -0.0294125 -0.02876456 -0.02813373 -0.02752486 -0.02693482 -0.02636466 -0.02580201 -0.02523578 -0.02465813
 -0.02405696 -0.02344385 -0.02282105 -0.02219786 -0.02158146 -0.02095572 -0.02031898 -0.01965538 -0.01896024 -0.01825264
 -0.01753321 -0.01683171 -0.01614859 -0.01548583 -0.0148414 -0.01420005 -0.01356107 -0.01291277 -0.01225723 -0.01159328
 -0.01092535 -0.01026192 -0.009604367 -0.008960863 -0.008322757 -0.007687081 -0.007039892 -0.006369702 -0.005674567 -0.00494724
 -0.004204353 -0.003448039 -0.002697567 -0.001957075 -0.001238219 -0.0005434292 0.0001258107 0.0007687481 0.001399988 0.002020559
 0.002652201 0.003295154 0.003961275 0.004649209 0.005359786 0.006090852 0.006838652 0.007597417 0.008355088 0.009105524
 0.009833175 0.010542 0.01122785 0.01190313 0.0125757 0.01325002 0.013932 0.0146142 0.01529598 0.01596903
 0.01663074 0.01728167 0.01792071 0.0185586 0.01919595 0.0198439 0.02050249 0.02116732 0.02183681 0.02249417
 0.02314102 0.02377428 0.02439954 0.02503278 0.02567424 0.02633426 0.02700475 0.02767907 0.02835057 0.02900918
 0.02965599 0.03028707 0.03091063 0.03152771 0.03215142 0.03278624 0.03343925 0.03411506 0.03480035 0.03549513
 0.03617672 0.03684312 0.03748736 0.03810955 0.03871954 0.03931761 0.03991043 0.04049714 0.04107668 0.04164933
 0.04221502 0.04277533 0.04333363 0.04389051 0.04444841 0.04500678 0.04556601 0.04612534 0.04668408 0.04724287
 0.04780177 0.04836177 0.04892452 0.04948399 0.05003998 0.0505827 0.05110982 0.05162533 0.05212871 0.05264092
 0.05316274 0.05370644 0.05427005 0.05484162 0.0554185 0.05598135 0.05653116 0.0570605 0.0575724 0.05806955
 0.05855403 0.05903048 0.05949822 0.05995904 0.06040943 0.06084666 0.06127165 0.06168193 0.06208799 0.06249244
 0.06290352 0.06332498 0.06375051 0.06418005 0.06460465 0.06502333 0.06543814 0.06584923 0.06626096 0.06667312
 0.06708438 0.06749611 0.06791341 0.06833933 0.06878781 0.06925585 0.06974683 0.07024983 0.07075118 0.07124215
 0.07170769 0.07214892 0.07256114 0.07295074 0.07332001 0.07367182 0.07400791 0.07432751 0.0746299 0.07491916
 0.07519457 0.0754703 0.07574716 0.07604104 0.07635249 0.07668704 0.07704388 0.07741851 0.07780922 0.07820677
 0.07860754 0.07899634 0.07936961 0.07971044 0.08002379 0.08030573 0.08057295 0.08083976 0.0811203 0.08143245
 0.08176896 0.08213598 0.08250424 0.0828668 0.08319761 0.08348695 0.08373926 0.08395158 0.08415327 0.08434681
 0.08454525 0.08474842 0.08492947 0.08508638 0.08518617 0.08523446 0.08523839 0.08521098 0.08519591 0.08520123
 0.08526807 0.08538876 0.08557447 0.08580188 0.08605403 0.08630651 0.0865332 0.08673566 0.08690062 0.08706496
 0.08723634 0.08744942 0.08771898 0.08802716 0.08837875 0.08870585 0.08900373 0.08921527 0.0893387 0.0893784
 0.08933964 0.08927558 0.08918937 0.08912563 0.08908033 0.08906169 0.08907032 0.08910796 0.08918504 0.08932201
 0.08951299 0.08977106 0.09005221 0.09033398 0.09057041 0.09072439 0.09080943 0.09081164 0.09080033 0.09078751
 0.09082728 0.09093374 0.09109195 0.09130442 0.09150275 0.09168345 0.09178027 0.0917945 0.09170935 0.09153646
 0.09132146 0.09108149 0.09089471 0.09076855 0.09076316 0.09086011 0.09106692 0.09133925 0.09163802 0.09192105
 0.09214044 0.09229651 0.09236851 0.09240147 0.0924041 0.09241872 0.09245869 0.09253194 0.09264086 0.09278948
 0.09297685 0.09323624 0.0935692 0.09400322 0.09453259 0.0951148 0.09573284 0.09627613 0.09673566 0.09701502
 0.09713788 0.09709688 0.09694587 0.09675908 0.09658177 0.09649751 0.09649819 0.09661771 0.09678932 0.09699669
 0.0971595 0.09724518 0.09721614 0.09705061 0.09678049 0.09640181 0.09599349 0.0955613 0.09517219 0.09482912
 0.09454533 0.09431807 0.09412243 0.09395767 0.09380569 0.09367159 0.09356313 0.09348334 0.09344843 0.09344368
 0.0934639 0.09346754 0.09341461 0.09325983 0.09294946 0.09249006 0.0918545 0.09112401 0.09031229 0.08951665
 0.08876473 0.08809563 0.08752259 0.087027 0.08660913 0.0862396 0.08591683 0.08561156 0.08532189 0.08501484
 0.08469302 0.08434952 0.08399508 0.0836642 0.08335792 0.08310398 0.08287658 0.0826518 0.08239911 0.0820694
 0.08167005 0.08117893 0.08065096 0.08010152 0.07959589 0.07916284 0.07882664 0.07860731 0.0784566 0.07837768
 0.07826574 0.07811242 0.07783196 0.07742051 0.0768882 0.0762436 0.07558528 0.07492108 0.07434849 0.07385848
 0.07347649 0.07318144 0.07293946 0.07273479 0.07252759 0.0723134 0.07207255 0.07180607 0.07150821 0.07118336
 0.07083008 0.07046087 0.07007734 0.06969953 0.0693322 0.06898927 0.06867515 0.06838317 0.06811422 0.06784301
 0.06756821 0.06726668 0.06693897 0.06658327 0.06620337 0.06581879 0.0654331 0.06506962 0.06472709 0.06441583
 0.06412866 0.06386055 0.06360107 0.06333796 0.06306172 0.06276061 0.06243272 0.06207129 0.06168802 0.06128329
 0.06087704 0.06047435 0.06008629 0.05971647 0.05935996 0.05901704 0.05867648 0.05833772 0.05799232 0.05763974
 0.05727098 0.0568856 0.05647478 0.05604151 0.05558899 0.05512515 0.05466951 0.05422768 0.05381983 0.0534399
 0.053091 0.05275996 0.05243492 0.05211692 0.05179721 0.05150329 0.05124224 0.05103822 0.05090588 0.05081471
 0.05076928 0.05068326 0.05054962 0.05029673 0.04992074 0.04943271 0.04883942 0.04822579 0.04760017 0.04705598
 0.04658991 0.04624651 0.04600345 0.04583791 0.04571522 0.04556885 0.04538103 0.04509639 0.04474317 0.04431696
 0.04387299 0.04344338 0.04304759 0.04270808 0.04239014 0.04208846 0.04177914 0.04145091 0.04114684 0.04086775
 0.04068382 0.0405988 0.04062318 0.04075073 0.04090718 0.04108185 0.04117279 0.04118062 0.04104744 0.04079341
 0.04043179 0.03999286 0.03953234 0.03906598 0.03863779 0.03823641 0.03786734 0.03751663 0.0371726 0.03684814
 0.03654364 0.03627865 0.03606329 0.03587927 0.03572834 0.03556722 0.03539021 0.03519287 0.03497469 0.03478428
 0.0346236 0.03453349 0.03450786 0.03453332 0.03459925 0.0346601 0.03471213 0.03472245 0.03469617 0.0346264
 0.03452091 0.03438754 0.0342267 0.0340455 0.03382845 0.03357124 0.03325399 0.03286294 0.03241073 0.03188905
 0.0313614 0.03083361 0.03037707 0.03000198 0.0297165 0.02952173 0.02934774 0.02918994 0.02896646 0.02868171
 0.0283164 0.02788719 0.02744315 0.02699764 0.02661064 0.02627705 0.02601924 0.02581698 0.02565756 0.02551921
 0.02538112 0.02522886 0.02504785 0.02483676 0.02458829 0.02432082 0.02403511 0.02375999 0.02350214 0.02326623
 0.02305595 0.02283444 0.02259982 0.02231366 0.0219776 0.02160585 0.02120539 0.02082998 0.02047682 0.0201693
 0.01988922 0.01960257 0.01929954 0.01894055 0.01854568 0.01811852 0.01769113 0.01729327 0.01693556 0.01663503
 0.01638095 0.01617185 0.01600294 0.01587143 0.01578276 0.01573923 0.0157318 0.015762 0.01579234 0.01582087
 0.0157971 0.01571957 0.01555611 0.01531147 0.01499531 0.01461972 0.01423274 0.01384592 0.01351297 0.01323454
 0.01303815 0.01291331 0.01285911 0.01286351 0.0129163 0.01301018 0.01313918 0.01329712 0.01348219 0.013683
 0.01389746 0.01411156 0.01432154 0.01452636 0.01472349 0.01494089 0.01517983 0.01548816 0.01586728 0.01634836
 0.01692604 0.01758441 0.01831229 0.0190593 0.01981906 0.02054831 0.0212523 0.0219196 0.02255974 0.02318106
 0.02378619 0.02438034 0.02496299 0.02553216 0.02609867 0.02666424 0.0272457 0.02785111 0.02847281 0.02911553
 0.02973441 0.03032645 0.03084339 0.03128195 0.03163121 0.03189247 0.03208648 0.0322138 0.03228854 0.03230833
 0.03226817 0.03217304 0.03202646 0.03184966 0.03167707 0.03153434 0.03146898 0.03148541 0.03160958 0.03181618
 0.03210075 0.03243163 0.03279325 0.03317596 0.03357151 0.03399294 0.03444073 0.03493016 0.03546366 0.03604227
 0.03666646 0.03731592 0.03798853 0.03864706 0.03929029 0.03988833 0.04044827 0.04097749 0.04149184 0.0420361
 0.04261822 0.04328371 0.04400206 0.04477707 0.04551143 0.04615162 0.04654099 0.04658481 0.04615033 0.04514424
 0.04358318 0.04142023 0.03887244 0.03594865 0.03296915 0.0299662 0.027192 0.02466537 0.0224669 0.02059297
 0.01898228 0.01762453 0.01642164 0.01537087 0.01441103 0.01354269 0.0127398 0.01199597 0.0112895 0.01061233
 0.009942781 0.00928693 0.008639002 0.00801813 0.007434338 0.006899162 0.006421874 0.005997307 0.005626447 0.005300146
 0.005016087 0.00477412 0.004573101 0.00442449 0.004328808 0.004303888 0.004349471 0.004465823 0.004645169 0.004837642
 0.005028709 0.005131329 0.00514299 0.005004793 0.004741793 0.004365539 0.0039153 0.003443866 0.002978709 0.00256191
 0.002202946 0.001918346 0.001710542 0.001582935 0.001539907 0.001580886 0.001720816 0.001960188 0.002326272 0.002824645
 0.003450114 0.004205194 0.004964986 0.005715249 0.006192613 0.006381135 0.006024426 0.00515174 0.003718591 0.001816478
 -0.0003494584 -0.002682743 -0.004906388 -0.006996415 -0.008795989 -0.01036357 -0.0116913 -0.01285487 -0.0139017 -0.0148648
 -0.01577211 -0.01662024 -0.01741256 -0.01814617 -0.01881977 -0.01944038 -0.02000856 -0.02053021 -0.02100571 -0.02144039
 -0.02183492 -0.02220141 -0.02254129 -0.02287107 -0.02319101 -0.02351235 -0.02383162 -0.02414648 -0.02445092 -0.02473179
 -0.02498819 -0.02521002 -0.02540927 -0.02559021 -0.02577155 -0.0259671 -0.02618356 -0.02643094 -0.02669352 -0.02697164
 -0.02723762 -0.02748608 -0.02770058 -0.02787678 -0.02802645 -0.02814961 -0.02827715 -0.02841007 -0.02856626 -0.0287431
 -0.028929 -0.02912199 -0.02930488 -0.02948421 -0.02966805 -0.02986481 -0.03009791 -0.03036076 -0.03065933 -0.03097126
 -0.0312796 -0.03156561 -0.03181085 -0.03201397 -0.03216776 -0.03228476 -0.03236471 -0.03242989 -0.03248255 -0.03255093
 -0.03263876 -0.032763 -0.03292561 -0.03311615 -0.03333336 -0.03355026 -0.03376634 -0.03396469 -0.03414745 -0.03431504
 -0.03446864 -0.03461209 -0.03474453 -0.03486554 -0.03497577 -0.03507501 -0.03516657 -0.03525338 -0.03533754 -0.03542173
 -0.03550467 -0.03558591 -0.0356663 -0.03574422 -0.03582972 -0.03592363 -0.03603916 -0.03617888 -0.03634191 -0.03652893
 -0.03671788 -0.03690747 -0.03707222 -0.03721309 -0.0373247 -0.03741141 -0.03748886 -0.03756028 -0.03764388 -0.03773729
 -0.03784638 -0.03796302 -0.03807987 -0.03818799 -0.03827467 -0.03834145 -0.03838103 -0.03841342 -0.03844246 -0.03849562
 -0.03858305 -0.03871474 -0.0388973 -0.0391132 -0.03936255 -0.03961554 -0.03987008 -0.04010559 -0.04032153 -0.04051251
 -0.04067948 -0.04082681 -0.04095646 -0.04107873 -0.04119591 -0.04132031 -0.04145164 -0.04159671 -0.04175013 -0.04190803
 -0.04206455 -0.04221144 -0.04235028 -0.04247826 -0.04260299 -0.04272795 -0.04285509 -0.04298712 -0.04311687 -0.04324324
 -0.04336146 -0.04346988 -0.04357568 -0.0436791 -0.04379163 -0.04391345 -0.04404548 -0.04418609 -0.04432255 -0.04445339
 -0.04456411 -0.04465728 -0.04473121 -0.04479254 -0.04485306 -0.04491799 -0.04500026 -0.04509914 -0.04521932 -0.0453562
 -0.04550862 -0.04567135 -0.04584284 -0.04601575 -0.04618832 -0.04635214 -0.0465048 -0.04664415 -0.04676901 -0.04688541
 -0.04699365 -0.04710005 -0.04720478 -0.04730916 -0.04741316 -0.04751692 -0.04762081 -0.0477268 -0.04783479 -0.04794567
 -0.04805864 -0.04817237 -0.04828665 -0.04840049 -0.04851439 -0.04862874 -0.04874315 -0.04885773 -0.04897126 -0.04908295
 -0.04919316 -0.0493013 -0.04941054 -0.04952124 -0.04963701 -0.04975866 -0.04988544 -0.05001754 -0.05014897 -0.05027942
 -0.05040273 -0.05051914 -0.05062759 -0.05072915 -0.05082784 -0.05092508 -0.05102696 -0.0511344 -0.05125255 -0.05138031
 -0.05151938 -0.05166545 -0.05181559 -0.05196473 -0.05210841 -0.05224478 -0.05237148 -0.05249013 -0.05260078 -0.05270485
 -0.05280276 -0.05289437 -0.05297941 -0.05306035 -0.05313709 -0.05321759 -0.05330231 -0.05340126 -0.0535142 -0.05364417
 -0.05378891 -0.05393994 -0.05409471 -0.0542403 -0.05437788 -0.05450241 -0.05461906 -0.0547329 -0.05484797 -0.05497118
 -0.05510074 -0.05523848 -0.05537878 -0.05551961 -0.05565664 -0.0557879 -0.05591205 -0.0560283 -0.05613746 -0.05623932
 -0.05633667 -0.05642961 -0.05652231 -0.05661498 -0.05671104 -0.05681045 -0.05691419 -0.05702207 -0.05713353 -0.05724878
 -0.05736821 -0.05749202 -0.05762119 -0.05775479 -0.0578927 -0.0580318 -0.05816968 -0.05830199 -0.05842488 -0.05853647
 -0.0586338 -0.05872106 -0.05879794 -0.05887296 -0.05894787 -0.05902832 -0.05911582 -0.05920822 -0.05930563 -0.05940197
 -0.05949701 -0.05958744 -0.05967365 -0.05975775 -0.05984046 -0.05992657 -0.06001611 -0.06011209 -0.06021327 -0.06031878
 -0.06042705 -0.06053511 -0.06064307 -0.06074957 -0.06085615 -0.0609638 -0.06107244 -0.06118275 -0.0612926 -0.06140137
 -0.06150801 -0.06161192 -0.06171449 -0.06181591 -0.06191646 -0.0620163 -0.06211293 -0.06220623 -0.06229449 -0.06237813
 -0.06246004 -0.06254114 -0.06262746 -0.06271939 -0.06282173 -0.06293337 -0.06305487 -0.06318358 -0.06331631 -0.06345021
 -0.063581 -0.06370811 -0.06382918 -0.06394685 -0.06406131 -0.06417672 -0.06429484 -0.06441645 -0.06454271 -0.06466916
 -0.06479552 -0.06491666 -0.06503198 -0.06514135 -0.06524481 -0.06534591 -0.06544477 -0.06554402 -0.0656435 -0.06574371
 -0.06584478 -0.06594741 -0.06605199 -0.06615983 -0.06627083 -0.06638555 -0.06650344 -0.06662425 -0.06674717 -0.06687164
 -0.06699679 -0.06712211 -0.06724681 -0.06737069 -0.06749263 -0.06761265 -0.06772812 -0.06783875 -0.06794229 -0.0680384
 -0.0681281 -0.06821148 -0.06829286 -0.0683726 -0.06845582 -0.06854286 -0.06863828 -0.06874183 -0.06885593 -0.06897831
 -0.06910606 -0.06923546 -0.06935932 -0.06947685 -0.06958313 -0.06968324 -0.06977867 -0.0698755 -0.0699781 -0.07008593
 -0.07020095 -0.0703158 -0.07042921 -0.07053571 -0.07063378 -0.07072582 -0.07081174 -0.07089764 -0.07098375 -0.0710716
 -0.07116085 -0.07124837 -0.07133428 -0.07141734 -0.07149847 -0.07158007 -0.07166263 -0.07174846 -0.07183747 -0.07193058
 -0.07202749 -0.07212852 -0.07223246 -0.07233886 -0.07244565 -0.07255153 -0.07265606 -0.07275879 -0.07285983 -0.07295965
 -0.07305519 -0.07314626 -0.07322852 -0.07330131 -0.07336621 -0.07342339 -0.07348181 -0.07354204 -0.07361329 -0.07369509
 -0.07379022 -0.07389669 -0.07400992 -0.07412761 -0.07424218 -0.07435348 -0.07445746 -0.07455644 -0.07465177 -0.07474421
 -0.07483549 -0.07492319 -0.07500603 -0.07508425 -0.07515636 -0.07522909 -0.07530342 -0.07538617 -0.07547895 -0.07558151
 -0.07569425 -0.0758113 -0.07593235 -0.07605138 -0.07616827 -0.07627923 -0.07638473 -0.07648472 -0.07658061 -0.07667633
 -0.07677417 -0.07688037 -0.07699796 -0.0771336 -0.0772908 -0.07747529 -0.07769039 -0.07793998 -0.07822649 -0.07855164
 -0.07891838 -0.0793281 -0.07978255 -0.08028366 -0.08082485 -0.08140749 -0.082009 -0.08262837 -0.08323499 -0.08382725
 -0.08438297 -0.08490179 -0.08537534 -0.08580042 -0.08616029 -0.08644217 -0.08659567 -0.08660926 -0.08641939 -0.08605625
 -0.08552219 -0.08489322 -0.08425127 -0.08364992 -0.08315867 -0.08278633 -0.08255517 -0.08245943 -0.08250367 -0.08267252
 -0.08297171 -0.08334038 -0.08377779 -0.08417446 -0.08451939 -0.08475599 -0.08488153 -0.08493887 -0.08493204 -0.08492135
 -0.08490595 -0.08491381 -0.08493766 -0.08496968 -0.08500001 -0.08500076 -0.08497133 -0.08489518 -0.0847846 -0.08464683
 -0.08449159 -0.0843298 -0.08416191 -0.08398917 -0.08381715 -0.08364581 -0.08348958 -0.0833521 -0.08324153 -0.08316077
 -0.08310394 -0.08307111 -0.08305151 -0.08304457 -0.08304277 -0.08304597 -0.08305085 -0.0830574 -0.08306365 -0.08306976
 -0.08307479 -0.0830797 -0.08308586 -0.08309499 -0.08311068 -0.08313312 -0.08316496 -0.08320244 -0.08324421 -0.08328503
 -0.08332126 -0.08335201 -0.08337508 -0.08339579 -0.08341449 -0.08343832 -0.08346852 -0.08350899 -0.08356046 -0.08362135
 -0.08369158 -0.08376522 -0.08384199 -0.08391646 -0.08398917 -0.0840603 -0.08413085 -0.08420496 -0.08428184 -0.08436265
 -0.08444382 -0.0845203 -0.08458918 -0.08464418 -0.08468746 -0.08471718 -0.08474069 -0.08476077 -0.08478484 -0.08481675
 -0.08485816 -0.08491093 -0.08497082 -0.08503769 -0.08510585 -0.08517467 -0.08524176 -0.08530699 -0.08537237 -0.08543802
 -0.08550653 -0.08557737 -0.08564915 -0.08572062 -0.08578636 -0.08584632 -0.08589683 -0.08594076 -0.08598052 -0.08601999
 -0.08606485 -0.08611618 -0.08617748 -0.08624582 -0.08632135 -0.0863984 -0.08647542 -0.08654659 -0.08660997 -0.0866633
 -0.08670524 -0.08674034 -0.08676855 -0.08679917 -0.08683275 -0.08687632 -0.08692969 -0.08699265 -0.08706401 -0.08713676
 -0.08720984 -0.08727526 -0.08733386 -0.08738293 -0.08742575 -0.08746599 -0.08750733 -0.08755574 -0.08761189 -0.08767914
 -0.08775398 -0.08783611 -0.08791994 -0.08800338 -0.08808276 -0.08815641 -0.08822464 -0.08828712 -0.08834583 -0.088401
 -0.08845302 -0.08850195 -0.08854757 -0.08859 -0.08863084 -0.08867029 -0.08871054 -0.08875138 -0.08879289 -0.0888355
 -0.08887984 -0.08892744 -0.08898158 -0.08904206 -0.08911117 -0.08918453 -0.08925979 -0.08933238 -0.089398 -0.08945873
 -0.08951321 -0.08956929 -0.08962893 -0.08969639 -0.08977363 -0.08985509 -0.08994078 -0.09002087 -0.09009477 -0.09015951
 -0.09021554 -0.09026929 -0.0903213 -0.09037867 -0.0904403 -0.0905061 -0.09057442 -0.09064081 -0.09070534 -0.09076566
 -0.09082364 -0.09088028 -0.09093783 -0.09099844 -0.09106337 -0.09113433 -0.09121016 -0.09129167 -0.09137387 -0.09145609
 -0.09153207 -0.09160041 -0.0916592 -0.09170767 -0.09175117 -0.09178997 -0.09183241 -0.09187863 -0.09193264 -0.09199346
 -0.09205719 -0.09212259 -0.09218261 -0.09223752 -0.09228367 -0.09232377 -0.09236025 -0.09239651 -0.09243756 -0.09248523
 -0.09254341 -0.09261017 -0.0926863 -0.09276673 -0.09284976 -0.09293167 -0.09301065 -0.0930878 -0.09316273 -0.09323917
 -0.09331758 -0.09339891 -0.09348323 -0.09356701 -0.09364996 -0.09372704 -0.09379839 -0.09386206 -0.09391911 -0.09397227
 -0.09402276 -0.09407522 -0.09412969 -0.09418863 -0.09425075 -0.09431532 -0.09438169 -0.09444888 -0.09451732 -0.09458709
 -0.09465822 -0.0947311 -0.09480404 -0.09487684 -0.09494729 -0.09501484 -0.09507904 -0.09513953 -0.09519952 -0.09525916
 -0.09532376 -0.09539339 -0.09547008 -0.09555306 -0.09563844 -0.09572524 -0.09580746 -0.09588521 -0.09595563 -0.09601972
 -0.09607758 -0.09613109 -0.09618191 -0.09623323 -0.09628829 -0.09634875 -0.09641754 -0.09649107 -0.0965694 -0.096646
 -0.09671868 -0.09678569 -0.09684546 -0.09690472 -0.0969637 -0.09703165 -0.09710917 -0.09719893 -0.09730043 -0.097406
 -0.0975145 -0.09761402 -0.09770502 -0.09778234 -0.09784876 -0.09790855 -0.09796434 -0.09802312 -0.09808487 -0.09815288
 -0.09822481 -0.09830017 -0.09837583 -0.09844976 -0.09852041 -0.09858605 -0.09864902 -0.09870901 -0.0987713 -0.09883677
 -0.09890907 -0.09898897 -0.09907503 -0.09916724 -0.09925991 -0.09935271 -0.09943956 -0.09952075 -0.09959472 -0.09966306
 -0.09973115 -0.09980031 -0.09987731 -0.09996087 -0.1000524 -0.1001487 -0.1002461 -0.1003424 -0.1004341 -0.1005213
 -0.1006026 -0.1006793 -0.1007511 -0.1008205 -0.100888 -0.1009551 -0.1010226 -0.101088 -0.1011515 -0.1012088
 -0.1012597 -0.1013047 -0.1013441 -0.1013829 -0.1014214 -0.1014636 -0.1015093 -0.1015594 -0.1016142 -0.1016745
 -0.1017402 -0.1018124 -0.10189 -0.1019726 -0.1020575 -0.1021426 -0.1022259 -0.1023052 -0.1023807 -0.1024516
 -0.1025198 -0.1025856 -0.1026499 -0.1027133 -0.1027738 -0.1028314 -0.102884 -0.1029315 -0.1029739 -0.1030114
 -0.103046 -0.1030779 -0.1031097 -0.1031419 -0.1031774 -0.1032163 -0.1032606 -0.1033093 -0.1033619 -0.103417
 -0.1034727 -0.1035293 -0.1035861 -0.1036451 -0.1037075 -0.1037733 -0.1038439 -0.1039145 -0.1039843 -0.1040476
 -0.1041028 -0.1041513 -0.1041926 -0.1042352 -0.1042796 -0.1043304 -0.1043874 -0.1044455 -0.1045042 -0.1045568
 -0.1046043 -0.1046472 -0.1046873 -0.1047295 -0.1047738 -0.1048228 -0.104875 -0.1049297 -0.1049845 -0.1050374
 -0.1050856 -0.1051266 -0.1051594 -0.1051821 -0.1051984 -0.1052085 -0.105219 -0.105231 -0.1052496 -0.1052754
 -0.1053097 -0.1053528 -0.1054022 -0.1054578 -0.105516 -0.1055767 -0.1056381 -0.1057005 -0.1057638 -0.1058273
 -0.1058893 -0.1059483 -0.1060008 -0.1060462 -0.1060824 -0.1061106 -0.1061308 -0.1061449 -0.1061536 -0.1061599
 -0.1061647 -0.1061727 -0.1061854 -0.1062054 -0.1062343 -0.1062686 -0.1063086 -0.1063458 -0.1063795 -0.1064038
 -0.1064186 -0.1064273 -0.1064307 -0.1064381 -0.1064495 -0.1064699 -0.1064971 -0.1065282 -0.1065614 -0.1065921
 -0.1066206 -0.1066459 -0.1066681 -0.1066875 -0.1067035 -0.1067151 -0.1067238 -0.1067293 -0.1067349 -0.1067416
 -0.1067507 -0.1067628 -0.106776 -0.1067901 -0.1068023 -0.1068124 -0.1068188 -0.1068216 -0.1068237 -0.1068256
 -0.1068343 -0.10685 -0.1068778 -0.1069152 -0.1069594 -0.1070049 -0.1070406 -0.1070629 -0.1070602 -0.1070384
 -0.1069963 -0.1069473 -0.1068999 -0.1068629 -0.1068442 -0.1068382 -0.1068461 -0.1068539 -0.1068583 -0.1068555
 -0.1068437 -0.1068318 -0.1068204 -0.1068166 -0.1068207 -0.1068333 -0.1068543 -0.1068843 -0.106922 -0.1069642
 -0.1070068 -0.1070359 -0.1070497 -0.107036 -0.1070011 -0.1069478 -0.1068837 -0.1068171 -0.1067525 -0.1066943
 -0.1066465 -0.1066118 -0.1065928 -0.1065923 -0.1066044 -0.1066301 -0.1066533 -0.1066723 -0.1066713 -0.1066486
 -0.1066033 -0.1065357 -0.106459 -0.1063742 -0.1062937 -0.1062161 -0.106142 -0.1060697 -0.1059937 -0.1059159
 -0.1058372 -0.1057608 -0.1056928 -0.1056311 -0.105577 -0.1055243 -0.1054687 -0.1054086 -0.1053415 -0.1052712
 -0.1051985 -0.1051258 -0.1050544 -0.1049803 -0.1049035 -0.1048172 -0.1047209 -0.1046153 -0.1045007 -0.1043878
 -0.1042763 -0.1041702 -0.1040657 -0.1039465 -0.1038106 -0.1036403 -0.1034431 -0.103225 -0.1029942 -0.1027659
 -0.1025396 -0.1023206 -0.1021051 -0.1018912 -0.10168 -0.1014709 -0.1012685 -0.1010741 -0.1008916 -0.1007227
 -0.1005647 -0.1004192 -0.1002656 -0.1001029 -0.09990205 -0.09966264 -0.09938684 -0.09907783 -0.0987651 -0.09844866
 -0.09814485 -0.09784959 -0.09755936 -0.09727062 -0.09697481 -0.09666971 -0.09634805 -0.09601111 -0.0956555 -0.09528954
 -0.09491807 -0.09454579 -0.09418029 -0.09380555 -0.09342039 -0.09300078 -0.09253893 -0.0920376 -0.09149474 -0.09092999
 -0.09034501 -0.08974444 -0.08912859 -0.08850086 -0.08786289 -0.08723259 -0.0866086 -0.08599776 -0.08538961 -0.08475742
 -0.08409118 -0.08335233 -0.08255179 -0.08168381 -0.08077434 -0.07984899 -0.07891751 -0.07799615 -0.07707949 -0.07616791
 -0.07525983 -0.07435433 -0.07345364 -0.07256176 -0.07165783 -0.07074476 -0.0697547 -0.06868253 -0.06747673 -0.066138
 -0.06474379 -0.06330165 -0.06191902 -0.06058417 -0.05929719 -0.05804255 -0.05677132 -0.05548232 -0.05415116 -0.05277869
 -0.0513649 -0.04988494 -0.04832771 -0.04663247 -0.04475695 -0.04265516 -0.04027187 -0.03768243 -0.03487635 -0.03203108
 -0.02918349 -0.02644213 -0.02383214 -0.02135367 -0.01901099 -0.01674758 -0.0145587 -0.01232378 -0.01002969 -0.007489688
 -0.004721047 -0.001676245 0.001553741 0.00469587 0.007731175 0.01045643 0.01297799 0.01536726 0.01770083 0.02009541
 0.02254373 0.02507694 0.02766954 0.03031055 0.03300761 0.03577096 0.03855823 0.04137067 0.04411945 0.04678683
 0.04937334 0.05187648 0.054336 0.05675115 0.05904425 0.06120668 0.06311581 0.06478455 0.06620841 0.06741373
 0.0684848 0.06942425 0.07028222 0.07104041 0.07168164 0.07222496 0.07267503 0.07307428 0.07345967 0.0738358
 0.07422308 0.07458068 0.07490344 0.07514227 0.07528722 0.07529869 0.07517035 0.07487265 0.07440029 0.07378325
 0.07302444 0.07222828 0.07139562 0.07057852 0.06976438 0.06891485 0.06802421 0.0670478 0.0660034 0.06489848
 0.06377233 0.06268696 0.06166471 0.06075892 0.05995142 0.05924522 0.05862259 0.05806846 0.05760127 0.05722241
 0.05695525 0.05680991 0.05677063 0.05683847 0.05698133 0.05719626 0.05746866 0.05779799 0.05818782 0.05863875
 0.05915852 0.05974608 0.06040099 0.06112036 0.06189453 0.06272235 0.06359565 0.06451722 0.06548672 0.0665096
 0.06759001 0.06873592 0.06995316 0.0712504 0.07263327 0.07410645 0.07567137 0.07733625 0.07910237 0.08098098
 0.08297746 0.08506736 0.08725191 0.0894566 0.09167752 0.09384461 0.09595539 0.09796654 0.09986701 0.1015786
 0.1030873 0.1042952 0.1052253 0.1058712 0.1062799 0.1065194 0.1066204 0.10664 0.1065915 0.1065046
 0.1063715 0.1062086 0.1059541 0.1056071 0.1050425 0.1042231 0.1031161 0.1016863 0.1001664 0.09857532
 0.09704912 0.09559239 0.09409527 0.09255419 0.09089063 0.08911764 0.08726639 0.08534484 0.08341245 0.08142881
 0.07936604 0.07710613 0.07444902 0.07134211 0.06755769 0.06339978 0.05900273 0.05465345 0.05060095 0.04670945
 0.04298513 0.03928788 0.03555706 0.03188881 0.02828207 0.02488618 0.02172011 0.01877254 0.01604231 0.01341279
 0.01088182 0.008384912 0.005932336 0.003547468 0.001236305 -0.0009644525 -0.003066598 -0.005076464 -0.007010706 -0.008898092
 -0.01074743 -0.01257348 -0.01439621 -0.01621866 -0.01810942 -0.02009864 -0.02225393 -0.02464967 -0.02710997 -0.02964024
 -0.03189375 -0.03379178 -0.03535697 -0.03657231 -0.03770096 -0.03875535 -0.0398884 -0.04109259 -0.04233275 -0.04359282
 -0.04475996 -0.04584495 -0.04682478 -0.04771752 -0.04856546 -0.04934607 -0.05005235 -0.05063523 -0.05103125 -0.05123329
 -0.05120564 -0.05098956 -0.05059499 -0.05006184 -0.049407 -0.04865007 -0.0478018 -0.04685233 -0.04580622 -0.04461182
 -0.04326372 -0.04173638 -0.04002949 -0.03827643 -0.03649004 -0.03486968 -0.03340773 -0.03216512 -0.03112254 -0.0302447
 -0.02952513 -0.02893569 -0.02846805 -0.0281078 -0.02781935 -0.02757067 -0.02729929 -0.02694391 -0.02648235 -0.02586398
 -0.02517868 -0.02444443 -0.02374336 -0.02310848 -0.02252462 -0.02199741 -0.02147771 -0.02096136 -0.0204164 -0.01984112
 -0.01923666 -0.01860416 -0.01796 -0.01730146 -0.01662502 -0.01592028 -0.0151501 -0.01430611 -0.01334519 -0.01227941
 -0.01110714 -0.009846112 -0.008522676 -0.007125056 -0.005655381 -0.004092589 -0.002418787 -0.0006496892 0.001219794 0.003143203
 0.005108655 0.007094352 0.009091537 0.01112323 0.01319181 0.01530427 0.01746074 0.01957187 0.02162885 0.02349432
 0.0251685 0.02658363 0.02774536 0.02864311 0.02926828 0.0295982 0.02961801 0.02928846 0.02861668 0.02758639
 0.02623643 0.02458519 0.02268201 0.02055702 0.01824128 0.01575172 0.01310445 0.01029721 0.007388171 0.0043755
 0.001388163 -0.001562141 -0.004378947 -0.007056589 -0.009618144 -0.01206795 -0.01447348 -0.01682851 -0.01913387 -0.02137241
 -0.02347898 -0.02545406 -0.02725915 -0.02892048 -0.03046151 -0.03190942 -0.03330478 -0.03466043 -0.03600076 -0.03732421
 -0.03863929 -0.03992964 -0.04119351 -0.04240739 -0.04356362 -0.04465609 -0.04567994 -0.0466568 -0.04758806 -0.04849518
 -0.04937944 -0.05022457 -0.05102743 -0.05174045 -0.05236346 -0.05286829 -0.05326368 -0.05356491 -0.05378169 -0.05394452
 -0.05405821 -0.05414394 -0.0542031 -0.05424545 -0.05426991 -0.05427748 -0.0542708 -0.05424771 -0.05422473 -0.05420398
 -0.05421289 -0.05425826 -0.05436007 -0.05452419 -0.05474834 -0.05503406 -0.05536032 -0.05572602 -0.0561106 -0.05651377
 -0.05692839 -0.05735395 -0.05778548 -0.05821873 -0.05863622 -0.05903308 -0.05938747 -0.05970083 -0.05996459 -0.06018513
 -0.06036709 -0.0605136 -0.060629 -0.06071356 -0.06076733 -0.06079448 -0.06079516 -0.0607786 -0.06074631 -0.06070893
 -0.06066765 -0.06063498 -0.06061203 -0.06061059 -0.06063143 -0.0606793 -0.06075395 -0.06085283 -0.06097521 -0.06111602
 -0.06127398 -0.06144235 -0.06161918 -0.06179598 -0.06197276 -0.06214485 -0.06231542 -0.06248622 -0.06266034 -0.06284179
 -0.063029 -0.06322312 -0.06341885 -0.06361463 -0.06380584 -0.06399072 -0.06416841 -0.06433827 -0.06450211 -0.0646601
 -0.06481239 -0.064959 -0.06509712 -0.06522657 -0.06534452 -0.06545094 -0.06554459 -0.06562487 -0.06568938 -0.06573649
 -0.06576116 -0.06576201 -0.0657338 -0.06567797 -0.06559291 -0.06548411 -0.06535462 -0.06521124 -0.06505892 -0.06490025
 -0.06473798 -0.06456979 -0.06439521 -0.06421395 -0.06402513 -0.06383454 -0.06364261 -0.06345469 -0.06327116 -0.06309218
 -0.0629177 -0.0627465 -0.06257889 -0.06241619 -0.06225924 -0.06211131 -0.06197429 -0.06185362 -0.06175282 -0.06167991
 -0.0616382 -0.0616357 -0.06167107 -0.06174759 -0.06185745 -0.06199851 -0.06215983 -0.06233695 -0.06252199 -0.06271154
 -0.06290454 -0.06309996 -0.06330108 -0.06350813 -0.06372394 -0.06394871 -0.06418294 -0.0644266 -0.06467915 -0.06494048
 -0.06520975 -0.0654866 -0.06576964 -0.06605779 -0.0663483 -0.06663851 -0.06692272 -0.06719864 -0.06746074 -0.06770942
 -0.06794319 -0.06816299 -0.06836975 -0.0685613 -0.06873661 -0.06889543 -0.06903563 -0.06916755 -0.06929148 -0.06942417
 -0.0695677 -0.06973013 -0.06991225 -0.07010553 -0.0703088 -0.07050227 -0.07068449 -0.07083547 -0.07095592 -0.07103715
 -0.07108243 -0.07109581 -0.07107959 -0.0710405 -0.07097725 -0.07089093 -0.07078005 -0.07064372 -0.0704807 -0.07029179
 -0.07006963 -0.06981367 -0.06950903 -0.06915173 -0.06873133 -0.06824375 -0.06769512 -0.06708421 -0.06643447 -0.06574713
 -0.06505079 -0.06434628 -0.06364981 -0.06295961 -0.06227156 -0.06158361 -0.0608845 -0.06017603 -0.0594568 -0.05873004
 -0.05800188 -0.05727148 -0.05654055 -0.0558068 -0.05506697 -0.05432583 -0.05358276 -0.05285077 -0.05213363 -0.05144566
 -0.05079138 -0.05017979 -0.04961382 -0.04909356 -0.04862004 -0.04818403 -0.04778519 -0.0474064 -0.04704631 -0.04668166
 -0.04631057 -0.04590857 -0.04547505 -0.04499386 -0.04446711 -0.04389134 -0.04327065 -0.04260973 -0.04191439 -0.04119234
 -0.04045145 -0.03969987 -0.03894619 -0.03819647 -0.03745982 -0.03673951 -0.03604829 -0.03538937 -0.03477551 -0.03421007
 -0.03369655 -0.03323624 -0.0328241 -0.03245994 -0.0321376 -0.03185664 -0.03160946 -0.03139549 -0.03120614 -0.03104275
 -0.03090593 -0.03079793 -0.03072687 -0.0306895 -0.0306854 -0.03070655 -0.03074289 -0.03078829 -0.03083545 -0.03087663
 -0.030908 -0.03091479 -0.03089074 -0.03082391 -0.03070881 -0.03054449 -0.0303297 -0.03006677 -0.02975556 -0.02940023
 -0.0290008 -0.02857006 -0.02810878 -0.0276315 -0.02713836 -0.02663623 -0.0261261 -0.02561431 -0.02510487 -0.02461081
 -0.02413746 -0.02369904 -0.0233027 -0.02296125 -0.02268481 -0.02248723 -0.02237206 -0.02234871 -0.02240479 -0.02253984
 -0.02273322 -0.02297983 -0.02326243 -0.02357788 -0.02391065 -0.02425938 -0.02460589 -0.02494903 -0.02527005 -0.02556818
 -0.02582966 -0.02605549 -0.02624561 -0.02640321 -0.0265428 -0.02666425 -0.02677719 -0.02687386 -0.0269437 -0.02698215
 -0.02697431 -0.02693287 -0.02686033 -0.02677959 -0.02670533 -0.02665236 -0.0266313 -0.02664491 -0.02669639 -0.02678329
 -0.02690548 -0.02706153 -0.02725062 -0.02747885 -0.02774641 -0.02806505 -0.02843492 -0.02885772 -0.02933176 -0.02984477
 -0.03039586 -0.03097478 -0.03158201 -0.03221492 -0.03287105 -0.033545 -0.0342337 -0.03492929 -0.03563514 -0.03635011
 -0.03708242 -0.03783634 -0.03861915 -0.03943433 -0.04028864 -0.041185 -0.04212588 -0.04311384 -0.04413847 -0.04519979
 -0.04627931 -0.04737584 -0.04847446 -0.04957442 -0.05066333 -0.05173995 -0.05278893 -0.0538093 -0.05478827 -0.05572651
 -0.05661925 -0.05746779 -0.05827213 -0.05903403 -0.05975558 -0.06043864 -0.06108603 -0.06169751 -0.06227384 -0.06281392
 -0.06331635 -0.06378499 -0.0642197 -0.06462864 -0.06501322 -0.06537981 -0.06572946 -0.06606486 -0.06638642 -0.0666914
 -0.06697939 -0.06724089 -0.06747577 -0.06767741 -0.06784838 -0.06799605 -0.06812359 -0.06824467 -0.06835848 -0.06847025
 -0.06857704 -0.06867656 -0.06876793 -0.06884938 -0.06892111 -0.06898257 -0.06903475 -0.06907694 -0.06911417 -0.06914741
 -0.06918205 -0.06921974 -0.06926072 -0.06930552 -0.06935084 -0.06939659 -0.06943733 -0.0694726 -0.06949222 -0.06949573
 -0.06947433 -0.06942935 -0.06936198 -0.0692736 -0.06916945 -0.06904829 -0.06890973 -0.06875357 -0.06857773 -0.06838725
 -0.06818555 -0.0679782 -0.06777065 -0.06756274 -0.06735682 -0.0671472 -0.06693317 -0.06670769 -0.06646848 -0.06621583
 -0.06594807 -0.06568087 -0.06541491 -0.0651724 -0.06495405 -0.06476822 -0.06461353 -0.0644816 -0.06437134 -0.06427323
 -0.06418765 -0.06411144 -0.06404383 -0.06398249 -0.06392499 -0.06386732 -0.06380708 -0.06374089 -0.06366657 -0.06358211
 -0.06348509 -0.06337465 -0.06324667 -0.06310041 -0.06292984 -0.062733 -0.06250988 -0.06225895 -0.06199436 -0.06171684
 -0.06144331 -0.06117412 -0.06090903 -0.06064634 -0.06037088 -0.06008217 -0.05976925 -0.05943458 -0.05907926 -0.05870663
 -0.05832345 -0.05793278 -0.05754131 -0.05715147 -0.05676753 -0.05639178 -0.05602645 -0.05567439 -0.05533766 -0.05501679
 -0.05471361 -0.05442154 -0.05413979 -0.05386162 -0.05358522 -0.05331501 -0.05305104 -0.05280163 -0.05256683 -0.05234179
 -0.05212521 -0.05190268 -0.05167479 -0.05143638 -0.05118969 -0.05093989 -0.0506856 -0.05042748 -0.05016107 -0.04987901
 -0.04958222 -0.04926664 -0.04894145 -0.04861115 -0.04828378 -0.0479656 -0.04765485 -0.04735325 -0.04705328 -0.04675366
 -0.04644913 -0.0461387 -0.0458206 -0.04549447 -0.04516214 -0.04482385 -0.0444876 -0.04415387 -0.04383161 -0.04351884
 -0.04321193 -0.04290631 -0.04258543 -0.04224854 -0.04188322 -0.04149859 -0.0411 -0.0407021 -0.04032211 -0.03996633
 -0.03964831 -0.03935462 -0.03908569 -0.0388165 -0.03853824 -0.03823931 -0.03791295 -0.03757269 -0.03721849 -0.03687128
 -0.03653291 -0.03621304 -0.03591194 -0.03562756 -0.03535847 -0.03509189 -0.03482473 -0.0345341 -0.03422064 -0.03387053
 -0.03349482 -0.03310768 -0.03272332 -0.03237047 -0.03205045 -0.03177884 -0.0315407 -0.03133345 -0.0311345 -0.03093413
 -0.03071195 -0.03045803 -0.03016799 -0.02983587 -0.02948278 -0.02910886 -0.02874888 -0.02840583 -0.02809985 -0.02783135
 -0.0275894 -0.02737116 -0.02714458 -0.02690894 -0.02664158 -0.02634856 -0.02603629 -0.02571152 -0.02539369 -0.02508024
 -0.02477628 -0.02447615 -0.02417287 -0.02387242 -0.02357516 -0.02329207 -0.0230311 -0.02278832 -0.02256638 -0.02234945
 -0.02213429 -0.02191159 -0.02167886 -0.02143825 -0.02118935 -0.02094229 -0.02069771 -0.02047064 -0.02026143 -0.02008018
 -0.01992513 -0.01979362 -0.01968225 -0.01958081 -0.01948305 -0.01937306 -0.01924144 -0.01906533 -0.01884624 -0.01857133
 -0.01826363 -0.01793423 -0.01760408 -0.01729084 -0.01698603 -0.01669191 -0.01639182 -0.01607895 -0.01576447 -0.01544706
 -0.01515577 -0.0148934 -0.01467095 -0.01448852 -0.01432685 -0.01418328 -0.01402348 -0.01384695 -0.01363146 -0.01338198
 -0.01310283 -0.01279788 -0.01247943 -0.01214393 -0.01178973 -0.01141781 -0.01102477 -0.01062385 -0.01022427 -0.009832167
 -0.009455724 -0.009085322 -0.008717937 -0.008353055 -0.007987882 -0.007637179 -0.007303722 -0.006988599 -0.006692889 -0.006400806
 -0.006111666 -0.005817449 -0.005518329 -0.005213533 -0.004903004 -0.004584517 -0.004260473 -0.003936958 -0.003617147 -0.003312872
 -0.003020485 -0.00273878 -0.002466436 -0.002196405 -0.001944957 -0.001719228 -0.0015394 -0.001420857 -0.001360637 -0.001365404
 -0.001408823 -0.001489178 -0.001569325 -0.001645381 -0.001677835 -0.001662523 -0.001580917 -0.001432401 -0.00123601 -0.0009940077
 -0.0007375316 -0.0004666408 -0.0001974172 7.117381E-05 0.0003331605 0.0005913585 0.0008480272 0.00110782 0.001381753 0.001664015
 0.001954083 0.002241744 0.002511869 0.00278453 0.00305804 0.003380576 0.003778127 0.004234965 0.004764612 0.005269606
 0.005733344 0.00612619 0.006441859 0.006708763 0.006928056 0.007114153 0.007268248 0.007407363 0.00753396 0.007675332
 0.007823374 0.007969103 0.00809629 0.0081597 0.008162014 0.008081854 0.00794298 0.007763263 0.007559459 0.00735101
 0.007140768 0.006934161 0.006733626 0.00653925 0.006360324 0.006196388 0.006069439 0.005982012 0.005956218 0.00599612
 0.006084329 0.006219671 0.006343303 0.006453057 0.006504104 0.006500237 0.006438435 0.006324302 0.006171731 0.005990503
 0.005804711 0.005632093 0.005516886 0.005451494 0.005460389 0.005481871 0.005480282 0.005402667 0.005199573 0.004896103
 0.004480371 0.004026353 0.00354584 0.003109926 0.002731335 0.002450948 0.00227625 0.002186327 0.00218009 0.002199144
 0.002243524 0.002295116 0.0023598 0.002463774 0.002606005 0.002797833 0.003032312 0.003298678 0.003593033 0.003907228
 0.004232154 0.004557989 0.004868972 0.005149557 0.00539273 0.005588956 0.005743666 0.005853222 0.005938869 0.005999252
 0.006083975 0.006200388 0.006385031 0.006646392 0.006934063 0.00724539 0.007476727 0.007627684 0.007660441 0.007587007
 0.007456701 0.007277833 0.007104838 0.006937787 0.00680195 0.006698063 0.006640459 0.006622485 0.006643563 0.006693482
 0.006759927 0.00685166 0.006971041 0.007122367 0.007316485 0.007514009 0.007710303 0.007859037 0.007948878 0.007980793
 0.007952271 0.007892403 0.007802668 0.007708095 0.007610332 0.007537064 0.007488675 0.007484514 0.007518499 0.007579391
 0.007662306 0.007748134 0.007840867 0.007939551 0.008045743 0.008162856 0.008285335 0.008412501 0.008531652 0.008643061
 0.008710397 0.008723678 0.008643679 0.008450231 0.008171489 0.007801117 0.007431342 0.007071125 0.006774134 0.006543649
 0.006347219 0.006181747 0.005997611 0.005796456 0.00556271 0.00530112 0.005016417 0.004719834 0.004435617 0.004182557
 0.004005733 0.00390524 0.003908268 0.003978868 0.004104064 0.004234786 0.004341125 0.004394455 0.004371833 0.004287927
 0.004135943 0.003968036 0.00379154 0.003643503 0.003530385 0.003439277 0.003369742</values></Ydata></AB><ScSm><Ydata ylabel="Single channel"><values byteorder="INTEL" format="FLOAT32" numvalues="1814"> 0.07374719 0.07375038 0.07381552 0.07396168 0.07416044 0.07435338 0.07449187 0.07456497 0.07458409 0.07455242
 0.07447999 0.07442483 0.07447207 0.07464983 0.07488555 0.07505646 0.07508487 0.07500597 0.07494867 0.07501204
 0.07513326 0.07510619 0.07477294 0.07420185 0.07364599 0.07331339 0.0732369 0.07341361 0.07392663 0.07470866
 0.07527882 0.07508586 0.07419939 0.07333599 0.07306501 0.07326418 0.0734555 0.0733557 0.07296345 0.07245447
 0.07223157 0.07281308 0.07432213 0.07606995 0.07680656 0.07551022 0.07211691 0.06775041 0.06430869 0.0634461
 0.06540444 0.06868067 0.07115545 0.07178245 0.071086 0.07009052 0.06922692 0.06846169 0.06799319 0.06828363
 0.06941237 0.07064865 0.07082728 0.06933992 0.06686363 0.06488693 0.06435752 0.06508809 0.06654714 0.06843203
 0.06986058 0.06892227 0.06456511 0.0589624 0.056529 0.05971897 0.06640634 0.07197313 0.07341702 0.07100862
 0.06692574 0.06345667 0.06215718 0.06342894 0.06643446 0.06979711 0.07244271 0.07364531 0.07283901 0.07011369
 0.06669727 0.06435424 0.06429905 0.06672589 0.07077195 0.07459323 0.0762044 0.0749495 0.0719343 0.0688547
 0.06688561 0.06669629 0.06860773 0.07224517 0.07652591 0.08030072 0.08282913 0.08383585 0.08354972 0.08255932
 0.08137032 0.08033834 0.07999132 0.08069384 0.08179453 0.08188267 0.08033101 0.0781333 0.07687622 0.07709748
 0.07786053 0.07789433 0.07687955 0.07522245 0.07278521 0.06888416 0.06384981 0.05942108 0.05700037 0.05659451
 0.05786447 0.06066456 0.06380891 0.06500331 0.06336232 0.06100293 0.06092979 0.06382532 0.06771186 0.0703736
 0.07140553 0.07203905 0.0735556 0.07597569 0.07790698 0.07759559 0.07466706 0.07109299 0.069793 0.07177076
 0.07515442 0.07749908 0.07836081 0.07901385 0.08022875 0.08108135 0.07991567 0.07630882 0.07212991 0.07038652
 0.07260374 0.07729593 0.08104324 0.08102034 0.07689745 0.07092021 0.06616204 0.06439645 0.06561193 0.06917552
 0.07452546 0.0805765 0.08544485 0.08749972 0.08655061 0.08374657 0.0802701 0.07624964 0.07138495 0.06675828
 0.06504713 0.06798541 0.07413736 0.08009691 0.08352648 0.08431573 0.08324683 0.08054493 0.07610188 0.07087666
 0.06735212 0.06760421 0.07080272 0.073689 0.07399403 0.0725017 0.07135695 0.07138114 0.07178187 0.07181761
 0.07185274 0.07274432 0.07462762 0.07660428 0.07761844 0.07741645 0.07658131 0.07584633 0.07543187 0.07489453
 0.07375678 0.07246905 0.07234912 0.07413559 0.07696667 0.07926799 0.08033016 0.08055383 0.08039516 0.07957562
 0.07749677 0.07437423 0.07169341 0.07110454 0.07282394 0.07550481 0.07764108 0.07864723 0.07870075 0.0781935
 0.07747053 0.07672109 0.07603684 0.07565306 0.07588507 0.07667509 0.07749875 0.0778935 0.07783382 0.07749069
 0.07690355 0.07605137 0.07508835 0.07434642 0.07409503 0.07433547 0.0748468 0.07538668 0.07577483 0.0758483
 0.07551978 0.0749088 0.07427013 0.07376215 0.073395 0.07318564 0.07320508 0.07343927 0.07372534 0.07388476
 0.07386209 0.07370561 0.07346822 0.07316796 0.07282108 0.07248285 0.07224644 0.07217975 0.07224382 0.07231341
 0.072319 0.07231876 0.07237059 0.07239521 0.07225911 0.07195878 0.07163482 0.07141706 0.07132062 0.07128112
 0.07122571 0.07108887 0.07080796 0.07037509 0.06991148 0.06962662 0.06965093 0.06993551 0.0703304 0.0706991
 0.07094294 0.07101072 0.07093728 0.07081251 0.07067844 0.07050031 0.0702513 0.06998806 0.0698299 0.069868
 0.07008229 0.07035042 0.07054932 0.07063357 0.070623 0.07057041 0.07054797 0.07059418 0.07065405 0.0706308
 0.07051191 0.07039364 0.07036918 0.07042862 0.07047917 0.07044835 0.07036087 0.07030962 0.07035272 0.07045946
 0.07056263 0.0706347 0.07069714 0.07077114 0.07083231 0.07082106 0.07071102 0.07055801 0.07045002 0.07041481
 0.07041468 0.07042488 0.07046814 0.07056257 0.07067448 0.07074558 0.07075465 0.07073558 0.07072955 0.07073125
 0.07069881 0.07061364 0.07050866 0.07043301 0.07040575 0.07040857 0.07041 0.07038929 0.07034193 0.07027069
 0.0701789 0.07007205 0.06995752 0.06984417 0.06975138 0.06971046 0.06973379 0.06977993 0.06977203 0.06966594
 0.06949541 0.06934083 0.06925219 0.06920886 0.06915684 0.06907326 0.06898084 0.06890918 0.06886414 0.06883463
 0.06880903 0.06878123 0.06875926 0.06877428 0.06886292 0.06902359 0.06919808 0.06931492 0.06935467 0.06936176
 0.06939229 0.06946429 0.06955935 0.06965741 0.06976146 0.06989073 0.07004763 0.07019711 0.07029811 0.07035711
 0.07042698 0.07054947 0.0707233 0.07092642 0.07113536 0.07131968 0.07145464 0.07155259 0.07165596 0.07178923
 0.07193798 0.0720819 0.07222652 0.07239066 0.07257842 0.0727804 0.0729969 0.0732441 0.07353333 0.07385039
 0.074158 0.07441957 0.07462995 0.0748287 0.07507497 0.07539781 0.07577084 0.07613914 0.07646866 0.07676782
 0.07706454 0.07736866 0.07766633 0.07795416 0.07826279 0.07862765 0.07904421 0.07947283 0.07988271 0.08027227
 0.0806527 0.0810322 0.08141649 0.08181034 0.08221672 0.08263592 0.08305879 0.08346184 0.08382387 0.08415075
 0.08447438 0.08482625 0.08521565 0.08562255 0.0860007 0.08630644 0.08654718 0.0867897 0.08709481 0.08745051
 0.08779526 0.08810142 0.08840387 0.08874162 0.08910234 0.08944382 0.08975147 0.09005278 0.0903777 0.0907189
 0.09103332 0.09128129 0.09146565 0.09163074 0.09182079 0.09205011 0.09231959 0.09264021 0.09301291 0.09339841
 0.09373908 0.09400953 0.0942256 0.09441403 0.09459746 0.09479687 0.09502102 0.09525737 0.09548788 0.09570211
 0.0958896 0.09604579 0.09619752 0.09639303 0.09665087 0.09694488 0.09725252 0.09758557 0.09795384 0.0983298
 0.09868363 0.09903595 0.09943491 0.09987852 0.1002947 0.1006147 0.1008384 0.1010117 0.1011699 0.1013382
 0.1015603 0.1018775 0.102281 0.1027149 0.1031301 0.1035134 0.1038702 0.1042017 0.1045005 0.1047559
 0.1049589 0.1051121 0.1052382 0.1053756 0.10556 0.1057993 0.1060611 0.1062936 0.1064603 0.1065481
 0.1065457 0.1064406 0.1062533 0.1060492 0.1058841 0.1057385 0.1055276 0.1051768 0.1046695 0.1040286
 0.1032774 0.102434 0.1015329 0.1006404 0.09984329 0.09921898 0.09881517 0.0986599 0.09877867 0.09917741
 0.09980085 0.1005251 0.1012026 0.1017069 0.1019393 0.1018329 0.1013826 0.1006619 0.09978743 0.09886321
 0.0979574 0.09710317 0.09630062 0.0955369 0.09483626 0.09429299 0.09404533 0.09422572 0.09493981 0.09625477
 0.09814967 0.1004579 0.1028898 0.1051552 0.1070901 0.108684 0.1100162 0.1111834 0.1122619 0.1132881
 0.1142536 0.1151319 0.1159173 0.1166276 0.1172761 0.1178557 0.118348 0.1187356 0.1190112 0.1191906
 0.1193097 0.1194041 0.1194952 0.1195997 0.1197307 0.1198755 0.1199793 0.1199646 0.119767 0.1193631
 0.1187833 0.1181249 0.117575 0.1174202 0.1179733 0.1194024 0.1215845 0.124139 0.1266338 0.1287793
 0.1304764 0.1317603 0.132732 0.1335104 0.1341912 0.1348259 0.1354291 0.1359994 0.1365352 0.1370414
 0.1375291 0.1380097 0.1384914 0.1389773 0.1394603 0.1399226 0.1403536 0.1407676 0.1411974 0.1416632
 0.1421521 0.1426323 0.1430894 0.1435399 0.1440023 0.1444639 0.1448909 0.1452696 0.1456222 0.1459852
 0.1463849 0.1468267 0.1472883 0.1477264 0.1481077 0.1484382 0.1487532 0.1490819 0.149429 0.1497848
 0.1501398 0.1504864 0.1508209 0.1511525 0.1515011 0.151877 0.1522604 0.152613 0.1529146 0.1531826
 0.153453 0.1537464 0.1540555 0.1543618 0.1546614 0.1549742 0.1553224 0.1557027 0.1560831 0.1564303
 0.1567369 0.1570221 0.1573125 0.1576226 0.1579502 0.1582851 0.1586207 0.1589554 0.159287 0.159613
 0.1599364 0.1602646 0.1605993 0.1609297 0.1612436 0.1615424 0.161842 0.1621567 0.1624891 0.1628375
 0.1632035 0.1635846 0.1639616 0.1643072 0.1646083 0.1648761 0.1651335 0.1653981 0.1656764 0.1659677
 0.1662688 0.1665758 0.166885 0.1671936 0.1675012 0.1678096 0.1681198 0.1684326 0.1687485 0.1690671
 0.1693882 0.1697142 0.1700489 0.17039 0.1707269 0.1710493 0.1713565 0.1716555 0.1719552 0.1722608
 0.1725722 0.172886 0.1732004 0.1735151 0.1738279 0.1741361 0.17444 0.1747431 0.1750487 0.1753595
 0.1756787 0.1760038 0.1763256 0.1766361 0.1769383 0.1772433 0.177559 0.1778831 0.1782074 0.1785279
 0.1788457 0.1791619 0.1794759 0.1797898 0.1801074 0.1804289 0.1807501 0.1810681 0.1813839 0.1817006
 0.1820186 0.1823331 0.1826374 0.1829325 0.1832275 0.183529 0.1838358 0.1841448 0.1844558 0.18477
 0.1850909 0.1854224 0.1857607 0.1860949 0.1864191 0.1867381 0.1870595 0.1873868 0.1877197 0.1880556
 0.1883918 0.1887288 0.1890681 0.1894077 0.1897407 0.190059 0.1903583 0.1906441 0.1909319 0.1912342
 0.1915521 0.1918806 0.192214 0.1925429 0.1928592 0.193166 0.1934719 0.193781 0.1940955 0.1944191
 0.1947506 0.1950838 0.195416 0.1957485 0.1960809 0.1964148 0.196753 0.1970915 0.1974231 0.1977488
 0.1980754 0.1984056 0.1987417 0.1990869 0.1994368 0.1997823 0.2001221 0.200461 0.2007998 0.2011373
 0.2014724 0.2018026 0.2021287 0.2024587 0.202795 0.2031291 0.203456 0.2037788 0.2040992 0.2044202
 0.2047514 0.2050954 0.2054422 0.2057872 0.2061336 0.2064762 0.2068064 0.2071297 0.207457 0.2077906
 0.2081305 0.2084755 0.2088158 0.2091462 0.2094769 0.209813 0.2101446 0.2104682 0.2107884 0.211091
 0.2113247 0.2113583 0.210867 0.2092076 0.2054041 0.1983396 0.1871927 0.1719491 0.1535884 0.1337389
 0.1140746 0.09587702 0.07991038 0.06652176 0.05580371 0.04769747 0.04205654 0.03875308 0.03779004 0.03942446
 0.04430906 0.05310643 0.06501496 0.07646716 0.08252306 0.08077129 0.07363261 0.06615108 0.06180657 0.06084099
 0.06176499 0.06330861 0.06507337 0.06729771 0.07038134 0.07442737 0.07923021 0.08477687 0.0914873 0.09967893
 0.108927 0.1182436 0.1269304 0.1351228 0.143457 0.1522977 0.1613562 0.1699777 0.1776644 0.1843216
 0.1901532 0.1954332 0.2003531 0.2050071 0.2094471 0.2136757 0.2175486 0.2207376 0.2228894 0.2238935
 0.2240113 0.2237305 0.2234744 0.2234327 0.223616 0.22399 0.2245334 0.2252295 0.2260612 0.2270074
 0.2280311 0.2290858 0.2301357 0.2311595 0.2321388 0.2330575 0.2339061 0.2346837 0.2353981 0.2360643
 0.236693 0.2372827 0.2378279 0.2383298 0.2387982 0.2392513 0.2397078 0.2401689 0.240614 0.2410207
 0.2413852 0.2417203 0.242044 0.24237 0.2427008 0.2430298 0.2433527 0.2436711 0.2439855 0.2442953
 0.2446037 0.2449142 0.2452252 0.2455343 0.2458437 0.2461529 0.2464565 0.2467532 0.2470499 0.2473524
 0.2476615 0.2479761 0.2482925 0.2486014 0.2488969 0.2491857 0.2494813 0.249792 0.2501156 0.2504413
 0.250762 0.2510849 0.2514209 0.251767 0.2521077 0.2524352 0.2527557 0.2530788 0.2534125 0.2537569
 0.2540929 0.2543896 0.2546381 0.2548702 0.2551365 0.2554641 0.2558352 0.2562059 0.2565478 0.2568672
 0.2571814 0.2574942 0.2577989 0.2580926 0.2583825 0.2586904 0.2590395 0.2594248 0.2598141 0.2601908
 0.2605669 0.260948 0.2613225 0.261689 0.2620533 0.2623958 0.2626847 0.2629324 0.2632127 0.2636031
 0.2641065 0.2646363 0.2650971 0.2654752 0.2658285 0.2662107 0.2666346 0.2670636 0.2673987 0.2675447
 0.2675641 0.2676957 0.2681376 0.2688517 0.269631 0.2703065 0.2708439 0.2712927 0.2716994 0.2720579
 0.2723176 0.2724463 0.2725116 0.2726917 0.2731492 0.2738595 0.274615 0.2752343 0.2757014 0.2760836
 0.2764243 0.276742 0.2769905 0.276997 0.2766423 0.2761752 0.276145 0.2768711 0.2780858 0.2792225
 0.2799777 0.2804663 0.2809018 0.2813313 0.2816983 0.2818933 0.2816281 0.2806 0.2790835 0.2780936
 0.2785471 0.2803381 0.2825101 0.2842103 0.285229 0.285787 0.2861607 0.2864957 0.2867007 0.2864645
 0.2856055 0.2845242 0.2840961 0.2848645 0.2864324 0.2878877 0.2887305 0.2891318 0.2894514 0.2898358
 0.290117 0.2897537 0.2881395 0.2855034 0.2833616 0.2834475 0.2860133 0.2895249 0.2921835 0.293472
 0.2940013 0.2941821 0.293621 0.2918267 0.288938 0.2856601 0.2830659 0.2824627 0.2845174 0.288164
 0.2912146 0.2925228 0.2929462 0.2939107 0.2957029 0.2974821 0.2983809 0.2981773 0.2971382 0.2955399
 0.2935379 0.2916248 0.290902 0.2922964 0.2954347 0.298777 0.3010443 0.3021902 0.3027262 0.3022196
 0.298997 0.2921608 0.284101 0.2798223 0.2825151 0.2902156 0.2979216 0.302511 0.3044317 0.3053419
 0.3059015 0.305595 0.3030038 0.2965671 0.2870316 0.279004 0.2778319 0.2843046 0.2937577 0.3004312
 0.3014138 0.2969574 0.2894111 0.2824935 0.2797765 0.2825322 0.2891909 0.296886 0.3031612 0.306634
 0.3069906 0.304859 0.3017446 0.2996518 0.2996384 0.3002386 0.2985736 0.2939974 0.2891924 0.2862223
 0.2833136 0.2781059 0.2728311 0.2728102 0.2795475 0.2882325 0.293158 0.293498 0.2922456 0.2907522
 0.2863922 0.2763388 0.262929 0.2537077 0.2548164 0.2646319 0.2752362 0.2801636 0.2795211 0.2776335
 0.277265 0.2768143 0.2725976 0.2636774 0.2542326 0.2500285 0.2522743 0.256536 0.257956 0.2551242
 0.2483282 0.2379551 0.2272637 0.2233639 0.2311663 0.2473184 0.2628808 0.2707151 0.2680426 0.2547448
 0.2342985 0.2158208 0.2096151 0.2179395 0.2322685 0.2411675 0.2393533 0.2285332 0.2124703 0.1944478
 0.1788068 0.1713219 0.1756634 0.1896738 0.2056586 0.2142826 0.2096756 0.1939212 0.177296 0.1708581
 0.1764677 0.1856253 0.1890477 0.1850835 0.1782705 0.1733876 0.1726754 0.1756952 0.1798459 0.1827199
 0.1840162 0.1829473 0.1756376 0.1598617 0.1414807 0.1306294 0.1311457 0.1385395 0.1481763 0.1594125
 0.1703842 0.1751742 0.1705367 0.1621801 0.1599548 0.167403 0.1786983 0.1857277 0.1860948 0.1835644
 0.1821619 0.1818089 0.1804295 0.1787533 0.1804367 0.1870503 0.1953515 0.2009054 0.2026936 0.2027069
 0.2025662 0.2023075 0.2015258 0.2000916 0.1980649 0.1957994 0.1938346 0.1922682 0.1906624 0.188689
 0.1860971 0.1817949 0.1741556 0.1634501 0.1532995 0.1478776 0.1475766 0.1492927 0.1509512 0.1527008
 0.1527543 0.1462226 0.1315778 0.1159143 0.1097875 0.1170467 0.1319997 0.1458654 0.1534251 0.1534331
 0.1460602 0.1332781 0.1212217 0.1182799 0.1282607 0.1467614 0.1659106 0.1810992 0.1914683 0.1962483
 0.194177 0.1864292 0.1777395 0.1737535 0.1776389 0.188627 0.2021806 0.2110915 0.2090018 0.1967944
 0.185593 0.188565 0.2069605 0.22787 0.2387211 0.2400717 0.2404164 0.2430037 0.2442473 0.2430774
 0.2446486 0.2531831 0.2656529 0.2747285 0.2752028 0.2660254 0.2495696 0.2321099 0.222207 0.2239151
 0.2322667 0.2387443 0.2395554 0.2351188 0.225 0.2100134 0.1975999 0.1973465 0.2098401 0.2253535
 0.234917 0.2384804 0.2408744 0.2434697 0.2425573 0.2350218 0.223562 0.2150135 0.2135708 0.2170929
 0.2206593 0.2217492 0.2203048 0.2158179 0.2076502 0.1981466 0.1926288 0.1948005 0.2029814 0.2117598
 0.2168947 0.2179898 0.2171239 0.216222 0.2157765 0.2150679 0.2135041 0.2123418 0.2144396 0.2211073
 0.2298639 0.2369187 0.2415008 0.2460977 0.2525328 0.2593916 0.2636788 0.2640548 0.2621292 0.261105
 0.2632307 0.2679989 0.2725063 0.2739324 0.2722232 0.2703818 0.271693 0.2765815 0.282564 0.2870778
 0.2895811 0.2909945 0.2921684 0.2931716 0.2932721 0.2915097 0.2881074 0.2853013 0.2857714 0.2899806
 0.2957121 0.3003215 0.3028368 0.3038332 0.3040239 0.303491 0.3020875 0.3001309 0.2984306 0.2976613
 0.2978894 0.2987373 0.2998061 0.3008485 0.3017337 0.3024304 0.3029806 0.3034237 0.3037833 0.3041153
 0.3044707 0.3048013 0.3050109 0.3051332 0.3053592 0.3058141 0.3063803 0.3068134 0.306963 0.3067843
 0.3062044 0.3051363 0.303627 0.3018493 0.2999029 0.2977515 0.295483 0.2935833 0.2927901 0.2935512
 0.2956159 0.298193 0.3004946 0.3021288 0.3030908 0.3035596 0.3037506 0.3038491 0.3039597 0.304086
 0.3041749 0.3041862 0.3041229 0.3040096 0.3038696 0.3037329 0.3036463 0.3036442 0.303708 0.3037675
 0.3037459 0.3036046 0.3033555 0.3030398 0.302686 0.3022775 0.301763 0.3011012 0.3002984 0.2994065
 0.2984932 0.2976065 0.2967489 0.2958752 0.2949227 0.2938471 0.2926151 0.2911724 0.2894761 0.2875867
 0.2856783 0.2839051 0.282281 0.2807075 0.2790798 0.2773342 0.2754477 0.2734417 0.2713714 0.2692832
 0.2671886 0.2650836 0.2629688 0.2608447 0.2587055 0.256547 0.2543692 0.2521669 0.2499249 0.2476196
 0.2452099 0.2426163 0.2397243 0.2364162 0.2325963 0.2281991 0.2232162 0.2177436 0.2119871 0.2061992
 0.2005997 0.1953388 0.190509 0.1861873 0.1824672 0.1794461 0.1771852 0.1756974 0.1749685 0.1749751
 0.1756855 0.1770516 0.1789922 0.181377 0.1840415 0.1868165 0.1895414 0.1920766 0.194348 0.1963871
 0.1983047 0.2002064 0.2021275 0.2040346 0.2058768 0.2076165 0.209218 0.2106361 0.2118396 0.2128333
 0.2136471 0.2143169 0.2148791 0.2153563 0.2157443 0.2160302 0.2162281 0.2163869 0.216565 0.2168071
 0.2171378 0.2175719 0.2181303 0.2188389 0.2197106 0.2207353 0.2218839 0.2231157 0.2243957 0.2257205
 0.2271186 0.2286232 0.2302651 0.2320929 0.2341631 0.2364985 0.2390656 0.2417865 0.244553 0.2472322
 0.2496848 0.2517989 0.2535245 0.2548786 0.2559094 0.2566553 0.2571428 0.2574049 0.2574826 0.2574143
 0.2572333 0.2569578 0.2565831 0.2560998 0.2555203 0.25487 0.2541673 0.2534322 0.2526929 0.2519669
 0.2512511 0.2505426 0.2498498 0.2491787 0.2485201 0.2478536 0.2471582 0.2464267 0.2456703 0.2449014
 0.2441122 0.2432713 0.2423321 0.2412519 0.2400202 0.2386679 0.2372323 0.2357215 0.234125 0.2324412
 0.2306806 0.2288549 0.2269729 0.2250401 0.2230562 0.2210102 0.2188716 0.216601 0.2141942 0.2117142
 0.2092605 0.2069116 0.2047004 0.2026209 0.2006406 0.1987249 0.1968634 0.1950667 0.1933439 0.1916959
 0.1901257 0.1886382 0.1872328 0.1859026 0.184643 0.1834687 0.182416 0.18151 0.1807324 0.18004
 0.1794089 0.178839 0.1783371 0.1779219 0.1776221 0.1774347 0.1772924 0.1770974 0.1767851 0.176359
 0.1758812 0.1754298 0.1750515 0.1747434 0.1744664 0.1741563 0.1737304 0.1731065 0.1722188 0.1710169
 0.1694716 0.1676001 0.1654786 0.1632314 0.1610094 0.1589568 0.1571722 0.1556979 0.1545316 0.1536262
 0.1528954 0.1522633 0.1517187 0.1513137 0.1511092 0.1511011 0.1511758 0.1511684 0.1510152 0.1508315
 0.1508099 0.1510602 0.1515532 0.1521652 0.1527538 0.1532265 0.1535603 0.1537623 0.15384 0.1538133
 0.1537081 0.1535266 0.1532563 0.1529061 0.1525051 0.1520773 0.1516239 0.1511119 0.1504891 0.1497336
 0.1488682 0.1479169 0.1468852 0.1457726 0.1445569 0.1432045 0.141777 0.1404972 0.1396384 0.1393563
 0.1396244 0.1402692 0.1410786 0.1419285 0.1427548 0.1433805 0.1435596 0.1433591 0.1433616 0.1442424
 0.1461117 0.1483878 0.1503223 0.1515366 0.152043 0.15195 0.1513207 0.1502126 0.1486576 0.1466335
 0.1441648 0.1413764 0.1383926 0.1353131 0.1323058 0.129568 0.1272069 0.1252497 0.1236943 0.1225768
 0.1220236 0.1216692 0.1196536 0.1135851 0.1042159 0.09711389 0.09799941 0.1063183 0.1156154 0.120375
 0.1204297 0.1186954 0.1171808 0.1161994 0.1156771 0.1157694 0.1165815 0.1179333 0.1194095 0.1205992
 0.1213387 0.1216632 0.1215244 0.1205856 0.118172 0.1134817 0.1062311 0.09725308 0.08822803 0.08070765
 0.0754315 0.07233541 0.07084768 0.07021038 0.0698532 0.06966448 0.06992105 0.07094683 0.07283193 0.07544025
 0.07856873 0.08195885 0.08520856 0.08791316 0.08996489 0.09155469 0.09284616 0.09379368 0.09427831 0.09427124
 0.09385321 0.09317665 0.09240846 0.09163642 0.09080993 0.0898037 0.0885937 0.08738698 0.08650036 0.08606157
 0.08591293 0.08584089 0.08577559 0.08573225 0.08570524 0.08567759 0.08564736 0.08563745 0.08572444 0.08599594
 0.0864296 0.0868793 0.08720607 0.08737608 0.08744202 0.08744285 0.08729042 0.08683176 0.08612612 0.08550465
 0.08514424 0.08473906 0.08388107 0.08267199 0.08168207 0.081335 0.08153852 0.08189109 0.08206422 0.08197337
 0.08175877 0.08170415 0.08204584 0.08269107</values></Ydata></ScSm><ScRf><Ydata ylabel="Single channel"><values byteorder="INTEL" format="FLOAT32" numvalues="1820"> 0.06089419 0.06104299 0.06113967 0.06118153 0.06118503 0.06119017 0.06124765 0.06138518 0.06158224 0.0617788
 0.06191742 0.06198246 0.06199265 0.06196355 0.06190661 0.06186473 0.06190608 0.06205812 0.06226473 0.06242283
 0.06246386 0.06241497 0.06238488 0.06245711 0.06257513 0.0625603 0.06228103 0.06180413 0.06134901 0.06108551
 0.06103066 0.06117938 0.06160931 0.06227276 0.06276645 0.06261986 0.06188307 0.06115586 0.06092235 0.0610894
 0.06126204 0.06120078 0.06089571 0.06048576 0.06030754 0.06080093 0.06207525 0.06355699 0.0641981 0.06313448
 0.06029978 0.05663014 0.0537258 0.05299118 0.05464023 0.0574105 0.0595134 0.06006167 0.05949512 0.05867957
 0.05797698 0.05734898 0.05695294 0.05718305 0.05812377 0.05917209 0.05934139 0.05810377 0.05602073 0.05435053
 0.05389976 0.05451263 0.05574076 0.05733385 0.05855528 0.05779087 0.05413703 0.0494129 0.0473491 0.05003912
 0.05570506 0.06044215 0.06169523 0.05968126 0.05624462 0.0533271 0.05224357 0.05332904 0.05587547 0.05872317
 0.06096722 0.06199649 0.06133591 0.05906133 0.05620303 0.05424147 0.0541978 0.05624154 0.0596558 0.06289132
 0.06426833 0.0632235 0.06068621 0.05809037 0.05642876 0.0562662 0.0578802 0.06096631 0.06461688 0.067856
 0.07004309 0.07092774 0.07069529 0.06985499 0.06885603 0.06800801 0.067747 0.06836721 0.06931213 0.06938951
 0.06807229 0.06620832 0.06514946 0.06535617 0.06603242 0.06609097 0.06525102 0.06385432 0.06178577 0.05846412
 0.05416873 0.05038317 0.04831011 0.04796283 0.04905889 0.05148176 0.05421991 0.05529787 0.05393298 0.05192006
 0.05183783 0.05429454 0.05761633 0.05990726 0.06081138 0.06137804 0.0627064 0.06481509 0.06650686 0.06627086
 0.0637807 0.0607301 0.05963418 0.06136141 0.06430175 0.0663501 0.06712742 0.06773509 0.06883544 0.06962603
 0.06867452 0.06561486 0.06205859 0.06059803 0.06254782 0.06663111 0.06990537 0.06993352 0.06642274 0.06130587
 0.05724064 0.0557666 0.05688259 0.06005584 0.06481582 0.07022377 0.07462594 0.0765732 0.07587261 0.07352003
 0.07056064 0.06711538 0.06291818 0.05892553 0.05751929 0.06025277 0.06585941 0.071309 0.07451414 0.07537083
 0.07456994 0.07229702 0.06843799 0.06385718 0.06081771 0.06121801 0.06430463 0.06710245 0.06753476 0.06631713
 0.06541975 0.06560436 0.06614435 0.06635357 0.06657071 0.0675956 0.0695556 0.0716097 0.07276312 0.07276665
 0.07216281 0.07165174 0.07145214 0.07113965 0.07025193 0.06922255 0.06932138 0.07125889 0.07420504 0.07664409
 0.07789228 0.07833627 0.07841372 0.07784219 0.07602456 0.07316922 0.07074504 0.07039235 0.07233629 0.07524467
 0.07761179 0.07884305 0.0791157 0.07883058 0.07833932 0.07783185 0.07739674 0.07726419 0.07774857 0.07879587
 0.07988077 0.08053116 0.08071257 0.08059262 0.08020968 0.07954636 0.07876876 0.07822193 0.07818231 0.07865506
 0.07942116 0.08023113 0.08088563 0.08119929 0.08107346 0.08063909 0.08017898 0.07987013 0.0797168 0.07972437
 0.07996698 0.0804369 0.08096132 0.08134362 0.08152193 0.08155087 0.08148995 0.08135873 0.08117421 0.0809981
 0.08093552 0.08105963 0.08132149 0.08158319 0.08177929 0.08198272 0.08225103 0.08248121 0.08251558 0.08235145
 0.08215265 0.08206897 0.08211571 0.0822195 0.08230402 0.0822999 0.08213069 0.08178055 0.08139051 0.08120738
 0.08138455 0.08187123 0.08250255 0.08311883 0.08358946 0.08383831 0.08390175 0.08388957 0.08385429 0.08375464
 0.08356158 0.08335199 0.08327886 0.08345538 0.08385535 0.08432551 0.08470593 0.08492921 0.08501976 0.08505943
 0.08515395 0.08534865 0.08555518 0.08563456 0.08557176 0.08550239 0.08554835 0.08567992 0.08576347 0.0857193
 0.08561282 0.08558844 0.08572035 0.08594691 0.08615583 0.08630723 0.08645393 0.08665023 0.08685672 0.08695334
 0.08686703 0.0866695 0.08650668 0.08644465 0.08644457 0.08648084 0.0865979 0.08681792 0.08705764 0.08719622
 0.08720811 0.08718499 0.08722049 0.0873009 0.08732718 0.0872299 0.08704068 0.08685866 0.08676975 0.08679555
 0.08689126 0.08697864 0.08699511 0.08693011 0.08681952 0.08670555 0.0866079 0.08654261 0.08655615 0.0867033
 0.08696469 0.08720572 0.08726209 0.08708714 0.08680336 0.08659326 0.08653666 0.08655595 0.0865116 0.08633679
 0.08607829 0.08582847 0.08564232 0.08551627 0.08541943 0.08533258 0.08527187 0.0852844 0.08539891 0.08556005
 0.08563527 0.08552655 0.0852709 0.08500262 0.0848269 0.08475679 0.08474898 0.08475733 0.08476342 0.08478852
 0.08486077 0.08495229 0.08498414 0.08491848 0.08481184 0.08475824 0.08481389 0.08497831 0.08519301 0.08534859
 0.08535551 0.08523647 0.08511184 0.08507823 0.08513261 0.08522008 0.08531116 0.08540898 0.08551309 0.08561467
 0.08572413 0.08587644 0.08609615 0.08636279 0.08661537 0.08679527 0.08689605 0.08697899 0.0871303 0.08738999
 0.08771981 0.08804089 0.08829945 0.08849986 0.08868254 0.08887491 0.08907095 0.08926444 0.08948252 0.08975879
 0.09008078 0.0903973 0.09067813 0.0909397 0.09121168 0.09150264 0.0918052 0.0921222 0.09247922 0.09289855
 0.09334923 0.09373961 0.0939905 0.09411684 0.09422112 0.09441175 0.09473005 0.09512376 0.0954722 0.09567619
 0.09575823 0.09584855 0.09604268 0.09630464 0.09654668 0.09676974 0.09706548 0.09748384 0.09795068 0.09833595
 0.09857862 0.09872943 0.09888154 0.09907205 0.09925611 0.09937762 0.09944883 0.09953538 0.09967263 0.09984227
 0.100041 0.100318 0.1007053 0.101147 0.10154 0.101827 0.1020202 0.1021575 0.1022668 0.1023558
 0.1024123 0.1024309 0.102446 0.1025081 0.1026148 0.1027047 0.1027402 0.1027606 0.102833 0.1029845
 0.1032076 0.1034929 0.1038171 0.104127 0.1043842 0.1046259 0.1049288 0.105296 0.1056219 0.1058034
 0.1058544 0.1058685 0.1058984 0.1059346 0.1059878 0.1061169 0.106357 0.1066736 0.1070108 0.1073502
 0.1077013 0.108057 0.1083765 0.1086039 0.1087022 0.1086871 0.1086317 0.10863 0.1087451 0.1089796
 0.1092836 0.1095909 0.109855 0.1100499 0.1101498 0.1101401 0.1100669 0.1100402 0.1101437 0.1103394
 0.110489 0.1104708 0.1102565 0.1098801 0.1093725 0.1087535 0.1080703 0.1074101 0.1068603 0.1064661
 0.1062384 0.1061985 0.1063915 0.1068358 0.1074695 0.1081697 0.1088234 0.1093538 0.1096816 0.1097138
 0.109407 0.1088234 0.1080963 0.1073509 0.106661 0.1060441 0.1054681 0.1048962 0.1043677 0.1040326
 0.1040808 0.1046315 0.1056745 0.1070758 0.1086189 0.1100756 0.1112971 0.1122665 0.1130653 0.1137832
 0.1144632 0.1151205 0.115776 0.1164382 0.1170716 0.117625 0.1180931 0.1185185 0.1189334 0.1193295
 0.1196804 0.1199682 0.1201975 0.1204004 0.1206095 0.1208042 0.1209147 0.1209022 0.1208091 0.1207034
 0.1205979 0.120446 0.1201931 0.119822 0.1193785 0.1189843 0.1188167 0.119037 0.1197038 0.1207393
 0.1219852 0.1232978 0.1245827 0.1257517 0.1267015 0.1273723 0.1278057 0.1281113 0.1283844 0.1286683
 0.1289711 0.1292852 0.1295958 0.12989 0.1301673 0.1304436 0.1307441 0.1310806 0.1314306 0.1317473
 0.1320055 0.1322341 0.1324956 0.1328293 0.1332119 0.1335818 0.1339068 0.1342148 0.1345392 0.134855
 0.1351031 0.1352722 0.1354207 0.1356201 0.1359051 0.136268 0.1366614 0.1370112 0.1372662 0.137443
 0.1376037 0.1377941 0.1380183 0.1382634 0.1385205 0.1387816 0.1390373 0.1392911 0.1395621 0.1398585
 0.1401502 0.1403865 0.1405492 0.1406793 0.1408381 0.1410493 0.1412866 0.1415108 0.1417139 0.1419294
 0.1421992 0.1425241 0.1428486 0.1431038 0.1432654 0.1433693 0.1434746 0.1436197 0.1438094 0.1440287
 0.1442578 0.1444792 0.1446841 0.144879 0.1450801 0.1452961 0.1455183 0.1457327 0.1459361 0.1461359
 0.1463384 0.1465439 0.1467541 0.1469834 0.14725 0.1475507 0.1478494 0.1481011 0.1482883 0.1484264
 0.1485448 0.1486705 0.1488214 0.1490006 0.1491986 0.1494043 0.1496125 0.1498199 0.1500239 0.1502251
 0.1504267 0.1506304 0.1508362 0.1510444 0.1512565 0.1514745 0.1516979 0.1519198 0.1521315 0.1523311
 0.1525253 0.1527216 0.1529217 0.1531216 0.1533139 0.1534952 0.1536721 0.153855 0.1540475 0.1542458
 0.1544485 0.1546586 0.1548753 0.1550911 0.1552963 0.155486 0.1556643 0.1558415 0.1560252 0.1562148
 0.1564054 0.1565943 0.1567827 0.1569744 0.1571735 0.1573802 0.1575906 0.1578009 0.15801 0.1582167
 0.1584179 0.1586104 0.1587941 0.1589734 0.1591559 0.159347 0.1595462 0.1597495 0.1599528 0.1601536
 0.1603525 0.1605546 0.1607637 0.160978 0.161194 0.1614113 0.1616288 0.1618419 0.1620472 0.1622466
 0.1624464 0.1626525 0.1628664 0.1630844 0.1633039 0.1635283 0.1637609 0.1639955 0.1642175 0.1644136
 0.1645805 0.16473 0.164884 0.1650573 0.1652474 0.1654433 0.1656381 0.1658293 0.1660169 0.1662041
 0.1663938 0.166586 0.1667816 0.1669825 0.1671857 0.1673851 0.1675795 0.1677716 0.1679632 0.1681571
 0.1683577 0.1685653 0.1687769 0.1689922 0.1692107 0.1694274 0.1696378 0.1698421 0.1700433 0.1702469
 0.1704582 0.1706741 0.1708834 0.1710835 0.1712835 0.1714899 0.1717009 0.1719153 0.1721329 0.1723506
 0.1725653 0.172776 0.1729801 0.1731789 0.1733806 0.1735897 0.1738019 0.1740147 0.1742312 0.1744513
 0.174674 0.1749014 0.1751302 0.1753493 0.1755554 0.1757557 0.1759546 0.1761539 0.1763588 0.1765713
 0.1767865 0.1770017 0.1772108 0.1773912 0.1774991 0.1774328 0.1769287 0.1754534 0.1721893 0.1661952
 0.156776 0.1439151 0.1284342 0.1117042 0.09513634 0.07981025 0.06636925 0.05510665 0.04610188 0.03930205
 0.03457398 0.03179737 0.03096632 0.03229782 0.03634761 0.04367826 0.05362107 0.06319036 0.06825086 0.06677929
 0.06079405 0.054515 0.05085986 0.05003566 0.05079418 0.05206639 0.05351304 0.05533484 0.05787503 0.06122808
 0.06522159 0.06983851 0.07542421 0.08223842 0.08992089 0.09764582 0.104835 0.1116055 0.1184879 0.1257865
 0.1332645 0.1403819 0.146725 0.1522098 0.1570012 0.161331 0.1653672 0.1691915 0.1728402 0.1763047
 0.179459 0.1820337 0.1837463 0.1845143 0.1845532 0.1842596 0.1839825 0.1838891 0.1839997 0.1842853
 0.1847147 0.1852589 0.1858985 0.1866214 0.1874061 0.1882181 0.1890254 0.189807 0.1905508 0.1912526
 0.1919096 0.1925138 0.1930586 0.1935498 0.1939998 0.1944182 0.194812 0.1951872 0.195545 0.1958859
 0.1962138 0.1965306 0.1968314 0.1971112 0.1973697 0.1976079 0.1978267 0.1980312 0.1982286 0.198425
 0.1986247 0.1988296 0.1990375 0.199247 0.1994605 0.1996784 0.1998957 0.2001101 0.2003209 0.2005215
 0.2007051 0.2008806 0.201065 0.2012619 0.2014583 0.201645 0.2018269 0.2020121 0.2022007 0.2023877
 0.2025731 0.2027647 0.2029686 0.2031797 0.2033884 0.2035938 0.2038005 0.2040072 0.2042102 0.2044149
 0.20463 0.204855 0.2050828 0.2053073 0.2055202 0.2057088 0.2058711 0.2060256 0.2062003 0.2064083
 0.2066369 0.2068604 0.2070642 0.2072524 0.2074334 0.2076085 0.2077782 0.2079484 0.2081278 0.2083282
 0.2085595 0.2088134 0.2090659 0.2093061 0.2095432 0.2097818 0.2100156 0.2102475 0.2104833 0.2107017
 0.2108686 0.2109908 0.211135 0.2113741 0.2117154 0.212088 0.2124092 0.212658 0.2128744 0.213107
 0.2133787 0.2136647 0.213875 0.2139177 0.2138385 0.2138421 0.2141072 0.2146111 0.2151785 0.2156596
 0.2160211 0.2163065 0.2165608 0.2167841 0.2169324 0.2169705 0.2169452 0.2170005 0.2172759 0.2177618
 0.2182948 0.2187199 0.219012 0.2192237 0.2193998 0.2195644 0.2196839 0.2196196 0.2192726 0.2188373
 0.2187527 0.2192783 0.2202008 0.2210627 0.2216162 0.2219502 0.2222317 0.222497 0.2227043 0.2227751
 0.2224885 0.2216072 0.2203454 0.2195027 0.2198051 0.2211718 0.2228476 0.2241564 0.2249275 0.2253295
 0.2255768 0.2257867 0.2258919 0.2256479 0.2249077 0.2239861 0.2235815 0.2241323 0.2253235 0.2264228
 0.2270292 0.2272862 0.2274885 0.227749 0.2279258 0.227589 0.226266 0.2241453 0.2224263 0.2224731
 0.2244764 0.2272188 0.2292781 0.2302454 0.2306046 0.2306847 0.2301812 0.2287101 0.2263859 0.2237696
 0.2217059 0.2212164 0.2228178 0.2256677 0.2280419 0.2290365 0.2293285 0.2300502 0.2314368 0.2328241
 0.2335162 0.2333306 0.232484 0.2312032 0.2296129 0.2280984 0.2275224 0.2286073 0.2310542 0.2336556
 0.2354145 0.2363003 0.2367158 0.2363169 0.2337818 0.2284014 0.2220562 0.218685 0.2208019 0.2268662
 0.2329351 0.236539 0.2380332 0.2387418 0.2391909 0.238962 0.2369317 0.231878 0.2243866 0.2180705
 0.2171364 0.2222211 0.2296703 0.2349566 0.2357818 0.2323265 0.2264205 0.220985 0.2188449 0.2210234
 0.2262976 0.2324044 0.2373988 0.2401961 0.2405578 0.2389697 0.2365963 0.235011 0.2350603 0.2356024
 0.2343714 0.2308532 0.2271594 0.2249227 0.2227485 0.2187622 0.2147141 0.2148239 0.2203133 0.227386
 0.2315053 0.2319977 0.2312261 0.230256 0.2269959 0.2191904 0.2086917 0.2015229 0.2026172 0.2107047
 0.2194543 0.2236784 0.2234524 0.2222407 0.222271 0.2222653 0.2192414 0.2124147 0.2051656 0.2021932
 0.2045021 0.2084973 0.2102244 0.2085037 0.2035136 0.1955415 0.1873007 0.1847225 0.1919329 0.2061922
 0.2200636 0.22754 0.2262006 0.2158359 0.1993331 0.1844986 0.1802496 0.188598 0.2022 0.2111296
 0.2107397 0.2024288 0.1894155 0.1746003 0.1619624 0.1568788 0.1628724 0.1780783 0.1953238 0.2056484
 0.2032123 0.18988 0.1757195 0.1717412 0.1798103 0.1913377 0.1969159 0.1948691 0.1898393 0.1868329
 0.188366 0.1940536 0.2009964 0.2064931 0.2101911 0.2109867 0.2041005 0.1868127 0.1660557 0.1538633
 0.1548753 0.1639161 0.1756154 0.1892485 0.2025424 0.2083444 0.2026932 0.1923557 0.1890943 0.1971774
 0.2097194 0.2171161 0.2165593 0.2125564 0.2099494 0.2087444 0.2065428 0.2041474 0.2057506 0.2131722
 0.222705 0.2292557 0.2316335 0.2321078 0.2325408 0.2329705 0.2329075 0.2321793 0.230849 0.2293376
 0.2282996 0.2278801 0.2275797 0.2270197 0.2259032 0.2228225 0.2155637 0.204217 0.1931678 0.1876244
 0.188089 0.1906982 0.1929558 0.1951805 0.1951571 0.1866506 0.1676517 0.1471208 0.1384696 0.1466001
 0.164251 0.1802626 0.1881345 0.1865612 0.17605 0.1590919 0.1428472 0.1369455 0.1456399 0.1637135
 0.1820408 0.1954567 0.2034006 0.205577 0.2009367 0.1907485 0.1798827 0.1740411 0.1762559 0.1855343
 0.1972244 0.2042556 0.2005789 0.1871556 0.1746281 0.1755017 0.1910404 0.2091818 0.2180942 0.2181673
 0.2172732 0.2185392 0.2187622 0.2169365 0.21772 0.2250123 0.2362053 0.244754 0.2459198 0.2386384
 0.2249429 0.2104735 0.2030052 0.2061704 0.2152707 0.2223478 0.2238656 0.2202208 0.2110423 0.1972111
 0.1858832 0.1861733 0.1985955 0.2138706 0.2234731 0.22739 0.2302598 0.2333913 0.233196 0.2266554
 0.2163933 0.2090705 0.2087981 0.2135268 0.2184932 0.2212427 0.221647 0.2190389 0.2126328 0.2047758
 0.2009755 0.2050949 0.2153241 0.2258538 0.2320559 0.2333658 0.2319008 0.2297224 0.2274668 0.2245246
 0.2203998 0.2164688 0.2157178 0.2195508 0.2255437 0.2299335 0.231934 0.233999 0.2379813 0.2425916
 0.244977 0.2438326 0.2406257 0.2382992 0.2389102 0.2420067 0.2449653 0.2452299 0.2427475 0.2402501
 0.2407366 0.2446111 0.2496333 0.2534726 0.2556027 0.2568121 0.2578464 0.2587579 0.2588597 0.2572371
 0.2540404 0.2512471 0.2512567 0.2545044 0.2590474 0.2625813 0.2643082 0.2647918 0.2646769 0.2640203
 0.2626801 0.2609272 0.2594534 0.258822 0.2590649 0.2598252 0.2607297 0.2615521 0.2621837 0.2626097
 0.2628841 0.2630621 0.2631737 0.2632597 0.2633522 0.2634104 0.2633641 0.2632554 0.2632525 0.2634603
 0.2637768 0.2639976 0.2639998 0.2637489 0.2631898 0.2622609 0.2610147 0.2595984 0.2580798 0.2564044
 0.2546363 0.253197 0.2527245 0.2535964 0.2555882 0.2580167 0.2602022 0.2618008 0.2627976 0.26333
 0.2635601 0.2636262 0.2636156 0.2635515 0.2634189 0.2632063 0.2629219 0.2625812 0.2621983 0.2617977
 0.261421 0.2610999 0.2608227 0.2605377 0.260196 0.2597802 0.2593047 0.2588035 0.2583056 0.2577977
 0.257214 0.2564836 0.2555944 0.2546092 0.2536278 0.2527328 0.2519426 0.2512073 0.2504576 0.2496537
 0.2487704 0.2477651 0.2466181 0.2454135 0.2443228 0.2434661 0.2428084 0.2422086 0.2415445 0.2407689
 0.2398821 0.2389022 0.2378627 0.2368012 0.2357332 0.2346447 0.2335058 0.2322831 0.2309508 0.2295041
 0.227962 0.2263545 0.2247138 0.2230651 0.2213996 0.2196474 0.2176867 0.2153817 0.2126112 0.2092829
 0.2053607 0.200903 0.1960761 0.1911099 0.1862215 0.1815669 0.17725 0.1733588 0.1699822 0.1672041
 0.1650895 0.1636733 0.1629619 0.1629521 0.1636408 0.165006 0.1669792 0.1694404 0.1722336 0.1751862
 0.1781288 0.1809191 0.1834731 0.1857939 0.1879531 0.1900155 0.1919759 0.1937818 0.1953994 0.1968285
 0.1980681 0.1991045 0.1999402 0.200613 0.2011742 0.2016572 0.2020725 0.2024294 0.2027479 0.2030396
 0.2032948 0.2035039 0.2036808 0.2038544 0.2040496 0.2042819 0.2045605 0.2048903 0.2052808 0.2057415
 0.2062621 0.206811 0.2073677 0.2079436 0.2085613 0.2092309 0.2099607 0.2107766 0.2117209 0.2128275
 0.2140948 0.2154783 0.2169045 0.2182851 0.2195237 0.2205353 0.2212798 0.2217699 0.2220435 0.2221351
 0.2220712 0.2218744 0.221565 0.2211636 0.2206935 0.220176 0.2196232 0.2190369 0.2184119 0.2177435
 0.2170383 0.216319 0.2156142 0.2149394 0.21429 0.2136536 0.2130266 0.2124124 0.211809 0.2112091
 0.2106123 0.2100268 0.2094592 0.2089107 0.2083755 0.2078271 0.2072128 0.2064795 0.2056145 0.2046533
 0.2036405 0.2025827 0.2014448 0.2001898 0.1988139 0.1973411 0.1957957 0.1941892 0.1925277 0.1908117
 0.1890239 0.1871372 0.1851533 0.1831335 0.181173 0.1793389 0.1776391 0.176045 0.1745294 0.1730836
 0.1717131 0.1704234 0.1692093 0.1680585 0.1669636 0.1659224 0.1649291 0.1639762 0.163069 0.1622301
 0.1614873 0.1608538 0.1603206 0.1598678 0.1594804 0.1591524 0.1588914 0.1587256 0.1586836 0.1587481
 0.1588435 0.1588814 0.1588133 0.1586499 0.1584493 0.1582793 0.1581718 0.1581143 0.1580788 0.1580307
 0.1579085 0.1576202 0.1570691 0.1561867 0.1549608 0.1534429 0.1517215 0.1498947 0.1480751 0.1463836
 0.1449153 0.1437275 0.1428464 0.1422413 0.1418072 0.1414314 0.1410857 0.1408366 0.1407761 0.1409333
 0.1412124 0.1414368 0.1415061 0.1415043 0.141625 0.1420088 0.1426537 0.1434337 0.1441902 0.1448303
 0.1453407 0.1457205 0.1459595 0.1460777 0.1461187 0.1460975 0.1460006 0.1458237 0.1455769 0.1452716
 0.1449137 0.1444881 0.1439714 0.1433756 0.1427311 0.142027 0.141231 0.1403458 0.1393685 0.1382557
 0.1370351 0.1359106 0.1351694 0.1350016 0.1354064 0.136211 0.1371973 0.1382471 0.1392974 0.1401546
 0.1405632 0.1405957 0.1408241 0.1418978 0.1439268 0.1463576 0.1484626 0.1498678 0.1505841 0.1507065
 0.1502803 0.1493631 0.1479887 0.1461081 0.1437116 0.1409234 0.1379017 0.1347934 0.1318101 0.1291653
 0.1269434 0.1251385 0.1237319 0.1227554 0.1223418 0.1221375 0.1202685 0.1143064 0.1050131 0.09803608
 0.09915805 0.1077912 0.1173819 0.1223353 0.1224775 0.1207837 0.1193198 0.1183897 0.1178707 0.1179055
 0.1186315 0.1198956 0.1212862 0.1223914 0.1230572 0.1233437 0.1232248 0.122341 0.1199483 0.1151898
 0.1077816 0.09859733 0.0893771 0.08172699 0.07638973 0.07324383 0.07166198 0.07088409 0.07037762 0.07007483
 0.07027902 0.07130492 0.07321247 0.07585615 0.07904896 0.08254094 0.085922 0.08877549 0.09097616 0.09269294
 0.09407652 0.09508057 0.09560105 0.09564844 0.0953326 0.09476949 0.094052 0.0932443 0.09233584 0.0912447
 0.08996911 0.08872974 0.08784332 0.08742759 0.08732709 0.08732887 0.0873336 0.08732128 0.08728345 0.08722234
 0.08715523 0.08712561 0.08722377 0.0875295 0.08800609 0.08850443 0.08888461 0.0891069 0.08921199 0.08920737
 0.08896933 0.08835991 0.08750609 0.08678382 0.08635126 0.08586391 0.08489831 0.08356605 0.08246864 0.0820694
 0.0822883 0.08269115 0.08289819 0.08279203 0.08251961 0.08240262 0.08270585 0.08333049 0.08381122 0.08376233
</values></Ydata></ScRf><Data_Parameters_AB><parameter name="DPF">1</parameter><parameter name="NPT">3497</parameter><parameter name="FXV">3996</parameter><parameter name="LXV">500</parameter><parameter name="CSF">1</parameter><parameter name="MXY">0.106640018522739</parameter><parameter name="MNY">-0.107062853872776</parameter><parameter name="DAT">24/05/2022</parameter><parameter name="TIM">13:30:54.309 (GMT+2)</parameter><parameter name="DXU">WN</parameter></Data_Parameters_AB><AB__Qtest><MainReport name="Quality Test Report"><Header><Line><Legend>Test result ok/not ok [1/0]: </Legend><Value>0</Value></Line><Line><Legend>Method file: </Legend><Value>C:\Users\Public\Documents\Bruker\OPUS_8.2.28\QT\IRBT_v3_default.QT</Value></Line></Header><Matrix><Line><Legend></Legend><Legend>min</Legend><Legend>max</Legend><Legend>measured</Legend></Line><Line><Value>Absorption (X-Range 1):</Value><Value>0.400000</Value><Value>2.000000</Value><Value>0.182362</Value></Line><Line><Value>Noise (X-Range 4):</Value><Value></Value><Value>0.000300</Value><Value>0.000055</Value></Line><Line><Value>Signal/Noise (X-Range 2):</Value><Value>200.000000</Value><Value></Value><Value>72.931045</Value></Line><Line><Value>Signal/Noise (X-Range 3):</Value><Value>40.000000</Value><Value></Value><Value>33.311746</Value></Line><Line><Value>Water vapour (X-Range 5):</Value><Value></Value><Value>0.000300</Value><Value>0.000086</Value></Line><Line><Value>Signal/Water (X-Range 2):</Value><Value>100.000000</Value><Value></Value><Value>46.256016</Value></Line><Line><Value>Signal/Water (X-Range 3):</Value><Value>20.000000</Value><Value></Value><Value>21.127747</Value></Line><Line><Value>Fringes (X-Range 6):</Value><Value></Value><Value>0.000100</Value><Value>0.000050</Value></Line></Matrix></MainReport></AB__Qtest><Data_Parameters_ScSm><parameter name="DPF">1</parameter><parameter name="NPT">1814</parameter><parameter name="FXV">3996.33169228125</parameter><parameter name="LXV">499.541461535156</parameter><parameter name="CSF">1</parameter><parameter name="MXY">0.306990563869476</parameter><parameter name="MNY">0.0377900376915932</parameter><parameter name="DAT">24/05/2022</parameter><parameter name="TIM">13:30:54.309 (GMT+2)</parameter><parameter name="DXU">WN</parameter></Data_Parameters_ScSm><Data_Parameters_ScRf><parameter name="DPF">1</parameter><parameter name="NPT">1820</parameter><parameter name="FXV">4004.04661832813</parameter><parameter name="LXV">495.683998511719</parameter><parameter name="CSF">1</parameter><parameter name="MXY">0.26479184627533</parameter><parameter name="MNY">0.030966317281127</parameter><parameter name="DAT">24/05/2022</parameter><parameter name="TIM">13:30:28.457 (GMT+2)</parameter><parameter name="DXU">WN</parameter></Data_Parameters_ScRf><Optic_Parameters_Rf><parameter name="APR">0</parameter><parameter name="APT">Open</parameter><parameter name="BMS">KBr</parameter><parameter name="DTC">RT-DLaTGS_IR-Biotyper [Microplate reader]</parameter><parameter name="HPF">0</parameter><parameter name="LPF">10.0</parameter><parameter name="LPV">4000</parameter><parameter name="PGR">0</parameter><parameter name="RCH">Module port</parameter><parameter name="RDX">0</parameter><parameter name="SRC">MIR</parameter><parameter name="VEL">10.0</parameter><parameter name="SON">Off</parameter></Optic_Parameters_Rf><Acquisition_Parameters_Rf><parameter name="ADT">1</parameter><parameter name="AQM">DD</parameter><parameter name="CFE">0</parameter><parameter name="COR">0</parameter><parameter name="DEL">0</parameter><parameter name="DLY">0</parameter><parameter name="HFW">8000</parameter><parameter name="LFW">0</parameter><parameter name="NSR">32</parameter><parameter name="PLF">AB</parameter><parameter name="RES">6</parameter><parameter name="RGN">-1</parameter><parameter name="STR">0</parameter><parameter name="TCL">MakeCompatibleScalar (0, {WSV=1.000000, ARV=0});</parameter><parameter name="TDL">37</parameter><parameter name="RPO">0</parameter></Acquisition_Parameters_Rf><FT_-_Parameters_Rf><parameter name="APF">B3</parameter><parameter name="HFQ">500</parameter><parameter name="LFQ">4000</parameter><parameter name="NLI">0</parameter><parameter name="PHR">24</parameter><parameter name="PHZ">ML</parameter><parameter name="SPZ">NO</parameter><parameter name="ZFF">1</parameter></FT_-_Parameters_Rf><Optic_Parameters_><parameter name="APR">0</parameter><parameter name="APT">Open</parameter><parameter name="BMS">KBr</parameter><parameter name="CHN">Module port</parameter><parameter name="DTC">RT-DLaTGS_IR-Biotyper [Microplate reader]</parameter><parameter name="HPF">0</parameter><parameter name="LPF">10.0</parameter><parameter name="LPV">4000</parameter><parameter name="PGN">0</parameter><parameter name="RDX">0</parameter><parameter name="SRC">MIR</parameter><parameter name="VEL">10.0</parameter><parameter name="SON">Off</parameter></Optic_Parameters_><FT_-_Parameters_><parameter name="APF">B3</parameter><parameter name="HFQ">500</parameter><parameter name="LFQ">4000</parameter><parameter name="NLI">0</parameter><parameter name="PHR">24</parameter><parameter name="PHZ">ML</parameter><parameter name="SPZ">NO</parameter><parameter name="ZFF">1</parameter></FT_-_Parameters_><Acquisition_Parameters_><parameter name="ADT">1</parameter><parameter name="AQM">DD</parameter><parameter name="CFE">0</parameter><parameter name="COR">0</parameter><parameter name="DEL">0</parameter><parameter name="DLY">0</parameter><parameter name="HFW">8000</parameter><parameter name="LFW">0</parameter><parameter name="NSS">32</parameter><parameter name="PLF">AB</parameter><parameter name="RES">6</parameter><parameter name="SOT">0</parameter><parameter name="TCL">MakeCompatibleScalar (0, {WSV=1.000000, ARV=0});</parameter><parameter name="TDL">37</parameter><parameter name="SPO">0</parameter><parameter name="SGN">-1</parameter></Acquisition_Parameters_><Instrument_Parameters_Rf><parameter name="HFL">15800.168544</parameter><parameter name="LFL">0</parameter><parameter name="LWN">15800.168544</parameter><parameter name="ABP">32197</parameter><parameter name="SSP">1</parameter><parameter name="ARG">2</parameter><parameter name="ASG">2</parameter><parameter name="ASS">32</parameter><parameter name="GFW">16</parameter><parameter name="GBW">16</parameter><parameter name="BFW">0</parameter><parameter name="BBW">0</parameter><parameter name="PKA">7281</parameter><parameter name="PKL">4996</parameter><parameter name="PRA">7467</parameter><parameter name="PRL">5001</parameter><parameter name="P2A">1</parameter><parameter name="P2L">1</parameter><parameter name="P2R">1</parameter><parameter name="P2K">1</parameter><parameter name="DAQ">0</parameter><parameter name="AG2">1</parameter><parameter name="SSM">1</parameter><parameter name="RSN">24629</parameter><parameter name="CRR">0</parameter><parameter name="SRT">1653399028.457</parameter><parameter name="DUR">19.6369934082031</parameter><parameter name="TSC">28.8</parameter><parameter name="MVD">0.302433550357819</parameter><parameter name="AN1">0.225794210228507</parameter><parameter name="AN2">0</parameter><parameter name="VSN">2.485 Apr  4 2017</parameter><parameter name="SRN">0085</parameter><parameter name="CAM">0</parameter><parameter name="INS">IR-Biotyper</parameter><parameter name="FOC">69</parameter><parameter name="RDY">1</parameter><parameter name="ARS">32</parameter></Instrument_Parameters_Rf><Sample_Parameters_><parameter name="BLD"></parameter><parameter name="CNM">Admin</parameter><parameter name="CPY"></parameter><parameter name="DPM"></parameter><parameter name="EXP">IRBT_v3_32Scans.XPM</parameter><parameter name="LCT"></parameter><parameter name="SFM">Microplate, HTS-XT</parameter><parameter name="SNM">220524-1303(v.2)_RGV45F+RTF49M_D5_ab3bbc34-9ec0-4377-b06b-23d1a86ca463.0</parameter><parameter name="XPP">C:\Users\Public\Documents\Bruker\OPUS_8.2.28\XPM</parameter><parameter name="IST">OK</parameter><parameter name="CPG">1252</parameter><parameter name="UID">39820b31-f9ad-4fbe-a05f-5db70e77cda0</parameter></Sample_Parameters_><Instrument_Parameters_><parameter name="HFL">15800.168544</parameter><parameter name="LFL">0</parameter><parameter name="LWN">15800.168544</parameter><parameter name="ABP">32197</parameter><parameter name="SSP">1</parameter><parameter name="ASG">2</parameter><parameter name="ARG">2</parameter><parameter name="ASS">32</parameter><parameter name="GFW">16</parameter><parameter name="GBW">16</parameter><parameter name="BFW">0</parameter><parameter name="BBW">0</parameter><parameter name="PKA">8041</parameter><parameter name="PKL">4988</parameter><parameter name="PRA">8332</parameter><parameter name="PRL">4993</parameter><parameter name="P2A">1</parameter><parameter name="P2L">1</parameter><parameter name="P2R">1</parameter><parameter name="P2K">1</parameter><parameter name="DAQ">0</parameter><parameter name="AG2">1</parameter><parameter name="SSM">1</parameter><parameter name="RSN">12939</parameter><parameter name="CRR">0</parameter><parameter name="SRT">1653399054.309</parameter><parameter name="DUR">19.6379852294922</parameter><parameter name="TSC">28.8</parameter><parameter name="MVD">0.538787543773651</parameter><parameter name="AN1">0.225805390311483</parameter><parameter name="AN2">0</parameter><parameter name="VSN">2.485 Apr  4 2017</parameter><parameter name="SRN">0085</parameter><parameter name="CAM">0</parameter><parameter name="INS">IR-Biotyper</parameter><parameter name="FOC">69</parameter><parameter name="RDY">1</parameter></Instrument_Parameters_><History/></OPUSDataFile>
