<?xml version="1.0" encoding="UTF-8" ?>
<OPUSDataFile><AB><Ydata ylabel="Absorbance Units"><values byteorder="INTEL" format="FLOAT32" numvalues="3497"> -0.08358363 -0.08357266 -0.08355259 -0.08352321 -0.08348785 -0.0834467 -0.08340509 -0.08336322 -0.08332473 -0.08328978
 -0.08326111 -0.08323872 -0.08322458 -0.08321743 -0.0832159 -0.0832173 -0.08321622 -0.08321229 -0.08320194 -0.08318903
 -0.083175 -0.08316417 -0.08316035 -0.08316167 -0.08316976 -0.08317576 -0.0831778 -0.08316936 -0.08314775 -0.08312054
 -0.08308739 -0.08306722 -0.08306107 -0.0830781 -0.08311687 -0.08316095 -0.0832075 -0.08322986 -0.08323016 -0.08319972
 -0.08314695 -0.08308674 -0.08302655 -0.08298631 -0.08296613 -0.08297531 -0.08300702 -0.08306012 -0.08312494 -0.08319736
 -0.0832662 -0.08332799 -0.08336944 -0.08338682 -0.08337079 -0.08331742 -0.08323667 -0.08312751 -0.08302215 -0.08292235
 -0.08286221 -0.08284153 -0.08286688 -0.08293314 -0.08301269 -0.08310159 -0.08316899 -0.08321907 -0.08324591 -0.08325624
 -0.08325968 -0.08325738 -0.08325518 -0.08325011 -0.08324128 -0.08322752 -0.08320755 -0.08318235 -0.08315212 -0.08311711
 -0.08307689 -0.08303429 -0.08298878 -0.08294954 -0.08291709 -0.08290305 -0.08290812 -0.08293913 -0.08299574 -0.08307611
 -0.08317765 -0.08328576 -0.08339438 -0.08347322 -0.08351924 -0.08350521 -0.08344335 -0.08333833 -0.08321116 -0.08308915
 -0.08298259 -0.08291293 -0.08286858 -0.08285233 -0.0828397 -0.0828196 -0.08278682 -0.08273366 -0.08268486 -0.08264311
 -0.08262996 -0.08264974 -0.08268881 -0.08274674 -0.08278845 -0.08281328 -0.08280405 -0.08276467 -0.08270991 -0.08264524
 -0.08259894 -0.08257294 -0.08258842 -0.08263861 -0.08272483 -0.08283151 -0.08294142 -0.08304232 -0.08311801 -0.08316492
 -0.08317705 -0.0831533 -0.08308965 -0.08299641 -0.08287062 -0.08274698 -0.0826277 -0.08256173 -0.08255512 -0.08263369
 -0.08280002 -0.0829833 -0.08317572 -0.08323544 -0.08317341 -0.08298573 -0.08269887 -0.08241484 -0.08213831 -0.08193261
 -0.08178855 -0.08172113 -0.08171375 -0.08175568 -0.08182493 -0.08190086 -0.08196712 -0.0820064 -0.08202117 -0.0820063
 -0.08197673 -0.08193593 -0.08189183 -0.08184726 -0.08179864 -0.08174595 -0.08168463 -0.08161432 -0.08153866 -0.08145848
 -0.08138671 -0.08132461 -0.08128799 -0.08127516 -0.08129104 -0.08132708 -0.08136562 -0.0813969 -0.08139328 -0.08135772
 -0.08127878 -0.08117427 -0.08105261 -0.08093567 -0.08083764 -0.08077342 -0.08075417 -0.08077741 -0.08084848 -0.08094165
 -0.08105527 -0.08115572 -0.08123907 -0.08128629 -0.08129586 -0.08126767 -0.08120244 -0.08111246 -0.08099875 -0.08087473
 -0.08073934 -0.08059525 -0.08044197 -0.08027689 -0.08010674 -0.07994013 -0.0797876 -0.07966781 -0.07957949 -0.0795317
 -0.07950779 -0.07950046 -0.07949837 -0.07949342 -0.07948879 -0.07948449 -0.07948078 -0.07947857 -0.07947093 -0.07945658
 -0.07943898 -0.07941817 -0.07940523 -0.07940004 -0.0794023 -0.07941018 -0.07941064 -0.07940345 -0.07937986 -0.07934295
 -0.07929611 -0.07924224 -0.07918841 -0.07913493 -0.07908547 -0.07903787 -0.0789898 -0.07894519 -0.07890151 -0.07887759
 -0.07887941 -0.07892445 -0.07902468 -0.07915689 -0.07932457 -0.07946461 -0.07956975 -0.07960635 -0.07957138 -0.07947391
 -0.07931443 -0.07909974 -0.07883288 -0.07853413 -0.07821362 -0.07792159 -0.07766728 -0.07750333 -0.07742479 -0.07745799
 -0.07756425 -0.07771301 -0.07785337 -0.07792155 -0.0779209 -0.07782724 -0.077685 -0.07750692 -0.07732449 -0.07715169
 -0.07698951 -0.07684168 -0.07669384 -0.0765441 -0.07639033 -0.07623203 -0.07608243 -0.07594232 -0.07582624 -0.07573438
 -0.07567705 -0.07565074 -0.07565129 -0.07566575 -0.07565764 -0.07561848 -0.07550861 -0.07534669 -0.07513826 -0.07490635
 -0.07467657 -0.07445059 -0.07423981 -0.074029 -0.07381506 -0.0735838 -0.07332861 -0.07305215 -0.07275188 -0.07244621
 -0.0721367 -0.07183988 -0.07155727 -0.07128482 -0.07102149 -0.07074457 -0.0704549 -0.07014647 -0.06982414 -0.06950633
 -0.0691928 -0.06889317 -0.06860284 -0.0683177 -0.06803428 -0.06774803 -0.0674523 -0.06714116 -0.06680599 -0.06643833
 -0.06603958 -0.06560858 -0.06514722 -0.06465929 -0.06412701 -0.06354716 -0.06291004 -0.06221176 -0.06147561 -0.06070263
 -0.0599219 -0.05913432 -0.05835359 -0.05758007 -0.05682315 -0.05608305 -0.05536705 -0.05467259 -0.05399673 -0.05333679
 -0.05268696 -0.0520444 -0.05140786 -0.05076132 -0.05009501 -0.04938177 -0.04859606 -0.0477448 -0.04681689 -0.04585704
 -0.04487774 -0.04389966 -0.0429303 -0.04196687 -0.04100973 -0.04005674 -0.03910779 -0.03816025 -0.03721412 -0.03626986
 -0.03532818 -0.03439767 -0.03347383 -0.03254618 -0.03160147 -0.030592 -0.02952372 -0.02837384 -0.0271838 -0.02600352
 -0.02484784 -0.02375821 -0.02270166 -0.0216726 -0.0206321 -0.01955935 -0.0184432 -0.01727061 -0.01606959 -0.01484076
 -0.01362543 -0.01243017 -0.01126484 -0.01013154 -0.008997874 -0.007862179 -0.006690484 -0.005485903 -0.004257372 -0.003009308
 -0.001767692 -0.0005289073 0.0007039905 0.001935529 0.003173648 0.004418888 0.005674782 0.006942043 0.008224593 0.009515754
 0.0108161 0.01210707 0.01337841 0.01462815 0.01584849 0.01706837 0.01829193 0.01954203 0.02082412 0.02212655
 0.0234491 0.02477386 0.0261005 0.02742719 0.02875436 0.03008396 0.03141678 0.03275761 0.03410603 0.03546616
 0.03683041 0.03818588 0.03952754 0.04083708 0.0421318 0.04341713 0.04472069 0.04606719 0.04745276 0.04888801
 0.05033791 0.05179263 0.0532356 0.05466015 0.05607161 0.05747001 0.05885853 0.06023735 0.06161021 0.06297739
 0.06434442 0.06571086 0.06707509 0.0684371 0.06979495 0.07115144 0.0725138 0.07388385 0.07526918 0.07666874
 0.07808459 0.07951442 0.08095875 0.08240944 0.08386281 0.08530828 0.08673847 0.0881552 0.08955653 0.09095088
 0.09234132 0.09372199 0.0950931 0.09644333 0.09777151 0.09908132 0.1003731 0.1016541 0.1029248 0.1041882
 0.1054478 0.106721 0.1080112 0.1093414 0.1107016 0.1120855 0.1134771 0.114849 0.1162009 0.1175202
 0.1188186 0.120101 0.1213735 0.1226412 0.123902 0.1251576 0.1263982 0.1276228 0.1288173 0.1299779
 0.1311136 0.132224 0.1333476 0.134486 0.135658 0.13686 0.1380686 0.1392824 0.140481 0.1416697
 0.1428555 0.1440382 0.1452224 0.1464031 0.1475725 0.1487341 0.149888 0.1510385 0.1521914 0.1533378
 0.1544752 0.1555955 0.1566935 0.157776 0.158843 0.1599045 0.1609621 0.162021 0.1630819 0.1641452
 0.1652105 0.1662651 0.1673082 0.1683246 0.1693183 0.1702989 0.1712724 0.1722638 0.1732692 0.1742942
 0.1753301 0.1763652 0.1773987 0.1784259 0.179447 0.1804629 0.1814667 0.182455 0.1834242 0.1843718
 0.1852992 0.1862069 0.1870919 0.1879529 0.1887941 0.1896148 0.1904356 0.1912572 0.192092 0.192938
 0.1937836 0.1946277 0.1954585 0.1962785 0.1970888 0.1978905 0.1986854 0.1994748 0.2002602 0.2010459
 0.2018389 0.2026349 0.2034362 0.2042273 0.2050004 0.2057497 0.2064687 0.2071694 0.2078525 0.2085331
 0.2092132 0.2099043 0.2106077 0.2113303 0.212072 0.2128246 0.2135862 0.2143383 0.2150812 0.2158073
 0.2165176 0.2172126 0.2178873 0.2185317 0.2191412 0.2197016 0.2202204 0.2206969 0.2211471 0.221581
 0.2220111 0.2224463 0.2228904 0.2233477 0.2238117 0.224282 0.2247499 0.2252134 0.2256747 0.2261339
 0.2265946 0.2270564 0.2275017 0.2279288 0.2283126 0.2286566 0.2289631 0.2292395 0.2295107 0.2297783
 0.2300587 0.2303476 0.2306455 0.2309495 0.2312565 0.2315652 0.2318723 0.2321828 0.2324951 0.2328257
 0.2331807 0.2335679 0.2339953 0.2344326 0.2348801 0.2352811 0.2356307 0.2358968 0.2360788 0.2361996
 0.2362637 0.2363245 0.236382 0.2364673 0.2365729 0.2366898 0.2368187 0.2369515 0.2371052 0.2373048
 0.2375517 0.2378697 0.2382136 0.2385646 0.2388711 0.239093 0.239245 0.2393131 0.2393686 0.2394257
 0.2395286 0.2396906 0.239887 0.2401187 0.2403303 0.2405195 0.2406517 0.2407289 0.2407559 0.2407402
 0.2407209 0.2407075 0.2407516 0.2408542 0.2410475 0.2413131 0.2416447 0.2420064 0.2423608 0.2426782
 0.242919 0.2430939 0.2431882 0.2432555 0.243307 0.2433958 0.2435373 0.243749 0.2440358 0.2443989
 0.2448382 0.2453665 0.2459841 0.2466933 0.2474881 0.248313 0.2491517 0.2498912 0.2505218 0.2509426
 0.2511784 0.2512185 0.2511274 0.2509909 0.2508691 0.2508674 0.2509791 0.2512503 0.2515968 0.2519993
 0.2523546 0.2526229 0.2527476 0.252702 0.2525038 0.2521453 0.2517059 0.2511898 0.2506888 0.2502072
 0.2497917 0.2494397 0.2491426 0.2488962 0.2486742 0.2484761 0.2482881 0.2481098 0.2479381 0.2477619
 0.2475712 0.2473348 0.2470228 0.2465948 0.2460075 0.2452561 0.244312 0.2432421 0.2420519 0.2408449
 0.2396452 0.2385207 0.2374874 0.2365541 0.2357247 0.2349719 0.2342939 0.2336374 0.2329988 0.2323172
 0.2315977 0.2308297 0.230032 0.2292635 0.2285298 0.2278835 0.2272929 0.2267365 0.2261738 0.2255447
 0.2248526 0.2240684 0.2232472 0.2224032 0.221601 0.2208683 0.2202312 0.2197091 0.2192625 0.2188951
 0.2185133 0.21811 0.2176039 0.216991 0.2162696 0.2154458 0.2145863 0.2136977 0.2128494 0.2120402
 0.2113036 0.2106334 0.2100345 0.2094939 0.2089979 0.2085249 0.2080473 0.207549 0.2070061 0.2064236
 0.2057947 0.2051395 0.2044629 0.2037815 0.2031004 0.2024264 0.2017615 0.2011057 0.2004595 0.1998146
 0.1991705 0.1985134 0.1978431 0.1971531 0.1964464 0.1957339 0.1950206 0.1943287 0.1936597 0.19303
 0.1924326 0.1918664 0.1913168 0.1907694 0.1902083 0.1896168 0.1889868 0.1883074 0.1875866 0.1868219
 0.186035 0.1852296 0.184426 0.183628 0.1828431 0.1820725 0.1813148 0.1805699 0.1798362 0.1791131
 0.1783959 0.1776837 0.1769677 0.1762486 0.1755225 0.174793 0.1740662 0.1733442 0.172635 0.1719338
 0.1712393 0.170545 0.1698417 0.1691384 0.1684304 0.1677532 0.1671171 0.1665543 0.1660829 0.1656724
 0.1653295 0.1649515 0.1645303 0.1639747 0.1632797 0.1624565 0.1615135 0.1605564 0.1595947 0.1587398
 0.1579857 0.1573776 0.1568879 0.1564829 0.1561225 0.1557273 0.1552756 0.154701 0.1540357 0.1532714
 0.1524797 0.1516984 0.1509656 0.1503135 0.1497108 0.1491567 0.1486147 0.1480725 0.1475612 0.14708
 0.1466991 0.1464224 0.1462654 0.1462211 0.1462094 0.1462167 0.1461204 0.145919 0.1455344 0.1449914
 0.1443013 0.1435069 0.142682 0.1418545 0.1410905 0.1403801 0.1397395 0.1391448 0.1385825 0.1380548
 0.1375572 0.1371043 0.1367043 0.1363358 0.136 0.1356486 0.1352752 0.1348734 0.1344427 0.134038
 0.1336615 0.1333608 0.1331288 0.1329497 0.1328118 0.1326638 0.1325052 0.1323071 0.1320799 0.1318293
 0.1315599 0.1312848 0.130987 0.1306636 0.1302799 0.1298155 0.1292509 0.1285639 0.127793 0.1269323
 0.1260771 0.1252395 0.1245036 0.1238829 0.1233729 0.1229742 0.1225948 0.1222294 0.1217816 0.1212563
 0.1206297 0.1199189 0.1191716 0.1184016 0.1176683 0.1169704 0.1163345 0.1157482 0.1152089 0.1147008
 0.1142125 0.113727 0.1132322 0.1127182 0.1121746 0.1116159 0.1110403 0.1104801 0.1099423 0.1094336
 0.1089582 0.1084713 0.1079707 0.1074075 0.1067835 0.1061127 0.1054036 0.1047198 0.1040591 0.1034532
 0.1028832 0.102317 0.1017451 0.1011285 0.1004882 0.0998297 0.09918219 0.09857505 0.09801244 0.09750771
 0.09704614 0.09662313 0.09623601 0.09588125 0.0955703 0.09530561 0.09508801 0.09491963 0.09477585 0.09465554
 0.09451346 0.09434707 0.09410966 0.09380314 0.09341124 0.0929466 0.09244324 0.09192 0.09144016 0.09101356
 0.09068806 0.09045699 0.09033284 0.09030129 0.09035476 0.09048254 0.09067657 0.09093145 0.09124412 0.09160919
 0.09202559 0.09248528 0.09298636 0.09352616 0.09410264 0.09473485 0.09542357 0.0962139 0.0971081 0.09815033
 0.0993366 0.1006684 0.1021312 0.1036737 0.1052803 0.1068845 0.1084836 0.1100403 0.111567 0.1130633
 0.1145425 0.1160174 0.1174902 0.1189667 0.1204419 0.1219155 0.1233811 0.1248395 0.1262728 0.1276823
 0.1290251 0.1302992 0.1314437 0.1324548 0.1332798 0.1339175 0.1343435 0.1345612 0.1345772 0.1344011
 0.134066 0.1335937 0.1330449 0.1324585 0.1319212 0.1314776 0.1312164 0.131157 0.1313534 0.1317782
 0.1324382 0.1332774 0.1342776 0.1353922 0.1366053 0.1378915 0.1392451 0.1406473 0.1420967 0.1435686
 0.1450614 0.1465426 0.1480103 0.1494315 0.1508079 0.1521301 0.1534096 0.1546824 0.1559637 0.1573168
 0.1587315 0.1602429 0.1617705 0.1632718 0.1645564 0.1654956 0.1658128 0.1653235 0.163829 0.1611627
 0.157433 0.152571 0.1470486 0.1409002 0.134736 0.1286225 0.1229932 0.1178812 0.1133989 0.1095392
 0.1061826 0.1033121 0.1007589 0.09851649 0.09647288 0.09462459 0.0929108 0.09132062 0.08980826 0.08836532
 0.08695912 0.08560059 0.08428384 0.08303442 0.08186583 0.08079473 0.07983316 0.07897889 0.07823454 0.07759061
 0.07704536 0.07659519 0.07623874 0.07598414 0.07583178 0.07579486 0.07587224 0.07604978 0.07631627 0.07659291
 0.0768593 0.07699017 0.07697873 0.07673295 0.07628326 0.07562951 0.07483435 0.07396825 0.07309689 0.07229787
 0.07161525 0.07109676 0.07075809 0.07061599 0.07067358 0.07093027 0.07140919 0.07211097 0.07308083 0.07433062
 0.0758236 0.07756367 0.07925496 0.08086649 0.08182439 0.08209863 0.08116263 0.07908628 0.07581787 0.07155202
 0.06674976 0.06160551 0.05669692 0.05207521 0.04806326 0.04455826 0.04159231 0.03901923 0.03675672 0.03472106
 0.03285339 0.03114051 0.02956826 0.0281379 0.02685091 0.02568718 0.02464652 0.02369197 0.02282126 0.02200059
 0.02122876 0.02048612 0.01977265 0.01907901 0.01840505 0.01774435 0.01709835 0.01646624 0.01585266 0.01526696
 0.01470904 0.01418679 0.01368584 0.01319917 0.01270622 0.01218946 0.01164818 0.01107119 0.01049106 0.009911067
 0.009375415 0.00889487 0.008483414 0.008147598 0.007849926 0.007589038 0.0073043 0.006994187 0.006632597 0.00622525
 0.005802546 0.005369785 0.004969576 0.004592991 0.004240368 0.003895093 0.00352257 0.003123095 0.0026763 0.002206992
 0.001727967 0.00126598 0.0008434274 0.0004666133 0.0001461831 -0.0001298499 -0.0003604286 -0.0005680087 -0.0007543275 -0.0009505682
 -0.001160084 -0.001409586 -0.001701626 -0.00203436 -0.00240643 -0.002787005 -0.003174289 -0.00353931 -0.003884663 -0.004205821
 -0.004506428 -0.004795434 -0.005071567 -0.005337246 -0.005588618 -0.005820396 -0.006033589 -0.006225848 -0.006403337 -0.006569523
 -0.006727542 -0.006880123 -0.007025877 -0.007163329 -0.007299141 -0.007432096 -0.007583089 -0.007754352 -0.0079624 -0.008209149
 -0.00848333 -0.008783489 -0.009077159 -0.00936355 -0.009620214 -0.009851199 -0.01006135 -0.01025593 -0.01045326 -0.01065281
 -0.01086398 -0.01107931 -0.01129299 -0.01149851 -0.01168511 -0.0118585 -0.01201559 -0.01217502 -0.0123429 -0.01253691
 -0.01276518 -0.01302855 -0.01333067 -0.01365472 -0.01399989 -0.0143452 -0.01468903 -0.01501963 -0.01533684 -0.01564137
 -0.01593389 -0.01622032 -0.01650031 -0.01677579 -0.01704524 -0.01730518 -0.01755518 -0.0177923 -0.01801807 -0.01823291
 -0.01843942 -0.01863969 -0.01883688 -0.01903304 -0.01923191 -0.01943563 -0.01964618 -0.01986495 -0.02009081 -0.02032399
 -0.0205618 -0.020804 -0.02104807 -0.0212939 -0.02153731 -0.02177793 -0.02200815 -0.02222735 -0.0224268 -0.02260665
 -0.02276179 -0.02289516 -0.02301084 -0.02311504 -0.02322111 -0.02333455 -0.02346938 -0.02362482 -0.02380641 -0.02400757
 -0.02422613 -0.02445549 -0.02469238 -0.02493229 -0.02517377 -0.02541184 -0.02564545 -0.02587041 -0.02608582 -0.02629183
 -0.02648826 -0.0266789 -0.02686394 -0.02704695 -0.02722807 -0.02741001 -0.0275929 -0.02777894 -0.02796764 -0.02815894
 -0.02835173 -0.0285436 -0.02873439 -0.0289224 -0.0291092 -0.0292955 -0.02948306 -0.02967371 -0.02986663 -0.03006254
 -0.03025784 -0.03045166 -0.03064102 -0.03082467 -0.03100424 -0.03117927 -0.03135667 -0.03153688 -0.03172575 -0.0319233
 -0.03212696 -0.03233562 -0.03253856 -0.03273546 -0.03291813 -0.03308935 -0.0332522 -0.03341114 -0.0335771 -0.03375112
 -0.03394071 -0.03414086 -0.03435041 -0.03456192 -0.03476986 -0.03497066 -0.0351604 -0.03534184 -0.03551433 -0.03568411
 -0.03585209 -0.03602413 -0.03620119 -0.03638596 -0.03657886 -0.03677754 -0.03698176 -0.03718448 -0.03738521 -0.03757642
 -0.03775872 -0.03793036 -0.03809353 -0.03825375 -0.03841268 -0.03857687 -0.03874515 -0.03891902 -0.03909582 -0.03927306
 -0.03945025 -0.03962589 -0.03980153 -0.03997799 -0.04015462 -0.04033203 -0.04050622 -0.04067654 -0.04083964 -0.04099454
 -0.04114387 -0.04128753 -0.04143388 -0.04158334 -0.04174317 -0.04191291 -0.0420919 -0.04227854 -0.04246485 -0.04264995
 -0.04282657 -0.04299593 -0.04315671 -0.04331097 -0.04346118 -0.0436083 -0.04375429 -0.04389893 -0.04404263 -0.04418493
 -0.04432571 -0.04446457 -0.04460131 -0.04473574 -0.04486748 -0.04499833 -0.04512815 -0.04526126 -0.04539794 -0.04554278
 -0.04569593 -0.04585757 -0.04602691 -0.04619692 -0.04636647 -0.04652597 -0.04667585 -0.0468116 -0.04693589 -0.04705179
 -0.04716203 -0.04727193 -0.04738241 -0.04749607 -0.04761357 -0.04773577 -0.04786419 -0.04800021 -0.04814279 -0.04829291
 -0.04844434 -0.0485962 -0.04874201 -0.0488802 -0.04901242 -0.04913843 -0.04926598 -0.04939536 -0.04953016 -0.04966995
 -0.04981154 -0.0499549 -0.05009793 -0.0502415 -0.05038749 -0.05053578 -0.05068748 -0.0508409 -0.05099339 -0.05114554
 -0.05129627 -0.05144864 -0.05160495 -0.05176546 -0.05193209 -0.05209944 -0.05226652 -0.05242749 -0.05258049 -0.05272477
 -0.05285962 -0.0529887 -0.05311218 -0.05323472 -0.05335654 -0.05348038 -0.05360628 -0.05373517 -0.05386746 -0.0540054
 -0.05414996 -0.0543061 -0.05447266 -0.05465138 -0.05483616 -0.05501974 -0.05519491 -0.0553501 -0.05548641 -0.05559862
 -0.05569794 -0.05578782 -0.05587906 -0.05597692 -0.05608262 -0.05619785 -0.05631855 -0.05644413 -0.05657377 -0.05670735
 -0.05684524 -0.05698736 -0.05712908 -0.05726982 -0.05740173 -0.0575252 -0.05763735 -0.05774023 -0.05783858 -0.05793438
 -0.05803426 -0.05813879 -0.05825195 -0.05837281 -0.05850247 -0.05863795 -0.05877822 -0.05891849 -0.05905648 -0.05918803
 -0.05931084 -0.05942497 -0.05952941 -0.05962859 -0.05972277 -0.05981748 -0.05991327 -0.06001285 -0.06011629 -0.06022239
 -0.06033088 -0.06043855 -0.06054521 -0.06064819 -0.06074752 -0.06084174 -0.06093142 -0.06101678 -0.06109921 -0.06118084
 -0.06126283 -0.06134764 -0.06143441 -0.06152352 -0.06161323 -0.06170236 -0.0617915 -0.06188029 -0.06197106 -0.06206463
 -0.06216045 -0.06225891 -0.06235596 -0.06245119 -0.06254299 -0.06263132 -0.06271982 -0.06280872 -0.06290229 -0.06299967
 -0.06309921 -0.0631991 -0.06329247 -0.06337877 -0.06345259 -0.06351653 -0.06357145 -0.06362182 -0.06367281 -0.06372689
 -0.06378812 -0.06385495 -0.06392805 -0.06400398 -0.06408183 -0.06415872 -0.06423391 -0.06430548 -0.06437305 -0.06443536
 -0.06449213 -0.06454474 -0.06459329 -0.06464282 -0.0646937 -0.06475172 -0.06481671 -0.06489073 -0.06497335 -0.06506367
 -0.06516265 -0.06527107 -0.06539214 -0.06553039 -0.06569008 -0.06587651 -0.06609506 -0.06634966 -0.06664893 -0.06699675
 -0.06740405 -0.06787602 -0.06841631 -0.06902876 -0.06970204 -0.07043663 -0.07121008 -0.07202118 -0.07284304 -0.07367405
 -0.0744778 -0.07525 -0.07593425 -0.07652205 -0.07693808 -0.07717715 -0.07717638 -0.07694951 -0.07648381 -0.07582594
 -0.07503166 -0.07416582 -0.07331792 -0.0725294 -0.07185867 -0.07132158 -0.07093849 -0.07072077 -0.07067867 -0.07080802
 -0.07112244 -0.07154155 -0.07206733 -0.07253364 -0.07292412 -0.07314979 -0.0732065 -0.07316675 -0.07303674 -0.07291296
 -0.07279133 -0.07270011 -0.07262775 -0.07254981 -0.07246025 -0.07232974 -0.07216721 -0.07197145 -0.0717584 -0.0715469
 -0.0713414 -0.07115457 -0.0709748 -0.07079995 -0.07061817 -0.0704226 -0.07021657 -0.06999774 -0.06978156 -0.06956995
 -0.06937469 -0.0691975 -0.06903788 -0.0688958 -0.06876213 -0.06863662 -0.06851348 -0.06839354 -0.06827877 -0.06816977
 -0.06807011 -0.06797863 -0.06789479 -0.06781657 -0.0677404 -0.06766543 -0.06758883 -0.06751212 -0.06743508 -0.06736085
 -0.06729127 -0.06722745 -0.06717085 -0.06711878 -0.06707109 -0.06702429 -0.06697746 -0.06693158 -0.06688645 -0.06684634
 -0.06681146 -0.06678461 -0.06676562 -0.06675342 -0.06674764 -0.06674562 -0.06674746 -0.06675212 -0.06675985 -0.06677119
 -0.06678513 -0.06680103 -0.06681596 -0.06682636 -0.06683031 -0.06682436 -0.06681063 -0.06678895 -0.06676275 -0.06673383
 -0.06670167 -0.06666671 -0.06662665 -0.06658061 -0.06653178 -0.06648002 -0.06643363 -0.06639306 -0.06636275 -0.06634215
 -0.06632592 -0.06631285 -0.06629278 -0.06626589 -0.06622663 -0.06617765 -0.06612213 -0.06606293 -0.06600665 -0.06595337
 -0.06590613 -0.06586292 -0.06582283 -0.06578515 -0.06574894 -0.06571515 -0.06568418 -0.06565572 -0.06563022 -0.06560473
 -0.06557901 -0.06554956 -0.06551587 -0.06547745 -0.06543425 -0.06538997 -0.0653449 -0.065304 -0.06526687 -0.06523397
 -0.06520415 -0.06517337 -0.06514142 -0.06510554 -0.06506688 -0.06502663 -0.06498452 -0.064941 -0.06489485 -0.06484417
 -0.06479177 -0.06473744 -0.06468809 -0.0646468 -0.06461541 -0.06459657 -0.06458122 -0.06456893 -0.06454754 -0.06451546
 -0.06447005 -0.06441104 -0.06434778 -0.06428093 -0.06422211 -0.06417098 -0.06413185 -0.06410306 -0.06408111 -0.06406441
 -0.06404745 -0.06402941 -0.06400653 -0.06397859 -0.06394343 -0.06390266 -0.06385585 -0.0638078 -0.06376056 -0.06371906
 -0.06368612 -0.06366195 -0.06364795 -0.06363866 -0.06363387 -0.06362574 -0.0636135 -0.06359132 -0.06355879 -0.06351642
 -0.06346462 -0.06341007 -0.0633532 -0.06330056 -0.0632514 -0.06320654 -0.06316508 -0.06312485 -0.06308631 -0.06304935
 -0.06301419 -0.06298192 -0.0629499 -0.06291658 -0.06287921 -0.06283505 -0.06278581 -0.06273083 -0.06267493 -0.0626194
 -0.06256644 -0.06251694 -0.06246915 -0.06242288 -0.0623778 -0.06233386 -0.0622941 -0.06225869 -0.06223051 -0.06220932
 -0.06219536 -0.06218788 -0.06218459 -0.0621838 -0.06218063 -0.06217273 -0.0621534 -0.06212286 -0.0620774 -0.06202211
 -0.0619594 -0.06189493 -0.06183321 -0.06177487 -0.06172121 -0.06167139 -0.06162459 -0.06158477 -0.06155235 -0.06153166
 -0.06152382 -0.06152299 -0.06152897 -0.0615272 -0.06151723 -0.06148974 -0.06144629 -0.06139179 -0.06132891 -0.06127081
 -0.06121779 -0.06117832 -0.06114863 -0.06112665 -0.0611077 -0.06108449 -0.06105686 -0.06102119 -0.06098192 -0.06094073
 -0.06090047 -0.06086332 -0.06082752 -0.06079298 -0.0607581 -0.06072209 -0.06068809 -0.06065622 -0.06063087 -0.06061234
 -0.06059969 -0.06059251 -0.06058419 -0.06057438 -0.06055702 -0.06053298 -0.06050206 -0.06046583 -0.06042834 -0.06038997
 -0.06035356 -0.06031784 -0.06028211 -0.06024608 -0.06020857 -0.06017194 -0.06013707 -0.06010638 -0.06008155 -0.06006169
 -0.06004746 -0.06003474 -0.0600229 -0.06000903 -0.05999257 -0.05997415 -0.05995376 -0.0599338 -0.05991434 -0.05989672
 -0.05988094 -0.05986748 -0.05985666 -0.05985007 -0.05984807 -0.05985301 -0.05986349 -0.05987882 -0.05989588 -0.05991039
 -0.05992078 -0.05992345 -0.05992067 -0.0599126 -0.05990192 -0.05989048 -0.05987662 -0.0598607 -0.05983858 -0.05980915
 -0.05977267 -0.05972867 -0.05968281 -0.05963542 -0.05959149 -0.05955102 -0.05951396 -0.05948003 -0.05944711 -0.05941547
 -0.05938497 -0.05935651 -0.05933239 -0.05931318 -0.05930134 -0.05929586 -0.05929734 -0.05930213 -0.05930812 -0.05931012
 -0.05930441 -0.05928829 -0.0592589 -0.05921918 -0.05916852 -0.05911421 -0.05905724 -0.05900412 -0.05895589 -0.05891392
 -0.05887846 -0.05884572 -0.05881544 -0.05878219 -0.05874611 -0.05870528 -0.05866047 -0.05861367 -0.05856567 -0.05851988
 -0.05847595 -0.0584352 -0.05839592 -0.05835653 -0.0583156 -0.05827058 -0.05822335 -0.05817363 -0.05812565 -0.05808158
 -0.05804192 -0.05800822 -0.05797481 -0.05794115 -0.05790132 -0.05785428 -0.05780033 -0.05773938 -0.05767537 -0.05760846
 -0.05754143 -0.05747429 -0.05740841 -0.0573437 -0.05728079 -0.05721888 -0.0571564 -0.05709205 -0.05702233 -0.05694779
 -0.05686672 -0.05678302 -0.05669886 -0.0566192 -0.05654823 -0.0564865 -0.05643648 -0.05639223 -0.05635302 -0.05631203
 -0.05626751 -0.05621807 -0.05616333 -0.05610368 -0.05603918 -0.05596743 -0.05588842 -0.05580175 -0.05570836 -0.05561512
 -0.05552283 -0.05543916 -0.05536266 -0.05529349 -0.05522968 -0.05516732 -0.05510619 -0.05504429 -0.05498223 -0.05492013
 -0.05485768 -0.05479477 -0.05473103 -0.0546664 -0.05460013 -0.05453217 -0.05446124 -0.05438709 -0.05430907 -0.05422704
 -0.05414127 -0.05405174 -0.05395972 -0.05386547 -0.0537737 -0.05368503 -0.0536067 -0.05353807 -0.05348125 -0.0534334
 -0.05338823 -0.05334301 -0.05328965 -0.0532271 -0.05315054 -0.05306057 -0.05295467 -0.0528384 -0.05271259 -0.0525883
 -0.0524704 -0.05236579 -0.05227898 -0.05220485 -0.05214412 -0.05208524 -0.05202702 -0.05196059 -0.0518852 -0.05179774
 -0.05169825 -0.05158874 -0.0514698 -0.05134674 -0.05122 -0.05109417 -0.05096954 -0.05084895 -0.05073308 -0.05062469
 -0.05052356 -0.05043135 -0.05034502 -0.05026292 -0.05018112 -0.05009653 -0.05000748 -0.04991227 -0.04981139 -0.04970406
 -0.04959405 -0.04948135 -0.04937302 -0.04927009 -0.04917547 -0.04908964 -0.04900599 -0.0489242 -0.048838 -0.04874812
 -0.04865768 -0.04856739 -0.04848275 -0.04840204 -0.04832404 -0.04824516 -0.04815801 -0.04806032 -0.04794471 -0.04781451
 -0.04766821 -0.04751568 -0.04736225 -0.04721629 -0.04708456 -0.04696331 -0.04685454 -0.04674479 -0.04663142 -0.04650746
 -0.04637086 -0.04622766 -0.04607795 -0.045934 -0.0457964 -0.04567638 -0.04557325 -0.04548866 -0.0454182 -0.04534413
 -0.04526166 -0.04514517 -0.04500001 -0.04482227 -0.04462402 -0.04442097 -0.04421794 -0.04402518 -0.043843 -0.04367367
 -0.04351915 -0.04338166 -0.04325854 -0.04315139 -0.04304792 -0.04294668 -0.04283445 -0.0427092 -0.04256502 -0.04240113
 -0.04222009 -0.04202241 -0.04182085 -0.0416164 -0.04142394 -0.04124204 -0.04107298 -0.04091331 -0.04075372 -0.04059371
 -0.04042755 -0.04025693 -0.04008267 -0.03990371 -0.03971911 -0.03952868 -0.03933121 -0.03912966 -0.03892589 -0.03871839
 -0.03850801 -0.03828834 -0.03805768 -0.03781544 -0.03756078 -0.03729983 -0.03703301 -0.0367633 -0.03649069 -0.03621396
 -0.03593258 -0.03564233 -0.03534179 -0.03502126 -0.0346817 -0.03431916 -0.03393932 -0.03355224 -0.03316011 -0.03277169
 -0.0323824 -0.03199032 -0.03159353 -0.03118848 -0.03078054 -0.03037145 -0.02996452 -0.02956229 -0.02916058 -0.02876007
 -0.02835022 -0.02793081 -0.02748342 -0.02700642 -0.02649279 -0.02594322 -0.02538441 -0.02481763 -0.02426764 -0.02372906
 -0.02319036 -0.02264555 -0.02206945 -0.02146371 -0.02081914 -0.02014069 -0.01943166 -0.01869524 -0.01793483 -0.01715489
 -0.01636188 -0.01554917 -0.01472106 -0.01384754 -0.01291838 -0.01192157 -0.01084499 -0.009738158 -0.00860524 -0.00749188
 -0.006403475 -0.005324938 -0.004255594 -0.003177437 -0.002093127 -0.001022713 3.601175E-05 0.001076514 0.002116293 0.003204972
 0.00435356 0.005619165 0.006973786 0.008406647 0.009879184 0.01134146 0.0127977 0.01423194 0.01566886 0.0171188
 0.0185878 0.02008068 0.02159309 0.02311782 0.02469518 0.02632146 0.02811121 0.03007465 0.03226243 0.03467105
 0.03711506 0.03958416 0.04189478 0.04407484 0.04616211 0.04818597 0.05025842 0.0523795 0.05460072 0.05691672
 0.05932616 0.06186846 0.06456004 0.06749993 0.07075994 0.07440311 0.0785186 0.08295853 0.0877301 0.0925369
 0.09731234 0.1018997 0.106259 0.1104131 0.1143567 0.1182009 0.1219546 0.1258388 0.1298762 0.1343976
 0.1393672 0.144844 0.1506596 0.1562899 0.1617088 0.1665486 0.1710163 0.1752619 0.1794346 0.1837649
 0.1882412 0.1929303 0.1977711 0.2027416 0.2078334 0.2130556 0.2183269 0.2236434 0.2288661 0.2339633
 0.2389686 0.243881 0.2487798 0.2536628 0.2583463 0.2628123 0.2667931 0.2703226 0.273416 0.2761394
 0.2787256 0.2811643 0.2835736 0.285848 0.2878525 0.2896005 0.291026 0.2922555 0.2933723 0.2944107
 0.2954239 0.2963515 0.2971854 0.2978735 0.2984028 0.2987461 0.2989003 0.298828 0.2985247 0.2979885
 0.2972213 0.2963182 0.295283 0.2941965 0.293046 0.2918088 0.2904732 0.2889816 0.2873522 0.2855795
 0.2837258 0.2818751 0.2800851 0.2784558 0.2769831 0.2756975 0.2745714 0.273591 0.2727666 0.2720945
 0.2716048 0.2713069 0.2711987 0.2712826 0.2715392 0.2719664 0.2725603 0.2733207 0.2742538 0.2753591
 0.2766344 0.2780763 0.279666 0.2813983 0.283245 0.2852072 0.2872695 0.2894459 0.2917487 0.2941956
 0.2968105 0.2996013 0.3025813 0.3057497 0.3091065 0.3126602 0.3164073 0.3203845 0.324599 0.3290807
 0.3338444 0.3388223 0.3440154 0.3492647 0.3545623 0.3598004 0.3649767 0.37005 0.374988 0.3796098
 0.3838651 0.387463 0.39046 0.3928128 0.3946503 0.3961605 0.397393 0.3984823 0.399397 0.4001525
 0.4007231 0.4011109 0.401255 0.4011673 0.4006502 0.3996592 0.398064 0.3957957 0.3931982 0.3902928
 0.3873906 0.3845031 0.3815102 0.3784037 0.3750492 0.371466 0.3676901 0.363739 0.3597174 0.3555598
 0.3512346 0.3465218 0.3410617 0.3347396 0.3271143 0.3187537 0.3098966 0.3011072 0.2928594 0.2849287
 0.2773373 0.2698453 0.2623472 0.255029 0.2478929 0.2412006 0.2349868 0.229206 0.2238548 0.2186954
 0.2137225 0.208795 0.2039325 0.1991682 0.1945194 0.1900706 0.1858042 0.1817281 0.177807 0.1739879
 0.1702547 0.1665779 0.1629287 0.1593089 0.1555892 0.1517207 0.1475502 0.1429337 0.1381665 0.1332232
 0.1287717 0.1249561 0.1217876 0.1193035 0.1170294 0.1149428 0.1127305 0.1104031 0.1079764 0.1054819
 0.1031111 0.1008539 0.09877981 0.09685731 0.09502976 0.09332663 0.091751 0.09038433 0.0893257 0.08859767
 0.08826518 0.08826876 0.08859704 0.0891922 0.09002738 0.09108768 0.09235682 0.09387896 0.09564969 0.09778428
 0.100296 0.1032283 0.1065815 0.1100588 0.1136323 0.1168666 0.1197765 0.1222179 0.1242302 0.1258731
 0.1271636 0.1281586 0.1288854 0.129391 0.1297496 0.1300424 0.1303705 0.1308457 0.131487 0.1323658
 0.1333438 0.1343857 0.1353955 0.1363284 0.1372294 0.1380962 0.1389991 0.1399456 0.1409614 0.1420479
 0.1431822 0.1443629 0.1455611 0.146784 0.1480507 0.1493818 0.1508581 0.1524931 0.1543688 0.1564577
 0.1587533 0.161226 0.1638227 0.1665824 0.1695115 0.1726655 0.1760905 0.1797596 0.1836869 0.18778
 0.192014 0.1963561 0.2007888 0.2053801 0.210138 0.2150746 0.2201899 0.2252411 0.2302061 0.2347353
 0.2388347 0.2423619 0.2453382 0.2477764 0.2496554 0.2509405 0.2515874 0.2514985 0.2506781 0.249075
 0.2467635 0.2437733 0.2401987 0.2360943 0.2315259 0.2265245 0.2211389 0.2153664 0.2093439 0.2030694
 0.1968289 0.1906473 0.1847577 0.1791736 0.173878 0.1688609 0.1639809 0.159245 0.1546156 0.1501248
 0.1458729 0.1418677 0.1381905 0.1348014 0.1316777 0.1287674 0.1260047 0.123352 0.1207593 0.1182085
 0.1156724 0.1131631 0.1106746 0.1082412 0.105872 0.1035815 0.1013769 0.09923465 0.09715302 0.09511357
 0.09311517 0.091197 0.08936452 0.08770215 0.08621013 0.08493804 0.08387084 0.08298302 0.08225706 0.08163773
 0.08111909 0.08066581 0.08028208 0.07996047 0.07970276 0.07951317 0.07937557 0.07928876 0.07921674 0.07914984
 0.07904752 0.07889977 0.07867242 0.07835931 0.07793418 0.07739315 0.07672924 0.07594176 0.07505565 0.07407371
 0.07303885 0.07195446 0.07086097 0.06976286 0.0686963 0.06766702 0.06670638 0.06581797 0.06502146 0.06431802
 0.06371686 0.06321633 0.06282074 0.06251886 0.06230969 0.06216978 0.06209251 0.06205229 0.06204243 0.06204283
 0.06205022 0.06204591 0.06202806 0.06197973 0.06189986 0.06178146 0.06162496 0.06143479 0.061212 0.06096543
 0.06069516 0.06040696 0.06009854 0.05976792 0.0594113 0.05902063 0.05859573 0.05813164 0.05763415 0.05710591
 0.0565527 0.05597852 0.05538624 0.05477651 0.05415623 0.05352554 0.05289872 0.05227772 0.05167527 0.05109312
 0.05053507 0.05000145 0.04949009 0.0490009 0.04853162 0.04808277 0.04765578 0.04725236 0.04687902 0.04653813
 0.04623827 0.04598201 0.04577709 0.04562593 0.04553536 0.04550347 0.04553397 0.04561447 0.04574146 0.04589703
 0.04607306 0.04626103 0.0464564 0.04666075 0.04687464 0.0470935 0.0473179 0.04753099 0.04773184 0.04790617
 0.04805408 0.0481749 0.04826997 0.04834773 0.04840858 0.04845966 0.04849801 0.04852165 0.04852344 0.04849096
 0.04841746 0.04828861 0.04810541 0.04786186 0.04756759 0.04722567 0.04684621 0.04643431 0.04599356 0.04552609
 0.04503161 0.04450992 0.04396376 0.04339291 0.04280553 0.04220207 0.04159147 0.04097393 0.04035351 0.03972974
 0.03910156 0.03846885 0.03783023 0.03718674 0.03654 0.03589165 0.0352455 0.03460192 0.03396346 0.03332811
 0.03269508 0.03206253 0.03142776 0.03079511 0.03016411 0.02954526 0.02894184 0.0283578 0.02779646 0.02724347
 0.02669874 0.02613705 0.02555675 0.02494482 0.02430218 0.02364255 0.02296966 0.02231516 0.02168125 0.02109424
 0.02055163 0.0200606 0.01961746 0.01921742 0.01886247 0.01855077 0.01829179 0.01809155 0.01796119 0.01790836
 0.01794092 0.01806325 0.018281 0.01859597 0.01901383 0.01953612 0.02016457 0.02090049 0.02173322 0.0226625
 0.02366083 0.02472615 0.02582169 0.02694638 0.02807336 0.02920634 0.03034395 0.03149368 0.03267475 0.03389045
 0.03515864 0.0364705 0.03782599 0.03920557 0.04059462 0.04197306 0.0433256 0.04463959 0.04590666 0.04712083
 0.04827913 0.04937829 0.05041687 0.05139616 0.05231528 0.05318538 0.05400681 0.0548037 0.05557805 0.05636467
 0.05716649 0.05802054 0.05892864 0.0599186 0.06098894 0.06215125 0.06339999 0.06473171 0.06613864 0.06761075
 0.06913985 0.07071825 0.07233263 0.07397957 0.0756269 0.0772697 0.07884889 0.08035312 0.08171368 0.08291675
 0.08391775 0.08470791 0.08528819 0.08565731 0.08585752 0.08589229 0.08582509 0.08565927 0.08545057 0.08519638
 0.08491776 0.08460614 0.0842483 0.08384109 0.08336745 0.08284167 0.08226982 0.08167944 0.08109456 0.08053982
 0.08003647 0.07959774 0.07923317 0.07895096 0.07875443 0.07865124 0.07864416 0.07873157 0.07891484 0.07917749
 0.07951867 0.07991955 0.08037955 0.08089025 0.08145113 0.08205629 0.08270227 0.0833732 0.08406264 0.08474772
 0.08541854 0.0860507 0.08662669 0.08711775 0.08750304 0.08775343 0.08786133 0.0878102 0.08761343 0.08726986
 0.08680332 0.0862174 0.08554251 0.08478078 0.08397928 0.08314136 0.08232515 0.08153474 0.08081 0.08015145
 0.07956284 0.07904174 0.07857127 0.07815155 0.07777312 0.07744013 0.07715949 0.07693338 0.07677179 0.07666744
 0.07661853 0.07660811 0.07662276 0.07664366 0.07665635 0.07664741 0.07660809 0.07653134 0.07641423 0.07625039
 0.07604007 0.07576682 0.07543045 0.07500014 0.07447388 0.07382516 0.07305402 0.07216572 0.07116505 0.07008993
 0.06894544 0.06777321 0.06657454 0.06537375 0.06417079 0.06297659 0.06179078 0.06061956 0.05945516 0.05829793
 0.05712446 0.05592554 0.05466639 0.05333142 0.05189367 0.05034 0.04866843 0.04687411 0.04497606 0.04297534
 0.04089254 0.03872902 0.0365017 0.034212 0.03188622 0.02952817 0.02717865 0.0248421 0.02255957 0.02033243
 0.01818623 0.01611823 0.01413578 0.01223401 0.01040907 0.008658485 0.006977576 0.005368813 0.003832385 0.00237072
 0.0009864344 -0.000325442 -0.001564578 -0.002741415 -0.003857545 -0.004922177 -0.005936232 -0.006909032 -0.007841078 -0.008745564
 -0.009623178 -0.01048659 -0.01133564 -0.01217527 -0.01300385 -0.01381744 -0.01461352 -0.01538322 -0.01612461 -0.01682935
 -0.01749824 -0.0181282 -0.01872267 -0.01928332 -0.0198143 -0.02031804 -0.02079961 -0.02126054 -0.02170895 -0.02214674
 -0.0225831 -0.02301997 -0.02346395 -0.02391629 -0.02437895 -0.02485237 -0.02533122 -0.02581484 -0.02628833 -0.02675028
 -0.02718246 -0.02758446 -0.02794439 -0.02826349 -0.02853876 -0.0287724 -0.02896645 -0.02912474 -0.02925269 -0.02935442
 -0.02943635 -0.02949851 -0.02954402 -0.02956747 -0.02956722 -0.02953919 -0.02948058 -0.02939542 -0.02928296 -0.02915398
 -0.02900946 -0.02885947 -0.02870483 -0.02855092 -0.02839817 -0.0282536 -0.02811901 -0.02801204 -0.02793546 -0.02791236
 -0.02794184 -0.02803521 -0.0281856 -0.02838557 -0.02862749 -0.02889781 -0.02919218 -0.02950303 -0.0298245 -0.03015352
 -0.0304766 -0.03078912 -0.0310739 -0.03132512 -0.03153106 -0.03168822 -0.0317921 -0.03184184 -0.03183409 -0.03176856
 -0.03164194 -0.03145434 -0.03121051 -0.03091221 -0.03057626 -0.03020474 -0.02981629 -0.02941135 -0.02900022 -0.02858385
 -0.02816759 -0.02775551 -0.02735571 -0.02696991 -0.02660534 -0.02625334 -0.02591213 -0.02556831 -0.02521329 -0.02484738
 -0.024465 -0.0240883 -0.02371902 -0.02338571 -0.02309292 -0.02285267 -0.02266681 -0.02252629 -0.02243043 -0.02236223
 -0.02232068 -0.02229092 -0.02227105 -0.02224541 -0.0222106 -0.02214826 -0.02205699 -0.02192377 -0.02175292 -0.02154347
 -0.02130429 -0.02104309 -0.0207677 -0.02048697 -0.02020002 -0.01991114 -0.01960758 -0.01928691 -0.01893621 -0.01855031
 -0.01813483 -0.01768783 -0.01723507 -0.01677822 -0.01634018 -0.01592156 -0.01552184 -0.01513911 -0.01475541 -0.01437028
 -0.01397068 -0.01356059 -0.01314481 -0.01272785 -0.01232281 -0.01192788 -0.01154776 -0.01117463 -0.01080206 -0.01042581
 -0.01003927 -0.009647342 -0.009249873 -0.008854541 -0.008464326 -0.008081309 -0.007707282 -0.007337417 -0.006972073 -0.006600122
 -0.006220968 -0.005820533 -0.005398303 -0.004948838 -0.004474021 -0.003987787 -0.003494486 -0.003022568 -0.002574365 -0.002173889
 -0.001815986 -0.001503837 -0.001225955 -0.0009673683 -0.0007196415 -0.0004680342 -0.000211698 5.308891E-05 0.0003293784 0.0006170424
 0.0009278409 0.001266181 0.001636726 0.002044101 0.002471542 0.002918669 0.003360264 0.00379413 0.004206341 0.004596449
 0.00496539 0.005314911 0.00566042 0.00600589 0.00637958 0.006782673 0.007237209 0.007733621 0.008265466 0.008816556
 0.009360128 0.009887495 0.01037796 0.01083598 0.01125743 0.0116516 0.01202256 0.01237405 0.01270914 0.01302415
 0.01331867 0.01359009 0.01383677 0.01406862 0.01428576 0.01450833 0.0147372 0.01498317 0.01524452 0.01550888
 0.01577318 0.01601396 0.01623304 0.01642087 0.01658753 0.01674826 0.0169146 0.0171117 0.01734091 0.01761562
 0.01792476 0.01826604 0.01862539 0.01899636 0.01936696 0.01973312 0.02008255 0.02041144 0.02071518 0.02099104
 0.02125197 0.02149837 0.0217496 0.02200651 0.02227681 0.02256023 0.02285622 0.02316556 0.02349184 0.02383668
 0.02420641 0.02460356 0.02503551 0.02550651 0.02602749 0.02659659 0.02722033 0.02788203 0.02857528 0.02927612
 0.02997281 0.03064507 0.0312849 0.0318759 0.03241235 0.03288935 0.03330277 0.03367506 0.03400648 0.0343388
 0.03467415 0.03504631 0.03545528 0.03591426 0.03642042 0.03696828 0.03755146 0.03814878 0.03875152 0.03933249
 0.03988197 0.04037672 0.04080322 0.04114009 0.04137607 0.04149057 0.04149996 0.04139635 0.04123722 0.0410344
 0.04085508 0.04071834 0.04065315 0.04067 0.04074784 0.04088699 0.04104555 0.04122158 0.04139343 0.0415631
 0.0417447 0.04194087 0.04217413 0.04244172 0.04274595 0.04308407 0.04345037 0.04384569 0.04427227 0.04472127
 0.04518552 0.04565419 0.04610689 0.04657383 0.04705204 0.04761772 0.04830847 0.04911677 0.05006989 0.05101044
 0.05191519 0.05270691 0.05337203 0.05395734 0.05446481 0.05493876 0.05537796 0.05578462 0.05615293 0.05645575
 0.05668432 0.0567964 0.05678568 0.05661326 0.05628882 0.05580297 0.05518737 0.05446632 0.05368141 0.05286815
 0.0520597 0.05128236 0.0505493 0.04987049 0.04924906 0.04868386 0.04819623 0.04778645 0.04749446 0.04732489
 0.04728825 0.04738469 0.04756293 0.04781776 0.0480722 0.04832561 0.04853209 0.04870001 0.04883061 0.04893702
 0.04905126 0.04917575 0.04934191 0.04950793 0.04966016 0.0497031 0.04956621 0.04917166 0.048444 0.04741471
 0.04605504 0.04451155 0.04279666 0.04111233 0.03948544 0.03809088 0.03695023 0.03611962 0.03560199 0.03531826
 0.03526128 0.03532226 0.03550173 0.03574979 0.03606689 0.03643484 0.03683799 0.0372342 0.03760539 0.03789904
 0.03812284 0.03825806 0.03833916 0.03838602 0.03842418 0.03847889 0.03853557 0.03859873 0.03863348 0.03863061
 0.03857667 0.03846562 0.03831445 0.03812297 0.03792296 0.0377162 0.03754442 0.03740967 0.03735204 0.03736718
 0.03745576 0.0376032 0.03775992 0.03791546 0.03801741 0.03807331 0.03806932 0.03802324 0.03794845 0.03786161
 0.03777801 0.03771263 0.03767873 0.03767814 0.03772032 0.03777604 0.03784354 0.03787963 0.03787552 0.03781845
 0.0377041 0.03756405 0.03739991 0.03725522 0.0371303 0.03704247 0.03698697 0.03694617 0.03691427 0.03686076
 0.0367857 0.0366722 0.03652778 0.03635502 0.036166 0.03597407 0.03579065 0.03563321 0.03549242 0.0353784
 0.03524094 0.03506945 0.03480371 0.03442124 0.03391967 0.03328838 0.03259232 0.03183585 0.03108004 0.0303284
 0.02958352 0.02884346 0.02808082 0.02729782 0.02649136 0.02567099 0.02486781 0.02409104 0.0233796 0.02273237
 0.02216824 0.0216731 0.02123921 0.02085205 0.02049555 0.0201691 0.01986698 0.01959612 0.01936072 0.01915312
 0.01897574 0.01880149 0.01862636 0.01843087 0.01821068 0.01798782 0.01776335</values></Ydata></AB><ScSm><Ydata ylabel="Single channel"><values byteorder="INTEL" format="FLOAT32" numvalues="1814"> 0.07414092 0.07415779 0.07423934 0.07440603 0.07462767 0.07483858 0.07498321 0.07505281 0.07506947 0.07504349
 0.07498068 0.07493034 0.07497603 0.07515179 0.07539012 0.07556951 0.07561372 0.07555975 0.07553409 0.07562727
 0.07576656 0.07574131 0.0753991 0.07482247 0.07427652 0.07396773 0.07391603 0.07410952 0.07463308 0.07542227
 0.07599249 0.07579131 0.0748993 0.07404555 0.07379729 0.07401819 0.0742214 0.07412616 0.07373682 0.07323228
 0.07301808 0.07361583 0.07514969 0.07692787 0.07769193 0.07640661 0.07299787 0.06859609 0.06512378 0.06425892
 0.06624502 0.06955886 0.07205927 0.07269456 0.07199749 0.07099974 0.07013205 0.06936049 0.06888922 0.06918812
 0.07033737 0.07159622 0.07178399 0.07028472 0.06778598 0.06579717 0.06527595 0.06602684 0.06750792 0.06941366
 0.07085293 0.06989364 0.06547743 0.05981371 0.05737252 0.06062586 0.06740814 0.07304373 0.07450281 0.07206674
 0.06794021 0.06443734 0.06313311 0.0644356 0.06749617 0.07091656 0.07360409 0.07482272 0.07400371 0.07124422
 0.06779036 0.06542639 0.06537744 0.06783766 0.07193348 0.07579808 0.07742238 0.07614684 0.07309765 0.06999416
 0.06802088 0.06784678 0.06979175 0.07347926 0.07782045 0.08165336 0.08422042 0.0852358 0.08493638 0.08393106
 0.08273876 0.08171533 0.08138502 0.08210759 0.08321999 0.08329822 0.08171492 0.07948224 0.07821028 0.07844444
 0.07923304 0.07928264 0.07826436 0.07658421 0.07409833 0.07011873 0.06499402 0.06049495 0.05803826 0.05762503
 0.0589141 0.06176021 0.06495508 0.06616557 0.064496 0.06210075 0.06202988 0.06497218 0.06891894 0.07162295
 0.07267185 0.07330899 0.07483116 0.07726426 0.079204 0.07887602 0.07590382 0.07228968 0.07098943 0.07300593
 0.07642815 0.07877783 0.07961651 0.08024508 0.08144256 0.08226495 0.08103425 0.07733132 0.07305562 0.07124795
 0.07344324 0.07813396 0.08186387 0.08178578 0.07757747 0.07150909 0.06667298 0.06484507 0.06600426 0.06950467
 0.07477409 0.08072113 0.08546232 0.08737707 0.08629222 0.08336891 0.07979069 0.07568572 0.07075478 0.06606342
 0.06424662 0.06700253 0.07290527 0.07859858 0.08179152 0.08238856 0.08116822 0.07836362 0.07388315 0.06866232
 0.06509723 0.06518289 0.06811172 0.07073823 0.07087117 0.06925939 0.06796598 0.06779161 0.067994 0.06786922
 0.06774926 0.06842586 0.07001637 0.07167625 0.07242101 0.0720227 0.0710344 0.07014275 0.06955475 0.06886584
 0.06763889 0.06628329 0.06599664 0.0674406 0.06981561 0.0716852 0.07241392 0.0723765 0.07199734 0.0710437
 0.06899337 0.06603447 0.06347133 0.06275471 0.064069 0.06621801 0.06787127 0.06852062 0.06833687 0.06767879
 0.06685573 0.06602886 0.06526524 0.06475283 0.06475048 0.06520569 0.06568132 0.06579699 0.0655321 0.06502672
 0.06432119 0.0634132 0.06243751 0.06166231 0.06129465 0.06131738 0.06154073 0.06177757 0.06189854 0.06177536
 0.06133096 0.06066114 0.05997918 0.05942142 0.05899756 0.05870826 0.05858891 0.05861927 0.05867997 0.0586414
 0.05846219 0.05818116 0.05784233 0.05745827 0.05703946 0.0566322 0.05631199 0.05612674 0.05603891 0.05595168
 0.05582198 0.0557081 0.05565476 0.05558043 0.05535976 0.05498911 0.05459319 0.05428431 0.05407622 0.05391958
 0.05375962 0.05354639 0.05323168 0.05280793 0.05236278 0.05205062 0.05196995 0.05208834 0.05229951 0.05250328
 0.0526175 0.05259021 0.05244316 0.05225161 0.05205569 0.05183225 0.05156086 0.05128052 0.051075 0.05101265
 0.05108665 0.05121153 0.05129268 0.05129179 0.05122503 0.05113773 0.05108744 0.05109803 0.05111505 0.05105481
 0.05090862 0.05075756 0.05067803 0.05066327 0.05064255 0.05056287 0.050448 0.05037322 0.05038083 0.05043802
 0.05048487 0.05050022 0.05050735 0.05052974 0.05055142 0.05052379 0.0504216 0.05028553 0.0501846 0.0501418
 0.05012739 0.05011872 0.0501284 0.05016928 0.05022196 0.05025075 0.05024191 0.05021672 0.05020227 0.05019363
 0.05015852 0.0500806 0.04998244 0.04990044 0.04985033 0.04982188 0.04979571 0.0497583 0.04970472 0.04963355
 0.04954495 0.04944235 0.04932962 0.04920952 0.04909461 0.04901198 0.04897836 0.04897058 0.04893685 0.04884361
 0.04870559 0.04856918 0.0484685 0.04839803 0.04832998 0.04825421 0.0481898 0.04815695 0.0481523 0.04815695
 0.04815621 0.04814841 0.04814863 0.04818861 0.04829739 0.04846971 0.04865997 0.0488187 0.04893481 0.04903684
 0.04915649 0.04929932 0.04945039 0.04959888 0.0497529 0.04992941 0.05012775 0.05031808 0.0504686 0.050584
 0.05070265 0.05085625 0.05104706 0.05126055 0.05147661 0.05166838 0.0518171 0.05193821 0.05207369 0.05224753
 0.05244225 0.0526277 0.05279908 0.052975 0.05316935 0.05338241 0.0536166 0.05388352 0.0541875 0.05450968
 0.05481546 0.05507952 0.05530667 0.05553154 0.05579451 0.0561108 0.05645997 0.05680488 0.057123 0.05742245
 0.05772834 0.05805287 0.05838504 0.05871494 0.05905692 0.05943321 0.05984049 0.06025054 0.06064266 0.0610206
 0.06139833 0.06178356 0.06217699 0.06257761 0.06298451 0.0633959 0.06380603 0.06420377 0.0645791 0.06493297
 0.06527843 0.06563233 0.06600472 0.06638832 0.06675534 0.06707808 0.06736358 0.06765677 0.06799382 0.06835932
 0.06870709 0.06901845 0.06931929 0.06963944 0.06997688 0.07031208 0.07064124 0.07098021 0.07133934 0.07170339
 0.07203662 0.07230899 0.07252337 0.07271731 0.07293212 0.07318431 0.07347263 0.07379894 0.07416062 0.07452953
 0.07486321 0.07513983 0.07536843 0.07557233 0.07577866 0.07601377 0.07628664 0.07657976 0.07686725 0.07713255
 0.07736626 0.07756993 0.07777281 0.07802045 0.07833165 0.07868524 0.07905765 0.07944934 0.07986148 0.08027303
 0.08066676 0.08106323 0.0814981 0.08196433 0.08240417 0.08276799 0.08305939 0.08331199 0.08354998 0.0837936
 0.08407913 0.08443826 0.08486168 0.08530562 0.08573146 0.08612604 0.08649099 0.0868272 0.08712885 0.08738647
 0.08759672 0.08776967 0.08792572 0.08808812 0.0882767 0.08849493 0.08871628 0.08889312 0.08898611 0.08897775
 0.08885858 0.08862312 0.08829223 0.08791817 0.08754009 0.08713754 0.08664753 0.08602589 0.08527549 0.08441946
 0.08347325 0.08245371 0.08140151 0.08038317 0.07947384 0.07873987 0.0782333 0.07799758 0.07806703 0.07844104
 0.07905024 0.07975814 0.08040483 0.08084869 0.08098178 0.08074468 0.08015306 0.07929897 0.07830544 0.07727481
 0.07627279 0.07533303 0.07445605 0.07362091 0.0728294 0.07214695 0.07169728 0.07163407 0.07213142 0.07336279
 0.07540782 0.07813025 0.08116838 0.08409594 0.08662747 0.08869803 0.09039411 0.09184472 0.09315603 0.09438559
 0.09553851 0.09659228 0.09753424 0.09837218 0.09911396 0.09975249 0.1002722 0.1006602 0.1009148 0.101055
 0.1011244 0.101178 0.1012684 0.1014354 0.1016879 0.1019807 0.1022168 0.102286 0.10211 0.1016603
 0.1009531 0.1000608 0.09917738 0.0986914 0.09911546 0.1008042 0.1036597 0.1071326 0.1105508 0.1134681
 0.1157618 0.1175143 0.1188705 0.1199638 0.1208934 0.1217237 0.1224938 0.1232225 0.1239147 0.1245729
 0.1252067 0.1258282 0.1264444 0.1270568 0.1276618 0.1282497 0.1288109 0.1293473 0.129875 0.130413
 0.1309662 0.1315242 0.1320756 0.1326191 0.1331559 0.1336769 0.1341689 0.1346305 0.1350752 0.1355206
 0.1359828 0.1364692 0.1369671 0.1374447 0.1378778 0.1382724 0.1386561 0.1390503 0.1394584 0.1398732
 0.1402856 0.1406874 0.1410748 0.1414557 0.1418451 0.1422468 0.1426415 0.143004 0.1433327 0.1436528
 0.1439896 0.144346 0.1447057 0.1450551 0.1453981 0.1457561 0.1461495 0.146576 0.1470076 0.1474132
 0.1477835 0.1481322 0.1484788 0.1488363 0.1492119 0.1496068 0.1500121 0.1504107 0.1507899 0.151151
 0.1515063 0.1518681 0.1522398 0.1526164 0.1529928 0.1533687 0.1537445 0.1541164 0.154481 0.154846
 0.1552245 0.1556161 0.1560007 0.1563573 0.1566837 0.1569934 0.1573014 0.1576152 0.1579382 0.158272
 0.1586156 0.1589653 0.1593182 0.1596733 0.1600304 0.1603878 0.1607425 0.1610939 0.1614444 0.1617974
 0.1621565 0.1625255 0.1629049 0.163286 0.163655 0.1640056 0.1643445 0.1646815 0.1650219 0.1653659
 0.1657121 0.1660585 0.1664048 0.1667523 0.1671009 0.1674478 0.1677896 0.1681272 0.1684669 0.1688153
 0.1691729 0.1695319 0.1698845 0.1702309 0.170576 0.1709228 0.1712713 0.1716201 0.1719685 0.172316
 0.1726629 0.1730085 0.1733529 0.1737001 0.1740545 0.1744133 0.1747673 0.1751111 0.1754471 0.1757794
 0.1761096 0.1764378 0.1767665 0.1770996 0.1774365 0.1777723 0.1781038 0.1784352 0.1787722 0.1791146
 0.1794609 0.1798103 0.1801594 0.1805022 0.1808375 0.1811698 0.1815041 0.1818434 0.1821891 0.1825387
 0.1828882 0.1832382 0.1835915 0.1839469 0.1842993 0.1846435 0.184976 0.1852985 0.1856211 0.1859507
 0.1862823 0.1866073 0.1869254 0.1872429 0.1875646 0.1878929 0.1882272 0.1885652 0.1889088 0.1892632
 0.1896275 0.1899924 0.190349 0.1906942 0.1910297 0.191363 0.1917016 0.1920446 0.1923867 0.1927272
 0.1930668 0.1934029 0.193736 0.1940722 0.1944138 0.1947599 0.1951116 0.1954667 0.195817 0.1961573
 0.1964886 0.196811 0.1971283 0.1974511 0.1977849 0.198122 0.1984548 0.1987831 0.1991062 0.1994241
 0.1997421 0.2000629 0.2003837 0.200707 0.2010386 0.2013737 0.2017044 0.2020326 0.2023605 0.2026836
 0.2030019 0.2033196 0.2036328 0.2039376 0.2042407 0.2045467 0.2048518 0.205157 0.2054625 0.2057453
 0.205949 0.2059452 0.2054236 0.2037682 0.2000348 0.1931337 0.1822621 0.1674082 0.1495279 0.1302058
 0.1110729 0.09338015 0.07787131 0.06487776 0.05448309 0.0466259 0.04115966 0.03795682 0.03702128 0.03860869
 0.04335774 0.05190619 0.06345785 0.07453462 0.08034967 0.07859233 0.07163697 0.06437781 0.06017211 0.05923915
 0.06013306 0.06162698 0.06333405 0.06548082 0.06845373 0.07235686 0.07699487 0.08235454 0.08883665 0.09673946
 0.1056465 0.1146056 0.1229494 0.1308124 0.1388076 0.1472842 0.1559611 0.1642056 0.1715398 0.1778758
 0.1834123 0.1884164 0.1930781 0.1974891 0.2016921 0.2056802 0.2093145 0.2122884 0.2142725 0.2151647
 0.2152152 0.2148896 0.2145915 0.2144995 0.2146198 0.2149188 0.2153786 0.2159835 0.21671 0.2175303
 0.21841 0.2193156 0.2202237 0.2211153 0.221967 0.222758 0.2234788 0.2241279 0.2247109 0.2252406
 0.2257288 0.22618 0.2266005 0.2269989 0.2273777 0.2277349 0.2280757 0.2284056 0.228718 0.2290011
 0.2292525 0.2294791 0.2296886 0.2298898 0.230093 0.2303032 0.2305188 0.2307336 0.2309396 0.2311322
 0.2313166 0.2315026 0.2316968 0.2319011 0.2321134 0.2323243 0.2325203 0.2326988 0.2328702 0.2330445
 0.2332241 0.2334089 0.2335985 0.2337879 0.2339722 0.2341533 0.2343375 0.2345283 0.2347224 0.234912
 0.2350953 0.2352833 0.2354899 0.2357142 0.2359405 0.2361541 0.2363507 0.2365353 0.2367204 0.2369166
 0.2371194 0.2373116 0.2374808 0.2376329 0.2377895 0.2379719 0.2381803 0.2383924 0.2385928 0.2387922
 0.239005 0.2392229 0.2394219 0.2395871 0.2397273 0.2398788 0.2400831 0.2403442 0.2406221 0.2408831
 0.2411298 0.2413737 0.2416123 0.2418448 0.242074 0.2422829 0.2424453 0.2425722 0.242729 0.242986
 0.2433466 0.2437299 0.244044 0.2442743 0.2444791 0.2447188 0.2450145 0.2453318 0.2455658 0.2456104
 0.2455142 0.2455068 0.2457913 0.2463461 0.2469783 0.2475198 0.2479276 0.2482443 0.24852 0.2487593
 0.2489147 0.2489422 0.2488891 0.2489175 0.2491898 0.249702 0.2502745 0.2507358 0.2510583 0.2512976
 0.2514967 0.2516757 0.251792 0.251688 0.2512558 0.2507221 0.2505862 0.251137 0.2521288 0.2530462
 0.2536155 0.2539406 0.2542121 0.2544736 0.2546777 0.2547259 0.2543586 0.2533083 0.2518257 0.2508183
 0.2511017 0.2525787 0.2543959 0.2557952 0.2565912 0.2569766 0.2571891 0.2573553 0.2573986 0.2570477
 0.2561423 0.25504 0.2545251 0.2550869 0.2563703 0.2575512 0.2581721 0.2583871 0.2585304 0.258742
 0.2588706 0.2584257 0.2568572 0.2543634 0.2523016 0.2522324 0.2543897 0.2574006 0.2596506 0.2606709
 0.2610061 0.2610312 0.2604065 0.2586952 0.2560142 0.2529862 0.2505589 0.2498823 0.2515459 0.2546194
 0.2571797 0.2582132 0.2584694 0.2591996 0.2606494 0.2620739 0.2627114 0.2623717 0.2612965 0.2597376
 0.2578384 0.2560315 0.2552789 0.2563857 0.2590141 0.261813 0.2636737 0.2645637 0.2649213 0.2643558
 0.261404 0.255289 0.2481055 0.2442308 0.2464523 0.2530487 0.2596468 0.2635225 0.2650704 0.2657359
 0.2660873 0.2656685 0.2632521 0.2575054 0.2490934 0.242004 0.2408526 0.2463135 0.254348 0.2599755
 0.2606873 0.2567083 0.2500615 0.2439484 0.2414558 0.243687 0.2492847 0.2557766 0.2610549 0.2639297
 0.2641195 0.2621572 0.2593386 0.2573902 0.2572269 0.257595 0.2560154 0.2519204 0.247612 0.2448747
 0.2422 0.2375679 0.2328825 0.232681 0.2382357 0.2454362 0.2494188 0.2494851 0.2481925 0.2467021
 0.2427861 0.234038 0.2224292 0.2143455 0.2149901 0.2230052 0.2317017 0.2355949 0.2347461 0.2327946
 0.2320798 0.2312736 0.2273053 0.2193956 0.2110177 0.2069696 0.2082888 0.2113274 0.2120599 0.2093147
 0.2033486 0.1944875 0.1853662 0.1817514 0.1876275 0.2002594 0.2123733 0.2181781 0.2154601 0.2041885
 0.1871943 0.1717511 0.1660374 0.1718472 0.1824402 0.1887719 0.1866688 0.1775057 0.1642855 0.1495774
 0.1366815 0.1299421 0.1320757 0.1413952 0.1521198 0.1573641 0.1528991 0.1403124 0.1270494 0.1210525
 0.1236842 0.1289436 0.1302531 0.1264119 0.1205841 0.1160668 0.1143292 0.1150375 0.116484 0.1170871
 0.1166505 0.1148 0.1092828 0.09877391 0.08683705 0.07964642 0.07952386 0.08367959 0.08922258 0.09572375
 0.1020776 0.1047637 0.10186 0.09679654 0.0954712 0.1000036 0.1069101 0.111335 0.1118371 0.1106553
 0.1101684 0.1102794 0.1097056 0.1088912 0.1100656 0.1141773 0.1192267 0.1224866 0.1233282 0.1229759
 0.1224369 0.1217536 0.1206952 0.1191866 0.1172535 0.1150971 0.1130384 0.1111394 0.1091372 0.1068225
 0.1040568 0.1003023 0.09478784 0.08776217 0.08121145 0.07737505 0.07647203 0.07683052 0.07727112 0.07781655
 0.07758114 0.07411087 0.06663778 0.0587661 0.05585748 0.05987412 0.06794412 0.07561356 0.08018698 0.08092645
 0.07778807 0.07174332 0.06614647 0.06571302 0.07268308 0.08470009 0.09738247 0.1080537 0.1160065 0.1205135
 0.1206578 0.1171291 0.1128777 0.1114904 0.1150781 0.1232851 0.1332698 0.1402932 0.1400284 0.1329741
 0.1266407 0.1300038 0.1438846 0.1593609 0.1677766 0.1696018 0.1707847 0.1735283 0.1752253 0.1751109
 0.1768792 0.1835273 0.1928131 0.1994074 0.1995474 0.1924952 0.1799797 0.1665177 0.1582745 0.1582579
 0.1631041 0.1668996 0.1669956 0.1636643 0.1565399 0.1460732 0.1373374 0.1369775 0.1454373 0.1559795
 0.1623609 0.1645287 0.1658311 0.1672346 0.1662027 0.1605943 0.1522309 0.1457527 0.1440046 0.1455157
 0.1469131 0.1464669 0.1441811 0.139832 0.1330939 0.1254961 0.1204159 0.1202072 0.1238817 0.1281547
 0.1304834 0.1307124 0.1301906 0.1301079 0.1307181 0.1315126 0.1320579 0.1330755 0.1363119 0.1425416
 0.1501072 0.1565179 0.1612775 0.1660287 0.171941 0.1780031 0.1821533 0.1834854 0.1831513 0.183434
 0.1859491 0.1903503 0.1945745 0.1965971 0.1963417 0.1959107 0.1976314 0.201807 0.2066591 0.2103495
 0.2124921 0.2137524 0.2147536 0.2155727 0.2157128 0.2145052 0.2121515 0.2103437 0.211092 0.2147388
 0.2196132 0.2237082 0.2262471 0.2276016 0.2282569 0.2282455 0.2274536 0.2261405 0.2249496 0.2244212
 0.2246285 0.2253036 0.2261583 0.2270142 0.227776 0.2284193 0.2289791 0.2294988 0.2300138 0.2305713
 0.2311983 0.2318429 0.2324211 0.2329476 0.2335522 0.2343192 0.2351577 0.2358852 0.236386 0.2366132
 0.2364906 0.2359338 0.2349708 0.2337324 0.2322996 0.2306616 0.2289099 0.2274325 0.2268011 0.2273714
 0.2289717 0.231002 0.2328408 0.2341687 0.234984 0.2354405 0.2357165 0.2359582 0.2362459 0.2365813
 0.2369207 0.2372298 0.2375094 0.2377768 0.238044 0.2383252 0.2386502 0.2390456 0.2394986 0.2399545
 0.240354 0.2406701 0.2409148 0.2411172 0.2412883 0.2414002 0.2414081 0.2412964 0.2410991 0.2408749
 0.2406725 0.2405099 0.240364 0.2401738 0.2398689 0.239396 0.2387093 0.2377541 0.2365027 0.2350175
 0.2334338 0.231852 0.230266 0.2286135 0.2268607 0.225008 0.2230469 0.2209581 0.2187481 0.2164605
 0.2141513 0.2118648 0.2096242 0.2074322 0.2052824 0.2031698 0.201084 0.1989969 0.196869 0.1946614
 0.1923249 0.1897822 0.1869383 0.1837088 0.1800378 0.1759092 0.1713765 0.1665902 0.1617741 0.157152
 0.1528746 0.1490023 0.1455424 0.1425038 0.1399281 0.1378834 0.1364306 0.1355893 0.1353333 0.1356172
 0.1363993 0.1376347 0.1392559 0.1411718 0.1432767 0.1454506 0.1475579 0.1494732 0.1511334 0.152577
 0.1539277 0.1553142 0.1567926 0.1583448 0.1599362 0.1615416 0.1631149 0.164572 0.165837 0.1668934
 0.1677766 0.1685246 0.1691468 0.1696361 0.1699955 0.1702483 0.1704312 0.1705877 0.1707658 0.1710086
 0.1713494 0.1718238 0.1724768 0.1733448 0.1744276 0.175682 0.1770416 0.1784467 0.1798687 0.1813136
 0.18281 0.1844066 0.1861793 0.1882175 0.1905848 0.1932929 0.1963107 0.1995754 0.2029848 0.2063925
 0.2096347 0.2125789 0.2151578 0.2173654 0.2192265 0.2207748 0.2220474 0.2230821 0.2239101 0.2245579
 0.2250556 0.2254354 0.2257225 0.2259292 0.2260534 0.2260824 0.2260097 0.2258531 0.2256502 0.2254335
 0.2252165 0.2250035 0.2248039 0.2246309 0.2244848 0.2243436 0.2241749 0.2239554 0.2236719 0.2233142
 0.222876 0.2223565 0.2217441 0.2210049 0.2201062 0.219047 0.2178529 0.2165454 0.2151294 0.2136101
 0.212014 0.2103903 0.2087884 0.2072313 0.2057033 0.2041609 0.2025447 0.2007977 0.1989006 0.1968991
 0.1948801 0.1929093 0.1909967 0.1891199 0.1872661 0.18545 0.1836984 0.1820251 0.1804255 0.1788933
 0.1774298 0.1760319 0.1746878 0.1733959 0.1721814 0.1710861 0.1701441 0.169362 0.1687188 0.1681821
 0.167722 0.1673121 0.1669382 0.1666147 0.1663708 0.1662025 0.1660527 0.165846 0.1655342 0.1651166
 0.1646414 0.1641769 0.1637647 0.1634034 0.1630718 0.1627368 0.1623334 0.1617629 0.1609249 0.1597543
 0.1582439 0.156443 0.1544303 0.1522955 0.1501503 0.1481247 0.1463297 0.1448339 0.1436662 0.1427981
 0.142133 0.1415654 0.1410647 0.1406831 0.1404847 0.1404618 0.1404996 0.1404424 0.1402374 0.1399983
 0.1399035 0.140048 0.1403991 0.1408454 0.1412713 0.141612 0.1418512 0.1419762 0.1419732 0.1418612
 0.1416809 0.1414512 0.1411702 0.1408408 0.1404664 0.1400482 0.1395926 0.1390914 0.1385088 0.1378178
 0.1370223 0.1361281 0.1351373 0.1340656 0.1329105 0.131642 0.130306 0.1290999 0.1282757 0.1279825
 0.1281957 0.1287392 0.1293911 0.130023 0.130586 0.1309459 0.1309165 0.1305974 0.1305345 0.1313225
 0.1330231 0.1350718 0.1367666 0.1377604 0.1380787 0.1378434 0.137141 0.1360567 0.1346397 0.1328627
 0.1307174 0.1282787 0.1256265 0.1228448 0.1201106 0.1176281 0.11549 0.1137006 0.1122519 0.1111833
 0.1106128 0.1102077 0.1082883 0.102705 0.09414607 0.08762218 0.08826569 0.09558073 0.1037932 0.1079629
 0.1079246 0.106292 0.1048977 0.1040491 0.1036732 0.1038936 0.1048002 0.1062267 0.1077849 0.1090888
 0.10998 0.1104799 0.1105213 0.1097581 0.1075467 0.1031717 0.09642419 0.08810756 0.07977776 0.07286455
 0.06805447 0.06530324 0.06410843 0.06378271 0.06377687 0.06394229 0.06448603 0.06565884 0.06751423 0.06994177
 0.07279865 0.07588421 0.07885714 0.08136982 0.08332188 0.08485961 0.08611122 0.08703437 0.0875278 0.08758137
 0.08728676 0.08676687 0.08612154 0.0854 0.08458084 0.08359602 0.08244966 0.0813318 0.08052437 0.08014593
 0.08006252 0.08007179 0.08007922 0.08008003 0.08008043 0.08007774 0.08006929 0.08008236 0.08020385 0.08051869
 0.08099566 0.08148774 0.08185625 0.0820688 0.08219244 0.08228495 0.0822659 0.08198054 0.08147325 0.08104381
 0.08085364 0.08062589 0.07998714 0.07902468 0.07825907 0.07808043 0.0783974 0.0788293 0.07906719 0.07902869
 0.07884787 0.07881676 0.07918997 0.07988323</values></Ydata></ScSm><ScRf><Ydata ylabel="Single channel"><values byteorder="INTEL" format="FLOAT32" numvalues="1820"> 0.06090725 0.06104819 0.06112985 0.06115872 0.06116073 0.06117795 0.06125318 0.06140169 0.06159589 0.06177963
 0.06190554 0.06196555 0.06197922 0.0619585 0.06190985 0.0618718 0.06191009 0.06205324 0.06225017 0.06240427
 0.06244907 0.06240585 0.06237496 0.06243977 0.06255349 0.06254536 0.06227938 0.06181104 0.06135447 0.06108362
 0.06102169 0.06116633 0.06159576 0.06226257 0.06276242 0.0626225 0.06189177 0.06117061 0.06094253 0.06111008
 0.06127342 0.06119475 0.0608743 0.0604607 0.0602897 0.06079176 0.06206957 0.06355058 0.06419022 0.06312655
 0.06029571 0.05663551 0.05374321 0.05301663 0.05466612 0.05743085 0.05952564 0.06006613 0.05949415 0.05867587
 0.05797185 0.0573432 0.05694867 0.05718247 0.05812615 0.05917531 0.0593465 0.05811499 0.05603948 0.05437158
 0.05391553 0.05452036 0.05574351 0.05733536 0.05855613 0.05779076 0.05413875 0.04942192 0.04736812 0.0500643
 0.05572928 0.06046255 0.06171567 0.05970638 0.05627353 0.05335508 0.05226807 0.05335083 0.05589507 0.05873942
 0.06098004 0.06200884 0.06135137 0.05907991 0.05622016 0.05425251 0.05420384 0.05624908 0.05966965 0.06290889
 0.06428145 0.06322438 0.06067264 0.05806871 0.0564121 0.05626541 0.05789411 0.06098255 0.0646235 0.06785181
 0.07003731 0.07093166 0.07071511 0.06988966 0.0688985 0.06804773 0.06777395 0.06837673 0.06930748 0.06937852
 0.06806153 0.06620017 0.06514256 0.06534721 0.06601919 0.06607626 0.06524164 0.06385426 0.06179155 0.05846903
 0.05417031 0.05038515 0.0483186 0.04798198 0.04908898 0.05151931 0.05425965 0.05533529 0.0539648 0.05194304
 0.05185012 0.05430033 0.05762733 0.05993579 0.06085949 0.06143368 0.06275114 0.06483641 0.06650507 0.06625734
 0.06377001 0.06073113 0.05964647 0.06137908 0.06431941 0.06636408 0.06713343 0.06772944 0.06881954 0.06960699
 0.06865904 0.06560403 0.06205019 0.06059246 0.06254783 0.0666356 0.06990768 0.06992917 0.0664167 0.06130886
 0.05725895 0.05579813 0.05692162 0.06009751 0.06485473 0.0702522 0.07463823 0.076573 0.0758722 0.07353023
 0.07058256 0.06714353 0.06294814 0.05895391 0.05753928 0.06025757 0.06585141 0.07129983 0.07451228 0.07537329
 0.07456952 0.07229455 0.06844202 0.06387232 0.06083867 0.06123723 0.06432161 0.06712149 0.06755698 0.06633984
 0.06544235 0.06563 0.06617513 0.06638838 0.06660745 0.06763209 0.0695871 0.07162995 0.07277132 0.07277148
 0.07217623 0.07167861 0.07148828 0.07117888 0.07029107 0.06925955 0.06935406 0.07128815 0.07423458 0.07667314
 0.07791227 0.07833908 0.07840173 0.07782754 0.07601954 0.07317831 0.07076441 0.07041402 0.07235345 0.07525426
 0.07761346 0.07883745 0.07910524 0.07882033 0.07833429 0.07783316 0.07740173 0.07727088 0.07775801 0.07880963
 0.07989748 0.08054666 0.08072272 0.08059557 0.08020689 0.07954243 0.0787698 0.07823269 0.07820319 0.07868054
 0.07944211 0.0802412 0.08088592 0.08119582 0.08107072 0.08063722 0.08017503 0.07986043 0.07970005 0.07970339
 0.07994524 0.08041279 0.08093025 0.08130611 0.08148488 0.08152004 0.08146576 0.08134004 0.08116073 0.08098732
 0.08092178 0.08103862 0.081293 0.08154981 0.0817459 0.08195784 0.08224326 0.08249035 0.08252893 0.08235285
 0.08213633 0.08204403 0.08209737 0.08221738 0.08231735 0.0823205 0.08214967 0.08179439 0.08140199 0.08122046
 0.08139891 0.08188295 0.08250917 0.08312234 0.08359426 0.0838462 0.08390834 0.08388653 0.08383778 0.08373185
 0.08354636 0.08335269 0.08329185 0.08347093 0.08386858 0.08434062 0.08473013 0.08496344 0.0850558 0.08508597
 0.08516563 0.08534921 0.08555175 0.08562921 0.08555989 0.08548027 0.08552055 0.08565764 0.08575622 0.08572972
 0.08563729 0.0856189 0.08574648 0.08596126 0.08615907 0.08630729 0.08645888 0.08666128 0.08686649 0.08695081
 0.08684736 0.08664219 0.08649164 0.08645651 0.08647966 0.08652059 0.08662387 0.08682206 0.08704209 0.08716914
 0.08718009 0.08716306 0.08720128 0.08727267 0.08728309 0.08717972 0.08700691 0.08685955 0.08680516 0.08684739
 0.08693638 0.0870015 0.08699063 0.0868994 0.08676883 0.08664937 0.08656567 0.08652575 0.08655977 0.08671364
 0.08697281 0.0872108 0.08726412 0.08708188 0.08678553 0.08656234 0.0864988 0.08652081 0.08648667 0.08632292
 0.08607017 0.0858199 0.08563101 0.08550304 0.0854042 0.08531277 0.08524442 0.08524913 0.08536001 0.08552533
 0.08561213 0.08551649 0.08526804 0.08499935 0.08482177 0.08475545 0.08475575 0.08476618 0.08476015 0.0847638
 0.08482018 0.08491136 0.08495428 0.0848997 0.0847972 0.08474156 0.08479318 0.08495499 0.08516953 0.0853275
 0.08534108 0.08523463 0.08512458 0.0850998 0.08515556 0.08524352 0.08533797 0.08543734 0.08553812 0.08563806
 0.0857555 0.08592289 0.08615329 0.08641674 0.08665244 0.08681124 0.0868975 0.08697543 0.08712558 0.08738269
 0.08770937 0.08802852 0.08828308 0.088473 0.08864073 0.08882152 0.08901478 0.08921216 0.08943525 0.08971591
 0.09004483 0.09037295 0.09066737 0.09093967 0.0912167 0.09150646 0.09180199 0.09210798 0.09245402 0.0928673
 0.0933196 0.09371746 0.09397626 0.09410599 0.09420809 0.09439384 0.09470803 0.09509903 0.09544399 0.09564203
 0.09571844 0.09580934 0.09601361 0.0962927 0.09655293 0.09678988 0.09709281 0.09751366 0.09798305 0.09837249
 0.09861544 0.09875652 0.09889222 0.0990717 0.09925796 0.0993901 0.09947033 0.09956149 0.09970391 0.0998818
 0.1000875 0.1003657 0.1007485 0.1011822 0.1015646 0.1018418 0.1020332 0.1021793 0.1022999 0.1023898
 0.1024345 0.1024393 0.1024522 0.1025258 0.1026475 0.1027448 0.1027776 0.1027896 0.1028512 0.10299
 0.1031987 0.1034692 0.1037813 0.104084 0.1043406 0.1045881 0.1049004 0.105275 0.1056014 0.105777
 0.105821 0.1058304 0.1058591 0.1058993 0.1059631 0.1061071 0.1063609 0.1066852 0.1070214 0.1073494
 0.1076808 0.1080177 0.1083314 0.1085693 0.1086865 0.1086853 0.1086297 0.1086154 0.1087168 0.1089481
 0.1092621 0.1095848 0.1098591 0.1100564 0.1101566 0.1101497 0.1100783 0.1100474 0.110143 0.1103357
 0.1104908 0.1104805 0.110268 0.1098846 0.1093664 0.1087411 0.1080571 0.1073953 0.1068404 0.1064458
 0.1062324 0.106217 0.1064284 0.1068751 0.1074991 0.1081866 0.1088294 0.1093523 0.1096761 0.1097075
 0.1094038 0.1088295 0.1081164 0.1073815 0.1066914 0.1060643 0.1054749 0.1048914 0.1043558 0.1040197
 0.1040725 0.1046277 0.1056693 0.1070653 0.108606 0.1100666 0.1112947 0.1122686 0.1130657 0.1137735
 0.1144383 0.1150854 0.1157449 0.1164247 0.117079 0.1176461 0.1181161 0.118533 0.1189347 0.1193175
 0.1196567 0.1199347 0.1201582 0.1203614 0.1205757 0.1207787 0.1208994 0.1208948 0.1207996 0.1206797
 0.1205575 0.1203972 0.1201461 0.1197811 0.119343 0.1189531 0.1187902 0.119017 0.1196925 0.1207354
 0.1219826 0.1232909 0.1245733 0.1257484 0.1267106 0.1273904 0.1278221 0.1281184 0.1283852 0.1286725
 0.128984 0.1293041 0.1296162 0.1299127 0.1301973 0.130484 0.1307918 0.1311274 0.1314659 0.1317633
 0.1320013 0.1322174 0.132481 0.1328308 0.133234 0.1336162 0.133939 0.1342348 0.1345492 0.134867
 0.13513 0.1353189 0.1354815 0.1356838 0.1359609 0.13631 0.1366914 0.1370363 0.1372896 0.1374591
 0.137606 0.1377837 0.1380002 0.1382383 0.1384876 0.1387473 0.1390148 0.1392892 0.1395793 0.1398892
 0.1401915 0.1404376 0.1406069 0.1407368 0.1408885 0.1410891 0.1413156 0.1415316 0.1417317 0.1419485
 0.1422174 0.1425324 0.1428402 0.1430838 0.1432495 0.1433692 0.1434867 0.1436293 0.1438036 0.1440042
 0.1442207 0.1444414 0.1446574 0.1448684 0.1450808 0.1453 0.1455224 0.1457397 0.1459476 0.1461489
 0.1463478 0.1465457 0.1467493 0.1469765 0.1472447 0.1475451 0.1478373 0.1480795 0.1482629 0.1484092
 0.1485435 0.148681 0.1488324 0.149005 0.149198 0.1494036 0.1496145 0.1498262 0.1500359 0.1502427
 0.1504472 0.1506506 0.1508532 0.1510545 0.1512583 0.1514729 0.1517031 0.1519391 0.1521599 0.1523527
 0.1525272 0.1527061 0.1529033 0.153113 0.1533171 0.1535045 0.1536808 0.1538614 0.154055 0.1542568
 0.1544555 0.154644 0.1548238 0.1550043 0.1551946 0.155397 0.1556058 0.1558127 0.156013 0.1562085
 0.1564037 0.1566001 0.156795 0.1569888 0.157187 0.1573935 0.1576053 0.1578155 0.1580192 0.1582151
 0.158406 0.1585967 0.1587904 0.1589863 0.1591821 0.1593774 0.159575 0.159779 0.1599894 0.1601991
 0.1603997 0.1605892 0.1607726 0.1609599 0.1611623 0.1613843 0.1616169 0.1618452 0.1620627 0.1622706
 0.1624704 0.1626656 0.1628661 0.1630789 0.1632989 0.1635171 0.1637312 0.1639441 0.1641536 0.1643524
 0.1645367 0.1647121 0.1648879 0.1650649 0.1652368 0.1654036 0.1655743 0.1657565 0.1659497 0.1661499
 0.1663525 0.1665536 0.1667511 0.1669428 0.1671286 0.167317 0.1675222 0.1677462 0.1679738 0.1681922
 0.168403 0.1686099 0.16881 0.1690028 0.1691954 0.169396 0.1696085 0.1698298 0.1700511 0.1702651
 0.1704722 0.1706761 0.1708789 0.1710842 0.1712942 0.171503 0.171706 0.1719084 0.1721165 0.1723282
 0.172541 0.1727565 0.1729731 0.1731864 0.1733965 0.1736061 0.1738157 0.174027 0.1742418 0.1744563
 0.1746692 0.1748843 0.1750987 0.1753031 0.1755009 0.1757066 0.1759244 0.1761468 0.1763676 0.176582
 0.1767873 0.1769898 0.1771948 0.1773861 0.1775169 0.1774747 0.1769848 0.1755086 0.1722313 0.1662182
 0.1567807 0.1439076 0.1284222 0.111692 0.09512393 0.07979774 0.0663607 0.05510717 0.04611227 0.03931805
 0.03459046 0.03181446 0.03099225 0.03234393 0.03641704 0.04375916 0.05369309 0.06323815 0.06827082 0.06677666
 0.06077826 0.05449799 0.05085428 0.05005032 0.05083053 0.05212088 0.05358313 0.05542077 0.05797573 0.06133745
 0.06532969 0.06993441 0.07549837 0.08228705 0.08995016 0.0976685 0.1048612 0.1116386 0.1185287 0.1258342
 0.1333125 0.1404184 0.1467424 0.1522135 0.1570047 0.1613427 0.1653842 0.1692042 0.1728418 0.1762959
 0.1794463 0.1820238 0.1837411 0.1845119 0.1845545 0.1842697 0.1840035 0.183912 0.1840091 0.184273
 0.1846864 0.1852296 0.1858824 0.1866242 0.1874208 0.1882313 0.1890292 0.1898067 0.1905596 0.1912778
 0.1919459 0.1925502 0.1930899 0.1935786 0.1940286 0.1944426 0.1948263 0.1951919 0.1955471 0.1958914
 0.1962232 0.1965399 0.1968357 0.197107 0.1973564 0.1975877 0.1978074 0.1980259 0.1982471 0.1984622
 0.1986645 0.1988627 0.1990696 0.1992865 0.1995031 0.1997095 0.1999048 0.2000974 0.2002964 0.2005012
 0.2007043 0.2009006 0.2010889 0.2012666 0.2014337 0.2015988 0.2017747 0.2019674 0.2021718 0.2023785
 0.2025825 0.2027858 0.2029888 0.2031852 0.2033727 0.203567 0.2037874 0.2040314 0.204277 0.2045068
 0.204719 0.2049184 0.2051111 0.2053012 0.2054852 0.2056533 0.2058057 0.2059611 0.206143 0.2063594
 0.2065956 0.2068278 0.2070431 0.2072441 0.2074363 0.207622 0.2078045 0.2079856 0.208163 0.2083446
 0.2085528 0.2087982 0.2090632 0.2093246 0.2095771 0.2098233 0.210063 0.2102983 0.2105265 0.2107256
 0.2108747 0.2109947 0.2111523 0.2114084 0.2117578 0.2121253 0.2124325 0.2126681 0.2128778 0.2131087
 0.2133797 0.2136678 0.2138873 0.2139452 0.2138797 0.2138884 0.2141469 0.2146334 0.215176 0.2156321
 0.2159754 0.216251 0.2164999 0.2167201 0.2168723 0.2169257 0.2169212 0.2169908 0.2172674 0.2177474
 0.2182776 0.218708 0.2190096 0.2192263 0.2193968 0.2195487 0.2196594 0.2196003 0.2192729 0.2188613
 0.2187888 0.2193048 0.2202014 0.2210379 0.2215783 0.2219092 0.2221904 0.2224583 0.2226765 0.2227641
 0.2224914 0.2216147 0.2203509 0.2195037 0.2197981 0.2211503 0.222807 0.2240992 0.2248614 0.2252614
 0.2255116 0.2257299 0.2258507 0.2256252 0.2248979 0.2239783 0.2235658 0.2241046 0.2252873 0.2263903
 0.2270153 0.2272971 0.227516 0.2277815 0.2279612 0.2276317 0.2263124 0.2241771 0.2224224 0.2224258
 0.2243966 0.2271281 0.2291972 0.2301891 0.2305808 0.2306934 0.2302133 0.2287517 0.2264266 0.2238069
 0.2217418 0.2212517 0.2228486 0.2256853 0.2280399 0.2290188 0.2293072 0.2300328 0.2314208 0.2328067
 0.2335033 0.2333306 0.2324956 0.2312154 0.2296156 0.2280894 0.2275061 0.2285909 0.2310448 0.2336571
 0.2354241 0.2363098 0.2367161 0.2363043 0.2337592 0.2283737 0.2220252 0.2186485 0.2207581 0.2268172
 0.232887 0.2364983 0.2380034 0.2387236 0.2391843 0.2389644 0.2369344 0.2318703 0.2243699 0.218063
 0.2171564 0.2222676 0.2297251 0.2350039 0.2358187 0.2323567 0.2264479 0.2210144 0.2188804 0.2210639
 0.2263379 0.2324412 0.2374314 0.2402193 0.240563 0.2389548 0.2365713 0.2349893 0.2350479 0.2355986
 0.2343755 0.2308651 0.2271735 0.2249281 0.2227409 0.2187541 0.2147251 0.2148585 0.2203535 0.2274072
 0.2314966 0.2319639 0.2311787 0.2302075 0.2269586 0.2191728 0.2086942 0.201538 0.2026335 0.2107144
 0.2194586 0.2236864 0.2234715 0.2222693 0.2223001 0.2222863 0.2192506 0.2124151 0.205164 0.2021941
 0.2045028 0.2084927 0.2102137 0.2084918 0.2035056 0.1955406 0.187308 0.1847349 0.1919439 0.2061988
 0.2200702 0.2275524 0.2262176 0.2158527 0.1993485 0.1845156 0.1802684 0.1886145 0.2022116 0.2111382
 0.2107489 0.2024424 0.1894397 0.1746417 0.1620201 0.1569429 0.1629324 0.1781304 0.1953694 0.2056884
 0.2032465 0.1899063 0.1757328 0.1717369 0.1797911 0.1913137 0.1968965 0.1948583 0.1898374 0.1868361
 0.188364 0.1940359 0.2009669 0.2064695 0.2101844 0.2109873 0.2040921 0.1867946 0.1660453 0.1538782
 0.1549199 0.1639821 0.1756888 0.189316 0.2025953 0.2083813 0.2027177 0.1923733 0.1891111 0.1972
 0.2097537 0.2171639 0.2166121 0.2125951 0.2099561 0.2087204 0.206511 0.2041344 0.2057653 0.2132033
 0.2227331 0.2292645 0.2316168 0.232074 0.2325102 0.2329612 0.2329198 0.2321971 0.2308594 0.2293454
 0.2283209 0.2279235 0.2276354 0.2270695 0.2259374 0.2228467 0.21559 0.2042499 0.1931998 0.1876451
 0.1880936 0.1906894 0.1929412 0.195173 0.1951715 0.1866934 0.167712 0.1471713 0.1384814 0.1465636
 0.1641884 0.1802148 0.1881308 0.1866008 0.176114 0.1591681 0.1429366 0.137051 0.1457544 0.1638198
 0.1821204 0.1954996 0.2034129 0.2055796 0.2009527 0.1907856 0.1799256 0.1740654 0.1762514 0.1855134
 0.1972074 0.2042507 0.2005783 0.187144 0.1745937 0.1754474 0.1909889 0.2091643 0.2181273 0.2182425
 0.2173687 0.2186368 0.218853 0.2170169 0.2177902 0.2250745 0.2362591 0.2447939 0.2459418 0.2386481
 0.2249508 0.210484 0.2030173 0.2061873 0.2152993 0.222386 0.2239 0.2202409 0.2110486 0.1972058
 0.1858599 0.1861244 0.1985253 0.2137957 0.2234122 0.2273567 0.2302606 0.233423 0.2332444 0.2267
 0.2164169 0.2090658 0.2087674 0.2134798 0.2184421 0.2211987 0.2216193 0.2190335 0.2126484 0.2047996
 0.2009872 0.2050789 0.2152789 0.2257901 0.2319884 0.2333064 0.2318602 0.229713 0.2274971 0.2245856
 0.2204621 0.2164998 0.2157034 0.2195018 0.2254869 0.229897 0.2319318 0.2340232 0.2380101 0.2426078
 0.2449761 0.2438187 0.2406079 0.2382905 0.2389204 0.242034 0.2450017 0.2452716 0.2427955 0.2403031
 0.2407907 0.2446651 0.2496868 0.2535194 0.2556314 0.2568165 0.2578276 0.2587167 0.2587945 0.2571548
 0.2539591 0.2511806 0.2511995 0.2544418 0.2589807 0.2625306 0.264288 0.264793 0.2646797 0.2640195
 0.2626883 0.2609574 0.2595049 0.2588847 0.259128 0.2598811 0.2607731 0.261582 0.2622066 0.2626381
 0.2629281 0.2631187 0.2632292 0.2633044 0.2633891 0.2634432 0.263383 0.2632433 0.2632043 0.2633896
 0.2637061 0.2639458 0.2639762 0.2637516 0.2632057 0.2622694 0.2609969 0.2595508 0.2580195 0.2563563
 0.2546118 0.2531902 0.2527274 0.2536122 0.2556224 0.2580603 0.2602294 0.2617889 0.2627491 0.2632706
 0.2635138 0.2636011 0.2636114 0.2635693 0.2634554 0.2632453 0.2629418 0.2625711 0.2621643 0.2617563
 0.2613887 0.2610881 0.260838 0.2605838 0.2602714 0.2598777 0.2594119 0.2588999 0.258363 0.2577962
 0.2571625 0.2564174 0.2555458 0.2545848 0.2536176 0.2527311 0.2519565 0.2512435 0.2505082 0.2496979
 0.2487939 0.2477746 0.2466355 0.2454551 0.2443848 0.2435302 0.2428602 0.2422508 0.2415901 0.2408243
 0.2399445 0.2389718 0.2379448 0.2368916 0.2358102 0.2346831 0.233495 0.232231 0.2308775 0.2294336
 0.2279119 0.2263298 0.2247105 0.2230799 0.2214314 0.2196899 0.2177241 0.2153944 0.2125904 0.2092399
 0.2053218 0.2008921 0.1960982 0.19115 0.1862561 0.1815812 0.177249 0.1733609 0.1699985 0.1672242
 0.165092 0.1636503 0.1629269 0.1629215 0.1636143 0.1649682 0.1669171 0.169355 0.1721392 0.1751047
 0.1780789 0.1809012 0.1834664 0.1857751 0.1879191 0.1899802 0.1919482 0.1937575 0.1953747 0.1968069
 0.1980509 0.1990861 0.1999203 0.2006038 0.2011904 0.2017016 0.2021364 0.2025011 0.2028151 0.2030912
 0.2033254 0.2035162 0.2036826 0.2038556 0.2040604 0.2043086 0.2046004 0.2049334 0.2053153 0.2057588
 0.2062578 0.206788 0.2073379 0.2079226 0.2085576 0.2092405 0.209973 0.2107858 0.2117282 0.2128325
 0.2140899 0.2154551 0.2168612 0.2182264 0.2194601 0.2204824 0.2212484 0.2217527 0.2220202 0.2220959
 0.2220291 0.2218536 0.2215836 0.2212288 0.2208018 0.220311 0.2197592 0.2191508 0.2184934 0.2177942
 0.2170644 0.2163261 0.2156073 0.214927 0.2142845 0.2136658 0.2130607 0.2124684 0.2118849 0.2112996
 0.2107088 0.2101226 0.2095498 0.208985 0.2084152 0.2078242 0.2071847 0.2064602 0.2056289 0.2046983
 0.2036858 0.2025928 0.2014053 0.2001176 0.1987403 0.1972885 0.195772 0.1941983 0.1925737 0.1908894
 0.1891128 0.1872099 0.1851915 0.1831332 0.1811368 0.1792704 0.1775465 0.1759459 0.174446 0.1730334
 0.1717039 0.1704533 0.1692661 0.1681214 0.1670119 0.1659481 0.1649432 0.1639998 0.1631121 0.1622804
 0.1615199 0.160849 0.1602711 0.1597776 0.1593642 0.1590329 0.1587874 0.1586386 0.1585951 0.1586341
 0.158698 0.1587321 0.1587087 0.1586213 0.1584832 0.1583307 0.1582044 0.1581262 0.1580909 0.1580582
 0.1579459 0.157654 0.1570981 0.1562248 0.1550205 0.1535208 0.1517974 0.1499435 0.1480824 0.1463589
 0.1448877 0.1437189 0.1428471 0.1422183 0.141739 0.1413314 0.1409903 0.1407771 0.1407632 0.1409571
 0.1412518 0.1414728 0.1415368 0.1415411 0.1416674 0.142033 0.1426403 0.1434011 0.1441825 0.1448741
 0.1454254 0.1458192 0.1460524 0.1461511 0.1461535 0.1460762 0.1459287 0.1457371 0.1455166 0.1452526
 0.144924 0.1445151 0.1440147 0.1434327 0.1427894 0.1420773 0.1412755 0.1403802 0.139371 0.1382098
 0.1369587 0.1358466 0.1351488 0.135024 0.1354538 0.1362632 0.1372309 0.1382366 0.1392317 0.1400479
 0.140445 0.1404928 0.1407529 0.1418614 0.143914 0.1463517 0.1484563 0.149866 0.1505953 0.15074
 0.1503462 0.149461 0.1480945 0.1461865 0.1437489 0.1409458 0.1379578 0.1349163 0.1319922 0.1293631
 0.1271084 0.1252477 0.1237946 0.1227946 0.1223733 0.1221631 0.1202845 0.1143153 0.1050257 0.0980614
 0.09919488 0.1078375 0.11745 0.1224485 0.1226459 0.1209904 0.1195324 0.1185787 0.1180102 0.1179681
 0.1186003 0.119782 0.1211285 0.1222333 0.1229324 0.1232769 0.1232347 0.1224305 0.120091 0.1153333
 0.107875 0.09862086 0.08934505 0.08166329 0.07630683 0.0731433 0.07154093 0.07073542 0.07019905 0.06988956
 0.07013577 0.07124217 0.07322608 0.07591136 0.07911722 0.08261399 0.08599566 0.08883625 0.09101115 0.09270842
 0.09409884 0.0951305 0.09566384 0.0956737 0.09527257 0.09462115 0.09386196 0.09307712 0.09223806 0.09122655
 0.09000458 0.0887733 0.0878603 0.08741778 0.08731809 0.08734553 0.08737621 0.0873723 0.08732937 0.08726557
 0.0872082 0.08719844 0.08731686 0.08763266 0.08809966 0.08856321 0.08888942 0.08906066 0.08914616 0.08916736
 0.0889857 0.0884278 0.08758904 0.08683735 0.08634805 0.08580704 0.08481955 0.08350797 0.08245307 0.08207329
 0.08225641 0.08258341 0.08272558 0.08260159 0.08234729 0.08224914 0.08255862 0.0831984 0.08372959 0.08376314
</values></Ydata></ScRf><Data_Parameters_AB><parameter name="DPF">1</parameter><parameter name="NPT">3497</parameter><parameter name="FXV">3996</parameter><parameter name="LXV">500</parameter><parameter name="CSF">1</parameter><parameter name="MXY">0.40125498175621</parameter><parameter name="MNY">-0.0835836306214333</parameter><parameter name="DAT">24/05/2022</parameter><parameter name="TIM">13:27:18.921 (GMT+2)</parameter><parameter name="DXU">WN</parameter></Data_Parameters_AB><AB__Qtest><MainReport name="Quality Test Report"><Header><Line><Legend>Test result ok/not ok [1/0]: </Legend><Value>0</Value></Line><Line><Legend>Method file: </Legend><Value>C:\Users\Public\Documents\Bruker\OPUS_8.2.28\QT\IRBT_v3_default.QT</Value></Line></Header><Matrix><Line><Legend></Legend><Legend>min</Legend><Legend>max</Legend><Legend>measured</Legend></Line><Line><Value>Absorption (X-Range 1):</Value><Value>0.400000</Value><Value>2.000000</Value><Value>0.359588</Value></Line><Line><Value>Noise (X-Range 4):</Value><Value></Value><Value>0.000300</Value><Value>0.000061</Value></Line><Line><Value>Signal/Noise (X-Range 2):</Value><Value>200.000000</Value><Value></Value><Value>115.903069</Value></Line><Line><Value>Signal/Noise (X-Range 3):</Value><Value>40.000000</Value><Value></Value><Value>64.806427</Value></Line><Line><Value>Water vapour (X-Range 5):</Value><Value></Value><Value>0.000300</Value><Value>0.000090</Value></Line><Line><Value>Signal/Water (X-Range 2):</Value><Value>100.000000</Value><Value></Value><Value>78.272403</Value></Line><Line><Value>Signal/Water (X-Range 3):</Value><Value>20.000000</Value><Value></Value><Value>43.765491</Value></Line><Line><Value>Fringes (X-Range 6):</Value><Value></Value><Value>0.000100</Value><Value>0.000077</Value></Line></Matrix></MainReport></AB__Qtest><Data_Parameters_ScSm><parameter name="DPF">1</parameter><parameter name="NPT">1814</parameter><parameter name="FXV">3996.33169228125</parameter><parameter name="LXV">499.541461535156</parameter><parameter name="CSF">1</parameter><parameter name="MXY">0.2660873234272</parameter><parameter name="MNY">0.0370212830603123</parameter><parameter name="DAT">24/05/2022</parameter><parameter name="TIM">13:27:18.921 (GMT+2)</parameter><parameter name="DXU">WN</parameter></Data_Parameters_ScSm><Data_Parameters_ScRf><parameter name="DPF">1</parameter><parameter name="NPT">1820</parameter><parameter name="FXV">4004.04661832813</parameter><parameter name="LXV">495.683998511719</parameter><parameter name="CSF">1</parameter><parameter name="MXY">0.264793038368225</parameter><parameter name="MNY">0.0309922508895397</parameter><parameter name="DAT">24/05/2022</parameter><parameter name="TIM">13:26:53.368 (GMT+2)</parameter><parameter name="DXU">WN</parameter></Data_Parameters_ScRf><Optic_Parameters_Rf><parameter name="APR">0</parameter><parameter name="APT">Open</parameter><parameter name="BMS">KBr</parameter><parameter name="DTC">RT-DLaTGS_IR-Biotyper [Microplate reader]</parameter><parameter name="HPF">0</parameter><parameter name="LPF">10.0</parameter><parameter name="LPV">4000</parameter><parameter name="PGR">0</parameter><parameter name="RCH">Module port</parameter><parameter name="RDX">0</parameter><parameter name="SRC">MIR</parameter><parameter name="VEL">10.0</parameter><parameter name="SON">Off</parameter></Optic_Parameters_Rf><Acquisition_Parameters_Rf><parameter name="ADT">1</parameter><parameter name="AQM">DD</parameter><parameter name="CFE">0</parameter><parameter name="COR">0</parameter><parameter name="DEL">0</parameter><parameter name="DLY">0</parameter><parameter name="HFW">8000</parameter><parameter name="LFW">0</parameter><parameter name="NSR">32</parameter><parameter name="PLF">AB</parameter><parameter name="RES">6</parameter><parameter name="RGN">-1</parameter><parameter name="STR">0</parameter><parameter name="TCL">MakeCompatibleScalar (0, {WSV=1.000000, ARV=0});</parameter><parameter name="TDL">37</parameter><parameter name="RPO">0</parameter></Acquisition_Parameters_Rf><FT_-_Parameters_Rf><parameter name="APF">B3</parameter><parameter name="HFQ">500</parameter><parameter name="LFQ">4000</parameter><parameter name="NLI">0</parameter><parameter name="PHR">24</parameter><parameter name="PHZ">ML</parameter><parameter name="SPZ">NO</parameter><parameter name="ZFF">1</parameter></FT_-_Parameters_Rf><Optic_Parameters_><parameter name="APR">0</parameter><parameter name="APT">Open</parameter><parameter name="BMS">KBr</parameter><parameter name="CHN">Module port</parameter><parameter name="DTC">RT-DLaTGS_IR-Biotyper [Microplate reader]</parameter><parameter name="HPF">0</parameter><parameter name="LPF">10.0</parameter><parameter name="LPV">4000</parameter><parameter name="PGN">0</parameter><parameter name="RDX">0</parameter><parameter name="SRC">MIR</parameter><parameter name="VEL">10.0</parameter><parameter name="SON">Off</parameter></Optic_Parameters_><FT_-_Parameters_><parameter name="APF">B3</parameter><parameter name="HFQ">500</parameter><parameter name="LFQ">4000</parameter><parameter name="NLI">0</parameter><parameter name="PHR">24</parameter><parameter name="PHZ">ML</parameter><parameter name="SPZ">NO</parameter><parameter name="ZFF">1</parameter></FT_-_Parameters_><Acquisition_Parameters_><parameter name="ADT">1</parameter><parameter name="AQM">DD</parameter><parameter name="CFE">0</parameter><parameter name="COR">0</parameter><parameter name="DEL">0</parameter><parameter name="DLY">0</parameter><parameter name="HFW">8000</parameter><parameter name="LFW">0</parameter><parameter name="NSS">32</parameter><parameter name="PLF">AB</parameter><parameter name="RES">6</parameter><parameter name="SOT">0</parameter><parameter name="TCL">MakeCompatibleScalar (0, {WSV=1.000000, ARV=0});</parameter><parameter name="TDL">37</parameter><parameter name="SPO">0</parameter><parameter name="SGN">-1</parameter></Acquisition_Parameters_><Instrument_Parameters_Rf><parameter name="HFL">15800.168544</parameter><parameter name="LFL">0</parameter><parameter name="LWN">15800.168544</parameter><parameter name="ABP">32197</parameter><parameter name="SSP">1</parameter><parameter name="ARG">2</parameter><parameter name="ASG">2</parameter><parameter name="ASS">32</parameter><parameter name="GFW">16</parameter><parameter name="GBW">16</parameter><parameter name="BFW">0</parameter><parameter name="BBW">0</parameter><parameter name="PKA">7279</parameter><parameter name="PKL">4996</parameter><parameter name="PRA">7467</parameter><parameter name="PRL">5001</parameter><parameter name="P2A">1</parameter><parameter name="P2L">1</parameter><parameter name="P2R">1</parameter><parameter name="P2K">1</parameter><parameter name="DAQ">0</parameter><parameter name="AG2">1</parameter><parameter name="SSM">1</parameter><parameter name="RSN">24621</parameter><parameter name="CRR">0</parameter><parameter name="SRT">1653398813.369</parameter><parameter name="DUR">19.6369934082031</parameter><parameter name="TSC">28.8</parameter><parameter name="MVD">0.303859055042267</parameter><parameter name="AN1">0.225786376215961</parameter><parameter name="AN2">0</parameter><parameter name="VSN">2.485 Apr  4 2017</parameter><parameter name="SRN">0085</parameter><parameter name="CAM">0</parameter><parameter name="INS">IR-Biotyper</parameter><parameter name="FOC">69</parameter><parameter name="RDY">1</parameter><parameter name="ARS">32</parameter></Instrument_Parameters_Rf><Sample_Parameters_><parameter name="BLD"></parameter><parameter name="CNM">Admin</parameter><parameter name="CPY"></parameter><parameter name="DPM"></parameter><parameter name="EXP">IRBT_v3_32Scans.XPM</parameter><parameter name="LCT"></parameter><parameter name="SFM">Microplate, HTS-XT</parameter><parameter name="SNM">220524-1303(v.2)_RGV45F+RTF49M_D3_97f86315-0818-479d-8641-65ea9b302f4f.0</parameter><parameter name="XPP">C:\Users\Public\Documents\Bruker\OPUS_8.2.28\XPM</parameter><parameter name="IST">OK</parameter><parameter name="CPG">1252</parameter><parameter name="UID">e5337546-eff7-4f14-b1b5-98cb6a6d63cc</parameter></Sample_Parameters_><Instrument_Parameters_><parameter name="HFL">15800.168544</parameter><parameter name="LFL">0</parameter><parameter name="LWN">15800.168544</parameter><parameter name="ABP">32197</parameter><parameter name="SSP">1</parameter><parameter name="ASG">2</parameter><parameter name="ARG">2</parameter><parameter name="ASS">32</parameter><parameter name="GFW">16</parameter><parameter name="GBW">16</parameter><parameter name="BFW">0</parameter><parameter name="BBW">0</parameter><parameter name="PKA">6980</parameter><parameter name="PKL">4988</parameter><parameter name="PRA">7287</parameter><parameter name="PRL">5002</parameter><parameter name="P2A">1</parameter><parameter name="P2L">1</parameter><parameter name="P2R">1</parameter><parameter name="P2K">1</parameter><parameter name="DAQ">0</parameter><parameter name="AG2">1</parameter><parameter name="SSM">1</parameter><parameter name="RSN">12935</parameter><parameter name="CRR">0</parameter><parameter name="SRT">1653398838.921</parameter><parameter name="DUR">19.6379852294922</parameter><parameter name="TSC">28.8</parameter><parameter name="MVD">0.572930574417114</parameter><parameter name="AN1">0.225804598897109</parameter><parameter name="AN2">0</parameter><parameter name="VSN">2.485 Apr  4 2017</parameter><parameter name="SRN">0085</parameter><parameter name="CAM">0</parameter><parameter name="INS">IR-Biotyper</parameter><parameter name="FOC">69</parameter><parameter name="RDY">1</parameter></Instrument_Parameters_><History/></OPUSDataFile>
