<?xml version="1.0" encoding="UTF-8" ?>
<OPUSDataFile><AB><Ydata ylabel="Absorbance Units"><values byteorder="INTEL" format="FLOAT32" numvalues="3497"> -0.08093564 -0.08087432 -0.08080839 -0.08073735 -0.0806684 -0.08060192 -0.08054536 -0.08049833 -0.08045749 -0.08042191
 -0.08038395 -0.08034451 -0.08030263 -0.08025993 -0.08022024 -0.08018331 -0.08015062 -0.08012111 -0.08009428 -0.08006887
 -0.08004421 -0.08001798 -0.07998887 -0.07995524 -0.07991578 -0.07987187 -0.07982332 -0.07977323 -0.07972191 -0.07967295
 -0.07962669 -0.07958586 -0.07955059 -0.07951933 -0.07949165 -0.07946148 -0.07942865 -0.07938896 -0.07934283 -0.07928982
 -0.07922968 -0.07916103 -0.07908502 -0.07900086 -0.07891561 -0.07883598 -0.07877018 -0.078729 -0.07870926 -0.07871551
 -0.07873052 -0.07875024 -0.07875663 -0.07874332 -0.07870629 -0.07864209 -0.07856518 -0.07847596 -0.07839552 -0.07832504
 -0.07827382 -0.07824101 -0.07821703 -0.0782007 -0.07817885 -0.07815379 -0.07812698 -0.07810082 -0.07808349 -0.07807156
 -0.07806396 -0.07805458 -0.07803509 -0.07800432 -0.07795716 -0.07789917 -0.07783119 -0.07776096 -0.07769201 -0.07762717
 -0.07756914 -0.07751109 -0.07745269 -0.0773849 -0.07730603 -0.07722018 -0.0771274 -0.07705145 -0.07699388 -0.07698324
 -0.07701726 -0.07710078 -0.07722224 -0.07734326 -0.07745234 -0.07749747 -0.07748731 -0.0774088 -0.07728469 -0.07713675
 -0.07698029 -0.07683679 -0.07670609 -0.07659465 -0.07649566 -0.07640585 -0.07632942 -0.07626507 -0.07622717 -0.07621948
 -0.07623985 -0.0762905 -0.07633874 -0.07638285 -0.07638904 -0.07635801 -0.07629207 -0.07619614 -0.07610223 -0.07601294
 -0.07595652 -0.07592827 -0.07593385 -0.07596041 -0.07599018 -0.07601039 -0.07599597 -0.07595022 -0.07586389 -0.07575496
 -0.07563052 -0.07550528 -0.07538739 -0.07528009 -0.07518494 -0.0751059 -0.07504167 -0.07501176 -0.07501777 -0.07508101
 -0.07520331 -0.07534236 -0.07549164 -0.07553662 -0.07548376 -0.07531205 -0.07504599 -0.07476927 -0.07449223 -0.07428411
 -0.07413859 -0.07408051 -0.074088 -0.07414908 -0.07423346 -0.07431133 -0.0743678 -0.07438183 -0.07436648 -0.07432059
 -0.07426343 -0.07420149 -0.07413768 -0.07407441 -0.07400379 -0.07392488 -0.07383624 -0.0737376 -0.07364102 -0.07354736
 -0.07347263 -0.07341594 -0.0733809 -0.07336293 -0.07334637 -0.0733277 -0.07328805 -0.07323196 -0.07315765 -0.07307301
 -0.07298797 -0.07290413 -0.07282691 -0.07275333 -0.07268283 -0.07261374 -0.07254426 -0.07247782 -0.07241363 -0.07236189
 -0.07232407 -0.07230903 -0.07231912 -0.07234382 -0.07238293 -0.07240354 -0.07240444 -0.07236098 -0.07227608 -0.07215605
 -0.07200592 -0.07184809 -0.07168563 -0.07153726 -0.07140403 -0.07129726 -0.07121373 -0.07115637 -0.07111461 -0.0710816
 -0.07104645 -0.07099872 -0.07094124 -0.07087053 -0.0708006 -0.07073531 -0.07068034 -0.07063857 -0.07060207 -0.07057014
 -0.07053837 -0.07050631 -0.07048102 -0.0704629 -0.07046023 -0.07047174 -0.07049379 -0.07052317 -0.07054496 -0.07055822
 -0.07055211 -0.07052955 -0.07049108 -0.07043845 -0.07037487 -0.07029866 -0.07020742 -0.0701067 -0.06999457 -0.06989218
 -0.0698059 -0.06975737 -0.06975763 -0.06979782 -0.06988285 -0.06996768 -0.07004841 -0.07008754 -0.0700822 -0.07002328
 -0.06991094 -0.06974655 -0.06953344 -0.06929276 -0.06903189 -0.06879108 -0.0685757 -0.06842157 -0.06832593 -0.06830627
 -0.06834106 -0.06841534 -0.06849782 -0.06855226 -0.06857461 -0.06854747 -0.06849285 -0.06841538 -0.06833364 -0.0682556
 -0.06818131 -0.06811353 -0.06803814 -0.0679536 -0.06785289 -0.06773518 -0.06761194 -0.06748421 -0.06737143 -0.06727424
 -0.06720749 -0.06716865 -0.06715871 -0.06716798 -0.06717192 -0.06716252 -0.06710874 -0.06702216 -0.06690267 -0.06676824
 -0.06663728 -0.06651195 -0.066402 -0.06629333 -0.06618243 -0.0660581 -0.06591413 -0.06575732 -0.06558695 -0.06541688
 -0.06524916 -0.06508664 -0.0649298 -0.06477083 -0.06460964 -0.06444415 -0.06427608 -0.06411812 -0.06397018 -0.06383958
 -0.06372298 -0.06361403 -0.06351284 -0.06341598 -0.06332629 -0.06324834 -0.06317728 -0.06311468 -0.06304224 -0.06295018
 -0.06282329 -0.06265019 -0.06243539 -0.06217731 -0.06188493 -0.06155925 -0.06120878 -0.06083354 -0.06045161 -0.06006408
 -0.05968771 -0.05932286 -0.05897453 -0.05864257 -0.05832852 -0.05803259 -0.05775742 -0.05750138 -0.05726224 -0.05703651
 -0.05681656 -0.05660055 -0.05638375 -0.05616335 -0.05593748 -0.05569715 -0.05543605 -0.05514961 -0.05483159 -0.05449288
 -0.05413494 -0.05376845 -0.05339614 -0.05302076 -0.05264289 -0.05226406 -0.05188439 -0.05150617 -0.05112957 -0.05075822
 -0.05039227 -0.05003595 -0.04968694 -0.04933982 -0.04898784 -0.04860793 -0.04820019 -0.04774803 -0.04727055 -0.04678627
 -0.04630873 -0.04586104 -0.04543461 -0.0450326 -0.04463883 -0.0442464 -0.04384771 -0.04343707 -0.04302267 -0.04260468
 -0.04219393 -0.04179305 -0.04139454 -0.04099855 -0.04057943 -0.04013629 -0.03965257 -0.03913113 -0.03858631 -0.0380221
 -0.0374639 -0.0369116 -0.03637743 -0.03586055 -0.03536487 -0.03488998 -0.03443896 -0.03400526 -0.03358554 -0.03316985
 -0.03275042 -0.03232358 -0.03188688 -0.03143535 -0.0309696 -0.03047307 -0.02994178 -0.02936953 -0.02875184 -0.0281221
 -0.02748177 -0.02687548 -0.0263042 -0.02577823 -0.02529434 -0.02483236 -0.02438873 -0.02393677 -0.02347715 -0.02299596
 -0.0225006 -0.02199825 -0.02149613 -0.02100996 -0.0205342 -0.02007346 -0.01960816 -0.0191273 -0.01861724 -0.01806485
 -0.01748307 -0.01687038 -0.0162525 -0.01563459 -0.01503105 -0.01444496 -0.01387643 -0.01332586 -0.01278624 -0.01225729
 -0.0117338 -0.01121561 -0.01070016 -0.0101854 -0.009661432 -0.009124981 -0.008559502 -0.007968476 -0.007347384 -0.006709687
 -0.00607106 -0.005442927 -0.00484368 -0.004271598 -0.003732721 -0.00321655 -0.002720937 -0.002233819 -0.001751999 -0.001263873
 -0.0007665813 -0.0002537974 0.0002759235 0.0008224052 0.001385791 0.001964405 0.002557977 0.003160909 0.003771508 0.004373359
 0.004964764 0.005527451 0.006064976 0.006575944 0.007069419 0.00756271 0.008061317 0.008582998 0.009120318 0.009675478
 0.01023164 0.01077774 0.01130543 0.01180467 0.01228764 0.0127541 0.01322416 0.01370263 0.014197 0.01470939
 0.01523675 0.01577898 0.01633446 0.01690299 0.01748134 0.01806811 0.0186506 0.01922667 0.01977933 0.02030843
 0.02080313 0.02126826 0.02170592 0.02212636 0.02254393 0.0229673 0.02341202 0.02387509 0.0243608 0.0248587
 0.02536435 0.02587369 0.02638466 0.02689552 0.02740703 0.0279084 0.02839823 0.0288692 0.02931998 0.02976468
 0.03020423 0.03066085 0.03113357 0.03162467 0.03212946 0.03262772 0.03311544 0.0335693 0.03399097 0.03436995
 0.03471674 0.03503946 0.03535255 0.03567393 0.03600875 0.03636833 0.03674386 0.03713474 0.03753056 0.03792727
 0.03832193 0.03871292 0.03910173 0.03948821 0.03987538 0.04026343 0.04065574 0.04105236 0.04145183 0.04185398
 0.04225568 0.04265841 0.04306772 0.0434847 0.04391764 0.04436163 0.04481208 0.04526074 0.04569334 0.04610687
 0.04649248 0.04685242 0.04718569 0.04749444 0.04777851 0.04804306 0.04828736 0.04852623 0.04876124 0.0490116
 0.04928043 0.04957651 0.0499014 0.05024545 0.05060795 0.05096989 0.05133132 0.05168453 0.05203172 0.05238073
 0.05273041 0.05308368 0.05343301 0.05376341 0.05407192 0.05434277 0.05459117 0.05482268 0.05506189 0.05533046
 0.05563194 0.05598099 0.05634409 0.0567168 0.05705768 0.05735365 0.05760159 0.05779555 0.05797639 0.05814679
 0.05834035 0.05855771 0.05878317 0.0590133 0.05920762 0.0593681 0.05948081 0.05955504 0.05961132 0.0596579
 0.05972237 0.0598063 0.059925 0.06007292 0.06025163 0.0604508 0.06066306 0.06088413 0.06110688 0.06134349
 0.061596 0.0618766 0.0621927 0.0625238 0.0628719 0.06318398 0.06345601 0.06364708 0.06375609 0.06379473
 0.06376764 0.06372485 0.06366816 0.06363408 0.06361743 0.06361888 0.06363871 0.06367407 0.06373667 0.06384584
 0.06399987 0.06421423 0.06445228 0.06469701 0.06490846 0.06505538 0.06514755 0.06517316 0.0651877 0.06520086
 0.06525472 0.06536023 0.06550618 0.06569445 0.06587428 0.06604303 0.06615007 0.06619625 0.06616736 0.06607226
 0.06594528 0.06579868 0.06568982 0.06562248 0.06563652 0.06571914 0.06587382 0.06607274 0.06629215 0.06650186
 0.06667118 0.0667914 0.06684432 0.06685541 0.06682549 0.06679325 0.06676731 0.0667718 0.06681072 0.06690107
 0.06704371 0.06726782 0.06757468 0.06798155 0.06848286 0.06903378 0.06961845 0.07013164 0.07056434 0.07082352
 0.07093114 0.07087748 0.07071581 0.07051714 0.07033056 0.07024153 0.07024772 0.07038885 0.07059785 0.07086179
 0.07109056 0.07124988 0.07129108 0.07118908 0.07097233 0.0706351 0.07026304 0.06986205 0.06951053 0.069212
 0.0689878 0.06883503 0.06872977 0.06867059 0.06863586 0.06863099 0.06866268 0.06873494 0.06886609 0.06904101
 0.06925563 0.06946547 0.06962845 0.06969509 0.06960899 0.06937075 0.06895026 0.06842259 0.06779797 0.06717376
 0.06657568 0.06605218 0.06561707 0.06526396 0.06499454 0.06478234 0.06462585 0.06448819 0.06436694 0.0642206
 0.06405258 0.06385559 0.06364206 0.06345244 0.06328744 0.06317811 0.0630949 0.06300929 0.06288862 0.06267732
 0.06238979 0.06200448 0.0615906 0.06117135 0.06081907 0.06056942 0.06043634 0.06044051 0.06051384 0.06065626
 0.06075276 0.06079318 0.06069714 0.060461 0.06010234 0.05962883 0.05913169 0.0586167 0.05816472 0.05776886
 0.05745045 0.05719665 0.05698988 0.05682019 0.05666588 0.05651867 0.05636224 0.05619103 0.0559938 0.05577613
 0.05553496 0.05528775 0.05503871 0.05480542 0.05459378 0.05440787 0.05425087 0.05410894 0.05398202 0.05384478
 0.05369591 0.05351453 0.05330109 0.05305333 0.0527746 0.05248132 0.05217719 0.05188339 0.05160074 0.05134233
 0.05110503 0.05089063 0.05069304 0.05050733 0.05032595 0.05014236 0.04994981 0.04974268 0.04951942 0.04927704
 0.04902152 0.04875305 0.04848024 0.04820452 0.04793043 0.04765863 0.04738947 0.04712301 0.04685993 0.04660022
 0.04634403 0.04609103 0.04583915 0.0455884 0.0453376 0.04508736 0.04483935 0.04459189 0.04434387 0.04409136
 0.04382815 0.04355633 0.04327087 0.04299015 0.04271785 0.0424848 0.04230374 0.04218994 0.04215684 0.04216737
 0.04222474 0.04224036 0.04220711 0.04204793 0.04175866 0.0413462 0.0408181 0.04026778 0.03970518 0.03923848
 0.03886275 0.03862595 0.03850081 0.0384547 0.0384496 0.03840893 0.0383147 0.03810741 0.03781623 0.03743557
 0.03702375 0.03661242 0.03623015 0.03590132 0.03560311 0.03533385 0.03507457 0.0348164 0.03459534 0.03441216
 0.03432574 0.03433924 0.03445863 0.03467769 0.03492138 0.03517815 0.03534019 0.03540753 0.03531517 0.03508775
 0.03474402 0.03432186 0.03389377 0.03347426 0.03311653 0.03279326 0.03250206 0.03221196 0.0318967 0.0315732
 0.03123566 0.03093027 0.03067185 0.03046546 0.0303195 0.03018576 0.03006003 0.02991167 0.02973882 0.02957111
 0.02941099 0.02930084 0.02923618 0.02921324 0.02922279 0.02922792 0.02922821 0.0292023 0.02915892 0.02910441
 0.02904178 0.02898198 0.02891004 0.02882315 0.02869134 0.0284981 0.02822287 0.02784672 0.02739468 0.02685947
 0.02632016 0.02578521 0.0253364 0.02498549 0.02474244 0.02460855 0.02450738 0.02443361 0.02429424 0.02409322
 0.02380249 0.02343951 0.02305133 0.02265254 0.02230543 0.02200471 0.0217737 0.02159103 0.0214423 0.02130729
 0.02116456 0.0210054 0.02081708 0.02060632 0.02036867 0.02012986 0.01989356 0.01968988 0.01952768 0.01939944
 0.01930885 0.01919529 0.01905552 0.01883316 0.0185304 0.01816494 0.01774704 0.01735235 0.01698036 0.01667574
 0.01641756 0.01617715 0.01593808 0.01565192 0.01533441 0.01497959 0.01462083 0.01428655 0.013987 0.01374097
 0.01352865 0.01334586 0.01318 0.01302313 0.01289138 0.01278593 0.01272382 0.01270925 0.01272097 0.01275821
 0.01276298 0.01273253 0.01261405 0.01241151 0.01211905 0.01175029 0.01134995 0.01093297 0.01055916 0.01023281
 0.009990457 0.00982315 0.009736088 0.009715123 0.009750781 0.009832208 0.009951236 0.01010088 0.01027798 0.01047373
 0.01068686 0.0109031 0.01111959 0.01132841 0.01152657 0.01173455 0.01195314 0.01223141 0.0125712 0.01301078
 0.013545 0.01416291 0.0148532 0.01556745 0.0162993 0.01700727 0.01769459 0.01834779 0.01897312 0.01957263
 0.02015197 0.02071462 0.02127025 0.02182345 0.02238696 0.02296823 0.02356812 0.02419239 0.02481681 0.02544108
 0.02602471 0.02656375 0.02702665 0.02741115 0.02771243 0.02793146 0.02808345 0.02816942 0.02820312 0.02818451
 0.02811782 0.02800884 0.02786905 0.02771621 0.02758379 0.02749033 0.02747567 0.0275356 0.02768632 0.02789786
 0.02815866 0.02844247 0.02873275 0.02903158 0.0293345 0.0296579 0.03000514 0.0303792 0.030782 0.03119819
 0.03162711 0.032044 0.03244713 0.03280608 0.03311988 0.03336421 0.03354467 0.0336658 0.0337423 0.03381255
 0.03388942 0.0340188 0.03418948 0.03442122 0.03465403 0.03486467 0.03494108 0.03482293 0.03440033 0.03360423
 0.03242704 0.03082923 0.02895584 0.02680987 0.02462029 0.02240985 0.02035943 0.01848255 0.01683483 0.0154138
 0.01417689 0.01311746 0.01217102 0.01133576 0.01057195 0.009878675 0.009236237 0.008638293 0.008065586 0.007511673
 0.006958259 0.006411064 0.005865502 0.005338856 0.004839819 0.004380781 0.003970639 0.003606915 0.003291431 0.003015887
 0.002778427 0.002577845 0.002412992 0.002293781 0.002220656 0.002209018 0.002258627 0.002369301 0.002534457 0.002712206
 0.002889398 0.002990035 0.003009288 0.002889219 0.002648841 0.002289073 0.001845798 0.001362671 0.000868093 0.000402753
 -2.516113E-05 -0.0003988473 -0.0007219263 -0.000993218 -0.001213014 -0.001383794 -0.001491908 -0.00153728 -0.001494502 -0.001359405
 -0.001126748 -0.0007943092 -0.0004366359 -6.319565E-05 0.0001517979 0.0001955275 -0.0001170235 -0.0007697506 -0.001814839 -0.003190137
 -0.004769542 -0.006480662 -0.008128997 -0.009692638 -0.01105271 -0.0122543 -0.01329066 -0.01422478 -0.01509716 -0.01593137
 -0.01675235 -0.01754116 -0.01829805 -0.0190009 -0.01964388 -0.02022609 -0.02074564 -0.02121742 -0.02164213 -0.02203741
 -0.02240414 -0.02275721 -0.02309724 -0.02343599 -0.02377319 -0.02411536 -0.02445915 -0.0248007 -0.0251331 -0.02544114
 -0.02572271 -0.02596483 -0.02618059 -0.02637334 -0.02656611 -0.02677548 -0.02700957 -0.02728117 -0.02756799 -0.02786936
 -0.0281507 -0.0284041 -0.02861676 -0.02878389 -0.02892836 -0.02905104 -0.02918561 -0.02933276 -0.02950254 -0.02969205
 -0.02988314 -0.0300754 -0.0302549 -0.0304292 -0.03061143 -0.03080865 -0.03104394 -0.0313097 -0.03160963 -0.03192331
 -0.03223464 -0.03252684 -0.03278379 -0.03300191 -0.03317405 -0.03330894 -0.03340481 -0.0334839 -0.03354773 -0.03362836
 -0.03372996 -0.03387126 -0.03405451 -0.03426489 -0.0345009 -0.03472986 -0.03495175 -0.03515027 -0.03532908 -0.0354956
 -0.03565161 -0.03580683 -0.03595853 -0.03610586 -0.0362469 -0.03637795 -0.03650066 -0.03661561 -0.03672313 -0.03682452
 -0.03691635 -0.03699659 -0.03706636 -0.03712314 -0.03718087 -0.03724048 -0.03732157 -0.03742711 -0.03756438 -0.0377346
 -0.03792331 -0.03812934 -0.03832799 -0.03851901 -0.03868819 -0.0388384 -0.03897393 -0.03909848 -0.03922513 -0.03935393
 -0.03949279 -0.03963573 -0.03977916 -0.03991507 -0.0400333 -0.04013431 -0.0402117 -0.0402814 -0.0403464 -0.04042821
 -0.04053481 -0.04067365 -0.0408497 -0.04104974 -0.04127368 -0.041501 -0.04173022 -0.04194795 -0.04215385 -0.04234511
 -0.04252244 -0.04268984 -0.04284843 -0.0430053 -0.04316073 -0.04331986 -0.04348081 -0.04364314 -0.04380312 -0.04395549
 -0.04409808 -0.04422574 -0.04434193 -0.04444546 -0.04454631 -0.04464756 -0.04476004 -0.04488825 -0.045035 -0.04520294
 -0.04538319 -0.04557557 -0.04576664 -0.04595539 -0.04613299 -0.04629922 -0.0464525 -0.04659295 -0.04672071 -0.0468355
 -0.04693541 -0.04702135 -0.04709352 -0.04715629 -0.0472172 -0.04728225 -0.0473632 -0.04746169 -0.04758495 -0.04772751
 -0.04788892 -0.048061 -0.04824028 -0.04842066 -0.0485997 -0.04877377 -0.04894175 -0.04910194 -0.04925384 -0.04939811
 -0.04953471 -0.04966635 -0.04979317 -0.04991759 -0.05003971 -0.05016151 -0.05028298 -0.05040518 -0.05052786 -0.05065088
 -0.05077391 -0.05089614 -0.0510177 -0.05113823 -0.05125855 -0.05137921 -0.05150125 -0.0516255 -0.05175254 -0.05188324
 -0.05201609 -0.0521515 -0.05228475 -0.05241515 -0.05253811 -0.05265259 -0.05275944 -0.05285843 -0.05295626 -0.0530533
 -0.05315721 -0.0532681 -0.05339041 -0.05352367 -0.05366841 -0.05382335 -0.05398545 -0.05415265 -0.05431956 -0.05448465
 -0.05464299 -0.05479569 -0.05494128 -0.05508362 -0.0552246 -0.05536775 -0.05551584 -0.05566777 -0.05582459 -0.05598088
 -0.05613584 -0.0562847 -0.05642644 -0.05656119 -0.05668874 -0.05681285 -0.05693367 -0.05705459 -0.05717577 -0.05729984
 -0.05742715 -0.05756084 -0.05770059 -0.05784804 -0.05800053 -0.05815405 -0.05830513 -0.05844627 -0.05857825 -0.05869742
 -0.05881081 -0.05892127 -0.05903655 -0.05916167 -0.05929784 -0.05944751 -0.05960506 -0.05977044 -0.05993486 -0.06009741
 -0.06025003 -0.06039188 -0.06052095 -0.06063738 -0.06074873 -0.06085585 -0.06097022 -0.06109121 -0.06122266 -0.06136176
 -0.06150209 -0.06164159 -0.06177217 -0.06189543 -0.06200942 -0.06211855 -0.06222637 -0.06233627 -0.06245238 -0.06257365
 -0.0627012 -0.06283108 -0.06296203 -0.06309253 -0.0632217 -0.06335149 -0.06348226 -0.06361363 -0.06374579 -0.06387348
 -0.06399649 -0.06411143 -0.06421881 -0.06432187 -0.06442152 -0.06452385 -0.06462915 -0.06474155 -0.06486064 -0.06498799
 -0.06512186 -0.06526139 -0.06540243 -0.06554077 -0.06567289 -0.06579411 -0.06590633 -0.06600829 -0.06610615 -0.06620161
 -0.06629886 -0.06639932 -0.0665035 -0.06661158 -0.06672409 -0.06684109 -0.06696319 -0.06709034 -0.06721982 -0.0673512
 -0.06747899 -0.06760357 -0.06772332 -0.06784013 -0.067959 -0.0680812 -0.06821249 -0.06835127 -0.06849811 -0.06865006
 -0.06880402 -0.06895906 -0.06911359 -0.06926756 -0.06942113 -0.06957216 -0.06972017 -0.06986278 -0.06999865 -0.07013112
 -0.07025997 -0.07039289 -0.07053062 -0.07067586 -0.07082859 -0.07098168 -0.07113448 -0.07127734 -0.07141113 -0.07153435
 -0.07164978 -0.07176547 -0.07188298 -0.07201051 -0.07214541 -0.07228799 -0.0724335 -0.07257683 -0.07271604 -0.07284735
 -0.07297345 -0.07309417 -0.07321397 -0.07333417 -0.07345821 -0.07358713 -0.07372235 -0.07386447 -0.0740115 -0.07416355
 -0.07431504 -0.07446568 -0.07460989 -0.07474776 -0.07487808 -0.07500154 -0.07512086 -0.07523651 -0.0753514 -0.07546549
 -0.07558011 -0.07569502 -0.07581037 -0.07592609 -0.07604197 -0.07615838 -0.07627527 -0.07639378 -0.0765146 -0.07663789
 -0.07676455 -0.07689104 -0.07701705 -0.07713786 -0.07725225 -0.07736148 -0.0774652 -0.07757191 -0.07768202 -0.07780161
 -0.07793017 -0.07806438 -0.0782031 -0.07833829 -0.07847008 -0.07859439 -0.07871266 -0.07882595 -0.07893556 -0.07904386
 -0.07915165 -0.0792606 -0.07937121 -0.07948463 -0.07960005 -0.07971768 -0.07983556 -0.07995312 -0.08006875 -0.08018175
 -0.08029263 -0.08040111 -0.08051047 -0.08062092 -0.08073594 -0.08085566 -0.08097854 -0.08110409 -0.08122584 -0.08134407
 -0.08145606 -0.08156402 -0.08167389 -0.08178692 -0.08191009 -0.08203988 -0.08217478 -0.08230928 -0.08243635 -0.08255465
 -0.08265972 -0.08275633 -0.08284517 -0.08293212 -0.08301937 -0.08311018 -0.08320578 -0.08330719 -0.08341478 -0.08352845
 -0.08364835 -0.08377238 -0.08390041 -0.08402821 -0.08415581 -0.08428127 -0.08440565 -0.08453302 -0.08466526 -0.08481073
 -0.08497041 -0.08515072 -0.08535112 -0.08557337 -0.08581715 -0.08608193 -0.08637007 -0.08668172 -0.08702348 -0.08739737
 -0.08781321 -0.08827484 -0.08878815 -0.08935674 -0.08997409 -0.09064183 -0.09133713 -0.09205925 -0.09277323 -0.09347701
 -0.0941249 -0.09471428 -0.09520032 -0.09558303 -0.09584025 -0.09597119 -0.09596453 -0.09581237 -0.09547941 -0.09499162
 -0.09435303 -0.0936463 -0.09296174 -0.09235572 -0.09190746 -0.09160887 -0.09147976 -0.09148749 -0.09162775 -0.09186337
 -0.09219053 -0.09255342 -0.0929473 -0.09329984 -0.09360326 -0.09382347 -0.0939588 -0.09403313 -0.09404942 -0.09404853
 -0.09403241 -0.09403422 -0.0940508 -0.09409238 -0.09414759 -0.09419615 -0.09422892 -0.09421904 -0.09417307 -0.09408505
 -0.09397174 -0.09384427 -0.09371263 -0.09358609 -0.09346402 -0.0933479 -0.09323672 -0.09312935 -0.09303181 -0.09294445
 -0.09287515 -0.09282494 -0.09279452 -0.0927839 -0.09278341 -0.0927923 -0.0927984 -0.09280226 -0.09279998 -0.09279399
 -0.0927904 -0.09279149 -0.09280598 -0.09283329 -0.09287726 -0.09293386 -0.09300073 -0.09307267 -0.09314486 -0.09321455
 -0.09327858 -0.09333794 -0.09339194 -0.09344339 -0.09349246 -0.09354331 -0.09359622 -0.09365709 -0.09372655 -0.09380807
 -0.09390186 -0.09400323 -0.09411147 -0.09421621 -0.09431732 -0.09440818 -0.0944904 -0.09456594 -0.09463661 -0.09470809
 -0.09478024 -0.09485564 -0.09493282 -0.09501112 -0.09508943 -0.09516644 -0.09524242 -0.09531701 -0.09539109 -0.09546488
 -0.09553919 -0.09561427 -0.09569059 -0.09576835 -0.09584706 -0.09592674 -0.0960062 -0.09608538 -0.09616376 -0.0962415
 -0.09632057 -0.0964011 -0.09648549 -0.09657295 -0.09666242 -0.09675235 -0.09683839 -0.09691994 -0.09699359 -0.09706081
 -0.09712171 -0.09717858 -0.09723308 -0.09728735 -0.09734293 -0.09740106 -0.09746262 -0.09752776 -0.09759683 -0.09766869
 -0.09774326 -0.09781904 -0.09789591 -0.09797222 -0.09804787 -0.09812151 -0.09819319 -0.09826317 -0.09833185 -0.09840184
 -0.09847314 -0.0985476 -0.09862399 -0.09870049 -0.09877554 -0.09884531 -0.09891022 -0.09896847 -0.09902333 -0.09907614
 -0.09913154 -0.09919242 -0.0992614 -0.09934089 -0.09942836 -0.09952447 -0.09962208 -0.09972043 -0.09981219 -0.09989633
 -0.0999718 -0.1000385 -0.1001027 -0.100165 -0.1002339 -0.1003092 -0.1003938 -0.100486 -0.100581 -0.1006769
 -0.1007663 -0.1008498 -0.100924 -0.1009918 -0.1010552 -0.1011169 -0.10118 -0.1012449 -0.1013127 -0.1013815
 -0.1014506 -0.1015192 -0.1015865 -0.1016545 -0.1017234 -0.1017946 -0.1018686 -0.1019429 -0.1020173 -0.1020877
 -0.1021541 -0.1022163 -0.1022749 -0.1023339 -0.1023935 -0.1024566 -0.1025228 -0.102592 -0.1026637 -0.1027367
 -0.1028106 -0.1028846 -0.1029579 -0.1030294 -0.1031 -0.1031693 -0.1032403 -0.1033145 -0.1033931 -0.1034777
 -0.103564 -0.1036519 -0.1037345 -0.1038107 -0.1038786 -0.1039382 -0.1039952 -0.1040498 -0.1041096 -0.1041741
 -0.1042454 -0.1043223 -0.1044009 -0.1044803 -0.1045559 -0.1046283 -0.1046967 -0.1047624 -0.1048274 -0.1048913
 -0.1049547 -0.1050153 -0.1050715 -0.1051233 -0.105169 -0.1052156 -0.1052639 -0.1053222 -0.1053926 -0.1054747
 -0.1055693 -0.1056667 -0.1057662 -0.1058594 -0.1059464 -0.1060266 -0.1061006 -0.1061716 -0.1062396 -0.1063062
 -0.1063713 -0.106435 -0.106498 -0.1065611 -0.1066253 -0.1066917 -0.1067615 -0.1068361 -0.1069159 -0.1070022
 -0.1070924 -0.1071868 -0.107279 -0.1073675 -0.1074469 -0.1075153 -0.1075747 -0.1076244 -0.1076735 -0.1077224
 -0.1077792 -0.1078437 -0.1079151 -0.1079928 -0.1080704 -0.1081483 -0.1082236 -0.1082984 -0.108377 -0.1084602
 -0.1085521 -0.1086493 -0.1087499 -0.1088493 -0.1089424 -0.1090284 -0.1091048 -0.1091738 -0.1092358 -0.1092921
 -0.1093432 -0.10939 -0.1094324 -0.1094742 -0.1095156 -0.1095625 -0.1096153 -0.1096767 -0.1097467 -0.1098227
 -0.1099045 -0.1099879 -0.1100731 -0.110159 -0.1102458 -0.1103347 -0.1104244 -0.1105138 -0.1106005 -0.1106807
 -0.110754 -0.1108178 -0.1108764 -0.1109306 -0.1109869 -0.1110483 -0.1111169 -0.1111948 -0.1112776 -0.111365
 -0.1114511 -0.1115349 -0.111616 -0.1116942 -0.111774 -0.1118554 -0.1119402 -0.1120277 -0.1121128 -0.1121949
 -0.1122677 -0.1123325 -0.1123888 -0.1124395 -0.1124893 -0.1125408 -0.1125995 -0.1126654 -0.112741 -0.1128228
 -0.1129099 -0.1129982 -0.1130853 -0.1131707 -0.1132536 -0.1133365 -0.1134203 -0.1135051 -0.1135915 -0.113676
 -0.1137584 -0.1138372 -0.1139127 -0.1139875 -0.1140619 -0.1141389 -0.1142175 -0.1142967 -0.1143751 -0.1144486
 -0.1145167 -0.1145758 -0.1146281 -0.1146737 -0.1147173 -0.1147629 -0.1148135 -0.114873 -0.1149391 -0.1150125
 -0.115087 -0.1151607 -0.1152297 -0.1152929 -0.115351 -0.1154041 -0.1154547 -0.1155032 -0.1155509 -0.1155978
 -0.1156438 -0.1156886 -0.115731 -0.1157708 -0.1158066 -0.115839 -0.1158685 -0.1158969 -0.1159273 -0.1159614
 -0.116003 -0.1160523 -0.1161111 -0.1161772 -0.1162503 -0.1163266 -0.1164049 -0.1164808 -0.1165531 -0.1166184
 -0.1166758 -0.1167256 -0.1167673 -0.1168052 -0.1168393 -0.116874 -0.1169092 -0.1169458 -0.1169836 -0.1170214
 -0.1170595 -0.1170978 -0.1171367 -0.1171777 -0.1172206 -0.1172658 -0.1173131 -0.1173623 -0.1174137 -0.1174682
 -0.1175249 -0.1175845 -0.1176428 -0.1176981 -0.1177463 -0.1177852 -0.1178173 -0.1178421 -0.1178668 -0.1178924
 -0.1179218 -0.1179552 -0.1179884 -0.1180214 -0.1180513 -0.1180791 -0.1181091 -0.1181421 -0.1181831 -0.1182307
 -0.1182838 -0.1183397 -0.1183931 -0.1184429 -0.1184851 -0.1185202 -0.1185471 -0.1185668 -0.1185793 -0.1185876
 -0.1185926 -0.1185978 -0.1186045 -0.1186144 -0.118628 -0.1186443 -0.1186634 -0.1186838 -0.1187052 -0.118726
 -0.1187461 -0.1187642 -0.1187802 -0.1187941 -0.1188062 -0.1188181 -0.1188301 -0.1188436 -0.1188589 -0.118877
 -0.118898 -0.1189227 -0.1189502 -0.1189803 -0.1190099 -0.1190374 -0.1190591 -0.1190725 -0.1190769 -0.119071
 -0.1190585 -0.1190397 -0.11902 -0.119 -0.1189827 -0.1189684 -0.1189575 -0.1189501 -0.1189485 -0.1189535
 -0.1189709 -0.1190006 -0.1190458 -0.1191033 -0.1191669 -0.1192309 -0.1192805 -0.1193132 -0.1193174 -0.1192996
 -0.1192605 -0.1192102 -0.1191561 -0.1191026 -0.119054 -0.1190088 -0.1189671 -0.1189283 -0.1188918 -0.1188606
 -0.1188351 -0.1188165 -0.118805 -0.1187987 -0.1187974 -0.1188011 -0.1188099 -0.1188247 -0.1188437 -0.1188595
 -0.1188689 -0.1188569 -0.1188254 -0.1187684 -0.1186946 -0.1186123 -0.1185298 -0.1184574 -0.1183999 -0.1183637
 -0.1183489 -0.1183591 -0.1183858 -0.1184292 -0.1184714 -0.11851 -0.1185267 -0.1185186 -0.1184791 -0.1184071
 -0.1183112 -0.1181921 -0.1180682 -0.1179404 -0.1178252 -0.1177218 -0.1176355 -0.1175641 -0.1175039 -0.1174531
 -0.1174068 -0.1173629 -0.1173176 -0.1172676 -0.117208 -0.1171388 -0.1170571 -0.1169681 -0.1168736 -0.1167769
 -0.1166802 -0.1165807 -0.1164784 -0.1163703 -0.1162557 -0.1161385 -0.1160189 -0.1159051 -0.1157973 -0.1156979
 -0.1156052 -0.1155071 -0.1154004 -0.1152625 -0.1150961 -0.1148939 -0.1146653 -0.114426 -0.1141804 -0.1139428
 -0.1137093 -0.1134809 -0.1132552 -0.1130296 -0.1128075 -0.1125897 -0.1123798 -0.1121794 -0.1119886 -0.1118087
 -0.1116347 -0.1114675 -0.111289 -0.1110981 -0.1108749 -0.1106191 -0.1103414 -0.1100446 -0.1097587 -0.1094822
 -0.1092254 -0.1089825 -0.1087415 -0.1084985 -0.1082388 -0.1079645 -0.1076706 -0.1073646 -0.1070512 -0.1067382
 -0.1064347 -0.106137 -0.1058504 -0.1055509 -0.1052332 -0.1048742 -0.104465 -0.1040148 -0.1035226 -0.1030108
 -0.1024816 -0.1019373 -0.1013781 -0.100803 -0.1002136 -0.09962355 -0.09903146 -0.09844197 -0.09784476 -0.09721179
 -0.09653436 -0.09577482 -0.09494834 -0.09405541 -0.0931252 -0.09218974 -0.09125686 -0.09034343 -0.08944187 -0.08855087
 -0.08767086 -0.08680104 -0.08594628 -0.08511174 -0.08427408 -0.08343622 -0.08252562 -0.08153654 -0.08042046 -0.07917837
 -0.07789523 -0.07657821 -0.07533444 -0.07415114 -0.07302323 -0.07193494 -0.07083336 -0.06971871 -0.06856656 -0.06738172
 -0.06616819 -0.06490852 -0.06359919 -0.06218769 -0.06064161 -0.05891183 -0.05694996 -0.05480313 -0.05245581 -0.05005294
 -0.0476214 -0.04526544 -0.04300707 -0.04085984 -0.03882872 -0.03686966 -0.03497863 -0.03304743 -0.03106369 -0.02885471
 -0.02643512 -0.0237543 -0.02089574 -0.018104 -0.01540272 -0.01298808 -0.01076831 -0.00869209 -0.006686824 -0.004649855
 -0.002579386 -0.0004416087 0.001743415 0.003971107 0.006238505 0.008552656 0.01086829 0.01318253 0.01542516 0.01758
 0.01966517 0.02167964 0.02367574 0.02565365 0.02755575 0.02937468 0.03100618 0.03246538 0.03376469 0.03493908
 0.03611197 0.03728351 0.03853371 0.03979567 0.04099301 0.04211229 0.04309072 0.04399971 0.04488168 0.04574875
 0.04663513 0.04746617 0.04822481 0.04885533 0.04933699 0.04967625 0.04986931 0.04994526 0.04990549 0.04978435
 0.04958365 0.04933476 0.04903704 0.04869667 0.04831091 0.04786762 0.04736885 0.04681008 0.04620533 0.04557727
 0.04494908 0.04436605 0.04383728 0.04339244 0.0430199 0.04271876 0.04248365 0.04230933 0.04220282 0.04216818
 0.04219704 0.04229083 0.0424261 0.04259875 0.04280262 0.04303613 0.0433119 0.0436305 0.04400201 0.04442577
 0.04489943 0.04542102 0.04598007 0.04657417 0.04719023 0.04782725 0.04847555 0.04913859 0.04981557 0.05051497
 0.05124328 0.05201265 0.05283289 0.05371374 0.05466369 0.05568187 0.05677032 0.05792395 0.05914201 0.0604215
 0.06176421 0.06314835 0.06457386 0.06599255 0.06740206 0.06876825 0.07009128 0.07136654 0.07258702 0.07371802
 0.07474376 0.07558735 0.07625759 0.07672892 0.07703382 0.07721176 0.0772815 0.0772806 0.0772057 0.07706928
 0.0768526 0.07655968 0.07613629 0.07557702 0.07478573 0.07372894 0.07240838 0.07079761 0.06911992 0.06739509
 0.06573059 0.06412989 0.06248213 0.06078371 0.0589562 0.05701109 0.05496951 0.05284129 0.05068173 0.04846419
 0.04617897 0.04374447 0.0410194 0.03798771 0.0345058 0.03081921 0.02705878 0.02341546 0.0200746 0.01690148
 0.01388858 0.01091349 0.007924507 0.0049867 0.002097164 -0.0006327382 -0.003189144 -0.005577809 -0.007799483 -0.009941465
 -0.01200581 -0.01404599 -0.01605457 -0.0180189 -0.01993273 -0.02176519 -0.02352376 -0.02520699 -0.02683082 -0.02841841
 -0.02998229 -0.03154047 -0.03311164 -0.03470428 -0.03636676 -0.03812677 -0.04001206 -0.04207645 -0.0441479 -0.04621679
 -0.04802228 -0.04949921 -0.05070588 -0.05163287 -0.0525032 -0.05332749 -0.05422299 -0.05518392 -0.05618279 -0.0572081
 -0.05817846 -0.05910134 -0.05996096 -0.06076577 -0.06153899 -0.06225402 -0.06288633 -0.06339477 -0.06371604 -0.06385631
 -0.06379113 -0.06356575 -0.06319784 -0.06271678 -0.06213957 -0.0614673 -0.06070704 -0.05983315 -0.05884724 -0.0576895
 -0.05635352 -0.05480839 -0.05305346 -0.051221 -0.04932469 -0.04757373 -0.04596154 -0.04455982 -0.0433494 -0.04230023
 -0.04140761 -0.04065036 -0.04002066 -0.03950974 -0.03907661 -0.0386854 -0.03826965 -0.03776069 -0.0371455 -0.03637571
 -0.03555072 -0.03469529 -0.03388318 -0.03314738 -0.03246075 -0.0318264 -0.03119356 -0.0305571 -0.02989484 -0.02920556
 -0.02850213 -0.02778576 -0.02707702 -0.02637224 -0.02566451 -0.02494272 -0.02416565 -0.02332466 -0.02237456 -0.02132618
 -0.02017505 -0.01893798 -0.01763766 -0.01626708 -0.01482879 -0.01331253 -0.01170534 -0.01003298 -0.008295191 -0.006542884
 -0.004789401 -0.003060808 -0.001366019 0.0003091757 0.001965935 0.003610189 0.005242055 0.006795629 0.008263933 0.009539997
 0.01062297 0.011454 0.012037 0.01235789 0.0124121 0.01218236 0.01166324 0.01083262 0.009704838 0.00827977
 0.006594155 0.004672319 0.002551863 0.0002595653 -0.002187053 -0.004777619 -0.007499617 -0.01035908 -0.01328811 -0.01628756
 -0.01922042 -0.0220734 -0.02475663 -0.02726474 -0.02963279 -0.03186547 -0.03403733 -0.03614254 -0.03818731 -0.04015583
 -0.04199053 -0.04369284 -0.04523 -0.04662902 -0.04791669 -0.04912139 -0.05028738 -0.05142454 -0.05255806 -0.0536772
 -0.05478584 -0.05586119 -0.05689628 -0.05787322 -0.05878428 -0.05963152 -0.0604123 -0.06114614 -0.06183481 -0.06249113
 -0.06311592 -0.0636922 -0.06421784 -0.0646583 -0.06501539 -0.06527951 -0.06546021 -0.06558578 -0.06566493 -0.06573324
 -0.06579185 -0.06585966 -0.06593103 -0.06600721 -0.06608129 -0.06614647 -0.06620415 -0.06625011 -0.06629874 -0.06635304
 -0.0664295 -0.06653345 -0.06667075 -0.06684376 -0.06704931 -0.06728742 -0.06755419 -0.06784942 -0.06816937 -0.06851352
 -0.06887451 -0.0692511 -0.06963257 -0.07001713 -0.07039294 -0.07075818 -0.07110291 -0.07142577 -0.07172071 -0.07198559
 -0.07221643 -0.07240966 -0.07256081 -0.07266915 -0.07273114 -0.07275458 -0.07273936 -0.07270145 -0.0726435 -0.07258366
 -0.07252487 -0.07248135 -0.07245495 -0.07245214 -0.07247339 -0.07251743 -0.07258403 -0.07266999 -0.07277519 -0.07289796
 -0.07303743 -0.07319007 -0.07335383 -0.07352169 -0.07369305 -0.07386299 -0.07403407 -0.07420723 -0.07438511 -0.07457139
 -0.07476346 -0.07496267 -0.07515994 -0.07535294 -0.07553191 -0.07569316 -0.07583516 -0.07595605 -0.07606462 -0.07616149
 -0.07625509 -0.07634602 -0.07643245 -0.07651394 -0.07658292 -0.07663985 -0.07668339 -0.07671556 -0.07674333 -0.07676742
 -0.07679442 -0.07682056 -0.07684375 -0.07685699 -0.07685094 -0.07682186 -0.07676183 -0.07667585 -0.07656305 -0.07643379
 -0.07629183 -0.07614406 -0.07599311 -0.07584164 -0.07569011 -0.07554245 -0.07539885 -0.0752653 -0.07514217 -0.07503311
 -0.07493801 -0.0748559 -0.07478601 -0.07472294 -0.07466596 -0.07460862 -0.07455242 -0.07449687 -0.07444596 -0.07440679
 -0.07438082 -0.07437427 -0.07438208 -0.07440243 -0.07443026 -0.07446057 -0.07449668 -0.07453769 -0.07459157 -0.074661
 -0.07474726 -0.07485203 -0.07496721 -0.07509234 -0.07521843 -0.07534491 -0.0754671 -0.07558484 -0.0756949 -0.0757971
 -0.07588806 -0.07596909 -0.07604228 -0.0761114 -0.07618712 -0.07627165 -0.07637529 -0.07649398 -0.07662813 -0.07676997
 -0.0769131 -0.07705256 -0.07718346 -0.07730482 -0.07741517 -0.0775146 -0.07760254 -0.07768112 -0.07775009 -0.07781523
 -0.0778772 -0.07793951 -0.07800249 -0.0780616 -0.07811638 -0.07815796 -0.07818659 -0.07819888 -0.07819682 -0.07818642
 -0.0781692 -0.0781531 -0.07813592 -0.07811804 -0.07809516 -0.07806174 -0.07801608 -0.07795494 -0.07787774 -0.07778548
 -0.07766982 -0.07752991 -0.07735 -0.07712528 -0.07684786 -0.0765138 -0.07613292 -0.07570492 -0.07524953 -0.07476794
 -0.07427647 -0.0737756 -0.07327391 -0.07277086 -0.0722677 -0.0717625 -0.07124902 -0.07072455 -0.07017823 -0.06961048
 -0.06901468 -0.06839894 -0.06776814 -0.06713619 -0.06651627 -0.06591807 -0.06535237 -0.06481785 -0.06431684 -0.06384459
 -0.06339948 -0.0629822 -0.06259245 -0.06223268 -0.0619035 -0.06160185 -0.06132769 -0.06107282 -0.06083647 -0.06060608
 -0.06037979 -0.06013902 -0.05988185 -0.05958981 -0.05926434 -0.05889852 -0.05849777 -0.05806762 -0.05761519 -0.0571505
 -0.05668106 -0.05621671 -0.05576137 -0.05532229 -0.05489234 -0.05447253 -0.05404692 -0.05361105 -0.05315544 -0.0526756
 -0.05218164 -0.05167291 -0.05117313 -0.05068377 -0.05022383 -0.04979337 -0.04939255 -0.04901959 -0.04866161 -0.04831796
 -0.04797895 -0.04764578 -0.04731737 -0.04699319 -0.04667233 -0.04635259 -0.04603089 -0.04570553 -0.04537518 -0.04503505
 -0.04468295 -0.04431195 -0.04391659 -0.043502 -0.04306609 -0.0426273 -0.04218977 -0.04175903 -0.04133799 -0.04090666
 -0.04046403 -0.03998936 -0.03948253 -0.03894382 -0.03837458 -0.03778495 -0.03717518 -0.03655003 -0.03591245 -0.03526888
 -0.03463121 -0.03402052 -0.03345543 -0.03296779 -0.03256999 -0.03228769 -0.03211255 -0.03205208 -0.03207709 -0.03218041
 -0.03232779 -0.03250879 -0.03269966 -0.03289397 -0.03308189 -0.03326111 -0.03343216 -0.03359491 -0.03375245 -0.03390451
 -0.0340463 -0.03417604 -0.03427873 -0.03435236 -0.03438053 -0.03436269 -0.03428815 -0.0341596 -0.03397429 -0.03374267
 -0.03347322 -0.0331856 -0.03289796 -0.0326302 -0.03239921 -0.03221692 -0.03209171 -0.03203076 -0.03203743 -0.03211639
 -0.03226993 -0.03249436 -0.03279043 -0.03314471 -0.03355658 -0.03400771 -0.03449691 -0.03500247 -0.03552317 -0.03603848
 -0.0365498 -0.03705058 -0.037546 -0.03804675 -0.03855706 -0.03909074 -0.03964705 -0.04023141 -0.04083956 -0.04146932
 -0.04211785 -0.04278152 -0.04346354 -0.0441631 -0.04488877 -0.04564344 -0.04643 -0.04725116 -0.04809601 -0.04896417
 -0.04984053 -0.05072392 -0.05160797 -0.05249255 -0.0533776 -0.05426269 -0.05514503 -0.05602293 -0.05688855 -0.05773881
 -0.05856162 -0.05935379 -0.06010276 -0.06080941 -0.06146888 -0.06208568 -0.06266294 -0.0632019 -0.06370454 -0.06416994
 -0.06459597 -0.06499106 -0.06535533 -0.06570486 -0.06604338 -0.0663772 -0.06670843 -0.0670298 -0.06734099 -0.06763434
 -0.06790951 -0.06816202 -0.06839114 -0.06858868 -0.06875409 -0.06887924 -0.0689667 -0.06901856 -0.06903963 -0.0690405
 -0.06902324 -0.06899577 -0.06895596 -0.06890467 -0.06883939 -0.06875776 -0.06866167 -0.0685503 -0.06842989 -0.06830157
 -0.0681724 -0.06804341 -0.06792269 -0.06781113 -0.06771665 -0.06764014 -0.06757953 -0.06753411 -0.06748543 -0.06743205
 -0.06735302 -0.06725003 -0.06711907 -0.06696371 -0.06679288 -0.06660677 -0.0664103 -0.06620142 -0.0659781 -0.06574235
 -0.0654943 -0.06523906 -0.06498012 -0.06472027 -0.06446163 -0.0642051 -0.0639505 -0.06370225 -0.06346062 -0.06323245
 -0.06301905 -0.06282081 -0.06263817 -0.062461 -0.06228875 -0.06211016 -0.061926 -0.06173736 -0.06154644 -0.06136445
 -0.06119144 -0.06103387 -0.06088967 -0.06075734 -0.06063636 -0.06052592 -0.06042445 -0.06033275 -0.06024129 -0.06014529
 -0.06003388 -0.0598988 -0.05974324 -0.05956458 -0.0593769 -0.05918354 -0.0589886 -0.05879455 -0.05858692 -0.05836505
 -0.05811131 -0.05782524 -0.05750414 -0.05715006 -0.0567787 -0.05639331 -0.05601688 -0.05565111 -0.0553137 -0.05500259
 -0.05472394 -0.05447037 -0.05423645 -0.05400981 -0.05377711 -0.05352907 -0.05325278 -0.05295449 -0.05263018 -0.05230198
 -0.05197502 -0.05166909 -0.05139051 -0.05114151 -0.05092437 -0.05072627 -0.0505467 -0.05036887 -0.05019202 -0.05000355
 -0.04980384 -0.04959026 -0.04936476 -0.04913494 -0.04890227 -0.04867641 -0.04845446 -0.04823674 -0.04801608 -0.04778218
 -0.04753126 -0.0472533 -0.04695561 -0.04663838 -0.0463141 -0.04598989 -0.04566813 -0.04535243 -0.04503535 -0.04471498
 -0.0443916 -0.04406392 -0.04374423 -0.04343351 -0.04313793 -0.04285746 -0.04258352 -0.04231538 -0.04204261 -0.04176585
 -0.04148282 -0.04119423 -0.04090136 -0.04060387 -0.04030139 -0.03999444 -0.03968317 -0.03936921 -0.03905393 -0.03873917
 -0.03842633 -0.0381173 -0.03781316 -0.03751553 -0.03722538 -0.03694232 -0.03666716 -0.03639483 -0.03612541 -0.03584899
 -0.0355648 -0.03526535 -0.03495054 -0.03462517 -0.03429046 -0.03396032 -0.03363469 -0.03332106 -0.03301713 -0.03271914
 -0.03242657 -0.03213534 -0.03184915 -0.03157145 -0.03130577 -0.03105855 -0.03082623 -0.0306115 -0.0303995 -0.0301859
 -0.02995234 -0.02969034 -0.02939723 -0.02906775 -0.02872347 -0.02836563 -0.02802062 -0.02769119 -0.02738386 -0.0270986
 -0.02682148 -0.02655151 -0.0262733 -0.02598794 -0.02569218 -0.02538896 -0.02508574 -0.02478428 -0.02449219 -0.02420897
 -0.02393654 -0.02367575 -0.02342745 -0.02319446 -0.02298044 -0.02278191 -0.02260029 -0.02242367 -0.02224815 -0.02206728
 -0.02187796 -0.02168399 -0.02148584 -0.02128336 -0.0210768 -0.02086003 -0.020633 -0.02040118 -0.02016621 -0.01994715
 -0.01974425 -0.01957019 -0.01942103 -0.01929226 -0.01917746 -0.01906166 -0.0189391 -0.01879374 -0.01862667 -0.01843007
 -0.01821651 -0.01799087 -0.01776788 -0.01755709 -0.01736199 -0.01718681 -0.01702643 -0.0168811 -0.01674271 -0.01661111
 -0.0164718 -0.01632363 -0.01615449 -0.0159641 -0.01576153 -0.01554851 -0.01534742 -0.01515692 -0.01498369 -0.01482122
 -0.01465279 -0.01447268 -0.01425951 -0.01401411 -0.0137265 -0.01340539 -0.01305482 -0.01268582 -0.01230818 -0.0119259
 -0.01154317 -0.01116145 -0.01077942 -0.01041024 -0.01005533 -0.009732247 -0.009445124 -0.009192105 -0.008974327 -0.008770729
 -0.008580173 -0.008379307 -0.008167052 -0.00792301 -0.007648288 -0.007335044 -0.006990464 -0.006632567 -0.006269129 -0.005928248
 -0.005606836 -0.005312904 -0.005039974 -0.004780378 -0.004541562 -0.00432416 -0.004142592 -0.004006185 -0.003915728 -0.003876042
 -0.003873238 -0.003906827 -0.003955965 -0.004019205 -0.004068596 -0.004101921 -0.004094233 -0.004044407 -0.003948099 -0.003806845
 -0.003635279 -0.003435253 -0.003224667 -0.003002621 -0.002777952 -0.0025435 -0.002287908 -0.0020056 -0.001677312 -0.001317833
 -0.0009327672 -0.0005436596 -0.0001749647 0.000185088 0.0005303234 0.0008970083 0.00130693 0.001733165 0.002182556 0.002572209
 0.002884651 0.003120873 0.003277252 0.003402293 0.003498093 0.003580028 0.003647044 0.003691232 0.003713369 0.003714486
 0.003695372 0.003660971 0.00360741 0.003527899 0.003420669 0.003277625 0.003105474 0.002905717 0.002692321 0.002473839
 0.002266901 0.00208269 0.001928032 0.00180964 0.001719794 0.001657138 0.00161947 0.001605321 0.001623805 0.001676952
 0.001749339 0.00183986 0.001895515 0.001914516 0.001856353 0.001727443 0.001539728 0.00130437 0.001065553 0.0008278151
 0.0006262904 0.0004515193 0.0003064462 0.0001748609 3.476636E-05 -0.0001069755 -0.0002592374 -0.0003892787 -0.0004754497 -0.0005237602
 -0.0005195908 -0.0005302329 -0.0005722761 -0.0006743323 -0.0008530128 -0.001033146 -0.001210663 -0.001305312 -0.001313242 -0.001246384
 -0.001108047 -0.0009430569 -0.0007490351 -0.0005333466 -0.0002943484 -2.792323E-05 0.000260169 0.0005594653 0.0008633059 0.001158381
 0.00143612 0.001682127 0.001891907 0.002051059 0.002181199 0.002284667 0.002398344 0.00253909 0.00271466 0.002935321
 0.003169178 0.003414666 0.003631514 0.003815406 0.003946467 0.004023627 0.004062313 0.004065649 0.004077427 0.004097877
 0.004154373 0.004237221 0.004327614 0.004416911 0.004473068 0.004500314 0.004489398 0.004451795 0.004393307 0.004333256
 0.004283441 0.004272504 0.004322716 0.004434216 0.004622607 0.004832689 0.005056765 0.00523788 0.005362165 0.005428747
 0.005434764 0.005408533 0.005351448 0.005278656 0.005190848 0.005100379 0.005008067 0.004927565 0.004854765 0.004782992
 0.004707187 0.004608996 0.004494356 0.004361205 0.004225729 0.004102925 0.004011375 0.003971306 0.003989216 0.00408288
 0.004217783 0.00439486 0.004543208 0.004644832 0.004658025 0.004567473 0.004403222 0.00416458 0.003910373 0.003643782
 0.003391047 0.00315076 0.002910378 0.002668047 0.002404252 0.002124084 0.001831274 0.00154025 0.001287091 0.001080744
 0.0009584127 0.00090352 0.0009161051 0.0009664607 0.001030559 0.00109209 0.001135379 0.001156302 0.001148885 0.001117752
 0.001058566 0.001001141 0.0009471919 0.0009387449 0.0009816018 0.001077818 0.001227775</values></Ydata></AB><ScSm><Ydata ylabel="Single channel"><values byteorder="INTEL" format="FLOAT32" numvalues="1814"> 0.07330635 0.07331436 0.07338506 0.07353579 0.07373757 0.07392991 0.07406169 0.07412485 0.07413997 0.0741163
 0.07405806 0.07401016 0.07405147 0.07421663 0.07444427 0.07461735 0.07465671 0.07459176 0.0745448 0.07461151
 0.0747322 0.07470932 0.07439353 0.0738553 0.07333982 0.07304059 0.07297747 0.07314088 0.07361375 0.0743409
 0.07487065 0.07468033 0.07383715 0.07302331 0.07277945 0.07298701 0.07318717 0.07310337 0.07272871 0.07223366
 0.07201233 0.07256533 0.07400776 0.07567825 0.07638274 0.07514351 0.07189393 0.06770612 0.06440233 0.06357612
 0.06546264 0.06861646 0.07099716 0.07159554 0.07091436 0.06994279 0.0691063 0.06838403 0.06796526 0.06827649
 0.06937619 0.0705625 0.07072872 0.06929488 0.06690581 0.06499317 0.06447952 0.06519002 0.06660595 0.06842631
 0.06979254 0.06885035 0.06458116 0.0591071 0.05673099 0.05983741 0.06634843 0.07177426 0.07321033 0.07092285
 0.06700593 0.06365708 0.06238621 0.06360318 0.06651233 0.06978141 0.07236403 0.07355065 0.07278813 0.07016082
 0.06685486 0.06457183 0.06448206 0.06678056 0.07065074 0.0743223 0.07587434 0.0746653 0.07176229 0.06880777
 0.06693764 0.06679155 0.06866564 0.07218309 0.07629427 0.07990379 0.08231933 0.08328684 0.08302328 0.08208978
 0.08097129 0.08000372 0.07968174 0.08034827 0.08138505 0.08145358 0.07996334 0.07786988 0.0766909 0.07693595
 0.07770097 0.07776237 0.07680926 0.07522029 0.07284545 0.06902213 0.06408913 0.05975058 0.05736902 0.05694702
 0.05816081 0.06088012 0.0639543 0.06514023 0.06355578 0.06123921 0.06110577 0.06383906 0.06755712 0.07013761
 0.07118161 0.07184973 0.07335462 0.07571338 0.07759482 0.07731491 0.07450725 0.07106324 0.06979568 0.07168002
 0.07492332 0.07717595 0.07800834 0.07864171 0.07981728 0.08065252 0.07955685 0.076113 0.07210715 0.07043786
 0.07259278 0.07715602 0.08082868 0.08086883 0.07693961 0.07119874 0.06661536 0.06491257 0.06609245 0.06955218
 0.07474945 0.08063075 0.0853707 0.08738889 0.08649804 0.0838103 0.08047458 0.07661692 0.07194242 0.06749709
 0.06587944 0.06877305 0.07478048 0.0805908 0.08393651 0.08471724 0.0836935 0.08107305 0.07673822 0.07162668
 0.06818187 0.06845415 0.07164082 0.07454716 0.07493836 0.0735721 0.07254572 0.07265814 0.07311936 0.07319089
 0.07323395 0.07410669 0.07596001 0.07792205 0.07895653 0.07880685 0.07803565 0.07735805 0.076993 0.07651119
 0.07544756 0.07424232 0.07418329 0.07599279 0.07882867 0.08114916 0.0822544 0.08253115 0.08242691 0.08167505
 0.0796945 0.07669719 0.07413521 0.07361983 0.07535726 0.07802499 0.08014883 0.08115984 0.08123843 0.08077469
 0.08010872 0.07942153 0.07879493 0.07845487 0.07871425 0.07952464 0.0803756 0.08080833 0.08078994 0.08048598
 0.07993938 0.0791336 0.07821859 0.07751577 0.07728912 0.07754591 0.07807547 0.07863853 0.07905166 0.07915272
 0.07886048 0.07829604 0.07770781 0.07724702 0.07692017 0.07674051 0.07677481 0.07700974 0.07729137 0.07745381
 0.0774498 0.07732514 0.07712139 0.0768466 0.07651702 0.07619435 0.07597508 0.07592502 0.0760043 0.07609108
 0.07611947 0.07614605 0.07622304 0.07626708 0.07614648 0.07586359 0.07556169 0.07536691 0.07528911 0.07526359
 0.07522142 0.07509926 0.07483253 0.07441095 0.07395521 0.07367472 0.07369962 0.07398373 0.07438409 0.07476942
 0.07503782 0.07512919 0.07507366 0.07496426 0.07484616 0.07468065 0.074434 0.074163 0.07399654 0.0740362
 0.07426351 0.07454829 0.07475919 0.07484972 0.07484391 0.07479648 0.07477742 0.07482379 0.07488262 0.0748599
 0.07474363 0.07462764 0.07460025 0.074646 0.07467154 0.07461321 0.07450952 0.07446063 0.07451831 0.07463686
 0.07473788 0.07479554 0.07484363 0.07491493 0.07498528 0.0749836 0.07487197 0.07470591 0.07458354 0.07454133
 0.07454187 0.07455651 0.07460627 0.0747087 0.07482705 0.07489905 0.07490358 0.07487839 0.0748672 0.07486314
 0.07482184 0.0747252 0.07460844 0.0745223 0.07448816 0.07449238 0.07450598 0.07450324 0.07447149 0.07441118
 0.07433007 0.0742373 0.07413939 0.07404201 0.07396138 0.07392626 0.07394892 0.07399154 0.0739821 0.07387827
 0.07371037 0.07355154 0.07344632 0.07337621 0.07329611 0.07319036 0.07308082 0.07299051 0.07292086 0.07286179
 0.07280397 0.07274053 0.07267662 0.07264274 0.07267745 0.07278137 0.07289799 0.07295838 0.07294515 0.07290123
 0.07288002 0.0728998 0.07294527 0.07299746 0.07305693 0.07314007 0.07324949 0.0733531 0.07341224 0.07343184
 0.07345952 0.07353242 0.07365016 0.07379813 0.07396163 0.0741117 0.07421541 0.07427721 0.07434367 0.07445134
 0.07458957 0.07472689 0.07485482 0.07498831 0.07513727 0.07529911 0.07547651 0.07568367 0.07592952 0.07620144
 0.07646808 0.07669862 0.07688808 0.07707021 0.07729782 0.0775985 0.07794859 0.07829291 0.07859066 0.07884464
 0.07908791 0.07934391 0.07960793 0.07987435 0.08016627 0.08051413 0.08091015 0.08130845 0.08167312 0.08200797
 0.08233902 0.08268327 0.08303998 0.08340238 0.08377101 0.08415207 0.08454171 0.08491937 0.08526582 0.08558379
 0.08589455 0.08622009 0.08657131 0.08693828 0.08728357 0.08756669 0.0877945 0.08803018 0.08832751 0.08866736
 0.0889869 0.08926439 0.08954234 0.08986297 0.09021296 0.09054788 0.09085079 0.09114496 0.09145665 0.0917803
 0.09208092 0.09232614 0.09251767 0.09269038 0.0928791 0.09309616 0.09334763 0.09365162 0.0940147 0.09440084
 0.09475139 0.0950342 0.0952563 0.09544026 0.0956118 0.09579751 0.09600834 0.09622959 0.09644092 0.09663291
 0.09679797 0.0969324 0.09706138 0.09723219 0.09746498 0.09773654 0.09802635 0.09834737 0.09870982 0.09908442
 0.09943616 0.09977859 0.1001557 0.1005684 0.1009543 0.1012554 0.1014759 0.1016544 0.1018144 0.101975
 0.1021812 0.1024767 0.1028518 0.1032531 0.1036407 0.1040097 0.104365 0.1046992 0.1049988 0.1052525
 0.1054562 0.1056167 0.1057547 0.1059015 0.1060884 0.106327 0.1065924 0.106834 0.1070085 0.1070956
 0.1070847 0.1069712 0.106783 0.1065863 0.1064347 0.1063077 0.1061198 0.1057918 0.105302 0.104671
 0.1039214 0.1030713 0.1021595 0.1012599 0.1004656 0.09985423 0.09947172 0.0993447 0.09949499 0.09992016
 0.1005556 0.1012737 0.1019321 0.1024161 0.1026402 0.1025465 0.1021306 0.1014596 0.1006426 0.09978305
 0.09895629 0.09820457 0.0975323 0.09692654 0.09641178 0.09608279 0.09606917 0.09647427 0.09735414 0.09872212
 0.1005256 0.1026077 0.1047313 0.1066787 0.1083442 0.1097372 0.1109236 0.1119779 0.1129648 0.1139199
 0.1148325 0.1156686 0.1164139 0.1170836 0.1176939 0.1182413 0.1187076 0.119074 0.1193349 0.1195101
 0.119637 0.119743 0.1198383 0.1199361 0.1200596 0.1202101 0.1203428 0.1203849 0.1202763 0.1199963
 0.1195763 0.1191143 0.1187873 0.118836 0.1194916 0.1208537 0.122803 0.1250407 0.1272346 0.129151
 0.1306946 0.1318823 0.1328 0.1335524 0.1342185 0.1348369 0.1354223 0.1359815 0.1365192 0.1370386
 0.1375424 0.1380345 0.1385221 0.1390127 0.1395022 0.1399726 0.1404105 0.1408287 0.1412615 0.1417327
 0.1422305 0.1427197 0.1431813 0.1436321 0.144094 0.1445554 0.144983 0.1453672 0.1457351 0.1461216
 0.1465435 0.1469969 0.1474577 0.1478893 0.1482675 0.1486019 0.1489242 0.1492587 0.1496088 0.1499669
 0.1503262 0.1506822 0.1510327 0.1513831 0.1517455 0.152124 0.1524999 0.1528429 0.1531427 0.1534216
 0.1537122 0.1540271 0.1543551 0.1546795 0.1549999 0.1553359 0.1557063 0.1561045 0.1564971 0.1568508
 0.1571603 0.1574486 0.1577448 0.1580632 0.1584016 0.1587508 0.1591015 0.1594443 0.159773 0.1600914
 0.160412 0.1607434 0.161083 0.1614235 0.1617633 0.162107 0.1624572 0.1628084 0.1631527 0.1634928
 0.1638428 0.1642099 0.1645792 0.1649234 0.1652294 0.1655075 0.1657791 0.1660612 0.1663608 0.1666765
 0.1670003 0.1673229 0.16764 0.1679544 0.1682715 0.1685951 0.1689245 0.1692557 0.1695836 0.1699071
 0.1702334 0.1705734 0.1709292 0.171288 0.1716321 0.1719561 0.1722706 0.1725907 0.1729249 0.1732692
 0.1736092 0.1739323 0.1742402 0.1745484 0.1748708 0.1752083 0.175553 0.1758964 0.1762323 0.1765579
 0.1768751 0.1771929 0.1775219 0.1778653 0.1782125 0.1785483 0.1788695 0.1791867 0.1795114 0.179846
 0.1801861 0.1805256 0.1808606 0.1811927 0.1815279 0.1818688 0.1822109 0.1825474 0.182875 0.1831949
 0.1835123 0.1838344 0.1841663 0.1845075 0.1848513 0.1851885 0.1855139 0.1858315 0.1861492 0.1864722
 0.186804 0.1871475 0.1875016 0.1878597 0.1882137 0.1885573 0.1888898 0.1892178 0.1895519 0.1898972
 0.1902531 0.1906178 0.1909855 0.1913452 0.191692 0.1920322 0.1923714 0.1927068 0.1930357 0.1933614
 0.1936886 0.1940199 0.194356 0.1946952 0.1950368 0.1953828 0.195732 0.1960783 0.1964212 0.196769
 0.197125 0.1974843 0.1978448 0.1982079 0.1985709 0.1989288 0.1992806 0.1996268 0.1999693 0.2003147
 0.2006704 0.2010368 0.2014109 0.2017871 0.2021562 0.2025144 0.2028714 0.2032363 0.2036037 0.2039656
 0.2043217 0.2046748 0.2050285 0.2053889 0.2057554 0.2061181 0.2064741 0.2068311 0.2071911 0.2075483
 0.2079022 0.2082559 0.20861 0.2089668 0.2093291 0.2096916 0.2100515 0.2104171 0.2107898 0.2111576
 0.2115181 0.211884 0.2122597 0.2126383 0.2130159 0.2133878 0.2137439 0.2140838 0.2144145 0.2147264
 0.2149723 0.2150154 0.2145113 0.2127858 0.2088225 0.2014622 0.1898603 0.1740189 0.1549737 0.1344287
 0.1141304 0.09541288 0.07906154 0.06541531 0.05454217 0.0463532 0.04067064 0.03734248 0.03636322 0.03799597
 0.04290899 0.0517885 0.06384638 0.07547928 0.08165652 0.07988962 0.07261353 0.06496669 0.06051552 0.0595221
 0.0604705 0.06206287 0.06388763 0.06617938 0.0693399 0.07347916 0.07839888 0.08409254 0.09098743 0.09940537
 0.1089144 0.1185075 0.1274701 0.1359414 0.1445789 0.1537627 0.1631916 0.1721768 0.1801917 0.1871378
 0.1932353 0.198775 0.2039528 0.2088575 0.2135353 0.2179869 0.2220655 0.2254332 0.2277212 0.2288079
 0.2289578 0.2286766 0.2284115 0.22837 0.2285691 0.2289735 0.229561 0.2303154 0.2312152 0.2322284
 0.2333103 0.2344176 0.2355243 0.2366131 0.2376615 0.2386478 0.2395608 0.2403974 0.2411619 0.2418663
 0.2425231 0.2431388 0.2437209 0.2442798 0.2448217 0.2453447 0.2458458 0.2463214 0.2467672 0.2471818
 0.2475693 0.2479341 0.2482817 0.2486204 0.2489579 0.2492964 0.2496379 0.2499856 0.2503376 0.2506875
 0.2510323 0.2513742 0.2517146 0.2520525 0.2523872 0.2527187 0.2530482 0.2533774 0.253705 0.2540269
 0.254345 0.254668 0.2549987 0.2553274 0.2556438 0.2559481 0.2562502 0.2565634 0.2568966 0.257245
 0.2575959 0.2579468 0.2583062 0.2586746 0.259039 0.2593887 0.2597251 0.2600577 0.2603999 0.2607577
 0.2611161 0.2614452 0.261731 0.2619957 0.2622804 0.2626095 0.2629703 0.2633277 0.2636647 0.2639955
 0.2643377 0.2646862 0.2650248 0.2653441 0.2656501 0.2659679 0.2663277 0.2667305 0.2671445 0.2675485
 0.2679505 0.2683551 0.2687504 0.2691329 0.2695049 0.2698479 0.2701368 0.2703913 0.2706889 0.2711073
 0.2716482 0.27222 0.272717 0.2731142 0.2734669 0.273839 0.2742593 0.274702 0.2750634 0.2752322
 0.2752588 0.2753867 0.2758296 0.2765576 0.2773589 0.2780544 0.2786044 0.2790582 0.2794662 0.2798313
 0.2801116 0.2802722 0.280365 0.2805539 0.2810042 0.2817102 0.2824804 0.2831286 0.2836186 0.2840026
 0.284328 0.2846304 0.28488 0.2849135 0.28461 0.2842032 0.2842219 0.2849761 0.2862066 0.2873593
 0.2881318 0.2886313 0.2890646 0.2894804 0.2898301 0.2900172 0.2897693 0.2887912 0.2873433 0.2864062
 0.2868688 0.2886278 0.2907565 0.2924297 0.2934436 0.2940082 0.2943889 0.2947292 0.2949448 0.2947362
 0.2939268 0.292905 0.2925212 0.2932985 0.2948393 0.2962499 0.297055 0.2974427 0.2977732 0.2981809
 0.2984889 0.2981625 0.2966076 0.2940452 0.2919577 0.2920485 0.2945758 0.2980396 0.3006676 0.3019414
 0.3024605 0.302639 0.3021022 0.3003679 0.297558 0.2943437 0.2917726 0.291152 0.2931725 0.2967984
 0.299854 0.3011767 0.301596 0.3025273 0.3042708 0.3060086 0.306889 0.3066958 0.3056923 0.3041431
 0.3021934 0.3003274 0.2996329 0.3010197 0.3041126 0.3073941 0.3096107 0.3107237 0.3112416 0.3107415
 0.3075756 0.3008586 0.2929447 0.2887633 0.2914517 0.2990637 0.3066608 0.3111645 0.3130237 0.3138859
 0.3144156 0.3141127 0.3115699 0.305218 0.2957659 0.2877725 0.2865678 0.2929688 0.302353 0.3089917
 0.3099948 0.3056218 0.2981959 0.2913768 0.2886815 0.2913679 0.2978957 0.3054476 0.3116146 0.3150459
 0.3154382 0.3134013 0.3103906 0.3083515 0.3083203 0.3088712 0.3071861 0.3026365 0.2978679 0.294908
 0.2919878 0.2867681 0.281475 0.2813999 0.2880408 0.2966254 0.3015002 0.3018584 0.3006606 0.2992088
 0.2948591 0.2848025 0.2713887 0.2621458 0.2631957 0.2729325 0.2834853 0.2884226 0.2878451 0.2860422
 0.2857469 0.2853576 0.2812229 0.2724463 0.2632152 0.259242 0.2616473 0.265941 0.2672831 0.2643135
 0.2573427 0.2467695 0.2359105 0.2319549 0.2398185 0.2560543 0.2716297 0.2794076 0.2766728 0.2633417
 0.2428878 0.2244428 0.2183505 0.2268771 0.241451 0.2505829 0.2489524 0.2382216 0.222108 0.2039253
 0.1881586 0.1807527 0.1854553 0.200059 0.216721 0.2258824 0.2214583 0.2055168 0.1886242 0.1822125
 0.1882221 0.1978749 0.2015938 0.1977085 0.1909294 0.1861793 0.1857513 0.1891924 0.1938211 0.1971411
 0.1988117 0.1979323 0.1903418 0.1736466 0.154049 0.1423392 0.1426574 0.1502295 0.1600293 0.171334
 0.1823424 0.1870351 0.1820119 0.1730672 0.1703458 0.1775717 0.1888176 0.195741 0.195827 0.1928901
 0.1910553 0.1902829 0.1884898 0.1864305 0.1878316 0.1943132 0.2026045 0.2081936 0.2100064 0.2100289
 0.2099042 0.2096903 0.2090001 0.2077172 0.205899 0.2038811 0.202186 0.2009082 0.1996174 0.1980033
 0.195831 0.1919773 0.1847133 0.1742255 0.1641882 0.1589192 0.1588613 0.1608209 0.1626585 0.1645485
 0.1646438 0.1578414 0.1425415 0.1261851 0.1198701 0.1276635 0.1435788 0.1583525 0.1664777 0.1666549
 0.1590644 0.1457343 0.1330568 0.1298475 0.1401582 0.1593773 0.1791728 0.1946559 0.2050013 0.209561
 0.2071057 0.1988352 0.1896227 0.1853078 0.1891412 0.2002589 0.2139408 0.2228314 0.2204987 0.2078282
 0.1960653 0.1986014 0.2168371 0.2377749 0.2486113 0.2497908 0.2499123 0.2523892 0.2536751 0.2525939
 0.2541678 0.2625844 0.2748962 0.283877 0.2843482 0.2752031 0.2587326 0.241162 0.2310599 0.2325271
 0.2406311 0.2468542 0.2474034 0.2427233 0.2323982 0.217222 0.2046067 0.2041445 0.2164499 0.231807
 0.2412307 0.244648 0.2468807 0.249319 0.2482894 0.2406947 0.2292162 0.22066 0.2192069 0.2227191
 0.2262858 0.227406 0.2260535 0.2217422 0.2138304 0.2046494 0.1995228 0.2021638 0.2108852 0.2202469
 0.2259749 0.2276432 0.2272977 0.2268326 0.2267298 0.2262828 0.2249178 0.2239029 0.2261076 0.2328541
 0.2416597 0.2487123 0.253224 0.2576925 0.2639702 0.2706661 0.2747979 0.2750346 0.272979 0.271806
 0.2737368 0.2782653 0.2825158 0.2836952 0.281752 0.2796662 0.2807014 0.2853025 0.2910485 0.2954313
 0.2979129 0.2993755 0.3006288 0.3017255 0.3019451 0.3003394 0.2971044 0.2944061 0.2948632 0.2989434
 0.3044975 0.308961 0.3114088 0.3124176 0.3126727 0.3122264 0.3109136 0.3090342 0.3073736 0.3065922
 0.3067677 0.3075504 0.3085618 0.3095585 0.3104051 0.3110687 0.311596 0.3120306 0.3123923 0.3127304
 0.3130929 0.3134285 0.3136289 0.3137121 0.3138655 0.3142323 0.3147205 0.3150975 0.3152046 0.3149878
 0.3143814 0.3133134 0.3118304 0.3100835 0.30815 0.3059951 0.3037298 0.301863 0.3011394 0.3020005
 0.3041879 0.306902 0.3093409 0.3110983 0.3121631 0.3127104 0.3129456 0.3130383 0.3130844 0.3130945
 0.3130356 0.31289 0.3126739 0.3124117 0.3121204 0.3118228 0.3115538 0.3113371 0.311161 0.3109822
 0.3107478 0.3104204 0.3099997 0.3095208 0.3090147 0.3084676 0.3078258 0.3070402 0.3061046 0.3050613
 0.3039837 0.3029451 0.3019789 0.3010564 0.30011 0.2990789 0.2979144 0.2965556 0.2949654 0.2932183
 0.2914962 0.2899428 0.2885455 0.2871841 0.2857529 0.2842055 0.2825265 0.2807148 0.2787907 0.2767951
 0.2747745 0.2727638 0.2707724 0.2687866 0.2667872 0.2647611 0.2627011 0.2606025 0.258464 0.2562793
 0.2540165 0.2515962 0.2488924 0.2457637 0.2420898 0.2377942 0.2328632 0.2273722 0.2214935 0.2154635
 0.2095253 0.2038786 0.1986594 0.1939607 0.1898684 0.1864702 0.1838336 0.181991 0.1809438 0.1806672
 0.1811224 0.1822696 0.1840528 0.1863599 0.1890144 0.1918122 0.1945563 0.1970813 0.1993006 0.201256
 0.2030915 0.204946 0.2068583 0.2087699 0.2106013 0.2122991 0.2138183 0.2151114 0.2161663 0.2170272
 0.2177483 0.2183404 0.2187814 0.2190614 0.2192034 0.2192541 0.2192684 0.219301 0.2194057 0.2196337
 0.2200193 0.2205675 0.2212626 0.2220833 0.2230096 0.224025 0.2251176 0.2262732 0.2274766 0.2287259
 0.2300348 0.2314236 0.2329289 0.2346155 0.2365464 0.2387348 0.2411362 0.2436765 0.2462639 0.2487881
 0.2511276 0.2531709 0.254845 0.2561381 0.257087 0.2577412 0.2581462 0.258352 0.2584057 0.2583337
 0.2581477 0.2578596 0.257475 0.2569848 0.2563764 0.2556502 0.2548247 0.253934 0.2530164 0.2520981
 0.2511901 0.2502996 0.2494361 0.2486109 0.247832 0.2470894 0.2463477 0.2455695 0.2447461 0.2438904
 0.2430081 0.2420864 0.2411006 0.24002 0.2388238 0.237514 0.2361059 0.2346066 0.2330141 0.2313289
 0.2295602 0.2277233 0.225834 0.223898 0.2219075 0.2198448 0.2176784 0.2153733 0.2129319 0.2104239
 0.2079524 0.2055941 0.2033768 0.2012906 0.199305 0.1973968 0.1955703 0.1938397 0.1921978 0.1906241
 0.1891118 0.1876681 0.1862959 0.1849937 0.1837704 0.1826495 0.1816552 0.1807882 0.1800187 0.1793132
 0.1786617 0.1780753 0.1775725 0.1771794 0.1769147 0.1767516 0.1766109 0.1764102 0.1761152 0.1757458
 0.1753497 0.1749685 0.1746178 0.1742946 0.1739894 0.1736733 0.1732796 0.172716 0.1718906 0.1707329
 0.1692185 0.1673835 0.1653069 0.1630908 0.1608677 0.158792 0.1569873 0.1555082 0.1543492 0.1534576
 0.152746 0.152136 0.1516108 0.1512173 0.1510181 0.1510184 0.1511114 0.1511269 0.1509861 0.1507928
 0.1507395 0.1509506 0.1514199 0.1520431 0.1526805 0.1532251 0.1536309 0.1538843 0.1539837 0.1539571
 0.1538496 0.153678 0.1534325 0.153111 0.1527231 0.152279 0.151792 0.1512623 0.1506574 0.1499403
 0.1491072 0.1481791 0.1471851 0.1461469 0.1450345 0.1437755 0.1423918 0.1411016 0.1402159 0.139937
 0.1402564 0.1409844 0.1418814 0.1428041 0.1436793 0.1443244 0.1444929 0.1442629 0.1442375 0.1451138
 0.1470161 0.1493618 0.1513793 0.1526524 0.1531699 0.1530542 0.1524063 0.1513036 0.1497588 0.1477127
 0.1451713 0.1422718 0.1391672 0.1359829 0.1328993 0.1301111 0.1277163 0.1257373 0.1241753 0.1230671
 0.1225306 0.1221778 0.1201137 0.1139285 0.1044223 0.09727357 0.09828109 0.1068468 0.116384 0.1212815
 0.1213785 0.1196547 0.1181634 0.1172156 0.1167157 0.1168153 0.1176381 0.1190181 0.1205348 0.1217713
 0.122573 0.122982 0.1229337 0.1220636 0.1196832 0.1149908 0.1077012 0.09864776 0.08953145 0.08194102
 0.07662998 0.07349502 0.07190546 0.07109734 0.07057047 0.0702952 0.07056411 0.07164645 0.07356975 0.07618011
 0.07929757 0.08268869 0.08595355 0.0886792 0.09076316 0.09240951 0.09377354 0.09477702 0.09528188 0.09527972
 0.0948824 0.09423645 0.0934674 0.09263785 0.09172127 0.0906389 0.0893891 0.08816864 0.08727702 0.08683495
 0.08668504 0.08661698 0.08656618 0.08654833 0.08654793 0.08653691 0.08651572 0.08652267 0.08664788 0.08697654
 0.08746635 0.08794665 0.08826743 0.08840348 0.08842465 0.08838368 0.08820221 0.08773297 0.08702852 0.08640181
 0.08602063 0.085594 0.08473602 0.083549 0.08258022 0.08223267 0.08241417 0.08273727 0.08288695 0.08278445
 0.08256355 0.08248619 0.08276521 0.08331231</values></Ydata></ScSm><ScRf><Ydata ylabel="Single channel"><values byteorder="INTEL" format="FLOAT32" numvalues="1820"> 0.06055778 0.06070113 0.06079131 0.06082973 0.06083963 0.060863 0.06094062 0.06108353 0.06126424 0.06143415
 0.06155437 0.06161845 0.0616414 0.06163017 0.06158888 0.06155596 0.06159872 0.06174725 0.06195002 0.06210801
 0.06215335 0.06210909 0.06207791 0.06214253 0.06225543 0.06225242 0.06200948 0.06158406 0.06117408 0.0609332
 0.06087807 0.06101024 0.06140973 0.06203411 0.06249999 0.06236022 0.06166581 0.06099118 0.06079406 0.06097452
 0.06114551 0.06107779 0.06077151 0.06037173 0.06020512 0.06068569 0.06190806 0.06332244 0.06393424 0.06292178
 0.06021554 0.056701 0.05390769 0.05318994 0.05476598 0.05743121 0.05946415 0.06000213 0.0594595 0.05866722
 0.0579805 0.05737557 0.05701251 0.05726374 0.05819332 0.05921171 0.0593745 0.05818016 0.05616955 0.05455787
 0.0541339 0.05475379 0.05597401 0.05753308 0.05870558 0.05792783 0.05433296 0.04970222 0.04767568 0.05029545
 0.05582792 0.06046699 0.06172265 0.05979945 0.05647837 0.05363923 0.05256752 0.05360451 0.0560718 0.05884469
 0.06104415 0.06207178 0.06145332 0.05925065 0.05646443 0.05454075 0.05447712 0.05643914 0.05973242 0.06285769
 0.06419027 0.06318661 0.06074629 0.05825404 0.05666831 0.05653617 0.05812278 0.06112152 0.06464355 0.0677501
 0.06984112 0.07069126 0.07048295 0.0697009 0.06876685 0.06796627 0.06771158 0.06829058 0.06918173 0.0692495
 0.06798784 0.0662052 0.06519504 0.06539895 0.06605421 0.06612012 0.06533001 0.06400563 0.06201471 0.05877931
 0.05457629 0.05086344 0.04882038 0.04846292 0.04951979 0.05188213 0.05456343 0.05562975 0.0543045 0.05232224
 0.05218983 0.05451446 0.05769897 0.05992372 0.06083653 0.06142667 0.06273738 0.0647881 0.06643485 0.06622393
 0.06383166 0.06088028 0.05979574 0.06143005 0.06424598 0.0662154 0.06696215 0.06754037 0.06859462 0.06936452
 0.06847293 0.06555484 0.06214916 0.06075532 0.06265558 0.06662983 0.06983365 0.0698971 0.06652292 0.06157753
 0.0576404 0.05621335 0.05730262 0.06039032 0.06501073 0.07024567 0.07449565 0.07636987 0.07569191 0.07342509
 0.07057489 0.06725675 0.06321465 0.05936979 0.0580166 0.06065207 0.06605545 0.07130569 0.07439061 0.07520911
 0.07442451 0.07221164 0.06845722 0.06399713 0.0610272 0.06139822 0.06439392 0.06713676 0.06760874 0.06649252
 0.06568474 0.06590818 0.06644496 0.06662832 0.06679915 0.06775012 0.06961696 0.07159081 0.07270978 0.07272789
 0.07215762 0.07166388 0.07145958 0.07115178 0.07031047 0.06935291 0.06948724 0.07138254 0.07423449 0.07658654
 0.07778464 0.07820536 0.07827694 0.07773616 0.07601321 0.07330476 0.07101107 0.07069337 0.07255886 0.07533272
 0.07758433 0.07875557 0.07901768 0.07874802 0.07827783 0.07779058 0.07737683 0.07725915 0.07773297 0.07873823
 0.07976837 0.08037372 0.08052835 0.08040391 0.08004656 0.07943825 0.07872641 0.07822993 0.07820652 0.07865614
 0.07936914 0.08011798 0.08072869 0.08103171 0.08092604 0.08052343 0.08008487 0.07978056 0.07962443 0.07963002
 0.07986659 0.08031915 0.08081931 0.08118167 0.08134881 0.0813721 0.08130933 0.08118282 0.08101091 0.08085103
 0.08080141 0.08093087 0.08119085 0.08144712 0.0816379 0.08183748 0.0821026 0.08232871 0.08235632 0.08218142
 0.08196975 0.08187741 0.08192587 0.08204089 0.08213925 0.08214827 0.08199728 0.08167619 0.08131894 0.08115514
 0.08132799 0.08179225 0.08239585 0.08298816 0.08344249 0.08368286 0.08374128 0.08372253 0.08368118 0.08358492
 0.08340985 0.08322592 0.08317167 0.0833496 0.08373508 0.08418677 0.08455638 0.08477807 0.08486884 0.08490345
 0.08498797 0.08517404 0.08537845 0.08546142 0.08540327 0.0853374 0.08538736 0.08552524 0.0856173 0.0855826
 0.08548276 0.08545567 0.08557299 0.08578092 0.0859794 0.08613272 0.08628768 0.08649158 0.08670293 0.08680226
 0.08671658 0.08651857 0.08635724 0.08630051 0.08630653 0.08634344 0.08645228 0.086658 0.08688466 0.08701819
 0.0870332 0.08701317 0.0870423 0.08710742 0.08712178 0.08702878 0.08686159 0.08670787 0.08663768 0.08666432
 0.08674926 0.08682919 0.08684994 0.08679486 0.08668919 0.08657407 0.08647805 0.08642223 0.08644582 0.08659159
 0.08683762 0.08706027 0.0871088 0.08693993 0.08666779 0.08646403 0.08640507 0.08641873 0.08637278 0.08620151
 0.08594561 0.08569188 0.08549766 0.08536701 0.08527329 0.08519454 0.08514242 0.08516262 0.08528398 0.08545084
 0.08553167 0.0854297 0.08517928 0.08490914 0.08472426 0.08464557 0.08463681 0.08464935 0.08465624 0.08467445
 0.08473645 0.08482131 0.08485048 0.08477977 0.08466218 0.08459745 0.08465087 0.08482566 0.0850606 0.0852415
 0.08527327 0.08517303 0.08505836 0.08502762 0.08508198 0.08516913 0.08525808 0.0853482 0.0854397 0.0855314
 0.08564003 0.08579645 0.08601531 0.08627312 0.08651658 0.08669617 0.08680527 0.08689491 0.08704108 0.08728459
 0.08759862 0.08791394 0.08817495 0.08837639 0.0885524 0.08873308 0.08891968 0.08910975 0.08932967 0.08961377
 0.08995314 0.09029523 0.09059939 0.09087084 0.09113625 0.09140866 0.09168747 0.091982 0.09232198 0.09273073
 0.09317777 0.09357278 0.09383506 0.09397326 0.09408411 0.09427591 0.09459308 0.0949854 0.095333 0.09553668
 0.09561765 0.09570374 0.0958902 0.09614462 0.09638421 0.09661192 0.09691837 0.09735243 0.09783784 0.09823788
 0.09848458 0.0986311 0.09878229 0.09898207 0.09917833 0.09930219 0.09936373 0.09943989 0.09957658 0.09975124
 0.09994598 0.1002021 0.1005586 0.1009717 0.1013471 0.1016328 0.1018436 0.1020106 0.102146 0.1022435
 0.1022884 0.1022829 0.1022733 0.1023211 0.1024291 0.1025315 0.1025791 0.1026026 0.1026686 0.1028098
 0.1030216 0.1032942 0.103606 0.1039087 0.1041679 0.104421 0.1047419 0.1051268 0.1054606 0.1056369
 0.1056774 0.1056875 0.105726 0.10578 0.1058508 0.1059885 0.1062255 0.1065291 0.1068443 0.1071531
 0.1074722 0.1078089 0.1081306 0.1083752 0.1084929 0.1084895 0.1084336 0.1084189 0.1085141 0.1087323
 0.1090306 0.1093408 0.1096079 0.1098009 0.1098945 0.1098765 0.1097936 0.1097572 0.1098544 0.1100512
 0.110211 0.1102097 0.1100103 0.1096376 0.1091232 0.1084987 0.1078193 0.1071659 0.1066157 0.1062162
 0.1059895 0.1059607 0.1061665 0.1066168 0.1072489 0.1079438 0.1085924 0.1091191 0.1094441 0.1094749
 0.1091727 0.108604 0.1078978 0.1071673 0.10648 0.1058589 0.1052826 0.104719 0.1042047 0.1038837
 0.1039398 0.1044865 0.1055114 0.106885 0.1083996 0.1098372 0.1110547 0.112033 0.1128436 0.1135658
 0.1142393 0.1148848 0.1155305 0.1161901 0.1168292 0.1173926 0.1178673 0.1182906 0.1186981 0.1190877
 0.1194343 0.1197179 0.1199428 0.1201432 0.1203527 0.1205513 0.1206682 0.12066 0.120565 0.1204537
 0.1203464 0.1201988 0.119954 0.1195921 0.1191578 0.1187729 0.1186151 0.1188472 0.1195278 0.120575
 0.1218251 0.1231321 0.1244058 0.1255648 0.126508 0.1271721 0.1275967 0.1278967 0.1281736 0.1284688
 0.1287819 0.1291011 0.1294143 0.1297117 0.1299904 0.1302614 0.1305518 0.1308814 0.1312301 0.1315449
 0.131795 0.1320146 0.132276 0.1326183 0.1330085 0.1333782 0.1336995 0.1340066 0.1343324 0.1346474
 0.1348939 0.1350667 0.1352263 0.1354391 0.1357331 0.1360965 0.136481 0.1368153 0.1370546 0.1372233
 0.1373861 0.1375828 0.137808 0.1380441 0.1382866 0.1385361 0.1387896 0.1390512 0.1393363 0.139648
 0.1399528 0.1401994 0.1403694 0.1404992 0.1406463 0.1408381 0.1410578 0.1412737 0.1414775 0.1416962
 0.1419644 0.1422804 0.1425934 0.1428429 0.1430111 0.1431324 0.1432572 0.1434152 0.1436077 0.1438216
 0.1440395 0.144247 0.1444411 0.1446343 0.1448452 0.1450784 0.1453171 0.1455384 0.1457351 0.1459211
 0.146115 0.1463227 0.1465397 0.1467689 0.1470245 0.1473108 0.1476005 0.1478501 0.1480375 0.1481777
 0.1483026 0.1484378 0.1485958 0.1487778 0.1489763 0.1491796 0.149381 0.1495803 0.1497812 0.1499872
 0.150199 0.150413 0.1506233 0.1508267 0.1510282 0.1512393 0.1514682 0.1517094 0.1519468 0.1521672
 0.1523706 0.1525648 0.1527569 0.1529486 0.153136 0.1533152 0.1534883 0.1536631 0.1538449 0.1540347
 0.1542326 0.1544375 0.1546446 0.1548467 0.1550412 0.1552322 0.155425 0.1556214 0.1558199 0.156019
 0.1562189 0.156418 0.1566119 0.1567984 0.1569802 0.1571639 0.1573568 0.1575632 0.1577784 0.1579904
 0.1581914 0.1583853 0.1585807 0.1587796 0.158978 0.1591735 0.1593701 0.1595726 0.1597781 0.1599766
 0.1601644 0.1603512 0.1605479 0.1607546 0.1609657 0.1611778 0.1613887 0.1615961 0.1618031 0.1620139
 0.1622269 0.1624393 0.162653 0.1628707 0.163091 0.1633117 0.1635319 0.163749 0.16396 0.1641625
 0.1643533 0.1645304 0.1646981 0.164863 0.1650301 0.1652048 0.1653914 0.1655843 0.1657729 0.1659553
 0.16614 0.166334 0.1665378 0.1667459 0.1669496 0.1671468 0.1673467 0.1675577 0.1677747 0.1679865
 0.1681863 0.168372 0.1685476 0.1687265 0.1689222 0.1691369 0.1693638 0.169594 0.1698176 0.1700312
 0.1702432 0.1704604 0.1706763 0.1708837 0.1710872 0.1712962 0.1715122 0.1717291 0.1719383 0.1721363
 0.1723323 0.1725382 0.1727533 0.1729682 0.1731787 0.1733854 0.1735894 0.173796 0.1740103 0.1742273
 0.1744402 0.1746512 0.1748638 0.1750767 0.1752906 0.1755062 0.1757181 0.1759261 0.1761424 0.1763702
 0.1765953 0.1768067 0.1770037 0.177176 0.1772845 0.1772198 0.1767043 0.1751857 0.1718223 0.1656517
 0.1559784 0.1428154 0.1270295 0.1100306 0.09325545 0.07779691 0.06429936 0.0530434 0.0440862 0.03735139
 0.03268679 0.02995912 0.02915286 0.03047657 0.03448309 0.04174453 0.05161234 0.06112111 0.06614766 0.06466921
 0.05869336 0.05242367 0.04876817 0.04793777 0.04869586 0.04998053 0.05144688 0.05328039 0.05581535 0.05915514
 0.06314403 0.06776874 0.07336592 0.08019441 0.08790669 0.09568523 0.1029442 0.1097917 0.1167643 0.1241791
 0.1317967 0.1390534 0.1455117 0.1510867 0.1559615 0.1603818 0.1645139 0.1684302 0.1721645 0.1757111
 0.1789425 0.1815813 0.1833377 0.1841299 0.1841816 0.1838963 0.1836245 0.1835288 0.183625 0.1838873
 0.1842981 0.1848431 0.1855031 0.1862516 0.1870533 0.187875 0.1886965 0.1895011 0.1902675 0.190981
 0.1916409 0.1922504 0.1928113 0.1933278 0.1938042 0.1942423 0.1946471 0.1950289 0.195395 0.1957469
 0.196084 0.1964031 0.1966964 0.1969606 0.1972032 0.197435 0.1976622 0.1978846 0.1980971 0.1982946
 0.1984816 0.1986727 0.1988787 0.1990968 0.1993144 0.1995197 0.1997099 0.1998933 0.2000826 0.2002827
 0.2004883 0.2006921 0.2008908 0.2010841 0.2012754 0.2014691 0.2016647 0.2018585 0.2020487 0.2022359
 0.2024209 0.2026095 0.2028089 0.2030176 0.2032281 0.2034407 0.2036609 0.203883 0.2040934 0.2042904
 0.2044869 0.2046938 0.2049124 0.2051356 0.2053487 0.2055353 0.2056929 0.2058398 0.2060045 0.206206
 0.2064392 0.2066774 0.206895 0.2070883 0.2072705 0.2074534 0.2076383 0.2078191 0.2079953 0.2081834
 0.2084065 0.2086627 0.2089234 0.209168 0.2094007 0.2096298 0.2098583 0.2100941 0.2103371 0.2105578
 0.2107234 0.2108504 0.2110098 0.2112655 0.2116103 0.2119662 0.2122588 0.2124829 0.2126877 0.21292
 0.2131992 0.2135028 0.2137433 0.2138239 0.2137789 0.2138017 0.214065 0.2145475 0.2150837 0.2155389
 0.2158917 0.2161843 0.2164474 0.2166691 0.2168103 0.2168511 0.2168424 0.2169125 0.217182 0.2176439
 0.2181592 0.2185948 0.2189219 0.2191689 0.2193593 0.2195162 0.2196233 0.2195647 0.21925 0.218855
 0.218786 0.2192866 0.2201591 0.2209724 0.2214895 0.2217961 0.2220602 0.2223252 0.2225498 0.2226463
 0.2223948 0.2215718 0.22039 0.2196104 0.2199131 0.2212138 0.2227988 0.2240363 0.2247729 0.225172
 0.2254348 0.2256627 0.2257822 0.2255603 0.2248667 0.2240079 0.2236443 0.2241827 0.2253184 0.2263614
 0.226941 0.2271992 0.2274134 0.2276855 0.2278778 0.2275817 0.2263443 0.2243337 0.2226826 0.2226993
 0.2245891 0.2272044 0.229181 0.2301184 0.2304806 0.2305875 0.2301451 0.2287773 0.2265818 0.2240833
 0.2220878 0.2215922 0.2231192 0.2258735 0.2281912 0.2291836 0.2294833 0.2301703 0.2314762 0.2327815
 0.2334381 0.2332787 0.2325002 0.2313016 0.2297922 0.2283429 0.2277892 0.2288327 0.2311913 0.2337052
 0.2354106 0.2362716 0.236673 0.2362877 0.2338518 0.22869 0.2226116 0.2193956 0.2214454 0.2272738
 0.233103 0.2365764 0.2380332 0.2387264 0.2391555 0.2389374 0.2370048 0.2321646 0.2249574 0.2188675
 0.2179756 0.2229109 0.2301356 0.2352573 0.2360504 0.232705 0.2270084 0.2217844 0.2197445 0.2218597
 0.2269465 0.2328295 0.2376412 0.2403384 0.2406954 0.2391888 0.2369412 0.2354515 0.235516 0.2360365
 0.2348505 0.2314785 0.227947 0.2258004 0.2236716 0.2197657 0.2158117 0.2159069 0.221218 0.2280572
 0.2320476 0.2325577 0.2318657 0.2309667 0.2278094 0.220215 0.2100022 0.2030254 0.2040676 0.2118912
 0.2203551 0.2244389 0.224231 0.2230925 0.2231598 0.2231662 0.2202271 0.2136303 0.2066938 0.20395
 0.2062925 0.2101711 0.2117564 0.2099499 0.2049505 0.1970514 0.1889364 0.1864298 0.1935337 0.2074956
 0.2210073 0.2282335 0.2268705 0.2167437 0.2006684 0.1862547 0.182188 0.1904002 0.2037081 0.2124483
 0.21211 0.2040266 0.1912746 0.1766767 0.1641923 0.1591513 0.1650081 0.1799165 0.1968529 0.2070376
 0.2047122 0.1916686 0.1777877 0.1738961 0.1818188 0.193101 0.198517 0.1964732 0.1915624 0.1886643
 0.1901733 0.1956817 0.2023911 0.2077127 0.2113137 0.2120831 0.2053041 0.1883064 0.1679275 0.156032
 0.1571856 0.1662247 0.1777578 0.191049 0.2039782 0.2096513 0.2041865 0.1941193 0.1909026 0.1987427
 0.2109742 0.2182391 0.217764 0.2139005 0.2113453 0.2101074 0.2078738 0.2054639 0.206991 0.2142287
 0.223544 0.2299527 0.2322837 0.2327407 0.2331326 0.2335008 0.2333845 0.23263 0.2313006 0.2297952
 0.2287411 0.2282793 0.2279288 0.2273232 0.2261762 0.2231264 0.2160267 0.2049641 0.1942105 0.1888541
 0.1893925 0.1920424 0.1943385 0.1965649 0.196531 0.1881288 0.1694228 0.1492471 0.1407759 0.1487962
 0.1661487 0.1818642 0.1895685 0.1880041 0.1776964 0.1610946 0.1452034 0.1394631 0.148074 0.1659392
 0.184075 0.1973567 0.2052231 0.2074271 0.2029695 0.1930741 0.1824898 0.1768197 0.1790556 0.1881996
 0.199657 0.2065147 0.2028871 0.1897045 0.1773388 0.1780439 0.193146 0.2109014 0.2196879 0.2197981
 0.2189164 0.2201725 0.2204883 0.2188313 0.2196433 0.226681 0.2374479 0.245648 0.2467154 0.2396144
 0.2262903 0.2121915 0.2048714 0.2078876 0.2166924 0.223539 0.224974 0.221383 0.2124054 0.1988888
 0.1877983 0.1880305 0.2001106 0.2150016 0.2243781 0.2282055 0.2309921 0.2340133 0.2337791 0.227355
 0.2173058 0.2101367 0.209868 0.2144983 0.2193613 0.222048 0.2224395 0.2198961 0.2136505 0.2059865
 0.2022774 0.2062897 0.2162492 0.226489 0.2325161 0.2338034 0.2324164 0.2303459 0.2281999 0.2253897
 0.2214329 0.2176437 0.2169004 0.2205821 0.2263816 0.2306697 0.2326574 0.2346877 0.2385543 0.243036
 0.2453907 0.2443497 0.2413122 0.2391078 0.2397198 0.2427157 0.2455753 0.2458481 0.2434903 0.2411245
 0.241621 0.2453627 0.2502 0.2538972 0.2559505 0.2571211 0.2581264 0.2590139 0.259132 0.2576265
 0.254651 0.25207 0.2521315 0.2552332 0.2595448 0.2629017 0.264552 0.2650196 0.2649088 0.2642814
 0.2630148 0.2613687 0.2599885 0.2593932 0.2596053 0.2602952 0.2611268 0.2618951 0.2624922 0.262895
 0.2631533 0.2633213 0.263427 0.2635067 0.263591 0.2636412 0.2635888 0.2634749 0.2634634 0.2636569
 0.2639602 0.2641814 0.2642025 0.2639798 0.2634419 0.2625161 0.2612531 0.2598096 0.2582713 0.2566004
 0.2548629 0.2534662 0.2530276 0.2539113 0.2558896 0.258283 0.260419 0.2619668 0.2629294 0.2634518
 0.263687 0.2637641 0.2637752 0.2637458 0.2636435 0.2634352 0.2631299 0.2627645 0.2623731 0.2619862
 0.2616404 0.2613617 0.261132 0.2608874 0.2605607 0.2601264 0.2596105 0.2590628 0.2585161 0.2579599
 0.2573444 0.2566165 0.2557638 0.2548311 0.2538971 0.2530282 0.252238 0.2514861 0.2507186 0.2499012
 0.2490034 0.2479789 0.2468159 0.2456123 0.2445391 0.2436983 0.2430403 0.2424303 0.2417612 0.2409922
 0.2401244 0.2391791 0.2381814 0.237141 0.2360491 0.2348993 0.233695 0.2324336 0.2310994 0.229678
 0.2281698 0.2265878 0.2249569 0.2233084 0.2216482 0.2199155 0.217981 0.215688 0.2128987 0.2095262
 0.2055662 0.2011123 0.1963316 0.1914155 0.1865422 0.1818635 0.1775054 0.1735745 0.1701652 0.1673615
 0.1652299 0.163809 0.1631085 0.1631192 0.1638216 0.1651785 0.1671178 0.1695317 0.1722877 0.1752306
 0.1781835 0.1809818 0.1835358 0.1858635 0.1880458 0.1901355 0.1921096 0.1939095 0.1955102 0.1969273
 0.1981672 0.1992078 0.2000399 0.2007015 0.2012525 0.2017298 0.2021426 0.2025006 0.2028235 0.2031223
 0.2033876 0.20361 0.2038025 0.2039926 0.2042013 0.2044378 0.2047093 0.2050275 0.2054108 0.2058778
 0.2064255 0.2070182 0.2076141 0.2082017 0.2088004 0.2094364 0.2101371 0.2109432 0.2119024 0.2130407
 0.2143422 0.2157511 0.217187 0.2185592 0.2197796 0.22078 0.2215267 0.2220217 0.2222908 0.2223735
 0.2223112 0.2221315 0.2218441 0.2214579 0.2209945 0.2204782 0.2199237 0.2193384 0.2187245 0.2180745
 0.21738 0.2166528 0.2159253 0.2152249 0.2145583 0.2139193 0.2133014 0.2126987 0.2121043 0.2115146
 0.2109313 0.2103574 0.2097906 0.2092252 0.2086571 0.2080781 0.2074623 0.2067704 0.2059757 0.2050762
 0.2040766 0.2029717 0.2017587 0.2004544 0.1990838 0.1976572 0.1961698 0.1946164 0.1929938 0.1912895
 0.1894815 0.1875598 0.1855502 0.1835116 0.181512 0.1796106 0.1778516 0.1762502 0.1747821 0.1734017
 0.172078 0.1707974 0.1695489 0.1683323 0.1671745 0.1661083 0.1651319 0.1642114 0.1633235 0.1624835
 0.1617297 0.1610856 0.1605417 0.1600708 0.1596533 0.1592872 0.1589923 0.1588115 0.1587766 0.1588559
 0.1589575 0.1590001 0.1589605 0.1588566 0.1587164 0.15857 0.158442 0.1583429 0.1582673 0.1581876
 0.1580431 0.157748 0.157214 0.1563712 0.1551922 0.1537061 0.1519847 0.150128 0.1482697 0.1465605
 0.1451087 0.1439497 0.1430714 0.142431 0.1419521 0.1415557 0.1412176 0.1409847 0.1409369 0.1411063
 0.1414006 0.1416373 0.1417113 0.1417109 0.1418324 0.1422105 0.1428435 0.1436238 0.1444096 0.1450961
 0.1456363 0.1460112 0.1462225 0.1463124 0.1463336 0.1462995 0.1462005 0.1460405 0.145821 0.1455292
 0.1451639 0.1447342 0.1442322 0.1436459 0.1429778 0.1422297 0.1414046 0.1405142 0.1395344 0.1384055
 0.1371653 0.1360363 0.1353082 0.1351542 0.1355625 0.1363733 0.1373831 0.1384646 0.1395359 0.1403989
 0.1408017 0.1408137 0.1410064 0.1420417 0.1440444 0.1464693 0.1485887 0.1500182 0.1507517 0.1508796
 0.1504603 0.1495591 0.1481964 0.1463034 0.1438636 0.1410094 0.137911 0.1347206 0.1316493 0.1289158
 0.1266191 0.1247645 0.1233344 0.1223595 0.1219735 0.1218092 0.1199576 0.1139651 0.1046196 0.09763627
 0.0988372 0.1075959 0.1172838 0.1222729 0.1224075 0.1206829 0.1191713 0.1181902 0.1176356 0.1176528
 0.1183728 0.1196476 0.1210787 0.1222605 0.1230338 0.1234392 0.123419 0.1225901 0.1202088 0.1154359
 0.1080116 0.09882801 0.08962154 0.08197351 0.07661241 0.07343137 0.07181972 0.07101184 0.07046822 0.07013988
 0.07035747 0.07143336 0.07339238 0.07606004 0.07925479 0.08274738 0.08613004 0.08897409 0.09115748 0.09287161
 0.09428743 0.0953601 0.09596227 0.0960614 0.0957365 0.09511867 0.09434728 0.09351885 0.09262479 0.09156781
 0.09032035 0.08907686 0.08815265 0.08769292 0.08756921 0.08757517 0.08760606 0.08763319 0.08763573 0.08760355
 0.08754911 0.0875208 0.08761832 0.08792134 0.0883738 0.0888059 0.08908705 0.08921803 0.08928197 0.08930658
 0.08915514 0.08864234 0.08784005 0.08710607 0.08662844 0.08610559 0.08513799 0.08383714 0.08278295 0.08240378
 0.08259737 0.08294451 0.08310764 0.08299981 0.0827575 0.08266391 0.08296091 0.08356482 0.08403667 0.08399324
</values></Ydata></ScRf><Data_Parameters_AB><parameter name="DPF">1</parameter><parameter name="NPT">3497</parameter><parameter name="FXV">3996</parameter><parameter name="LXV">500</parameter><parameter name="CSF">1</parameter><parameter name="MXY">0.0772815048694611</parameter><parameter name="MNY">-0.119317404925823</parameter><parameter name="DAT">20/05/2022</parameter><parameter name="TIM">11:01:44.930 (GMT+2)</parameter><parameter name="DXU">WN</parameter></Data_Parameters_AB><AB__Qtest><MainReport name="Quality Test Report"><Header><Line><Legend>Test result ok/not ok [1/0]: </Legend><Value>0</Value></Line><Line><Legend>Method file: </Legend><Value>C:\Users\Public\Documents\Bruker\OPUS_8.2.28\QT\IRBT_v3_default.QT</Value></Line></Header><Matrix><Line><Legend></Legend><Legend>min</Legend><Legend>max</Legend><Legend>measured</Legend></Line><Line><Value>Absorption (X-Range 1):</Value><Value>0.400000</Value><Value>2.000000</Value><Value>0.169263</Value></Line><Line><Value>Noise (X-Range 4):</Value><Value></Value><Value>0.000300</Value><Value>0.000047</Value></Line><Line><Value>Signal/Noise (X-Range 2):</Value><Value>200.000000</Value><Value></Value><Value>67.338480</Value></Line><Line><Value>Signal/Noise (X-Range 3):</Value><Value>40.000000</Value><Value></Value><Value>31.825467</Value></Line><Line><Value>Water vapour (X-Range 5):</Value><Value></Value><Value>0.000300</Value><Value>0.000067</Value></Line><Line><Value>Signal/Water (X-Range 2):</Value><Value>100.000000</Value><Value></Value><Value>47.299755</Value></Line><Line><Value>Signal/Water (X-Range 3):</Value><Value>20.000000</Value><Value></Value><Value>22.354778</Value></Line><Line><Value>Fringes (X-Range 6):</Value><Value></Value><Value>0.000100</Value><Value>0.000048</Value></Line></Matrix></MainReport></AB__Qtest><Data_Parameters_ScSm><parameter name="DPF">1</parameter><parameter name="NPT">1814</parameter><parameter name="FXV">3996.33169228125</parameter><parameter name="LXV">499.541461535156</parameter><parameter name="CSF">1</parameter><parameter name="MXY">0.315438210964203</parameter><parameter name="MNY">0.0363632217049599</parameter><parameter name="DAT">20/05/2022</parameter><parameter name="TIM">11:01:44.930 (GMT+2)</parameter><parameter name="DXU">WN</parameter></Data_Parameters_ScSm><Data_Parameters_ScRf><parameter name="DPF">1</parameter><parameter name="NPT">1820</parameter><parameter name="FXV">4004.04661832813</parameter><parameter name="LXV">495.683998511719</parameter><parameter name="CSF">1</parameter><parameter name="MXY">0.265019565820694</parameter><parameter name="MNY">0.0291528590023518</parameter><parameter name="DAT">20/05/2022</parameter><parameter name="TIM">11:01:19.078 (GMT+2)</parameter><parameter name="DXU">WN</parameter></Data_Parameters_ScRf><Optic_Parameters_Rf><parameter name="APR">0</parameter><parameter name="APT">Open</parameter><parameter name="BMS">KBr</parameter><parameter name="DTC">RT-DLaTGS_IR-Biotyper [Microplate reader]</parameter><parameter name="HPF">0</parameter><parameter name="LPF">10.0</parameter><parameter name="LPV">4000</parameter><parameter name="PGR">0</parameter><parameter name="RCH">Module port</parameter><parameter name="RDX">0</parameter><parameter name="SRC">MIR</parameter><parameter name="VEL">10.0</parameter><parameter name="SON">Off</parameter></Optic_Parameters_Rf><Acquisition_Parameters_Rf><parameter name="ADT">1</parameter><parameter name="AQM">DD</parameter><parameter name="CFE">0</parameter><parameter name="COR">0</parameter><parameter name="DEL">0</parameter><parameter name="DLY">0</parameter><parameter name="HFW">8000</parameter><parameter name="LFW">0</parameter><parameter name="NSR">32</parameter><parameter name="PLF">AB</parameter><parameter name="RES">6</parameter><parameter name="RGN">-1</parameter><parameter name="STR">0</parameter><parameter name="TCL">MakeCompatibleScalar (0, {WSV=1.000000, ARV=0});</parameter><parameter name="TDL">37</parameter><parameter name="RPO">0</parameter></Acquisition_Parameters_Rf><FT_-_Parameters_Rf><parameter name="APF">B3</parameter><parameter name="HFQ">500</parameter><parameter name="LFQ">4000</parameter><parameter name="NLI">0</parameter><parameter name="PHR">24</parameter><parameter name="PHZ">ML</parameter><parameter name="SPZ">NO</parameter><parameter name="ZFF">1</parameter></FT_-_Parameters_Rf><Optic_Parameters_><parameter name="APR">0</parameter><parameter name="APT">Open</parameter><parameter name="BMS">KBr</parameter><parameter name="CHN">Module port</parameter><parameter name="DTC">RT-DLaTGS_IR-Biotyper [Microplate reader]</parameter><parameter name="HPF">0</parameter><parameter name="LPF">10.0</parameter><parameter name="LPV">4000</parameter><parameter name="PGN">0</parameter><parameter name="RDX">0</parameter><parameter name="SRC">MIR</parameter><parameter name="VEL">10.0</parameter><parameter name="SON">Off</parameter></Optic_Parameters_><FT_-_Parameters_><parameter name="APF">B3</parameter><parameter name="HFQ">500</parameter><parameter name="LFQ">4000</parameter><parameter name="NLI">0</parameter><parameter name="PHR">24</parameter><parameter name="PHZ">ML</parameter><parameter name="SPZ">NO</parameter><parameter name="ZFF">1</parameter></FT_-_Parameters_><Acquisition_Parameters_><parameter name="ADT">1</parameter><parameter name="AQM">DD</parameter><parameter name="CFE">0</parameter><parameter name="COR">0</parameter><parameter name="DEL">0</parameter><parameter name="DLY">0</parameter><parameter name="HFW">8000</parameter><parameter name="LFW">0</parameter><parameter name="NSS">32</parameter><parameter name="PLF">AB</parameter><parameter name="RES">6</parameter><parameter name="SOT">0</parameter><parameter name="TCL">MakeCompatibleScalar (0, {WSV=1.000000, ARV=0});</parameter><parameter name="TDL">37</parameter><parameter name="SPO">0</parameter><parameter name="SGN">-1</parameter></Acquisition_Parameters_><Instrument_Parameters_Rf><parameter name="HFL">15800.168544</parameter><parameter name="LFL">0</parameter><parameter name="LWN">15800.168544</parameter><parameter name="ABP">32197</parameter><parameter name="SSP">1</parameter><parameter name="ARG">2</parameter><parameter name="ASG">2</parameter><parameter name="ASS">32</parameter><parameter name="GFW">16</parameter><parameter name="GBW">16</parameter><parameter name="BFW">0</parameter><parameter name="BBW">0</parameter><parameter name="PKA">7379</parameter><parameter name="PKL">4990</parameter><parameter name="PRA">7521</parameter><parameter name="PRL">5001</parameter><parameter name="P2A">1</parameter><parameter name="P2L">1</parameter><parameter name="P2R">1</parameter><parameter name="P2K">1</parameter><parameter name="DAQ">0</parameter><parameter name="AG2">1</parameter><parameter name="SSM">1</parameter><parameter name="RSN">24509</parameter><parameter name="CRR">0</parameter><parameter name="SRT">1653044479.078</parameter><parameter name="DUR">19.6379852294922</parameter><parameter name="TSC">28.9</parameter><parameter name="MVD">0.220787093043327</parameter><parameter name="AN1">0.225774028754815</parameter><parameter name="AN2">0</parameter><parameter name="VSN">2.485 Apr  4 2017</parameter><parameter name="SRN">0085</parameter><parameter name="CAM">0</parameter><parameter name="INS">IR-Biotyper</parameter><parameter name="FOC">69</parameter><parameter name="RDY">1</parameter><parameter name="ARS">32</parameter></Instrument_Parameters_Rf><Sample_Parameters_><parameter name="BLD"></parameter><parameter name="CNM">Admin</parameter><parameter name="CPY"></parameter><parameter name="DPM"></parameter><parameter name="EXP">IRBT_v3_32Scans.XPM</parameter><parameter name="LCT"></parameter><parameter name="SFM">Microplate, HTS-XT</parameter><parameter name="SNM">220520-0930(v.3)_RTF49M (D_16)_C4_a1ea9457-8d6d-4972-837e-e66e4d0ba924.0</parameter><parameter name="XPP">C:\Users\Public\Documents\Bruker\OPUS_8.2.28\XPM</parameter><parameter name="IST">OK</parameter><parameter name="CPG">1252</parameter><parameter name="UID">ead0b446-bb51-46d9-9dec-35c4048fd29e</parameter></Sample_Parameters_><Instrument_Parameters_><parameter name="HFL">15800.168544</parameter><parameter name="LFL">0</parameter><parameter name="LWN">15800.168544</parameter><parameter name="ABP">32197</parameter><parameter name="SSP">1</parameter><parameter name="ASG">2</parameter><parameter name="ARG">2</parameter><parameter name="ASS">32</parameter><parameter name="GFW">16</parameter><parameter name="GBW">16</parameter><parameter name="BFW">0</parameter><parameter name="BBW">0</parameter><parameter name="PKA">8340</parameter><parameter name="PKL">4988</parameter><parameter name="PRA">8540</parameter><parameter name="PRL">4993</parameter><parameter name="P2A">1</parameter><parameter name="P2L">1</parameter><parameter name="P2R">1</parameter><parameter name="P2K">1</parameter><parameter name="DAQ">0</parameter><parameter name="AG2">1</parameter><parameter name="SSM">1</parameter><parameter name="RSN">12879</parameter><parameter name="CRR">0</parameter><parameter name="SRT">1653044504.931</parameter><parameter name="DUR">19.6369934082031</parameter><parameter name="TSC">28.9</parameter><parameter name="MVD">0.252067744731903</parameter><parameter name="AN1">0.225812442306594</parameter><parameter name="AN2">0</parameter><parameter name="VSN">2.485 Apr  4 2017</parameter><parameter name="SRN">0085</parameter><parameter name="CAM">0</parameter><parameter name="INS">IR-Biotyper</parameter><parameter name="FOC">69</parameter><parameter name="RDY">1</parameter></Instrument_Parameters_><History/></OPUSDataFile>
